DTS Sentinel unit serial number:	SN413079Multiplexer serial number:	ORYXHardware model number:	OX4-SRSoftware version number:	ORYX F/W v4.00 Oryx Data Collector v3.7.2.0data status	okinstallation	princeton_trtdifferential loss correction	single-endedforward channel	channel 1reverse channel	N/Adate	2019/09/19time	08:30:35forward acquisition time	60.00reverse acquisition time	0.00gamma	496.2192k internal	0.2343k external	0.2343temperature offset calibration	1.0005default loss term (dB/km)	0.3790temperature slope calibration	1.0000multiplexer offset coefficient	1.0000multiplexer slope coefficient	1.0000fibre end	0.00T internal ref (°C)	20.66T ext. ref 1 (°C)	0.57T ext. ref 2 (°C)	16.35length (m)	temperature (°C)	Stokes	anti-Stokes-747.200	-126.677	0.486	-0.072
-746.185	-58.971	-0.125	0.054
-745.171	800.000	-0.078	-0.246
-744.156	45.101	-0.186	0.172
-743.142	146.055	0.207	0.279
-742.127	-8.620	-0.173	0.117
-741.112	323.206	0.060	0.115
-740.098	-141.836	-0.407	0.041
-739.083	-56.954	-0.316	0.140
-738.069	434.727	-0.062	0.135
-737.054	-200.000	-0.012	-0.192
-736.039	187.263	-0.232	-0.346
-735.025	-14.493	0.176	0.113
-734.010	-92.447	-0.182	0.051
-732.996	-200.000	0.003	-0.122
-731.981	-200.000	-0.006	-0.135
-730.966	800.000	-0.070	-0.219
-729.952	-200.000	-0.031	-0.351
-728.937	-95.397	0.161	-0.043
-727.923	116.138	-0.077	-0.094
-726.908	41.978	-0.260	-0.236
-725.894	-167.795	-0.083	-0.003
-724.879	49.591	-0.258	-0.243
-723.864	-121.456	0.250	-0.042
-722.850	800.000	-0.113	-0.449
-721.835	372.594	-0.182	-0.369
-720.821	-200.000	0.008	0.174
-719.806	774.847	-0.146	-0.397
-718.791	-85.198	-0.227	-0.071
-717.777	-110.633	-0.168	0.035
-716.762	543.074	-0.030	-0.073
-715.748	123.459	-0.166	-0.209
-714.733	-200.000	0.007	-0.126
-713.718	157.158	0.137	0.190
-712.704	327.488	0.066	-0.126
-711.689	-42.059	-0.205	0.105
-710.675	-72.911	0.226	-0.083
-709.660	800.000	0.051	-0.189
-708.645	53.907	-0.199	0.191
-707.631	-76.815	-0.153	0.054
-706.616	152.023	-0.291	-0.397
-705.602	-178.172	0.332	0.008
-704.587	-200.000	-0.006	0.066
-703.572	377.816	-0.108	-0.221
-702.558	447.157	0.097	-0.214
-701.543	-126.170	0.284	-0.042
-700.529	22.479	0.023	0.019
-699.514	52.115	0.245	-0.234
-698.499	50.134	-0.191	-0.180
-697.485	110.257	-0.110	-0.132
-696.470	-105.882	0.211	-0.048
-695.456	25.205	-0.142	0.118
-694.441	-136.779	-0.279	0.032
-693.426	-100.660	0.194	-0.048
-692.412	438.072	-0.098	0.214
-691.397	800.000	0.015	0.055
-690.383	-176.704	-0.079	0.002
-689.368	-80.398	-0.090	-0.030
-688.354	-115.201	0.202	0.038
-687.339	-71.105	-0.282	0.106
-686.324	-115.855	-0.181	-0.034
-685.310	27.110	0.143	-0.120
-684.295	-146.312	-0.313	-0.027
-683.281	-90.637	-0.472	-0.136
-682.266	-102.278	0.242	0.058
-681.251	51.275	-0.249	0.236
-680.237	-43.916	0.030	-0.015
-679.222	800.000	-0.047	-0.175
-678.208	-87.947	-0.121	0.036
-677.193	-93.868	-0.209	-0.057
-676.178	-200.000	0.026	-0.486
-675.164	59.021	-0.295	0.289
-674.149	10.659	0.126	0.096
-673.135	-200.000	0.015	0.106
-672.120	-7.590	-0.149	0.100
-671.105	-200.000	0.048	-0.244
-670.091	176.636	-0.098	-0.143
-669.076	36.901	0.016	-0.014
-668.062	-200.000	0.011	-0.185
-667.047	-107.864	-0.185	-0.040
-666.032	-200.000	-0.059	-0.359
-665.018	6.056	0.325	-0.240
-664.003	-163.141	-0.215	0.010
-662.989	-200.000	0.019	-0.431
-661.974	377.272	-0.092	-0.187
-660.959	-13.127	-0.313	-0.203
-659.945	270.654	0.135	-0.237
-658.930	-2.809	0.242	0.169
-657.916	-114.125	-0.170	0.033
-656.901	84.806	-0.065	-0.072
-655.886	220.365	-0.053	0.084
-654.872	-24.475	-0.107	-0.064
-653.857	356.302	-0.033	-0.065
-652.843	79.125	-0.149	-0.159
-651.828	-200.000	-0.012	-0.178
-650.814	-113.112	-0.379	-0.075
-649.799	-42.523	-0.251	0.128
-648.784	60.999	0.221	0.219
-647.770	49.648	0.280	0.263
-646.755	28.180	-0.168	0.142
-645.741	-76.954	0.185	-0.064
-644.726	-15.330	-0.405	0.258
-643.711	24.801	0.064	-0.053
-642.697	180.741	0.039	0.058
-641.682	-14.180	0.250	-0.161
-640.668	-76.882	0.205	0.072
-639.653	-200.000	-0.005	0.184
-638.638	-200.000	-0.033	0.149
-637.624	86.776	0.156	-0.171
-636.609	227.458	0.070	-0.114
-635.595	-200.000	-0.012	0.247
-634.580	174.117	-0.146	-0.210
-633.565	662.519	0.017	-0.045
-632.551	419.470	-0.071	-0.151
-631.536	-200.000	-0.006	-0.231
-630.522	232.675	-0.088	-0.145
-629.507	241.139	0.106	0.176
-628.492	-135.623	0.210	0.025
-627.478	152.919	0.073	0.100
-626.463	776.584	0.035	-0.095
-625.449	44.227	0.184	0.168
-624.434	218.607	-0.145	-0.231
-623.419	-200.000	0.004	-0.435
-622.405	-127.242	0.061	0.009
-621.390	41.980	0.073	0.066
-620.376	-114.116	0.212	-0.041
-619.361	-117.825	0.157	0.028
-618.346	426.475	0.095	0.205
-617.332	29.271	-0.120	-0.102
-616.317	800.000	-0.022	-0.088
-615.303	-33.781	0.138	0.076
-614.288	-100.505	-0.186	0.046
-613.273	-156.784	-0.168	0.010
-612.259	4.033	-0.095	0.069
-611.244	-200.000	-0.025	0.568
-610.230	-200.000	-0.047	-0.318
-609.215	-200.000	0.009	-0.404
-608.201	71.704	0.197	-0.204
-607.186	-200.000	-0.022	0.113
-606.171	-116.061	0.416	0.077
-605.157	-26.198	-0.212	-0.124
-604.142	0.423	-0.213	-0.152
-603.128	-117.733	-0.533	-0.095
-602.113	38.666	-0.153	-0.136
-601.098	-98.269	-0.212	-0.054
-600.084	-69.606	-0.086	0.033
-599.069	800.000	-0.079	-0.238
-598.055	20.604	0.270	0.217
-597.040	800.000	0.064	0.271
-596.025	128.544	0.121	0.154
-595.011	800.000	-0.102	-0.330
-593.996	-125.701	-0.356	-0.054
-592.982	800.000	-0.063	-0.177
-591.967	-62.950	-0.196	-0.081
-590.952	512.444	-0.093	-0.215
-589.938	25.583	-0.274	0.227
-588.923	-20.703	-0.182	0.111
-587.909	-23.611	-0.195	-0.116
-586.894	73.635	0.103	-0.108
-585.879	800.000	0.018	-0.072
-584.865	10.316	-0.229	-0.173
-583.850	74.506	0.207	-0.217
-582.836	80.882	0.236	0.254
-581.821	-85.204	-0.258	0.080
-580.806	-116.695	-0.197	-0.036
-579.792	-143.389	0.351	-0.033
-578.777	-31.200	0.089	0.050
-577.763	164.594	-0.030	0.043
-576.748	-78.774	-0.092	-0.031
-575.733	543.290	0.046	-0.108
-574.719	-200.000	-0.023	-0.145
-573.704	-11.677	0.048	-0.031
-572.690	9.317	0.204	0.154
-571.675	-92.774	0.023	0.006
-570.661	-200.000	-0.025	-0.187
-569.646	29.651	0.053	0.045
-568.631	800.000	0.071	0.279
-567.617	-99.774	0.203	0.051
-566.602	-67.075	-0.184	-0.072
-565.588	-108.669	-0.132	-0.028
-564.573	-200.000	0.082	-0.397
-563.558	-200.000	0.003	0.313
-562.544	0.878	0.162	-0.115
-561.529	233.650	-0.104	-0.170
-560.515	312.831	0.181	-0.337
-559.500	-125.806	-0.183	0.027
-558.485	-20.200	0.171	-0.105
-557.471	-200.000	0.014	-0.114
-556.456	-3.971	-0.163	0.113
-555.442	-200.000	0.062	-0.440
-554.427	800.000	-0.064	0.184
-553.412	-88.295	0.222	0.066
-552.398	-158.536	0.064	0.004
-551.383	250.371	0.108	-0.182
-550.369	24.482	0.058	0.047
-549.354	-200.000	0.050	-0.219
-548.339	-106.707	0.217	0.048
-547.325	458.272	-0.168	-0.372
-546.310	162.279	0.058	0.080
-545.296	389.258	0.142	-0.292
-544.281	21.150	-0.097	0.078
-543.266	-200.000	0.048	-0.242
-542.252	-200.000	0.014	0.127
-541.237	-97.330	-0.362	0.094
-540.223	112.912	-0.144	0.173
-539.208	-10.366	0.165	-0.109
-538.193	-199.779	-0.519	0.003
-537.179	135.012	-0.071	-0.092
-536.164	-73.224	0.065	0.024
-535.150	-10.464	0.036	0.023
-534.135	-200.000	-0.047	-0.307
-533.121	-192.690	0.420	0.004
-532.106	-32.443	-0.340	-0.188
-531.091	203.924	-0.077	-0.118
-530.077	-119.206	0.063	0.011
-529.062	468.398	0.062	-0.137
-528.048	-89.612	-0.242	-0.071
-527.033	-137.746	0.334	-0.037
-526.018	180.389	0.062	0.090
-525.004	-200.000	0.008	-0.393
-523.989	-125.170	0.168	0.026
-522.975	-147.699	-0.349	0.029
-521.960	-107.724	0.013	0.003
-520.945	-4.346	-0.035	0.024
-519.931	-155.821	-0.219	0.014
-518.916	439.460	0.170	0.369
-517.902	80.286	-0.099	-0.106
-516.887	58.090	0.131	-0.127
-515.872	-145.060	-0.313	0.028
-514.858	72.046	-0.012	0.012
-513.843	-16.259	-0.123	0.078
-512.829	96.716	0.184	-0.209
-511.814	-119.057	0.208	0.036
-510.799	85.040	0.107	-0.116
-509.785	-13.726	0.301	0.193
-508.770	120.724	0.116	0.144
-507.756	97.830	-0.138	-0.158
-506.741	-200.000	0.022	0.210
-505.726	-200.000	-0.050	-0.232
-504.712	-96.729	0.235	0.061
-503.697	-200.000	-0.009	0.265
-502.683	-4.115	-0.293	0.201
-501.668	-174.395	-0.096	-0.003
-500.653	193.405	0.152	0.228
-499.639	22.799	0.374	0.304
-498.624	-27.507	-0.156	0.090
-497.610	83.612	0.036	0.039
-496.595	800.000	0.046	-0.148
-495.581	-104.292	-0.203	-0.047
-494.566	147.553	-0.200	-0.267
-493.551	244.585	-0.151	-0.252
-492.537	510.332	-0.102	0.234
-491.522	-29.874	0.176	-0.099
-490.508	317.307	0.156	0.292
-489.493	-19.086	0.430	0.265
-488.478	-83.000	-0.153	0.049
-487.464	357.584	0.121	-0.239
-486.449	355.931	-0.051	-0.100
-485.435	-70.599	0.353	0.132
-484.420	262.907	-0.142	-0.245
-483.405	6.600	-0.098	-0.072
-482.391	-185.016	0.151	0.002
-481.376	-200.000	0.063	0.286
-480.362	179.273	0.157	-0.228
-479.347	-28.428	0.273	-0.156
-478.332	26.301	0.077	-0.064
-477.318	-200.000	0.006	0.090
-476.303	800.000	0.083	0.252
-475.289	-136.607	-0.255	-0.029
-474.274	19.172	0.190	0.151
-473.259	302.239	-0.098	-0.180
-472.245	800.000	0.045	-0.177
-471.230	141.837	-0.062	0.081
-470.216	169.255	-0.123	0.174
-469.201	714.206	0.084	0.222
-468.186	-31.569	-0.171	-0.095
-467.172	800.000	-0.079	-0.240
-466.157	-122.740	-0.313	-0.050
-465.143	-95.868	-0.072	0.019
-464.128	-84.776	0.132	-0.041
-463.113	75.343	-0.065	0.068
-462.099	-9.218	0.096	-0.064
-461.084	-200.000	0.003	-0.134
-460.070	779.382	0.093	-0.252
-459.055	-35.539	-0.248	0.133
-458.040	-108.349	0.107	-0.023
-457.026	-200.000	-0.003	0.101
-456.011	800.000	-0.058	0.249
-454.997	-127.035	-0.078	0.011
-453.982	-97.276	-0.260	0.067
-452.968	-86.015	-0.047	-0.014
-451.953	-20.862	0.170	-0.103
-450.938	367.366	0.016	0.033
-449.924	134.136	-0.050	0.064
-448.909	85.301	-0.236	-0.257
-447.895	-134.880	-0.156	-0.019
-446.880	267.153	0.100	0.173
-445.865	800.000	0.088	-0.263
-444.851	-156.589	0.216	-0.013
-443.836	245.627	0.108	0.180
-442.822	34.137	-0.352	0.304
-441.807	-200.000	0.220	0.000
-440.792	35.098	-0.194	0.168
-439.778	-200.000	-0.036	-0.167
-438.763	277.064	-0.130	-0.228
-437.749	-95.338	-0.172	-0.046
-436.734	800.000	0.119	0.461
-435.719	-200.000	0.016	-0.071
-434.705	22.067	0.082	-0.066
-433.690	-117.520	-0.188	0.034
-432.676	-127.818	-0.314	-0.045
-431.661	6.607	-0.189	-0.139
-430.646	-56.405	-0.234	0.103
-429.632	-56.274	-0.243	0.107
-428.617	-75.064	0.318	0.112
-427.603	119.959	-0.083	-0.101
-426.588	800.000	-0.062	0.242
-425.573	-200.000	-0.007	0.053
-424.559	199.586	0.074	0.113
-423.544	96.743	-0.110	-0.124
-422.530	-99.652	0.201	0.050
-421.515	264.998	-0.098	0.168
-420.500	355.386	-0.022	-0.043
-419.486	-57.558	0.136	-0.059
-418.471	-200.000	0.043	-0.240
-417.457	-96.018	-0.159	-0.042
-416.442	-180.776	0.277	0.006
-415.428	48.729	-0.156	-0.145
-414.413	-200.000	0.000	-0.032
-413.398	-200.000	0.055	0.317
-412.384	-60.547	0.162	0.068
-411.369	-136.074	-0.221	0.026
-410.355	293.120	-0.112	-0.202
-409.340	800.000	0.049	0.143
-408.325	-83.791	0.164	-0.052
-407.311	-140.976	-0.203	0.021
-406.296	167.939	-0.103	-0.145
-405.282	466.589	-0.065	-0.143
-404.267	-75.534	0.148	-0.052
-403.252	800.000	-0.068	-0.241
-402.238	-28.623	0.156	-0.089
-401.223	-200.000	-0.040	0.181
-400.209	-57.206	0.034	-0.015
-399.194	-79.273	-0.223	-0.074
-398.179	-22.717	0.032	0.019
-397.165	800.000	-0.060	-0.205
-396.150	800.000	0.028	-0.083
-395.136	-200.000	0.015	0.087
-394.121	800.000	0.063	0.239
-393.106	63.298	-0.312	-0.309
-392.092	-39.052	0.247	-0.128
-391.077	-67.268	-0.081	-0.031
-390.063	83.706	-0.145	-0.156
-389.048	-7.866	-0.192	0.128
-388.033	-111.555	0.138	0.028
-387.019	-136.291	0.252	0.029
-386.004	-200.000	-0.185	-0.001
-384.990	-106.048	0.111	0.025
-383.975	-163.930	0.227	-0.010
-382.960	-78.257	0.040	0.013
-381.946	-112.843	-0.209	-0.041
-380.931	-152.848	-0.118	0.008
-379.917	-60.906	0.125	0.052
-378.902	-115.975	-0.269	0.050
-377.888	-47.640	-0.223	-0.107
-376.873	665.324	0.056	0.142
-375.858	40.433	0.027	0.024
-374.844	-76.509	0.335	0.116
-373.829	84.600	0.236	-0.255
-372.815	-165.003	0.311	-0.014
-371.800	163.888	-0.097	0.135
-370.785	245.702	-0.198	0.328
-369.771	86.911	-0.062	-0.067
-368.756	-135.467	0.366	-0.043
-367.742	782.010	0.082	-0.223
-366.727	-128.767	0.180	-0.025
-365.712	800.000	-0.060	-0.221
-364.698	52.960	-0.075	0.071
-363.683	150.945	0.070	0.094
-362.669	17.623	0.244	0.191
-361.654	-200.000	-0.032	0.327
-360.639	-96.442	0.174	-0.045
-359.625	800.000	-0.045	0.131
-358.610	-138.263	-0.195	-0.021
-357.596	-26.338	-0.324	0.188
-356.581	-200.000	0.074	0.343
-355.566	621.895	-0.038	0.095
-354.552	436.357	0.063	-0.136
-353.537	-89.085	-0.167	0.049
-352.523	-145.222	-0.053	0.005
-351.508	-200.000	0.004	0.062
-350.493	-90.602	0.139	-0.039
-349.479	-134.580	-0.094	-0.011
-348.464	-3.190	-0.252	0.173
-347.450	800.000	0.086	0.237
-346.435	-124.986	0.194	0.029
-345.420	-73.228	0.064	0.023
-344.406	144.394	0.153	-0.201
-343.391	-127.160	-0.460	-0.066
-342.377	-66.032	0.191	0.075
-341.362	7.269	-0.144	0.106
-340.348	-145.133	0.123	-0.011
-339.333	800.000	-0.068	0.217
-338.318	-104.328	-0.325	0.074
-337.304	-200.000	-0.008	0.269
-336.289	-200.000	-0.006	0.065
-335.275	-200.000	0.025	0.151
-334.260	-139.026	0.082	0.009
-333.245	25.521	0.211	0.173
-332.231	-200.000	-0.019	0.107
-331.216	-200.000	-0.039	-0.183
-330.202	-98.469	0.313	-0.079
-329.187	-174.197	-0.333	-0.010
-328.172	100.453	0.081	-0.093
-327.158	576.074	0.086	0.207
-326.143	-26.480	-0.170	0.098
-325.129	-115.122	0.051	0.010
-324.114	-200.000	-0.008	-0.108
-323.099	-55.014	0.020	-0.009
-322.085	9.450	-0.297	-0.221
-321.070	-35.055	0.537	-0.289
-320.056	-200.000	0.008	-0.272
-319.041	156.162	0.167	-0.226
-318.026	800.000	0.050	-0.151
-317.012	7.831	0.264	0.195
-315.997	-170.291	-0.193	-0.007
-314.983	-33.811	-0.098	0.053
-313.968	-16.114	0.225	-0.141
-312.953	-173.215	0.367	-0.011
-311.939	-147.144	-0.252	0.021
-310.924	116.914	0.078	-0.094
-309.910	-21.008	0.128	0.077
-308.895	800.000	0.015	0.061
-307.880	-106.371	-0.261	0.058
-306.866	-200.000	0.020	-0.113
-305.851	36.732	-0.056	-0.048
-304.837	800.000	-0.048	0.144
-303.822	107.616	-0.067	0.079
-302.807	800.000	0.073	-0.199
-301.793	-106.003	0.295	0.065
-300.778	-57.910	-0.196	-0.084
-299.764	-200.000	0.006	0.202
-298.749	-77.726	0.256	0.087
-297.735	275.321	0.054	-0.094
-296.720	-98.072	0.163	0.041
-295.705	-6.221	0.155	0.104
-294.691	733.049	-0.105	0.277
-293.676	152.681	0.203	0.273
-292.662	800.000	0.041	-0.168
-291.647	-187.847	0.079	0.001
-290.632	-98.945	0.032	-0.008
-289.618	800.000	-0.130	-0.369
-288.603	800.000	0.041	-0.161
-287.589	-200.000	0.019	0.373
-286.574	-138.981	-0.252	-0.027
-285.559	-142.845	-0.240	0.023
-284.545	-34.352	-0.308	-0.166
-283.530	721.177	0.070	-0.183
-282.516	-90.706	-0.148	0.042
-281.501	-200.000	-0.057	-0.456
-280.486	50.103	0.176	-0.164
-279.472	-143.455	-0.180	0.017
-278.457	221.579	0.154	0.243
-277.443	231.567	-0.138	-0.223
-276.428	-200.000	-0.007	-0.414
-275.413	-132.689	0.292	-0.037
-274.399	-180.390	-0.199	-0.004
-273.384	-62.248	-0.077	0.031
-272.370	-200.000	-0.046	-0.357
-271.355	-11.741	0.076	-0.049
-270.340	-127.024	-0.118	0.017
-269.326	40.791	-0.129	-0.115
-268.311	-125.317	-0.064	-0.010
-267.297	53.346	0.092	0.087
-266.282	-200.000	-0.001	-0.187
-265.267	341.238	0.053	0.102
-264.253	-144.484	0.382	0.035
-263.238	319.029	-0.076	0.141
-262.224	147.290	-0.149	0.197
-261.209	46.500	0.087	0.079
-260.195	-200.000	0.013	0.076
-259.180	-56.072	0.110	0.048
-258.165	-151.927	0.385	0.028
-257.151	96.049	-0.021	0.024
-256.136	-18.209	-0.077	-0.047
-255.122	91.582	-0.233	0.258
-254.107	454.568	-0.102	0.222
-253.092	66.959	-0.012	-0.012
-252.078	800.000	0.075	-0.269
-251.063	-123.149	-0.335	0.053
-250.049	-3.588	-0.236	-0.161
-249.034	67.831	-0.151	-0.151
-248.019	178.514	-0.077	0.110
-247.005	275.207	0.180	0.313
-245.990	-200.000	-0.024	-0.171
-244.976	800.000	-0.105	0.288
-243.961	64.899	0.106	0.105
-242.946	-37.476	0.123	-0.064
-241.932	-165.311	0.191	0.008
-240.917	14.257	-0.093	-0.072
-239.903	800.000	0.023	-0.094
-238.888	-165.844	0.138	-0.006
-237.873	87.206	-0.220	-0.239
-236.859	-28.311	0.174	-0.099
-235.844	-86.168	-0.087	-0.026
-234.830	76.447	-0.132	0.137
-233.815	243.534	-0.060	-0.099
-232.800	459.493	-0.120	0.263
-231.786	-87.673	0.405	-0.120
-230.771	-126.341	0.147	-0.022
-229.757	800.000	-0.099	0.329
-228.742	-90.606	-0.142	0.040
-227.727	537.707	0.082	0.191
-226.713	165.370	-0.077	0.107
-225.698	800.000	0.003	0.012
-224.684	147.954	-0.030	0.039
-223.669	81.428	-0.138	0.147
-222.655	-49.051	-0.128	-0.060
-221.640	58.968	0.149	-0.144
-220.625	-153.256	0.241	-0.016
-219.611	800.000	0.102	-0.353
-218.596	-114.375	0.480	0.091
-217.582	-200.000	0.016	0.117
-216.567	89.040	0.235	-0.256
-215.552	-200.000	0.001	-0.082
-214.538	87.221	-0.069	-0.074
-213.523	-27.627	-0.147	0.083
-212.509	-90.536	0.092	-0.026
-211.494	120.903	0.260	-0.318
-210.479	-200.000	0.005	0.083
-209.465	319.223	0.147	-0.272
-208.450	-106.267	-0.210	0.046
-207.436	-200.000	-0.004	0.280
-206.421	551.463	-0.122	0.288
-205.406	-155.660	-0.145	0.009
-204.392	14.421	-0.250	-0.192
-203.377	-125.719	-0.285	-0.042
-202.363	-200.000	0.052	0.312
-201.348	-78.459	-0.186	-0.062
-200.333	355.246	-0.189	-0.368
-199.319	-61.077	0.271	-0.112
-198.304	-55.043	-0.206	0.091
-197.290	-61.827	0.128	0.052
-196.275	-200.000	0.001	0.309
-195.260	511.486	-0.036	0.082
-194.246	177.327	-0.016	-0.023
-193.231	352.366	-0.053	0.103
-192.217	-137.122	0.349	-0.039
-191.202	-13.853	0.106	-0.067
-190.187	138.033	0.081	0.105
-189.173	-89.863	0.129	-0.037
-188.158	-147.983	0.268	-0.022
-187.144	-101.861	0.157	0.037
-186.129	-127.686	-0.170	-0.024
-185.114	-126.414	-0.440	-0.064
-184.100	42.438	-0.097	0.086
-183.085	-34.330	-0.258	-0.138
-182.071	800.000	0.057	0.189
-181.056	-200.000	-0.004	0.264
-180.042	800.000	-0.062	0.231
-179.027	-200.000	0.032	-0.157
-178.012	112.672	0.025	-0.030
-176.998	800.000	-0.077	0.311
-175.983	-62.156	-0.245	-0.100
-174.969	-9.478	-0.109	0.071
-173.954	-112.872	0.283	-0.055
-172.939	-200.000	-0.012	0.237
-171.925	-126.298	0.200	-0.029
-170.910	-200.000	-0.040	-0.329
-169.896	-97.072	-0.182	0.047
-168.881	800.000	0.098	0.361
-167.866	-200.000	-0.077	-0.349
-166.852	-113.900	0.153	-0.029
-165.837	-200.000	-0.013	0.056
-164.823	252.468	0.183	0.305
-163.808	-61.293	0.174	0.072
-162.793	800.000	0.021	0.080
-161.779	118.709	0.041	0.050
-160.764	-200.000	0.035	-0.329
-159.750	-73.156	0.287	-0.103
-158.735	-200.000	0.054	-0.362
-157.720	-200.000	0.032	0.363
-156.706	345.091	0.046	0.087
-155.691	120.460	0.096	0.116
-154.677	800.000	0.053	0.148
-153.662	-200.000	-0.050	0.235
-152.647	210.189	-0.295	0.453
-151.633	445.425	-0.150	0.323
-150.618	497.097	-0.042	-0.093
-149.604	-14.713	0.080	0.050
-148.589	1.709	0.108	0.076
-147.574	800.000	0.012	0.040
-146.560	-106.035	0.248	0.055
-145.545	-200.000	-0.017	-0.074
-144.531	-45.428	0.103	-0.050
-143.516	21.540	0.438	0.349
-142.502	149.210	-0.108	0.142
-141.487	800.000	-0.152	-0.557
-140.472	83.691	0.258	-0.275
-139.458	800.000	-0.075	0.215
-138.443	-120.004	-0.375	0.063
-137.429	-200.000	-0.016	0.171
-136.414	66.874	-0.180	0.180
-135.399	-131.934	0.344	-0.044
-134.385	-200.000	0.035	-0.296
-133.370	-15.722	-0.085	0.053
-132.356	-59.496	-0.047	-0.020
-131.341	-28.011	-0.187	-0.106
-130.326	16.136	-0.046	-0.035
-129.312	800.000	0.045	-0.132
-128.297	98.407	-0.174	0.196
-127.283	51.289	0.084	0.078
-126.268	137.840	-0.078	-0.100
-125.253	557.089	0.102	-0.241
-124.239	-60.435	0.225	-0.094
-123.224	139.343	0.104	0.133
-122.210	-107.693	0.116	0.025
-121.195	800.000	-0.052	0.170
-120.180	48.292	0.189	0.173
-119.166	179.537	0.060	0.085
-118.151	-144.802	-0.208	-0.019
-117.137	-98.410	-0.268	0.067
-116.122	233.787	-0.322	0.519
-115.107	29.201	-0.267	0.221
-114.093	800.000	0.106	-0.320
-113.078	103.263	-0.072	-0.082
-112.064	-124.012	0.139	0.021
-111.049	436.632	0.048	-0.103
-110.034	-200.000	0.003	0.308
-109.020	60.472	-0.248	0.240
-108.005	178.887	-0.125	0.179
-106.991	800.000	0.015	0.052
-105.976	-200.000	-0.056	-0.355
-104.962	800.000	0.064	-0.233
-103.947	-176.191	0.085	0.002
-102.932	138.036	0.098	-0.125
-101.918	42.525	0.209	0.185
-100.903	-200.000	-0.078	-0.363
-99.889	585.085	-0.113	-0.272
-98.874	-200.000	-0.020	-0.280
-97.859	-6.607	0.203	0.135
-96.845	131.806	0.153	-0.192
-95.830	-200.000	-0.017	0.131
-94.816	800.000	0.032	-0.119
-93.801	320.013	-0.125	-0.231
-92.786	-200.000	-0.058	0.406
-91.772	-51.854	0.323	0.147
-90.757	-200.000	-0.069	0.410
-89.743	-200.000	0.057	0.475
-88.728	-36.820	-0.214	0.112
-87.713	-187.833	0.135	0.002
-86.699	342.571	-0.102	-0.195
-85.684	202.714	0.216	-0.326
-84.670	-200.000	-0.090	0.446
-83.655	71.661	-0.208	-0.211
-82.640	21.466	0.461	0.365
-81.626	25.366	-0.255	0.206
-80.611	97.345	0.122	-0.136
-79.597	157.863	-0.099	-0.134
-78.582	364.505	0.193	-0.379
-77.567	-70.853	0.266	-0.098
-76.553	-101.185	-0.152	0.036
-75.538	800.000	0.050	0.186
-74.524	-112.919	-0.173	0.033
-73.509	248.543	-0.089	0.147
-72.494	12.951	-0.051	0.038
-71.480	-200.000	0.010	-0.202
-70.465	-46.183	-0.209	0.100
-69.451	-56.950	0.373	0.160
-68.436	800.000	-0.095	0.323
-67.422	154.470	0.098	-0.132
-66.407	-3.997	-0.170	0.115
-65.392	61.960	-0.198	-0.192
-64.378	544.534	0.101	-0.236
-63.363	-200.000	0.040	-0.277
-62.349	-200.000	0.022	0.111
-61.334	80.652	-1.159	-1.218
-60.319	378.044	0.556	1.109
-59.305	302.042	-0.664	-1.197
-58.290	800.000	0.624	1.715
-57.276	544.404	0.606	1.411
-56.261	-200.000	133.779	670.336
-55.246	322.770	1684.835	3128.696
-54.232	131.632	2822.039	3536.614
-53.217	86.699	2187.578	2352.298
-52.203	31.973	1612.846	1354.227
-51.188	23.814	1359.256	1091.385
-50.173	21.729	1322.019	1048.975
-49.159	49.629	1396.430	1281.446
-48.144	45.805	1405.905	1266.527
-47.130	24.016	1352.428	1086.963
-46.115	20.836	1332.783	1051.961
-45.100	20.670	1327.418	1046.686
-44.086	20.512	1325.063	1043.837
-43.071	20.558	1322.296	1041.891
-42.057	20.557	1320.512	1040.439
-41.042	20.463	1319.715	1039.205
-40.027	20.584	1317.920	1038.477
-39.013	20.526	1315.418	1036.113
-37.998	20.550	1314.068	1035.155
-36.984	20.647	1312.182	1034.204
-35.969	20.675	1310.944	1033.351
-34.954	20.686	1308.934	1031.795
-33.940	20.589	1308.265	1030.650
-32.925	20.696	1305.960	1029.424
-31.911	20.712	1304.425	1028.272
-30.896	20.749	1303.155	1027.449
-29.881	20.854	1301.830	1026.979
-28.867	20.839	1300.289	1025.635
-27.852	20.831	1298.781	1024.359
-26.838	20.766	1297.810	1023.171
-25.823	20.753	1296.326	1021.884
-24.809	20.612	1295.569	1020.417
-23.794	20.705	1293.654	1019.412
-22.779	20.776	1292.228	1018.665
-21.765	20.675	1291.430	1017.407
-20.750	20.793	1289.578	1016.597
-19.736	20.716	1288.496	1015.254
-18.721	20.532	1287.757	1013.556
-17.706	20.589	1286.666	1012.989
-16.692	20.642	1285.196	1012.100
-15.677	20.716	1284.046	1011.584
-14.663	20.515	1283.273	1009.767
-13.648	20.681	1281.285	1009.130
-12.633	20.614	1280.744	1008.271
-11.619	20.649	1279.938	1007.800
-10.604	20.595	1279.296	1006.945
-9.590	20.618	1278.639	1006.516
-8.575	20.569	1277.629	1005.401
-7.560	20.510	1276.926	1004.468
-6.546	20.547	1276.092	1003.986
-5.531	20.603	1274.916	1003.341
-4.517	20.704	1273.838	1003.034
-3.502	20.707	1273.134	1002.458
-2.487	20.615	1272.304	1001.235
-1.473	20.693	1267.988	998.246
-0.458	19.375	1253.584	979.387
0.556	15.334	1238.462	945.831
1.571	12.069	1248.159	934.567
2.586	11.507	1264.229	943.273
3.600	11.641	1251.398	934.381
4.615	8.594	1179.081	863.875
5.629	3.206	1108.133	784.416
6.644	0.726	1091.628	760.203
7.659	0.495	1089.694	757.629
8.673	0.526	1089.018	757.250
9.688	0.544	1087.456	756.184
10.702	0.677	1084.863	754.982
11.717	4.081	1088.474	774.471
12.731	10.480	1097.098	812.699
13.746	15.373	1103.870	842.268
14.761	17.001	1106.020	852.014
15.775	16.388	1104.387	847.611
16.790	15.384	1101.892	840.592
17.804	14.698	1100.662	836.143
18.819	14.370	1099.700	833.698
19.834	14.209	1098.087	831.595
20.848	13.909	1098.049	829.997
21.863	13.580	1096.828	827.354
22.877	13.612	1095.856	826.707
23.892	13.519	1095.150	825.641
24.907	13.512	1094.598	825.115
25.921	13.614	1093.605	824.803
26.936	13.669	1092.646	824.280
27.950	13.587	1092.085	823.374
28.965	13.641	1090.448	822.337
29.980	13.695	1089.205	821.593
30.994	13.759	1088.033	820.955
32.009	13.654	1087.236	819.762
33.023	13.713	1085.759	818.864
34.038	13.664	1085.017	817.992
35.053	13.662	1084.393	817.440
36.067	13.793	1083.430	817.287
37.082	13.585	1082.630	815.588
38.096	13.551	1082.321	815.114
39.111	13.722	1081.168	815.016
40.126	13.594	1079.805	813.286
41.140	13.612	1078.787	812.539
42.155	13.520	1077.354	810.934
43.169	13.398	1076.619	809.715
44.184	13.492	1075.275	809.088
45.199	13.538	1074.247	808.470
46.213	13.438	1073.541	807.377
47.228	13.474	1072.113	806.407
48.242	13.679	1071.086	806.561
49.257	13.644	1070.055	805.545
50.271	13.553	1069.223	804.403
51.286	13.520	1068.501	803.628
52.301	13.696	1067.290	803.500
53.315	13.727	1065.946	802.567
54.330	13.610	1065.247	801.405
55.344	13.537	1064.297	800.270
56.359	13.570	1063.510	799.762
57.374	13.503	1062.582	798.674
58.388	13.529	1061.538	797.941
59.403	13.466	1061.168	797.291
60.417	13.448	1060.173	796.385
61.432	13.467	1059.160	795.645
62.447	13.551	1057.903	795.033
63.461	13.500	1057.604	794.492
64.476	13.413	1056.529	793.201
65.490	13.436	1055.806	792.698
66.505	13.481	1055.097	792.310
67.520	13.646	1054.175	792.336
68.534	13.495	1053.784	791.248
69.549	13.432	1053.000	790.291
70.563	13.638	1051.714	790.240
71.578	13.471	1051.389	789.129
72.593	13.446	1050.446	788.230
73.607	13.423	1050.021	787.732
74.622	13.410	1049.465	787.184
75.636	13.419	1048.953	786.774
76.651	13.326	1048.376	785.831
77.666	13.529	1047.294	785.913
78.680	13.385	1046.799	784.787
79.695	13.474	1046.112	784.626
80.709	13.508	1045.400	784.182
81.724	13.464	1044.922	783.546
82.739	13.575	1044.010	783.319
83.753	13.704	1042.889	783.016
84.768	13.620	1041.845	781.769
85.782	13.699	1041.297	781.658
86.797	13.672	1040.136	780.591
87.812	13.638	1039.159	779.630
88.826	13.512	1038.717	778.638
89.841	13.585	1037.475	777.979
90.855	13.671	1036.324	777.451
91.870	13.816	1035.305	777.299
92.884	13.639	1034.493	775.789
93.899	13.749	1033.399	775.418
94.914	13.733	1032.705	774.750
95.928	13.786	1032.009	774.407
96.943	13.657	1031.509	773.361
97.957	13.664	1030.547	772.607
98.972	13.679	1029.714	771.981
99.987	13.638	1028.576	770.868
101.001	13.603	1027.804	770.061
102.016	13.675	1026.672	769.478
103.030	13.765	1025.648	769.060
104.045	13.608	1025.347	768.037
105.060	13.614	1024.325	767.232
106.074	13.608	1023.372	766.425
107.089	13.664	1022.116	765.673
108.103	13.631	1021.499	764.993
109.118	13.518	1020.825	763.897
110.133	13.608	1019.297	763.102
111.147	13.580	1019.086	762.748
112.162	13.475	1018.035	761.410
113.176	13.560	1017.516	761.347
114.191	13.706	1016.586	761.253
115.206	13.610	1015.855	760.200
116.220	13.672	1014.655	759.515
117.235	13.654	1013.250	758.316
118.249	13.649	1012.607	757.745
119.264	13.589	1012.350	757.210
120.279	13.534	1011.320	756.123
121.293	13.690	1010.742	756.333
122.308	13.591	1009.841	755.142
123.322	13.688	1008.528	754.538
124.337	13.553	1007.792	753.304
125.352	13.504	1006.644	752.155
126.366	13.561	1005.350	751.384
127.381	13.600	1004.612	750.942
128.395	13.692	1003.263	750.280
129.410	13.537	1002.348	748.831
130.424	13.606	1001.684	748.580
131.439	13.673	1000.888	748.222
132.454	13.704	1000.019	747.645
133.468	13.606	999.373	746.656
134.483	13.629	998.164	745.790
135.497	13.704	997.316	745.428
136.512	13.607	996.302	744.165
137.527	13.741	995.330	743.979
138.541	13.651	994.924	743.204
139.556	13.716	994.171	742.868
140.570	13.778	993.710	742.734
141.585	13.898	992.272	742.130
142.600	13.756	991.511	740.861
143.614	13.822	991.026	740.726
144.629	13.808	990.246	740.018
145.643	13.761	989.272	739.012
146.658	13.778	988.018	738.088
147.673	13.787	986.844	737.185
148.687	13.923	986.165	737.217
149.702	13.781	985.526	736.045
150.716	13.700	984.404	734.781
151.731	13.755	984.050	734.694
152.746	13.785	983.416	734.290
153.760	13.856	982.342	733.739
154.775	13.906	981.966	733.614
155.789	13.918	981.179	733.012
156.804	13.910	980.451	732.368
157.819	13.914	979.722	731.776
158.833	13.976	978.780	731.283
159.848	14.074	978.004	731.068
160.862	13.934	977.107	729.717
161.877	13.809	976.282	728.488
162.892	13.877	975.151	727.876
163.906	13.870	974.260	727.119
164.921	14.116	973.032	727.212
165.935	13.930	972.516	725.949
166.950	14.053	971.354	725.556
167.964	14.044	970.512	724.824
168.979	13.947	969.930	723.901
169.994	14.057	968.510	723.255
171.008	14.149	967.845	723.097
172.023	14.008	967.491	722.155
173.037	14.079	966.921	721.972
174.052	14.058	966.248	721.314
175.067	14.018	965.457	720.487
176.081	14.045	965.047	720.237
177.096	14.147	964.197	719.979
178.110	14.089	963.676	719.275
179.125	14.247	962.570	719.069
180.140	14.052	962.661	718.233
181.154	14.043	962.309	717.865
182.169	14.289	961.120	717.977
183.183	14.256	960.657	717.424
184.198	14.242	959.784	716.647
185.213	14.287	958.929	716.138
186.227	14.201	958.282	715.225
187.242	14.165	957.942	714.750
188.256	14.291	957.295	714.748
189.271	14.377	956.281	714.295
190.286	14.189	955.568	712.895
191.300	14.305	954.700	712.681
192.315	14.070	954.582	711.524
193.329	14.218	953.433	711.236
194.344	14.232	953.196	711.055
195.359	14.282	952.373	710.594
196.373	14.218	951.683	709.742
197.388	14.412	951.146	710.108
198.402	14.386	950.576	709.508
199.417	14.377	949.976	708.956
200.432	14.445	949.325	708.697
201.446	14.358	949.376	708.306
202.461	14.509	948.485	708.219
203.475	14.537	947.448	707.500
204.490	14.464	947.256	706.986
205.504	14.497	946.217	706.286
206.519	14.465	945.306	705.408
207.534	14.485	945.151	705.316
208.548	14.633	943.960	704.990
209.563	14.524	943.609	704.203
210.577	14.535	942.491	703.354
211.592	14.485	942.493	703.080
212.607	14.658	941.034	702.659
213.621	14.670	940.415	702.186
214.636	14.627	939.793	701.477
215.650	14.621	939.097	700.873
216.665	14.707	937.999	700.350
217.680	14.853	937.430	700.475
218.694	14.737	937.257	699.798
219.709	14.633	936.407	698.666
220.723	14.849	935.388	698.747
221.738	14.763	934.817	697.901
222.753	14.790	934.341	697.596
223.767	14.867	933.748	697.414
224.782	14.904	933.026	696.965
225.796	14.867	932.699	696.506
226.811	14.830	932.141	695.874
227.826	14.859	931.207	695.236
228.840	14.764	930.285	694.090
229.855	14.768	929.557	693.504
230.869	14.889	928.487	693.146
231.884	14.941	928.038	692.965
232.899	14.821	927.516	692.016
233.913	14.831	926.332	691.114
234.928	14.817	925.930	690.696
235.942	14.761	925.937	690.406
236.957	14.851	924.916	689.956
237.972	14.859	924.095	689.317
238.986	14.935	923.379	689.034
240.001	14.974	922.830	688.721
241.015	14.837	922.594	687.922
242.030	14.992	921.656	687.800
243.045	15.017	920.875	687.256
244.059	15.004	920.330	686.735
245.074	15.064	920.010	686.684
246.088	15.145	918.838	686.082
247.103	14.974	918.415	685.002
248.117	15.016	918.185	684.941
249.132	15.215	916.945	684.770
250.147	15.188	916.591	684.337
251.161	15.291	915.720	684.045
252.176	15.165	915.340	683.188
253.190	15.176	914.600	682.619
254.205	15.192	914.015	682.185
255.220	15.323	912.906	681.830
256.234	15.324	912.568	681.522
257.249	15.293	912.384	681.197
258.263	15.435	910.927	680.626
259.278	15.378	910.401	679.943
260.293	15.490	909.684	679.802
261.307	15.444	909.015	679.054
262.322	15.540	908.474	678.979
263.336	15.468	907.904	678.202
264.351	15.504	906.855	677.504
265.366	15.624	905.929	677.235
266.380	15.572	905.524	676.663
267.395	15.544	905.056	676.138
268.409	15.574	904.546	675.820
269.424	15.629	903.466	675.176
270.439	15.543	903.168	674.547
271.453	15.427	902.374	673.430
272.468	15.531	901.674	673.264
273.482	15.531	901.295	672.920
274.497	15.589	900.590	672.569
275.512	15.662	899.512	671.996
276.526	15.658	899.472	671.890
277.541	15.654	898.921	671.402
278.555	15.638	898.695	671.109
279.570	15.780	897.724	670.893
280.585	15.781	896.771	670.123
281.599	15.724	896.369	669.538
282.614	15.834	895.388	669.184
283.628	15.690	894.892	668.179
284.643	15.864	894.027	668.165
285.657	15.848	893.518	667.665
286.672	15.798	892.723	666.814
287.687	15.724	892.159	666.039
288.701	15.802	891.937	666.125
289.716	16.003	891.143	666.264
290.730	15.891	890.242	665.091
291.745	15.875	889.907	664.720
292.760	15.893	889.671	664.553
293.774	16.210	888.207	664.649
294.789	15.941	887.950	663.339
295.803	15.916	887.168	662.601
296.818	15.987	886.278	662.154
297.833	16.080	885.551	661.919
298.847	15.943	885.406	661.215
299.862	16.003	884.628	660.810
300.876	16.058	884.073	660.553
301.891	16.096	883.410	660.146
302.906	16.152	882.823	659.870
303.920	16.105	882.319	659.249
304.935	16.261	881.620	659.281
305.949	16.307	880.438	658.518
306.964	16.045	880.918	657.793
307.979	16.241	879.999	657.813
308.993	16.261	879.455	657.427
310.008	16.324	878.341	656.781
311.022	16.243	878.484	656.514
312.037	16.260	877.398	655.713
313.052	16.157	876.828	654.830
314.066	16.177	876.229	654.400
315.081	16.167	876.130	654.229
316.095	16.190	875.114	653.501
317.110	16.224	874.804	653.344
318.125	16.187	874.279	652.751
319.139	16.251	873.649	652.470
320.154	16.224	873.180	651.957
321.168	16.275	872.736	651.767
322.183	16.152	872.069	650.737
323.197	16.249	871.558	650.670
324.212	16.408	871.178	650.941
325.227	16.329	870.378	649.983
326.241	16.280	869.909	649.388
327.256	16.337	869.259	649.062
328.270	16.399	868.651	648.790
329.285	16.343	867.897	647.956
330.300	16.289	867.590	647.459
331.314	16.254	866.969	646.804
332.329	16.414	866.264	646.837
333.343	16.413	865.652	646.316
334.358	16.521	865.497	646.556
335.373	16.514	865.065	646.149
336.387	16.522	865.057	646.118
337.402	16.626	864.489	646.032
338.416	16.578	864.451	645.762
339.431	16.619	863.688	645.292
340.446	16.680	863.169	645.082
341.460	16.722	862.955	645.025
342.475	16.710	862.589	644.649
343.489	16.609	862.535	644.166
344.504	16.783	861.699	644.147
345.519	16.839	860.735	643.580
346.533	16.697	860.799	643.034
347.548	16.738	859.985	642.523
348.562	16.856	859.171	642.307
349.577	16.673	858.946	641.386
350.592	16.795	858.127	641.182
351.606	16.780	857.474	640.578
352.621	16.837	856.686	640.149
353.635	16.779	855.915	639.298
354.650	16.872	855.206	639.062
355.665	16.875	854.825	638.731
356.679	16.937	854.544	638.701
357.694	16.870	853.623	637.703
358.708	16.922	852.863	637.275
359.723	16.870	852.498	636.749
360.738	16.879	851.703	636.132
361.752	16.983	850.792	635.786
362.767	17.018	850.618	635.733
363.781	17.014	850.179	635.332
364.796	17.029	849.693	634.969
365.810	16.991	849.519	634.641
366.825	17.201	848.608	634.689
367.840	17.129	848.472	634.262
368.854	16.992	847.888	633.257
369.869	17.155	847.254	633.336
370.883	17.141	846.766	632.864
371.898	17.284	846.636	633.242
372.913	17.141	846.555	632.591
373.927	17.056	845.619	631.523
374.942	17.158	845.175	631.511
375.956	17.453	844.394	631.968
376.971	17.243	844.413	631.149
377.986	17.340	843.583	630.830
379.000	17.395	843.455	630.885
380.015	17.268	842.912	629.950
381.029	17.413	841.855	629.642
382.044	17.301	841.722	629.072
383.059	17.403	841.159	628.973
384.073	17.444	840.461	628.548
385.088	17.387	840.098	628.011
386.102	17.415	839.133	627.336
387.117	17.410	838.876	627.070
388.132	17.362	838.509	626.561
389.146	17.452	837.490	626.076
390.161	17.557	836.881	625.953
391.175	17.443	836.684	625.333
392.190	17.468	835.881	624.766
393.205	17.470	835.393	624.355
394.219	17.484	835.199	624.205
395.234	17.388	835.281	623.861
396.248	17.453	834.879	623.742
397.263	17.458	833.931	622.997
398.278	17.381	833.865	622.610
399.292	17.493	833.591	622.762
400.307	17.649	832.489	622.451
401.321	17.601	832.302	622.083
402.336	17.377	832.121	621.074
403.350	17.683	830.816	621.159
404.365	17.595	830.681	620.683
405.380	17.631	830.491	620.619
406.394	17.736	829.847	620.463
407.409	17.770	829.490	620.265
408.423	17.881	828.948	620.209
409.438	18.014	828.584	620.363
410.453	17.791	828.195	619.209
411.467	17.846	827.839	619.090
412.482	17.885	826.840	618.426
413.496	17.874	826.843	618.337
414.511	17.990	826.652	618.558
415.526	17.949	825.829	617.740
416.540	17.920	825.445	617.292
417.555	17.995	824.702	616.951
418.569	18.029	824.560	616.916
419.584	17.941	824.151	616.234
420.599	17.832	824.094	615.746
421.613	114.954	1302.232	1490.771
422.628	99.805	1371.842	1490.848
