DTS Sentinel unit serial number:	SN413079Multiplexer serial number:	ORYXHardware model number:	OX4-SRSoftware version number:	ORYX F/W v4.00 Oryx Data Collector v3.7.2.0data status	okinstallation	princeton_trtdifferential loss correction	single-endedforward channel	channel 1reverse channel	N/Adate	2019/09/16time	03:38:35forward acquisition time	60.00reverse acquisition time	0.00gamma	496.2192k internal	0.2331k external	0.2331temperature offset calibration	0.9984default loss term (dB/km)	0.3790temperature slope calibration	1.0000multiplexer offset coefficient	1.0000multiplexer slope coefficient	1.0000fibre end	0.00T internal ref (°C)	27.62T ext. ref 1 (°C)	10.60T ext. ref 2 (°C)	21.74length (m)	temperature (°C)	Stokes	anti-Stokes-747.200	177.802	0.171	-0.250
-746.185	-200.000	0.059	0.366
-745.171	800.000	0.044	-0.179
-744.156	-117.108	-0.116	-0.021
-743.142	-200.000	-0.044	0.452
-742.127	-12.848	-0.091	0.060
-741.112	-132.040	0.299	0.039
-740.098	44.513	0.063	-0.059
-739.083	-52.890	0.290	0.134
-738.069	-200.000	-0.025	0.134
-737.054	342.594	-0.022	0.043
-736.039	402.184	-0.093	-0.197
-735.025	-84.946	-0.041	0.013
-734.010	-90.145	-0.255	-0.075
-732.996	2.730	0.118	-0.086
-731.981	-161.384	-0.194	0.010
-730.966	176.294	0.112	-0.164
-729.952	-100.402	-0.205	-0.051
-728.937	-126.503	-0.192	0.029
-727.923	545.897	-0.086	-0.207
-726.908	-100.896	-0.091	0.023
-725.894	-200.000	0.001	-0.157
-724.879	800.000	-0.107	0.355
-723.864	-200.000	0.022	0.152
-722.850	-200.000	0.065	-0.452
-721.835	85.308	-0.332	-0.366
-720.821	453.142	-0.045	-0.100
-719.806	80.566	-0.263	-0.285
-718.791	-152.894	0.194	0.014
-717.777	-46.519	0.276	-0.136
-716.762	161.731	-0.109	-0.154
-715.748	19.095	-0.169	-0.136
-714.733	-200.000	0.011	-0.356
-713.718	-200.000	-0.018	0.184
-712.704	-133.704	0.213	0.027
-711.689	800.000	0.059	-0.218
-710.675	-157.971	-0.033	-0.002
-709.660	-168.190	-0.142	-0.006
-708.645	-25.138	0.190	0.113
-707.631	-97.412	0.216	0.056
-706.616	-113.046	-0.160	-0.032
-705.602	147.775	0.070	-0.095
-704.587	-77.779	0.212	0.073
-703.572	-200.000	0.005	-0.289
-702.558	-42.401	-0.077	-0.039
-701.543	316.638	0.036	-0.068
-700.529	-113.278	0.279	0.055
-699.514	-200.000	0.045	-0.224
-698.499	-200.000	-0.022	-0.223
-697.485	-200.000	0.025	-0.182
-696.470	800.000	0.114	-0.350
-695.456	-200.000	0.050	-0.347
-694.441	184.436	-0.182	-0.271
-693.426	-167.293	0.107	-0.004
-692.412	-66.367	0.384	-0.153
-691.397	-135.067	0.175	0.021
-690.383	159.571	-0.172	-0.240
-689.368	800.000	0.104	0.315
-688.354	457.412	-0.095	0.213
-687.339	0.676	0.106	-0.076
-686.324	800.000	0.106	-0.430
-685.310	-32.701	-0.217	-0.121
-684.295	800.000	-0.094	-0.267
-683.281	-18.637	-0.077	0.048
-682.266	-200.000	0.012	-0.185
-681.251	800.000	0.013	-0.056
-680.237	402.535	0.011	-0.024
-679.222	-200.000	-0.009	-0.281
-678.208	800.000	-0.029	-0.082
-677.193	27.836	-0.071	0.060
-676.178	-200.000	0.002	0.525
-675.164	-150.876	0.202	-0.015
-674.149	-200.000	0.034	-0.402
-673.135	711.642	0.079	0.211
-672.120	-162.757	-0.110	-0.005
-671.105	7.754	-0.171	0.128
-670.091	151.781	0.210	-0.288
-669.076	-200.000	-0.013	-0.098
-668.062	25.201	0.107	-0.089
-667.047	183.616	-0.328	-0.487
-666.032	-66.767	-0.244	0.097
-665.018	50.917	0.046	-0.044
-664.003	65.320	0.134	0.136
-662.989	195.576	0.149	-0.227
-661.974	61.894	0.023	-0.023
-660.959	-200.000	-0.022	0.117
-659.945	476.853	0.082	-0.185
-658.930	294.069	0.157	0.287
-657.916	800.000	-0.024	-0.069
-656.901	-70.601	-0.209	-0.079
-655.886	-136.426	-0.319	-0.037
-654.872	-25.948	0.238	0.140
-653.857	-200.000	0.083	-0.375
-652.843	-76.931	-0.084	-0.029
-651.828	-71.416	-0.252	0.095
-650.814	-200.000	-0.012	-0.131
-649.799	22.767	-0.079	0.065
-648.784	-200.000	-0.001	0.313
-647.770	-126.946	-0.449	0.066
-646.755	332.597	0.074	-0.143
-645.741	-200.000	-0.027	-0.183
-644.726	-53.663	0.410	0.188
-643.711	-96.137	0.180	-0.048
-642.697	-45.893	-0.127	0.063
-641.682	-128.962	0.348	0.049
-640.668	-9.086	-0.039	-0.026
-639.653	61.971	-0.304	0.304
-638.638	-33.892	-0.136	0.075
-637.624	98.157	-0.097	-0.112
-636.609	110.435	-0.134	-0.161
-635.595	20.337	0.351	-0.284
-634.580	800.000	0.132	0.409
-633.565	416.052	0.189	-0.403
-632.551	-142.715	-0.109	0.011
-631.536	-163.340	-0.198	0.009
-630.522	-200.000	-0.071	0.325
-629.507	800.000	0.029	-0.083
-628.492	-200.000	-0.033	0.223
-627.478	800.000	-0.089	0.255
-626.463	-93.876	-0.123	0.034
-625.449	138.701	-0.131	-0.172
-624.434	-138.572	0.011	0.001
-623.419	-39.713	0.107	-0.056
-622.405	-108.838	0.033	0.007
-621.390	320.207	0.162	-0.309
-620.376	43.609	-0.233	-0.213
-619.361	800.000	-0.037	-0.118
-618.346	-46.099	-0.148	-0.073
-617.332	78.004	-0.065	-0.069
-616.317	-104.426	0.069	0.016
-615.303	-200.000	-0.039	-0.202
-614.288	136.090	-0.054	-0.071
-613.273	800.000	0.076	-0.212
-612.259	-46.282	0.152	0.075
-611.244	3.763	0.088	-0.064
-610.230	-57.645	-0.181	-0.079
-609.215	428.323	0.079	0.170
-608.201	54.780	-0.203	-0.196
-607.186	800.000	0.106	0.308
-606.171	48.658	-0.176	0.165
-605.157	-150.005	0.050	-0.004
-604.142	-187.224	0.318	-0.004
-603.128	2.062	0.246	0.178
-602.113	162.127	0.205	0.287
-601.098	7.282	0.047	0.035
-600.084	-59.713	-0.320	0.137
-599.069	-80.298	-0.295	0.099
-598.055	-14.332	-0.311	-0.201
-597.040	-200.000	-0.023	0.148
-596.025	39.544	0.161	0.144
-595.011	-96.836	-0.087	0.023
-593.996	-122.758	-0.231	-0.037
-592.982	736.249	-0.094	0.253
-591.967	-200.000	-0.014	0.096
-590.952	642.202	-0.073	-0.187
-589.938	800.000	-0.073	-0.254
-588.923	373.796	-0.121	-0.247
-587.909	30.565	-0.228	0.195
-586.894	278.539	0.174	0.310
-585.879	59.380	0.118	0.117
-584.865	-152.959	0.188	-0.013
-583.850	-62.230	-0.340	-0.142
-582.836	11.904	-0.022	0.017
-581.821	163.990	-0.260	-0.367
-580.806	507.386	-0.108	-0.252
-579.792	33.349	0.087	0.076
-578.777	-22.961	0.197	0.119
-577.763	13.593	-0.156	0.121
-576.748	-87.308	0.171	0.052
-575.733	-123.938	-0.396	-0.062
-574.719	800.000	-0.086	0.341
-573.704	99.276	-0.144	0.167
-572.690	198.339	0.097	0.149
-571.675	5.750	-0.229	-0.169
-570.661	800.000	0.060	0.240
-569.646	440.076	0.132	0.289
-568.631	800.000	-0.067	-0.217
-567.617	-200.000	0.069	-0.371
-566.602	-187.988	-0.234	-0.003
-565.588	49.767	-0.355	0.334
-564.573	-200.000	0.043	0.419
-563.558	-70.009	-0.338	-0.129
-562.544	-200.000	-0.002	-0.046
-561.529	800.000	-0.038	-0.130
-560.515	800.000	0.076	-0.325
-559.500	99.021	-0.073	0.085
-558.485	-200.000	-0.029	-0.287
-557.471	187.007	-0.147	-0.219
-556.456	37.738	0.221	0.196
-555.442	83.340	0.120	0.131
-554.427	1.253	-0.109	0.078
-553.412	22.766	0.376	0.307
-552.398	-200.000	-0.047	0.281
-551.383	800.000	0.027	-0.086
-550.369	-200.000	0.000	0.040
-549.354	50.954	0.087	-0.082
-548.339	474.019	-0.126	-0.284
-547.325	139.199	-0.140	-0.184
-546.310	-145.761	0.266	0.024
-545.296	-78.123	0.155	0.053
-544.281	112.666	0.252	0.304
-543.266	363.089	0.061	-0.122
-542.252	-200.000	-0.031	0.182
-541.237	436.460	0.044	0.095
-540.223	-16.655	0.193	-0.122
-539.208	47.293	-0.041	-0.038
-538.193	109.554	0.070	0.084
-537.179	-200.000	-0.004	0.328
-536.164	123.137	-0.157	-0.197
-535.150	-200.000	0.030	-0.140
-534.135	292.674	0.063	0.115
-533.121	-200.000	-0.027	-0.230
-532.106	-200.000	0.025	-0.186
-531.091	12.463	0.273	-0.210
-530.077	39.602	-0.039	-0.034
-529.062	-82.423	0.038	-0.012
-528.048	445.811	-0.014	0.031
-527.033	99.958	0.238	0.275
-526.018	-151.398	0.463	-0.034
-525.004	537.242	-0.102	-0.242
-523.989	800.000	0.074	-0.312
-522.975	296.959	-0.234	-0.428
-521.960	-128.249	-0.465	0.066
-520.945	-10.552	-0.056	-0.037
-519.931	-133.064	0.302	-0.038
-518.916	-61.133	0.171	0.072
-517.902	800.000	-0.114	-0.376
-516.887	-61.449	-0.223	-0.094
-515.872	800.000	-0.076	0.290
-514.858	-98.038	0.321	-0.083
-513.843	-200.000	-0.014	-0.195
-512.829	-94.231	-0.287	-0.078
-511.814	186.798	0.065	-0.097
-510.799	-10.547	-0.235	0.155
-509.785	50.853	0.190	0.179
-508.770	-200.000	0.067	-0.488
-507.756	-49.782	-0.187	-0.089
-506.741	800.000	-0.039	-0.158
-505.726	800.000	0.018	-0.070
-504.712	95.334	0.219	0.249
-503.697	800.000	0.079	-0.240
-502.683	800.000	-0.095	0.344
-501.668	800.000	0.018	0.064
-500.653	56.043	0.117	0.113
-499.639	-200.000	-0.051	0.345
-498.624	-103.548	0.179	0.042
-497.610	-60.995	-0.292	0.123
-496.595	-137.300	-0.141	0.016
-495.581	800.000	0.073	-0.224
-494.566	-200.000	-0.062	-0.289
-493.551	-200.000	-0.043	-0.202
-492.537	683.647	0.155	0.402
-491.522	39.582	-0.141	0.126
-490.508	37.840	-0.165	-0.146
-489.493	-41.635	-0.153	0.079
-488.478	-85.705	0.138	-0.043
-487.464	-98.794	0.590	0.149
-486.449	121.107	-0.062	-0.076
-485.435	1.353	0.046	0.033
-484.420	-180.668	-0.110	-0.002
-483.405	-70.721	-0.604	-0.227
-482.391	-200.000	0.012	-0.173
-481.376	-173.327	-0.312	0.009
-480.362	111.426	0.258	-0.309
-479.347	35.397	-0.085	0.074
-478.332	433.362	-0.028	-0.061
-477.318	-200.000	0.017	0.177
-476.303	-45.539	-0.109	0.054
-475.289	42.132	0.245	0.221
-474.274	-4.306	0.309	0.213
-473.259	62.808	0.239	-0.239
-472.245	102.057	0.195	-0.227
-471.230	-80.937	-0.328	0.108
-470.216	97.626	0.187	0.214
-469.201	-200.000	0.030	0.143
-468.186	445.389	-0.277	0.606
-467.172	-200.000	0.035	-0.178
-466.157	-127.698	-0.147	0.021
-465.143	-200.000	0.006	-0.469
-464.128	-200.000	0.031	-0.245
-463.113	333.387	-0.171	-0.330
-462.099	-135.820	0.186	-0.022
-461.084	-142.152	0.145	-0.014
-460.070	235.390	-0.047	-0.077
-459.055	-200.000	0.050	0.475
-458.040	-26.210	-0.366	0.214
-457.026	-98.409	0.379	0.096
-456.011	12.107	-0.295	-0.226
-454.997	-200.000	0.020	-0.192
-453.982	313.696	-0.033	0.062
-452.968	-65.301	-0.120	0.048
-451.953	35.419	-0.172	0.150
-450.938	-47.669	-0.212	0.102
-449.924	268.028	0.223	-0.389
-448.909	-200.000	0.054	0.417
-447.895	34.465	0.048	-0.041
-446.880	399.019	-0.059	-0.123
-445.865	401.518	-0.170	0.354
-444.851	57.859	-0.134	0.130
-443.836	2.088	0.193	-0.139
-442.822	-125.609	0.493	-0.074
-441.807	598.840	-0.013	-0.032
-440.792	-200.000	-0.002	0.088
-439.778	146.533	-0.196	0.262
-438.763	-140.096	-0.147	-0.015
-437.749	-65.304	-0.513	0.205
-436.734	292.151	-0.137	-0.248
-435.719	-200.000	0.010	-0.062
-434.705	-200.000	0.017	0.085
-433.690	-84.406	0.330	0.104
-432.676	-200.000	-0.097	-0.504
-431.661	187.769	-0.151	-0.224
-430.646	-200.000	0.005	-0.098
-429.632	800.000	0.022	0.068
-428.617	-133.523	0.146	0.018
-427.603	314.051	0.124	-0.232
-426.588	-14.024	-0.185	-0.119
-425.573	-93.750	0.233	0.064
-424.559	-200.000	-0.013	0.240
-423.544	371.552	0.062	0.125
-422.530	800.000	-0.025	-0.096
-421.515	-62.683	-0.307	0.126
-420.500	800.000	-0.051	0.184
-419.486	-0.126	0.208	-0.147
-418.471	111.724	-0.063	0.075
-417.457	-200.000	0.028	-0.338
-416.442	-56.417	0.115	0.051
-415.428	-15.632	-0.568	-0.360
-414.413	-114.249	0.314	-0.060
-413.398	-137.558	0.227	-0.025
-412.384	-52.408	-0.284	-0.131
-411.369	-119.987	0.345	-0.059
-410.355	800.000	0.052	0.221
-409.340	280.055	0.161	-0.285
-408.325	164.866	0.154	-0.216
-407.311	-200.000	-0.022	-0.258
-406.296	-200.000	-0.044	0.374
-405.282	-93.523	0.177	-0.049
-404.267	329.207	0.085	0.163
-403.252	800.000	-0.058	-0.202
-402.238	-88.325	-0.149	0.044
-401.223	-121.377	-0.198	-0.033
-400.209	-89.600	-0.112	-0.033
-399.194	800.000	0.133	0.369
-398.179	483.365	0.130	0.294
-397.165	155.712	-0.133	-0.183
-396.150	317.958	0.073	0.136
-395.136	191.368	0.162	0.242
-394.121	-42.253	-0.080	0.041
-393.106	10.761	-0.204	0.155
-392.092	800.000	0.057	0.204
-391.077	173.704	0.119	0.170
-390.063	-55.916	-0.286	-0.127
-389.048	800.000	-0.026	0.082
-388.033	-85.490	-0.252	0.078
-387.019	507.687	-0.106	0.243
-386.004	-75.283	0.286	-0.101
-384.990	25.896	-0.198	0.164
-383.975	-148.319	-0.461	-0.038
-382.960	-113.326	0.423	0.083
-381.946	-200.000	-0.036	-0.239
-380.931	284.455	-0.164	-0.293
-379.917	428.063	-0.027	0.057
-378.902	758.253	-0.050	-0.134
-377.888	-178.960	0.294	-0.007
-376.873	-60.929	0.159	0.067
-375.858	105.912	0.110	0.130
-374.844	800.000	-0.012	0.040
-373.829	-118.241	0.161	-0.028
-372.815	213.745	0.151	0.237
-371.800	-200.000	0.071	0.320
-370.785	-83.781	0.174	0.055
-369.771	-29.773	0.184	0.104
-368.756	-58.672	-0.315	-0.136
-367.742	-200.000	0.013	0.308
-366.727	-200.000	-0.030	0.269
-365.712	-65.321	0.335	0.134
-364.698	7.303	0.086	0.063
-363.683	800.000	0.122	-0.460
-362.669	-200.000	-0.016	-0.156
-361.654	191.399	0.133	0.199
-360.639	-101.447	0.247	0.060
-359.625	-147.647	0.160	0.013
-358.610	-65.751	-0.123	-0.049
-357.596	-173.997	-0.177	0.005
-356.581	-40.543	-0.316	-0.163
-355.566	291.030	-0.074	-0.134
-354.552	477.971	0.083	-0.185
-353.537	-176.383	-0.114	0.003
-352.523	800.000	-0.059	0.235
-351.508	7.685	-0.211	-0.156
-350.493	-200.000	-0.001	-0.187
-349.479	800.000	0.165	-0.461
-348.464	2.591	-0.128	0.092
-347.450	37.475	-0.025	-0.022
-346.435	-102.284	0.141	-0.033
-345.420	232.666	0.123	-0.201
-344.406	27.235	-0.275	0.229
-343.391	-107.587	0.264	0.057
-342.377	-69.840	-0.364	0.137
-341.362	10.721	-0.171	0.130
-340.348	250.712	0.256	-0.431
-339.333	126.714	-0.164	0.206
-338.318	152.906	0.043	0.058
-337.304	-200.000	-0.016	0.141
-336.289	61.447	-0.097	0.095
-335.275	52.874	-0.236	0.224
-334.260	-66.928	-0.356	0.139
-333.245	21.680	-0.235	0.190
-332.231	121.415	0.162	0.199
-331.216	253.041	0.058	-0.097
-330.202	-200.000	-0.022	0.127
-329.187	-61.374	0.089	-0.037
-328.172	-176.279	-0.143	0.004
-327.158	140.858	-0.143	-0.187
-326.143	28.148	0.103	-0.086
-325.129	192.335	-0.187	-0.280
-324.114	-200.000	0.030	-0.222
-323.099	410.907	0.181	0.380
-322.085	39.886	0.129	0.115
-321.070	35.575	-0.164	0.142
-320.056	-79.732	-0.389	0.130
-319.041	25.045	-0.068	-0.056
-318.026	254.855	0.035	0.059
-317.012	800.000	-0.113	0.381
-315.997	218.343	0.269	-0.425
-314.983	-70.742	-0.220	-0.082
-313.968	-128.567	0.535	-0.075
-312.953	50.744	-0.159	-0.149
-311.939	22.410	0.247	0.200
-310.924	-200.000	-0.040	0.326
-309.910	196.523	-0.160	0.241
-308.895	-200.000	-0.015	0.067
-307.880	800.000	0.026	0.089
-306.866	364.934	-0.127	-0.252
-305.851	800.000	0.140	0.427
-304.837	-200.000	0.010	-0.142
-303.822	82.115	-0.210	0.225
-302.807	129.475	-0.097	-0.123
-301.793	-30.323	-0.156	-0.088
-300.778	70.805	0.141	-0.145
-299.764	107.403	-0.223	-0.263
-298.749	42.955	0.188	-0.169
-297.735	254.615	0.069	0.116
-296.720	-72.454	0.156	-0.057
-295.705	66.976	0.310	0.312
-294.691	-52.658	-0.256	0.117
-293.676	800.000	-0.123	0.372
-292.662	-200.000	-0.006	-0.194
-291.647	417.960	0.111	-0.234
-290.632	20.529	0.176	-0.141
-289.618	391.747	-0.124	-0.254
-288.603	-104.920	0.309	-0.070
-287.589	-34.228	-0.127	0.069
-286.574	-42.320	-0.142	-0.072
-285.559	264.621	-0.235	-0.405
-284.545	-62.331	0.262	-0.108
-283.530	17.732	0.133	0.105
-282.516	-72.168	-0.281	-0.103
-281.501	-200.000	0.005	-0.060
-280.486	0.281	0.293	-0.207
-279.472	-200.000	-0.013	0.203
-278.457	-200.000	0.026	-0.142
-277.443	-42.476	0.182	0.092
-276.428	-51.626	-0.186	-0.086
-275.413	-65.694	0.299	0.118
-274.399	-155.400	0.133	-0.009
-273.384	12.121	-0.200	0.152
-272.370	-200.000	-0.055	0.335
-271.355	359.305	-0.123	0.243
-270.340	57.290	0.221	-0.213
-269.326	-6.844	0.157	-0.105
-268.311	28.838	-0.222	-0.186
-267.297	-72.856	0.183	0.067
-266.282	-6.359	-0.123	0.083
-265.267	-16.983	0.108	0.067
-264.253	-116.436	-0.178	-0.032
-263.238	-200.000	0.054	0.273
-262.224	800.000	-0.103	0.312
-261.209	33.632	0.043	-0.037
-260.195	800.000	-0.040	-0.119
-259.180	-5.985	0.243	-0.164
-258.165	325.861	-0.140	-0.265
-257.151	-15.918	0.219	-0.138
-256.136	800.000	0.141	0.490
-255.122	-135.126	0.327	0.039
-254.107	121.167	-0.080	0.099
-253.092	-74.329	0.309	0.110
-252.078	467.257	0.048	-0.107
-251.063	-67.318	0.118	-0.046
-250.049	-200.000	0.085	0.479
-249.034	58.875	0.147	-0.142
-248.019	-200.000	0.009	0.103
-247.005	211.171	0.074	-0.115
-245.990	341.293	-0.101	0.195
-244.976	-16.627	0.240	-0.150
-243.961	6.176	0.247	-0.181
-242.946	5.803	0.269	-0.196
-241.932	-200.000	0.031	0.359
-240.917	-73.390	-0.183	-0.066
-239.903	-10.776	0.103	0.067
-238.888	-145.519	0.103	-0.009
-237.873	800.000	-0.074	0.281
-236.859	111.461	0.041	0.049
-235.844	-200.000	0.028	-0.128
-234.830	800.000	-0.058	-0.240
-233.815	-200.000	-0.033	0.238
-232.800	-62.156	0.105	0.043
-231.786	-44.821	-0.167	0.082
-230.771	4.302	-0.256	-0.185
-229.757	-73.493	-0.164	-0.059
-228.742	-52.935	0.302	-0.137
-227.727	112.494	-0.102	-0.122
-226.713	800.000	-0.046	-0.131
-225.698	-200.000	-0.012	-0.150
-224.684	630.346	-0.096	0.240
-223.669	-58.292	-0.310	0.133
-222.655	41.912	0.069	-0.062
-221.640	800.000	-0.075	0.278
-220.625	-19.213	-0.231	-0.142
-219.611	110.639	-0.015	-0.018
-218.596	-200.000	0.052	0.555
-217.582	73.112	-0.102	0.105
-216.567	800.000	0.103	-0.313
-215.552	800.000	0.076	-0.288
-214.538	74.700	0.097	0.101
-213.523	-33.539	0.068	0.037
-212.509	-80.865	0.251	0.082
-211.494	85.928	0.042	-0.046
-210.479	-17.331	-0.410	-0.254
-209.465	155.282	-0.215	-0.292
-208.450	46.350	0.042	0.039
-207.436	-200.000	-0.028	-0.180
-206.421	-89.994	0.157	-0.045
-205.406	-87.653	0.101	-0.030
-204.392	-138.424	-0.343	0.037
-203.377	32.270	0.067	-0.057
-202.363	-92.304	0.116	-0.032
-201.348	-110.165	-0.127	0.026
-200.333	103.005	0.219	0.253
-199.319	-182.532	0.150	-0.003
-198.304	52.309	-0.181	-0.170
-197.290	21.156	0.244	0.195
-196.275	13.678	0.326	-0.249
-195.260	151.709	0.063	0.085
-194.246	-125.270	0.353	-0.053
-193.231	800.000	0.143	-0.402
-192.217	800.000	0.015	-0.052
-191.202	-57.346	-0.094	-0.041
-190.187	800.000	0.024	0.069
-189.173	-38.991	-0.057	-0.029
-188.158	-200.000	0.004	-0.096
-187.144	632.287	-0.049	0.122
-186.129	-200.000	-0.027	0.223
-185.114	-35.056	0.141	0.076
-184.100	710.591	0.056	-0.146
-183.085	518.023	-0.114	-0.263
-182.071	25.240	-0.104	-0.085
-181.056	-77.243	-0.008	0.003
-180.042	51.896	0.041	-0.038
-179.027	-74.268	0.036	-0.013
-178.012	-124.107	0.165	0.026
-176.998	350.302	-0.081	0.158
-175.983	800.000	-0.111	-0.343
-174.969	-71.170	-0.144	-0.053
-173.954	260.254	0.168	0.286
-172.939	207.548	0.135	-0.207
-171.925	-200.000	-0.011	0.157
-170.910	-108.664	-0.168	0.035
-169.896	8.625	-0.097	-0.072
-168.881	800.000	-0.106	0.358
-167.866	594.137	0.074	-0.180
-166.852	-105.764	-0.085	0.019
-165.837	3.375	-0.046	-0.033
-164.823	66.180	0.264	-0.263
-163.808	-68.901	-0.299	0.113
-162.793	470.860	-0.195	0.432
-161.779	264.862	0.227	0.389
-160.764	-24.236	-0.197	-0.116
-159.750	-200.000	0.013	-0.360
-158.735	-4.039	0.141	-0.096
-157.720	-56.310	0.260	-0.114
-156.706	195.357	0.165	-0.247
-155.691	-200.000	-0.030	-0.226
-154.677	-81.190	0.367	-0.119
-153.662	38.620	-0.182	-0.160
-152.647	308.181	0.189	-0.346
-151.633	191.294	-0.136	0.202
-150.618	340.752	-0.172	-0.331
-149.604	146.245	0.211	0.278
-148.589	-200.000	-0.018	0.213
-147.574	-88.763	-0.301	0.088
-146.560	-25.682	-0.186	0.108
-145.545	-182.702	-0.334	-0.006
-144.531	-148.682	-0.171	-0.014
-143.516	-200.000	-0.029	-0.409
-142.502	50.693	0.132	0.123
-141.487	800.000	0.079	0.229
-140.472	788.166	-0.103	-0.277
-139.458	14.281	0.069	0.053
-138.443	-155.303	-0.296	-0.019
-137.429	800.000	-0.096	-0.287
-136.414	104.149	0.108	-0.124
-135.399	515.141	-0.065	-0.149
-134.385	346.368	-0.039	0.075
-133.370	-65.615	0.296	0.117
-132.356	277.875	-0.186	-0.325
-131.341	548.722	0.038	-0.089
-130.326	-200.000	0.013	-0.179
-129.312	138.838	0.195	-0.252
-128.297	-200.000	0.071	-0.446
-127.283	317.112	-0.063	-0.118
-126.268	180.522	0.160	0.231
-125.253	-200.000	0.072	0.436
-124.239	-134.619	-0.209	-0.025
-123.224	752.789	0.036	0.095
-122.210	-200.000	0.085	0.529
-121.195	-23.312	0.006	0.004
-120.180	108.632	-0.208	-0.244
-119.166	-200.000	-0.046	0.266
-118.151	436.725	-0.074	0.159
-117.137	321.198	-0.097	-0.182
-116.122	-98.354	-0.212	-0.053
-115.107	-72.964	-0.041	-0.015
-114.093	695.841	-0.177	0.456
-113.078	-200.000	0.028	-0.258
-112.064	411.996	0.088	-0.184
-111.049	735.546	-0.153	0.404
-110.034	-82.634	0.086	-0.027
-109.020	219.576	-0.165	0.260
-108.005	77.228	0.181	0.189
-106.991	-72.276	0.359	-0.130
-105.976	461.625	0.096	0.209
-104.962	800.000	-0.046	-0.146
-103.947	-126.687	-0.143	0.021
-102.932	-119.017	0.205	0.035
-101.918	0.965	0.327	-0.230
-100.903	-200.000	0.052	0.344
-99.889	215.983	0.205	0.319
-98.874	-200.000	-0.049	0.257
-97.859	169.273	-0.175	0.245
-96.845	-40.884	0.396	-0.201
-95.830	-200.000	0.049	-0.384
-94.816	-200.000	-0.043	-0.252
-93.801	161.883	0.013	0.018
-92.786	800.000	-0.013	0.044
-91.772	800.000	0.086	-0.247
-90.757	97.051	-0.107	-0.121
-89.743	-200.000	0.015	-0.278
-88.728	45.441	-0.246	-0.222
-87.713	-146.333	0.094	-0.008
-86.699	-184.690	-0.187	0.003
-85.684	-200.000	-0.019	0.239
-84.670	-95.336	-0.285	0.075
-83.655	800.000	-0.057	0.205
-82.640	-35.624	0.181	-0.096
-81.626	77.369	0.087	0.091
-80.611	-19.064	0.211	-0.128
-79.597	683.404	0.079	-0.203
-78.582	800.000	-0.009	0.038
-77.567	271.811	-0.161	0.278
-76.553	-161.664	-0.146	-0.007
-75.538	307.256	0.140	-0.256
-74.524	-160.116	0.264	0.014
-73.509	-74.244	-0.085	0.030
-72.494	528.544	0.094	-0.217
-71.480	585.857	0.104	-0.251
-70.465	-116.103	0.143	-0.026
-69.451	-200.000	0.011	-0.151
-68.436	-200.000	-0.019	-0.170
-67.422	145.281	0.211	-0.277
-66.407	134.148	-0.086	0.109
-65.392	-72.686	-0.363	-0.131
-64.378	-25.645	-0.171	0.099
-63.363	-54.931	-0.209	-0.093
-62.349	-200.000	-0.009	0.377
-61.334	132.792	-1.275	-1.613
-60.319	193.100	0.431	0.638
-59.305	-200.000	-0.126	-0.969
-58.290	314.987	0.755	1.393
-57.276	800.000	0.433	1.519
-56.261	-200.000	112.790	644.577
-55.246	473.545	1503.942	3321.549
-54.232	147.776	2668.488	3523.630
-53.217	103.865	2151.865	2476.808
-52.203	38.857	1602.206	1401.786
-51.188	30.817	1349.845	1132.300
-50.173	28.118	1311.297	1083.952
-49.159	55.953	1366.654	1298.524
-48.144	54.232	1382.027	1302.716
-47.130	31.244	1337.587	1124.406
-46.115	27.822	1319.598	1088.872
-45.100	27.559	1315.220	1083.652
-44.086	27.511	1312.248	1080.875
-43.071	27.464	1310.121	1078.802
-42.057	27.331	1308.667	1076.776
-41.042	27.461	1306.769	1075.938
-40.027	27.443	1305.411	1074.673
-39.013	27.494	1303.082	1073.015
-37.998	27.520	1301.199	1071.572
-36.984	27.529	1299.910	1070.521
-35.969	27.640	1297.237	1068.931
-34.954	27.632	1296.039	1067.853
-33.940	27.637	1294.861	1066.869
-32.925	27.681	1293.251	1065.756
-31.911	27.631	1291.976	1064.374
-30.896	27.651	1290.838	1063.512
-29.881	27.633	1289.780	1062.488
-28.867	27.756	1287.489	1061.280
-27.852	27.708	1286.452	1060.101
-26.838	27.711	1285.110	1058.969
-25.823	27.649	1283.799	1057.486
-24.809	27.621	1282.452	1056.176
-23.794	27.677	1280.974	1055.237
-22.779	27.751	1279.517	1054.426
-21.765	27.789	1278.645	1053.882
-20.750	27.685	1277.451	1052.260
-19.736	27.699	1276.004	1051.107
-18.721	27.639	1274.511	1049.491
-17.706	27.654	1273.370	1048.591
-16.692	27.619	1272.232	1047.414
-15.677	27.712	1271.240	1047.092
-14.663	27.659	1270.007	1045.730
-13.648	27.668	1268.831	1044.768
-12.633	27.647	1268.026	1043.947
-11.619	27.506	1267.657	1042.792
-10.604	27.548	1266.401	1041.961
-9.590	27.577	1265.200	1041.096
-8.575	27.509	1264.574	1040.148
-7.560	27.566	1263.696	1039.714
-6.546	27.565	1262.961	1039.062
-5.531	27.524	1261.830	1037.856
-4.517	27.568	1260.846	1037.254
-3.502	27.706	1260.005	1037.308
-2.487	27.543	1259.477	1035.904
-1.473	27.510	1255.005	1031.999
-0.458	26.029	1239.748	1011.118
0.556	21.070	1223.192	973.128
1.571	17.524	1229.496	958.139
2.586	16.642	1244.708	964.883
3.600	16.699	1233.714	956.600
4.615	15.337	1167.157	897.626
5.629	12.265	1100.725	830.934
6.644	10.781	1083.762	810.656
7.659	10.608	1081.514	808.042
8.673	10.480	1080.781	806.783
9.688	10.531	1079.515	806.023
10.702	10.805	1077.230	805.602
11.717	12.607	1078.224	815.210
12.731	15.512	1082.711	832.957
13.746	17.572	1084.645	844.599
14.761	17.704	1084.229	844.855
15.775	16.676	1082.075	838.015
16.790	15.560	1080.351	831.086
17.804	14.864	1078.483	826.140
18.819	14.414	1077.541	823.121
19.834	14.275	1076.176	821.321
20.848	13.943	1075.620	819.187
21.863	13.691	1074.744	817.205
22.877	13.675	1073.857	816.378
23.892	13.658	1073.246	815.758
24.907	13.535	1072.563	814.562
25.921	13.629	1071.288	813.984
26.936	13.718	1070.067	813.418
27.950	13.697	1068.489	812.047
28.965	13.772	1067.332	811.461
29.980	13.844	1065.570	810.402
30.994	13.823	1064.631	809.512
32.009	13.936	1063.692	809.279
33.023	13.846	1062.378	807.767
34.038	13.877	1061.336	807.055
35.053	13.691	1060.718	805.612
36.067	13.666	1059.919	804.813
37.082	13.645	1059.175	804.076
38.096	13.817	1058.092	804.013
39.111	13.780	1057.523	803.330
40.126	13.708	1056.320	802.001
41.140	13.544	1055.032	800.160
42.155	13.608	1053.564	799.281
43.169	13.559	1052.370	798.068
44.184	13.534	1051.394	797.138
45.199	13.491	1050.465	796.159
46.213	13.513	1049.227	795.254
47.228	13.690	1048.037	795.131
48.242	13.692	1047.318	794.525
49.257	13.645	1046.209	793.388
50.271	13.808	1045.278	793.393
51.286	13.719	1044.800	792.530
52.301	13.737	1043.368	791.460
53.315	13.732	1042.329	790.579
54.330	13.609	1041.483	789.284
55.344	13.659	1040.669	788.832
56.359	13.657	1040.126	788.344
57.374	13.632	1038.871	787.202
58.388	13.515	1038.374	786.199
59.403	13.663	1037.370	786.073
60.417	13.608	1036.281	784.916
61.432	13.603	1035.673	784.362
62.447	13.442	1034.985	783.011
63.461	13.543	1033.905	782.603
64.476	13.376	1033.491	781.430
65.490	13.442	1032.237	780.726
66.505	13.545	1031.512	780.595
67.520	13.498	1031.286	780.131
68.534	13.442	1030.479	779.190
69.549	13.556	1029.329	778.786
70.563	13.551	1028.497	778.065
71.578	13.380	1028.130	776.914
72.593	13.349	1027.129	775.948
73.607	13.391	1026.694	775.746
74.622	13.537	1025.497	775.457
75.636	13.402	1025.442	774.713
76.651	13.445	1024.091	773.825
77.666	13.427	1023.596	773.299
78.680	13.444	1022.949	772.819
79.695	13.489	1022.597	772.697
80.709	13.555	1021.808	772.340
81.724	13.583	1020.881	771.699
82.739	13.624	1020.729	771.708
83.753	13.683	1019.961	771.334
84.768	13.917	1018.560	771.295
85.782	13.843	1018.068	770.510
86.797	13.769	1017.019	769.302
87.812	13.593	1016.056	767.691
88.826	13.732	1014.997	767.469
89.841	13.820	1013.973	767.033
90.855	13.877	1013.258	766.688
91.870	13.809	1012.447	765.690
92.884	13.834	1011.504	765.024
93.899	13.791	1011.038	764.409
94.914	14.012	1009.772	764.399
95.928	13.843	1008.878	762.879
96.943	13.817	1008.298	762.253
97.957	13.898	1007.338	761.831
98.972	13.815	1006.840	761.005
99.987	13.767	1005.903	760.010
101.001	13.750	1005.020	759.201
102.016	13.832	1003.708	758.516
103.030	13.834	1003.037	757.950
104.045	13.768	1002.496	757.173
105.060	13.795	1001.467	756.451
106.074	13.683	1000.414	755.079
107.089	13.791	999.185	754.575
108.103	13.647	998.405	753.267
109.118	13.578	997.803	752.433
110.133	13.532	996.888	751.467
111.147	13.555	995.593	750.529
112.162	13.583	995.104	750.219
113.176	13.673	994.161	749.850
114.191	13.678	993.349	749.193
115.206	13.742	992.578	748.834
116.220	13.555	991.873	747.394
117.235	13.614	991.157	747.053
118.249	13.660	989.889	746.238
119.264	13.643	989.455	745.770
120.279	13.458	988.845	744.413
121.293	13.554	987.489	743.756
122.308	13.627	986.664	743.395
123.322	13.651	985.557	742.603
124.337	13.581	984.802	741.658
125.352	13.586	983.549	740.671
126.366	13.724	981.955	740.018
127.381	13.597	981.753	739.234
128.395	13.714	980.626	738.842
129.410	13.672	980.230	738.290
130.424	13.626	979.156	737.214
131.439	13.683	978.332	736.780
132.454	13.707	977.249	736.008
133.468	13.722	976.715	735.606
134.483	13.738	975.794	734.917
135.497	13.733	974.522	733.872
136.512	13.738	974.061	733.483
137.527	13.845	972.983	733.080
138.541	13.655	973.019	732.202
139.556	13.749	972.070	731.837
140.570	13.870	971.395	731.797
141.585	13.957	970.315	731.300
142.600	13.995	969.256	730.609
143.614	13.937	968.702	729.869
144.629	14.038	967.633	729.442
145.643	13.898	966.978	728.271
146.658	13.802	966.422	727.368
147.673	13.912	965.177	726.847
148.687	13.858	963.596	725.355
149.702	13.891	962.908	724.917
150.716	13.857	962.294	724.246
151.731	13.915	961.287	723.672
152.746	13.828	961.189	723.159
153.760	13.821	960.590	722.611
154.775	14.067	959.596	722.868
155.789	13.942	959.401	722.115
156.804	13.999	958.317	721.482
157.819	14.099	957.576	721.296
158.833	14.127	957.292	721.141
159.848	14.175	956.020	720.327
160.862	14.119	955.109	719.334
161.877	13.976	954.256	718.008
162.892	13.939	953.303	717.070
163.906	13.749	952.900	715.881
164.921	13.878	952.009	715.707
165.935	14.015	950.669	715.226
166.950	13.955	950.017	714.411
167.964	14.186	948.769	714.403
168.979	13.893	948.079	712.565
169.994	13.995	947.297	712.352
171.008	13.977	946.693	711.754
172.023	14.182	945.858	711.943
173.037	13.983	945.556	710.802
174.052	14.132	944.711	710.739
175.067	14.110	943.875	709.952
176.081	13.937	943.413	708.802
177.096	13.995	942.979	708.665
178.110	14.033	942.163	708.149
179.125	14.117	941.292	707.790
180.140	14.089	941.178	707.522
181.154	14.066	940.931	707.175
182.169	14.136	940.254	706.902
183.183	14.145	939.485	706.299
184.198	14.274	938.840	706.299
185.213	14.349	937.569	705.600
186.227	14.178	937.151	704.497
187.242	14.362	936.438	704.679
188.256	14.268	936.351	704.151
189.271	14.398	935.162	703.746
190.286	14.293	933.906	702.296
191.300	14.160	933.612	701.449
192.315	13.923	933.597	700.377
193.329	14.058	932.363	699.957
194.344	14.167	931.879	699.992
195.359	14.178	931.273	699.519
196.373	14.180	930.973	699.243
197.388	14.353	930.346	699.436
198.402	14.527	929.787	699.685
199.417	14.524	928.835	698.892
200.432	14.501	928.526	698.504
201.446	14.615	928.071	698.576
202.461	14.542	927.844	698.038
203.475	14.429	927.099	696.943
204.490	14.467	926.119	696.305
205.504	14.503	925.326	695.795
206.519	14.547	924.413	695.232
207.534	14.305	924.023	693.868
208.548	14.563	922.984	694.100
209.563	14.558	922.517	693.664
210.577	14.534	922.152	693.230
211.592	14.639	921.381	693.026
212.607	14.713	920.490	692.602
213.621	14.719	919.529	691.842
214.636	14.690	918.790	691.102
215.650	14.705	918.288	690.726
216.665	14.787	917.261	690.233
217.680	14.779	916.986	689.932
218.694	14.843	916.099	689.469
219.709	14.799	915.894	689.069
220.723	14.711	915.131	688.073
221.738	14.570	914.780	687.169
222.753	14.878	913.497	687.409
223.767	14.858	913.122	686.986
224.782	14.882	912.494	686.551
225.796	14.858	912.136	686.120
226.811	14.900	911.421	685.695
227.826	14.866	910.756	684.995
228.840	14.829	909.417	683.774
229.855	14.895	908.485	683.284
230.869	14.835	908.363	682.887
231.884	14.808	907.262	681.886
232.899	14.843	906.653	681.513
233.913	14.846	905.747	680.783
234.928	14.821	905.172	680.190
235.942	14.710	905.066	679.596
236.957	14.842	904.317	679.512
237.972	14.815	904.045	679.139
238.986	14.836	903.268	678.581
240.001	15.000	902.289	678.447
241.015	14.856	901.935	677.540
242.030	14.959	901.457	677.536
243.045	15.135	900.569	677.521
244.059	15.027	899.784	676.434
245.074	15.050	899.301	676.103
246.088	14.962	898.758	675.279
247.103	15.065	898.035	675.092
248.117	15.045	897.960	674.899
249.132	15.101	897.447	674.678
250.147	15.250	896.653	674.621
251.161	15.321	896.050	674.392
252.176	15.269	895.160	673.453
253.190	15.256	894.656	672.965
254.205	15.360	894.016	672.839
255.220	15.413	893.345	672.486
256.234	15.459	892.238	671.779
257.249	15.458	892.060	671.583
258.263	15.367	891.116	670.449
259.278	15.444	890.818	670.472
260.293	15.430	890.076	669.796
261.307	15.455	889.606	669.483
262.322	15.632	888.727	669.467
263.336	15.461	888.143	668.287
264.351	15.620	887.287	668.217
265.366	15.611	886.740	667.714
266.380	15.715	885.864	667.407
267.395	15.594	885.468	666.570
268.409	15.553	884.580	665.677
269.424	15.565	884.131	665.328
270.439	15.442	883.570	664.363
271.453	15.546	882.717	664.073
272.468	15.578	882.144	663.709
273.482	15.546	881.807	663.271
274.497	15.594	880.724	662.585
275.512	15.623	880.427	662.419
276.526	15.526	880.055	661.697
277.541	15.589	879.238	661.272
278.555	15.690	878.896	661.353
279.570	15.923	877.767	661.362
280.585	15.807	877.413	660.580
281.599	15.750	876.391	659.527
282.614	15.743	875.649	658.885
283.628	15.670	875.219	658.218
284.643	15.754	874.921	658.266
285.657	15.782	874.444	657.956
286.672	15.946	873.154	657.570
287.687	15.684	873.157	656.489
288.701	15.926	872.003	656.506
289.716	15.775	871.759	655.676
290.730	15.933	871.009	655.669
291.745	15.873	870.610	655.078
292.760	15.916	870.101	654.806
293.774	16.033	869.070	654.426
294.789	16.030	868.491	653.918
295.803	15.920	867.741	652.869
296.818	16.064	867.068	652.865
297.833	15.946	866.571	651.976
298.847	15.881	866.233	651.412
299.862	16.017	865.780	651.540
300.876	16.156	864.888	651.346
301.891	16.132	864.214	650.690
302.906	16.169	863.778	650.445
303.920	16.072	863.627	649.899
304.935	16.176	862.482	649.382
305.949	16.222	862.151	649.252
306.964	16.105	861.517	648.267
307.979	16.186	860.572	647.810
308.993	16.324	860.188	647.993
310.008	16.387	859.557	647.703
311.022	16.230	859.362	646.896
312.037	16.094	858.941	646.001
313.052	16.128	858.183	645.505
314.066	16.179	857.537	645.156
315.081	16.165	856.787	644.482
316.095	16.276	856.044	644.288
317.110	16.216	855.709	643.751
318.125	16.203	855.469	643.464
319.139	16.191	854.930	642.954
320.154	16.193	854.466	642.559
321.168	16.329	853.811	642.526
322.183	16.094	853.231	641.140
323.197	16.399	852.317	641.552
324.212	16.309	852.194	641.064
325.227	16.179	851.836	640.244
326.241	16.380	850.720	640.108
327.256	16.373	850.280	639.696
328.270	16.227	849.826	638.746
329.285	16.222	849.541	638.454
330.300	16.383	848.285	638.062
331.314	16.362	848.279	637.923
332.329	16.354	847.949	637.586
333.343	16.315	847.300	636.894
334.358	16.406	846.595	636.653
335.373	16.369	847.055	636.804
336.387	16.425	846.538	636.570
337.402	16.471	846.073	636.337
338.416	16.622	845.580	636.478
339.431	16.591	845.499	636.242
340.446	16.719	844.327	635.786
341.460	16.575	844.721	635.486
342.475	16.767	843.802	635.457
343.489	16.812	843.398	635.265
344.504	16.626	843.170	634.341
345.519	16.862	842.341	634.545
346.533	16.671	842.004	633.520
347.548	16.695	841.144	632.905
348.562	16.783	840.740	632.876
349.577	16.618	840.401	631.946
350.592	16.668	839.669	631.526
351.606	16.655	839.224	631.090
352.621	16.676	838.429	630.513
353.635	16.885	837.580	630.598
354.650	16.779	837.018	629.722
355.665	16.811	836.348	629.284
356.679	16.790	835.680	628.645
357.694	16.900	835.304	628.716
358.708	16.908	834.514	628.095
359.723	16.988	833.810	627.805
360.738	16.826	833.646	627.029
361.752	16.797	833.130	626.476
362.767	17.063	832.390	626.848
363.781	17.063	831.684	626.261
364.796	17.008	831.283	625.698
365.810	17.107	831.148	625.908
366.825	17.190	830.317	625.533
367.840	17.104	830.011	624.930
368.854	16.972	829.666	624.129
369.869	17.067	829.502	624.300
370.883	17.003	829.050	623.669
371.898	17.165	828.861	624.068
372.913	17.196	827.939	623.431
373.927	17.162	827.320	622.787
374.942	17.224	826.855	622.606
375.956	17.247	826.410	622.301
376.971	17.470	826.146	622.864
377.986	17.372	825.461	621.933
379.000	17.426	825.106	621.810
380.015	17.286	824.768	620.986
381.029	17.479	824.181	621.197
382.044	17.390	823.277	620.135
383.059	17.450	822.934	620.041
384.073	17.332	822.240	619.034
385.088	17.255	821.978	618.500
386.102	17.321	820.999	617.949
387.117	17.301	820.574	617.502
388.132	17.397	819.919	617.304
389.146	17.446	819.331	616.981
390.161	17.420	819.316	616.823
391.175	17.459	818.822	616.539
392.190	17.528	817.647	615.849
393.205	17.410	817.939	615.587
394.219	17.481	817.257	615.277
395.234	17.502	816.558	614.771
396.248	17.395	816.169	614.035
397.263	17.295	816.195	613.643
398.278	17.457	815.860	613.920
399.292	17.414	815.279	613.272
400.307	17.354	814.634	612.518
401.321	17.392	814.363	612.395
402.336	17.463	813.787	612.165
403.350	17.655	813.202	612.359
404.365	17.542	812.897	611.672
405.380	17.585	812.379	611.381
406.394	17.716	811.849	611.397
407.409	17.817	811.456	611.410
408.423	17.864	810.963	611.154
409.438	17.903	810.555	610.932
410.453	17.821	810.445	610.501
411.467	17.783	810.190	610.117
412.482	17.833	809.640	609.829
413.496	17.880	809.017	609.474
414.511	17.993	808.683	609.570
415.526	17.932	808.121	608.876
416.540	17.942	807.618	608.477
417.555	17.826	807.332	607.796
418.569	17.937	806.661	607.630
419.584	17.867	806.485	607.197
420.599	18.010	806.001	607.288
421.613	111.421	1294.960	1475.906
422.628	96.138	1366.185	1475.985
