DTS Sentinel unit serial number:	SN413079Multiplexer serial number:	ORYXHardware model number:	OX4-SRSoftware version number:	ORYX F/W v4.00 Oryx Data Collector v3.7.2.0data status	okinstallation	princeton_trtdifferential loss correction	single-endedforward channel	channel 1reverse channel	N/Adate	2019/09/11time	19:52:11forward acquisition time	60.00reverse acquisition time	0.00gamma	496.2192k internal	0.2300k external	0.2300temperature offset calibration	1.0033default loss term (dB/km)	0.3790temperature slope calibration	1.0000multiplexer offset coefficient	1.0000multiplexer slope coefficient	1.0000fibre end	0.00T internal ref (°C)	39.19T ext. ref 1 (°C)	1.39T ext. ref 2 (°C)	32.12length (m)	temperature (°C)	Stokes	anti-Stokes-747.200	245.214	-0.167	0.286
-746.185	-164.074	0.211	-0.010
-745.171	800.000	0.090	-0.353
-744.156	164.513	0.048	-0.069
-743.142	-127.172	-0.191	0.028
-742.127	-90.225	0.035	-0.010
-741.112	800.000	-0.102	-0.374
-740.098	-0.980	-0.207	-0.150
-739.083	56.999	-0.200	-0.198
-738.069	-83.372	-0.316	0.103
-737.054	276.225	-0.022	-0.040
-736.039	-84.859	-0.358	0.115
-735.025	-97.673	0.254	-0.067
-734.010	24.155	-0.212	-0.179
-732.996	-200.000	-0.016	-0.223
-731.981	-124.683	-0.165	0.026
-730.966	-143.251	-0.160	-0.016
-729.952	-200.000	-0.060	-0.559
-728.937	-38.621	0.177	-0.095
-727.923	-18.308	0.075	0.048
-726.908	-41.005	0.101	-0.053
-725.894	652.657	-0.089	-0.233
-724.879	-100.650	0.379	0.095
-723.864	135.456	0.084	-0.111
-722.850	800.000	0.045	0.171
-721.835	305.178	0.034	-0.064
-720.821	-80.890	-0.020	-0.007
-719.806	-200.000	-0.008	0.309
-718.791	-140.165	-0.417	-0.045
-717.777	98.456	-0.013	-0.015
-716.762	-14.962	0.142	0.093
-715.748	-200.000	0.012	-0.215
-714.733	90.986	0.128	-0.146
-713.718	507.577	0.106	0.250
-712.704	8.429	0.187	0.143
-711.689	75.571	-0.088	0.094
-710.675	-23.980	0.336	0.204
-709.660	-100.109	-0.210	0.053
-708.645	-20.168	0.257	-0.161
-707.631	-123.736	0.170	-0.027
-706.616	64.259	-0.100	0.103
-705.602	-116.298	0.282	0.053
-704.587	800.000	-0.179	-0.539
-703.572	-1.269	0.337	-0.243
-702.558	186.330	0.109	0.165
-701.543	112.192	0.093	-0.114
-700.529	-136.562	0.206	-0.024
-699.514	-94.574	-0.147	0.041
-698.499	377.140	-0.123	-0.257
-697.485	-200.000	-0.051	-0.358
-696.470	-153.716	0.182	0.013
-695.456	169.603	-0.119	-0.172
-694.441	-200.000	0.011	0.072
-693.426	-81.427	0.192	-0.064
-692.412	-67.313	-0.421	-0.169
-691.397	-47.673	-0.183	-0.091
-690.383	130.461	0.204	-0.267
-689.368	65.285	-0.247	-0.254
-688.354	-11.378	0.221	0.148
-687.339	54.975	0.128	0.125
-686.324	-200.000	0.035	0.327
-685.310	47.832	0.154	0.147
-684.295	779.680	0.058	0.160
-683.281	42.932	-0.093	-0.086
-682.266	18.354	-0.273	0.222
-681.251	-187.475	0.185	0.003
-680.237	34.813	0.302	0.269
-679.222	-36.454	-0.284	-0.155
-678.208	-79.851	0.231	0.079
-677.193	22.462	0.149	-0.124
-676.178	-200.000	-0.061	-0.275
-675.164	-55.154	-0.263	-0.120
-674.149	199.421	-0.128	-0.199
-673.135	-200.000	-0.027	-0.206
-672.120	8.816	0.063	0.048
-671.105	-43.350	-0.144	-0.074
-670.091	-147.693	0.210	0.018
-669.076	-200.000	-0.007	0.352
-668.062	662.538	0.134	0.350
-667.047	-160.882	-0.377	-0.020
-666.032	-200.000	-0.010	-0.053
-665.018	-200.000	0.060	0.415
-664.003	-138.038	0.209	0.024
-662.989	-200.000	0.005	-0.188
-661.974	31.809	-0.242	0.212
-660.959	-138.982	0.281	0.031
-659.945	46.382	0.174	0.164
-658.930	-108.598	-0.152	0.033
-657.916	-52.044	0.044	-0.021
-656.901	-19.038	0.204	-0.129
-655.886	80.444	-0.179	-0.196
-654.872	-200.000	-0.014	-0.214
-653.857	-200.000	-0.004	-0.266
-652.843	-48.726	0.023	-0.011
-651.828	800.000	-0.013	0.044
-650.814	-200.000	-0.000	0.061
-649.799	151.807	-0.165	-0.228
-648.784	-99.167	-0.199	0.051
-647.770	776.108	-0.130	-0.362
-646.755	-200.000	0.010	-0.048
-645.741	-63.208	0.082	-0.034
-644.726	-50.693	0.150	-0.072
-643.711	532.355	-0.032	-0.077
-642.697	-200.000	-0.010	-0.091
-641.682	-95.517	0.090	-0.024
-640.668	215.670	0.049	-0.079
-639.653	118.426	-0.086	0.107
-638.638	-200.000	0.005	-0.267
-637.624	800.000	-0.071	0.267
-636.609	31.562	-0.099	-0.086
-635.595	-7.623	-0.155	0.106
-634.580	-149.256	-0.299	-0.024
-633.565	-200.000	0.026	0.244
-632.551	-200.000	0.004	0.068
-631.536	25.009	0.038	-0.032
-630.522	-77.933	-0.538	-0.188
-629.507	584.628	0.070	-0.175
-628.492	209.781	-0.175	0.279
-627.478	-200.000	-0.024	0.292
-626.463	-200.000	0.003	0.323
-625.449	160.833	0.040	-0.057
-624.434	-97.186	-0.183	-0.049
-623.419	326.901	0.157	-0.306
-622.405	191.464	-0.101	0.154
-621.390	-181.259	-0.314	-0.006
-620.376	25.927	0.119	-0.100
-619.361	-200.000	-0.049	0.236
-618.346	-200.000	0.041	0.184
-617.332	352.369	0.095	0.191
-616.317	62.787	-0.212	0.215
-615.303	-200.000	0.014	-0.132
-614.288	148.520	0.242	-0.332
-613.273	-73.260	-0.239	0.089
-612.259	47.929	-0.107	0.101
-611.244	184.777	-0.143	-0.215
-610.230	-160.113	0.234	0.013
-609.215	67.511	0.215	0.223
-608.201	-25.242	0.083	0.050
-607.186	402.243	0.130	0.277
-606.171	-95.398	-0.353	-0.096
-605.157	-45.805	0.039	0.019
-604.142	-108.515	0.338	-0.074
-603.128	-200.000	-0.040	-0.286
-602.113	-75.601	0.194	-0.070
-601.098	-52.467	0.316	0.148
-600.084	247.727	-0.111	0.190
-599.069	151.586	-0.116	-0.161
-598.055	-200.000	0.017	0.229
-597.040	800.000	0.037	0.153
-596.025	-10.033	0.139	-0.094
-595.011	-16.309	-0.024	0.016
-593.996	35.129	0.057	-0.050
-592.982	127.302	0.139	-0.179
-591.967	-200.000	0.002	0.174
-590.952	-94.953	0.123	0.034
-589.938	741.644	-0.045	0.123
-588.923	-111.615	-0.073	0.015
-587.909	800.000	-0.046	0.167
-586.894	56.405	0.226	-0.222
-585.879	-28.505	-0.237	-0.138
-584.865	65.358	0.059	0.060
-583.850	-37.584	-0.211	0.114
-582.836	14.305	-0.079	-0.062
-581.821	118.448	0.080	-0.100
-580.806	117.344	-0.039	0.049
-579.792	155.750	-0.114	0.159
-578.777	-132.251	0.308	-0.040
-577.763	247.825	-0.089	-0.153
-576.748	112.184	-0.216	-0.264
-575.733	-20.440	-0.085	-0.053
-574.719	207.039	-0.054	0.085
-573.704	-53.916	0.203	0.094
-572.690	-81.975	0.074	-0.025
-571.675	43.699	-0.111	-0.103
-570.661	100.729	0.295	0.347
-569.646	800.000	0.013	-0.038
-568.631	182.496	-0.185	-0.277
-567.617	-23.183	-0.197	-0.120
-566.602	800.000	0.035	0.149
-565.588	-17.577	-0.135	-0.086
-564.573	-117.512	-0.288	-0.053
-563.558	-68.971	-0.245	0.095
-562.544	-60.095	0.102	0.044
-561.529	-15.385	0.103	-0.067
-560.515	-90.145	0.446	-0.132
-559.500	800.000	-0.049	0.188
-558.485	800.000	-0.066	0.250
-557.471	-56.475	0.177	0.079
-556.456	-94.229	-0.140	0.039
-555.442	-49.571	0.302	-0.145
-554.427	-117.262	0.115	-0.021
-553.412	30.068	-0.134	-0.116
-552.398	-37.029	0.120	-0.065
-551.383	-90.403	-0.180	-0.053
-550.369	202.172	-0.034	-0.054
-549.354	-200.000	0.008	0.113
-548.339	15.849	-0.083	-0.066
-547.325	404.703	0.059	0.125
-546.310	62.256	-0.191	-0.193
-545.296	626.352	-0.025	0.065
-544.281	160.808	0.048	-0.067
-543.266	589.797	0.160	-0.399
-542.252	105.172	0.124	-0.148
-541.237	-200.000	-0.007	0.095
-540.223	308.703	0.038	0.073
-539.208	60.948	-0.026	0.026
-538.193	-1.622	0.106	-0.076
-537.179	-200.000	0.010	0.391
-536.164	139.056	0.223	0.297
-535.150	-200.000	0.047	-0.303
-534.135	225.511	0.093	-0.152
-533.121	-2.654	0.167	-0.118
-532.106	155.854	0.069	-0.096
-531.091	672.313	0.073	-0.192
-530.077	-130.077	0.268	0.037
-529.062	-50.154	-0.411	0.197
-528.048	594.246	0.087	-0.217
-527.033	-142.897	-0.304	-0.030
-526.018	-49.699	-0.149	0.072
-525.004	-200.000	0.048	-0.533
-523.989	-188.632	-0.457	-0.006
-522.975	800.000	-0.030	0.110
-521.960	-154.049	0.150	-0.010
-520.945	-200.000	0.020	-0.297
-519.931	-69.502	0.197	0.076
-518.916	706.725	-0.089	-0.239
-517.902	-33.937	-0.094	-0.052
-516.887	666.388	0.063	-0.165
-515.872	-87.168	-0.239	0.074
-514.858	-3.998	0.118	-0.083
-513.843	545.436	0.068	0.165
-512.829	-51.726	-0.234	0.110
-511.814	126.035	-0.069	-0.088
-510.799	-200.000	0.044	0.279
-509.785	-200.000	0.015	0.424
-508.770	-200.000	-0.000	0.186
-507.756	110.662	0.043	0.053
-506.741	-55.726	-0.135	0.061
-505.726	-200.000	0.015	-0.077
-504.712	800.000	-0.102	-0.321
-503.697	800.000	-0.036	0.123
-502.683	-69.210	0.156	-0.061
-501.668	503.667	0.032	-0.076
-500.653	-36.267	0.447	-0.243
-499.639	-86.042	-0.319	0.100
-498.624	313.547	0.106	-0.201
-497.610	285.115	-0.056	-0.101
-496.595	-188.933	-0.073	0.001
-495.581	313.026	0.096	-0.182
-494.566	450.809	-0.074	-0.165
-493.551	-104.990	0.321	0.074
-492.537	323.479	-0.175	0.337
-491.522	-61.607	-0.150	-0.063
-490.508	-138.563	0.047	0.005
-489.493	800.000	-0.040	0.143
-488.478	749.504	0.004	-0.010
-487.464	103.072	0.264	0.313
-486.449	-73.835	0.393	0.144
-485.435	-11.089	-0.202	-0.134
-484.420	800.000	0.106	0.390
-483.405	652.604	0.095	0.245
-482.391	391.720	0.114	0.239
-481.376	-84.734	-0.173	0.055
-480.362	-200.000	-0.004	-0.079
-479.347	48.876	-0.068	-0.064
-478.332	235.652	0.021	-0.035
-477.318	-200.000	0.024	-0.137
-476.303	227.483	-0.226	-0.372
-475.289	8.372	0.139	-0.105
-474.274	36.322	-0.194	0.173
-473.259	214.121	-0.041	0.066
-472.245	547.207	0.146	0.351
-471.230	41.402	0.092	0.084
-470.216	-200.000	0.000	0.041
-469.201	2.122	-0.127	0.093
-468.186	-74.137	0.353	0.129
-467.172	566.302	-0.209	-0.512
-466.157	5.015	0.227	-0.169
-465.143	-174.272	-0.094	-0.003
-464.128	800.000	0.048	-0.179
-463.113	-200.000	0.039	-0.296
-462.099	69.616	-0.067	-0.070
-461.084	55.623	0.085	-0.083
-460.070	-144.204	0.320	-0.030
-459.055	-15.323	0.131	0.084
-458.040	-200.000	-0.011	-0.184
-457.026	156.476	-0.114	0.159
-456.011	-200.000	-0.017	0.109
-454.997	-95.472	-0.413	0.112
-453.982	-68.812	-0.320	0.125
-452.968	-200.000	0.025	-0.328
-451.953	-193.880	-0.228	0.002
-450.938	31.726	-0.189	0.164
-449.924	-119.014	0.157	-0.028
-448.909	-200.000	0.004	-0.064
-447.895	-95.820	-0.429	0.115
-446.880	-200.000	0.054	0.446
-445.865	217.249	-0.069	-0.110
-444.851	28.773	0.271	0.232
-443.836	800.000	0.052	0.166
-442.822	18.624	0.080	-0.064
-441.807	-54.400	-0.237	0.108
-440.792	-200.000	-0.002	0.348
-439.778	539.901	0.065	0.156
-438.763	-21.920	-0.396	0.243
-437.749	-152.567	0.363	-0.026
-436.734	-200.000	-0.003	-0.074
-435.719	133.509	0.107	-0.139
-434.705	-57.226	-0.268	-0.119
-433.690	-167.984	0.226	0.009
-432.676	-200.000	0.010	-0.088
-431.661	-139.494	-0.194	-0.021
-430.646	-200.000	0.016	0.156
-429.632	639.909	-0.083	0.214
-428.617	37.021	0.083	0.074
-427.603	-139.316	0.210	0.023
-426.588	-200.000	0.002	0.058
-425.573	-172.109	-0.288	-0.009
-424.559	-191.519	0.346	0.003
-423.544	-200.000	0.001	-0.263
-422.530	164.570	-0.057	-0.080
-421.515	75.550	-0.065	0.069
-420.500	8.209	0.130	0.098
-419.486	168.327	-0.070	-0.100
-418.471	63.550	0.081	-0.082
-417.457	800.000	0.065	0.241
-416.442	278.403	0.049	0.088
-415.428	800.000	0.044	-0.126
-414.413	800.000	-0.075	0.245
-413.398	-58.459	-0.351	-0.154
-412.384	23.156	-0.131	-0.108
-411.369	-4.353	-0.189	0.132
-410.355	800.000	-0.099	-0.388
-409.340	-139.836	0.043	-0.005
-408.325	-75.740	0.209	-0.075
-407.311	174.569	0.215	0.313
-406.296	-102.379	0.082	0.020
-405.282	12.244	0.303	0.235
-404.267	-76.455	-0.178	-0.063
-403.252	29.596	0.125	-0.107
-402.238	15.219	-0.303	-0.239
-401.223	-16.284	0.081	-0.052
-400.209	800.000	0.032	-0.106
-399.194	122.228	0.238	-0.300
-398.179	-10.057	0.200	-0.133
-397.165	-117.729	-0.303	0.055
-396.150	569.703	0.019	-0.047
-395.136	-66.655	0.057	0.023
-394.121	142.367	-0.125	-0.167
-393.106	290.786	0.093	-0.170
-392.092	155.673	0.236	0.328
-391.077	-109.155	0.232	0.050
-390.063	-118.345	-0.154	0.028
-389.048	640.261	0.157	-0.403
-388.033	-110.796	-0.170	0.035
-387.019	-31.360	0.023	-0.013
-386.004	219.692	-0.065	0.104
-384.990	131.637	-0.130	-0.169
-383.975	-70.473	0.232	0.088
-382.960	800.000	-0.039	0.116
-381.946	800.000	0.109	0.304
-380.931	-200.000	-0.025	-0.242
-379.917	-57.384	-0.227	-0.100
-378.902	-200.000	0.007	0.184
-377.888	-200.000	-0.001	-0.147
-376.873	-189.473	0.013	0.000
-375.858	-92.238	0.123	-0.035
-374.844	-200.000	-0.000	-0.072
-373.829	156.016	0.138	-0.191
-372.815	570.477	0.104	0.255
-371.800	-73.094	-0.082	-0.030
-370.785	-200.000	-0.035	-0.262
-369.771	91.947	-0.042	-0.047
-368.756	-43.115	0.121	0.062
-367.742	5.891	0.048	-0.036
-366.727	495.438	-0.206	-0.475
-365.712	-200.000	0.009	0.076
-364.698	416.509	0.060	0.129
-363.683	-102.293	-0.141	0.034
-362.669	-16.243	0.046	0.029
-361.654	194.195	-0.287	0.437
-360.639	358.860	-0.196	0.394
-359.625	-200.000	-0.036	0.304
-358.610	-44.994	0.125	-0.063
-357.596	-198.001	-0.334	-0.002
-356.581	800.000	0.053	0.226
-355.566	-200.000	0.000	0.057
-354.552	-36.501	0.174	-0.094
-353.537	100.371	0.042	0.049
-352.523	-200.000	-0.017	-0.122
-351.508	-129.472	-0.455	-0.063
-350.493	45.148	-0.097	-0.089
-349.479	-9.743	-0.126	0.084
-348.464	-200.000	-0.016	0.161
-347.450	-200.000	0.030	0.279
-346.435	-141.780	-0.122	-0.012
-345.420	91.247	-0.090	-0.101
-344.406	90.342	0.201	0.226
-343.391	-200.000	-0.076	0.337
-342.377	-103.286	0.028	-0.007
-341.362	-27.079	0.133	-0.078
-340.348	189.788	0.120	-0.181
-339.333	-200.000	-0.002	0.054
-338.318	-200.000	0.030	0.207
-337.304	-43.780	0.071	-0.036
-336.289	-132.247	0.222	-0.029
-335.275	163.732	0.081	-0.115
-334.260	-200.000	0.027	0.207
-333.245	-200.000	-0.008	-0.048
-332.231	800.000	-0.060	0.227
-331.216	800.000	-0.045	-0.187
-330.202	-124.594	0.163	-0.025
-329.187	-200.000	-0.010	0.066
-328.172	339.721	0.005	0.010
-327.158	-99.446	0.137	0.035
-326.143	40.766	-0.277	-0.251
-325.129	-130.248	-0.065	0.009
-324.114	-33.448	0.197	-0.109
-323.099	-14.222	-0.053	0.034
-322.085	72.689	0.134	0.140
-321.070	-1.032	0.269	0.191
-320.056	-20.367	0.450	-0.278
-319.041	-200.000	0.030	0.160
-318.026	-85.367	0.166	-0.052
-317.012	-200.000	-0.099	-0.487
-315.997	276.829	0.035	-0.063
-314.983	474.763	0.106	-0.240
-313.968	709.158	-0.055	0.145
-312.953	718.681	-0.080	-0.212
-311.939	-200.000	0.007	-0.163
-310.924	84.787	0.023	0.025
-309.910	382.886	0.178	-0.367
-308.895	136.742	-0.032	-0.042
-307.880	42.566	-0.274	0.250
-306.866	286.263	-0.133	0.240
-305.851	9.139	-0.284	0.215
-304.837	-200.000	-0.039	-0.257
-303.822	-99.118	-0.075	0.019
-302.807	364.405	0.081	-0.164
-301.793	31.693	0.094	-0.081
-300.778	-24.505	-0.161	-0.096
-299.764	-96.506	0.231	0.061
-298.749	-10.064	0.232	-0.154
-297.735	-84.385	0.247	0.078
-296.720	-66.100	0.273	0.109
-295.705	-48.302	0.278	-0.134
-294.691	-0.802	-0.133	0.095
-293.676	800.000	-0.032	-0.127
-292.662	-86.016	-0.141	-0.044
-291.647	-200.000	-0.018	-0.156
-290.632	-85.135	-0.446	-0.140
-289.618	-79.790	0.230	-0.078
-288.603	-200.000	-0.004	0.083
-287.589	111.120	-0.113	0.137
-286.574	239.179	0.182	-0.303
-285.559	20.847	0.112	-0.091
-284.545	-9.041	-0.123	0.083
-283.530	-200.000	-0.028	-0.175
-282.516	-96.051	0.279	-0.074
-281.501	322.096	0.208	-0.397
-280.486	-136.230	0.007	0.001
-279.472	5.768	0.020	-0.015
-278.457	-72.987	-0.259	-0.095
-277.443	-80.623	0.238	0.079
-276.428	-200.000	0.046	-0.271
-275.413	-200.000	0.017	0.135
-274.399	800.000	0.044	-0.180
-273.384	43.357	0.190	0.173
-272.370	-200.000	0.024	-0.261
-271.355	109.032	-0.135	0.162
-270.340	593.058	0.054	-0.133
-269.326	-200.000	-0.017	0.078
-268.311	-57.645	0.143	0.063
-267.297	800.000	-0.098	-0.375
-266.282	603.069	-0.105	-0.262
-265.267	-63.630	0.196	-0.080
-264.253	236.184	0.058	0.097
-263.238	-200.000	-0.010	-0.312
-262.224	-147.924	-0.378	-0.032
-261.209	800.000	0.087	0.287
-260.195	-76.415	-0.236	0.083
-259.180	-200.000	0.016	0.322
-258.165	-200.000	-0.084	0.379
-257.151	71.633	0.125	-0.130
-256.136	800.000	0.062	-0.214
-255.122	43.791	-0.082	0.075
-254.107	189.769	-0.134	0.202
-253.092	206.262	0.096	0.149
-252.078	800.000	-0.040	-0.114
-251.063	292.034	0.039	-0.071
-250.049	800.000	-0.063	-0.178
-249.034	96.346	0.198	-0.226
-248.019	737.307	-0.071	-0.191
-247.005	327.419	0.088	0.169
-245.990	-200.000	0.003	0.164
-244.976	439.284	-0.030	-0.066
-243.961	477.581	0.093	0.210
-242.946	-152.510	0.180	0.013
-241.932	-89.274	-0.180	0.053
-240.917	622.500	0.121	-0.305
-239.903	-97.275	0.280	0.073
-238.888	-124.145	0.250	-0.039
-237.873	-122.216	0.381	-0.062
-236.859	-135.017	-0.133	-0.016
-235.844	50.186	0.091	0.085
-234.830	-126.141	0.207	0.031
-233.815	-100.279	-0.371	0.092
-232.800	-3.303	-0.336	-0.234
-231.786	-200.000	0.007	-0.075
-230.771	-35.246	-0.028	0.015
-229.757	-200.000	0.047	-0.406
-228.742	71.177	-0.194	-0.201
-227.727	-200.000	0.299	0.000
-226.713	139.469	-0.104	-0.137
-225.698	-118.968	0.233	-0.041
-224.684	-200.000	-0.039	-0.254
-223.669	800.000	-0.050	-0.172
-222.655	-200.000	-0.029	0.226
-221.640	-200.000	-0.001	0.025
-220.625	-35.668	0.125	0.068
-219.611	247.997	0.096	-0.162
-218.596	-200.000	0.008	0.107
-217.582	337.640	0.064	0.124
-216.567	-47.598	-0.205	-0.100
-215.552	-18.006	0.279	-0.175
-214.538	8.215	0.162	0.122
-213.523	-13.435	0.146	-0.095
-212.509	-78.095	-0.310	-0.106
-211.494	-0.740	-0.220	0.156
-210.479	800.000	-0.039	-0.120
-209.465	698.566	-0.074	-0.195
-208.450	-200.000	-0.037	-0.246
-207.436	-59.901	0.299	0.128
-206.421	-21.612	-0.173	-0.105
-205.406	-88.272	0.142	-0.043
-204.392	253.812	-0.075	0.128
-203.377	800.000	0.032	0.132
-202.363	800.000	0.082	0.356
-201.348	191.313	-0.087	0.130
-200.333	66.590	0.176	0.178
-199.319	461.514	-0.136	0.303
-198.304	-54.704	0.035	-0.016
-197.290	-49.654	0.162	-0.077
-196.275	753.462	-0.033	-0.089
-195.260	410.948	0.108	-0.228
-194.246	-200.000	-0.005	0.270
-193.231	-200.000	0.015	0.141
-192.217	14.339	-0.187	0.145
-191.202	149.777	0.203	0.275
-190.187	-200.000	-0.022	-0.169
-189.173	419.848	0.100	-0.214
-188.158	201.657	-0.126	0.194
-187.144	74.172	-0.258	0.270
-186.129	-19.650	-0.187	0.115
-185.114	-200.000	-0.001	0.155
-184.100	-13.688	-0.204	-0.131
-183.085	356.176	-0.029	-0.058
-182.071	86.437	0.207	0.228
-181.056	-200.000	0.053	0.000
-180.042	216.015	-0.172	0.272
-179.027	79.287	0.071	0.076
-178.012	370.791	-0.159	0.322
-176.998	193.244	-0.138	0.209
-175.983	-113.806	-0.321	0.062
-174.969	-74.269	0.333	0.120
-173.954	-200.000	0.073	-0.367
-172.939	266.051	0.137	0.239
-171.925	328.703	-0.104	0.199
-170.910	-26.842	-0.177	-0.103
-169.896	-35.254	-0.343	0.186
-168.881	-28.231	0.446	0.257
-167.866	-11.218	-0.296	0.194
-166.852	600.796	0.025	-0.061
-165.837	800.000	-0.053	0.223
-164.823	-81.368	-0.375	0.123
-163.808	800.000	0.025	0.090
-162.793	-200.000	-0.066	-0.296
-161.779	153.628	0.048	-0.065
-160.764	-129.420	-0.082	0.011
-159.750	-101.436	-0.435	-0.106
-158.735	579.716	-0.020	0.050
-157.720	32.814	0.104	0.089
-156.706	-139.198	0.067	-0.007
-155.691	85.543	0.116	0.127
-154.677	70.003	-0.094	0.097
-153.662	-200.000	0.023	0.121
-152.647	-200.000	0.037	-0.236
-151.633	208.636	0.077	-0.119
-150.618	41.287	0.140	-0.126
-149.604	530.399	0.084	-0.197
-148.589	-102.526	0.259	-0.062
-147.574	46.027	-0.169	-0.156
-146.560	30.300	-0.142	-0.121
-145.545	464.452	0.053	-0.117
-144.531	-33.294	0.261	-0.144
-143.516	-111.653	0.356	-0.072
-142.502	-126.834	0.091	0.013
-141.487	-200.000	0.077	0.350
-140.472	327.936	0.073	0.140
-139.458	-200.000	0.015	0.433
-138.443	664.634	-0.031	0.080
-137.429	-97.391	0.057	-0.015
-136.414	178.767	-0.227	-0.330
-135.399	-11.740	-0.362	0.237
-134.385	-50.852	0.361	0.169
-133.370	-87.119	0.339	-0.103
-132.356	-200.000	-0.024	-0.304
-131.341	-93.948	-0.625	0.171
-130.326	244.386	0.141	0.236
-129.312	-91.839	0.201	-0.057
-128.297	282.429	-0.058	0.103
-127.283	-94.385	-0.112	-0.030
-126.268	-197.034	0.267	0.002
-125.253	800.000	0.081	-0.294
-124.239	625.571	-0.063	-0.157
-123.224	800.000	0.037	-0.151
-122.210	-200.000	0.050	-0.250
-121.195	375.056	-0.106	-0.216
-120.180	108.655	-0.232	-0.276
-119.166	800.000	0.144	0.430
-118.151	800.000	-0.057	-0.168
-117.137	-200.000	-0.009	-0.097
-116.122	-200.000	-0.003	0.090
-115.107	517.067	0.064	0.149
-114.093	-67.397	0.072	-0.028
-113.078	800.000	-0.072	-0.241
-112.064	417.124	0.147	0.313
-111.049	-200.000	0.029	0.236
-110.034	800.000	-0.026	0.079
-109.020	-29.046	-0.363	-0.207
-108.005	-10.271	-0.176	0.116
-106.991	51.786	0.080	-0.076
-105.976	392.283	-0.058	-0.120
-104.962	-190.705	0.294	0.003
-103.947	800.000	-0.101	-0.420
-102.932	-86.984	-0.171	0.052
-101.918	-57.358	0.134	-0.059
-100.903	-78.074	0.491	0.168
-99.889	-101.801	-0.306	0.074
-98.874	778.540	0.076	0.205
-97.859	-118.063	0.305	-0.054
-96.845	-81.830	0.381	-0.124
-95.830	-36.558	0.061	0.032
-94.816	454.100	-0.115	-0.253
-93.801	800.000	-0.048	0.144
-92.786	-62.108	0.134	-0.056
-91.772	-50.058	0.393	-0.185
-90.757	-159.900	-0.248	0.014
-89.743	635.084	-0.061	-0.155
-88.728	706.911	0.171	-0.450
-87.713	-40.825	-0.251	-0.129
-86.699	212.749	-0.065	0.102
-85.684	800.000	0.053	0.197
-84.670	-85.705	0.147	0.045
-83.655	432.293	0.049	-0.106
-82.640	72.884	0.157	0.163
-81.626	581.000	0.037	0.089
-80.611	-200.000	-0.034	0.163
-79.597	-92.231	0.427	0.120
-78.582	19.630	-0.016	0.013
-77.567	511.173	-0.029	-0.066
-76.553	-55.850	0.215	0.095
-75.538	-200.000	0.047	-0.266
-74.524	-157.733	-0.239	-0.014
-73.509	-104.564	0.325	-0.075
-72.494	168.492	-0.341	-0.483
-71.480	-80.746	-0.065	-0.021
-70.465	-93.420	0.299	-0.082
-69.451	191.568	0.153	0.228
-68.436	-23.236	-0.312	0.187
-67.422	-23.380	0.178	-0.106
-66.407	-164.270	0.260	-0.012
-65.392	271.582	0.100	0.175
-64.378	436.916	-0.186	-0.401
-63.363	259.631	0.212	-0.364
-62.349	-102.649	-0.123	0.029
-61.334	14.098	-1.140	-0.881
-60.319	236.084	0.159	0.261
-59.305	590.318	-0.277	-0.677
-58.290	182.680	0.675	0.989
-57.276	615.003	0.509	1.266
-56.261	-200.000	82.977	506.392
-55.246	516.239	1342.476	3114.802
-54.232	150.983	2558.450	3454.449
-53.217	114.577	2202.066	2663.828
-52.203	50.062	1665.771	1560.735
-51.188	42.652	1399.586	1264.888
-50.173	39.314	1355.561	1204.655
-49.159	57.777	1396.815	1356.268
-48.144	63.230	1416.346	1409.011
-47.130	43.078	1374.737	1244.861
-46.115	39.290	1357.879	1206.378
-45.100	39.167	1353.119	1201.349
-44.086	39.049	1350.915	1198.623
-43.071	38.952	1348.780	1196.095
-42.057	38.905	1346.496	1193.732
-41.042	39.062	1344.704	1193.053
-40.027	39.089	1343.099	1191.743
-39.013	39.119	1341.531	1190.489
-37.998	39.016	1339.535	1188.046
-36.984	39.088	1337.971	1187.043
-35.969	39.310	1335.661	1186.288
-34.954	39.218	1333.856	1184.085
-33.940	39.145	1333.232	1183.044
-32.925	39.190	1331.842	1182.033
-31.911	39.301	1329.969	1180.987
-30.896	39.369	1327.986	1179.589
-29.881	39.295	1326.904	1178.140
-28.867	39.369	1325.540	1177.322
-27.852	39.364	1323.619	1175.541
-26.838	39.312	1322.389	1174.092
-25.823	39.242	1321.485	1172.828
-24.809	39.314	1319.450	1171.404
-23.794	39.213	1318.552	1169.956
-22.779	39.323	1316.617	1168.850
-21.765	39.302	1315.790	1167.942
-20.750	39.351	1314.156	1166.737
-19.736	39.168	1313.352	1164.890
-18.721	39.154	1311.621	1163.230
-17.706	39.114	1310.602	1162.041
-16.692	39.181	1309.312	1161.244
-15.677	39.025	1308.433	1159.503
-14.663	39.064	1307.837	1159.158
-13.648	39.143	1306.183	1158.111
-12.633	39.159	1305.265	1157.343
-11.619	39.096	1304.244	1156.021
-10.604	39.146	1303.100	1155.256
-9.590	39.064	1302.276	1153.996
-8.575	39.158	1301.308	1153.648
-7.560	39.166	1300.135	1152.609
-6.546	39.092	1300.004	1152.012
-5.531	39.036	1299.089	1150.830
-4.517	39.107	1298.165	1150.377
-3.502	39.244	1297.019	1150.121
-2.487	39.193	1296.213	1149.059
-1.473	39.063	1292.379	1144.861
-0.458	37.309	1276.203	1120.375
0.556	32.693	1255.336	1073.894
1.571	28.069	1258.701	1050.191
2.586	26.862	1273.250	1055.217
3.600	25.729	1262.563	1039.731
4.615	18.447	1186.395	937.244
5.629	7.045	1104.246	813.909
6.644	1.740	1080.523	769.593
7.659	1.289	1078.480	765.794
8.673	1.336	1076.260	764.391
9.688	1.187	1075.452	762.997
10.702	1.674	1074.008	764.355
11.717	8.588	1084.785	806.929
12.731	19.009	1099.951	871.183
13.746	23.527	1105.402	898.363
14.761	24.126	1105.452	901.355
15.775	23.960	1105.368	900.369
16.790	23.865	1104.262	898.907
17.804	23.808	1103.692	898.073
18.819	23.857	1103.281	897.911
19.834	23.981	1102.907	898.152
20.848	24.030	1102.386	897.893
21.863	23.993	1101.690	897.063
22.877	23.927	1101.258	896.297
23.892	23.865	1100.561	895.336
24.907	23.993	1099.863	895.334
25.921	23.889	1098.891	893.944
26.936	23.897	1097.370	892.665
27.950	23.948	1095.462	891.291
28.965	23.680	1094.025	888.701
29.980	23.838	1092.293	888.005
30.994	24.005	1091.544	888.150
32.009	23.980	1090.616	887.192
33.023	23.821	1088.909	884.937
34.038	23.838	1088.591	884.684
35.053	23.986	1088.169	884.996
36.067	23.957	1087.068	883.878
37.082	24.138	1086.077	883.896
38.096	24.234	1085.608	883.909
39.111	24.388	1084.628	883.799
40.126	24.102	1083.370	881.276
41.140	23.779	1081.909	878.414
42.155	23.614	1080.024	875.994
43.169	23.592	1079.164	875.111
44.184	23.494	1078.610	874.098
45.199	23.474	1077.465	872.997
46.213	23.609	1076.537	872.833
47.228	23.802	1075.835	873.132
48.242	23.807	1074.884	872.308
49.257	23.917	1074.389	872.371
50.271	24.087	1073.112	872.087
51.286	24.159	1072.464	871.835
52.301	24.057	1071.682	870.627
53.315	23.871	1071.049	869.127
54.330	23.851	1070.070	868.156
55.344	24.029	1068.864	867.970
56.359	23.921	1067.612	866.351
57.374	23.749	1067.097	865.016
58.388	23.794	1066.237	864.463
59.403	23.667	1065.243	862.962
60.417	23.595	1064.267	861.745
61.432	23.618	1063.938	861.515
62.447	23.789	1063.156	861.633
63.461	23.770	1062.519	860.948
64.476	23.587	1061.480	859.148
65.490	23.639	1060.085	858.191
66.505	23.833	1059.771	858.800
67.520	23.754	1059.508	858.128
68.534	23.559	1058.239	856.083
69.549	23.149	1057.025	853.051
70.563	23.176	1056.520	852.698
71.578	23.192	1055.759	852.085
72.593	23.098	1054.296	850.376
73.607	23.296	1053.851	850.893
74.622	23.452	1053.829	851.550
75.636	23.603	1052.380	851.029
76.651	23.559	1051.365	849.924
77.666	23.300	1051.558	848.760
78.680	23.450	1050.141	848.262
79.695	23.511	1049.615	848.054
80.709	23.725	1048.864	848.394
81.724	23.465	1048.467	846.753
82.739	23.512	1048.039	846.560
83.753	23.892	1047.206	847.620
84.768	24.265	1046.055	848.393
85.782	24.270	1045.330	847.755
86.797	24.224	1043.930	846.323
87.812	23.943	1043.527	844.588
88.826	24.159	1042.692	844.861
89.841	24.332	1041.407	844.568
90.855	24.166	1040.417	842.900
91.870	23.969	1040.092	841.633
92.884	24.059	1038.713	840.868
93.899	24.060	1037.476	839.795
94.914	24.272	1036.350	839.808
95.928	24.024	1035.647	837.999
96.943	23.918	1034.200	836.256
97.957	23.536	1032.863	833.306
98.972	23.457	1031.655	831.885
99.987	23.704	1031.501	832.848
101.001	24.054	1030.653	833.728
102.016	23.869	1029.730	832.041
103.030	23.801	1028.739	830.851
104.045	23.686	1027.824	829.502
105.060	23.544	1026.869	827.996
106.074	23.738	1026.070	828.182
107.089	24.012	1025.337	828.792
108.103	23.911	1024.155	827.292
109.118	23.635	1023.253	825.208
110.133	23.692	1022.009	824.397
111.147	23.472	1020.855	822.373
112.162	23.402	1019.850	821.167
113.176	23.611	1019.322	821.639
114.191	23.545	1018.351	820.476
115.206	23.332	1017.130	818.436
116.220	23.207	1016.339	817.151
117.235	23.380	1015.459	817.166
118.249	23.455	1014.720	816.845
119.264	23.225	1014.251	815.338
120.279	23.290	1013.215	814.730
121.293	23.415	1012.461	814.629
122.308	23.434	1011.396	813.788
123.322	23.460	1010.167	812.846
124.337	23.220	1009.013	810.743
125.352	22.823	1007.075	807.300
126.366	22.605	1006.394	805.688
127.381	23.357	1006.584	809.205
128.395	23.931	1005.444	810.835
129.410	24.034	1004.779	810.694
130.424	23.929	1003.694	809.270
131.439	23.899	1002.752	808.304
132.454	23.923	1001.827	807.593
133.468	23.817	1001.137	806.487
134.483	23.991	1000.546	806.726
135.497	24.112	1000.259	806.973
136.512	24.158	999.157	806.223
137.527	24.059	998.467	805.145
138.541	24.159	997.211	804.513
139.556	24.115	996.624	803.768
140.570	24.203	995.588	803.260
141.585	24.295	994.833	802.995
142.600	24.193	993.883	801.698
143.614	24.374	993.110	801.816
144.629	24.500	992.404	801.739
145.643	24.334	991.136	799.902
146.658	24.204	989.718	798.103
147.673	24.081	988.511	796.508
148.687	23.981	987.585	795.247
149.702	23.981	986.306	794.147
150.716	23.857	985.469	792.847
151.731	24.172	984.540	793.434
152.746	24.127	984.349	793.007
153.760	24.285	983.758	793.168
154.775	24.305	983.250	792.773
155.789	24.382	981.849	791.918
156.804	24.193	981.610	790.816
157.819	24.430	980.315	790.751
158.833	24.498	980.117	790.823
159.848	24.415	979.178	789.631
160.862	24.246	977.726	787.640
161.877	24.253	976.728	786.799
162.892	24.335	975.803	786.345
163.906	24.151	974.460	784.382
164.921	24.253	973.447	783.947
165.935	24.281	972.765	783.451
166.950	24.344	972.017	783.056
167.964	24.220	971.072	781.680
168.979	24.203	969.691	780.426
169.994	24.087	968.625	778.992
171.008	24.363	967.782	779.453
172.023	24.422	967.362	779.301
173.037	24.150	966.253	777.154
174.052	24.074	965.381	776.053
175.067	23.867	965.021	774.792
176.081	24.029	964.437	774.960
177.096	24.002	963.931	774.368
178.110	23.755	962.874	772.375
179.125	23.612	962.201	771.148
180.140	23.687	961.873	771.143
181.154	23.774	961.576	771.213
182.169	24.152	961.253	772.524
183.183	24.172	960.986	772.330
184.198	24.316	959.634	771.796
185.213	24.188	958.841	770.538
186.227	24.372	958.351	770.869
187.242	24.231	957.550	769.551
188.256	24.253	957.181	769.281
189.271	24.463	956.231	769.352
190.286	24.065	954.772	766.399
191.300	23.345	953.505	762.217
192.315	22.774	951.717	758.268
193.329	22.641	951.606	757.541
194.344	23.543	951.981	761.645
195.359	24.041	951.866	763.626
196.373	24.162	951.558	763.830
197.388	24.158	950.829	763.158
198.402	24.187	949.792	762.383
199.417	24.127	949.180	761.566
200.432	23.932	948.152	759.842
201.446	23.702	947.835	758.540
202.461	23.780	947.157	758.261
203.475	22.960	945.101	753.058
204.490	22.172	943.708	748.526
205.504	23.014	944.445	752.632
206.519	23.700	944.175	755.266
207.534	23.826	943.594	755.272
208.548	24.109	943.797	756.571
209.563	23.908	942.368	754.504
210.577	24.033	941.464	754.242
211.592	24.411	941.347	755.686
212.607	24.433	940.418	754.964
213.621	24.385	939.607	754.043
214.636	24.408	939.023	753.604
215.650	24.404	938.264	752.912
216.665	24.434	937.869	752.655
217.680	24.482	936.781	751.917
218.694	23.930	935.761	748.712
219.709	23.782	934.924	747.351
220.723	24.066	934.992	748.535
221.738	24.133	934.193	748.109
222.753	24.178	933.553	747.720
223.767	24.237	933.058	747.506
224.782	24.307	932.848	747.565
225.796	24.414	932.077	747.330
226.811	23.783	930.417	743.294
227.826	23.170	929.518	739.946
228.840	23.309	928.984	740.036
229.855	23.415	928.157	739.753
230.869	23.011	927.424	737.421
231.884	23.372	927.059	738.569
232.899	24.226	927.102	742.097
233.913	24.046	926.497	740.797
234.928	23.968	925.875	739.909
235.942	24.104	924.896	739.627
236.957	23.760	924.144	737.531
237.972	23.543	923.964	736.423
238.986	23.833	923.299	737.032
240.001	23.871	922.521	736.500
241.015	24.023	922.075	736.709
242.030	24.162	921.536	736.787
243.045	24.202	921.117	736.552
244.059	24.242	920.724	736.340
245.074	24.150	919.569	734.972
246.088	23.901	918.294	732.863
247.103	24.046	918.338	733.430
248.117	24.714	918.325	736.104
249.132	24.939	917.841	736.578
250.147	25.069	916.976	736.353
251.161	25.083	916.997	736.363
252.176	25.129	916.081	735.748
253.190	25.116	915.319	735.018
254.205	25.252	914.788	735.083
255.220	25.109	914.427	734.143
256.234	25.057	913.620	733.217
257.249	24.936	912.771	731.979
258.263	24.885	912.182	731.234
259.278	25.106	911.499	731.520
260.293	25.069	911.358	731.192
261.307	24.908	910.585	729.851
262.322	24.872	909.159	728.499
263.336	24.094	907.398	723.861
264.351	23.124	905.342	718.218
265.366	23.092	905.174	717.894
266.380	24.296	906.122	723.471
267.395	24.631	905.618	724.361
268.409	24.763	904.515	723.950
269.424	24.985	904.102	724.453
270.439	24.886	904.121	724.003
271.453	24.918	903.336	723.442
272.468	25.195	902.817	724.078
273.482	25.111	902.303	723.265
274.497	24.771	901.250	720.986
275.512	24.309	900.248	718.261
276.526	24.810	900.493	720.409
277.541	25.005	899.775	720.557
278.555	24.629	899.108	718.446
279.570	24.622	898.243	717.666
280.585	24.795	897.643	717.816
281.599	24.627	896.818	716.417
282.614	23.973	895.791	712.914
283.628	23.997	895.177	712.459
284.643	24.390	894.992	713.824
285.657	24.031	893.766	711.349
286.672	23.660	892.952	709.156
287.687	24.309	893.052	711.761
288.701	24.608	891.683	711.798
289.716	24.095	891.270	709.364
290.730	24.005	890.700	708.487
291.745	23.799	889.646	706.768
292.760	24.027	889.795	707.733
293.774	25.000	890.447	712.059
294.789	25.450	889.597	713.100
295.803	25.416	889.215	712.597
296.818	25.442	888.471	712.039
297.833	25.048	887.365	709.534
298.847	24.808	886.645	707.942
299.862	25.156	886.181	708.887
300.876	25.463	885.831	709.758
301.891	25.292	885.432	708.700
302.906	24.769	884.583	705.893
303.920	25.046	884.074	706.518
304.935	25.405	883.782	707.635
305.949	25.481	882.784	707.071
306.964	25.108	882.184	705.062
307.979	25.148	881.770	704.829
308.993	25.597	881.557	706.358
310.008	25.560	880.826	705.563
311.022	25.336	879.867	703.857
312.037	25.178	879.870	703.178
313.052	24.955	878.701	701.306
314.066	23.917	877.187	695.978
315.081	23.814	876.356	694.855
316.095	24.558	876.587	697.884
317.110	25.048	876.313	699.516
318.125	24.263	875.210	695.511
319.139	23.156	873.736	689.967
320.154	23.210	873.046	689.572
321.168	24.059	873.488	693.167
322.183	24.585	873.978	695.543
323.197	24.957	873.232	696.332
324.212	25.107	873.118	696.763
325.227	25.061	872.393	695.943
326.241	24.994	871.416	694.843
327.256	24.987	870.712	694.195
328.270	24.920	870.070	693.361
329.285	24.729	869.059	691.754
330.300	24.540	868.283	690.344
331.314	24.755	868.352	691.171
332.329	25.026	868.339	692.147
333.343	25.331	867.652	692.714
334.358	25.242	867.259	691.995
335.373	25.306	866.946	691.932
336.387	25.572	866.896	692.855
337.402	25.725	866.820	693.321
338.416	25.535	866.444	692.229
339.431	25.736	865.809	692.433
340.446	25.795	865.962	692.724
341.460	25.775	865.249	692.016
342.475	25.477	864.712	690.379
343.489	25.614	864.153	690.395
344.504	25.901	864.001	691.317
345.519	26.162	863.244	691.647
346.533	26.019	863.202	691.007
347.548	25.995	862.668	690.426
348.562	25.885	861.976	689.389
349.577	25.973	861.348	689.163
350.592	25.984	860.688	688.615
351.606	25.953	859.761	687.696
352.621	25.911	858.939	686.818
353.635	25.713	858.431	685.596
354.650	25.146	856.677	681.977
355.665	24.126	855.140	676.821
356.679	24.564	855.268	678.528
357.694	25.115	854.520	679.962
358.708	25.055	853.779	679.084
359.723	25.415	853.873	680.463
360.738	25.536	853.553	680.606
361.752	25.703	853.047	680.777
362.767	26.032	852.728	681.705
363.781	26.351	852.542	682.701
364.796	26.441	852.067	682.597
365.810	26.425	851.809	682.270
366.825	26.583	851.063	682.208
367.840	26.140	850.030	679.652
368.854	25.672	849.464	677.379
369.869	25.727	848.983	677.141
370.883	25.844	848.611	677.225
371.898	25.763	848.133	676.481
372.913	25.819	848.075	676.585
373.927	25.854	847.608	676.283
374.942	26.002	847.130	676.395
375.956	26.201	846.656	676.706
376.971	26.135	846.524	676.293
377.986	26.274	846.028	676.358
379.000	26.317	845.209	675.802
380.015	26.249	844.444	674.877
381.029	26.241	843.752	674.235
382.044	26.330	843.723	674.484
383.059	26.293	843.052	673.750
384.073	26.361	842.424	673.440
385.088	26.298	842.081	672.874
386.102	26.216	840.814	671.495
387.117	26.117	840.093	670.493
388.132	25.733	838.974	668.114
389.146	25.176	838.512	665.623
390.161	25.728	838.038	667.232
391.175	26.118	837.891	668.504
392.190	25.869	837.038	666.843
393.205	24.583	834.461	659.981
394.219	23.014	832.722	652.759
395.234	22.793	832.874	652.003
396.248	24.437	834.229	659.085
397.263	25.931	835.092	665.226
398.278	25.986	834.510	664.907
399.292	25.695	834.081	663.431
400.307	25.654	833.310	662.610
401.321	25.742	833.002	662.629
402.336	26.205	833.193	664.428
403.350	26.582	833.022	665.620
404.365	26.785	832.721	666.064
405.380	27.038	832.251	666.560
406.394	27.050	831.775	666.163
407.409	27.136	831.436	666.146
408.423	26.968	831.116	665.217
409.438	27.099	830.824	665.405
410.453	27.043	829.916	664.412
411.467	27.025	829.274	663.773
412.482	26.981	829.371	663.634
413.496	27.129	828.984	663.804
414.511	27.122	828.482	663.318
415.526	27.111	827.644	662.549
416.540	26.948	827.067	661.433
417.555	26.666	826.381	659.800
418.569	26.842	825.927	660.021
419.584	26.831	825.653	659.701
420.599	26.528	824.949	657.981
421.613	100.062	1272.585	1406.447
422.628	86.583	1337.812	1406.554
