DTS Sentinel unit serial number:	SN413079Multiplexer serial number:	ORYXHardware model number:	OX4-SRSoftware version number:	ORYX F/W v4.00 Oryx Data Collector v3.7.2.0data status	okinstallation	princeton_trtdifferential loss correction	single-endedforward channel	channel 1reverse channel	N/Adate	2019/09/12time	19:34:34forward acquisition time	15.00reverse acquisition time	0.00gamma	496.2192k internal	0.2322k external	0.2322temperature offset calibration	1.0130default loss term (dB/km)	0.3790temperature slope calibration	1.0000multiplexer offset coefficient	1.0000multiplexer slope coefficient	1.0000fibre end	0.00T internal ref (°C)	32.19T ext. ref 1 (°C)	3.29T ext. ref 2 (°C)	26.58length (m)	temperature (°C)	Stokes	anti-Stokes-747.200	800.000	-0.095	0.285
-746.185	325.890	-0.312	-0.603
-745.171	-10.817	0.429	-0.286
-744.156	800.000	0.147	-0.478
-743.142	163.516	-0.351	-0.498
-742.127	60.458	-0.744	-0.744
-741.112	235.762	-0.486	-0.811
-740.098	800.000	0.086	-0.334
-739.083	-200.000	0.004	-0.185
-738.069	-200.000	-0.045	0.644
-737.054	-110.015	-0.878	0.186
-736.039	250.353	-0.298	0.511
-735.025	-51.595	-0.859	0.405
-734.010	185.888	0.662	0.994
-732.996	-200.000	-0.089	0.871
-731.981	34.803	-0.300	0.265
-730.966	-200.000	0.131	0.961
-729.952	126.652	-0.088	0.113
-728.937	-6.945	0.169	0.116
-727.923	-3.334	-0.320	-0.225
-726.908	-1.481	-0.675	-0.480
-725.894	19.300	0.316	-0.257
-724.879	-200.000	0.113	-0.614
-723.864	-147.949	0.428	0.036
-722.850	104.161	0.632	-0.750
-721.835	-107.512	-0.607	-0.134
-720.821	-193.048	-0.903	-0.008
-719.806	43.272	0.280	-0.258
-718.791	800.000	-0.088	-0.254
-717.777	-200.000	0.011	-0.318
-716.762	5.600	0.521	0.389
-715.748	-50.942	0.109	0.052
-714.733	-200.000	-0.068	0.448
-713.718	800.000	0.251	-0.932
-712.704	121.134	-0.506	-0.635
-711.689	-200.000	-0.002	0.729
-710.675	172.942	0.061	-0.089
-709.660	405.977	-0.223	0.474
-708.645	174.028	0.427	0.623
-707.631	-200.000	0.020	-0.160
-706.616	-200.000	0.035	-0.690
-705.602	219.088	0.242	-0.391
-704.587	12.269	-0.168	0.131
-703.572	551.734	0.043	-0.105
-702.558	23.749	-0.164	-0.136
-701.543	800.000	0.129	0.555
-700.529	206.134	0.057	0.089
-699.514	26.088	0.633	-0.533
-698.499	276.693	-0.172	-0.308
-697.485	-125.781	1.348	0.205
-696.470	-200.000	0.150	1.137
-695.456	-200.000	0.076	-0.540
-694.441	-200.000	-0.109	-0.553
-693.426	91.186	-0.764	-0.865
-692.412	296.939	-0.186	0.344
-691.397	-121.422	0.185	-0.031
-690.383	627.291	-0.199	0.508
-689.368	267.702	0.096	-0.169
-688.354	-58.752	1.085	-0.474
-687.339	-56.697	0.706	-0.315
-686.324	184.448	-0.431	-0.644
-685.310	232.452	0.062	0.102
-684.295	435.385	-0.425	0.932
-683.281	456.769	0.222	0.498
-682.266	-102.740	0.599	0.144
-681.251	132.096	-0.406	-0.527
-680.237	-3.348	-0.673	0.473
-679.222	-200.000	-0.008	-0.120
-678.208	800.000	-0.160	0.641
-677.193	-46.908	0.594	0.293
-676.178	-191.260	-0.215	-0.002
-675.164	-108.146	0.689	0.150
-674.149	130.984	-0.217	-0.280
-673.135	-143.514	0.485	-0.047
-672.120	-200.000	-0.070	0.310
-671.105	442.983	-0.178	-0.392
-670.091	157.665	0.194	-0.270
-669.076	43.778	0.422	-0.389
-668.062	265.131	0.288	0.506
-667.047	800.000	-0.172	0.655
-666.032	62.009	-0.487	0.490
-665.018	56.420	0.451	-0.442
-664.003	126.895	-0.464	0.593
-662.989	286.592	0.112	0.205
-661.974	32.842	0.329	0.287
-660.959	-71.622	-0.546	-0.205
-659.945	433.581	0.164	0.359
-658.930	147.839	0.246	-0.334
-657.916	800.000	-0.171	-0.516
-656.901	-78.755	-0.370	-0.127
-655.886	483.222	-0.265	-0.607
-654.872	-200.000	-0.017	0.677
-653.857	188.545	0.167	0.252
-652.843	-200.000	-0.007	-0.276
-651.828	800.000	-0.284	-1.148
-650.814	9.784	-0.080	-0.061
-649.799	-18.012	-0.472	0.298
-648.784	-114.182	0.921	-0.179
-647.770	-153.787	-0.191	-0.013
-646.755	46.390	0.542	-0.506
-645.741	-200.000	0.135	0.637
-644.726	-146.168	0.402	-0.036
-643.711	86.410	-0.288	0.320
-642.697	-61.687	0.350	0.148
-641.682	-118.054	-0.879	-0.158
-640.668	50.890	-0.607	-0.579
-639.653	-104.127	0.331	-0.077
-638.638	11.348	0.481	-0.370
-637.624	34.122	0.202	0.177
-636.609	323.620	-0.457	-0.877
-635.595	343.440	0.240	-0.472
-634.580	336.881	-0.059	-0.115
-633.565	704.604	0.117	-0.312
-632.551	98.729	-0.584	0.678
-631.536	-200.000	0.074	0.475
-630.522	-182.775	0.521	0.009
-629.507	-56.982	0.770	0.342
-628.492	709.843	0.036	0.096
-627.478	-89.444	-0.487	0.144
-626.463	584.048	-0.067	0.167
-625.449	-118.980	-0.934	0.165
-624.434	800.000	0.156	0.625
-623.419	800.000	-0.027	0.082
-622.405	-82.217	-0.596	-0.195
-621.390	36.685	-0.209	-0.186
-620.376	-200.000	0.015	-0.232
-619.361	-200.000	-0.062	-0.440
-618.346	-29.638	0.593	0.341
-617.332	-170.526	-1.180	-0.041
-616.317	163.008	-0.360	-0.508
-615.303	-200.000	-0.179	-0.791
-614.288	-30.462	0.310	0.177
-613.273	800.000	-0.247	1.082
-612.259	102.983	-0.447	0.526
-611.244	234.306	-0.331	-0.548
-610.230	-34.564	-0.503	0.277
-609.215	-200.000	-0.084	0.571
-608.201	75.460	0.623	-0.660
-607.186	-104.012	0.214	-0.050
-606.171	204.243	-0.233	-0.364
-605.157	-200.000	-0.169	0.779
-604.142	26.489	0.365	0.306
-603.128	-77.073	0.361	-0.127
-602.113	105.334	0.308	0.365
-601.098	-92.267	-0.519	-0.147
-600.084	210.947	-0.642	-1.015
-599.069	-200.000	0.160	0.715
-598.055	602.483	-0.130	-0.325
-597.040	-200.000	0.037	0.277
-596.025	-200.000	-0.095	0.955
-595.011	-137.779	-0.384	0.043
-593.996	167.516	0.326	-0.466
-592.982	-200.000	-0.007	0.083
-591.967	270.038	-0.170	-0.301
-590.952	114.824	0.069	0.085
-589.938	-83.817	0.698	0.223
-588.923	-200.000	-0.007	0.261
-587.909	442.394	0.265	0.584
-586.894	50.443	0.222	0.211
-585.879	-85.025	0.314	-0.099
-584.865	126.828	-0.404	0.515
-583.850	212.129	-0.284	-0.449
-582.836	-200.000	0.072	0.676
-581.821	-55.604	-0.458	0.206
-580.806	-13.902	0.343	0.223
-579.792	-150.894	-1.194	-0.091
-578.777	-73.775	-0.772	-0.282
-577.763	800.000	-0.060	0.225
-576.748	-39.488	0.815	-0.429
-575.733	14.900	-1.086	0.853
-574.719	-119.825	0.537	0.093
-573.704	-85.015	0.650	0.205
-572.690	-55.715	0.387	-0.174
-571.675	-200.000	-0.052	-0.322
-570.661	-82.067	-0.670	0.220
-569.646	90.137	-0.279	-0.313
-568.631	68.739	-0.353	0.363
-567.617	-17.635	0.151	0.095
-566.602	68.271	-0.250	-0.256
-565.588	-56.743	0.334	0.148
-564.573	-98.779	0.874	0.223
-563.558	82.209	0.328	0.357
-562.544	-170.183	-0.496	0.018
-561.529	315.417	0.348	-0.659
-560.515	-200.000	-0.102	0.635
-559.500	4.889	-0.080	-0.059
-558.485	38.716	-0.283	-0.254
-557.471	-67.813	-0.239	0.094
-556.456	-160.056	0.619	0.034
-555.442	122.621	0.245	-0.307
-554.427	-70.456	-0.611	-0.232
-553.412	800.000	0.342	-1.138
-552.398	572.157	0.428	1.046
-551.383	99.805	-0.249	-0.289
-550.369	-21.702	0.253	0.155
-549.354	-120.197	-0.471	0.081
-548.339	-125.968	0.697	-0.105
-547.325	-146.448	-0.566	-0.050
-546.310	-32.746	0.192	-0.107
-545.296	800.000	-0.153	0.641
-544.281	279.039	0.299	-0.534
-543.266	251.046	0.297	0.507
-542.252	-82.366	0.378	0.123
-541.237	-160.329	0.627	0.034
-540.223	29.014	-0.285	0.242
-539.208	-77.256	0.077	0.027
-538.193	-32.324	-1.194	0.668
-537.179	-61.868	-1.138	0.477
-536.164	-46.969	0.893	0.437
-535.150	73.771	0.717	-0.753
-534.135	224.421	0.202	-0.327
-533.121	800.000	-0.074	0.319
-532.106	-5.083	-0.099	0.069
-531.091	-200.000	0.028	-0.976
-530.077	-13.895	0.434	-0.281
-529.062	61.028	0.396	0.394
-528.048	-200.000	0.001	-0.077
-527.033	-79.937	-0.854	0.287
-526.018	-29.422	0.074	0.043
-525.004	-200.000	-0.162	-0.893
-523.989	-53.466	-0.242	-0.111
-522.975	800.000	-0.131	0.394
-521.960	800.000	0.330	-1.003
-520.945	-70.836	0.335	0.126
-519.931	340.636	0.496	0.971
-518.916	-156.580	-0.368	0.023
-517.902	-200.000	0.195	0.931
-516.887	748.543	-0.212	0.571
-515.872	-114.718	-0.491	-0.094
-514.858	-200.000	-0.109	-0.502
-513.843	-104.404	0.323	0.075
-512.829	8.284	-0.246	0.185
-511.814	-28.572	-0.404	0.233
-510.799	-200.000	0.176	-0.871
-509.785	-200.000	0.100	-0.648
-508.770	319.144	-0.390	0.740
-507.756	-121.054	0.550	-0.092
-506.741	-50.894	-0.699	-0.329
-505.726	-200.000	-0.022	0.230
-504.712	-77.171	-0.368	0.128
-503.697	800.000	-0.056	0.187
-502.683	-200.000	-0.091	-0.625
-501.668	53.803	-0.252	-0.242
-500.653	21.393	0.730	-0.594
-499.639	-118.340	0.646	-0.115
-498.624	-93.660	0.253	-0.070
-497.610	-0.341	0.208	0.148
-496.595	-13.319	0.480	-0.312
-495.581	-74.935	0.264	0.095
-494.566	20.946	-0.431	-0.350
-493.551	596.075	0.134	0.332
-492.537	-89.168	-0.688	0.203
-491.522	-3.279	0.867	-0.604
-490.508	800.000	0.149	0.533
-489.493	624.455	0.230	0.581
-488.478	-84.428	-0.462	0.146
-487.464	-2.065	0.122	0.086
-486.449	-200.000	0.020	-0.329
-485.435	209.826	-0.133	0.209
-484.420	-200.000	0.131	0.653
-483.405	625.294	-0.228	-0.574
-482.391	556.086	-0.374	0.900
-481.376	-178.753	0.922	0.021
-480.362	-77.075	0.235	-0.082
-479.347	800.000	0.135	-0.571
-478.332	-200.000	0.009	0.479
-477.318	-200.000	0.105	0.554
-476.303	-43.138	1.117	-0.566
-475.289	-104.838	0.744	-0.171
-474.274	33.703	-0.580	-0.504
-473.259	-134.088	-0.805	0.099
-472.245	800.000	0.193	0.637
-471.230	90.614	-0.591	0.661
-470.216	800.000	-0.155	0.535
-469.201	49.777	-0.681	0.641
-468.186	-200.000	0.004	0.978
-467.172	-147.887	-0.489	-0.041
-466.157	481.580	-0.328	0.744
-465.143	-196.848	-0.509	-0.003
-464.128	-127.165	-1.003	0.147
-463.113	-108.049	0.141	0.030
-462.099	-52.177	-0.279	-0.129
-461.084	-146.144	-0.684	-0.060
-460.070	-78.204	0.160	-0.055
-459.055	196.314	-0.248	0.378
-458.040	82.432	0.160	-0.173
-457.026	-200.000	-0.043	-0.402
-456.011	-72.066	0.087	-0.032
-454.997	250.204	-0.349	-0.592
-453.982	800.000	-0.162	0.524
-452.968	40.617	0.499	-0.449
-451.953	17.139	0.222	0.176
-450.938	800.000	0.050	0.186
-449.924	-64.163	0.719	0.293
-448.909	2.659	-0.557	0.403
-447.895	153.469	-0.815	-1.114
-446.880	118.426	0.489	0.602
-445.865	-200.000	-0.015	-0.559
-444.851	1.274	0.214	-0.153
-443.836	14.121	0.911	0.709
-442.822	29.431	0.536	0.455
-441.807	329.104	-0.184	-0.352
-440.792	32.150	0.675	0.581
-439.778	-105.165	-0.241	-0.055
-438.763	151.175	-0.537	-0.730
-437.749	130.790	-0.251	-0.321
-436.734	11.866	-0.462	-0.354
-435.719	-78.307	-0.294	0.101
-434.705	-200.000	0.031	0.365
-433.690	800.000	-0.179	-0.764
-432.676	800.000	-0.299	-1.006
-431.661	-200.000	0.157	1.093
-430.646	156.127	-0.285	0.393
-429.632	433.529	0.452	-0.980
-428.617	800.000	0.219	0.649
-427.603	-200.000	0.062	-0.460
-426.588	27.065	0.387	-0.324
-425.573	-85.249	0.195	-0.061
-424.559	78.987	0.323	-0.345
-423.544	-29.226	0.736	-0.421
-422.530	-130.138	-0.303	0.041
-421.515	-78.152	0.373	-0.128
-420.500	-3.520	-0.130	0.090
-419.486	-89.637	0.415	-0.121
-418.471	-122.485	-0.530	0.086
-417.457	29.126	0.641	0.543
-416.442	-200.000	-0.107	-0.503
-415.428	-45.874	-0.119	0.059
-414.413	-106.168	0.433	0.097
-413.398	-23.373	-0.541	-0.324
-412.384	-125.031	0.167	0.026
-411.369	129.454	0.242	0.308
-410.355	195.388	0.219	0.331
-409.340	-128.624	0.211	0.030
-408.325	-29.672	0.125	-0.071
-407.311	-36.317	-0.774	-0.416
-406.296	491.756	-0.051	-0.118
-405.282	483.277	-0.154	-0.350
-404.267	-67.846	0.248	-0.097
-403.252	-155.030	0.425	0.028
-402.238	-69.681	0.564	-0.215
-401.223	255.136	-0.087	-0.148
-400.209	-119.559	0.319	-0.055
-399.194	155.547	-0.255	0.351
-398.179	414.876	0.110	0.234
-397.165	-4.604	-0.657	-0.452
-396.150	-35.521	-0.463	-0.251
-395.136	-34.338	0.726	-0.397
-394.121	-50.778	-0.229	0.108
-393.106	-126.949	-1.192	-0.175
-392.092	186.874	0.433	-0.644
-391.077	-52.397	1.294	0.597
-390.063	-200.000	-0.014	-0.085
-389.048	-82.196	-0.315	0.102
-388.033	-88.483	-0.060	-0.018
-387.019	-200.000	-0.097	-0.872
-386.004	-111.293	-0.548	-0.112
-384.990	420.483	0.077	0.165
-383.975	585.058	0.159	0.388
-382.960	110.089	0.379	0.454
-381.946	-141.138	0.418	0.043
-380.931	-126.229	0.443	0.066
-379.917	272.384	-0.367	-0.645
-378.902	800.000	-0.121	0.439
-377.888	76.074	-0.384	-0.405
-376.873	48.617	0.154	0.144
-375.858	133.820	0.161	-0.208
-374.844	-93.327	0.372	-0.103
-373.829	800.000	0.079	-0.284
-372.815	250.336	-0.274	-0.463
-371.800	59.778	-0.627	0.616
-370.785	-65.654	0.188	-0.075
-369.771	-93.342	-0.942	-0.260
-368.756	-200.000	-0.141	-0.838
-367.742	-200.000	0.024	-0.517
-366.727	118.083	0.267	0.328
-365.712	-200.000	0.054	-0.870
-364.698	35.187	0.355	-0.310
-363.683	205.057	0.236	0.364
-362.669	268.807	-0.347	0.606
-361.654	-87.351	0.375	0.113
-360.639	36.967	-0.570	-0.502
-359.625	-106.010	0.188	0.042
-358.610	-200.000	-0.071	-0.521
-357.596	47.149	0.397	0.368
-356.581	132.862	0.329	-0.423
-355.566	50.115	0.608	-0.571
-354.552	-200.000	0.044	-0.382
-353.537	120.397	0.242	-0.300
-352.523	306.374	-0.184	0.342
-351.508	800.000	-0.165	-0.669
-350.493	-54.711	-0.562	0.253
-349.479	-200.000	0.043	0.287
-348.464	-200.000	-0.077	-0.544
-347.450	-155.890	-0.807	0.051
-346.435	-43.086	0.538	0.271
-345.420	-101.512	-0.169	-0.041
-344.406	725.321	-0.302	0.801
-343.391	-114.357	1.047	0.200
-342.377	-142.075	0.280	-0.028
-341.362	-164.542	-1.086	0.049
-340.348	236.755	-0.155	0.255
-339.333	528.843	-0.400	-0.939
-338.318	173.084	-0.711	-1.019
-337.304	169.795	0.277	-0.393
-336.289	32.767	-0.441	-0.380
-335.275	341.785	-0.315	-0.612
-334.260	39.268	0.574	-0.510
-333.245	-23.303	-0.771	0.461
-332.231	601.674	0.282	-0.696
-331.216	23.288	-0.393	0.321
-330.202	-115.950	-0.231	-0.043
-329.187	39.475	-0.962	0.857
-328.172	-140.290	0.271	0.028
-327.158	-62.736	-0.223	0.092
-326.143	40.499	0.303	-0.271
-325.129	568.278	0.116	-0.280
-324.114	-200.000	0.099	0.693
-323.099	185.206	-0.300	-0.443
-322.085	99.400	-0.257	-0.295
-321.070	58.993	0.452	-0.441
-320.056	-7.644	0.263	-0.177
-319.041	-97.992	-0.422	-0.108
-318.026	-200.000	0.104	-0.507
-317.012	800.000	0.133	-0.461
-315.997	-200.000	-0.130	0.846
-314.983	-22.688	0.558	0.335
-313.968	25.171	-0.326	0.269
-312.953	-97.355	0.331	-0.086
-311.939	-200.000	-0.011	0.640
-310.924	-102.362	-0.124	-0.030
-309.910	29.128	-0.449	0.379
-308.895	295.101	0.492	-0.894
-307.880	79.104	0.230	-0.245
-306.866	800.000	-0.103	-0.362
-305.851	522.961	-0.089	0.208
-304.837	-150.452	0.920	-0.070
-303.822	-0.698	-0.288	-0.203
-302.807	-85.373	-0.584	-0.181
-301.793	-152.233	1.389	0.100
-300.778	-100.006	1.058	-0.262
-299.764	2.122	-0.617	-0.443
-298.749	-120.850	-0.454	-0.076
-297.735	169.035	-0.242	-0.342
-296.720	-17.531	-0.539	-0.337
-295.705	-69.985	1.095	0.414
-294.691	396.673	-0.545	1.130
-293.676	-5.271	-0.532	-0.363
-292.662	-66.820	-0.209	0.082
-291.647	673.374	-0.248	0.640
-290.632	-200.000	-0.097	-0.474
-289.618	3.657	0.471	-0.341
-288.603	-99.127	0.561	0.141
-287.589	-200.000	0.035	0.262
-286.574	108.736	-0.419	-0.497
-285.559	-170.649	0.732	0.025
-284.545	-200.000	-0.043	0.308
-283.530	800.000	0.259	0.963
-282.516	-141.211	0.444	0.045
-281.501	800.000	-0.102	0.361
-280.486	-200.000	0.123	0.688
-279.472	105.183	0.390	-0.457
-278.457	-200.000	-0.117	0.766
-277.443	-125.158	-0.557	0.085
-276.428	-200.000	0.038	-0.660
-275.413	12.860	0.578	0.443
-274.399	-188.495	-0.632	-0.008
-273.384	25.025	0.461	0.380
-272.370	-200.000	0.008	-0.393
-271.355	78.269	-0.244	0.258
-270.340	224.509	0.225	-0.360
-269.326	16.009	0.476	0.372
-268.311	-200.000	-0.057	-0.279
-267.297	-1.837	-0.428	0.299
-266.282	3.318	0.344	0.249
-265.267	248.956	-0.428	0.719
-264.253	-127.952	-0.412	0.059
-263.238	-200.000	0.103	-0.679
-262.224	-200.000	0.041	0.845
-261.209	36.949	0.543	-0.476
-260.195	16.678	-0.756	0.593
-259.180	-89.692	-0.976	-0.284
-258.165	72.478	-0.336	-0.348
-257.151	800.000	0.117	0.437
-256.136	-200.000	0.061	0.372
-255.122	-84.580	-0.545	0.170
-254.107	-200.000	-0.028	0.161
-253.092	510.347	0.225	0.520
-252.078	-151.567	0.773	0.057
-251.063	152.624	-0.195	0.264
-250.049	-200.000	-0.043	-0.209
-249.034	-139.943	0.913	0.096
-248.019	-70.184	-0.983	-0.370
-247.005	-200.000	0.056	0.734
-245.990	800.000	0.061	0.261
-244.976	-131.768	-0.299	-0.039
-243.961	255.591	0.511	-0.868
-242.946	-32.921	0.507	0.279
-241.932	-46.077	0.057	0.028
-240.917	69.599	0.704	-0.719
-239.903	306.698	0.360	0.664
-238.888	77.106	-0.107	-0.112
-237.873	765.550	-0.112	-0.302
-236.859	-145.800	0.872	0.077
-235.844	-136.881	0.149	-0.017
-234.830	299.633	-0.118	0.215
-233.815	73.246	0.391	0.406
-232.800	-42.481	-0.923	0.466
-231.786	800.000	0.203	0.633
-230.771	-39.281	-0.849	-0.442
-229.757	101.219	0.275	0.317
-228.742	-29.939	-0.524	-0.296
-227.727	24.821	-0.300	-0.246
-226.713	-200.000	-0.023	0.235
-225.698	-57.710	0.440	0.191
-224.684	-200.000	-0.080	0.682
-223.669	-200.000	0.062	0.356
-222.655	-200.000	0.052	0.755
-221.640	-71.306	0.340	0.126
-220.625	-45.529	0.162	-0.079
-219.611	-124.849	0.564	0.086
-218.596	-200.000	-0.072	0.618
-217.582	310.409	0.430	0.796
-216.567	-200.000	0.049	0.319
-215.552	-37.507	0.418	-0.221
-214.538	125.877	0.197	-0.247
-213.523	43.650	0.552	-0.499
-212.509	-200.000	0.057	-0.249
-211.494	-22.565	0.139	-0.083
-210.479	800.000	-0.035	-0.144
-209.465	-179.672	0.656	-0.014
-208.450	-57.313	0.564	0.245
-207.436	265.804	0.182	-0.314
-206.421	30.901	-0.437	-0.371
-205.406	-200.000	0.032	-0.583
-204.392	-1.841	-0.229	-0.160
-203.377	-200.000	0.054	-0.676
-202.363	-200.000	0.021	0.485
-201.348	-140.076	0.472	0.049
-200.333	-13.067	0.248	0.159
-199.319	-28.087	-0.592	-0.339
-198.304	85.551	-0.679	-0.737
-197.290	12.206	-0.341	0.260
-196.275	238.518	0.321	0.527
-195.260	601.526	0.100	-0.245
-194.246	-113.482	0.538	-0.104
-193.231	25.577	0.176	0.145
-192.217	-25.826	0.686	-0.400
-191.202	68.528	0.308	-0.312
-190.187	35.482	0.215	-0.186
-189.173	19.651	-0.559	0.445
-188.158	-123.253	-0.316	-0.050
-187.144	4.648	-0.289	0.210
-186.129	-200.000	-0.069	-0.585
-185.114	582.746	-0.164	-0.399
-184.100	-200.000	-0.162	0.839
-183.085	79.649	-0.441	-0.468
-182.071	-200.000	-0.012	-0.559
-181.056	-157.971	-0.932	0.054
-180.042	6.179	-0.214	0.157
-179.027	-59.520	-0.847	0.360
-178.012	-10.196	0.348	-0.228
-176.998	22.667	0.358	-0.289
-175.983	-52.799	0.412	0.188
-174.969	39.987	0.289	0.257
-173.954	-85.774	0.235	0.072
-172.939	-84.371	-0.563	0.176
-171.925	-140.326	-0.395	-0.041
-170.910	-200.000	0.059	-0.298
-169.896	-157.173	-0.838	-0.050
-168.881	800.000	-0.200	-0.742
-167.866	9.820	-1.045	-0.784
-166.852	-146.792	-0.442	-0.038
-165.837	194.791	-0.898	1.347
-164.823	-107.365	1.060	0.230
-163.808	123.974	0.132	-0.164
-162.793	-67.924	0.563	-0.217
-161.779	507.307	-0.335	0.767
-160.764	-97.465	-0.562	-0.144
-159.750	-132.723	-0.138	-0.017
-158.735	183.815	0.388	-0.567
-157.720	-42.807	0.717	0.360
-156.706	-20.449	0.244	-0.148
-155.691	92.962	0.303	-0.338
-154.677	398.886	0.106	-0.220
-153.662	8.965	0.545	-0.406
-152.647	-31.480	0.170	0.094
-151.633	575.489	0.180	-0.433
-150.618	132.699	0.367	0.467
-149.604	61.037	-0.110	-0.108
-148.589	-82.751	0.653	0.208
-147.574	618.639	0.056	-0.138
-146.560	-70.982	0.283	-0.105
-145.545	-54.590	0.596	-0.266
-144.531	-164.206	-0.247	0.011
-143.516	170.888	-0.519	-0.735
-142.502	800.000	0.182	0.601
-141.487	-17.504	0.141	0.088
-140.472	-200.000	-0.040	-0.235
-139.458	545.707	-0.267	-0.631
-138.443	-130.556	0.832	-0.111
-137.429	-200.000	-0.084	-0.461
-136.414	-56.802	-0.164	-0.072
-135.399	-74.842	0.486	0.172
-134.385	39.160	-0.457	-0.403
-133.370	82.696	-0.480	-0.514
-132.356	-41.383	-0.407	0.207
-131.341	88.771	-0.435	0.477
-130.326	-11.253	0.420	-0.273
-129.312	-200.000	-0.094	-0.957
-128.297	800.000	-0.087	0.277
-127.283	445.166	0.160	0.347
-126.268	60.134	0.531	0.518
-125.253	346.857	0.278	0.540
-124.239	-200.000	0.087	0.740
-123.224	566.241	0.042	-0.100
-122.210	-17.097	-0.862	-0.537
-121.195	-63.833	0.462	-0.187
-120.180	-137.869	-1.156	-0.128
-119.166	-200.000	-0.057	0.733
-118.151	-23.903	0.538	-0.318
-117.137	-170.592	0.984	0.034
-116.122	82.182	0.632	0.676
-115.107	-200.000	-0.062	0.757
-114.093	124.689	0.363	0.451
-113.078	-163.347	-0.444	0.021
-112.064	25.500	-0.300	-0.246
-111.049	191.187	-0.490	0.727
-110.034	-77.949	0.239	-0.081
-109.020	119.461	0.085	0.103
-108.005	-113.578	0.246	0.047
-106.991	-200.000	-0.100	-0.792
-105.976	182.274	0.379	-0.550
-104.962	-200.000	-0.017	-0.770
-103.947	-106.923	-1.033	-0.225
-102.932	37.829	-0.502	-0.439
-101.918	-200.000	-0.064	0.352
-100.903	439.043	-0.513	1.103
-99.889	-115.858	0.623	-0.115
-98.874	68.616	0.038	-0.038
-97.859	-141.290	-0.302	0.030
-96.845	724.917	-0.084	0.221
-95.830	-39.059	-0.481	0.249
-94.816	-114.232	-0.166	0.032
-93.801	195.139	0.281	-0.421
-92.786	-18.799	-0.868	-0.533
-91.772	-142.005	0.201	0.020
-90.757	-124.550	0.776	-0.119
-89.743	800.000	-0.065	-0.204
-88.728	-30.824	-0.630	0.351
-87.713	-133.338	-0.624	0.077
-86.699	761.907	0.146	-0.391
-85.684	284.938	0.086	0.153
-84.670	800.000	0.152	-0.581
-83.655	-36.854	-0.460	-0.243
-82.640	-111.826	0.662	-0.132
-81.626	-92.570	-0.592	-0.164
-80.611	-200.000	0.133	-0.783
-79.597	-133.459	0.337	-0.042
-78.582	-66.387	-0.236	-0.092
-77.567	800.000	-0.080	0.242
-76.553	-64.664	0.708	-0.283
-75.538	-132.833	0.668	-0.084
-74.524	30.737	0.605	0.510
-73.509	-147.582	-0.350	0.029
-72.494	-88.062	-0.245	0.073
-71.480	-155.057	-0.532	-0.034
-70.465	-75.964	-1.008	-0.351
-69.451	-200.000	-0.027	0.158
-68.436	-157.614	0.414	0.024
-67.422	222.467	0.274	0.434
-66.407	-187.272	0.331	-0.004
-65.392	-200.000	-0.300	1.406
-64.378	25.400	-0.288	0.236
-63.363	85.651	0.639	-0.691
-62.349	-50.918	-0.525	0.242
-61.334	-97.753	-1.065	-0.271
-60.319	-108.921	0.814	-0.171
-59.305	-200.000	-0.084	-0.393
-58.290	639.539	0.392	0.981
-57.276	410.501	0.924	1.927
-56.261	-200.000	95.445	599.423
-55.246	672.593	1354.574	3454.532
-54.232	204.210	2519.498	3839.723
-53.217	120.256	2119.093	2586.882
-52.203	44.305	1588.577	1434.032
-51.188	35.620	1331.016	1149.798
-50.173	32.481	1289.282	1095.469
-49.159	55.928	1339.870	1278.023
-48.144	57.219	1355.289	1300.319
-47.130	35.791	1313.637	1135.614
-46.115	32.373	1295.158	1099.660
-45.100	32.167	1290.679	1094.611
-44.086	32.068	1288.851	1092.441
-43.071	32.000	1285.890	1089.493
-42.057	32.243	1283.586	1088.909
-41.042	31.853	1282.870	1085.998
-40.027	32.256	1280.869	1086.592
-39.013	32.187	1278.364	1084.024
-37.998	32.058	1276.308	1081.496
-36.984	32.189	1273.930	1080.189
-35.969	32.210	1272.376	1078.951
-34.954	32.286	1272.047	1079.066
-33.940	31.964	1271.487	1076.699
-32.925	32.493	1268.389	1077.060
-31.911	32.248	1267.828	1075.138
-30.896	32.212	1265.740	1073.123
-29.881	32.082	1265.306	1071.968
-28.867	32.248	1263.870	1071.658
-27.852	32.172	1263.017	1070.456
-26.838	32.676	1260.584	1071.216
-25.823	32.261	1258.883	1067.374
-24.809	32.152	1258.692	1066.549
-23.794	32.194	1256.855	1065.187
-22.779	32.549	1254.874	1065.479
-21.765	32.274	1254.737	1063.765
-20.750	32.264	1252.839	1062.053
-19.736	31.877	1252.826	1059.813
-18.721	32.159	1250.911	1059.746
-17.706	32.356	1249.736	1059.819
-16.692	32.050	1248.355	1056.884
-15.677	32.096	1248.345	1057.092
-14.663	32.352	1245.042	1055.686
-13.648	32.112	1245.837	1054.971
-12.633	32.039	1245.111	1053.904
-11.619	32.002	1244.646	1053.264
-10.604	32.235	1242.321	1052.559
-9.590	32.294	1240.963	1051.698
-8.575	32.241	1239.633	1050.232
-7.560	32.088	1239.820	1049.492
-6.546	32.085	1239.279	1048.977
-5.531	31.894	1237.597	1046.442
-4.517	32.119	1237.119	1047.252
-3.502	31.978	1235.402	1044.973
-2.487	31.962	1235.986	1045.336
-1.473	32.208	1230.159	1041.732
-0.458	30.441	1216.262	1020.227
0.556	27.925	1199.297	981.118
1.571	24.050	1203.095	963.217
2.586	23.017	1218.546	969.836
3.600	22.556	1207.695	958.606
4.615	17.061	1135.276	872.864
5.629	7.421	1060.991	769.136
6.644	3.649	1040.604	736.332
7.659	3.066	1038.911	732.290
8.673	3.138	1036.432	730.822
9.688	3.308	1034.885	730.472
10.702	3.518	1033.619	730.506
11.717	9.274	1042.722	764.312
12.731	18.584	1055.435	818.175
13.746	23.532	1061.448	846.438
14.761	24.339	1062.166	850.787
15.775	24.274	1060.301	848.909
16.790	23.565	1059.455	844.782
17.804	23.303	1058.907	843.019
18.819	23.140	1058.663	841.976
19.834	23.625	1057.820	843.537
20.848	23.371	1057.930	842.345
21.863	23.718	1057.135	843.285
22.877	23.605	1055.942	841.720
23.892	23.216	1055.456	839.417
24.907	23.052	1054.645	837.917
25.921	22.884	1052.757	835.551
26.936	22.973	1052.111	835.384
27.950	22.819	1050.846	833.580
28.965	23.004	1047.861	832.009
29.980	23.256	1047.281	832.660
30.994	23.315	1046.936	832.587
32.009	23.376	1045.649	831.779
33.023	23.234	1044.995	830.515
34.038	23.300	1043.958	829.928
35.053	23.064	1043.594	828.463
36.067	22.957	1042.199	826.777
37.082	22.868	1041.782	825.957
38.096	23.075	1041.639	826.740
39.111	23.220	1040.346	826.317
40.126	22.674	1039.907	823.349
41.140	22.856	1036.532	821.450
42.155	22.612	1036.473	820.196
43.169	22.503	1035.423	818.783
44.184	22.948	1033.494	819.251
45.199	22.488	1032.708	816.422
46.213	22.779	1032.659	817.662
47.228	23.328	1032.276	819.827
48.242	23.173	1032.167	818.953
49.257	23.313	1031.266	818.810
50.271	23.563	1030.065	818.939
51.286	23.811	1028.684	818.912
52.301	23.661	1029.268	818.612
53.315	23.450	1027.144	815.878
54.330	23.354	1025.783	814.287
55.344	22.857	1026.512	812.508
56.359	23.272	1024.169	812.485
57.374	22.952	1023.983	810.796
58.388	22.737	1023.470	809.331
59.403	22.846	1022.151	808.716
60.417	22.965	1020.316	807.736
61.432	22.854	1020.101	806.989
62.447	22.849	1018.943	805.976
63.461	22.558	1019.451	804.982
64.476	22.886	1016.990	804.459
65.490	22.365	1017.603	802.499
66.505	22.510	1017.319	802.866
67.520	22.816	1015.874	803.045
68.534	22.474	1014.602	800.417
69.549	22.445	1013.940	799.691
70.563	22.048	1013.209	797.240
71.578	22.156	1010.751	795.726
72.593	21.774	1011.245	794.315
73.607	21.836	1010.291	793.776
74.622	22.287	1009.194	794.882
75.636	21.999	1010.214	794.311
76.651	22.095	1008.980	793.706
77.666	22.624	1008.065	795.300
78.680	22.420	1007.708	794.032
79.695	22.340	1006.114	792.341
80.709	22.332	1006.780	792.761
81.724	22.688	1005.891	793.592
82.739	23.031	1004.841	794.235
83.753	22.938	1005.154	793.993
84.768	23.680	1003.828	796.205
85.782	23.824	1003.508	796.525
86.797	23.821	1002.441	795.597
87.812	23.445	1002.799	794.125
88.826	23.239	1001.557	792.148
89.841	23.508	999.760	791.859
90.855	23.970	997.958	792.420
91.870	23.492	999.522	791.459
92.884	23.668	996.873	790.076
93.899	23.366	996.254	788.173
94.914	23.441	996.123	788.331
95.928	23.667	993.595	787.263
96.943	23.540	992.593	785.838
97.957	23.409	992.557	785.161
98.972	23.255	991.774	783.790
99.987	23.387	990.931	783.639
101.001	22.915	990.781	781.360
102.016	23.307	989.612	782.101
103.030	23.431	988.299	781.545
104.045	23.693	987.236	781.787
105.060	23.327	987.256	780.120
106.074	23.204	984.998	777.726
107.089	22.973	984.817	776.501
108.103	22.852	983.898	775.177
109.118	22.790	982.180	773.481
110.133	22.739	980.479	771.851
111.147	22.425	979.851	769.918
112.162	22.018	979.508	767.801
113.176	22.738	978.778	770.303
114.191	22.916	977.887	770.310
115.206	22.802	977.835	769.704
116.220	22.423	977.439	767.671
117.235	22.638	975.072	766.681
118.249	22.502	973.739	764.973
119.264	22.270	973.950	764.066
120.279	22.168	972.481	762.404
121.293	22.140	970.542	760.695
122.308	21.872	972.144	760.719
123.322	21.659	970.833	758.702
124.337	21.590	969.495	757.294
125.352	22.007	967.974	757.836
126.366	22.114	967.597	757.940
127.381	22.103	967.404	757.670
128.395	22.681	965.974	758.970
129.410	22.405	965.302	757.189
130.424	22.418	964.768	756.762
131.439	22.956	963.506	758.014
132.454	22.772	962.562	756.414
133.468	22.807	962.067	756.111
134.483	22.668	962.417	755.720
135.497	23.061	960.447	755.790
136.512	23.105	959.103	754.849
137.527	22.676	959.146	752.987
138.541	22.982	957.662	753.058
139.556	22.907	957.389	752.460
140.570	22.968	957.800	752.974
141.585	23.456	956.636	754.069
142.600	23.733	954.676	753.632
143.614	23.742	954.893	753.774
144.629	23.644	955.625	753.869
145.643	23.263	954.159	751.030
146.658	23.377	950.809	748.809
147.673	22.899	951.142	746.984
148.687	23.205	949.645	747.036
149.702	23.233	948.969	746.556
150.716	22.483	949.817	743.991
151.731	23.026	947.229	744.185
152.746	23.197	946.524	744.282
153.760	23.284	946.013	744.179
154.775	23.571	944.629	744.229
155.789	23.463	944.491	743.602
156.804	23.076	944.445	741.877
157.819	23.187	944.712	742.485
158.833	23.258	943.896	742.076
159.848	23.984	942.313	743.803
160.862	23.717	941.869	742.272
161.877	23.226	939.171	738.035
162.892	22.816	939.418	736.455
163.906	22.887	937.533	735.204
164.921	22.792	936.750	734.129
165.935	22.888	935.342	733.361
166.950	22.981	936.043	734.230
167.964	23.086	934.743	733.585
168.979	22.991	933.706	732.309
169.994	23.449	930.783	731.843
171.008	23.341	931.996	732.289
172.023	23.343	930.910	731.378
173.037	23.507	931.515	732.464
174.052	23.359	929.427	730.148
175.067	23.499	927.884	729.446
176.081	22.599	928.548	726.200
177.096	22.730	927.409	725.785
178.110	22.723	926.127	724.686
179.125	22.629	925.852	724.022
180.140	22.585	926.716	724.451
181.154	22.929	925.457	724.816
182.169	23.498	924.928	726.671
183.183	23.243	925.196	725.772
184.198	23.283	923.638	724.650
185.213	23.246	923.410	724.254
186.227	23.019	922.769	722.760
187.242	23.133	922.260	722.763
188.256	23.450	922.024	723.807
189.271	23.861	919.875	723.728
190.286	23.184	920.259	721.211
191.300	22.670	918.068	717.340
192.315	22.447	916.562	715.194
193.329	22.476	916.762	715.403
194.344	22.828	917.293	717.184
195.359	23.171	915.986	717.492
196.373	23.000	916.016	716.758
197.388	23.492	916.237	718.863
198.402	24.004	915.310	720.144
199.417	24.023	915.678	720.446
200.432	24.107	914.079	719.462
201.446	24.071	914.018	719.208
202.461	23.792	914.030	718.027
203.475	23.634	912.709	716.287
204.490	22.956	911.602	712.622
205.504	23.090	911.380	712.924
206.519	23.227	910.545	712.760
207.534	23.120	910.384	712.141
208.548	23.155	909.192	711.286
209.563	23.641	907.829	712.106
210.577	23.464	908.085	711.534
211.592	23.900	907.773	712.976
212.607	24.563	905.678	713.919
213.621	23.602	906.460	710.625
214.636	23.676	906.227	710.674
215.650	23.821	903.381	708.958
216.665	23.890	903.713	709.434
217.680	23.858	903.041	708.714
218.694	23.806	902.368	707.918
219.709	23.572	901.784	706.463
220.723	23.365	900.380	704.478
221.738	23.581	899.408	704.512
222.753	23.152	899.729	703.001
223.767	23.503	900.164	704.671
224.782	23.756	899.760	705.295
225.796	23.697	899.251	704.600
226.811	23.254	898.615	702.285
227.826	23.122	897.525	700.845
228.840	23.421	895.254	700.192
229.855	23.056	895.613	698.968
230.869	23.113	894.671	698.397
231.884	23.369	893.959	698.791
232.899	23.281	893.909	698.341
233.913	22.908	892.973	696.077
234.928	22.733	892.970	695.326
235.942	22.784	891.598	694.395
236.957	22.966	890.478	694.178
237.972	23.080	890.235	694.376
238.986	22.978	889.255	693.149
240.001	22.867	889.148	692.568
241.015	22.906	887.906	691.692
242.030	22.962	888.395	692.231
243.045	23.297	887.070	692.447
244.059	23.249	886.808	691.994
245.074	23.438	886.402	692.356
246.088	23.401	886.381	692.131
247.103	23.828	885.803	693.288
248.117	24.078	885.195	693.725
249.132	24.489	885.345	695.383
250.147	24.704	885.008	695.892
251.161	24.642	884.780	695.408
252.176	24.805	884.176	695.505
253.190	24.802	883.768	695.114
254.205	24.655	883.316	694.127
255.220	24.508	881.820	692.317
256.234	24.691	881.325	692.576
257.249	24.302	881.591	691.217
258.263	23.982	880.491	689.053
259.278	24.566	878.799	689.924
260.293	24.782	878.250	690.267
261.307	24.821	878.168	690.291
262.322	24.528	876.926	688.125
263.336	24.637	877.264	688.749
264.351	24.075	875.759	685.345
265.366	24.320	875.566	686.077
266.380	24.829	874.793	687.365
267.395	24.362	874.126	684.989
268.409	24.402	874.188	685.131
269.424	24.160	873.597	683.677
270.439	24.188	873.078	683.317
271.453	24.177	871.707	682.142
272.468	24.472	871.670	683.182
273.482	24.159	871.079	681.461
274.497	24.486	869.990	681.799
275.512	24.300	869.214	680.420
276.526	24.263	869.143	680.163
277.541	24.537	868.217	680.420
278.555	24.646	867.901	680.529
279.570	24.909	868.073	681.605
280.585	24.557	866.523	678.992
281.599	24.311	865.995	677.581
282.614	23.908	865.312	675.456
283.628	24.359	864.154	676.204
284.643	24.188	863.944	675.333
285.657	23.939	863.294	673.819
286.672	23.907	862.872	673.311
287.687	24.194	862.632	674.151
288.701	24.021	862.237	673.125
289.716	24.062	861.729	672.826
290.730	24.118	861.079	672.469
291.745	24.175	860.192	671.932
292.760	24.440	860.125	672.820
293.774	24.556	859.933	673.048
294.789	25.091	858.270	673.698
295.803	24.609	856.536	670.468
296.818	24.469	857.488	670.629
297.833	24.311	856.223	668.986
298.847	24.409	855.520	668.746
299.862	24.501	855.516	669.027
300.876	24.703	855.364	669.609
301.891	24.839	854.721	669.555
302.906	25.254	853.742	670.279
303.920	25.087	853.704	669.566
304.935	25.300	853.407	670.069
305.949	25.032	851.932	667.852
306.964	24.337	852.313	665.499
307.979	24.254	851.135	664.209
308.993	24.589	850.502	664.906
310.008	24.931	849.646	665.450
311.022	24.946	849.010	664.948
312.037	24.539	849.221	663.543
313.052	23.888	848.598	660.577
314.066	23.910	846.747	659.160
315.081	24.172	846.644	659.993
316.095	24.184	846.090	659.546
317.110	24.153	845.810	659.155
318.125	24.222	844.179	658.083
319.139	24.020	844.196	657.291
320.154	23.668	843.940	655.735
321.168	24.068	843.815	657.054
322.183	24.057	842.529	655.954
323.197	23.674	843.255	655.047
324.212	24.174	841.846	655.737
325.227	24.324	841.299	655.806
326.241	23.976	840.386	653.757
327.256	24.174	839.978	654.110
328.270	23.761	839.477	652.146
329.285	23.504	838.647	650.501
330.300	23.802	837.598	650.722
331.314	24.036	837.279	651.271
332.329	24.032	837.547	651.407
333.343	24.513	837.483	653.059
334.358	24.648	836.605	652.810
335.373	24.285	836.928	651.679
336.387	24.530	836.262	651.998
337.402	24.514	837.045	652.490
338.416	24.684	836.605	652.710
339.431	25.099	836.680	654.228
340.446	25.176	835.068	653.189
341.460	25.338	835.470	654.036
342.475	25.298	835.714	654.023
343.489	25.565	835.744	654.962
344.504	25.534	834.682	653.959
345.519	25.485	833.410	652.725
346.533	25.526	832.375	652.006
347.548	24.960	832.611	650.078
348.562	24.877	831.350	648.736
349.577	24.883	830.467	648.011
350.592	24.994	830.714	648.549
351.606	24.692	829.141	646.173
352.621	24.501	828.185	644.679
353.635	24.307	828.996	644.554
354.650	24.572	826.988	643.889
355.665	24.606	825.969	643.161
356.679	25.145	825.829	644.934
357.694	24.919	825.688	643.956
358.708	24.664	825.135	642.553
359.723	24.648	823.880	641.460
360.738	24.642	823.153	640.815
361.752	24.696	823.258	641.035
362.767	24.985	823.605	642.282
363.781	25.556	822.530	643.432
364.796	25.495	822.496	643.130
365.810	25.490	822.649	643.176
366.825	25.242	822.081	641.787
367.840	25.217	821.252	640.992
368.854	25.483	819.905	640.833
369.869	24.666	820.158	638.060
370.883	25.093	819.654	639.136
371.898	25.364	819.316	639.781
372.913	25.077	819.019	638.470
373.927	24.821	819.602	637.954
374.942	24.846	818.074	636.797
375.956	25.250	817.987	638.109
376.971	25.501	817.143	638.286
377.986	25.562	816.434	637.895
379.000	25.650	816.418	638.138
380.015	25.381	815.695	636.561
381.029	25.590	814.684	636.456
382.044	25.446	814.469	635.724
383.059	25.662	813.524	635.693
384.073	25.502	812.997	634.659
385.088	24.959	811.501	631.522
386.102	25.182	811.047	631.896
387.117	24.982	810.677	630.850
388.132	25.004	810.627	630.832
389.146	25.242	809.521	630.753
390.161	25.711	809.289	632.163
391.175	25.808	808.966	632.196
392.190	25.306	808.949	630.363
393.205	25.059	806.874	627.825
394.219	25.050	806.625	627.544
395.234	24.227	806.870	624.798
396.248	24.420	806.399	625.052
397.263	24.670	805.552	625.215
398.278	24.688	805.214	624.960
399.292	24.735	805.027	624.924
400.307	24.721	804.719	624.580
401.321	24.757	803.455	623.670
402.336	24.856	804.204	624.541
403.350	25.280	803.661	625.543
404.365	25.036	804.054	624.943
405.380	25.611	803.640	626.568
406.394	25.673	802.941	626.185
407.409	25.848	802.897	626.704
408.423	25.889	802.316	626.335
409.438	26.043	801.920	626.508
410.453	25.566	802.026	624.879
411.467	25.545	801.122	624.046
412.482	25.932	800.212	624.623
413.496	26.234	799.617	625.148
414.511	26.122	799.322	624.475
415.526	25.803	799.377	623.360
416.540	25.877	799.126	623.363
417.555	25.765	799.018	622.838
418.569	25.643	798.144	621.679
419.584	25.756	797.882	621.810
420.599	25.708	797.460	621.260
421.613	161.475	1370.375	1793.163
422.628	140.102	1453.882	1793.191
