DTS Sentinel unit serial number:	SN413079Multiplexer serial number:	ORYXHardware model number:	OX4-SRSoftware version number:	ORYX F/W v4.00 Oryx Data Collector v3.7.2.0data status	okinstallation	princeton_trtdifferential loss correction	single-endedforward channel	channel 1reverse channel	N/Adate	2019/09/14time	00:42:35forward acquisition time	60.00reverse acquisition time	0.00gamma	496.2192k internal	0.2337k external	0.2337temperature offset calibration	1.0077default loss term (dB/km)	0.3790temperature slope calibration	1.0000multiplexer offset coefficient	1.0000multiplexer slope coefficient	1.0000fibre end	0.00T internal ref (°C)	26.44T ext. ref 1 (°C)	3.16T ext. ref 2 (°C)	21.00length (m)	temperature (°C)	Stokes	anti-Stokes-747.200	800.000	0.081	0.281
-746.185	800.000	-0.069	-0.218
-745.171	15.015	0.171	-0.134
-744.156	-52.983	-0.294	-0.136
-743.142	800.000	0.029	0.109
-742.127	141.421	-0.134	0.178
-741.112	-29.515	0.217	-0.125
-740.098	-200.000	-0.033	0.355
-739.083	115.705	0.025	0.031
-738.069	-162.060	-0.320	0.016
-737.054	-200.000	-0.023	-0.104
-736.039	702.331	-0.011	0.029
-735.025	-200.000	-0.022	-0.101
-734.010	39.814	-0.205	-0.185
-732.996	-60.502	-0.029	0.012
-731.981	509.073	0.061	0.142
-730.966	732.054	0.018	-0.047
-729.952	800.000	0.052	-0.217
-728.937	-109.940	-0.174	-0.037
-727.923	4.050	-0.159	-0.117
-726.908	800.000	0.134	-0.371
-725.894	-53.600	-0.155	0.071
-724.879	-67.771	0.165	-0.065
-723.864	-119.000	-0.184	-0.032
-722.850	-200.000	-0.040	-0.331
-721.835	-200.000	-0.102	-0.509
-720.821	147.413	-0.069	0.093
-719.806	123.046	-0.288	-0.362
-718.791	2.127	-0.136	-0.098
-717.777	20.052	-0.104	0.084
-716.762	-154.647	-0.340	-0.023
-715.748	-86.615	-0.128	-0.039
-714.733	-200.000	-0.001	-0.120
-713.718	196.793	-0.165	-0.253
-712.704	-117.083	0.065	0.012
-711.689	-173.435	0.360	-0.011
-710.675	48.053	-0.154	0.144
-709.660	-155.857	0.082	-0.005
-708.645	64.562	-0.263	-0.265
-707.631	-104.660	-0.081	-0.019
-706.616	800.000	0.033	-0.094
-705.602	272.208	0.151	0.267
-704.587	-44.510	-0.261	-0.131
-703.572	196.497	0.021	-0.032
-702.558	-125.867	-0.159	0.024
-701.543	234.004	0.009	0.015
-700.529	110.584	-0.212	0.256
-699.514	124.169	0.143	0.180
-698.499	194.626	-0.056	-0.085
-697.485	-170.400	-0.138	0.005
-696.470	-75.741	0.440	0.156
-695.456	181.830	0.171	-0.252
-694.441	-101.445	-0.382	-0.093
-693.426	-100.521	0.083	-0.021
-692.412	210.184	0.185	0.291
-691.397	-200.000	0.025	-0.223
-690.383	800.000	0.118	-0.331
-689.368	-200.000	-0.061	-0.495
-688.354	724.559	0.020	-0.055
-687.339	800.000	-0.027	0.112
-686.324	539.274	-0.091	-0.216
-685.310	-200.000	0.008	-0.271
-684.295	238.555	0.082	-0.136
-683.281	63.571	0.344	-0.346
-682.266	-91.906	-0.269	-0.076
-681.251	9.078	-0.237	-0.179
-680.237	-127.238	-0.366	-0.054
-679.222	-200.000	0.018	-0.292
-678.208	455.220	-0.039	0.087
-677.193	32.173	-0.170	0.147
-676.178	363.633	-0.053	-0.107
-675.164	681.980	-0.101	-0.262
-674.149	378.377	-0.139	0.284
-673.135	-128.878	0.158	-0.022
-672.120	-69.711	-0.110	0.042
-671.105	-200.000	-0.008	0.112
-670.091	440.597	0.033	-0.071
-669.076	5.059	-0.165	0.121
-668.062	800.000	0.004	0.012
-667.047	-9.960	-0.137	-0.091
-666.032	-9.664	0.171	-0.114
-665.018	-181.667	-0.187	-0.004
-664.003	365.236	-0.169	-0.341
-662.989	-200.000	0.003	-0.190
-661.974	219.424	-0.015	0.023
-660.959	-134.343	-0.350	-0.043
-659.945	-85.108	-0.124	0.039
-658.930	-0.348	0.293	-0.208
-657.916	-200.000	-0.013	-0.066
-656.901	37.393	0.169	0.150
-655.886	-143.068	0.395	0.038
-654.872	72.634	-0.290	0.302
-653.857	-200.000	0.022	-0.218
-652.843	800.000	-0.041	-0.121
-651.828	-169.550	-0.097	-0.004
-650.814	305.354	-0.080	-0.148
-649.799	-104.027	0.161	-0.038
-648.784	31.694	-0.044	0.038
-647.770	411.424	-0.086	0.182
-646.755	-25.376	-0.378	0.223
-645.741	-200.000	0.007	-0.090
-644.726	-40.421	0.051	-0.026
-643.711	-72.521	0.095	0.035
-642.697	-200.000	0.046	-0.280
-641.682	-50.705	-0.169	-0.079
-640.668	-200.000	0.033	0.242
-639.653	145.205	-0.208	-0.278
-638.638	-36.594	0.166	0.089
-637.624	74.020	0.317	0.333
-636.609	-200.000	-0.042	0.196
-635.595	-81.859	-0.289	0.095
-634.580	93.688	-0.121	0.137
-633.565	-88.919	0.409	-0.121
-632.551	216.127	0.280	-0.444
-631.536	800.000	-0.070	-0.249
-630.522	-73.380	-0.381	-0.139
-629.507	621.231	-0.167	-0.420
-628.492	-15.991	0.152	-0.096
-627.478	8.595	0.124	-0.093
-626.463	56.803	-0.022	0.021
-625.449	0.399	-0.295	0.210
-624.434	92.667	0.180	0.203
-623.419	600.956	-0.133	-0.330
-622.405	-78.028	0.301	-0.103
-621.390	39.388	0.121	0.108
-620.376	800.000	0.034	0.137
-619.361	-86.256	-0.067	0.021
-618.346	-73.315	-0.120	-0.044
-617.332	-200.000	-0.010	-0.117
-616.317	-18.695	0.198	-0.124
-615.303	36.102	-0.274	0.241
-614.288	-12.550	0.153	0.099
-613.273	-200.000	0.011	0.063
-612.259	40.852	0.047	-0.042
-611.244	800.000	-0.126	-0.465
-610.230	101.550	-0.267	-0.311
-609.215	-31.505	0.296	-0.166
-608.201	194.054	-0.157	0.237
-607.186	-71.584	-0.205	-0.076
-606.171	129.312	-0.094	-0.120
-605.157	5.524	0.112	0.083
-604.142	47.975	0.050	0.047
-603.128	-42.716	-0.231	0.117
-602.113	-93.858	-0.197	-0.054
-601.098	219.961	0.093	-0.149
-600.084	225.269	-0.158	0.255
-599.069	-109.577	-0.298	-0.063
-598.055	226.956	0.103	-0.166
-597.040	121.003	-0.165	-0.205
-596.025	-200.000	0.059	0.320
-595.011	-99.288	0.097	0.025
-593.996	118.538	-0.220	-0.271
-592.982	-200.000	-0.003	-0.119
-591.967	381.859	-0.108	-0.221
-590.952	-3.012	0.049	-0.034
-589.938	-120.650	0.334	0.056
-588.923	212.203	-0.163	0.257
-587.909	-27.906	0.186	0.107
-586.894	126.387	0.065	0.082
-585.879	800.000	0.097	0.400
-584.865	-200.000	0.043	0.235
-583.850	-110.160	0.204	0.042
-582.836	-200.000	-0.006	0.180
-581.821	-200.000	0.000	-0.124
-580.806	-82.832	-0.105	0.034
-579.792	800.000	0.087	-0.280
-578.777	-108.072	0.084	-0.018
-577.763	330.734	-0.122	0.234
-576.748	-85.498	-0.242	-0.075
-575.733	39.903	0.061	-0.055
-574.719	-119.621	0.232	0.040
-573.704	800.000	0.115	-0.367
-572.690	170.955	-0.015	0.021
-571.675	-200.000	-0.033	-0.172
-570.661	-104.884	0.163	-0.037
-569.646	800.000	0.089	-0.286
-568.631	-112.854	-0.456	-0.090
-567.617	54.941	-0.112	-0.108
-566.602	-49.100	-0.134	-0.064
-565.588	-57.755	-0.214	-0.094
-564.573	9.573	0.197	-0.148
-563.558	211.953	-0.168	0.263
-562.544	636.558	-0.092	-0.234
-561.529	-8.416	-0.111	0.075
-560.515	-200.000	-0.109	-0.476
-559.500	-24.154	-0.207	0.123
-558.485	-13.549	0.168	-0.108
-557.471	62.089	0.325	0.323
-556.456	-200.000	0.014	0.107
-555.442	-29.924	0.022	0.012
-554.427	220.982	0.190	0.304
-553.412	-188.472	-0.231	-0.003
-552.398	268.197	0.229	-0.400
-551.383	125.845	-0.106	0.133
-550.369	-2.728	0.080	-0.056
-549.354	-197.069	-0.240	-0.002
-548.339	703.469	-0.125	0.329
-547.325	-88.232	-0.328	-0.098
-546.310	-75.411	-0.223	-0.079
-545.296	465.050	-0.141	-0.313
-544.281	35.746	-0.175	-0.153
-543.266	-200.000	0.024	-0.108
-542.252	-38.810	-0.093	-0.049
-541.237	298.525	-0.139	0.255
-540.223	172.152	0.183	0.262
-539.208	-200.000	0.005	0.071
-538.193	800.000	0.055	-0.208
-537.179	385.566	-0.242	-0.498
-536.164	-148.842	0.270	0.022
-535.150	-200.000	-0.022	-0.119
-534.135	-200.000	-0.033	-0.160
-533.121	-200.000	-0.009	-0.228
-532.106	-39.413	0.323	-0.169
-531.091	330.969	0.124	0.238
-530.077	-16.812	0.258	-0.163
-529.062	139.671	0.046	0.060
-528.048	800.000	0.045	-0.146
-527.033	88.321	-0.025	-0.028
-526.018	-57.737	0.348	-0.152
-525.004	196.742	0.051	-0.078
-523.989	-164.092	0.128	-0.006
-522.975	-200.000	-0.055	-0.257
-521.960	24.609	0.199	0.164
-520.945	800.000	-0.013	-0.047
-519.931	161.909	0.114	0.159
-518.916	-33.531	-0.341	-0.188
-517.902	269.951	0.065	0.114
-516.887	800.000	-0.066	0.228
-515.872	800.000	-0.015	0.047
-514.858	-200.000	0.379	-0.001
-513.843	233.007	0.043	0.071
-512.829	73.427	-0.223	-0.232
-511.814	646.470	-0.079	-0.201
-510.799	-200.000	-0.051	-0.229
-509.785	-166.201	-0.223	0.009
-508.770	800.000	-0.072	0.198
-507.756	95.934	-0.163	-0.186
-506.741	96.164	0.055	-0.063
-505.726	-73.874	-0.121	0.044
-504.712	34.389	0.095	0.083
-503.697	15.349	-0.081	-0.063
-502.683	-188.010	0.228	0.003
-501.668	122.692	-0.043	0.053
-500.653	-200.000	-0.015	-0.125
-499.639	-22.177	-0.424	-0.256
-498.624	704.261	0.071	0.186
-497.610	-60.848	0.309	0.130
-496.595	-200.000	-0.115	0.507
-495.581	-78.216	-0.283	-0.097
-494.566	-12.637	-0.041	-0.027
-493.551	-200.000	0.006	-0.182
-492.537	-200.000	-0.027	0.185
-491.522	800.000	0.064	-0.245
-490.508	20.456	0.224	-0.180
-489.493	129.149	-0.119	-0.151
-488.478	-200.000	-0.044	0.221
-487.464	-43.435	-0.157	-0.079
-486.449	530.118	0.102	-0.240
-485.435	-137.967	-0.086	0.010
-484.420	-60.802	-0.247	-0.104
-483.405	-164.839	0.081	0.004
-482.391	-200.000	0.072	-0.452
-481.376	-200.000	0.008	0.123
-480.362	60.128	-0.135	-0.133
-479.347	41.651	-0.144	0.130
-478.332	120.816	0.124	0.153
-477.318	10.769	0.131	0.099
-476.303	-76.064	-0.150	0.053
-475.289	-164.638	0.258	0.012
-474.274	-52.245	0.270	-0.124
-473.259	141.422	0.093	-0.122
-472.245	-200.000	0.025	0.346
-471.230	-117.654	-0.191	-0.034
-470.216	-9.522	0.055	-0.037
-469.201	350.828	-0.107	-0.210
-468.186	-200.000	-0.061	0.374
-467.172	202.151	0.207	-0.317
-466.157	-200.000	-0.010	-0.084
-465.143	-197.557	-0.359	-0.002
-464.128	138.094	-0.030	-0.040
-463.113	169.058	0.052	0.073
-462.099	97.980	-0.067	0.076
-461.084	-154.751	0.183	0.012
-460.070	-77.255	-0.051	-0.018
-459.055	800.000	0.107	0.312
-458.040	211.243	0.154	-0.241
-457.026	528.017	0.062	-0.146
-456.011	-88.690	0.208	0.061
-454.997	240.964	0.085	0.141
-453.982	-183.051	0.180	-0.003
-452.968	174.979	-0.058	-0.083
-451.953	30.212	-0.351	-0.297
-450.938	41.033	0.259	-0.232
-449.924	-104.514	-0.125	0.029
-448.909	-56.729	0.183	-0.080
-447.895	-77.071	0.247	-0.086
-446.880	-200.000	0.028	0.352
-445.865	-140.826	0.287	-0.029
-444.851	-200.000	-0.009	0.180
-443.836	-60.455	0.260	0.110
-442.822	-25.411	-0.043	0.025
-441.807	-200.000	-0.023	0.124
-440.792	563.370	0.078	0.188
-439.778	388.012	0.153	-0.315
-438.763	-200.000	-0.014	0.110
-437.749	-108.757	0.351	-0.074
-436.734	461.821	-0.096	0.213
-435.719	-88.066	-0.385	-0.115
-434.705	55.898	-0.093	0.090
-433.690	8.417	-0.164	-0.122
-432.676	-84.244	0.122	0.038
-431.661	431.991	-0.016	-0.034
-430.646	153.120	0.155	0.211
-429.632	-200.000	0.003	0.137
-428.617	-32.616	0.418	-0.231
-427.603	-186.016	-0.065	-0.001
-426.588	29.000	-0.134	-0.112
-425.573	800.000	-0.033	0.134
-424.559	102.176	0.281	0.325
-423.544	-121.330	0.228	-0.038
-422.530	800.000	0.041	-0.128
-421.515	-127.627	-0.191	0.027
-420.500	137.227	-0.151	-0.195
-419.486	-125.802	0.342	-0.051
-418.471	216.955	-0.133	-0.210
-417.457	-52.684	0.208	-0.095
-416.442	49.275	-0.237	0.221
-415.428	20.602	0.327	0.262
-414.413	-200.000	0.061	0.447
-413.398	579.186	-0.051	0.123
-412.384	-200.000	-0.016	-0.124
-411.369	800.000	0.092	0.371
-410.355	-159.507	-0.367	0.020
-409.340	-200.000	0.032	-0.266
-408.325	148.520	0.086	0.115
-407.311	592.841	-0.079	0.193
-406.296	564.205	0.108	-0.259
-405.282	-75.071	-0.385	0.137
-404.267	121.589	0.123	-0.152
-403.252	447.043	0.125	-0.272
-402.238	-200.000	-0.005	-0.130
-401.223	800.000	0.073	-0.316
-400.209	800.000	-0.048	0.145
-399.194	176.729	0.118	0.169
-398.179	308.098	-0.181	0.334
-397.165	800.000	0.058	0.217
-396.150	313.021	-0.102	0.189
-395.136	2.111	0.127	-0.091
-394.121	-83.899	0.266	-0.084
-393.106	-200.000	0.012	0.113
-392.092	173.800	0.037	0.053
-391.077	-200.000	0.013	0.228
-390.063	-48.450	0.204	-0.097
-389.048	64.696	-0.232	-0.232
-388.033	-131.252	0.255	-0.034
-387.019	800.000	0.062	0.187
-386.004	198.246	-0.043	0.064
-384.990	-118.474	0.195	0.034
-383.975	800.000	0.084	-0.239
-382.960	116.828	-0.079	0.096
-381.946	-200.000	0.008	-0.131
-380.931	-24.265	-0.303	0.179
-379.917	148.238	-0.102	-0.136
-378.902	-136.703	-0.216	-0.025
-377.888	330.703	-0.185	-0.352
-376.873	-48.508	0.594	0.283
-375.858	59.957	0.057	0.055
-374.844	-69.948	-0.361	-0.136
-373.829	210.522	-0.216	-0.336
-372.815	72.620	0.106	-0.110
-371.800	-200.000	0.041	0.270
-370.785	90.742	-0.075	-0.083
-369.771	-200.000	-0.040	0.292
-368.756	-93.567	0.127	-0.035
-367.742	119.204	-0.083	0.102
-366.727	294.118	0.067	0.121
-365.712	-133.512	0.142	-0.018
-364.698	-43.829	-0.203	-0.101
-363.683	663.647	0.141	0.359
-362.669	-4.077	-0.167	0.114
-361.654	-129.278	0.260	0.036
-360.639	-1.866	0.218	-0.151
-359.625	-68.899	0.059	0.023
-358.610	-109.627	0.117	0.024
-357.596	11.532	-0.125	0.095
-356.581	-37.183	0.192	0.102
-355.566	800.000	0.055	-0.193
-354.552	-56.565	0.151	-0.066
-353.537	-140.418	0.493	0.051
-352.523	-142.139	-0.275	0.027
-351.508	92.934	0.191	0.214
-350.493	19.883	0.103	0.082
-349.479	-35.776	0.106	-0.057
-348.464	14.130	0.090	-0.070
-347.450	-84.079	-0.207	0.065
-346.435	-37.269	0.116	-0.061
-345.420	-200.000	0.090	0.432
-344.406	6.013	0.202	-0.148
-343.391	186.142	-0.157	-0.231
-342.377	237.633	-0.209	-0.342
-341.362	309.746	-0.136	0.252
-340.348	738.521	0.041	-0.108
-339.333	-200.000	0.013	-0.247
-338.318	287.257	-0.175	0.312
-337.304	-200.000	-0.057	-0.264
-336.289	-39.454	-0.171	-0.089
-335.275	-119.070	-0.244	0.042
-334.260	-15.689	0.103	0.065
-333.245	-200.000	0.027	-0.172
-332.231	306.619	-0.066	0.121
-331.216	1.180	-0.104	0.074
-330.202	167.742	-0.166	0.233
-329.187	43.294	0.280	0.252
-328.172	-139.038	-0.315	0.034
-327.158	67.619	-0.129	-0.130
-326.143	-144.470	-0.368	-0.034
-325.129	64.875	-0.112	-0.111
-324.114	800.000	0.084	0.321
-323.099	-200.000	0.016	0.157
-322.085	-57.953	0.108	-0.046
-321.070	89.177	0.064	-0.070
-320.056	-158.801	0.194	0.011
-319.041	559.345	-0.059	-0.142
-318.026	800.000	-0.047	0.183
-317.012	-200.000	-0.048	0.247
-315.997	-200.000	0.001	0.310
-314.983	-67.136	0.190	0.074
-313.968	-39.703	0.111	-0.058
-312.953	29.236	-0.159	0.133
-311.939	-156.155	-0.140	0.009
-310.924	-43.223	0.279	0.139
-309.910	29.834	0.203	-0.171
-308.895	-29.495	0.248	0.140
-307.880	-77.942	0.196	-0.067
-306.866	-200.000	-0.070	0.399
-305.851	-200.000	-0.016	0.151
-304.837	-141.499	0.392	0.039
-303.822	114.234	-0.035	-0.042
-302.807	182.623	0.078	0.114
-301.793	-200.000	-0.017	-0.214
-300.778	800.000	0.080	0.241
-299.764	169.555	-0.108	0.151
-298.749	83.910	-0.180	0.194
-297.735	469.569	-0.162	0.359
-296.720	292.242	0.231	0.415
-295.705	130.112	-0.049	0.061
-294.691	47.868	0.190	-0.175
-293.676	-110.798	-0.276	-0.056
-292.662	-83.144	-0.217	0.069
-291.647	256.793	0.118	0.199
-290.632	-117.699	0.149	0.026
-289.618	218.038	-0.131	-0.205
-288.603	88.522	0.134	-0.146
-287.589	-200.000	-0.014	-0.070
-286.574	196.646	-0.063	-0.094
-285.559	800.000	-0.113	-0.365
-284.545	-113.064	-0.252	-0.049
-283.530	174.388	-0.124	-0.176
-282.516	193.759	0.049	0.073
-281.501	105.397	-0.205	-0.239
-280.486	-200.000	-0.018	0.374
-279.472	12.904	-0.084	-0.064
-278.457	-115.685	-0.102	0.019
-277.443	222.366	0.136	0.216
-276.428	168.113	0.082	-0.115
-275.413	14.517	-0.135	-0.104
-274.399	800.000	-0.031	0.091
-273.384	-25.110	0.010	-0.006
-272.370	112.033	0.139	0.166
-271.355	-109.525	-0.395	-0.082
-270.340	-92.331	0.280	0.078
-269.326	170.042	-0.250	0.352
-268.311	14.575	-0.214	0.165
-267.297	-95.144	0.214	-0.057
-266.282	744.502	-0.057	-0.151
-265.267	336.356	0.109	0.208
-264.253	-200.000	0.023	0.159
-263.238	-88.036	0.230	-0.068
-262.224	-87.921	0.278	0.082
-261.209	338.416	0.101	0.193
-260.195	19.972	0.041	-0.033
-259.180	-100.995	0.254	-0.061
-258.165	40.907	-0.257	0.228
-257.151	327.556	-0.354	0.670
-256.136	-200.000	-0.011	-0.190
-255.122	-200.000	-0.010	-0.256
-254.107	-101.885	0.099	0.024
-253.092	-83.131	-0.035	0.011
-252.078	800.000	0.054	-0.153
-251.063	-131.482	0.269	-0.035
-250.049	-163.984	-0.129	-0.006
-249.034	-200.000	-0.025	-0.138
-248.019	-103.644	-0.351	-0.081
-247.005	-87.154	-0.214	-0.064
-245.990	-125.168	0.085	-0.013
-244.976	108.608	0.106	-0.124
-243.961	-118.785	-0.212	-0.037
-242.946	800.000	-0.111	0.303
-241.932	-86.715	0.045	-0.014
-240.917	84.261	0.284	-0.305
-239.903	14.762	0.059	-0.045
-238.888	-70.549	0.220	0.082
-237.873	-59.106	-0.431	0.183
-236.859	-96.927	-0.307	-0.079
-235.844	43.022	-0.147	-0.132
-234.830	275.301	0.034	0.060
-233.815	9.060	-0.110	0.082
-232.800	-31.018	0.132	-0.073
-231.786	86.286	-0.063	-0.068
-230.771	800.000	-0.052	-0.184
-229.757	-71.048	0.104	0.038
-228.742	179.718	-0.158	0.228
-227.727	-200.000	-0.028	0.318
-226.713	-80.272	0.119	0.039
-225.698	-200.000	0.008	0.165
-224.684	60.104	-0.155	0.151
-223.669	-162.188	0.494	-0.024
-222.655	-200.000	-0.031	0.152
-221.640	-41.559	-0.331	0.167
-220.625	-200.000	-0.016	-0.211
-219.611	207.197	-0.119	-0.183
-218.596	-119.249	-0.279	-0.048
-217.582	-166.643	-0.114	0.005
-216.567	-10.548	0.643	0.419
-215.552	-89.067	-0.054	0.016
-214.538	-200.000	0.028	0.199
-213.523	-200.000	-0.014	-0.082
-212.509	-200.000	-0.051	0.367
-211.494	-146.227	0.195	0.017
-210.479	800.000	-0.041	-0.133
-209.465	102.530	0.188	0.216
-208.450	30.200	-0.127	-0.106
-207.436	704.712	-0.089	0.231
-206.421	151.275	0.040	-0.053
-205.406	800.000	0.107	-0.444
-204.392	0.097	0.530	-0.371
-203.377	-110.103	-0.241	-0.049
-202.363	-107.623	0.427	-0.092
-201.348	-88.083	0.065	0.019
-200.333	58.018	0.200	0.192
-199.319	-200.000	-0.054	-0.361
-198.304	800.000	-0.112	-0.330
-197.290	71.854	-0.130	0.133
-196.275	800.000	-0.060	-0.187
-195.260	-118.224	-0.202	-0.035
-194.246	-40.206	-0.108	0.055
-193.231	-142.168	-0.047	-0.005
-192.217	241.149	-0.056	-0.092
-191.202	4.541	-0.188	-0.135
-190.187	279.038	-0.037	0.065
-189.173	-65.021	-0.287	0.114
-188.158	350.952	-0.166	0.324
-187.144	-30.946	-0.109	-0.061
-186.129	800.000	0.079	-0.224
-185.114	-99.935	0.405	-0.099
-184.100	-105.015	0.245	0.055
-183.085	-123.051	-0.275	0.043
-182.071	50.027	0.220	0.204
-181.056	207.241	-0.129	0.198
-180.042	275.123	-0.081	-0.140
-179.027	-149.669	-0.446	0.034
-178.012	-137.455	0.386	0.043
-176.998	-72.066	0.218	0.079
-175.983	117.770	-0.130	0.157
-174.969	64.087	0.024	-0.024
-173.954	613.687	0.089	0.220
-172.939	-104.156	-0.377	-0.086
-171.925	-200.000	-0.045	-0.282
-170.910	-45.652	0.022	-0.011
-169.896	-167.008	0.253	-0.010
-168.881	1.996	0.336	-0.238
-167.866	-13.211	0.208	-0.132
-166.852	-200.000	0.006	-0.324
-165.837	30.753	-0.391	0.329
-164.823	50.348	0.084	-0.078
-163.808	25.575	-0.142	-0.116
-162.793	-82.051	-0.293	0.094
-161.779	31.348	-0.063	0.053
-160.764	-97.975	0.382	0.097
-159.750	-200.000	0.004	0.059
-158.735	38.967	-0.279	-0.245
-157.720	-200.000	0.010	-0.404
-156.706	62.149	0.219	0.214
-155.691	-19.302	-0.364	0.222
-154.677	-32.629	0.104	-0.057
-153.662	-200.000	-0.011	-0.369
-152.647	106.340	-0.059	0.068
-151.633	72.447	-0.150	-0.154
-150.618	221.775	0.079	-0.124
-149.604	-200.000	-0.019	-0.384
-148.589	-151.559	0.374	-0.027
-147.574	-40.177	-0.203	-0.104
-146.560	63.954	0.148	-0.146
-145.545	711.452	-0.123	-0.320
-144.531	50.324	-0.175	-0.162
-143.516	800.000	0.048	0.171
-142.502	45.873	0.175	0.159
-141.487	-188.489	0.336	0.004
-140.472	-56.902	0.265	0.115
-139.458	800.000	-0.119	-0.371
-138.443	800.000	-0.117	-0.391
-137.429	-94.665	0.244	-0.065
-136.414	-93.928	-0.217	0.058
-135.399	800.000	0.041	0.134
-134.385	-138.140	-0.050	-0.005
-133.370	-200.000	-0.008	-0.106
-132.356	-200.000	-0.075	-0.360
-131.341	134.984	-0.193	0.245
-130.326	212.406	-0.103	0.159
-129.312	44.337	0.251	0.226
-128.297	744.343	-0.066	-0.173
-127.283	116.050	-0.221	-0.265
-126.268	-126.852	-0.112	-0.016
-125.253	-200.000	-0.020	0.128
-124.239	-35.550	0.137	-0.073
-123.224	800.000	0.067	-0.232
-122.210	-27.173	-0.103	0.059
-121.195	-93.605	0.247	0.067
-120.180	39.989	0.145	-0.127
-119.166	-94.327	0.070	-0.019
-118.151	-16.355	-0.060	0.037
-117.137	43.008	-0.140	-0.125
-116.122	-119.163	-0.122	-0.021
-115.107	-147.265	0.074	-0.006
-114.093	96.974	0.101	0.113
-113.078	70.443	0.132	-0.133
-112.064	45.924	-0.206	-0.187
-111.049	-45.132	0.266	0.130
-110.034	148.276	0.033	0.043
-109.020	-200.000	-0.029	0.125
-108.005	-104.887	0.200	-0.045
-106.991	-200.000	-0.024	-0.328
-105.976	-119.457	0.205	-0.035
-104.962	256.653	0.146	0.245
-103.947	800.000	-0.099	0.269
-102.932	283.819	-0.103	-0.181
-101.918	308.111	0.008	-0.014
-100.903	130.616	-0.110	0.138
-99.889	-74.818	-0.196	-0.069
-98.874	717.794	0.079	-0.204
-97.859	800.000	-0.060	0.173
-96.845	800.000	0.042	0.145
-95.830	-200.000	0.004	-0.079
-94.816	-200.000	0.002	0.187
-93.801	-22.722	0.246	0.145
-92.786	-170.105	-0.204	0.007
-91.772	761.373	0.081	0.214
-90.757	21.427	0.206	-0.164
-89.743	57.599	0.095	-0.091
-88.728	-61.169	0.058	0.024
-87.713	800.000	-0.081	0.336
-86.699	-129.732	-0.160	0.021
-85.684	-91.319	0.095	0.026
-84.670	101.366	0.106	-0.120
-83.655	231.004	-0.109	0.175
-82.640	57.269	0.061	0.058
-81.626	90.860	0.293	-0.321
-80.611	30.210	0.150	-0.125
-79.597	252.363	-0.110	-0.184
-78.582	42.743	-0.087	0.078
-77.567	-9.209	-0.300	0.196
-76.553	-20.994	0.059	-0.035
-75.538	99.395	-0.139	-0.157
-74.524	140.814	-0.181	-0.234
-73.509	379.996	0.128	0.256
-72.494	-0.177	0.284	0.198
-71.480	161.482	-0.184	0.251
-70.465	-110.085	-0.302	0.062
-69.451	30.700	0.264	-0.221
-68.436	-107.017	0.176	-0.038
-67.422	-71.643	-0.219	0.080
-66.407	-86.407	0.116	-0.035
-65.392	-43.750	-0.250	-0.123
-64.378	548.359	0.132	0.308
-63.363	133.853	-0.066	-0.083
-62.349	-12.182	-0.200	0.128
-61.334	246.631	-0.604	-0.996
-60.319	-11.399	0.601	0.386
-59.305	-200.000	-0.250	-1.273
-58.290	421.160	0.518	1.085
-57.276	546.860	0.570	1.333
-56.261	-200.000	116.292	643.032
-55.246	497.832	1539.182	3462.120
-54.232	176.332	2706.784	3841.994
-53.217	104.970	2149.129	2476.635
-52.203	38.057	1584.434	1376.936
-51.188	29.770	1327.707	1104.535
-50.173	26.950	1289.016	1055.926
-49.159	52.321	1347.010	1255.180
-48.144	50.813	1361.010	1259.208
-47.130	29.944	1314.491	1094.397
-46.115	26.580	1296.727	1059.910
-45.100	26.404	1291.681	1054.717
-44.086	26.324	1288.923	1051.954
-43.071	26.194	1286.854	1049.470
-42.057	26.209	1285.081	1048.066
-41.042	26.327	1283.154	1047.137
-40.027	26.162	1281.947	1045.158
-39.013	26.263	1279.786	1043.939
-37.998	26.325	1278.082	1042.866
-36.984	26.278	1276.062	1040.902
-35.969	26.438	1274.212	1040.276
-34.954	26.509	1272.439	1039.192
-33.940	26.432	1271.362	1037.833
-32.925	26.431	1270.112	1036.763
-31.911	26.507	1268.697	1036.004
-30.896	26.524	1266.896	1034.588
-29.881	26.545	1265.634	1033.637
-28.867	26.443	1264.431	1032.033
-27.852	26.537	1262.827	1031.217
-26.838	26.610	1261.419	1030.442
-25.823	26.482	1260.339	1028.791
-24.809	26.515	1258.735	1027.629
-23.794	26.547	1257.454	1026.721
-22.779	26.577	1256.135	1025.777
-21.765	26.463	1255.363	1024.455
-20.750	26.545	1254.112	1023.857
-19.736	26.522	1252.411	1022.298
-18.721	26.453	1251.221	1020.902
-17.706	26.371	1250.535	1019.838
-16.692	26.410	1249.210	1018.936
-15.677	26.495	1248.028	1018.410
-14.663	26.411	1246.843	1016.928
-13.648	26.383	1245.617	1015.733
-12.633	26.361	1245.151	1015.188
-11.619	26.397	1243.934	1014.359
-10.604	26.429	1243.405	1014.064
-9.590	26.410	1242.208	1012.941
-8.575	26.463	1240.913	1012.145
-7.560	26.271	1240.628	1010.795
-6.546	26.318	1239.785	1010.332
-5.531	26.428	1238.357	1009.744
-4.517	26.416	1237.555	1008.982
-3.502	26.426	1236.801	1008.383
-2.487	26.353	1236.160	1007.416
-1.473	26.296	1231.855	1003.547
-0.458	24.752	1217.240	983.122
0.556	21.629	1200.841	947.080
1.571	18.140	1206.705	932.623
2.586	17.331	1220.734	938.921
3.600	16.939	1209.713	928.213
4.615	12.817	1138.723	852.388
5.629	6.241	1068.626	767.838
6.644	3.327	1051.219	741.257
7.659	3.051	1049.079	738.355
8.673	3.137	1048.032	737.967
9.688	3.135	1046.243	736.633
10.702	3.314	1044.290	736.046
11.717	7.132	1049.386	757.881
12.731	14.398	1059.429	800.069
13.746	19.056	1064.961	826.603
14.761	19.699	1065.738	830.221
15.775	18.888	1064.128	825.004
16.790	17.861	1061.951	818.320
17.804	17.239	1060.315	814.010
18.819	16.799	1059.776	811.417
19.834	16.873	1058.499	810.721
20.848	16.637	1057.795	808.982
21.863	16.377	1057.360	807.335
22.877	16.321	1056.411	806.274
23.892	16.372	1055.421	805.689
24.907	16.202	1055.104	804.565
25.921	16.351	1053.734	804.157
26.936	16.215	1052.761	802.697
27.950	16.314	1051.336	802.012
28.965	16.463	1049.744	801.433
29.980	16.501	1048.185	800.352
30.994	16.537	1047.272	799.752
32.009	16.619	1046.341	799.357
33.023	16.517	1045.433	798.113
34.038	16.523	1044.008	796.985
35.053	16.374	1043.293	795.663
36.067	16.324	1042.637	794.858
37.082	16.407	1041.502	794.312
38.096	16.525	1040.768	794.237
39.111	16.382	1040.452	793.257
40.126	16.144	1039.224	791.132
41.140	16.186	1037.598	790.022
42.155	15.983	1036.554	788.209
43.169	15.938	1035.214	786.909
44.184	15.991	1034.169	786.293
45.199	16.062	1033.224	785.835
46.213	16.160	1032.216	785.457
47.228	16.278	1031.289	785.229
48.242	16.428	1029.897	784.794
49.257	16.335	1029.021	783.628
50.271	16.329	1028.606	783.213
51.286	16.356	1027.867	782.708
52.301	16.375	1026.766	781.887
53.315	16.335	1025.111	780.375
54.330	16.204	1024.385	779.146
55.344	16.201	1023.274	778.218
56.359	16.324	1022.564	778.176
57.374	16.074	1022.084	776.593
58.388	16.078	1021.341	775.975
59.403	15.982	1020.641	774.935
60.417	16.040	1019.405	774.194
61.432	16.014	1018.920	773.637
62.447	15.893	1017.895	772.237
63.461	15.951	1016.958	771.722
64.476	15.905	1016.046	770.754
65.490	15.787	1015.569	769.781
66.505	15.968	1014.663	769.853
67.520	15.966	1014.186	769.414
68.534	16.052	1013.358	769.110
69.549	15.939	1013.252	768.447
70.563	15.873	1011.892	767.049
71.578	15.801	1010.630	765.695
72.593	15.850	1010.254	765.564
73.607	15.746	1009.675	764.585
74.622	15.834	1008.974	764.388
75.636	15.793	1008.340	763.655
76.651	15.891	1007.398	763.318
77.666	15.836	1007.023	762.717
78.680	15.884	1006.396	762.391
79.695	15.929	1005.504	761.850
80.709	16.067	1005.182	762.162
81.724	16.032	1004.667	761.548
82.739	16.264	1003.676	761.778
83.753	16.308	1003.312	761.630
84.768	16.563	1002.113	761.801
85.782	16.702	1001.356	761.783
86.797	16.569	1000.596	760.539
87.812	16.462	999.534	759.184
88.826	16.420	998.430	758.092
89.841	16.414	997.238	757.092
90.855	16.584	997.102	757.683
91.870	16.563	996.168	756.815
92.884	16.536	995.390	756.032
93.899	16.569	994.637	755.542
94.914	16.718	993.423	755.218
95.928	16.643	992.617	754.205
96.943	16.522	991.874	753.036
97.957	16.473	991.147	752.199
98.972	16.585	989.777	751.589
99.987	16.564	989.051	750.879
101.001	16.571	988.220	750.213
102.016	16.512	987.316	749.199
103.030	16.737	986.554	749.551
104.045	16.645	986.155	748.775
105.060	16.470	984.969	747.034
106.074	16.218	983.934	745.069
107.089	16.075	982.885	743.580
108.103	16.014	981.999	742.573
109.118	16.002	981.220	741.866
110.133	15.978	980.530	741.176
111.147	16.074	979.365	740.648
112.162	16.136	978.189	739.967
113.176	16.142	978.002	739.784
114.191	16.127	977.468	739.250
115.206	16.251	976.274	738.824
116.220	16.027	976.046	737.608
117.235	16.073	974.742	736.759
118.249	16.115	973.959	736.282
119.264	16.108	972.888	735.377
120.279	15.997	972.169	734.284
121.293	16.097	971.136	733.876
122.308	15.921	970.654	732.683
123.322	16.035	968.991	731.857
124.337	15.943	968.186	730.784
125.352	15.895	967.169	729.742
126.366	15.881	966.322	728.980
127.381	15.975	964.834	728.198
128.395	15.893	964.168	727.279
129.410	15.965	963.441	726.976
130.424	16.022	963.175	726.956
131.439	16.248	961.911	726.911
132.454	16.154	961.289	725.973
133.468	16.303	960.334	725.830
134.483	16.166	959.893	724.841
135.497	16.059	959.038	723.672
136.512	16.140	957.984	723.162
137.527	16.211	956.871	722.562
138.541	16.221	956.780	722.470
139.556	16.257	955.790	721.814
140.570	16.406	955.499	722.166
141.585	16.520	954.311	721.693
142.600	16.470	954.014	721.190
143.614	16.665	952.691	720.956
144.629	16.702	951.706	720.305
145.643	16.530	951.365	719.253
146.658	16.373	950.207	717.647
147.673	16.418	948.991	716.854
148.687	16.498	947.855	716.274
149.702	16.365	947.197	715.147
150.716	16.124	946.842	713.796
151.731	16.313	946.146	714.010
152.746	16.448	945.261	713.848
153.760	16.498	944.593	713.490
154.775	16.380	944.148	712.594
155.789	16.476	943.869	712.723
156.804	16.466	942.895	711.882
157.819	16.583	942.054	711.678
158.833	16.641	941.273	711.271
159.848	16.794	940.785	711.478
160.862	16.668	939.877	710.202
161.877	16.324	938.674	707.790
162.892	16.357	937.786	707.195
163.906	16.360	936.486	706.162
164.921	16.184	936.157	705.120
165.935	16.518	934.943	705.536
166.950	16.379	934.543	704.590
167.964	16.327	933.397	703.446
168.979	16.327	932.815	702.948
169.994	16.408	931.535	702.258
171.008	16.493	931.112	702.229
172.023	16.632	930.459	702.252
173.037	16.666	929.966	701.958
174.052	16.699	928.758	701.122
175.067	16.509	927.905	699.630
176.081	16.383	927.895	699.037
177.096	16.359	926.923	698.147
178.110	16.414	926.528	698.015
179.125	16.479	925.956	697.789
180.140	16.511	925.214	697.300
181.154	16.539	925.519	697.583
182.169	16.722	924.585	697.573
183.183	16.830	924.163	697.636
184.198	16.648	923.461	696.296
185.213	16.762	922.817	696.219
186.227	16.725	921.995	695.382
187.242	17.000	921.312	695.933
188.256	16.902	921.353	695.502
189.271	16.927	920.339	694.778
190.286	16.571	919.386	692.541
191.300	16.281	918.332	690.499
192.315	16.277	917.994	690.167
193.329	16.297	917.460	689.786
194.344	16.385	917.121	689.831
195.359	16.569	916.189	689.819
196.373	16.626	915.805	689.699
197.388	16.907	915.353	690.441
198.402	17.036	914.539	690.291
199.417	17.029	914.350	690.061
200.432	17.071	913.878	689.816
201.446	17.140	913.626	689.843
202.461	17.205	912.836	689.449
203.475	17.150	912.156	688.652
204.490	17.091	911.007	687.485
205.504	16.995	909.776	686.105
206.519	16.990	909.205	685.594
207.534	16.855	909.352	685.100
208.548	17.076	908.069	684.964
209.563	16.975	907.837	684.323
210.577	16.983	907.119	683.751
211.592	17.204	906.526	684.132
212.607	17.285	905.836	683.877
213.621	17.135	905.114	682.671
214.636	17.167	904.453	682.240
215.650	17.211	903.451	681.600
216.665	17.300	902.968	681.532
217.680	17.305	902.263	680.962
218.694	17.180	901.865	680.099
219.709	17.260	901.324	679.950
220.723	17.272	900.328	679.186
221.738	17.399	899.419	678.947
222.753	17.307	898.866	678.102
223.767	17.378	898.597	678.126
224.782	17.470	898.161	678.099
225.796	17.361	897.738	677.286
226.811	17.407	896.951	676.817
227.826	17.344	895.945	675.746
228.840	17.234	895.574	674.970
229.855	17.275	894.493	674.258
230.869	17.111	894.088	673.244
231.884	17.206	892.831	672.613
232.899	17.182	892.196	671.983
233.913	17.069	891.648	671.061
234.928	17.082	891.187	670.707
235.942	16.984	890.382	669.657
236.957	17.172	889.938	670.005
237.972	17.077	889.522	669.258
238.986	17.167	888.717	668.949
240.001	17.126	888.261	668.384
241.015	17.236	888.001	668.561
242.030	17.206	887.342	667.886
243.045	17.405	886.072	667.654
244.059	17.239	886.143	666.998
245.074	17.441	885.311	667.102
246.088	17.469	884.762	666.741
247.103	17.515	884.099	666.361
248.117	17.672	883.852	666.733
249.132	17.848	883.595	667.167
250.147	17.942	882.851	666.911
251.161	17.960	882.131	666.380
252.176	18.026	881.439	666.055
253.190	18.107	880.893	665.899
254.205	18.050	880.310	665.180
255.220	18.067	879.571	664.625
256.234	18.041	878.935	663.985
257.249	17.995	878.345	663.302
258.263	18.073	877.386	662.822
259.278	18.064	876.872	662.341
260.293	18.043	876.443	661.875
261.307	18.116	876.315	662.004
262.322	18.248	875.380	661.748
263.336	18.179	874.758	660.956
264.351	18.246	873.990	660.573
265.366	18.201	873.490	659.965
266.380	18.157	872.808	659.221
267.395	18.076	872.020	658.255
268.409	18.180	870.907	657.756
269.424	18.124	870.316	657.040
270.439	18.223	869.470	656.721
271.453	17.962	868.901	655.230
272.468	18.052	868.430	655.165
273.482	18.096	868.174	655.081
274.497	18.055	867.184	654.120
275.512	18.037	867.082	653.914
276.526	18.068	866.306	653.391
277.541	18.151	865.826	653.288
278.555	18.289	865.382	653.422
279.570	18.407	864.952	653.488
280.585	18.292	864.547	652.688
281.599	18.285	863.227	651.605
282.614	18.078	862.409	650.143
283.628	18.339	861.814	650.630
284.643	18.285	861.380	650.039
285.657	18.303	860.465	649.360
286.672	18.207	860.320	648.828
287.687	18.249	859.423	648.256
288.701	18.283	859.018	648.021
289.716	18.344	858.462	647.775
290.730	18.363	857.822	647.305
291.745	18.333	857.100	646.589
292.760	18.517	856.449	646.736
293.774	18.464	856.105	646.218
294.789	18.420	855.401	645.464
295.803	18.146	854.760	643.894
296.818	18.359	853.855	643.955
297.833	18.383	853.244	643.528
298.847	18.380	852.614	642.983
299.862	18.579	852.001	643.212
300.876	18.519	851.753	642.742
301.891	18.660	851.315	642.884
302.906	18.735	850.753	642.683
303.920	18.674	850.578	642.264
304.935	18.849	849.659	642.168
305.949	18.752	848.765	641.075
306.964	18.601	848.527	640.275
307.979	18.612	847.534	639.509
308.993	18.655	847.448	639.547
310.008	18.748	846.894	639.419
311.022	18.777	845.948	638.756
312.037	18.652	845.612	637.980
313.052	18.431	844.865	636.539
314.066	18.316	844.219	635.570
315.081	18.633	843.557	636.192
316.095	18.453	842.957	635.015
317.110	18.444	842.511	634.589
318.125	18.458	842.162	634.325
319.139	18.292	841.789	633.373
320.154	18.639	841.140	634.110
321.168	18.424	840.724	632.947
322.183	18.532	839.915	632.680
323.197	18.668	839.875	633.097
324.212	18.525	839.131	631.952
325.227	18.583	838.695	631.780
326.241	18.560	838.016	631.130
327.256	18.634	837.044	630.615
328.270	18.635	836.643	630.258
329.285	18.416	836.240	629.094
330.300	18.451	835.307	628.466
331.314	18.685	835.021	629.055
332.329	18.704	834.671	628.803
333.343	18.751	834.261	628.610
334.358	18.594	834.017	627.796
335.373	18.918	833.238	628.339
336.387	18.914	833.124	628.183
337.402	18.969	833.011	628.242
338.416	19.095	832.615	628.348
339.431	19.150	832.292	628.251
340.446	19.325	831.515	628.244
341.460	19.354	831.364	628.181
342.475	19.287	831.074	627.665
343.489	19.302	830.587	627.294
344.504	19.351	829.759	626.791
345.519	19.238	829.788	626.348
346.533	19.204	829.022	625.591
347.548	19.099	828.418	624.698
348.562	19.000	827.577	623.650
349.577	19.100	827.154	623.637
350.592	18.906	826.499	622.387
351.606	18.922	825.795	621.859
352.621	18.989	825.035	621.474
353.635	18.938	824.692	620.978
354.650	19.053	824.192	620.961
355.665	19.187	823.567	620.916
356.679	19.117	823.116	620.271
357.694	19.227	821.986	619.759
358.708	19.140	821.776	619.233
359.723	19.152	821.101	618.712
360.738	19.100	820.383	617.930
361.752	19.272	819.766	618.029
362.767	19.426	819.195	618.096
363.781	19.518	818.723	618.013
364.796	19.603	818.724	618.263
365.810	19.584	818.341	617.853
366.825	19.575	818.008	617.513
367.840	19.503	817.568	616.869
368.854	19.449	816.535	615.844
369.869	19.433	816.330	615.575
370.883	19.527	816.123	615.701
371.898	19.846	815.715	616.478
372.913	19.636	815.275	615.341
373.927	19.503	814.786	614.445
374.942	19.625	814.339	614.486
375.956	19.716	814.104	614.577
376.971	19.803	813.748	614.565
377.986	19.914	812.843	614.221
379.000	19.953	812.331	613.919
380.015	19.714	812.092	612.837
381.029	19.837	811.405	612.698
382.044	19.906	810.477	612.189
383.059	19.995	810.064	612.138
384.073	19.720	809.273	610.512
385.088	19.770	808.855	610.321
386.102	19.639	808.316	609.399
387.117	19.696	807.517	608.941
388.132	19.561	807.021	608.038
389.146	19.802	806.631	608.540
390.161	19.814	806.491	608.421
391.175	19.942	806.000	608.447
392.190	19.712	805.168	606.959
393.205	19.644	805.004	606.543
394.219	19.623	804.662	606.156
395.234	19.592	804.129	605.593
396.248	19.649	803.365	605.165
397.263	19.482	802.782	604.087
398.278	19.577	802.572	604.207
399.292	19.393	802.276	603.286
400.307	19.600	801.946	603.710
401.321	19.504	801.432	602.935
402.336	19.637	801.151	603.135
403.350	19.849	800.157	603.070
404.365	19.891	799.848	602.930
405.380	19.939	799.856	603.052
406.394	19.983	799.194	602.652
407.409	20.096	798.694	602.615
408.423	20.158	798.587	602.698
409.438	20.079	798.515	602.313
410.453	20.191	797.808	602.116
411.467	20.328	797.056	601.971
412.482	20.417	796.724	601.974
413.496	20.297	796.799	601.562
414.511	20.437	796.327	601.637
415.526	20.382	795.486	600.759
416.540	20.232	795.170	599.950
417.555	20.395	794.730	600.127
418.569	20.385	794.144	599.596
419.584	20.315	793.959	599.163
420.599	20.307	793.632	598.835
421.613	162.476	1372.023	1797.528
422.628	140.856	1456.293	1797.590
