DTS Sentinel unit serial number:	SN413079Multiplexer serial number:	ORYXHardware model number:	OX4-SRSoftware version number:	ORYX F/W v4.00 Oryx Data Collector v3.7.2.0data status	okinstallation	princeton_trtdifferential loss correction	single-endedforward channel	channel 1reverse channel	N/Adate	2019/09/13time	07:26:35forward acquisition time	60.00reverse acquisition time	0.00gamma	496.2192k internal	0.2335k external	0.2335temperature offset calibration	1.0161default loss term (dB/km)	0.3790temperature slope calibration	1.0000multiplexer offset coefficient	1.0000multiplexer slope coefficient	1.0000fibre end	0.00T internal ref (°C)	26.17T ext. ref 1 (°C)	4.19T ext. ref 2 (°C)	21.87length (m)	temperature (°C)	Stokes	anti-Stokes-747.200	-100.825	0.140	0.035
-746.185	224.483	-0.150	0.244
-745.171	-72.473	-0.290	0.108
-744.156	-200.000	0.051	0.243
-743.142	164.404	0.168	0.237
-742.127	-59.656	-0.268	0.115
-741.112	-200.000	-0.023	0.239
-740.098	-29.948	-0.180	-0.103
-739.083	-56.101	0.399	-0.179
-738.069	-98.411	-0.058	-0.015
-737.054	800.000	0.058	-0.221
-736.039	86.750	-0.057	-0.063
-735.025	-79.633	0.485	0.164
-734.010	40.450	-0.233	-0.211
-732.996	-82.251	0.311	0.102
-731.981	-200.000	0.024	0.249
-730.966	-67.051	-0.099	0.039
-729.952	-102.977	-0.313	0.075
-728.937	-200.000	0.020	-0.102
-727.923	-60.775	-0.233	-0.099
-726.908	-87.550	-0.136	0.041
-725.894	-174.958	0.188	0.005
-724.879	800.000	0.074	-0.295
-723.864	441.359	0.085	0.187
-722.850	68.022	0.276	-0.284
-721.835	-100.880	-0.184	-0.045
-720.821	144.624	0.016	-0.021
-719.806	16.339	-0.299	0.237
-718.791	-200.000	0.018	-0.325
-717.777	31.319	-0.142	0.123
-716.762	189.077	0.236	-0.355
-715.748	-69.393	-0.333	-0.128
-714.733	79.025	-0.189	-0.203
-713.718	-200.000	-0.015	0.134
-712.704	374.909	-0.057	0.117
-711.689	-36.491	-0.320	-0.173
-710.675	234.871	0.093	0.154
-709.660	304.515	-0.152	-0.283
-708.645	164.073	0.147	-0.208
-707.631	800.000	-0.049	0.190
-706.616	-106.398	-0.221	0.049
-705.602	-157.005	-0.108	0.007
-704.587	52.425	0.151	0.145
-703.572	37.817	-0.242	-0.216
-702.558	153.139	-0.123	0.169
-701.543	-6.713	0.182	-0.125
-700.529	-104.263	0.257	-0.060
-699.514	147.477	0.121	-0.164
-698.499	-79.655	0.160	-0.054
-697.485	-35.797	0.181	-0.099
-696.470	-200.000	-0.038	0.193
-695.456	62.766	0.148	-0.148
-694.441	106.513	0.102	-0.121
-693.426	-146.113	-0.249	0.022
-692.412	575.019	0.054	-0.131
-691.397	-62.736	0.053	0.022
-690.383	-42.704	0.219	-0.112
-689.368	-66.557	0.220	-0.087
-688.354	-56.859	-0.147	0.065
-687.339	-177.065	0.151	0.004
-686.324	-47.622	0.173	-0.084
-685.310	-200.000	-0.013	0.207
-684.295	49.373	0.110	-0.104
-683.281	-184.178	-0.183	-0.003
-682.266	-150.499	0.346	0.027
-681.251	197.465	0.084	0.128
-680.237	104.548	0.269	0.317
-679.222	-30.344	-0.295	-0.168
-678.208	-139.448	-0.118	-0.013
-677.193	-200.000	-0.009	0.050
-676.178	-200.000	-0.011	0.151
-675.164	-200.000	-0.530	0.001
-674.149	683.081	0.041	-0.107
-673.135	-142.987	0.391	0.038
-672.120	-15.539	-0.271	-0.173
-671.105	336.197	-0.120	-0.234
-670.091	-39.040	0.237	0.125
-669.076	-200.000	-0.011	0.099
-668.062	-155.938	0.238	0.015
-667.047	163.447	-0.084	0.118
-666.032	-70.329	-0.326	-0.124
-665.018	102.577	-0.162	-0.189
-664.003	800.000	-0.075	-0.292
-662.989	88.298	-0.095	0.106
-661.974	-200.000	0.021	-0.140
-660.959	-42.221	-0.159	0.081
-659.945	-164.840	0.208	-0.009
-658.930	196.614	0.023	-0.035
-657.916	800.000	0.083	-0.331
-656.901	12.502	0.051	-0.040
-655.886	-174.839	0.095	0.003
-654.872	-200.000	0.027	-0.214
-653.857	69.954	-0.311	-0.321
-652.843	7.902	0.121	0.091
-651.828	-163.691	-0.265	0.012
-650.814	-5.349	0.082	0.056
-649.799	301.780	-0.037	-0.068
-648.784	-104.895	0.063	0.014
-647.770	210.711	0.168	0.265
-646.755	-200.000	0.020	0.143
-645.741	-26.801	-0.362	0.212
-644.726	-32.729	0.330	0.184
-643.711	13.617	0.149	0.116
-642.697	-200.000	0.042	0.245
-641.682	-200.000	0.045	-0.278
-640.668	-200.000	-0.007	-0.129
-639.653	-152.566	-0.141	0.010
-638.638	242.574	-0.110	0.184
-637.624	83.781	-0.220	-0.240
-636.609	-93.472	-0.413	-0.114
-635.595	-27.518	-0.117	0.068
-634.580	-200.000	-0.011	-0.068
-633.565	125.483	-0.093	-0.118
-632.551	49.334	0.085	0.080
-631.536	115.261	-0.178	-0.218
-630.522	-136.869	0.194	0.022
-629.507	-163.231	-0.167	0.008
-628.492	-200.000	-0.007	0.058
-627.478	105.484	0.210	-0.249
-626.463	-200.000	-0.044	-0.215
-625.449	-126.238	-0.076	-0.011
-624.434	-109.106	0.130	0.028
-623.419	-200.000	0.018	-0.126
-622.405	15.635	0.014	-0.011
-621.390	63.094	-0.269	0.269
-620.376	800.000	0.016	0.057
-619.361	-61.084	0.238	0.100
-618.346	-73.348	-0.115	-0.042
-617.332	-177.461	-0.242	-0.006
-616.317	129.148	0.103	-0.131
-615.303	243.521	-0.072	0.121
-614.288	-200.000	-0.009	0.163
-613.273	800.000	-0.039	0.152
-612.259	148.157	-0.186	-0.251
-611.244	208.084	0.093	-0.145
-610.230	99.840	-0.062	0.072
-609.215	800.000	-0.050	0.206
-608.201	-117.834	0.387	-0.069
-607.186	-0.645	0.137	-0.097
-606.171	-116.380	0.197	0.036
-605.157	-187.728	0.181	0.002
-604.142	295.374	0.073	0.134
-603.128	-34.417	0.284	0.156
-602.113	627.201	0.046	0.115
-601.098	338.335	-0.045	0.088
-600.084	-33.387	-0.195	0.108
-599.069	-59.868	0.305	0.130
-598.055	797.359	-0.099	0.272
-597.040	39.669	-0.083	0.074
-596.025	800.000	-0.093	-0.258
-595.011	516.494	0.059	-0.138
-593.996	-200.000	0.033	0.162
-592.982	800.000	-0.044	-0.135
-591.967	800.000	-0.053	0.195
-590.952	192.806	0.240	-0.362
-589.938	191.286	-0.104	0.156
-588.923	-9.332	0.068	0.046
-587.909	-26.924	-0.131	0.076
-586.894	121.090	-0.112	-0.139
-585.879	-12.249	0.152	-0.099
-584.865	112.483	-0.225	0.272
-583.850	-200.000	0.047	0.277
-582.836	185.647	-0.156	0.232
-581.821	-200.000	-0.080	0.426
-580.806	-200.000	-0.000	-0.185
-579.792	-200.000	-0.020	-0.171
-578.777	55.812	-0.129	0.125
-577.763	-141.155	0.299	-0.031
-576.748	-200.000	0.008	-0.259
-575.733	32.501	0.168	-0.145
-574.719	-94.829	-0.164	0.044
-573.704	800.000	-0.099	0.294
-572.690	-200.000	-0.022	0.177
-571.675	34.226	0.150	-0.130
-570.661	-200.000	0.012	-0.076
-569.646	-166.945	-0.245	-0.010
-568.631	-13.699	0.167	0.108
-567.617	-9.365	-0.215	-0.143
-566.602	-42.597	-0.402	-0.204
-565.588	10.419	-0.214	-0.163
-564.573	425.657	-0.098	-0.210
-563.558	-200.000	0.013	-0.094
-562.544	-182.516	-0.227	-0.004
-561.529	136.310	-0.079	0.103
-560.515	69.086	0.133	-0.137
-559.500	-94.540	-0.071	0.019
-558.485	800.000	-0.090	0.264
-557.471	-105.303	0.449	-0.102
-556.456	531.516	-0.138	-0.326
-555.442	-200.000	-0.002	0.081
-554.427	81.823	-0.206	0.223
-553.412	800.000	0.048	-0.164
-552.398	-200.000	-0.016	-0.161
-551.383	32.404	-0.068	-0.058
-550.369	-69.985	-0.392	-0.149
-549.354	655.890	0.054	0.137
-548.339	315.853	0.056	0.105
-547.325	167.117	0.280	-0.396
-546.310	-200.000	0.028	-0.203
-545.296	-200.000	0.014	-0.357
-544.281	-65.943	0.135	0.054
-543.266	-51.738	-0.280	0.130
-542.252	-175.744	-0.471	-0.013
-541.237	-111.567	0.175	0.035
-540.223	800.000	0.049	-0.148
-539.208	-128.453	0.241	0.034
-538.193	-22.570	0.224	-0.135
-537.179	-187.370	-0.061	-0.001
-536.164	369.952	-0.033	0.067
-535.150	-48.142	0.228	0.110
-534.135	-31.010	0.083	0.047
-533.121	-144.321	-0.385	-0.036
-532.106	-56.871	0.371	0.163
-531.091	349.854	0.087	0.171
-530.077	-200.000	-0.096	-0.466
-529.062	57.832	0.082	0.080
-528.048	18.747	0.192	-0.153
-527.033	53.602	0.291	-0.278
-526.018	800.000	0.086	-0.348
-525.004	-200.000	-0.021	0.388
-523.989	514.537	-0.054	0.126
-522.975	169.597	-0.087	-0.124
-521.960	-9.324	0.178	0.119
-520.945	4.241	-0.249	-0.182
-519.931	800.000	-0.018	-0.054
-518.916	-200.000	0.012	0.060
-517.902	-153.507	0.407	0.028
-516.887	-45.373	0.029	0.014
-515.872	54.153	0.253	0.242
-514.858	-130.110	0.357	-0.048
-513.843	800.000	-0.053	-0.167
-512.829	800.000	0.080	-0.249
-511.814	79.533	0.340	0.364
-510.799	-46.308	0.420	0.206
-509.785	-15.283	0.188	0.120
-508.770	-98.519	-0.184	0.047
-507.756	-200.000	0.037	0.283
-506.741	219.162	-0.207	0.330
-505.726	707.890	-0.046	0.122
-504.712	473.674	-0.156	-0.351
-503.697	-167.700	-0.200	-0.008
-502.683	58.263	-0.050	-0.049
-501.668	-51.517	-0.194	0.090
-500.653	-200.000	-0.005	-0.132
-499.639	-56.550	0.263	-0.116
-498.624	-60.200	-0.260	-0.110
-497.610	-78.171	0.038	0.013
-496.595	800.000	0.073	0.301
-495.581	32.476	0.249	-0.214
-494.566	-39.541	0.065	-0.034
-493.551	-200.000	-0.018	-0.304
-492.537	-123.236	0.349	-0.056
-491.522	-200.000	0.006	-0.275
-490.508	-42.335	-0.116	-0.059
-489.493	37.121	0.026	-0.023
-488.478	-200.000	0.026	-0.226
-487.464	29.207	-0.206	-0.174
-486.449	43.819	-0.072	-0.066
-485.435	-166.437	-0.274	-0.011
-484.420	-85.926	0.114	0.035
-483.405	484.525	0.086	0.196
-482.391	-22.880	-0.166	0.100
-481.376	0.233	0.120	-0.085
-480.362	391.942	-0.038	-0.079
-479.347	800.000	0.014	-0.044
-478.332	14.284	0.126	0.098
-477.318	45.359	-0.183	-0.168
-476.303	-111.673	-0.194	-0.039
-475.289	65.556	0.107	-0.108
-474.274	-133.395	0.186	-0.023
-473.259	800.000	0.071	-0.268
-472.245	119.942	-0.165	-0.204
-471.230	-56.694	0.141	0.062
-470.216	-200.000	0.021	0.339
-469.201	-138.257	-0.149	-0.016
-468.186	-200.000	0.007	0.172
-467.172	365.647	0.134	0.269
-466.157	800.000	-0.071	-0.240
-465.143	-200.000	0.005	0.138
-464.128	-109.997	-0.288	-0.060
-463.113	146.177	-0.075	0.100
-462.099	729.336	-0.012	0.031
-461.084	-200.000	0.057	0.364
-460.070	-50.519	0.383	0.180
-459.055	-143.642	0.275	0.026
-458.040	-123.724	-0.260	-0.041
-457.026	98.810	0.219	-0.252
-456.011	-50.635	-0.053	-0.025
-454.997	800.000	-0.062	-0.236
-453.982	217.122	-0.085	0.134
-452.968	800.000	0.055	0.228
-451.953	676.824	0.018	0.045
-450.938	-200.000	-0.004	0.119
-449.924	-174.037	-0.390	0.011
-448.909	800.000	0.072	-0.263
-447.895	-71.856	0.110	0.041
-446.880	740.349	-0.088	-0.234
-445.865	-32.497	0.227	-0.126
-444.851	-200.000	0.100	0.473
-443.836	-110.948	0.207	0.042
-442.822	800.000	-0.096	-0.390
-441.807	-200.000	-0.011	0.363
-440.792	-67.126	-0.384	-0.150
-439.778	-99.297	0.102	-0.026
-438.763	-200.000	-0.002	-0.067
-437.749	20.725	0.198	0.159
-436.734	-200.000	-0.027	-0.155
-435.719	433.285	0.179	-0.386
-434.705	-200.000	0.007	-0.121
-433.690	-146.130	0.262	-0.023
-432.676	-105.810	-0.052	0.012
-431.661	-123.282	-0.188	-0.030
-430.646	800.000	0.045	-0.137
-429.632	270.933	-0.086	0.151
-428.617	247.163	0.100	0.168
-427.603	-200.000	0.039	0.419
-426.588	78.230	-0.100	0.106
-425.573	201.871	0.231	0.353
-424.559	-145.110	0.214	0.019
-423.544	-147.057	-0.132	-0.011
-422.530	627.960	-0.104	0.261
-421.515	800.000	-0.072	-0.311
-420.500	-200.000	0.014	-0.088
-419.486	286.206	0.132	0.236
-418.471	44.831	-0.077	-0.070
-417.457	22.760	-0.063	-0.051
-416.442	-200.000	-0.020	0.192
-415.428	-46.425	-0.218	-0.106
-414.413	129.125	0.217	0.274
-413.398	61.566	-0.263	0.260
-412.384	-200.000	-0.017	-0.215
-411.369	-200.000	0.028	0.180
-410.355	-188.266	-0.130	-0.002
-409.340	42.353	-0.233	-0.210
-408.325	-92.618	0.175	-0.049
-407.311	-60.362	0.104	0.044
-406.296	210.605	0.368	-0.573
-405.282	229.362	-0.211	-0.342
-404.267	3.114	-0.060	-0.043
-403.252	196.125	-0.195	0.294
-402.238	-53.015	0.179	-0.082
-401.223	-2.277	0.241	0.168
-400.209	142.477	0.119	-0.156
-399.194	-36.568	-0.369	-0.197
-398.179	-200.000	-0.064	0.387
-397.165	-200.000	0.047	-0.216
-396.150	-65.015	0.148	0.059
-395.136	-36.467	-0.190	0.102
-394.121	148.563	-0.100	0.134
-393.106	-200.000	-0.004	0.035
-392.092	745.620	0.090	-0.241
-391.077	-51.184	0.253	-0.117
-390.063	-182.910	0.251	0.004
-389.048	615.825	0.096	-0.239
-388.033	-164.491	0.464	-0.021
-387.019	37.443	-0.047	-0.041
-386.004	200.678	-0.115	-0.175
-384.990	800.000	0.025	0.090
-383.975	-8.889	0.187	0.124
-382.960	182.226	-0.164	0.239
-381.946	-0.998	0.086	0.060
-380.931	-39.005	0.110	-0.057
-379.917	67.284	-0.058	0.059
-378.902	-133.716	-0.350	0.043
-377.888	147.391	0.052	0.069
-376.873	192.131	-0.136	0.203
-375.858	-28.665	0.079	0.045
-374.844	128.677	0.203	0.257
-373.829	800.000	-0.048	0.157
-372.815	78.630	-0.255	-0.270
-371.800	800.000	-0.046	0.181
-370.785	481.862	-0.037	0.083
-369.771	153.825	-0.289	0.392
-368.756	130.154	-0.175	0.222
-367.742	-200.000	-0.053	0.236
-366.727	-166.629	0.027	-0.001
-365.712	415.593	-0.063	0.134
-364.698	-135.081	-0.099	-0.012
-363.683	144.542	-0.191	-0.253
-362.669	-105.376	-0.060	0.013
-361.654	-200.000	0.018	-0.129
-360.639	584.225	-0.158	-0.383
-359.625	-42.548	0.275	-0.139
-358.610	260.569	0.109	-0.186
-357.596	800.000	-0.105	-0.401
-356.581	422.495	-0.128	-0.273
-355.566	138.582	-0.154	0.200
-354.552	-82.791	-0.133	0.043
-353.537	-85.645	-0.210	-0.065
-352.523	-187.206	-0.369	-0.005
-351.508	710.245	-0.125	0.326
-350.493	-0.360	0.182	-0.128
-349.479	800.000	-0.162	-0.504
-348.464	257.851	-0.096	-0.163
-347.450	9.105	0.268	0.200
-346.435	-15.591	0.083	0.052
-345.420	-106.089	0.430	-0.096
-344.406	-108.316	0.344	-0.073
-343.391	-10.472	-0.153	-0.100
-342.377	399.661	-0.136	-0.283
-341.362	-200.000	0.005	0.084
-340.348	-200.000	-0.020	0.208
-339.333	8.141	-0.168	0.125
-338.318	-56.666	0.201	-0.088
-337.304	112.068	-0.256	0.306
-336.289	-10.308	0.219	0.144
-335.275	-28.108	-0.110	-0.063
-334.260	-200.000	0.037	0.299
-333.245	5.740	-0.175	-0.128
-332.231	2.001	0.117	-0.083
-331.216	61.946	-0.131	-0.129
-330.202	-168.507	-0.309	-0.012
-329.187	132.223	-0.079	-0.101
-328.172	55.463	0.289	-0.277
-327.158	532.466	0.195	-0.456
-326.143	104.944	-0.291	-0.339
-325.129	-21.722	0.090	-0.054
-324.114	-127.475	-0.159	0.023
-323.099	306.971	0.089	0.164
-322.085	-89.839	0.050	0.014
-321.070	12.245	-0.198	0.151
-320.056	-143.129	0.336	-0.032
-319.041	53.737	0.219	0.208
-318.026	91.050	-0.235	-0.260
-317.012	800.000	0.113	0.409
-315.997	-200.000	0.010	0.208
-314.983	-140.700	-0.401	0.041
-313.968	59.087	0.112	0.109
-312.953	191.886	-0.165	-0.246
-311.939	-23.483	0.196	-0.116
-310.924	24.750	0.052	-0.043
-309.910	-27.022	-0.226	-0.130
-308.895	533.345	-0.070	0.164
-307.880	129.374	-0.164	0.207
-306.866	-14.329	-0.067	0.042
-305.851	0.263	-0.218	-0.154
-304.837	-100.256	-0.400	-0.098
-303.822	-62.197	0.052	0.022
-302.807	-159.879	-0.247	-0.013
-301.793	-27.261	0.307	-0.177
-300.778	550.433	-0.106	0.250
-299.764	47.909	0.266	0.245
-298.749	-50.683	0.151	0.070
-297.735	-15.939	0.113	0.071
-296.720	-200.000	0.059	-0.309
-295.705	658.298	-0.072	-0.184
-294.691	-107.505	-0.137	0.030
-293.676	184.714	0.196	-0.287
-292.662	99.170	0.066	-0.076
-291.647	94.143	-0.189	0.211
-290.632	261.816	0.016	0.027
-289.618	-96.193	0.173	0.045
-288.603	189.365	-0.117	-0.173
-287.589	-79.338	0.226	-0.076
-286.574	800.000	0.040	-0.111
-285.559	548.085	-0.069	0.162
-284.545	159.626	0.247	0.339
-283.530	-106.364	0.165	-0.036
-282.516	39.356	0.045	0.040
-281.501	-15.208	0.117	0.074
-280.486	24.976	0.273	-0.223
-279.472	1.106	-0.058	-0.041
-278.457	266.216	0.001	-0.002
-277.443	-200.000	-0.004	0.049
-276.428	800.000	0.043	0.184
-275.413	327.794	0.059	0.111
-274.399	10.529	-0.133	0.100
-273.384	180.196	0.024	-0.034
-272.370	-2.141	0.319	0.221
-271.355	800.000	0.019	-0.074
-270.340	-21.301	-0.201	0.121
-269.326	46.591	0.151	0.138
-268.311	800.000	0.072	0.220
-267.297	-4.670	0.133	-0.091
-266.282	184.111	0.097	0.142
-265.267	-200.000	-0.019	-0.194
-264.253	-59.783	-0.207	0.087
-263.238	-167.177	-0.158	0.006
-262.224	34.602	0.158	0.136
-261.209	-6.975	0.239	-0.160
-260.195	-162.957	-0.062	0.003
-259.180	-44.799	0.174	0.086
-258.165	-21.392	0.297	0.179
-257.151	202.786	-0.165	-0.252
-256.136	691.748	-0.121	-0.311
-255.122	247.014	-0.107	-0.178
-254.107	46.270	0.090	-0.082
-253.092	-200.000	0.021	0.228
-252.078	800.000	-0.044	-0.140
-251.063	26.266	0.084	0.069
-250.049	800.000	0.046	-0.134
-249.034	800.000	-0.035	-0.150
-248.019	-120.149	0.219	-0.037
-247.005	204.910	-0.215	-0.329
-245.990	-61.832	-0.124	-0.051
-244.976	55.232	0.232	-0.221
-243.961	387.302	-0.279	0.569
-242.946	800.000	-0.014	0.052
-241.932	-200.000	0.003	0.211
-240.917	248.572	0.085	-0.141
-239.903	178.054	0.169	-0.243
-238.888	-57.811	0.113	0.049
-237.873	800.000	0.095	0.359
-236.859	176.224	-0.153	0.219
-235.844	-49.542	-0.144	0.068
-234.830	-94.152	-0.328	-0.088
-233.815	129.388	-0.054	-0.067
-232.800	-200.000	-0.007	0.086
-231.786	-69.690	-0.134	0.051
-230.771	-4.342	-0.187	-0.127
-229.757	-30.750	0.430	0.240
-228.742	295.957	0.079	-0.143
-227.727	548.987	0.100	0.236
-226.713	-72.826	0.160	-0.058
-225.698	623.376	0.029	-0.073
-224.684	162.234	0.172	0.238
-223.669	-68.612	-0.101	-0.039
-222.655	-53.215	-0.157	-0.071
-221.640	-156.175	-0.156	0.010
-220.625	166.115	0.304	-0.424
-219.611	76.037	-0.319	-0.332
-218.596	800.000	-0.102	0.292
-217.582	-86.655	-0.245	0.074
-216.567	113.466	0.080	-0.096
-215.552	-110.362	0.334	0.068
-214.538	-94.614	0.115	0.031
-213.523	-49.567	-0.203	-0.095
-212.509	225.339	-0.155	-0.246
-211.494	185.766	0.100	-0.146
-210.479	22.914	-0.173	-0.140
-209.465	800.000	-0.083	-0.260
-208.450	-99.692	-0.224	-0.055
-207.436	-36.399	0.157	0.083
-206.421	96.712	-0.044	0.050
-205.406	-19.573	0.184	-0.112
-204.392	182.488	0.100	0.144
-203.377	-200.000	0.010	-0.072
-202.363	-7.608	-0.273	-0.181
-201.348	101.912	-0.342	0.393
-200.333	177.268	0.108	0.154
-199.319	291.200	-0.073	0.131
-198.304	226.025	0.142	0.227
-197.290	100.229	-0.182	0.208
-196.275	800.000	-0.048	0.201
-195.260	-135.272	0.268	-0.032
-194.246	269.056	-0.109	0.189
-193.231	800.000	-0.048	0.165
-192.217	190.206	-0.134	-0.197
-191.202	-138.499	-0.143	0.015
-190.187	-59.187	-0.038	-0.016
-189.173	682.172	-0.134	0.344
-188.158	9.821	-0.240	-0.179
-187.144	215.463	-0.051	-0.079
-186.129	273.097	-0.131	0.228
-185.114	-200.000	0.002	-0.019
-184.100	29.293	0.139	0.116
-183.085	-115.314	0.100	-0.019
-182.071	17.317	-0.239	0.186
-181.056	86.311	0.028	-0.031
-180.042	-200.000	-0.021	-0.443
-179.027	-149.474	0.229	-0.018
-178.012	431.272	-0.057	-0.120
-176.998	110.960	0.177	0.209
-175.983	-65.749	0.033	0.013
-174.969	-33.346	0.117	-0.064
-173.954	-200.000	0.015	-0.198
-172.939	159.181	-0.094	-0.128
-171.925	-200.000	0.003	0.044
-170.910	-200.000	-0.008	-0.179
-169.896	203.892	-0.094	0.143
-168.881	20.758	-0.278	-0.221
-167.866	389.400	0.070	0.143
-166.852	-166.609	0.189	-0.008
-165.837	-200.000	0.006	-0.255
-164.823	-101.974	-0.230	-0.055
-163.808	177.484	0.248	0.355
-162.793	-120.733	-0.099	0.016
-161.779	30.590	-0.283	0.237
-160.764	-200.000	-0.017	-0.076
-159.750	-188.459	0.333	0.004
-158.735	800.000	-0.148	-0.409
-157.720	125.609	-0.121	0.150
-156.706	800.000	0.081	0.226
-155.691	-98.448	0.363	0.091
-154.677	144.673	0.076	-0.099
-153.662	301.045	0.102	0.185
-152.647	-74.723	0.281	0.099
-151.633	-83.899	-0.198	-0.062
-150.618	60.919	-0.148	-0.144
-149.604	40.379	0.327	-0.289
-148.589	-74.510	0.368	0.130
-147.574	715.731	-0.117	0.304
-146.560	-143.821	0.168	0.016
-145.545	-200.000	0.006	0.116
-144.531	79.232	-0.163	-0.172
-143.516	800.000	0.091	-0.266
-142.502	169.308	0.029	0.040
-141.487	43.354	0.238	0.214
-140.472	66.479	-0.054	-0.053
-139.458	185.246	0.139	0.202
-138.443	129.770	-0.111	0.140
-137.429	627.983	-0.165	-0.408
-136.414	800.000	0.058	-0.240
-135.399	-200.000	0.019	-0.266
-134.385	-200.000	0.086	-0.438
-133.370	-0.870	0.277	0.193
-132.356	-90.473	-0.336	-0.095
-131.341	206.503	0.134	-0.205
-130.326	-200.000	-0.011	-0.055
-129.312	-101.336	-0.211	0.051
-128.297	-200.000	-0.024	0.488
-127.283	354.377	-0.189	0.369
-126.268	16.561	-0.209	0.162
-125.253	41.012	0.195	0.172
-124.239	-124.343	0.219	-0.034
-123.224	-200.000	-0.021	0.159
-122.210	-200.000	-0.013	0.304
-121.195	-128.162	-0.017	-0.002
-120.180	-156.433	0.102	0.006
-119.166	-51.993	0.126	0.058
-118.151	-17.535	-0.203	-0.125
-117.137	-200.000	0.015	0.090
-116.122	302.454	-0.120	0.217
-115.107	-200.000	0.024	-0.139
-114.093	-200.000	-0.068	0.000
-113.078	-200.000	0.036	-0.259
-112.064	134.540	-0.131	0.166
-111.049	243.542	0.051	0.083
-110.034	-102.184	0.183	-0.043
-109.020	-123.584	0.147	-0.023
-108.005	-200.000	0.007	0.100
-106.991	-90.448	-0.264	0.075
-105.976	-200.000	-0.009	0.059
-104.962	406.566	0.141	0.292
-103.947	-95.076	0.218	-0.058
-102.932	-109.140	0.040	0.008
-101.918	22.364	0.116	-0.093
-100.903	-200.000	0.004	0.161
-99.889	-90.107	-0.115	-0.033
-98.874	30.450	-0.215	0.180
-97.859	608.577	0.051	0.125
-96.845	-200.000	0.006	-0.053
-95.830	-21.412	0.209	0.125
-94.816	-37.588	0.139	-0.073
-93.801	74.483	-0.110	0.113
-92.786	-200.000	-0.018	-0.080
-91.772	800.000	-0.079	-0.272
-90.757	147.179	0.093	0.123
-89.743	-61.653	-0.250	0.103
-88.728	-75.897	0.221	-0.077
-87.713	-75.921	-0.134	-0.046
-86.699	479.409	0.101	-0.225
-85.684	23.127	-0.111	0.089
-84.670	197.160	0.048	0.072
-83.655	192.642	-0.106	0.157
-82.640	174.768	-0.050	-0.071
-81.626	142.590	0.277	0.360
-80.611	-10.821	0.228	0.148
-79.597	40.038	0.188	0.165
-78.582	65.307	-0.320	0.317
-77.567	148.524	0.070	-0.093
-76.553	-133.823	0.124	-0.015
-75.538	-200.000	0.006	-0.336
-74.524	184.004	-0.069	-0.101
-73.509	228.626	0.058	-0.093
-72.494	124.973	0.114	-0.141
-71.480	275.093	0.187	-0.325
-70.465	-200.000	0.060	0.341
-69.451	634.631	0.088	0.218
-68.436	-26.357	0.079	0.045
-67.422	460.209	0.139	0.304
-66.407	418.227	-0.144	0.302
-65.392	77.355	-0.077	-0.080
-64.378	-200.000	0.025	-0.220
-63.363	800.000	-0.052	-0.204
-62.349	49.165	-0.117	0.107
-61.334	120.487	-0.956	-1.162
-60.319	-47.087	1.030	0.492
-59.305	800.000	-0.289	-0.979
-58.290	140.833	1.017	1.315
-57.276	578.761	0.664	1.588
-56.261	-200.000	117.384	652.556
-55.246	498.820	1550.342	3493.883
-54.232	173.638	2721.453	3841.353
-53.217	105.323	2157.331	2491.832
-52.203	37.823	1588.357	1380.187
-51.188	29.377	1330.604	1105.789
-50.173	26.634	1291.723	1057.449
-49.159	53.592	1350.297	1267.100
-48.144	51.667	1363.438	1267.917
-47.130	29.676	1317.637	1096.614
-46.115	26.301	1298.982	1061.265
-45.100	26.017	1294.560	1055.950
-44.086	25.895	1292.205	1053.272
-43.071	25.939	1289.737	1051.478
-42.057	25.790	1288.058	1049.195
-41.042	26.046	1285.536	1048.591
-40.027	25.977	1284.273	1047.117
-39.013	26.020	1282.352	1045.756
-37.998	26.067	1280.437	1044.425
-36.984	26.074	1278.434	1042.794
-35.969	26.168	1276.744	1041.913
-34.954	26.266	1274.635	1040.715
-33.940	26.235	1273.246	1039.363
-32.925	26.130	1272.195	1037.863
-31.911	26.179	1271.131	1037.230
-30.896	26.257	1269.711	1036.480
-29.881	26.300	1268.066	1035.342
-28.867	26.222	1267.034	1034.012
-27.852	26.305	1265.146	1032.906
-26.838	26.257	1264.248	1031.855
-25.823	26.206	1262.956	1030.469
-24.809	26.236	1261.060	1029.052
-23.794	26.184	1260.429	1028.201
-22.779	26.281	1258.810	1027.392
-21.765	26.302	1257.384	1026.307
-20.750	26.243	1256.636	1025.322
-19.736	26.188	1255.246	1023.833
-18.721	26.128	1253.833	1022.304
-17.706	26.169	1252.858	1021.699
-16.692	26.171	1251.488	1020.552
-15.677	26.247	1250.354	1020.013
-14.663	26.102	1249.176	1018.196
-13.648	26.120	1248.215	1017.474
-12.633	26.132	1247.228	1016.697
-11.619	26.050	1246.953	1015.971
-10.604	26.164	1245.526	1015.410
-9.590	26.228	1244.218	1014.663
-8.575	26.129	1243.870	1013.778
-7.560	26.079	1243.085	1012.819
-6.546	26.162	1241.944	1012.314
-5.531	26.065	1241.232	1011.152
-4.517	25.989	1240.376	1009.990
-3.502	26.030	1239.489	1009.455
-2.487	26.087	1238.085	1008.592
-1.473	26.048	1234.417	1005.343
-0.458	24.710	1220.367	986.485
0.556	23.236	1204.391	951.702
1.571	19.699	1210.355	937.187
2.586	18.996	1225.199	944.739
3.600	18.682	1213.199	933.691
4.615	14.369	1142.568	857.114
5.629	7.530	1070.844	770.162
6.644	4.478	1053.244	742.855
7.659	4.134	1051.111	739.643
8.673	4.078	1049.813	738.398
9.688	4.072	1048.437	737.337
10.702	4.409	1046.688	737.643
11.717	8.902	1052.439	763.056
12.731	16.532	1063.874	807.860
13.746	21.199	1069.653	834.539
14.761	22.078	1069.688	838.690
15.775	21.319	1068.384	833.970
16.790	20.393	1066.302	827.862
17.804	19.833	1064.792	823.947
18.819	19.611	1063.916	822.143
19.834	19.565	1063.435	821.479
20.848	19.464	1062.669	820.335
21.863	19.234	1061.809	818.507
22.877	19.049	1061.002	816.930
23.892	19.167	1060.261	816.846
24.907	19.023	1059.516	815.519
25.921	19.085	1058.263	814.774
26.936	19.003	1057.561	813.776
27.950	19.097	1055.932	812.896
28.965	19.087	1054.914	811.991
29.980	19.300	1053.439	811.788
30.994	19.448	1052.133	811.408
32.009	19.466	1051.231	810.722
33.023	19.360	1050.460	809.559
34.038	19.237	1049.340	808.047
35.053	19.117	1048.487	806.756
36.067	19.154	1047.321	805.963
37.082	19.160	1046.842	805.549
38.096	19.345	1046.405	806.008
39.111	19.329	1045.158	804.902
40.126	19.190	1043.599	802.983
41.140	18.798	1042.578	800.297
42.155	18.662	1041.503	798.767
43.169	18.630	1040.057	797.441
44.184	18.583	1039.639	796.833
45.199	18.600	1038.759	796.167
46.213	18.881	1037.069	796.102
47.228	19.179	1036.894	797.278
48.242	19.257	1035.616	796.585
49.257	19.165	1034.890	795.529
50.271	19.118	1034.483	794.930
51.286	19.325	1033.377	794.963
52.301	19.169	1032.324	793.367
53.315	19.004	1031.147	791.631
54.330	18.823	1030.681	790.370
55.344	18.871	1029.407	789.545
56.359	18.930	1028.388	788.962
57.374	18.764	1027.508	787.456
58.388	18.681	1026.846	786.501
59.403	18.519	1026.073	785.096
60.417	18.614	1025.188	784.784
61.432	18.487	1024.635	783.713
62.447	18.487	1023.559	782.821
63.461	18.472	1022.554	781.913
64.476	18.452	1021.248	780.752
65.490	18.397	1020.952	780.209
66.505	18.477	1020.309	780.013
67.520	18.540	1019.022	779.246
68.534	18.487	1018.837	778.795
69.549	18.454	1018.134	778.038
70.563	18.350	1017.134	776.731
71.578	18.305	1016.247	775.785
72.593	18.246	1015.286	774.714
73.607	18.238	1014.641	774.116
74.622	18.148	1014.359	773.427
75.636	18.256	1013.833	773.444
76.651	18.410	1012.626	773.151
77.666	18.369	1012.658	772.921
78.680	18.387	1011.734	772.228
79.695	18.468	1011.127	772.061
80.709	18.497	1010.754	771.838
81.724	18.723	1010.172	772.344
82.739	18.844	1009.022	771.939
83.753	19.037	1008.596	772.413
84.768	19.485	1008.268	774.100
85.782	19.669	1007.091	773.954
86.797	19.630	1006.197	773.026
87.812	19.233	1005.705	770.803
88.826	19.291	1004.189	769.829
89.841	19.470	1003.715	770.198
90.855	19.546	1002.626	769.635
91.870	19.577	1001.667	768.967
92.884	19.380	1001.276	767.722
93.899	19.325	1000.680	766.955
94.914	19.536	999.889	767.216
95.928	19.402	999.180	766.009
96.943	19.327	997.839	764.582
97.957	19.286	996.541	763.339
98.972	19.315	995.808	762.835
99.987	19.372	995.184	762.545
101.001	19.355	993.909	761.422
102.016	19.273	993.124	760.391
103.030	19.203	993.315	760.161
104.045	19.465	991.429	759.809
105.060	19.271	990.541	758.207
106.074	18.916	989.360	755.673
107.089	18.595	988.352	753.428
108.103	18.685	987.216	752.892
109.118	18.608	986.239	751.740
110.133	18.561	985.307	750.759
111.147	18.538	984.443	749.933
112.162	18.624	983.756	749.720
113.176	18.669	983.693	749.799
114.191	18.728	982.881	749.374
115.206	18.747	981.987	748.707
116.220	18.575	981.355	747.410
117.235	18.668	980.384	747.012
118.249	18.668	979.064	745.937
119.264	18.570	978.261	744.833
120.279	18.514	977.517	743.960
121.293	18.423	976.650	742.838
122.308	18.287	976.101	741.767
123.322	18.337	974.719	740.867
124.337	18.179	974.262	739.769
125.352	18.278	972.638	738.901
126.366	18.404	971.875	738.800
127.381	18.243	970.701	737.148
128.395	18.319	969.951	736.839
129.410	18.435	968.984	736.537
130.424	18.699	968.257	737.054
131.439	18.588	968.011	736.324
132.454	18.636	967.271	735.904
133.468	18.632	966.595	735.306
134.483	18.731	965.404	734.760
135.497	18.754	964.584	734.167
136.512	18.846	963.685	733.811
137.527	18.817	962.978	733.084
138.541	18.715	962.284	732.059
139.556	18.772	961.793	731.860
140.570	18.996	961.772	732.735
141.585	19.233	960.392	732.629
142.600	19.226	959.969	732.209
143.614	19.385	958.803	731.932
144.629	19.328	958.294	731.235
145.643	19.414	956.983	730.533
146.658	18.992	956.222	728.104
147.673	18.913	954.796	726.619
148.687	18.821	954.085	725.624
149.702	18.696	953.350	724.475
150.716	18.748	952.343	723.864
151.731	18.952	951.544	724.051
152.746	18.964	951.250	723.816
153.760	18.852	950.559	722.753
154.775	18.995	949.966	722.839
155.789	19.119	949.317	722.803
156.804	19.109	948.409	722.007
157.819	19.254	948.081	722.298
158.833	19.421	947.383	722.403
159.848	19.491	946.914	722.274
160.862	19.197	945.726	720.074
161.877	19.041	944.216	718.212
162.892	18.785	943.138	716.259
163.906	18.765	942.221	715.418
164.921	18.835	941.551	715.136
165.935	18.910	940.911	714.898
166.950	18.955	939.998	714.330
167.964	19.055	939.338	714.182
168.979	18.968	937.826	712.607
169.994	18.943	937.221	711.981
171.008	18.906	936.896	711.518
172.023	19.275	936.118	712.388
173.037	19.402	935.702	712.536
174.052	19.243	934.524	710.918
175.067	18.923	933.680	708.895
176.081	18.723	933.022	707.507
177.096	18.695	932.641	707.039
178.110	18.844	931.991	707.098
179.125	18.961	931.456	707.110
180.140	18.986	930.975	706.784
181.154	19.212	930.782	707.507
182.169	19.457	929.795	707.698
183.183	19.364	929.760	707.228
184.198	19.411	928.394	706.317
185.213	19.314	928.137	705.663
186.227	19.388	928.050	705.837
187.242	19.459	927.460	705.617
188.256	19.687	926.457	705.722
189.271	19.558	926.123	704.878
190.286	19.216	924.926	702.512
191.300	18.882	923.178	699.760
192.315	18.562	922.802	698.112
193.329	18.810	922.345	698.711
194.344	18.992	921.787	698.968
195.359	19.076	921.496	699.027
196.373	19.129	920.767	698.627
197.388	19.456	920.437	699.642
198.402	19.539	920.256	699.777
199.417	19.779	919.624	700.206
200.432	19.863	918.865	699.906
201.446	19.893	919.197	700.218
202.461	19.892	918.426	699.568
203.475	19.849	917.498	698.624
204.490	19.612	916.726	697.020
205.504	19.350	915.754	695.163
206.519	19.391	915.135	694.794
207.534	19.387	914.094	693.927
208.548	19.375	913.702	693.521
209.563	19.450	913.290	693.446
210.577	19.526	912.553	693.130
211.592	19.693	911.892	693.239
212.607	19.816	911.326	693.240
213.621	19.852	910.239	692.494
214.636	19.579	910.380	691.448
215.650	19.701	909.315	691.066
216.665	19.813	908.669	690.960
217.680	19.952	907.860	690.842
218.694	20.017	906.944	690.340
219.709	19.937	906.585	689.688
220.723	19.842	905.747	688.612
221.738	19.770	904.982	687.684
222.753	19.836	904.667	687.646
223.767	19.899	904.121	687.420
224.782	20.055	903.862	687.781
225.796	19.956	903.566	687.100
226.811	19.988	902.583	686.419
227.826	19.760	901.521	684.648
228.840	19.656	900.843	683.660
229.855	19.796	900.027	683.535
230.869	19.718	898.989	682.379
231.884	19.683	898.317	681.669
232.899	19.511	897.846	680.576
233.913	19.545	896.744	679.814
234.928	19.440	896.655	679.271
235.942	19.436	895.800	678.548
236.957	19.367	895.270	677.817
237.972	19.481	894.677	677.754
238.986	19.403	894.206	677.031
240.001	19.467	893.405	676.616
241.015	19.682	892.930	677.037
242.030	19.726	892.439	676.777
243.045	19.754	891.959	676.466
244.059	19.751	891.193	675.812
245.074	19.753	890.718	675.402
246.088	19.947	890.426	675.878
247.103	20.029	889.495	675.429
248.117	20.183	889.484	675.963
249.132	20.458	889.406	676.915
250.147	20.789	888.742	677.638
251.161	20.848	888.138	677.345
252.176	20.826	887.493	676.710
253.190	20.956	886.552	676.438
254.205	20.894	886.553	676.135
255.220	20.787	885.705	675.014
256.234	20.796	884.819	674.315
257.249	20.700	883.856	673.149
258.263	20.748	882.923	672.564
259.278	20.703	882.671	672.140
260.293	20.885	882.243	672.456
261.307	21.025	881.913	672.688
262.322	20.845	881.623	671.713
263.336	20.926	880.555	671.151
264.351	20.913	879.602	670.315
265.366	20.766	879.101	669.309
266.380	20.912	878.744	669.539
267.395	20.845	877.572	668.327
268.409	20.734	876.898	667.332
269.424	20.683	876.319	666.637
270.439	20.624	875.420	665.667
271.453	20.497	874.818	664.664
272.468	20.588	874.129	664.430
273.482	20.639	873.692	664.236
274.497	20.659	873.182	663.865
275.512	20.683	872.367	663.278
276.526	20.619	872.228	662.867
277.541	20.649	871.772	662.579
278.555	20.887	871.139	662.945
279.570	21.093	870.852	663.452
280.585	21.034	869.785	662.356
281.599	20.752	868.887	660.543
282.614	20.719	867.964	659.657
283.628	20.609	867.682	658.969
284.643	20.818	867.052	659.221
285.657	20.563	866.572	657.833
286.672	20.702	865.774	657.696
287.687	20.709	865.447	657.414
288.701	20.764	864.644	656.954
289.716	20.806	863.889	656.482
290.730	20.727	863.672	655.961
291.745	20.863	863.138	656.009
292.760	21.019	862.580	656.114
293.774	21.155	861.966	656.101
294.789	20.928	861.408	654.766
295.803	20.828	860.373	653.546
296.818	20.777	859.693	652.779
297.833	20.793	859.132	652.355
298.847	20.694	858.663	651.572
299.862	20.840	858.532	651.958
300.876	20.986	857.659	651.785
301.891	21.035	857.584	651.853
302.906	21.387	856.659	652.407
303.920	21.497	856.198	652.409
304.935	21.498	855.796	652.048
305.949	21.387	855.082	651.034
306.964	21.128	854.523	649.586
307.979	21.254	853.414	649.153
308.993	21.225	853.461	649.025
310.008	21.404	852.840	649.160
311.022	21.213	852.349	648.020
312.037	21.085	851.468	646.818
313.052	20.821	850.869	645.326
314.066	20.722	850.095	644.316
315.081	20.725	849.473	643.801
316.095	20.797	848.644	643.379
317.110	20.688	848.419	642.751
318.125	20.680	848.273	642.554
319.139	20.690	847.477	641.931
320.154	20.802	847.044	641.957
321.168	20.890	846.468	641.787
322.183	20.944	845.880	641.484
323.197	21.077	845.299	641.477
324.212	20.950	845.053	640.768
325.227	20.914	844.308	640.014
326.241	20.773	843.801	639.055
327.256	21.032	842.691	639.107
328.270	20.790	842.569	638.071
329.285	20.692	841.787	637.064
330.300	20.814	841.357	637.128
331.314	20.923	840.784	637.034
332.329	21.106	840.614	637.518
333.343	21.279	840.029	637.652
334.358	21.242	839.724	637.229
335.373	21.340	839.265	637.179
336.387	21.342	839.321	637.175
337.402	21.379	839.082	637.072
338.416	21.624	838.769	637.667
339.431	21.673	838.447	637.545
340.446	21.924	837.766	637.883
341.460	21.857	837.423	637.324
342.475	21.739	837.481	636.882
343.489	21.977	836.933	637.274
344.504	21.997	836.143	636.688
345.519	22.018	835.862	636.493
346.533	22.071	834.813	635.831
347.548	21.687	834.437	634.098
348.562	21.411	833.930	632.659
349.577	21.342	833.019	631.663
350.592	21.328	832.465	631.135
351.606	21.091	831.677	629.627
352.621	21.128	831.042	629.224
353.635	21.509	830.245	629.938
354.650	21.517	829.629	629.441
355.665	21.500	829.413	629.162
356.679	21.605	828.961	629.141
357.694	21.750	828.221	629.045
358.708	21.684	827.212	627.986
359.723	21.633	826.946	627.547
360.738	21.613	826.368	626.978
361.752	21.646	825.881	626.673
362.767	21.863	825.079	626.784
363.781	21.973	825.448	627.403
364.796	22.308	824.437	627.775
365.810	22.330	824.456	627.813
366.825	22.312	824.340	627.604
367.840	21.983	823.431	625.683
368.854	22.062	823.170	625.711
369.869	22.064	822.029	624.795
370.883	22.045	822.149	624.762
371.898	22.176	821.825	624.930
372.913	22.238	821.067	624.518
373.927	22.044	820.959	623.691
374.942	22.175	820.406	623.680
375.956	22.168	820.238	623.473
376.971	22.367	819.406	623.490
377.986	22.373	819.360	623.422
379.000	22.545	818.314	623.178
380.015	22.333	818.240	622.317
381.029	22.425	817.419	621.962
382.044	22.395	816.782	621.315
383.059	22.627	816.160	621.606
384.073	22.303	815.545	619.941
385.088	22.070	814.761	618.470
386.102	21.985	814.175	617.672
387.117	22.012	813.508	617.205
388.132	22.103	812.612	616.793
389.146	22.154	812.404	616.757
390.161	22.144	812.669	616.868
391.175	22.469	811.955	617.413
392.190	22.339	811.012	616.184
393.205	22.058	810.796	614.984
394.219	22.001	810.397	614.427
395.234	22.098	809.424	613.974
396.248	21.972	808.712	612.939
397.263	21.856	808.375	612.223
398.278	21.764	808.612	612.027
399.292	21.696	807.983	611.261
400.307	21.634	807.428	610.570
401.321	21.888	806.864	610.976
402.336	21.850	806.585	610.579
403.350	22.176	806.225	611.384
404.365	22.197	806.082	611.297
405.380	22.487	805.420	611.746
406.394	22.548	805.064	611.634
407.409	22.537	805.132	611.594
408.423	22.623	804.500	611.357
409.438	22.752	804.187	611.514
410.453	22.717	803.888	611.109
411.467	22.833	803.153	610.898
412.482	22.966	802.413	610.742
413.496	23.077	802.557	611.179
414.511	22.840	802.167	610.010
415.526	22.786	801.591	609.331
416.540	22.788	801.071	608.892
417.555	22.822	800.563	608.567
418.569	22.870	799.999	608.251
419.584	22.705	800.038	607.655
420.599	22.745	799.602	607.411
421.613	165.369	1370.809	1796.491
422.628	143.718	1454.004	1796.595
