DTS Sentinel unit serial number:	SN413079Multiplexer serial number:	ORYXHardware model number:	OX4-SRSoftware version number:	ORYX F/W v4.00 Oryx Data Collector v3.7.2.0data status	okinstallation	princeton_trtdifferential loss correction	single-endedforward channel	channel 1reverse channel	N/Adate	2019/09/10time	20:48:11forward acquisition time	60.00reverse acquisition time	0.00gamma	496.2192k internal	0.2328k external	0.2328temperature offset calibration	0.9939default loss term (dB/km)	0.3790temperature slope calibration	1.0000multiplexer offset coefficient	1.0000multiplexer slope coefficient	1.0000fibre end	0.00T internal ref (°C)	31.75T ext. ref 1 (°C)	-0.32T ext. ref 2 (°C)	25.26length (m)	temperature (°C)	Stokes	anti-Stokes-747.200	-200.000	-0.019	-0.157
-746.185	-157.835	0.237	0.014
-745.171	-200.000	0.004	0.087
-744.156	-200.000	-0.019	0.215
-743.142	174.971	-0.070	0.101
-742.127	-74.425	-0.190	0.069
-741.112	55.601	-0.229	0.224
-740.098	79.913	0.206	0.223
-739.083	339.161	-0.045	0.089
-738.069	-28.293	0.185	0.108
-737.054	-75.705	0.249	-0.089
-736.039	191.986	-0.056	-0.085
-735.025	-86.413	0.204	0.063
-734.010	241.038	-0.127	-0.214
-732.996	166.310	-0.161	-0.230
-731.981	-152.997	-0.154	-0.011
-730.966	111.562	0.111	-0.135
-729.952	-165.150	0.051	0.002
-728.937	-200.000	0.003	-0.409
-727.923	-181.319	-0.358	-0.007
-726.908	-136.466	-0.240	-0.028
-725.894	-109.726	-0.336	-0.071
-724.879	-3.284	-0.304	-0.214
-723.864	-15.157	0.061	0.039
-722.850	-145.034	0.345	0.032
-721.835	-121.724	-0.123	0.021
-720.821	200.543	0.087	0.135
-719.806	125.941	0.057	0.072
-718.791	382.185	-0.119	-0.246
-717.777	98.931	-0.121	0.141
-716.762	800.000	0.018	0.074
-715.748	169.137	-0.124	-0.177
-714.733	-119.634	0.324	0.056
-713.718	-37.789	-0.133	-0.071
-712.704	-37.004	0.259	-0.140
-711.689	-88.193	0.274	-0.083
-710.675	237.441	-0.172	0.288
-709.660	-159.601	-0.192	0.011
-708.645	-3.363	-0.151	0.106
-707.631	-200.000	-0.255	0.001
-706.616	88.304	-0.118	-0.132
-705.602	-131.625	-0.200	-0.026
-704.587	-114.393	0.104	0.020
-703.572	-200.000	0.005	0.081
-702.558	130.675	0.144	-0.185
-701.543	70.387	0.204	0.212
-700.529	-105.795	0.198	-0.045
-699.514	-200.000	0.002	-0.105
-698.499	145.217	-0.049	0.066
-697.485	82.297	0.107	-0.116
-696.470	-200.000	-0.011	-0.450
-695.456	-25.110	-0.190	0.113
-694.441	800.000	0.155	-0.493
-693.426	-74.131	-0.328	-0.120
-692.412	118.991	0.122	0.152
-691.397	422.378	-0.066	-0.142
-690.383	8.194	0.034	0.025
-689.368	-136.543	-0.133	0.015
-688.354	-19.312	-0.283	-0.177
-687.339	-16.452	0.065	-0.041
-686.324	-129.963	-0.410	-0.057
-685.310	-87.517	0.113	0.034
-684.295	72.706	-0.266	-0.279
-683.281	-200.000	0.004	0.224
-682.266	-200.000	0.021	-0.210
-681.251	124.279	-0.134	-0.170
-680.237	-200.000	-0.022	-0.181
-679.222	-113.540	-0.309	-0.061
-678.208	-79.366	0.422	-0.144
-677.193	-24.929	-0.091	0.054
-676.178	-200.000	-0.004	-0.055
-675.164	-108.594	-0.172	0.037
-674.149	245.357	0.131	-0.221
-673.135	800.000	-0.020	0.080
-672.120	-182.155	-0.294	0.006
-671.105	93.503	0.067	0.076
-670.091	800.000	-0.040	-0.114
-669.076	-135.844	0.239	-0.028
-668.062	800.000	-0.051	-0.144
-667.047	-69.360	0.221	-0.085
-666.032	591.747	0.024	-0.061
-665.018	-48.554	0.247	-0.119
-664.003	-184.200	0.244	0.004
-662.989	-126.778	-0.223	-0.033
-661.974	6.121	-0.083	-0.062
-660.959	800.000	0.125	0.351
-659.945	736.663	0.032	-0.087
-658.930	-200.000	0.018	-0.174
-657.916	32.971	0.089	0.077
-656.901	70.807	-0.167	-0.174
-655.886	327.925	0.189	0.365
-654.872	-13.247	-0.256	0.167
-653.857	-48.606	-0.193	0.093
-652.843	-155.533	-0.186	0.012
-651.828	-200.000	0.042	0.190
-650.814	494.142	0.060	-0.137
-649.799	-76.450	-0.247	0.087
-648.784	286.501	0.147	-0.266
-647.770	45.324	-0.074	0.069
-646.755	-30.056	0.091	-0.052
-645.741	-189.132	-0.264	0.003
-644.726	-116.955	-0.293	-0.054
-643.711	-90.101	-0.153	0.045
-642.697	370.745	0.032	0.065
-641.682	130.698	0.252	0.324
-640.668	10.441	0.074	0.056
-639.653	-1.878	0.251	-0.177
-638.638	100.358	-0.070	0.081
-637.624	800.000	-0.024	0.103
-636.609	800.000	0.093	0.261
-635.595	38.079	-0.265	0.236
-634.580	19.684	0.107	0.086
-633.565	-38.632	-0.152	0.081
-632.551	-85.165	-0.344	0.108
-631.536	414.332	-0.077	0.165
-630.522	-96.940	-0.288	-0.076
-629.507	54.549	0.244	-0.236
-628.492	41.388	-0.022	0.020
-627.478	-42.890	0.241	0.123
-626.463	-58.378	-0.355	0.155
-625.449	150.759	-0.107	-0.146
-624.434	-24.078	-0.318	0.190
-623.419	800.000	0.079	0.304
-622.405	-200.000	0.004	-0.084
-621.390	-200.000	-0.068	0.345
-620.376	-128.601	0.286	-0.041
-619.361	25.219	0.088	0.073
-618.346	181.997	0.173	-0.256
-617.332	-128.153	0.196	0.028
-616.317	159.290	-0.052	-0.072
-615.303	110.086	0.237	-0.285
-614.288	10.272	-0.139	0.106
-613.273	800.000	0.090	-0.328
-612.259	-200.000	0.019	-0.199
-611.244	57.158	0.111	0.109
-610.230	800.000	0.024	-0.069
-609.215	-68.857	0.236	-0.091
-608.201	800.000	-0.026	-0.106
-607.186	-27.109	-0.177	-0.104
-606.171	-200.000	-0.004	0.021
-605.157	-200.000	-0.011	0.514
-604.142	194.020	-0.271	0.412
-603.128	110.489	-0.358	-0.431
-602.113	681.218	-0.047	0.122
-601.098	-0.082	-0.326	0.232
-600.084	-66.867	-0.285	0.113
-599.069	-60.852	0.149	-0.063
-598.055	67.104	-0.118	-0.121
-597.040	116.402	0.017	0.020
-596.025	70.186	0.160	-0.166
-595.011	99.250	0.174	0.202
-593.996	-97.265	0.266	0.070
-592.982	102.413	-0.142	-0.166
-591.967	612.924	-0.105	0.263
-590.952	55.049	-0.123	-0.119
-589.938	-37.738	0.159	-0.085
-588.923	-200.000	-0.002	0.204
-587.909	-200.000	0.033	0.381
-586.894	800.000	-0.066	-0.259
-585.879	155.899	-0.301	-0.415
-584.865	48.076	-0.455	0.426
-583.850	193.367	-0.097	-0.147
-582.836	-115.580	0.184	-0.035
-581.821	-61.464	-0.355	0.149
-580.806	-177.924	0.135	-0.003
-579.792	274.853	0.220	-0.389
-578.777	-139.895	-0.130	-0.014
-577.763	-160.335	-0.344	-0.019
-576.748	-77.224	-0.354	-0.123
-575.733	-8.318	-0.114	0.077
-574.719	-94.478	-0.148	-0.040
-573.704	374.529	0.056	0.113
-572.690	342.379	-0.177	-0.346
-571.675	-200.000	0.013	0.077
-570.661	530.334	0.081	0.192
-569.646	439.685	-0.024	0.053
-568.631	800.000	0.097	-0.289
-567.617	-71.166	0.389	-0.146
-566.602	-200.000	0.029	-0.288
-565.588	-137.172	0.314	0.036
-564.573	-169.452	-0.435	0.016
-563.558	-49.730	0.107	0.051
-562.544	29.619	-0.300	-0.255
-561.529	16.892	0.063	-0.050
-560.515	-200.000	0.002	0.157
-559.500	-200.000	-0.056	-0.330
-558.485	-200.000	0.023	0.109
-557.471	-131.803	0.143	0.019
-556.456	55.538	0.249	0.242
-555.442	-15.559	-0.337	-0.215
-554.427	-180.454	-0.291	-0.006
-553.412	-35.829	0.503	-0.272
-552.398	-90.588	0.375	-0.109
-551.383	8.811	-0.090	-0.068
-550.369	585.802	0.128	-0.314
-549.354	73.148	-0.050	0.052
-548.339	134.320	-0.173	0.225
-547.325	-76.008	-0.194	0.069
-546.310	164.243	-0.083	-0.117
-545.296	248.784	0.146	0.247
-544.281	-200.000	-0.032	0.205
-543.266	279.486	0.238	0.425
-542.252	800.000	-0.029	0.090
-541.237	-55.218	0.076	0.034
-540.223	122.191	0.180	-0.224
-539.208	-50.297	-0.228	-0.108
-538.193	-21.815	-0.110	0.067
-537.179	51.183	-0.294	-0.279
-536.164	148.568	-0.155	0.209
-535.150	-94.121	-0.210	-0.057
-534.135	-118.974	-0.121	-0.021
-533.121	-24.229	-0.029	0.017
-532.106	-138.927	-0.387	0.042
-531.091	-135.458	-0.283	-0.034
-530.077	-200.000	-0.000	0.159
-529.062	277.670	0.059	0.104
-528.048	-122.362	0.037	-0.006
-527.033	718.404	-0.043	0.113
-526.018	-94.683	0.080	0.022
-525.004	-45.559	0.171	0.084
-523.989	503.056	-0.122	0.283
-522.975	-57.531	-0.171	0.075
-521.960	-53.210	0.144	0.066
-520.945	-115.060	-0.268	0.051
-519.931	-200.000	0.022	-0.129
-518.916	13.121	-0.325	0.252
-517.902	128.352	0.100	-0.127
-516.887	389.468	-0.156	-0.322
-515.872	-200.000	0.007	0.209
-514.858	800.000	0.112	-0.342
-513.843	-39.744	-0.118	-0.061
-512.829	-200.000	-0.018	-0.130
-511.814	-200.000	-0.023	-0.130
-510.799	-19.766	0.135	0.083
-509.785	126.617	0.071	-0.089
-508.770	167.466	0.099	-0.141
-507.756	-104.544	0.185	0.043
-506.741	-200.000	-0.014	-0.252
-505.726	-82.513	-0.213	-0.069
-504.712	121.831	-0.172	-0.214
-503.697	-200.000	0.004	0.021
-502.683	800.000	0.029	-0.103
-501.668	-66.664	-0.264	0.104
-500.653	210.232	-0.077	0.120
-499.639	-200.000	-0.022	-0.162
-498.624	238.323	0.072	0.120
-497.610	109.526	0.266	0.318
-496.595	800.000	0.089	-0.255
-495.581	-138.308	0.297	-0.033
-494.566	-29.126	-0.242	-0.139
-493.551	-94.563	0.158	0.043
-492.537	317.967	-0.133	-0.252
-491.522	-14.949	-0.149	-0.095
-490.508	-32.022	-0.190	-0.106
-489.493	223.534	0.078	0.125
-488.478	-46.516	-0.145	0.071
-487.464	-75.594	-0.052	0.019
-486.449	1.411	-0.123	-0.088
-485.435	800.000	-0.017	0.054
-484.420	180.305	0.221	0.323
-483.405	-71.217	-0.245	-0.092
-482.391	62.392	-0.021	0.021
-481.376	-200.000	-0.009	-0.362
-480.362	-200.000	0.012	0.068
-479.347	119.683	0.189	-0.233
-478.332	-189.966	0.262	-0.003
-477.318	-137.524	0.228	-0.026
-476.303	144.172	-0.065	0.086
-475.289	514.203	-0.091	0.212
-474.274	-85.104	0.081	0.025
-473.259	-200.000	-0.017	-0.129
-472.245	176.964	-0.051	0.074
-471.230	68.317	-0.158	0.161
-470.216	-75.673	-0.372	0.132
-469.201	238.978	-0.075	-0.124
-468.186	-12.233	-0.089	-0.058
-467.172	350.282	0.122	-0.240
-466.157	120.374	0.210	-0.260
-465.143	257.732	-0.202	0.346
-464.128	-21.567	-0.034	-0.021
-463.113	-77.983	0.127	-0.044
-462.099	233.965	0.113	0.185
-461.084	487.838	-0.127	0.289
-460.070	-159.738	0.484	0.027
-459.055	-28.999	-0.196	0.112
-458.040	-200.000	-0.029	0.207
-457.026	-200.000	-0.011	-0.185
-456.011	-148.840	-0.269	0.022
-454.997	-65.748	-0.357	-0.143
-453.982	800.000	-0.070	0.202
-452.968	-155.049	0.064	0.004
-451.953	327.138	-0.092	-0.176
-450.938	-200.000	-0.022	0.271
-449.924	800.000	-0.073	0.263
-448.909	21.933	-0.327	-0.266
-447.895	8.580	-0.099	-0.074
-446.880	110.031	-0.122	0.146
-445.865	800.000	-0.050	0.192
-444.851	-200.000	0.006	0.589
-443.836	-200.000	-0.004	-0.172
-442.822	179.675	0.027	-0.039
-441.807	-5.327	-0.146	-0.100
-440.792	-54.155	-0.179	0.081
-439.778	-101.506	-0.246	0.060
-438.763	-132.048	-0.283	0.037
-437.749	104.650	0.274	0.322
-436.734	94.334	0.125	0.142
-435.719	-200.000	-0.071	0.419
-434.705	-200.000	0.012	-0.163
-433.690	429.733	-0.102	-0.219
-432.676	62.439	0.174	0.173
-431.661	174.212	0.173	-0.249
-430.646	-30.109	0.247	-0.140
-429.632	-14.130	-0.178	0.115
-428.617	-23.174	0.380	0.228
-427.603	288.208	0.022	-0.040
-426.588	800.000	-0.049	0.191
-425.573	-97.391	-0.076	-0.020
-424.559	289.835	0.140	0.253
-423.544	-70.425	-0.205	0.077
-422.530	-200.000	-0.017	0.145
-421.515	-200.000	0.033	0.319
-420.500	-200.000	-0.042	-0.325
-419.486	235.585	-0.042	0.069
-418.471	-200.000	0.019	-0.239
-417.457	-200.000	0.042	-0.250
-416.442	800.000	-0.037	-0.102
-415.428	701.169	-0.079	-0.206
-414.413	800.000	0.109	-0.391
-413.398	-200.000	0.000	-0.079
-412.384	86.286	0.173	-0.190
-411.369	683.451	0.150	0.390
-410.355	-200.000	-0.017	0.113
-409.340	747.691	-0.062	-0.166
-408.325	-17.679	0.313	-0.196
-407.311	-106.362	0.074	0.016
-406.296	-161.062	-0.252	0.013
-405.282	129.650	0.264	0.336
-404.267	-143.622	0.329	-0.031
-403.252	-63.812	0.059	0.024
-402.238	594.992	0.151	0.370
-401.223	-5.936	-0.102	0.069
-400.209	-200.000	-0.035	-0.292
-399.194	-35.433	-0.134	-0.073
-398.179	-94.621	-0.341	-0.092
-397.165	426.450	-0.099	-0.212
-396.150	19.367	0.231	0.184
-395.136	-98.713	0.127	0.032
-394.121	-200.000	-0.000	0.186
-393.106	373.248	-0.085	-0.172
-392.092	-84.723	-0.383	0.120
-391.077	120.859	-0.091	0.113
-390.063	-46.102	0.088	-0.043
-389.048	-188.016	-0.183	-0.002
-388.033	-80.312	0.269	0.089
-387.019	-59.547	0.134	-0.057
-386.004	242.778	0.126	-0.210
-384.990	-65.893	0.239	-0.095
-383.975	-97.070	0.124	0.032
-382.960	-41.242	-0.117	0.060
-381.946	-63.552	0.225	0.092
-380.931	-200.000	0.021	-0.242
-379.917	-46.719	-0.235	0.115
-378.902	-51.439	0.031	0.014
-377.888	-105.370	-0.505	-0.114
-376.873	-99.300	0.376	0.094
-375.858	-92.887	-0.162	0.045
-374.844	123.834	0.022	0.028
-373.829	-99.182	0.190	-0.048
-372.815	787.485	-0.085	-0.233
-371.800	-200.000	-0.058	-0.310
-370.785	-200.000	0.032	0.147
-369.771	5.626	-0.083	-0.061
-368.756	-46.706	0.156	-0.076
-367.742	8.062	-0.196	-0.146
-366.727	-124.569	0.230	-0.035
-365.712	209.139	-0.085	0.131
-364.698	-67.390	-0.234	0.091
-363.683	-200.000	-0.020	-0.181
-362.669	-69.197	0.201	0.077
-361.654	-2.644	-0.161	0.112
-360.639	-71.768	0.282	0.105
-359.625	-159.504	-0.220	-0.012
-358.610	97.326	0.048	0.054
-357.596	-200.000	-0.024	0.113
-356.581	-200.000	-0.019	0.204
-355.566	-2.119	0.303	-0.211
-354.552	-129.559	-0.234	0.032
-353.537	800.000	0.077	0.297
-352.523	41.040	-0.110	0.098
-351.508	35.718	0.164	0.143
-350.493	-116.176	-0.495	0.091
-349.479	262.485	0.136	-0.233
-348.464	-91.455	0.179	0.051
-347.450	800.000	-0.025	-0.101
-346.435	-159.005	-0.270	0.015
-345.420	-111.531	-0.156	-0.031
-344.406	-98.143	-0.097	-0.025
-343.391	-112.597	0.132	0.026
-342.377	-59.036	0.338	0.145
-341.362	18.933	0.159	-0.126
-340.348	-15.832	-0.101	-0.064
-339.333	56.186	-0.083	-0.080
-338.318	-0.164	0.352	-0.249
-337.304	-170.390	0.202	0.007
-336.289	22.289	-0.046	0.037
-335.275	30.947	0.172	0.146
-334.260	10.468	0.174	0.131
-333.245	24.741	0.145	0.119
-332.231	-149.680	-0.113	0.009
-331.216	155.233	0.074	0.101
-330.202	800.000	0.046	0.174
-329.187	-200.000	-0.022	-0.356
-328.172	669.100	0.083	0.213
-327.158	-113.191	-0.309	0.060
-326.143	60.273	-0.152	0.149
-325.129	-200.000	-0.020	-0.322
-324.114	-78.626	-0.301	0.102
-323.099	366.451	0.117	0.234
-322.085	800.000	0.038	0.145
-321.070	-29.512	0.148	-0.084
-320.056	-2.293	0.097	0.067
-319.041	42.218	0.117	0.105
-318.026	161.486	-0.145	-0.201
-317.012	800.000	0.033	0.139
-315.997	-131.818	-0.153	-0.020
-314.983	-200.000	0.022	-0.173
-313.968	-200.000	0.011	0.056
-312.953	-83.825	-0.010	0.003
-311.939	29.625	-0.069	0.058
-310.924	445.162	-0.019	-0.041
-309.910	76.488	-0.235	0.246
-308.895	216.892	0.083	-0.131
-307.880	137.302	-0.178	-0.231
-306.866	-76.811	-0.265	-0.092
-305.851	-157.462	0.315	0.019
-304.837	-33.769	0.180	0.098
-303.822	-38.998	0.365	-0.190
-302.807	567.343	0.087	0.210
-301.793	-79.701	0.225	0.075
-300.778	-40.048	-0.331	0.171
-299.764	32.398	0.062	-0.053
-298.749	86.315	-0.144	-0.157
-297.735	-106.278	0.212	0.047
-296.720	-6.867	0.215	0.145
-295.705	-180.106	-0.356	0.007
-294.691	-31.244	0.499	0.278
-293.676	55.471	0.276	0.265
-292.662	-48.723	-0.205	-0.098
-291.647	-200.000	0.004	-0.154
-290.632	-200.000	-0.054	0.318
-289.618	-67.860	-0.137	-0.053
-288.603	-97.092	0.273	-0.071
-287.589	41.485	-0.029	0.026
-286.574	101.616	-0.119	-0.137
-285.559	800.000	-0.009	0.029
-284.545	-200.000	0.043	0.239
-283.530	-161.041	0.100	-0.005
-282.516	-200.000	0.048	-0.329
-281.501	130.294	0.046	-0.058
-280.486	-140.364	-0.230	0.024
-279.472	-157.692	0.459	0.027
-278.457	68.225	0.196	-0.199
-277.443	-200.000	0.036	-0.400
-276.428	10.956	-0.186	0.140
-275.413	-88.083	0.149	0.044
-274.399	-62.086	0.077	0.032
-273.384	-87.202	0.248	-0.075
-272.370	-165.162	0.341	-0.015
-271.355	48.669	0.216	-0.201
-270.340	800.000	0.053	0.202
-269.326	139.805	-0.069	0.090
-268.311	74.603	-0.328	-0.341
-267.297	112.927	0.277	0.332
-266.282	-200.000	0.024	0.185
-265.267	-3.775	-0.122	-0.084
-264.253	165.943	-0.053	-0.074
-263.238	-73.565	-0.237	-0.085
-262.224	52.703	0.139	0.132
-261.209	203.737	0.097	0.149
-260.195	146.375	0.155	0.205
-259.180	0.291	-0.084	0.059
-258.165	-16.826	0.118	0.074
-257.151	-55.535	0.202	-0.089
-256.136	800.000	-0.041	-0.119
-255.122	235.525	-0.140	-0.229
-254.107	-75.182	0.251	0.089
-253.092	-119.711	0.287	-0.049
-252.078	-200.000	0.036	0.471
-251.063	-200.000	0.035	0.307
-250.049	-46.985	0.295	-0.143
-249.034	-106.576	0.326	-0.072
-248.019	34.732	-0.102	-0.088
-247.005	-72.411	-0.318	-0.116
-245.990	800.000	-0.015	-0.062
-244.976	-200.000	0.075	-0.424
-243.961	-126.899	0.419	0.061
-242.946	228.495	-0.265	0.427
-241.932	-146.015	-0.028	-0.002
-240.917	146.961	0.249	-0.331
-239.903	-33.279	-0.257	-0.141
-238.888	-86.293	0.221	-0.067
-237.873	800.000	-0.048	-0.184
-236.859	800.000	-0.066	0.276
-235.844	-99.463	0.196	-0.049
-234.830	-200.000	-0.057	-0.248
-233.815	59.112	-0.206	-0.201
-232.800	-156.463	0.378	-0.023
-231.786	800.000	0.050	-0.194
-230.771	35.934	-0.163	-0.142
-229.757	-12.453	0.171	-0.110
-228.742	-200.000	0.001	-0.263
-227.727	209.101	0.164	0.254
-226.713	-200.000	0.010	-0.112
-225.698	90.635	-0.043	0.048
-224.684	-37.224	0.409	0.216
-223.669	-41.720	-0.099	0.050
-222.655	-88.872	-0.048	-0.014
-221.640	203.931	0.075	0.114
-220.625	-50.409	0.067	-0.031
-219.611	82.229	-0.238	-0.255
-218.596	-95.895	-0.108	-0.028
-217.582	-200.000	0.007	0.078
-216.567	156.725	-0.069	0.094
-215.552	-48.460	0.169	-0.080
-214.538	204.364	-0.156	-0.239
-213.523	142.302	-0.108	-0.142
-212.509	-200.000	0.024	0.347
-211.494	-128.504	-0.143	-0.020
-210.479	-200.000	0.004	0.218
-209.465	-73.846	-0.299	-0.107
-208.450	16.855	-0.246	-0.193
-207.436	67.800	-0.257	-0.259
-206.421	-24.577	0.212	0.125
-205.406	-117.416	-0.312	0.056
-204.392	58.878	-0.241	0.234
-203.377	800.000	-0.030	-0.090
-202.363	2.530	0.068	-0.049
-201.348	-114.073	0.252	-0.048
-200.333	800.000	-0.055	-0.208
-199.319	800.000	0.043	0.154
-198.304	53.947	0.047	-0.045
-197.290	-138.424	-0.433	0.047
-196.275	-200.000	0.011	-0.130
-195.260	-200.000	-0.006	0.060
-194.246	440.245	-0.079	0.170
-193.231	-97.773	0.293	-0.075
-192.217	-29.130	-0.180	-0.102
-191.202	-51.792	-0.200	-0.092
-190.187	179.442	0.168	-0.242
-189.173	-10.526	0.266	-0.174
-188.158	481.759	0.096	-0.214
-187.144	-165.073	0.269	0.012
-186.129	-92.640	0.190	0.052
-185.114	286.285	0.090	-0.159
-184.100	218.519	0.092	-0.145
-183.085	800.000	-0.080	-0.313
-182.071	800.000	0.014	-0.051
-181.056	-59.843	-0.148	0.062
-180.042	-114.311	0.199	-0.038
-179.027	-111.177	-0.054	-0.011
-178.012	6.091	0.201	0.147
-176.998	647.290	0.037	-0.093
-175.983	-166.491	0.313	-0.013
-174.969	800.000	-0.133	-0.500
-173.954	800.000	0.053	-0.225
-172.939	27.780	-0.093	0.077
-171.925	-136.688	-0.116	0.013
-170.910	248.943	-0.068	0.113
-169.896	-117.776	0.068	-0.012
-168.881	240.905	0.065	0.107
-167.866	800.000	-0.072	-0.201
-166.852	20.262	0.094	-0.075
-165.837	-78.319	-0.121	0.041
-164.823	800.000	-0.016	-0.047
-163.808	325.157	0.187	0.352
-162.793	35.010	0.339	0.292
-161.779	-124.869	0.417	-0.063
-160.764	800.000	-0.021	-0.071
-159.750	455.636	0.073	-0.158
-158.735	-112.901	0.197	0.038
-157.720	800.000	0.058	-0.179
-156.706	-112.225	0.357	-0.071
-155.691	22.994	-0.158	0.128
-154.677	-76.939	0.124	0.043
-153.662	800.000	0.067	0.240
-152.647	212.001	0.107	0.166
-151.633	-14.827	-0.409	0.258
-150.618	182.192	0.109	0.158
-149.604	-76.119	0.053	0.018
-148.589	105.960	-0.079	0.092
-147.574	-52.862	-0.171	-0.078
-146.560	-19.188	-0.117	-0.071
-145.545	-115.742	0.252	-0.046
-144.531	147.580	0.107	0.142
-143.516	-98.800	0.224	-0.056
-142.502	358.594	0.066	-0.129
-141.487	166.659	0.210	-0.294
-140.472	-90.352	-0.261	-0.075
-139.458	97.004	0.190	0.215
-138.443	195.083	0.175	-0.262
-137.429	-84.708	-0.093	0.029
-136.414	-200.000	-0.061	0.449
-135.399	-127.627	0.061	0.009
-134.385	-78.229	-0.130	0.044
-133.370	-200.000	-0.017	-0.149
-132.356	57.267	-0.330	0.316
-131.341	-200.000	0.005	-0.336
-130.326	-3.120	-0.315	0.216
-129.312	-74.408	0.215	0.076
-128.297	366.162	0.030	0.059
-127.283	-127.816	0.226	0.032
-126.268	561.278	-0.017	-0.040
-125.253	295.619	0.046	0.083
-124.239	-114.460	0.160	-0.030
-123.224	-96.941	-0.045	-0.012
-122.210	-122.959	-0.256	-0.040
-121.195	-69.835	0.426	0.160
-120.180	-54.690	0.235	-0.104
-119.166	-200.000	0.014	-0.104
-118.151	-39.318	-0.024	-0.012
-117.137	78.681	0.105	-0.110
-116.122	-200.000	0.011	-0.228
-115.107	800.000	-0.088	-0.331
-114.093	-200.000	0.151	-0.001
-113.078	-15.499	0.019	0.012
-112.064	209.520	0.089	0.137
-111.049	-153.906	0.337	0.023
-110.034	230.781	0.046	-0.075
-109.020	43.911	-0.215	-0.194
-108.005	-200.000	-0.001	0.019
-106.991	48.441	0.203	-0.187
-105.976	32.119	-0.073	0.062
-104.962	-149.432	-0.308	-0.024
-103.947	-88.774	0.175	0.051
-102.932	-59.756	0.678	0.286
-101.918	-53.832	-0.149	-0.067
-100.903	46.848	-0.187	-0.171
-99.889	-200.000	0.055	-0.236
-98.874	800.000	-0.083	0.305
-97.859	-200.000	0.020	0.210
-96.845	-1.612	0.140	-0.097
-95.830	66.698	0.038	-0.038
-94.816	-200.000	0.007	0.202
-93.801	-142.302	0.080	0.008
-92.786	-200.000	0.008	-0.044
-91.772	164.650	-0.194	0.269
-90.757	38.313	0.172	-0.150
-89.743	800.000	0.043	-0.142
-88.728	-158.477	0.142	0.008
-87.713	-50.701	-0.465	0.215
-86.699	800.000	0.148	0.441
-85.684	107.336	0.209	-0.245
-84.670	-196.012	-0.146	-0.001
-83.655	-174.144	0.281	0.008
-82.640	-147.002	0.506	-0.043
-81.626	-111.310	-0.341	0.068
-80.611	-91.904	-0.087	-0.024
-79.597	-127.302	-0.499	-0.072
-78.582	-137.580	-0.210	-0.023
-77.567	-135.165	-0.015	-0.002
-76.553	-24.557	-0.135	0.079
-75.538	-200.000	0.014	0.191
-74.524	173.147	-0.360	0.510
-73.509	154.823	0.164	-0.222
-72.494	19.100	0.301	-0.237
-71.480	-20.229	-0.338	-0.205
-70.465	-61.774	-0.129	-0.053
-69.451	758.105	-0.118	-0.314
-68.436	49.680	0.123	0.113
-67.422	800.000	-0.044	0.141
-66.407	800.000	-0.048	0.183
-65.392	51.191	0.145	-0.135
-64.378	31.775	0.122	-0.103
-63.363	-89.193	-0.341	0.099
-62.349	51.193	0.300	0.279
-61.334	379.023	-0.556	-1.116
-60.319	-46.848	0.605	0.290
-59.305	800.000	-0.343	-1.034
-58.290	83.628	0.825	0.883
-57.276	800.000	0.517	1.512
-56.261	-200.000	97.888	609.646
-55.246	616.522	1399.133	3443.331
-54.232	193.741	2587.717	3843.039
-53.217	118.380	2144.958	2596.066
-52.203	43.906	1601.090	1438.823
-51.188	35.394	1339.738	1153.034
-50.173	32.080	1298.482	1098.141
-49.159	54.508	1347.045	1273.255
-48.144	56.383	1363.462	1299.875
-47.130	35.406	1321.431	1137.171
-46.115	31.982	1303.926	1101.995
-45.100	31.723	1299.343	1096.559
-44.086	31.625	1296.637	1093.658
-43.071	31.646	1294.107	1091.606
-42.057	31.625	1292.210	1089.839
-41.042	31.671	1290.692	1088.786
-40.027	31.666	1288.881	1087.186
-39.013	31.761	1286.968	1086.080
-37.998	31.692	1285.435	1084.341
-36.984	31.683	1284.150	1083.162
-35.969	31.756	1281.643	1081.425
-34.954	31.858	1280.091	1080.659
-33.940	31.683	1279.466	1079.081
-32.925	31.686	1277.997	1077.817
-31.911	31.771	1276.051	1076.620
-30.896	31.810	1274.813	1075.761
-29.881	31.922	1273.229	1075.024
-28.867	31.894	1271.564	1073.415
-27.852	31.901	1270.497	1072.511
-26.838	31.833	1269.135	1070.928
-25.823	31.896	1267.486	1069.853
-24.809	31.847	1266.470	1068.678
-23.794	31.758	1265.147	1067.009
-22.779	31.911	1263.502	1066.449
-21.765	31.849	1262.424	1065.144
-20.750	31.796	1260.994	1063.595
-19.736	31.740	1259.853	1062.274
-18.721	31.676	1258.941	1061.101
-17.706	31.767	1257.298	1060.188
-16.692	31.716	1256.480	1059.167
-15.677	31.780	1255.165	1058.379
-14.663	31.737	1253.912	1057.038
-13.648	31.669	1252.897	1055.758
-12.633	31.735	1251.975	1055.312
-11.619	31.716	1250.601	1054.002
-10.604	31.630	1250.243	1053.177
-9.590	31.712	1248.940	1052.496
-8.575	31.611	1248.504	1051.520
-7.560	31.688	1247.371	1050.955
-6.546	31.660	1246.497	1050.022
-5.531	31.596	1245.940	1049.150
-4.517	31.706	1244.751	1048.723
-3.502	31.698	1244.150	1048.132
-2.487	31.720	1243.024	1047.265
-1.473	31.621	1239.095	1043.364
-0.458	30.094	1223.948	1022.152
0.556	24.442	1206.021	983.838
1.571	20.647	1211.192	966.917
2.586	19.886	1225.680	974.111
3.600	19.524	1215.129	963.621
4.615	14.075	1143.403	877.964
5.629	4.473	1067.304	771.924
6.644	-0.083	1046.809	734.791
7.659	-0.340	1044.258	731.685
8.673	-0.480	1043.014	730.066
9.688	-0.376	1041.531	729.467
10.702	-0.197	1039.750	729.029
11.717	5.688	1047.985	763.472
12.731	14.676	1061.126	817.150
13.746	18.730	1065.068	839.986
14.761	18.891	1065.266	840.859
15.775	18.790	1064.568	839.739
16.790	18.535	1063.452	837.541
17.804	18.347	1063.594	836.658
18.819	18.548	1062.604	836.787
19.834	18.590	1062.107	836.527
20.848	18.535	1061.782	835.930
21.863	18.534	1060.692	834.991
22.877	18.488	1060.255	834.351
23.892	18.459	1059.498	833.539
24.907	18.635	1058.613	833.622
25.921	18.465	1057.997	832.241
26.936	18.631	1056.607	831.877
27.950	18.434	1054.914	829.518
28.965	18.325	1052.950	827.372
29.980	18.548	1051.114	826.931
30.994	18.648	1050.127	826.566
32.009	18.605	1048.908	825.325
33.023	18.277	1048.289	823.186
34.038	18.402	1047.386	823.005
35.053	18.643	1046.340	823.266
36.067	18.641	1045.461	822.496
37.082	18.725	1044.410	821.996
38.096	18.769	1043.848	821.692
39.111	18.959	1042.830	821.728
40.126	18.795	1041.668	819.955
41.140	18.445	1039.860	816.793
42.155	18.301	1038.360	814.858
43.169	18.333	1037.922	814.591
44.184	18.319	1036.753	813.536
45.199	18.262	1035.404	812.134
46.213	18.315	1034.553	811.648
47.228	18.356	1033.292	810.782
48.242	18.498	1032.302	810.604
49.257	18.488	1031.559	809.902
50.271	18.610	1030.790	809.802
51.286	18.606	1029.705	808.858
52.301	18.595	1028.764	807.994
53.315	18.560	1027.391	806.683
54.330	18.585	1026.840	806.295
55.344	18.603	1026.681	806.185
56.359	18.556	1025.277	804.788
57.374	18.497	1023.960	803.408
58.388	18.527	1023.270	802.935
59.403	18.387	1022.637	801.713
60.417	18.322	1022.032	800.861
61.432	18.417	1020.962	800.396
62.447	18.536	1020.395	800.439
63.461	18.562	1019.542	799.822
64.476	18.501	1018.665	798.776
65.490	18.387	1017.580	797.326
66.505	18.412	1016.849	796.796
67.520	18.513	1015.916	796.467
68.534	18.308	1015.109	794.808
69.549	18.158	1013.890	793.091
70.563	18.071	1012.959	791.887
71.578	18.108	1012.653	791.752
72.593	18.084	1011.149	790.394
73.607	18.061	1010.863	789.995
74.622	18.458	1010.199	791.237
75.636	18.467	1009.595	790.735
76.651	18.270	1008.497	788.899
77.666	18.251	1008.178	788.493
78.680	18.222	1007.398	787.680
79.695	18.360	1006.543	787.577
80.709	18.354	1006.074	787.111
81.724	18.334	1005.433	786.449
82.739	18.354	1004.085	785.416
83.753	18.735	1003.303	786.478
84.768	18.876	1002.478	786.408
85.782	18.811	1001.819	785.524
86.797	18.803	1000.568	784.439
87.812	18.667	999.794	783.140
88.826	18.672	998.684	782.225
89.841	18.818	998.242	782.474
90.855	18.818	997.074	781.492
91.870	18.810	996.002	780.545
92.884	18.658	994.856	778.888
93.899	18.723	994.122	778.538
94.914	18.821	992.986	778.026
95.928	18.662	991.958	776.432
96.943	18.553	990.828	774.983
97.957	18.303	989.467	772.722
98.972	18.115	988.119	770.756
99.987	18.371	987.933	771.697
101.001	18.551	987.166	771.839
102.016	18.579	986.521	771.394
103.030	18.442	985.096	769.596
104.045	18.277	984.223	768.103
105.060	18.111	982.604	766.026
106.074	18.381	982.569	767.142
107.089	18.793	981.844	768.351
108.103	18.638	980.589	766.607
109.118	18.582	979.219	765.221
110.133	18.526	978.582	764.405
111.147	18.447	976.861	762.643
112.162	18.323	976.141	761.460
113.176	18.376	975.469	761.106
114.191	18.283	975.215	760.426
115.206	18.103	973.432	758.173
116.220	18.063	972.691	757.349
117.235	18.173	971.976	757.212
118.249	18.316	970.689	756.775
119.264	18.310	969.822	756.006
120.279	18.335	969.394	755.714
121.293	18.326	968.261	754.728
122.308	18.330	967.756	754.282
123.322	18.374	966.142	753.154
124.337	18.262	964.806	751.553
125.352	17.687	963.630	748.045
126.366	17.646	962.291	746.760
127.381	18.457	961.673	749.765
128.395	18.731	961.425	750.702
129.410	18.727	960.356	749.784
130.424	18.686	959.456	748.840
131.439	18.666	958.336	747.809
132.454	18.624	957.560	746.957
133.468	18.712	956.518	746.459
134.483	18.722	955.580	745.707
135.497	19.011	954.814	746.296
136.512	18.928	954.026	745.252
137.527	19.019	952.804	744.629
138.541	18.900	952.318	743.666
139.556	18.938	951.099	742.814
140.570	18.882	950.691	742.186
141.585	18.847	949.395	740.956
142.600	18.762	948.537	739.857
143.614	19.077	947.616	740.429
144.629	19.194	947.072	740.442
145.643	19.011	945.925	738.693
146.658	18.922	944.573	737.191
147.673	18.851	943.514	735.996
148.687	18.733	942.757	734.836
149.702	18.698	941.915	733.965
150.716	18.751	940.574	733.078
151.731	18.908	940.477	733.608
152.746	18.968	939.740	733.223
153.760	19.021	939.016	732.821
154.775	19.111	938.101	732.424
155.789	19.046	937.717	731.782
156.804	18.992	936.487	730.530
157.819	19.135	935.125	730.009
158.833	19.242	934.839	730.176
159.848	19.126	933.623	728.671
160.862	18.928	932.672	727.026
161.877	19.147	931.550	727.014
162.892	19.124	931.116	726.512
163.906	19.133	929.491	725.216
164.921	19.117	928.730	724.494
165.935	18.984	928.337	723.564
166.950	19.033	927.065	722.711
167.964	19.011	926.556	722.161
168.979	18.834	925.380	720.436
169.994	19.005	923.996	720.013
171.008	19.163	923.336	720.095
172.023	19.073	922.503	719.004
173.037	18.662	921.792	716.670
174.052	18.653	920.769	715.777
175.067	18.992	920.012	716.536
176.081	18.975	919.863	716.284
177.096	18.918	918.743	715.113
178.110	18.660	918.357	713.678
179.125	18.497	917.216	712.050
180.140	18.663	916.704	712.277
181.154	18.662	916.695	712.203
182.169	18.914	916.283	712.864
183.183	18.977	916.127	712.942
184.198	18.950	914.628	711.603
185.213	18.988	914.147	711.323
186.227	18.981	913.386	710.637
187.242	19.143	912.342	710.432
188.256	19.095	911.464	709.488
189.271	19.192	910.952	709.425
190.286	18.909	910.126	707.554
191.300	18.442	908.891	704.610
192.315	17.745	907.518	700.620
193.329	17.728	907.308	700.327
194.344	18.530	907.149	703.434
195.359	19.007	906.756	705.024
196.373	19.147	906.346	705.216
197.388	18.890	905.878	703.738
198.402	18.826	905.214	702.896
199.417	18.824	904.067	701.937
200.432	18.580	903.136	700.157
201.446	18.415	902.456	698.893
202.461	18.448	902.137	698.718
203.475	17.719	900.185	694.179
204.490	17.099	899.162	690.804
205.504	17.948	899.529	694.481
206.519	18.667	899.084	696.997
207.534	18.641	898.719	696.546
208.548	18.952	898.889	697.879
209.563	18.902	897.496	696.533
210.577	18.828	896.771	695.612
211.592	19.100	896.376	696.341
212.607	19.010	895.322	695.097
213.621	19.295	894.537	695.577
214.636	19.242	894.147	694.999
215.650	19.180	893.333	694.057
216.665	19.175	892.918	693.653
217.680	19.008	891.951	692.165
218.694	18.657	890.765	689.776
219.709	18.518	890.298	688.793
220.723	19.006	889.300	689.917
221.738	19.058	888.827	689.698
222.753	19.032	888.376	689.185
223.767	19.085	887.970	689.019
224.782	19.213	887.512	689.115
225.796	19.182	887.099	688.609
226.811	18.573	885.389	684.792
227.826	18.103	884.075	681.840
228.840	18.224	883.932	682.151
229.855	18.442	882.850	682.124
230.869	17.962	881.998	679.495
231.884	18.451	881.866	681.279
232.899	19.077	881.921	683.748
233.913	19.067	880.710	682.712
234.928	19.096	879.995	682.212
235.942	19.184	879.212	681.893
236.957	18.777	878.747	679.858
237.972	18.782	878.391	679.543
238.986	18.842	877.626	679.127
240.001	18.997	876.911	679.127
241.015	18.896	876.340	678.229
242.030	19.011	875.647	678.082
243.045	19.156	875.356	678.369
244.059	19.168	875.082	678.146
245.074	18.989	873.282	675.986
246.088	18.619	872.535	673.897
247.103	19.060	872.037	675.180
248.117	19.384	872.070	676.417
249.132	19.542	871.851	676.809
250.147	19.492	871.153	676.010
251.161	19.741	870.396	676.339
252.176	19.675	870.009	675.720
253.190	19.696	869.619	675.438
254.205	19.798	868.797	675.139
255.220	19.908	868.283	675.109
256.234	19.700	867.504	673.631
257.249	19.647	866.346	672.468
258.263	19.803	865.359	672.247
259.278	19.891	864.887	672.164
260.293	19.705	864.678	671.220
261.307	19.763	863.614	670.560
262.322	19.517	862.695	668.833
263.336	18.592	860.955	663.848
264.351	17.694	858.863	658.707
265.366	17.887	858.813	659.356
266.380	19.107	859.153	664.268
267.395	19.453	858.875	665.328
268.409	19.472	858.055	664.710
269.424	19.576	857.980	664.995
270.439	19.801	857.122	665.133
271.453	19.693	856.942	664.518
272.468	19.901	856.264	664.734
273.482	20.043	855.373	664.530
274.497	19.485	854.586	661.720
275.512	19.212	853.497	659.774
276.526	19.679	853.706	661.665
277.541	19.857	853.044	661.773
278.555	19.495	851.924	659.462
279.570	19.301	851.138	658.057
280.585	19.564	850.641	658.617
281.599	19.571	849.653	657.822
282.614	18.933	848.515	654.455
283.628	19.016	848.237	654.496
284.643	19.329	848.218	655.613
285.657	18.966	846.648	652.966
286.672	18.763	845.732	651.431
287.687	19.229	845.612	653.046
288.701	19.216	845.476	652.836
289.716	18.924	844.555	650.961
290.730	18.898	844.110	650.464
291.745	18.652	842.501	648.237
292.760	18.953	842.337	649.187
293.774	19.822	843.110	653.009
294.789	20.119	842.519	653.613
295.803	20.326	841.984	653.921
296.818	20.225	841.307	652.956
297.833	19.924	840.105	650.833
298.847	19.770	839.263	649.548
299.862	20.041	839.120	650.396
300.876	20.164	839.014	650.716
301.891	19.929	838.452	649.342
302.906	19.430	837.258	646.491
303.920	19.695	836.715	647.007
304.935	20.011	836.393	647.884
305.949	20.066	835.406	647.265
306.964	19.834	834.918	645.966
307.979	20.008	834.361	646.128
308.993	20.339	834.113	647.110
310.008	20.422	833.285	646.722
311.022	20.040	832.654	644.752
312.037	20.026	831.813	643.992
313.052	19.704	831.580	642.557
314.066	19.119	829.738	638.908
315.081	18.758	829.244	637.129
316.095	19.595	829.307	640.228
317.110	19.942	829.306	641.455
318.125	19.121	827.992	637.345
319.139	18.455	826.559	633.723
320.154	18.485	826.326	633.599
321.168	19.204	826.757	636.533
322.183	19.732	826.670	638.359
323.197	20.031	826.239	639.073
324.212	19.957	825.968	638.533
325.227	20.011	825.045	637.963
326.241	19.960	824.521	637.311
327.256	19.879	823.875	636.459
328.270	19.880	823.057	635.774
329.285	19.504	822.738	634.090
330.300	19.456	821.718	633.074
331.314	19.657	821.716	633.755
332.329	19.947	821.224	634.381
333.343	20.126	820.788	634.644
334.358	20.108	820.000	633.911
335.373	20.203	819.993	634.198
336.387	20.294	820.043	634.510
337.402	20.495	819.851	635.042
338.416	20.361	819.464	634.198
339.431	20.400	818.611	633.622
340.446	20.531	818.239	633.757
341.460	20.433	818.106	633.241
342.475	20.347	816.951	631.977
343.489	20.383	816.880	631.996
344.504	20.554	816.639	632.378
345.519	20.769	816.381	632.901
346.533	20.811	815.926	632.648
347.548	20.841	815.445	632.326
348.562	20.882	814.667	631.815
349.577	20.726	814.587	631.131
350.592	20.948	813.250	630.843
351.606	20.817	812.564	629.782
352.621	20.733	811.935	628.935
353.635	20.678	811.412	628.275
354.650	20.050	809.521	624.494
355.665	19.271	808.123	620.554
356.679	19.519	808.364	621.578
357.694	19.885	807.687	622.320
358.708	19.975	807.155	622.178
359.723	20.277	807.163	623.215
360.738	20.495	806.323	623.291
361.752	20.595	806.435	623.684
362.767	20.805	806.209	624.206
363.781	21.066	805.527	624.556
364.796	21.150	805.071	624.450
365.810	21.056	805.032	624.029
366.825	21.107	804.128	623.453
367.840	20.863	803.412	621.972
368.854	20.381	802.665	619.618
369.869	20.514	802.475	619.893
370.883	20.664	801.645	619.728
371.898	20.350	801.131	618.162
372.913	20.564	800.808	618.616
373.927	20.669	800.634	618.801
374.942	20.711	800.167	618.537
375.956	20.873	799.758	618.740
376.971	21.056	799.419	619.072
377.986	21.098	798.931	618.791
379.000	21.025	798.679	618.280
380.015	20.918	797.640	617.044
381.029	20.710	797.232	615.938
382.044	21.049	796.799	616.745
383.059	21.028	796.370	616.283
384.073	21.136	795.761	616.139
385.088	21.158	795.077	615.634
386.102	20.958	794.440	614.380
387.117	21.043	793.937	614.236
388.132	20.625	793.297	612.216
389.146	20.241	792.002	609.812
390.161	20.446	791.716	610.260
391.175	20.881	791.522	611.582
392.190	20.492	790.791	609.602
393.205	19.350	788.970	604.143
394.219	18.018	787.443	598.261
395.234	18.265	787.279	598.947
396.248	19.777	788.469	605.093
397.263	20.905	789.276	609.608
398.278	20.758	788.682	608.583
399.292	20.684	787.541	607.390
400.307	20.715	787.443	607.369
401.321	20.893	787.057	607.637
402.336	21.090	786.600	607.917
403.350	21.340	786.644	608.768
404.365	21.438	786.482	608.930
405.380	21.617	786.235	609.308
406.394	21.717	785.500	609.032
407.409	21.683	785.193	608.623
408.423	21.669	784.817	608.228
409.438	21.764	784.045	607.907
410.453	21.805	783.845	607.839
411.467	21.728	782.991	606.858
412.482	21.833	782.751	606.979
413.496	21.886	782.590	606.984
414.511	21.811	782.056	606.258
415.526	21.878	781.581	606.069
416.540	21.650	781.143	604.888
417.555	21.430	780.249	603.381
418.569	21.439	779.883	603.078
419.584	21.424	779.435	602.624
420.599	21.355	778.725	601.787
421.613	158.545	1360.679	1796.064
422.628	137.023	1445.483	1796.170
