DTS Sentinel unit serial number:	SN413079Multiplexer serial number:	ORYXHardware model number:	OX4-SRSoftware version number:	ORYX F/W v4.00 Oryx Data Collector v3.7.2.0data status	okinstallation	princeton_trtdifferential loss correction	single-endedforward channel	channel 1reverse channel	N/Adate	2019/09/18time	04:18:35forward acquisition time	60.00reverse acquisition time	0.00gamma	496.2192k internal	0.2339k external	0.2339temperature offset calibration	0.9977default loss term (dB/km)	0.3790temperature slope calibration	1.0000multiplexer offset coefficient	1.0000multiplexer slope coefficient	1.0000fibre end	0.00T internal ref (°C)	23.36T ext. ref 1 (°C)	0.19T ext. ref 2 (°C)	17.55length (m)	temperature (°C)	Stokes	anti-Stokes-747.200	-26.838	-0.318	0.187
-746.185	-74.067	-0.287	0.104
-745.171	-200.000	0.009	0.189
-744.156	-70.137	-0.136	0.052
-743.142	-141.568	0.299	0.030
-742.127	-52.813	-0.141	0.065
-741.112	800.000	-0.034	0.117
-740.098	-22.468	-0.168	-0.102
-739.083	-75.693	0.299	-0.107
-738.069	-200.000	-0.037	0.251
-737.054	79.845	-0.165	-0.178
-736.039	251.812	-0.120	-0.205
-735.025	29.325	0.194	0.165
-734.010	800.000	0.148	-0.492
-732.996	-7.482	-0.179	-0.121
-731.981	580.895	-0.015	-0.038
-730.966	796.758	-0.062	-0.171
-729.952	520.080	-0.096	-0.225
-728.937	-10.757	0.110	0.073
-727.923	-165.175	-0.355	0.016
-726.908	-200.000	-0.020	-0.202
-725.894	-44.010	-0.146	-0.074
-724.879	129.773	0.124	-0.159
-723.864	-121.569	0.063	0.011
-722.850	-7.978	-0.284	0.192
-721.835	-82.538	-0.119	-0.039
-720.821	-85.152	0.242	-0.076
-719.806	-200.000	-0.016	-0.254
-718.791	92.409	-0.055	-0.062
-717.777	-110.434	0.270	-0.056
-716.762	800.000	-0.156	-0.438
-715.748	-200.000	-0.067	0.407
-714.733	599.775	-0.071	0.177
-713.718	106.242	-0.091	0.108
-712.704	-81.503	-0.090	-0.030
-711.689	427.392	0.076	-0.164
-710.675	632.867	-0.197	0.500
-709.660	233.990	0.090	0.149
-708.645	800.000	-0.024	-0.084
-707.631	-134.573	0.100	0.012
-706.616	450.252	0.036	-0.080
-705.602	-101.858	0.225	-0.055
-704.587	800.000	-0.049	-0.164
-703.572	219.805	0.129	-0.208
-702.558	800.000	-0.050	0.149
-701.543	-40.393	0.116	0.060
-700.529	-200.000	-0.040	0.330
-699.514	-148.824	0.308	0.025
-698.499	5.121	-0.240	-0.177
-697.485	-114.273	-0.107	-0.021
-696.470	-200.000	-0.051	0.359
-695.456	25.908	-0.066	0.055
-694.441	-7.047	0.147	-0.100
-693.426	308.412	-0.085	-0.160
-692.412	480.703	0.129	0.292
-691.397	-200.000	0.012	-0.143
-690.383	-78.455	-0.172	-0.059
-689.368	3.164	-0.461	-0.335
-688.354	138.065	-0.113	-0.149
-687.339	-35.983	-0.056	-0.030
-686.324	-116.542	0.168	-0.031
-685.310	-140.681	-0.175	0.018
-684.295	183.985	-0.083	0.122
-683.281	-44.577	-0.244	0.122
-682.266	190.862	-0.073	0.110
-681.251	-200.000	-0.037	0.363
-680.237	263.296	-0.060	-0.104
-679.222	159.736	-0.179	-0.249
-678.208	-7.552	0.080	-0.054
-677.193	800.000	-0.127	0.406
-676.178	129.874	-0.015	-0.019
-675.164	10.926	-0.197	-0.150
-674.149	-93.127	-0.086	0.024
-673.135	-62.584	0.173	-0.072
-672.120	-115.448	-0.523	-0.099
-671.105	-27.824	-0.206	-0.119
-670.091	-99.373	0.067	0.017
-669.076	-200.000	0.017	-0.202
-668.062	-77.041	-0.194	-0.068
-667.047	149.003	0.099	-0.133
-666.032	-20.373	0.349	-0.215
-665.018	-200.000	0.010	-0.166
-664.003	152.219	-0.233	-0.318
-662.989	282.845	0.065	-0.117
-661.974	684.019	0.106	-0.276
-660.959	10.772	-0.244	0.186
-659.945	217.639	-0.153	0.243
-658.930	25.604	-0.132	-0.109
-657.916	-36.566	0.200	-0.108
-656.901	-200.000	0.006	-0.113
-655.886	122.073	-0.126	0.157
-654.872	-70.390	-0.261	0.099
-653.857	-200.000	0.046	0.246
-652.843	-61.122	0.252	-0.106
-651.828	428.488	-0.059	-0.128
-650.814	-79.775	-0.210	-0.071
-649.799	-36.850	-0.089	0.048
-648.784	228.773	-0.172	-0.281
-647.770	381.004	-0.003	0.007
-646.755	-93.988	0.247	-0.068
-645.741	137.528	-0.087	-0.114
-644.726	-106.277	0.106	0.024
-643.711	-200.000	-0.038	0.180
-642.697	-29.527	-0.377	-0.215
-641.682	800.000	-0.112	-0.410
-640.668	-73.852	-0.281	-0.102
-639.653	302.885	0.058	0.106
-638.638	74.532	-0.240	0.252
-637.624	64.016	-0.192	-0.193
-636.609	45.302	-0.109	0.100
-635.595	156.150	-0.076	-0.105
-634.580	-14.127	0.186	0.120
-633.565	-0.145	-0.256	0.182
-632.551	-149.226	-0.166	-0.013
-631.536	75.522	-0.106	-0.112
-630.522	64.249	0.135	-0.136
-629.507	-126.219	-0.262	0.039
-628.492	-157.289	0.103	0.006
-627.478	13.408	-0.160	0.124
-626.463	213.610	0.068	0.107
-625.449	194.658	-0.161	-0.244
-624.434	108.665	-0.304	-0.363
-623.419	-48.461	-0.168	-0.081
-622.405	800.000	0.143	-0.505
-621.390	13.566	0.088	0.068
-620.376	-54.455	-0.168	-0.076
-619.361	305.655	-0.102	-0.190
-618.346	390.332	-0.043	0.090
-617.332	-119.391	-0.648	0.112
-616.317	-200.000	0.012	-0.102
-615.303	-154.198	-0.113	-0.008
-614.288	-19.451	0.071	-0.044
-613.273	36.641	-0.129	-0.114
-612.259	-107.669	-0.104	-0.023
-611.244	-25.182	-0.161	0.095
-610.230	45.981	0.332	0.306
-609.215	-200.000	0.031	0.218
-608.201	800.000	-0.041	-0.141
-607.186	-55.009	-0.347	-0.156
-606.171	-90.620	0.200	0.058
-605.157	181.166	0.050	-0.073
-604.142	-187.027	0.367	-0.005
-603.128	7.855	0.126	0.094
-602.113	-200.000	-0.024	-0.251
-601.098	800.000	0.073	0.263
-600.084	-177.743	0.124	0.003
-599.069	-66.667	-0.061	-0.024
-598.055	-200.000	0.019	-0.232
-597.040	64.514	-0.082	-0.082
-596.025	-72.333	-0.237	0.087
-595.011	-200.000	0.011	-0.048
-593.996	356.699	-0.143	0.285
-592.982	-54.849	0.313	0.141
-591.967	-65.900	-0.296	0.118
-590.952	-110.986	0.373	0.076
-589.938	217.387	0.030	0.047
-588.923	-200.000	-0.076	-0.484
-587.909	800.000	-0.108	-0.452
-586.894	90.296	-0.166	-0.185
-585.879	132.335	-0.067	0.086
-584.865	800.000	-0.033	-0.092
-583.850	-200.000	0.001	-0.120
-582.836	69.063	-0.164	-0.168
-581.821	3.403	0.266	0.193
-580.806	18.023	-0.180	0.143
-579.792	800.000	0.125	-0.373
-578.777	-85.584	0.215	-0.067
-577.763	-122.829	0.049	-0.008
-576.748	100.054	0.161	-0.186
-575.733	-200.000	0.004	0.037
-574.719	-200.000	0.065	0.287
-573.704	-200.000	0.024	0.114
-572.690	-29.283	-0.089	0.051
-571.675	35.265	-0.274	0.240
-570.661	107.986	0.148	0.175
-569.646	51.758	0.140	0.132
-568.631	-68.447	0.241	-0.093
-567.617	144.801	0.150	-0.199
-566.602	192.478	-0.224	-0.336
-565.588	-60.158	0.210	0.089
-564.573	-200.000	0.029	0.213
-563.558	-56.851	0.153	0.067
-562.544	649.610	0.013	0.034
-561.529	141.004	0.059	0.077
-560.515	-22.332	-0.103	-0.062
-559.500	-157.414	-0.223	-0.013
-558.485	-80.184	-0.124	0.041
-557.471	-105.277	-0.184	-0.042
-556.456	-50.823	0.066	-0.031
-555.442	800.000	0.031	0.105
-554.427	-92.691	-0.136	-0.038
-553.412	800.000	-0.034	0.146
-552.398	-31.198	0.056	-0.031
-551.383	-59.916	-0.210	-0.090
-550.369	-116.574	-0.084	0.015
-549.354	-200.000	0.006	-0.139
-548.339	-73.591	-0.143	-0.052
-547.325	464.102	0.054	0.120
-546.310	129.358	-0.403	-0.512
-545.296	199.851	-0.110	-0.169
-544.281	0.097	-0.068	0.048
-543.266	-200.000	-0.002	-0.135
-542.252	1.598	-0.085	-0.061
-541.237	-46.864	-0.054	-0.026
-540.223	-60.956	-0.197	0.083
-539.208	-140.767	0.139	0.014
-538.193	-200.000	-0.038	-0.432
-537.179	-127.223	0.062	-0.009
-536.164	-200.000	0.007	-0.059
-535.150	-200.000	-0.006	0.083
-534.135	180.320	0.163	-0.238
-533.121	-86.915	-0.255	0.077
-532.106	-103.879	-0.192	0.045
-531.091	800.000	-0.076	-0.299
-530.077	-63.317	-0.221	0.090
-529.062	57.660	-0.015	-0.015
-528.048	524.106	0.136	-0.319
-527.033	180.730	-0.089	-0.129
-526.018	146.033	0.209	0.279
-525.004	-65.256	0.172	0.069
-523.989	-37.854	-0.178	-0.094
-522.975	-72.961	-0.279	0.102
-521.960	-156.888	-0.327	-0.020
-520.945	-153.605	0.067	-0.005
-519.931	-99.294	0.362	-0.091
-518.916	746.272	0.071	-0.189
-517.902	731.044	-0.115	0.307
-516.887	59.770	-0.148	-0.145
-515.872	-75.174	-0.213	-0.076
-514.858	-200.000	0.041	0.272
-513.843	-132.656	-0.409	0.052
-512.829	-200.000	-0.037	-0.283
-511.814	800.000	-0.047	-0.161
-510.799	-125.183	-0.135	0.021
-509.785	-157.952	0.443	0.026
-508.770	-200.000	-0.018	0.120
-507.756	-71.223	-0.071	-0.027
-506.741	-143.609	0.195	-0.018
-505.726	-200.000	0.001	-0.006
-504.712	-121.644	0.287	0.047
-503.697	-200.000	-0.209	0.000
-502.683	-147.481	0.232	0.019
-501.668	-146.206	0.320	-0.028
-500.653	-40.652	0.177	0.091
-499.639	211.926	-0.089	0.139
-498.624	-122.969	-0.190	-0.030
-497.610	800.000	-0.071	0.243
-496.595	-4.625	-0.188	0.129
-495.581	45.781	-0.128	-0.117
-494.566	611.628	0.119	0.295
-493.551	-200.000	-0.022	0.098
-492.537	-112.212	-0.203	0.041
-491.522	443.041	-0.111	-0.241
-490.508	-143.899	-0.305	0.029
-489.493	615.620	0.083	-0.207
-488.478	-200.000	0.048	0.255
-487.464	-16.228	-0.260	-0.164
-486.449	-31.246	0.238	0.133
-485.435	27.129	-0.141	0.118
-484.420	481.930	0.041	0.092
-483.405	-200.000	0.016	0.157
-482.391	-200.000	-0.016	-0.202
-481.376	90.977	-0.264	0.294
-480.362	-4.599	-0.260	-0.178
-479.347	-20.412	0.265	0.162
-478.332	14.849	0.238	0.185
-477.318	119.671	-0.061	0.075
-476.303	-200.000	-0.001	0.272
-475.289	-200.000	-0.014	0.213
-474.274	800.000	-0.092	0.345
-473.259	-93.141	0.160	0.044
-472.245	253.132	-0.085	0.144
-471.230	37.661	0.291	-0.256
-470.216	-195.432	0.161	-0.001
-469.201	17.065	-0.226	0.178
-468.186	-84.240	-0.357	0.112
-467.172	597.440	0.059	-0.144
-466.157	32.137	0.147	-0.126
-465.143	74.487	-0.172	-0.180
-464.128	146.613	0.178	-0.238
-463.113	118.209	0.175	0.214
-462.099	130.146	-0.120	0.153
-461.084	9.574	0.068	0.051
-460.070	746.074	0.037	-0.098
-459.055	-186.340	-0.144	0.002
-458.040	-164.682	0.239	0.011
-457.026	-200.000	-0.010	0.109
-456.011	-98.779	-0.047	-0.012
-454.997	-23.305	0.164	0.098
-453.982	222.876	-0.139	-0.223
-452.968	289.793	0.132	0.238
-451.953	-102.777	0.364	-0.086
-450.938	800.000	-0.021	0.059
-449.924	52.088	-0.225	0.213
-448.909	-119.313	0.327	-0.056
-447.895	-13.730	0.319	-0.205
-446.880	279.670	0.213	0.377
-445.865	54.148	-0.050	0.048
-444.851	202.838	-0.210	0.321
-443.836	54.971	0.046	-0.044
-442.822	206.561	-0.164	-0.253
-441.807	-23.867	0.150	-0.089
-440.792	543.017	0.222	-0.525
-439.778	-199.696	0.087	-0.000
-438.763	-200.000	-0.043	0.244
-437.749	-56.062	-0.165	0.073
-436.734	-23.733	0.389	-0.231
-435.719	-200.000	-0.067	0.412
-434.705	442.971	-0.048	-0.104
-433.690	47.538	0.108	-0.100
-432.676	-14.841	0.208	-0.132
-431.661	-32.895	-0.333	0.183
-430.646	-68.222	0.327	0.126
-429.632	204.286	0.079	0.121
-428.617	20.188	-0.214	-0.171
-427.603	-99.491	0.159	-0.040
-426.588	800.000	0.075	-0.270
-425.573	-8.552	-0.173	-0.115
-424.559	-200.000	0.017	-0.172
-423.544	800.000	-0.055	0.165
-422.530	178.049	0.065	0.094
-421.515	-200.000	0.031	0.172
-420.500	106.880	0.221	-0.260
-419.486	-31.994	-0.100	0.056
-418.471	-50.087	0.294	-0.138
-417.457	-200.000	-0.004	-0.232
-416.442	-64.375	0.306	0.123
-415.428	279.179	-0.099	-0.175
-414.413	-104.350	0.235	-0.054
-413.398	-50.974	-0.168	0.078
-412.384	-114.285	0.128	0.024
-411.369	-39.326	0.395	-0.205
-410.355	-46.392	-0.189	-0.092
-409.340	495.707	0.040	-0.092
-408.325	511.158	0.065	-0.150
-407.311	231.264	-0.129	-0.209
-406.296	73.240	0.035	0.036
-405.282	-142.736	0.337	-0.033
-404.267	-200.000	-0.026	-0.145
-403.252	-200.000	0.017	0.185
-402.238	134.396	-0.229	0.294
-401.223	12.509	0.040	-0.030
-400.209	-94.995	0.258	0.069
-399.194	213.394	0.044	0.068
-398.179	-35.882	0.232	0.124
-397.165	24.446	0.296	0.242
-396.150	199.137	0.109	-0.165
-395.136	-200.000	-0.056	0.318
-394.121	-157.405	0.089	0.005
-393.106	-135.718	-0.174	-0.020
-392.092	-4.809	-0.186	0.127
-391.077	-135.137	0.234	0.028
-390.063	-86.115	0.270	-0.082
-389.048	-200.000	0.049	-0.316
-388.033	800.000	-0.046	0.168
-387.019	-38.947	-0.175	-0.091
-386.004	463.486	-0.021	-0.046
-384.990	800.000	0.065	0.280
-383.975	800.000	0.067	-0.254
-382.960	-39.353	0.090	-0.046
-381.946	200.203	0.378	-0.575
-380.931	57.533	-0.148	-0.143
-379.917	-47.728	-0.169	0.081
-378.902	46.945	-0.165	0.152
-377.888	82.302	-0.079	0.085
-376.873	800.000	-0.037	0.125
-375.858	-200.000	0.027	-0.167
-374.844	800.000	0.122	-0.380
-373.829	18.097	-0.116	-0.091
-372.815	99.947	-0.077	-0.088
-371.800	-162.799	-0.123	0.006
-370.785	-200.000	-0.065	0.327
-369.771	270.563	-0.033	0.058
-368.756	-123.597	-0.359	-0.056
-367.742	-96.609	0.088	-0.023
-366.727	152.490	0.030	-0.041
-365.712	92.918	-0.219	0.244
-364.698	-200.000	-0.026	0.134
-363.683	-38.571	-0.248	-0.130
-362.669	-179.241	0.318	0.007
-361.654	55.885	-0.207	-0.198
-360.639	56.251	-0.114	-0.109
-359.625	-164.155	-0.126	0.006
-358.610	-200.000	-0.015	-0.232
-357.596	-200.000	-0.037	0.220
-356.581	-200.000	-0.033	0.153
-355.566	-21.090	-0.045	-0.027
-354.552	-110.516	-0.084	0.017
-353.537	142.630	0.075	-0.098
-352.523	175.617	0.048	-0.069
-351.508	800.000	-0.061	0.214
-350.493	-154.595	-0.228	0.015
-349.479	-200.000	-0.020	-0.124
-348.464	64.428	0.067	-0.066
-347.450	-200.000	-0.032	0.227
-346.435	70.054	-0.087	0.089
-345.420	-6.140	-0.374	0.252
-344.406	-200.000	-0.004	0.203
-343.391	-200.000	-0.007	0.056
-342.377	-35.792	0.265	0.142
-341.362	-200.000	-0.003	0.446
-340.348	-27.114	-0.153	0.088
-339.333	210.389	-0.119	0.185
-338.318	-141.936	0.151	0.015
-337.304	-58.471	-0.294	0.126
-336.289	-69.862	-0.062	-0.023
-335.275	548.855	0.131	0.310
-334.260	-76.720	-0.148	0.051
-333.245	-84.737	-0.126	-0.039
-332.231	-138.629	-0.223	0.024
-331.216	-31.684	-0.209	0.116
-330.202	-200.000	-0.008	0.089
-329.187	-14.510	-0.137	-0.087
-328.172	-200.000	0.017	0.081
-327.158	5.305	-0.132	0.096
-326.143	68.718	0.162	-0.164
-325.129	-39.253	0.220	-0.114
-324.114	-200.000	0.004	0.059
-323.099	-200.000	-0.060	0.399
-322.085	800.000	-0.073	-0.209
-321.070	203.749	0.202	-0.309
-320.056	-15.826	-0.035	0.022
-319.041	341.241	0.207	0.399
-318.026	427.609	0.067	-0.144
-317.012	800.000	0.049	0.153
-315.997	-200.000	0.015	-0.226
-314.983	-2.510	0.206	0.142
-313.968	93.127	0.319	0.356
-312.953	-73.143	-0.278	0.101
-311.939	-105.408	0.320	-0.072
-310.924	200.960	0.128	-0.195
-309.910	-129.811	0.332	-0.045
-308.895	-58.518	0.177	-0.076
-307.880	-200.000	-0.011	0.283
-306.866	264.835	0.037	-0.064
-305.851	36.503	0.119	0.104
-304.837	-200.000	-0.065	-0.401
-303.822	499.602	-0.165	0.376
-302.807	7.470	-0.101	-0.075
-301.793	49.158	0.130	-0.120
-300.778	-200.000	0.043	0.649
-299.764	-200.000	0.040	-0.204
-298.749	57.258	0.224	-0.215
-297.735	22.940	-0.022	0.018
-296.720	-200.000	0.248	-0.000
-295.705	800.000	-0.057	-0.171
-294.691	-32.963	0.262	-0.143
-293.676	-200.000	-0.006	-0.241
-292.662	56.752	0.225	-0.216
-291.647	19.428	-0.074	-0.059
-290.632	148.461	-0.055	0.073
-289.618	-65.675	-0.045	-0.018
-288.603	245.772	0.154	0.256
-287.589	-147.773	-0.090	0.007
-286.574	11.200	0.172	0.130
-285.559	-97.236	0.087	-0.022
-284.545	-74.341	0.422	0.150
-283.530	106.402	0.097	0.114
-282.516	22.012	-0.189	0.151
-281.501	178.881	0.087	0.125
-280.486	5.872	-0.246	-0.179
-279.472	-98.733	0.298	0.075
-278.457	800.000	0.125	0.364
-277.443	217.670	0.154	0.242
-276.428	-159.531	0.247	-0.014
-275.413	60.826	0.217	-0.212
-274.399	-101.706	0.178	-0.043
-273.384	-82.717	-0.154	-0.049
-272.370	-47.908	-0.148	0.071
-271.355	-200.000	-0.010	-0.387
-270.340	43.402	0.248	-0.223
-269.326	775.824	0.062	0.166
-268.311	26.208	-0.159	-0.131
-267.297	800.000	0.035	-0.096
-266.282	292.733	0.026	-0.047
-265.267	-29.876	-0.127	0.071
-264.253	800.000	0.075	0.311
-263.238	24.049	-0.204	0.165
-262.224	-189.057	0.128	-0.002
-261.209	-45.165	0.049	0.024
-260.195	90.500	0.057	0.063
-259.180	169.089	0.151	-0.212
-258.165	-91.264	-0.205	-0.058
-257.151	-200.000	-0.003	-0.308
-256.136	-12.209	-0.386	-0.248
-255.122	-200.000	0.051	0.254
-254.107	800.000	-0.133	0.419
-253.092	660.949	-0.104	0.265
-252.078	-200.000	0.235	0.001
-251.063	800.000	-0.058	-0.198
-250.049	529.816	-0.111	-0.258
-249.034	40.312	-0.222	0.197
-248.019	-191.175	0.144	0.001
-247.005	240.274	-0.024	-0.039
-245.990	-27.025	-0.201	-0.115
-244.976	49.926	0.109	-0.101
-243.961	37.928	0.216	0.189
-242.946	-46.473	-0.270	-0.130
-241.932	-46.481	0.145	0.070
-240.917	2.034	0.085	-0.060
-239.903	-88.558	-0.237	-0.069
-238.888	5.592	0.212	0.154
-237.873	251.954	-0.110	0.185
-236.859	18.324	0.171	0.134
-235.844	800.000	-0.155	0.506
-234.830	-2.868	0.214	0.147
-233.815	800.000	0.045	0.168
-232.800	28.863	-0.051	0.043
-231.786	97.116	0.187	-0.211
-230.771	-172.547	-0.301	-0.009
-229.757	274.929	0.101	-0.176
-228.742	-200.000	0.008	-0.285
-227.727	-86.744	-0.082	-0.025
-226.713	-125.075	0.515	-0.078
-225.698	-166.043	-0.223	0.009
-224.684	-200.000	-0.004	-0.069
-223.669	184.704	0.166	-0.241
-222.655	-72.880	-0.214	0.077
-221.640	710.566	-0.059	-0.153
-220.625	-2.498	-0.234	-0.161
-219.611	214.539	0.124	0.192
-218.596	111.057	-0.014	-0.016
-217.582	-200.000	0.080	0.362
-216.567	-113.996	0.381	0.073
-215.552	79.651	0.022	0.024
-214.538	-93.279	-0.341	0.093
-213.523	62.893	-0.110	0.108
-212.509	67.381	-0.137	-0.137
-211.494	140.318	-0.158	-0.205
-210.479	-200.000	-0.015	-0.180
-209.465	-66.136	-0.171	0.067
-208.450	-200.000	-0.050	-0.240
-207.436	-21.826	-0.121	-0.072
-206.421	-105.840	-0.058	-0.013
-205.406	-139.348	-0.122	0.013
-204.392	794.622	-0.011	0.029
-203.377	-118.158	0.547	0.096
-202.363	518.009	-0.116	-0.268
-201.348	44.828	0.192	0.174
-200.333	368.998	-0.180	0.358
-199.319	-165.286	0.025	-0.001
-198.304	-200.000	0.009	0.056
-197.290	800.000	0.010	-0.027
-196.275	-50.839	0.200	-0.092
-195.260	-137.306	-0.146	0.016
-194.246	-163.244	0.401	-0.019
-193.231	-100.916	0.113	-0.027
-192.217	-200.000	0.004	-0.291
-191.202	192.275	0.110	-0.163
-190.187	-200.000	-0.013	-0.163
-189.173	-116.853	0.232	-0.042
-188.158	-200.000	0.021	-0.145
-187.144	23.711	0.035	0.029
-186.129	-200.000	-0.009	0.067
-185.114	136.310	0.013	0.016
-184.100	-124.103	0.157	-0.024
-183.085	-155.891	-0.340	0.021
-182.071	-22.511	0.126	-0.075
-181.056	172.953	0.119	-0.168
-180.042	334.436	0.108	0.206
-179.027	-126.224	0.116	0.017
-178.012	464.343	0.093	0.203
-176.998	279.004	0.137	0.239
-175.983	31.287	-0.218	0.184
-174.969	-143.404	0.163	-0.015
-173.954	-4.615	-0.309	0.209
-172.939	319.175	0.102	0.189
-171.925	-158.288	0.197	-0.011
-170.910	86.473	0.089	-0.096
-169.896	-137.251	-0.669	-0.075
-168.881	-68.302	0.331	0.126
-167.866	109.939	0.240	0.282
-166.852	785.965	-0.126	-0.339
-165.837	269.857	0.058	-0.100
-164.823	-33.645	0.164	-0.089
-163.808	-97.476	-0.240	0.061
-162.793	23.014	0.237	0.191
-161.779	25.564	-0.154	-0.126
-160.764	-4.227	-0.202	-0.137
-159.750	-83.471	-0.234	0.073
-158.735	360.974	0.111	-0.219
-157.720	-33.155	-0.086	0.047
-156.706	-14.466	0.096	0.061
-155.691	47.653	-0.088	0.081
-154.677	345.584	0.128	-0.247
-153.662	-19.037	-0.082	-0.050
-152.647	-149.028	-0.245	0.019
-151.633	-193.033	0.255	0.002
-150.618	48.641	0.014	-0.013
-149.604	-138.983	0.246	-0.026
-148.589	-147.100	-0.244	0.020
-147.574	-45.995	-0.268	-0.129
-146.560	-200.000	-0.037	0.210
-145.545	29.840	-0.144	0.120
-144.531	-49.851	0.127	-0.059
-143.516	16.879	0.038	-0.029
-142.502	-43.305	0.055	-0.027
-141.487	270.040	-0.017	0.030
-140.472	-200.000	-0.054	-0.521
-139.458	-10.919	0.149	-0.096
-138.443	220.390	-0.166	0.260
-137.429	91.181	-0.038	-0.041
-136.414	418.960	-0.066	0.138
-135.399	-200.000	0.193	-0.001
-134.385	-160.293	0.270	-0.014
-133.370	-15.014	0.305	-0.191
-132.356	430.966	-0.149	0.316
-131.341	18.093	-0.212	0.165
-130.326	794.395	-0.082	0.221
-129.312	-188.038	0.366	0.005
-128.297	142.944	0.089	0.116
-127.283	-167.621	0.240	-0.009
-126.268	-58.110	0.194	0.083
-125.253	-127.266	0.269	0.038
-124.239	140.182	0.211	-0.273
-123.224	-62.837	0.271	-0.110
-122.210	-40.397	-0.199	0.101
-121.195	7.796	0.372	-0.273
-120.180	17.422	0.033	0.026
-119.166	-35.609	-0.061	0.032
-118.151	81.156	0.264	0.279
-117.137	318.890	-0.128	-0.238
-116.122	-71.149	0.147	-0.054
-115.107	-29.979	0.158	-0.088
-114.093	-70.254	0.150	-0.056
-113.078	8.238	0.092	-0.067
-112.064	73.768	-0.068	-0.070
-111.049	-99.331	-0.161	-0.040
-110.034	-101.956	0.393	-0.093
-109.020	302.990	0.177	0.321
-108.005	-200.000	-0.003	0.435
-106.991	-60.188	0.050	0.021
-105.976	800.000	-0.084	-0.238
-104.962	-36.326	-0.401	0.211
-103.947	267.115	0.140	0.240
-102.932	-136.427	0.142	-0.016
-101.918	-50.732	0.122	0.056
-100.903	257.789	0.142	-0.239
-99.889	-73.601	-0.125	0.044
-98.874	-29.254	0.054	0.030
-97.859	-129.780	0.269	-0.036
-96.845	-106.056	0.161	-0.035
-95.830	-54.764	-0.024	-0.011
-94.816	656.547	-0.042	-0.107
-93.801	1.292	0.274	0.193
-92.786	52.682	0.208	-0.195
-91.772	26.253	0.215	0.176
-90.757	31.922	0.026	0.022
-89.743	-200.000	-0.007	-0.133
-88.728	567.042	0.113	0.269
-87.713	116.442	-0.083	-0.099
-86.699	-200.000	-0.083	0.000
-85.684	45.529	0.237	0.214
-84.670	37.478	-0.145	-0.126
-83.655	-78.644	0.446	-0.149
-82.640	-15.638	0.160	-0.100
-81.626	69.115	0.242	-0.243
-80.611	53.033	-0.105	0.098
-79.597	-77.037	-0.150	0.051
-78.582	173.994	-0.065	0.091
-77.567	47.572	0.293	0.267
-76.553	513.088	-0.093	-0.211
-75.538	800.000	0.059	-0.200
-74.524	331.008	-0.104	-0.195
-73.509	61.759	0.128	-0.125
-72.494	-4.362	-0.239	-0.161
-71.480	-82.647	0.299	0.094
-70.465	-148.334	-0.261	-0.021
-69.451	-107.760	-0.339	0.072
-68.436	-9.075	0.147	-0.096
-67.422	-121.794	-0.383	0.062
-66.407	800.000	-0.026	0.112
-65.392	198.672	-0.212	0.317
-64.378	71.777	-0.178	0.181
-63.363	-66.821	0.132	0.051
-62.349	-87.843	-0.046	-0.014
-61.334	210.149	-0.841	-1.289
-60.319	120.615	0.573	0.695
-59.305	335.569	-0.685	-1.297
-58.290	107.412	1.003	1.165
-57.276	158.848	0.939	1.274
-56.261	-200.000	124.333	641.352
-55.246	409.390	1563.117	3231.870
-54.232	143.123	2721.077	3533.658
-53.217	95.279	2161.847	2404.707
-52.203	34.721	1595.029	1361.236
-51.188	26.518	1338.730	1093.148
-50.173	23.936	1301.447	1047.482
-49.159	50.828	1370.655	1267.193
-48.144	48.581	1381.218	1263.319
-47.130	26.796	1329.644	1087.227
-46.115	23.473	1310.981	1052.239
-45.100	23.270	1305.878	1046.900
-44.086	23.229	1303.282	1044.537
-43.071	23.315	1300.965	1043.146
-42.057	23.206	1298.680	1040.629
-41.042	23.111	1297.523	1039.104
-40.027	23.300	1295.840	1038.821
-39.013	23.260	1293.379	1036.573
-37.998	23.265	1292.417	1035.795
-36.984	23.301	1290.308	1034.272
-35.969	23.548	1288.143	1033.934
-34.954	23.341	1286.956	1031.733
-33.940	23.276	1285.952	1030.513
-32.925	23.411	1284.333	1029.957
-31.911	23.430	1282.801	1028.799
-30.896	23.411	1281.774	1027.822
-29.881	23.454	1280.318	1026.862
-28.867	23.420	1279.048	1025.607
-27.852	23.423	1278.153	1024.869
-26.838	23.451	1276.390	1023.576
-25.823	23.573	1274.474	1022.700
-24.809	23.475	1273.596	1021.390
-23.794	23.436	1272.091	1019.919
-22.779	23.479	1270.793	1019.083
-21.765	23.472	1269.253	1017.769
-20.750	23.486	1268.387	1017.119
-19.736	23.442	1266.426	1015.248
-18.721	23.337	1266.158	1014.393
-17.706	23.377	1264.696	1013.414
-16.692	23.321	1263.326	1011.953
-15.677	23.248	1262.602	1010.915
-14.663	23.277	1261.173	1009.899
-13.648	23.302	1260.032	1009.087
-12.633	23.312	1259.250	1008.475
-11.619	23.232	1258.896	1007.702
-10.604	23.268	1257.456	1006.711
-9.590	23.312	1256.429	1006.099
-8.575	23.306	1256.013	1005.691
-7.560	23.285	1255.080	1004.784
-6.546	23.258	1254.380	1004.031
-5.531	23.255	1253.569	1003.327
-4.517	23.280	1252.726	1002.755
-3.502	23.273	1252.358	1002.377
-2.487	23.308	1250.777	1001.272
-1.473	23.379	1246.376	998.111
-0.458	21.836	1232.107	978.042
0.556	16.987	1216.821	942.708
1.571	13.588	1224.325	929.402
2.586	12.873	1240.112	937.240
3.600	12.810	1228.332	927.898
4.615	9.437	1156.090	855.350
5.629	3.160	1085.362	771.547
6.644	0.332	1067.872	745.082
7.659	0.229	1065.654	742.960
8.673	0.055	1064.980	741.570
9.688	0.144	1063.559	740.954
10.702	0.382	1061.537	740.646
11.717	4.178	1065.868	762.297
12.731	11.168	1075.282	803.546
13.746	15.622	1081.012	829.795
14.761	16.698	1081.582	835.469
15.775	16.059	1079.948	830.987
16.790	15.043	1078.202	824.564
17.804	14.383	1076.415	819.881
18.819	14.193	1075.167	817.921
19.834	13.797	1074.473	815.375
20.848	13.543	1073.678	813.455
21.863	13.294	1072.855	811.538
22.877	13.197	1072.009	810.347
23.892	13.063	1072.027	809.632
24.907	13.046	1070.768	808.528
25.921	13.158	1069.946	808.382
26.936	13.302	1068.649	808.037
27.950	13.254	1068.013	807.248
28.965	13.279	1066.394	806.074
29.980	13.419	1065.232	805.807
30.994	13.244	1064.514	804.341
32.009	13.423	1063.318	804.238
33.023	13.332	1062.362	803.002
34.038	13.283	1061.110	801.744
35.053	13.295	1060.902	801.578
36.067	13.294	1059.745	800.628
37.082	13.346	1058.906	800.172
38.096	13.367	1057.859	799.415
39.111	13.302	1057.588	798.821
40.126	13.345	1055.715	797.546
41.140	13.172	1054.882	796.011
42.155	13.113	1053.927	794.937
43.169	13.272	1052.181	794.313
44.184	13.088	1051.875	793.129
45.199	13.073	1050.903	792.252
46.213	13.221	1049.653	791.949
47.228	13.265	1048.523	791.240
48.242	13.259	1047.126	790.087
49.257	13.275	1046.709	789.777
50.271	13.287	1045.433	788.803
51.286	13.389	1044.179	788.274
52.301	13.397	1043.642	787.834
53.315	13.284	1042.937	786.698
54.330	13.192	1041.810	785.339
55.344	13.146	1040.720	784.227
56.359	13.149	1040.246	783.815
57.374	13.093	1039.006	782.547
58.388	13.193	1038.181	782.333
59.403	13.063	1037.845	781.393
60.417	13.181	1036.590	780.934
61.432	13.117	1035.901	780.044
62.447	13.125	1034.331	778.835
63.461	13.120	1034.376	778.772
64.476	13.084	1033.129	777.597
65.490	13.075	1032.731	777.188
66.505	13.050	1031.719	776.239
67.520	13.213	1030.840	776.276
68.534	13.053	1030.529	775.218
69.549	13.220	1029.307	775.013
70.563	13.101	1028.745	773.967
71.578	13.089	1027.960	773.250
72.593	12.939	1027.404	772.062
73.607	13.157	1026.558	772.376
74.622	13.070	1025.772	771.311
75.636	13.007	1025.120	770.460
76.651	13.020	1024.567	770.036
77.666	12.968	1024.101	769.373
78.680	13.090	1023.105	769.126
79.695	13.021	1022.850	768.543
80.709	13.064	1022.138	768.140
81.724	13.201	1021.379	768.141
82.739	13.276	1020.290	767.601
83.753	13.235	1019.313	766.608
84.768	13.333	1018.761	766.582
85.782	13.362	1017.703	765.849
86.797	13.303	1016.968	764.956
87.812	13.370	1015.827	764.342
88.826	13.283	1014.967	763.223
89.841	13.285	1014.076	762.496
90.855	13.227	1013.468	761.704
91.870	13.341	1012.523	761.453
92.884	13.422	1011.777	761.194
93.899	13.467	1010.398	760.298
94.914	13.396	1009.901	759.530
95.928	13.335	1009.432	758.828
96.943	13.369	1008.650	758.332
97.957	13.401	1008.113	758.006
98.972	13.362	1006.919	756.861
99.987	13.282	1005.918	755.677
101.001	13.348	1004.884	755.136
102.016	13.284	1003.916	754.051
103.030	13.244	1003.765	753.690
104.045	13.359	1002.507	753.202
105.060	13.260	1001.963	752.275
106.074	13.296	1000.934	751.598
107.089	13.173	1000.081	750.335
108.103	13.209	999.050	749.655
109.118	13.236	998.235	749.101
110.133	13.284	997.140	748.430
111.147	13.279	996.091	747.553
112.162	13.231	995.486	746.819
113.176	13.244	994.907	746.375
114.191	13.323	994.050	746.023
115.206	13.287	993.449	745.343
116.220	13.236	992.606	744.417
117.235	13.227	991.545	743.512
118.249	13.249	990.534	742.790
119.264	13.174	990.212	742.143
120.279	13.193	989.263	741.452
121.293	13.201	988.423	740.794
122.308	13.286	987.302	740.270
123.322	13.198	986.287	739.048
124.337	13.171	985.627	738.368
125.352	13.247	984.556	737.838
126.366	13.258	983.363	736.928
127.381	13.247	982.395	736.091
128.395	13.329	980.866	735.242
129.410	13.108	980.872	734.201
130.424	13.265	979.798	734.028
131.439	13.152	978.837	732.743
132.454	13.253	977.819	732.365
133.468	13.307	976.987	731.915
134.483	13.297	976.147	731.177
135.497	13.342	975.570	730.879
136.512	13.289	974.685	729.916
137.527	13.365	974.034	729.698
138.541	13.259	973.060	728.438
139.556	13.385	972.476	728.491
140.570	13.507	971.398	728.155
141.585	13.479	970.924	727.612
142.600	13.467	969.710	726.586
143.614	13.423	969.478	726.156
144.629	13.485	968.514	725.641
145.643	13.483	967.575	724.863
146.658	13.529	966.102	723.895
147.673	13.502	965.408	723.195
148.687	13.488	964.491	722.384
149.702	13.339	964.009	721.306
150.716	13.383	963.171	720.808
151.731	13.488	962.294	720.545
152.746	13.444	962.112	720.154
153.760	13.414	961.416	719.440
154.775	13.472	960.470	718.921
155.789	13.521	959.868	718.620
156.804	13.638	959.015	718.422
157.819	13.510	958.777	717.627
158.833	13.615	958.085	717.501
159.848	13.596	957.356	716.809
160.862	13.500	956.264	715.514
161.877	13.587	955.209	715.034
162.892	13.585	954.374	714.336
163.906	13.500	953.433	713.205
164.921	13.597	952.698	713.009
165.935	13.710	951.634	712.637
166.950	13.682	950.312	711.463
167.964	13.614	950.055	710.917
168.979	13.551	948.999	709.792
169.994	13.536	948.436	709.244
171.008	13.530	947.875	708.735
172.023	13.623	947.031	708.442
173.037	13.665	946.393	708.079
174.052	13.755	945.778	707.942
175.067	13.544	944.775	706.230
176.081	13.660	944.263	706.275
177.096	13.698	943.748	705.993
178.110	13.642	943.321	705.372
179.125	13.567	942.511	704.384
180.140	13.667	942.272	704.570
181.154	13.761	941.380	704.236
182.169	13.812	941.109	704.189
183.183	13.963	940.380	704.221
184.198	13.836	939.753	703.151
185.213	13.954	938.492	702.645
186.227	13.834	938.130	701.805
187.242	13.882	937.427	701.420
188.256	14.015	936.389	701.142
189.271	13.894	936.102	700.352
190.286	13.795	935.249	699.239
191.300	13.763	934.466	698.454
192.315	13.813	933.930	698.204
193.329	13.850	933.525	697.995
194.344	13.812	932.710	697.165
195.359	13.867	931.994	696.796
196.373	13.886	931.828	696.690
197.388	13.979	931.243	696.581
198.402	13.968	930.655	696.035
199.417	14.025	929.964	695.695
200.432	14.161	929.595	695.928
201.446	14.153	928.745	695.193
202.461	14.256	928.573	695.436
203.475	14.160	928.113	694.628
204.490	14.264	926.536	693.819
205.504	14.133	926.074	692.866
206.519	14.211	925.382	692.614
207.534	14.070	924.754	691.494
208.548	14.056	924.462	691.157
209.563	14.174	923.483	690.856
210.577	14.235	923.003	690.688
211.592	14.265	922.359	690.270
212.607	14.255	921.673	689.653
213.621	14.262	920.420	688.681
214.636	14.308	919.937	688.451
215.650	14.202	919.885	687.913
216.665	14.456	918.294	687.712
217.680	14.402	917.544	686.864
218.694	14.391	916.824	686.222
219.709	14.335	916.987	686.051
220.723	14.356	916.108	685.417
221.738	14.372	915.366	684.868
222.753	14.324	914.942	684.295
223.767	14.397	914.426	684.146
224.782	14.393	913.500	683.377
225.796	14.563	913.131	683.736
226.811	14.450	912.332	682.618
227.826	14.325	912.083	681.859
228.840	14.385	910.981	681.218
229.855	14.532	909.670	680.780
230.869	14.615	908.883	680.466
231.884	14.549	908.129	679.572
232.899	14.625	907.207	679.132
233.913	14.455	907.406	678.530
234.928	14.379	906.700	677.632
235.942	14.425	906.074	677.291
236.957	14.603	905.605	677.606
237.972	14.579	904.908	676.926
238.986	14.575	903.823	676.040
240.001	14.583	903.298	675.618
241.015	14.552	902.963	675.180
242.030	14.602	902.451	674.943
243.045	14.609	901.811	674.431
244.059	14.619	901.054	673.844
245.074	14.604	900.512	673.319
246.088	14.678	899.414	672.739
247.103	14.514	899.370	671.985
248.117	14.725	898.751	672.313
249.132	14.844	897.762	671.990
250.147	14.829	897.378	671.583
251.161	14.859	896.340	670.868
252.176	14.943	895.496	670.514
253.190	14.949	894.996	670.107
254.205	15.026	894.516	669.994
255.220	15.030	893.751	669.379
256.234	14.901	893.317	668.479
257.249	14.981	892.672	668.255
258.263	14.970	891.787	667.489
259.278	14.895	891.490	666.910
260.293	14.918	890.820	666.443
261.307	15.109	890.008	666.534
262.322	15.099	889.608	666.136
263.336	15.236	888.640	665.895
264.351	15.189	887.799	665.023
265.366	15.256	887.030	664.651
266.380	15.189	886.420	663.870
267.395	15.076	886.188	663.193
268.409	15.235	885.224	663.040
269.424	15.174	884.410	662.131
270.439	15.170	884.027	661.770
271.453	15.110	883.398	661.002
272.468	15.156	882.942	660.786
273.482	15.318	882.044	660.692
274.497	15.270	881.395	659.961
275.512	15.269	880.922	659.544
276.526	15.342	880.556	659.496
277.541	15.215	880.203	658.675
278.555	15.353	879.180	658.395
279.570	15.505	878.532	658.445
280.585	15.362	877.755	657.247
281.599	15.359	877.383	656.896
282.614	15.305	876.637	656.068
283.628	15.374	876.208	655.958
284.643	15.318	875.353	655.043
285.657	15.538	874.506	655.208
286.672	15.519	874.048	654.735
287.687	15.434	873.422	653.877
288.701	15.403	873.037	653.411
289.716	15.467	872.367	653.100
290.730	15.574	871.565	652.855
291.745	15.526	870.832	652.062
292.760	15.603	870.242	651.864
293.774	15.558	870.229	651.622
294.789	15.635	868.948	650.902
295.803	15.666	868.328	650.500
296.818	15.637	867.818	649.949
297.833	15.616	866.882	649.110
298.847	15.510	866.626	648.450
299.862	15.678	866.129	648.669
300.876	15.601	865.815	648.080
301.891	15.809	864.926	648.158
302.906	15.647	864.799	647.381
303.920	15.903	863.629	647.433
304.935	15.724	863.549	646.629
305.949	15.854	862.754	646.476
306.964	15.804	862.118	645.747
307.979	15.888	861.112	645.259
308.993	15.814	861.069	644.889
310.008	15.900	860.171	644.488
311.022	15.925	859.779	644.233
312.037	15.727	859.233	643.009
313.052	15.828	858.644	642.897
314.066	15.820	857.937	642.281
315.081	15.862	857.474	642.036
316.095	15.848	856.753	641.385
317.110	15.875	856.320	641.108
318.125	15.825	855.940	640.576
319.139	15.964	855.308	640.575
320.154	15.889	854.921	639.947
321.168	15.897	854.503	639.606
322.183	15.923	853.627	638.993
323.197	15.868	853.602	638.708
324.212	15.958	852.675	638.298
325.227	15.953	852.267	637.919
326.241	15.891	851.710	637.211
327.256	15.935	851.133	636.888
328.270	15.923	850.582	636.374
329.285	15.959	850.009	636.024
330.300	15.948	849.287	635.386
331.314	16.045	848.670	635.235
332.329	16.050	848.021	634.712
333.343	16.034	848.175	634.710
334.358	16.003	847.331	633.906
335.373	15.914	847.388	633.557
336.387	16.034	846.858	633.558
337.402	16.071	846.265	633.197
338.416	16.234	846.059	633.597
339.431	16.142	845.613	632.863
340.446	16.196	845.085	632.615
341.460	16.232	844.751	632.442
342.475	16.320	844.398	632.452
343.489	16.350	843.894	632.131
344.504	16.247	843.609	631.477
345.519	16.343	842.917	631.261
346.533	16.577	842.022	631.407
347.548	16.305	841.768	630.149
348.562	16.293	841.581	629.905
349.577	16.398	840.759	629.627
350.592	16.277	840.009	628.560
351.606	16.294	839.325	628.054
352.621	16.140	838.722	626.977
353.635	16.337	838.225	627.281
354.650	16.249	837.683	626.493
355.665	16.382	836.986	626.408
356.679	16.510	836.368	626.366
357.694	16.645	835.554	626.200
358.708	16.502	835.198	625.350
359.723	16.483	834.474	624.681
360.738	16.550	833.926	624.463
361.752	16.601	833.328	624.147
362.767	16.625	832.908	623.865
363.781	16.567	832.216	623.078
364.796	16.782	831.521	623.296
365.810	16.687	831.175	622.631
366.825	16.693	830.937	622.418
367.840	16.789	830.398	622.316
368.854	16.760	829.845	621.739
369.869	16.746	829.549	621.411
370.883	16.868	829.314	621.628
371.898	16.867	828.495	620.953
372.913	16.889	828.141	620.714
373.927	16.826	827.713	620.109
374.942	16.809	827.428	619.778
375.956	16.881	826.857	619.557
376.971	16.944	826.292	619.310
377.986	16.985	825.869	619.086
379.000	17.132	825.144	619.025
380.015	17.006	824.938	618.355
381.029	17.141	824.182	618.229
382.044	16.948	823.778	617.166
383.059	16.983	823.248	616.844
384.073	17.079	822.677	616.709
385.088	16.981	822.304	616.017
386.102	17.023	821.735	615.690
387.117	16.902	821.140	614.752
388.132	16.858	820.936	614.384
389.146	16.889	820.227	613.911
390.161	17.107	819.408	614.035
391.175	17.176	819.075	613.978
392.190	17.044	818.555	613.056
393.205	16.970	818.428	612.640
394.219	17.074	817.752	612.455
395.234	16.989	817.506	611.913
396.248	17.030	817.016	611.639
397.263	17.053	816.557	611.324
398.278	17.068	816.114	610.991
399.292	17.079	815.494	610.512
400.307	17.206	814.856	610.436
401.321	17.152	814.671	610.050
402.336	17.083	814.721	609.788
403.350	17.136	814.080	609.443
404.365	17.262	813.270	609.235
405.380	17.136	812.877	608.433
406.394	17.311	812.278	608.558
407.409	17.404	811.402	608.182
408.423	17.479	811.580	608.528
409.438	17.498	810.917	608.046
410.453	17.301	810.877	607.260
411.467	17.473	810.155	607.278
412.482	17.577	809.645	607.213
413.496	17.529	809.419	606.817
414.511	17.592	809.303	606.900
415.526	17.606	808.481	606.281
416.540	17.609	808.034	605.902
417.555	17.460	807.827	605.165
418.569	17.568	807.531	605.274
419.584	17.640	806.468	604.679
420.599	17.585	806.408	604.386
421.613	113.552	1298.809	1486.683
422.628	98.054	1370.476	1486.751
