DTS Sentinel unit serial number:	SN413079Multiplexer serial number:	ORYXHardware model number:	OX4-SRSoftware version number:	ORYX F/W v4.00 Oryx Data Collector v3.7.2.0data status	okinstallation	princeton_trtdifferential loss correction	single-endedforward channel	channel 1reverse channel	N/Adate	2019/09/16time	19:38:35forward acquisition time	60.00reverse acquisition time	0.00gamma	496.2192k internal	0.2317k external	0.2317temperature offset calibration	0.9949default loss term (dB/km)	0.3790temperature slope calibration	1.0000multiplexer offset coefficient	1.0000multiplexer slope coefficient	1.0000fibre end	0.00T internal ref (°C)	34.19T ext. ref 1 (°C)	0.05T ext. ref 2 (°C)	27.11length (m)	temperature (°C)	Stokes	anti-Stokes-747.200	315.534	-0.117	0.223
-746.185	-35.947	0.135	0.074
-745.171	5.572	0.174	-0.130
-744.156	800.000	0.185	0.616
-743.142	-200.000	-0.011	-0.252
-742.127	16.930	-0.104	0.083
-741.112	781.313	0.053	-0.147
-740.098	-9.248	-0.134	0.090
-739.083	-200.000	0.019	0.104
-738.069	471.083	-0.087	-0.198
-737.054	15.143	-0.148	0.117
-736.039	-62.626	0.176	-0.074
-735.025	-128.221	-0.182	-0.026
-734.010	162.813	-0.306	0.434
-732.996	-125.808	-0.090	-0.014
-731.981	-51.252	-0.277	0.131
-730.966	-113.287	0.156	-0.031
-729.952	-55.791	-0.108	-0.049
-728.937	316.705	0.147	-0.282
-727.923	26.897	0.167	0.142
-726.908	-200.000	0.000	-0.201
-725.894	115.294	-0.091	0.112
-724.879	659.349	-0.071	-0.185
-723.864	337.350	0.075	0.148
-722.850	618.836	-0.185	0.471
-721.835	-77.152	-0.093	-0.033
-720.821	-107.591	-0.090	-0.020
-719.806	11.706	0.108	-0.084
-718.791	800.000	-0.056	-0.227
-717.777	-92.431	-0.264	-0.075
-716.762	-200.000	0.003	0.084
-715.748	95.516	0.038	0.044
-714.733	12.532	0.128	0.100
-713.718	-200.000	0.002	0.188
-712.704	-175.530	0.263	0.007
-711.689	0.415	-0.129	-0.093
-710.675	-47.611	-0.166	0.081
-709.660	-200.000	0.011	0.120
-708.645	52.946	-0.155	0.150
-707.631	-79.065	0.273	-0.094
-706.616	-25.619	-0.306	-0.183
-705.602	32.762	-0.189	0.165
-704.587	64.311	0.063	0.064
-703.572	-24.267	-0.226	0.136
-702.558	49.965	0.071	0.068
-701.543	-103.070	-0.169	0.040
-700.529	-200.000	0.015	0.092
-699.514	277.185	0.107	0.192
-698.499	-189.629	-0.310	-0.004
-697.485	-19.455	0.135	0.085
-696.470	-119.058	-0.206	-0.036
-695.456	-37.337	-0.224	-0.121
-694.441	208.346	0.200	0.317
-693.426	621.699	0.085	-0.216
-692.412	800.000	-0.109	0.404
-691.397	-39.004	-0.173	0.092
-690.383	-49.417	-0.087	-0.042
-689.368	659.973	0.020	0.053
-688.354	213.845	-0.026	-0.042
-687.339	284.601	0.063	0.115
-686.324	179.488	-0.085	0.126
-685.310	-161.453	-0.190	-0.010
-684.295	149.036	0.123	0.168
-683.281	39.075	0.104	0.094
-682.266	800.000	0.075	0.288
-681.251	171.875	0.106	0.154
-680.237	81.908	-0.111	-0.122
-679.222	89.328	0.186	-0.209
-678.208	320.880	0.087	0.167
-677.193	121.633	-0.133	-0.167
-676.178	205.647	-0.087	0.137
-675.164	-200.000	-0.016	-0.269
-674.149	305.318	-0.124	-0.233
-673.135	37.553	-0.170	-0.152
-672.120	-119.946	-0.212	-0.037
-671.105	79.974	0.150	0.163
-670.091	180.393	-0.056	-0.082
-669.076	143.193	-0.037	0.050
-668.062	-200.000	-0.024	-0.119
-667.047	-19.178	0.224	0.140
-666.032	330.743	0.125	-0.244
-665.018	35.148	0.195	0.172
-664.003	-115.256	0.243	-0.046
-662.989	-174.992	-0.350	0.010
-661.974	-124.390	-0.301	-0.047
-660.959	31.541	-0.201	0.174
-659.945	-200.000	-0.033	0.194
-658.930	96.190	0.304	-0.350
-657.916	270.205	-0.177	0.313
-656.901	-114.070	-0.158	0.031
-655.886	-20.908	-0.167	-0.104
-654.872	-25.319	-0.272	-0.162
-653.857	147.658	-0.073	0.099
-652.843	-131.846	0.251	-0.033
-651.828	-200.000	0.008	-0.139
-650.814	-16.622	0.334	0.213
-649.799	-66.050	-0.195	0.079
-648.784	-200.000	0.010	-0.341
-647.770	144.919	-0.043	-0.058
-646.755	-100.587	0.161	0.040
-645.741	-200.000	-0.003	-0.077
-644.726	800.000	-0.026	0.110
-643.711	-53.899	0.174	-0.080
-642.697	-1.669	0.051	0.036
-641.682	-130.540	-0.222	0.030
-640.668	85.634	0.156	-0.172
-639.653	-200.000	-0.000	0.151
-638.638	800.000	0.063	-0.191
-637.624	-145.997	0.136	0.012
-636.609	109.843	-0.038	-0.045
-635.595	279.302	0.074	-0.133
-634.580	24.599	-0.265	-0.221
-633.565	-115.634	-0.313	-0.059
-632.551	-200.000	0.022	-0.170
-631.536	-200.000	0.006	-0.278
-630.522	325.547	-0.210	-0.405
-629.507	124.112	-0.080	-0.102
-628.492	-145.924	-0.290	0.026
-627.478	66.285	0.080	0.081
-626.463	-23.943	-0.328	-0.198
-625.449	-58.501	0.220	-0.096
-624.434	800.000	-0.086	-0.313
-623.419	480.932	-0.037	-0.083
-622.405	-41.690	0.024	0.012
-621.390	192.615	-0.121	0.184
-620.376	366.481	-0.037	0.074
-619.361	800.000	-0.069	-0.294
-618.346	-200.000	0.034	0.217
-617.332	106.700	-0.154	-0.184
-616.317	-200.000	0.064	-0.287
-615.303	-80.903	0.140	0.047
-614.288	-101.472	-0.188	-0.046
-613.273	-95.374	-0.153	-0.041
-612.259	800.000	0.032	-0.089
-611.244	800.000	-0.081	-0.355
-610.230	-200.000	-0.013	-0.299
-609.215	-117.748	0.208	-0.038
-608.201	-200.000	0.093	-0.430
-607.186	800.000	-0.035	-0.143
-606.171	171.960	0.245	-0.354
-605.157	280.264	-0.110	0.198
-604.142	-200.000	0.022	0.200
-603.128	4.413	-0.094	0.070
-602.113	-31.044	-0.102	-0.058
-601.098	-44.137	0.330	-0.167
-600.084	211.582	-0.072	-0.114
-599.069	-73.677	0.248	-0.091
-598.055	-43.219	0.238	-0.122
-597.040	-108.731	-0.355	-0.077
-596.025	-7.995	0.169	-0.114
-595.011	800.000	-0.066	-0.207
-593.996	260.896	-0.146	-0.255
-592.982	-200.000	-0.006	-0.300
-591.967	50.053	0.253	-0.241
-590.952	192.491	0.184	0.279
-589.938	-96.140	0.158	0.042
-588.923	102.448	0.207	-0.244
-587.909	684.208	0.091	-0.239
-586.894	-87.493	-0.041	0.012
-585.879	241.532	0.099	0.167
-584.865	800.000	-0.046	0.159
-583.850	800.000	-0.078	-0.261
-582.836	-33.367	0.054	-0.030
-581.821	-122.237	0.113	0.019
-580.806	244.436	0.022	-0.038
-579.792	-73.801	-0.191	-0.070
-578.777	140.455	-0.070	-0.093
-577.763	800.000	-0.110	-0.447
-576.748	-77.812	-0.162	0.056
-575.733	-146.485	0.065	-0.006
-574.719	498.988	0.105	-0.243
-573.704	36.096	0.087	0.077
-572.690	-26.739	0.100	-0.059
-571.675	74.460	-0.085	0.090
-570.661	-160.398	0.290	0.016
-569.646	-93.645	0.230	0.064
-568.631	800.000	-0.100	0.279
-567.617	82.564	-0.202	0.220
-566.602	148.973	-0.109	-0.148
-565.588	21.789	0.267	-0.219
-564.573	-105.310	-0.260	-0.060
-563.558	-91.138	0.271	-0.078
-562.544	12.298	-0.182	-0.141
-561.529	286.823	0.113	-0.205
-560.515	237.998	0.110	-0.183
-559.500	800.000	-0.061	-0.187
-558.485	-29.212	0.223	-0.129
-557.471	-28.323	-0.159	0.092
-556.456	800.000	-0.040	0.139
-555.442	-85.765	-0.105	-0.033
-554.427	-26.715	-0.240	0.141
-553.412	-200.000	0.054	0.396
-552.398	-61.686	-0.114	0.048
-551.383	599.514	-0.119	0.297
-550.369	320.633	-0.130	0.249
-549.354	-19.864	-0.031	0.020
-548.339	126.599	-0.128	-0.163
-547.325	113.590	0.288	0.351
-546.310	-200.000	0.002	-0.014
-545.296	-103.336	-0.148	-0.035
-544.281	800.000	-0.084	-0.286
-543.266	-112.684	-0.258	-0.052
-542.252	74.495	-0.135	0.142
-541.237	-9.462	0.044	-0.029
-540.223	-76.710	-0.154	-0.054
-539.208	310.110	0.056	0.104
-538.193	7.849	-0.157	0.118
-537.179	-180.837	0.324	0.007
-536.164	-15.580	0.031	0.020
-535.150	33.574	-0.085	0.075
-534.135	-183.630	0.140	-0.002
-533.121	135.616	-0.133	-0.173
-532.106	292.389	-0.112	-0.205
-531.091	577.518	-0.027	-0.067
-530.077	-109.840	0.372	0.078
-529.062	-142.603	-0.138	-0.014
-528.048	288.947	0.053	-0.097
-527.033	-60.911	-0.175	0.074
-526.018	-83.263	0.334	0.108
-525.004	26.187	0.098	0.082
-523.989	69.127	-0.146	-0.151
-522.975	-102.730	-0.138	-0.033
-521.960	1.440	0.047	-0.034
-520.945	-0.235	-0.195	0.139
-519.931	-200.000	0.025	0.133
-518.916	-57.761	0.243	-0.107
-517.902	-96.852	0.170	0.045
-516.887	53.095	0.071	0.068
-515.872	-200.000	0.002	0.011
-514.858	17.351	0.151	-0.120
-513.843	-91.855	0.064	-0.018
-512.829	349.581	0.104	-0.206
-511.814	160.273	-0.062	-0.087
-510.799	-75.651	-0.450	-0.160
-509.785	-200.000	-0.037	-0.302
-508.770	-200.000	-0.061	-0.329
-507.756	-64.652	-0.213	0.087
-506.741	-7.408	-0.349	-0.237
-505.726	-67.225	-0.232	0.092
-504.712	-103.524	0.114	-0.027
-503.697	199.165	-0.104	-0.160
-502.683	393.541	0.120	0.251
-501.668	-200.000	-0.061	-0.324
-500.653	63.626	-0.062	-0.063
-499.639	-90.175	-0.200	-0.058
-498.624	800.000	0.015	-0.048
-497.610	473.318	0.090	0.203
-496.595	421.643	-0.024	0.051
-495.581	-200.000	-0.084	0.375
-494.566	-200.000	-0.021	0.339
-493.551	198.647	-0.088	-0.135
-492.537	38.113	0.312	0.278
-491.522	-200.000	-0.031	0.452
-490.508	-76.013	-0.164	-0.058
-489.493	-3.704	0.340	0.236
-488.478	-200.000	0.027	-0.177
-487.464	-2.160	-0.139	0.098
-486.449	519.025	-0.137	-0.321
-485.435	352.417	0.082	0.163
-484.420	-200.000	-0.042	0.316
-483.405	800.000	0.176	-0.499
-482.391	-200.000	-0.025	0.310
-481.376	-79.045	-0.543	-0.185
-480.362	189.264	-0.057	-0.085
-479.347	374.351	0.069	0.140
-478.332	98.436	-0.016	0.018
-477.318	-65.747	-0.113	0.045
-476.303	800.000	0.023	-0.089
-475.289	337.519	-0.191	0.371
-474.274	-143.167	0.158	-0.015
-473.259	-200.000	0.038	-0.191
-472.245	-200.000	0.051	0.264
-471.230	-200.000	-0.003	-0.106
-470.216	-48.221	0.067	-0.032
-469.201	-16.965	0.304	-0.192
-468.186	-200.000	0.054	0.240
-467.172	15.994	0.201	-0.158
-466.157	73.768	0.123	-0.130
-465.143	-157.050	-0.077	0.005
-464.128	-51.398	0.217	-0.102
-463.113	-12.738	-0.243	-0.159
-462.099	-90.003	-0.378	-0.110
-461.084	108.461	-0.106	0.127
-460.070	54.911	-0.192	-0.186
-459.055	79.598	0.034	-0.037
-458.040	-150.778	-0.239	0.018
-457.026	700.292	-0.081	0.213
-456.011	-66.710	-0.262	0.104
-454.997	50.470	-0.062	0.058
-453.982	-200.000	-0.009	-0.068
-452.968	571.628	0.071	-0.173
-451.953	800.000	-0.044	0.131
-450.938	800.000	-0.133	-0.379
-449.924	181.746	0.025	0.037
-448.909	-92.872	-0.097	-0.027
-447.895	54.094	0.114	-0.109
-446.880	119.747	-0.133	0.165
-445.865	310.966	0.153	0.287
-444.851	229.153	0.151	0.247
-443.836	-181.400	-0.345	-0.007
-442.822	-200.000	-0.002	0.177
-441.807	-143.285	0.270	0.026
-440.792	-103.090	-0.087	-0.021
-439.778	337.549	0.094	-0.184
-438.763	-161.884	-0.067	0.003
-437.749	-200.000	-0.021	0.124
-436.734	-200.000	0.003	-0.187
-435.719	-200.000	0.028	-0.139
-434.705	232.272	-0.071	0.117
-433.690	-126.937	0.029	-0.004
-432.676	-105.571	0.245	-0.056
-431.661	33.187	-0.215	0.187
-430.646	-90.183	0.153	0.044
-429.632	-161.926	0.163	0.008
-428.617	176.229	0.177	-0.257
-427.603	-100.696	0.192	0.047
-426.588	-67.542	0.548	-0.215
-425.573	279.964	-0.205	0.366
-424.559	536.046	-0.232	0.551
-423.544	-135.395	0.285	-0.034
-422.530	65.976	-0.294	0.298
-421.515	-142.748	0.260	0.025
-420.500	-64.758	-0.361	0.146
-419.486	201.786	-0.315	0.485
-418.471	385.681	0.154	0.317
-417.457	-2.010	0.326	0.229
-416.442	11.242	-0.097	0.074
-415.428	12.164	-0.100	-0.077
-414.413	-63.090	-0.231	-0.095
-413.398	-48.517	0.331	0.159
-412.384	462.485	-0.088	-0.196
-411.369	-200.000	-0.013	0.122
-410.355	-200.000	-0.052	-0.237
-409.340	-93.369	-0.141	-0.039
-408.325	-100.051	0.272	-0.068
-407.311	410.981	-0.214	-0.453
-406.296	-105.637	0.150	-0.034
-405.282	800.000	-0.033	0.107
-404.267	-200.000	0.057	-0.385
-403.252	14.914	-0.067	-0.052
-402.238	-79.981	0.524	-0.176
-401.223	-87.858	-0.168	-0.051
-400.209	-59.044	-0.481	0.208
-399.194	-123.283	0.197	0.031
-398.179	-25.136	0.071	0.042
-397.165	177.598	-0.074	0.108
-396.150	36.920	-0.063	-0.056
-395.136	800.000	0.132	-0.488
-394.121	510.273	-0.080	0.185
-393.106	256.310	-0.057	0.098
-392.092	-27.266	-0.434	-0.252
-391.077	75.957	-0.045	-0.047
-390.063	564.457	0.110	0.267
-389.048	-25.645	-0.127	0.075
-388.033	124.582	-0.089	0.112
-387.019	-200.000	-0.016	-0.122
-386.004	118.115	-0.194	-0.239
-384.990	4.483	0.164	0.120
-383.975	188.381	0.068	0.102
-382.960	-146.716	-0.340	-0.029
-381.946	10.584	-0.222	0.169
-380.931	800.000	-0.084	0.332
-379.917	146.221	0.169	0.226
-378.902	-92.530	0.462	0.130
-377.888	800.000	0.146	0.441
-376.873	800.000	-0.030	0.099
-375.858	-116.713	0.216	0.040
-374.844	117.810	-0.221	0.272
-373.829	800.000	-0.036	0.144
-372.815	-85.652	0.325	-0.101
-371.800	-74.021	0.238	-0.086
-370.785	14.517	0.241	0.188
-369.771	143.390	0.079	0.104
-368.756	268.121	0.036	0.063
-367.742	26.153	-0.046	-0.038
-366.727	-200.000	-0.032	0.459
-365.712	800.000	-0.102	0.433
-364.698	-24.768	-0.277	0.164
-363.683	-21.778	-0.227	0.138
-362.669	-163.592	-0.197	0.009
-361.654	-157.143	-0.168	0.010
-360.639	305.630	-0.095	0.176
-359.625	416.688	0.116	0.247
-358.610	-25.755	-0.254	-0.150
-357.596	12.940	0.107	-0.082
-356.581	-162.812	-0.273	-0.013
-355.566	116.808	-0.043	-0.053
-354.552	-200.000	-0.004	0.037
-353.537	120.654	-0.088	0.109
-352.523	-149.415	-0.181	-0.014
-351.508	672.280	0.077	0.200
-350.493	-200.000	0.010	0.166
-349.479	-1.530	-0.111	-0.078
-348.464	-118.140	0.342	0.061
-347.450	198.387	-0.050	0.076
-346.435	-13.237	0.363	0.235
-345.420	7.108	0.144	0.107
-344.406	-200.000	-0.012	0.229
-343.391	-200.000	0.034	0.223
-342.377	-83.354	0.281	-0.090
-341.362	-26.705	0.162	-0.095
-340.348	-107.437	0.305	0.067
-339.333	-200.000	-0.018	0.173
-338.318	800.000	0.065	-0.265
-337.304	-138.440	-0.304	0.033
-336.289	-79.026	-0.214	0.072
-335.275	-99.648	0.445	-0.111
-334.260	-93.565	-0.161	-0.044
-333.245	45.357	0.053	-0.049
-332.231	273.517	0.103	0.182
-331.216	483.713	0.049	0.112
-330.202	-168.813	-0.188	-0.007
-329.187	-55.800	0.194	-0.086
-328.172	221.825	-0.099	-0.158
-327.158	167.415	-0.184	-0.261
-326.143	800.000	0.081	0.237
-325.129	-145.689	0.294	-0.026
-324.114	-130.559	-0.151	0.020
-323.099	-32.576	0.164	-0.091
-322.085	-200.000	-0.043	-0.256
-321.070	-134.082	-0.179	-0.022
-320.056	-129.105	-0.248	-0.035
-319.041	-14.888	-0.269	0.172
-318.026	800.000	-0.040	-0.153
-317.012	-95.405	0.356	0.095
-315.997	-7.726	0.146	0.098
-314.983	-87.338	-0.304	0.092
-313.968	540.942	-0.071	0.168
-312.953	800.000	-0.022	-0.092
-311.939	0.452	0.079	0.056
-310.924	113.516	0.197	0.238
-309.910	-55.436	0.138	0.062
-308.895	-39.886	0.225	-0.117
-307.880	230.250	0.057	-0.093
-306.866	800.000	-0.046	0.130
-305.851	-100.562	-0.224	-0.055
-304.837	142.557	-0.104	0.138
-303.822	145.456	0.150	-0.200
-302.807	-200.000	-0.002	-0.241
-301.793	-105.732	0.341	0.077
-300.778	-158.798	0.362	0.021
-299.764	-200.000	0.018	0.083
-298.749	800.000	0.128	-0.441
-297.735	49.185	0.146	-0.136
-296.720	63.434	-0.046	-0.046
-295.705	64.097	-0.123	0.123
-294.691	-12.570	-0.231	-0.150
-293.676	-113.111	-0.093	-0.018
-292.662	-128.292	0.020	-0.003
-291.647	-200.000	-0.031	-0.225
-290.632	-99.442	0.453	-0.113
-289.618	325.229	0.168	0.319
-288.603	118.621	0.048	0.059
-287.589	-122.235	0.337	0.055
-286.574	800.000	-0.081	-0.330
-285.559	-200.000	0.038	-0.207
-284.545	-200.000	0.049	-0.225
-283.530	160.270	-0.135	0.187
-282.516	63.665	0.128	0.128
-281.501	800.000	-0.021	-0.063
-280.486	-67.160	0.330	0.129
-279.472	-200.000	-0.046	0.211
-278.457	65.783	0.123	-0.124
-277.443	-7.518	0.135	-0.091
-276.428	-163.302	0.326	-0.015
-275.413	-2.394	-0.249	-0.173
-274.399	-200.000	0.001	-0.280
-273.384	652.837	-0.088	-0.225
-272.370	139.267	0.074	-0.096
-271.355	13.448	-0.088	0.068
-270.340	95.278	0.180	0.204
-269.326	-101.941	0.191	0.046
-268.311	-88.638	-0.178	-0.053
-267.297	105.418	-0.231	-0.271
-266.282	-5.642	0.135	-0.092
-265.267	323.103	0.118	-0.223
-264.253	-200.000	-0.047	-0.207
-263.238	-200.000	0.050	-0.246
-262.224	182.766	-0.081	-0.119
-261.209	-108.102	-0.351	-0.076
-260.195	-200.000	-0.005	0.120
-259.180	539.690	-0.027	-0.064
-258.165	-95.598	-0.164	0.044
-257.151	-107.021	-0.271	-0.059
-256.136	248.531	0.157	0.263
-255.122	-200.000	0.026	0.224
-254.107	-91.728	0.235	0.066
-253.092	-200.000	-0.006	-0.146
-252.078	-200.000	-0.032	0.151
-251.063	148.229	0.155	-0.208
-250.049	-200.000	-0.002	0.314
-249.034	-36.559	-0.183	-0.098
-248.019	270.372	-0.088	-0.154
-247.005	-136.522	-0.326	-0.038
-245.990	180.819	0.225	0.328
-244.976	61.775	-0.149	0.147
-243.961	140.460	0.262	-0.343
-242.946	314.829	-0.077	0.144
-241.932	6.238	0.323	0.238
-240.917	33.422	0.170	-0.146
-239.903	52.391	0.275	-0.260
-238.888	261.473	0.042	0.073
-237.873	-83.225	0.241	-0.077
-236.859	-144.115	0.154	0.014
-235.844	300.009	0.103	0.189
-234.830	-114.757	0.174	0.033
-233.815	141.273	0.077	-0.101
-232.800	-200.000	0.044	-0.206
-231.786	108.540	-0.142	-0.168
-230.771	-127.708	-0.172	-0.025
-229.757	800.000	0.050	0.162
-228.742	61.857	-0.169	-0.167
-227.727	800.000	-0.110	0.329
-226.713	115.281	0.115	-0.140
-225.698	-200.000	0.132	0.000
-224.684	108.031	0.238	0.282
-223.669	-123.362	-0.096	0.015
-222.655	274.965	0.172	0.302
-221.640	14.059	-0.120	0.093
-220.625	-91.470	-0.126	0.036
-219.611	-121.008	-0.175	0.029
-218.596	464.260	-0.163	-0.362
-217.582	-80.260	0.410	-0.136
-216.567	195.553	0.240	0.362
-215.552	-200.000	-0.007	-0.080
-214.538	103.143	0.024	-0.028
-213.523	-200.000	0.001	-0.233
-212.509	777.444	0.037	-0.100
-211.494	-47.129	-0.304	-0.147
-210.479	-4.122	0.241	-0.165
-209.465	-28.401	-0.160	0.092
-208.450	-163.924	-0.169	-0.008
-207.436	229.711	-0.050	0.080
-206.421	94.945	-0.301	-0.339
-205.406	800.000	0.010	0.039
-204.392	618.360	0.059	0.148
-203.377	248.586	0.158	-0.264
-202.363	-200.000	0.037	-0.185
-201.348	-200.000	-0.008	-0.120
-200.333	-79.096	-0.022	0.007
-199.319	82.401	-0.177	0.190
-198.304	800.000	0.063	0.256
-197.290	-144.002	-0.069	-0.006
-196.275	-200.000	-0.024	0.219
-195.260	-131.267	-0.086	0.011
-194.246	-11.690	0.318	0.207
-193.231	189.489	0.195	-0.290
-192.217	-36.878	0.249	0.132
-191.202	800.000	0.041	0.174
-190.187	800.000	0.069	0.289
-189.173	-9.174	-0.222	0.147
-188.158	8.561	-0.239	-0.179
-187.144	47.044	0.203	0.187
-186.129	-125.957	0.177	-0.026
-185.114	291.458	0.093	0.168
-184.100	800.000	-0.111	0.344
-183.085	-200.000	0.016	-0.249
-182.071	-17.407	0.444	0.277
-181.056	25.185	0.075	0.061
-180.042	326.317	-0.092	0.174
-179.027	103.841	-0.361	0.420
-178.012	27.530	0.280	-0.233
-176.998	-66.973	0.281	-0.110
-175.983	-200.000	-0.039	0.326
-174.969	-92.752	-0.750	-0.208
-173.954	-44.762	-0.233	0.115
-172.939	-101.351	-0.366	0.088
-171.925	-36.992	0.291	0.154
-170.910	-50.513	-0.064	-0.030
-169.896	-26.976	0.212	-0.122
-168.881	-94.058	-0.229	-0.062
-167.866	55.183	-0.091	0.087
-166.852	46.713	-0.341	0.313
-165.837	800.000	0.082	0.266
-164.823	66.639	0.190	0.192
-163.808	34.770	-0.177	0.153
-162.793	-98.083	0.178	0.045
-161.779	773.502	-0.096	-0.260
-160.764	312.095	-0.001	-0.001
-159.750	148.353	-0.121	0.161
-158.735	-114.303	-0.107	-0.020
-157.720	-177.533	-0.090	-0.002
-156.706	-101.758	-0.162	0.039
-155.691	-117.982	-0.216	0.038
-154.677	-158.787	-0.104	0.006
-153.662	800.000	0.055	0.237
-152.647	51.900	0.202	0.191
-151.633	-38.859	0.010	-0.005
-150.618	271.096	-0.133	-0.232
-149.604	116.911	0.036	-0.043
-148.589	443.094	-0.081	0.176
-147.574	31.222	-0.210	0.179
-146.560	511.469	0.039	-0.091
-145.545	284.528	0.210	0.373
-144.531	-80.597	0.187	-0.062
-143.516	800.000	-0.062	-0.194
-142.502	-122.967	0.200	0.032
-141.487	70.741	0.128	-0.131
-140.472	364.066	0.109	0.217
-139.458	189.357	-0.140	0.207
-138.443	424.452	0.083	-0.177
-137.429	-123.657	-0.135	0.021
-136.414	357.123	0.116	0.228
-135.399	800.000	-0.153	0.432
-134.385	-132.805	-0.406	-0.051
-133.370	131.849	0.160	-0.204
-132.356	-200.000	-0.021	0.217
-131.341	800.000	0.030	0.108
-130.326	-126.629	0.129	-0.019
-129.312	779.964	0.060	-0.163
-128.297	-54.867	-0.300	0.134
-127.283	116.454	0.083	0.100
-126.268	35.566	0.065	-0.056
-125.253	345.097	0.162	-0.314
-124.239	0.856	-0.091	-0.065
-123.224	291.885	-0.077	0.138
-122.210	18.853	-0.246	0.194
-121.195	-139.917	0.026	0.003
-120.180	3.385	-0.290	-0.209
-119.166	260.853	0.076	-0.130
-118.151	245.138	-0.075	0.124
-117.137	180.585	-0.153	-0.222
-116.122	-140.863	0.335	0.034
-115.107	-143.988	-0.095	-0.009
-114.093	-82.029	0.038	-0.012
-113.078	417.678	0.093	0.196
-112.064	-171.972	-0.353	-0.011
-111.049	-59.842	0.160	0.067
-110.034	20.948	-0.173	0.138
-109.020	-64.066	0.305	0.123
-108.005	-200.000	-0.011	0.468
-106.991	-97.414	-0.074	0.019
-105.976	800.000	0.024	-0.097
-104.962	186.702	-0.197	-0.289
-103.947	-103.571	-0.112	-0.026
-102.932	87.374	-0.144	0.158
-101.918	227.503	-0.161	0.258
-100.903	119.470	-0.205	0.250
-99.889	800.000	0.061	0.198
-98.874	-200.000	-0.097	-0.490
-97.859	-70.958	0.254	0.095
-96.845	-73.360	-0.133	-0.048
-95.830	23.822	-0.128	0.104
-94.816	-200.000	-0.009	0.149
-93.801	713.206	0.097	0.254
-92.786	800.000	-0.059	-0.228
-91.772	-166.549	-0.070	-0.003
-90.757	-200.000	0.019	-0.292
-89.743	-13.802	0.040	0.025
-88.728	-200.000	0.021	0.225
-87.713	-78.267	-0.271	0.092
-86.699	138.273	-0.071	-0.092
-85.684	-200.000	-0.008	-0.268
-84.670	113.519	-0.136	0.163
-83.655	117.877	-0.100	-0.121
-82.640	212.810	0.034	0.053
-81.626	-97.765	0.422	0.108
-80.611	284.895	0.101	0.179
-79.597	122.002	0.154	-0.190
-78.582	49.071	-0.140	0.130
-77.567	-132.518	0.197	0.025
-76.553	-200.000	-0.086	-0.386
-75.538	213.222	0.094	0.146
-74.524	-95.215	0.053	0.014
-73.509	-192.420	-0.342	-0.003
-72.494	-135.796	-0.223	0.026
-71.480	305.014	-0.138	0.252
-70.465	-144.241	0.201	-0.018
-69.451	800.000	0.038	0.108
-68.436	-200.000	0.038	0.254
-67.422	86.332	0.074	-0.081
-66.407	257.436	0.115	0.194
-65.392	-53.478	0.015	0.007
-64.378	-5.801	-0.222	0.150
-63.363	-200.000	0.025	0.179
-62.349	-125.861	-0.146	0.022
-61.334	-9.134	-1.044	-0.688
-60.319	410.955	0.241	0.505
-59.305	-200.000	-0.256	-1.159
-58.290	504.592	0.396	0.903
-57.276	800.000	0.526	1.855
-56.261	-200.000	93.566	551.285
-55.246	544.139	1367.700	3218.031
-54.232	159.297	2550.494	3495.825
-53.217	112.224	2156.123	2568.684
-52.203	45.565	1616.091	1470.710
-51.188	37.729	1353.842	1184.591
-50.173	34.342	1311.897	1127.839
-49.159	57.009	1357.224	1303.462
-48.144	59.590	1374.695	1335.670
-47.130	37.987	1333.054	1167.761
-46.115	34.310	1316.113	1131.096
-45.100	34.178	1311.449	1126.262
-44.086	34.115	1309.171	1123.886
-43.071	33.987	1306.699	1120.965
-42.057	34.064	1304.630	1119.600
-41.042	34.058	1303.261	1118.346
-40.027	34.060	1301.802	1117.062
-39.013	34.067	1299.934	1115.457
-37.998	34.167	1297.740	1114.113
-36.984	34.156	1296.420	1112.869
-35.969	34.179	1294.932	1111.686
-34.954	34.141	1293.211	1109.941
-33.940	34.287	1291.552	1109.324
-32.925	34.312	1290.415	1108.449
-31.911	34.353	1288.614	1107.094
-30.896	34.289	1287.706	1105.900
-29.881	34.162	1286.527	1104.106
-28.867	34.272	1284.915	1103.317
-27.852	34.300	1283.331	1102.075
-26.838	34.236	1282.209	1100.700
-25.823	34.382	1280.321	1099.874
-24.809	34.370	1279.095	1098.708
-23.794	34.343	1277.833	1097.425
-22.779	34.291	1276.600	1096.025
-21.765	34.256	1275.532	1094.864
-20.750	34.163	1274.017	1092.987
-19.736	34.210	1273.146	1092.462
-18.721	34.177	1271.495	1090.815
-17.706	34.145	1270.689	1089.898
-16.692	34.223	1269.050	1088.892
-15.677	34.177	1268.603	1088.207
-14.663	34.068	1267.506	1086.598
-13.648	34.138	1266.264	1085.889
-12.633	34.123	1265.233	1084.879
-11.619	34.108	1264.378	1084.016
-10.604	34.298	1263.199	1084.041
-9.590	34.048	1262.755	1082.198
-8.575	34.023	1261.929	1081.303
-7.560	34.071	1261.161	1080.875
-6.546	34.031	1260.276	1079.849
-5.531	34.035	1259.581	1079.228
-4.517	34.186	1257.905	1078.610
-3.502	34.225	1257.377	1078.332
-2.487	34.095	1256.902	1077.145
-1.473	33.958	1252.768	1072.786
-0.458	32.229	1236.709	1049.350
0.556	26.117	1218.199	1006.510
1.571	21.743	1223.677	986.385
2.586	20.617	1238.481	991.813
3.600	20.348	1227.723	981.592
4.615	14.989	1154.990	894.774
5.629	5.305	1076.423	785.362
6.644	0.558	1054.697	746.024
7.659	0.038	1052.255	741.665
8.673	-0.201	1051.496	739.890
9.688	-0.192	1050.672	739.287
10.702	0.126	1048.450	739.220
11.717	5.807	1056.196	772.666
12.731	14.566	1068.062	824.754
13.746	17.861	1071.279	843.475
14.761	17.075	1069.319	837.981
15.775	16.017	1067.061	830.922
16.790	14.908	1064.838	823.657
17.804	14.311	1063.312	819.466
18.819	13.834	1062.400	816.349
19.834	13.696	1061.137	814.627
20.848	13.422	1060.255	812.532
21.863	13.083	1059.693	810.365
22.877	12.997	1058.760	809.159
23.892	13.051	1058.353	809.043
24.907	12.832	1058.089	807.695
25.921	13.145	1056.681	808.081
26.936	13.072	1055.945	807.088
27.950	13.099	1054.578	806.107
28.965	13.092	1054.030	805.582
29.980	13.191	1052.783	805.036
30.994	13.286	1051.633	804.549
32.009	13.301	1050.716	803.850
33.023	13.236	1049.803	802.763
34.038	13.193	1048.823	801.737
35.053	13.141	1048.249	800.975
36.067	13.138	1047.226	800.107
37.082	13.131	1046.340	799.323
38.096	13.255	1045.788	799.432
39.111	13.231	1045.025	798.661
40.126	13.120	1043.866	797.172
41.140	12.906	1042.792	795.247
42.155	13.037	1041.534	794.851
43.169	12.915	1041.031	793.809
44.184	12.942	1040.050	793.117
45.199	12.906	1038.974	792.057
46.213	13.052	1037.420	791.502
47.228	13.170	1036.387	791.208
48.242	13.166	1035.284	790.278
49.257	13.143	1034.524	789.515
50.271	13.010	1034.184	788.550
51.286	13.139	1033.231	788.373
52.301	13.068	1032.231	787.200
53.315	13.045	1031.089	786.152
54.330	13.039	1030.060	785.269
55.344	13.199	1028.930	785.096
56.359	12.994	1028.328	783.593
57.374	12.992	1027.388	782.801
58.388	12.933	1026.855	782.044
59.403	12.952	1026.356	781.685
60.417	12.871	1025.435	780.532
61.432	12.972	1023.869	779.748
62.447	12.841	1023.433	778.729
63.461	12.948	1022.344	778.334
64.476	12.814	1021.680	777.130
65.490	12.842	1021.100	776.750
66.505	12.934	1020.314	776.519
67.520	12.915	1019.585	775.805
68.534	12.931	1018.996	775.365
69.549	12.912	1018.263	774.646
70.563	12.836	1017.465	773.617
71.578	12.786	1016.412	772.510
72.593	12.878	1015.754	772.374
73.607	12.921	1015.215	772.097
74.622	12.793	1014.712	771.046
75.636	12.880	1013.869	770.743
76.651	12.957	1012.758	770.193
77.666	12.751	1012.817	769.208
78.680	12.845	1011.916	768.894
79.695	12.875	1011.612	768.736
80.709	12.952	1010.679	768.316
81.724	12.901	1009.736	767.294
82.739	13.116	1009.209	767.825
83.753	13.133	1008.111	767.002
84.768	13.206	1007.328	766.676
85.782	13.269	1006.483	766.255
86.797	13.279	1005.483	765.476
87.812	13.083	1004.703	763.905
88.826	13.131	1003.603	763.225
89.841	13.188	1002.432	762.527
90.855	13.182	1001.858	761.996
91.870	13.093	1001.535	761.275
92.884	13.231	1000.417	760.993
93.899	13.224	999.660	760.318
94.914	13.259	998.793	759.749
95.928	13.258	997.997	759.072
96.943	13.161	997.486	758.173
97.957	13.277	996.077	757.564
98.972	13.235	994.979	756.473
99.987	13.288	993.914	755.835
101.001	13.230	993.503	755.195
102.016	13.170	992.658	754.207
103.030	13.331	992.025	754.394
104.045	13.352	991.015	753.655
105.060	13.176	990.493	752.392
106.074	13.081	989.533	751.165
107.089	13.019	988.057	749.697
108.103	12.910	987.712	748.871
109.118	13.104	986.282	748.601
110.133	13.033	985.276	747.448
111.147	13.006	984.898	746.973
112.162	13.030	984.313	746.573
113.176	13.004	983.291	745.615
114.191	13.033	983.067	745.510
115.206	13.111	981.815	744.848
116.220	13.048	981.277	744.086
117.235	13.033	980.182	743.125
118.249	12.994	979.339	742.246
119.264	12.916	979.119	741.659
120.279	13.128	977.650	741.435
121.293	13.085	977.077	740.741
122.308	13.131	976.051	740.103
123.322	13.018	975.361	739.008
124.337	13.019	974.512	738.305
125.352	13.030	973.491	737.518
126.366	13.095	972.176	736.745
127.381	13.003	971.525	735.778
128.395	13.079	970.818	735.515
129.410	13.078	969.567	734.496
130.424	13.199	968.331	734.031
131.439	13.195	967.676	733.455
132.454	13.208	966.968	732.911
133.468	13.058	966.712	731.984
134.483	13.204	965.366	731.550
135.497	13.221	964.789	731.121
136.512	13.140	963.746	729.910
137.527	13.139	963.002	729.275
138.541	13.302	962.119	729.262
139.556	13.338	961.342	728.767
140.570	13.235	961.187	728.133
141.585	13.332	960.059	727.637
142.600	13.237	959.528	726.754
143.614	13.345	958.451	726.347
144.629	13.201	957.548	724.969
145.643	13.440	956.413	725.093
146.658	13.255	955.690	723.669
147.673	13.274	954.738	722.969
148.687	13.129	954.213	721.871
149.702	13.180	953.123	721.209
150.716	13.222	951.797	720.324
151.731	13.202	951.542	719.981
152.746	13.215	950.989	719.553
153.760	13.309	949.829	719.020
154.775	13.426	949.509	719.222
155.789	13.283	949.039	718.182
156.804	13.312	948.437	717.789
157.819	13.354	947.464	717.173
158.833	13.435	947.144	717.218
159.848	13.538	946.374	717.015
160.862	13.349	945.319	715.337
161.877	13.404	943.999	714.514
162.892	13.367	943.247	713.718
163.906	13.377	941.973	712.738
164.921	13.287	941.470	711.906
165.935	13.404	940.836	711.867
166.950	13.482	939.808	711.360
167.964	13.286	938.907	709.775
168.979	13.352	937.998	709.307
169.994	13.419	936.973	708.755
171.008	13.508	936.569	708.768
172.023	13.678	935.750	708.814
173.037	13.626	935.168	708.089
174.052	13.516	934.671	707.178
175.067	13.480	934.175	706.587
176.081	13.318	933.776	705.531
177.096	13.540	932.787	705.667
178.110	13.544	932.059	705.073
179.125	13.418	931.439	704.003
180.140	13.562	930.817	704.086
181.154	13.624	930.437	703.999
182.169	13.674	930.369	704.098
183.183	13.552	929.705	703.015
184.198	13.629	928.360	702.260
185.213	13.749	927.974	702.414
186.227	13.815	927.288	702.114
187.242	13.629	927.240	701.228
188.256	13.687	926.144	700.579
189.271	13.707	925.191	699.883
190.286	13.703	924.403	699.210
191.300	13.632	923.392	698.083
192.315	13.511	923.364	697.492
193.329	13.471	922.758	696.803
194.344	13.518	922.204	696.519
195.359	13.658	921.399	696.437
196.373	13.767	920.878	696.440
197.388	13.760	920.586	696.131
198.402	13.820	920.532	696.277
199.417	13.884	919.611	695.788
200.432	14.015	918.902	695.737
201.446	14.100	917.929	695.294
202.461	13.996	918.139	694.958
203.475	13.923	917.566	694.157
204.490	13.905	916.427	693.162
205.504	13.935	915.658	692.643
206.519	13.944	915.117	692.208
207.534	13.920	914.529	691.604
208.548	13.792	914.192	690.753
209.563	13.843	913.216	690.169
210.577	13.854	912.546	689.648
211.592	14.134	911.587	690.021
212.607	14.104	910.952	689.354
213.621	14.201	910.123	689.070
214.636	14.040	909.243	687.676
215.650	14.174	908.350	687.495
216.665	14.165	907.991	687.124
217.680	14.321	907.087	687.023
218.694	14.172	906.616	685.991
219.709	14.241	905.870	685.648
220.723	14.238	905.311	685.155
221.738	14.196	904.714	684.468
222.753	14.157	904.559	684.130
223.767	14.248	903.851	683.906
224.782	14.319	903.211	683.655
225.796	14.264	902.765	683.033
226.811	14.273	902.169	682.557
227.826	14.195	901.215	681.453
228.840	14.375	900.453	681.554
229.855	14.307	899.518	680.509
230.869	14.277	898.934	679.884
231.884	14.306	898.388	679.530
232.899	14.294	897.945	679.086
233.913	14.242	896.673	677.854
234.928	14.191	896.497	677.452
235.942	14.152	895.822	676.722
236.957	14.241	895.238	676.582
237.972	14.232	894.603	676.006
238.986	14.225	894.206	675.621
240.001	14.341	893.427	675.439
241.015	14.475	892.567	675.274
242.030	14.393	892.259	674.649
243.045	14.244	892.131	673.891
244.059	14.350	890.964	673.377
245.074	14.367	890.382	672.946
246.088	14.390	889.617	672.400
247.103	14.490	888.727	672.070
248.117	14.526	888.608	672.066
249.132	14.581	887.928	671.716
250.147	14.792	887.191	671.948
251.161	14.705	886.590	671.084
252.176	14.767	886.249	671.013
253.190	14.686	885.783	670.277
254.205	14.709	885.003	669.720
255.220	14.746	884.267	669.250
256.234	14.737	883.841	668.835
257.249	14.807	882.865	668.316
258.263	14.788	882.116	667.614
259.278	14.832	881.442	667.221
260.293	14.923	880.796	667.035
261.307	14.939	880.318	666.677
262.322	14.897	880.061	666.259
263.336	15.037	879.012	665.962
264.351	15.018	877.937	665.011
265.366	15.082	877.739	665.058
266.380	15.081	876.824	664.301
267.395	15.028	876.450	663.751
268.409	14.908	875.405	662.423
269.424	14.927	874.910	662.065
270.439	14.878	874.549	661.540
271.453	14.944	873.775	661.158
272.468	14.888	873.227	660.465
273.482	14.798	872.592	659.567
274.497	14.917	871.843	659.414
275.512	15.103	870.952	659.416
276.526	14.941	871.090	658.823
277.541	15.035	870.468	658.661
278.555	15.225	869.406	658.549
279.570	15.241	868.937	658.198
280.585	15.211	868.117	657.399
281.599	15.022	867.602	656.210
282.614	15.011	866.889	655.570
283.628	15.194	866.095	655.630
284.643	15.158	865.533	655.005
285.657	15.294	864.810	654.929
286.672	15.201	864.719	654.439
287.687	15.097	863.951	653.397
288.701	15.166	863.169	653.016
289.716	15.301	862.528	652.999
290.730	15.287	862.007	652.490
291.745	15.315	861.596	652.230
292.760	15.375	861.010	651.965
293.774	15.383	860.444	651.509
294.789	15.338	859.900	650.866
295.803	15.379	859.034	650.310
296.818	15.355	858.479	649.738
297.833	15.242	857.806	648.736
298.847	15.344	857.049	648.500
299.862	15.350	856.607	648.132
300.876	15.461	855.913	647.977
301.891	15.485	855.360	647.594
302.906	15.655	854.904	647.846
303.920	15.672	854.385	647.462
304.935	15.666	853.757	646.905
305.949	15.598	853.123	646.107
306.964	15.647	852.580	645.825
307.979	15.575	852.404	645.360
308.993	15.623	851.367	644.699
310.008	15.696	850.523	644.285
311.022	15.542	850.362	643.514
312.037	15.715	849.663	643.591
313.052	15.608	848.947	642.582
314.066	15.375	848.842	641.555
315.081	15.517	848.099	641.481
316.095	15.668	847.047	641.205
317.110	15.644	846.687	640.782
318.125	15.523	846.527	640.142
319.139	15.678	845.749	640.091
320.154	15.478	845.421	639.023
321.168	15.685	844.990	639.428
322.183	15.599	844.404	638.603
323.197	15.712	843.829	638.540
324.212	15.596	843.563	637.842
325.227	15.767	842.642	637.738
326.241	15.846	841.767	637.318
327.256	15.722	841.523	636.606
328.270	15.637	841.068	635.885
329.285	15.802	840.505	636.027
330.300	15.786	840.006	635.531
331.314	15.740	839.464	634.892
332.329	15.630	839.051	634.108
333.343	15.731	838.489	634.009
334.358	15.769	838.081	633.787
335.373	15.965	837.229	633.824
336.387	15.916	837.417	633.727
337.402	15.909	837.089	633.396
338.416	15.958	836.506	633.083
339.431	16.081	836.019	633.119
340.446	16.139	835.602	632.966
341.460	16.064	835.553	632.589
342.475	16.012	835.206	632.077
343.489	16.245	834.593	632.431
344.504	16.105	834.175	631.532
345.519	16.299	833.479	631.675
346.533	16.080	833.130	630.537
347.548	16.069	832.493	629.956
348.562	16.149	831.817	629.689
349.577	16.019	831.357	628.798
350.592	16.073	830.875	628.580
351.606	16.055	830.244	627.980
352.621	16.039	829.389	627.219
353.635	16.081	828.665	626.773
354.650	16.218	827.776	626.553
355.665	16.290	826.914	626.111
356.679	16.295	826.814	626.000
357.694	16.238	826.095	625.189
358.708	16.273	825.559	624.857
359.723	16.314	825.198	624.682
360.738	16.330	824.573	624.210
361.752	16.233	824.339	623.620
362.767	16.456	823.195	623.523
363.781	16.552	822.740	623.477
364.796	16.474	822.505	622.956
365.810	16.421	822.175	622.455
366.825	16.510	821.710	622.379
367.840	16.481	821.456	622.023
368.854	16.501	821.062	621.744
369.869	16.422	820.802	621.199
370.883	16.495	820.084	620.870
371.898	16.618	819.834	621.076
372.913	16.663	819.065	620.605
373.927	16.677	818.484	620.160
374.942	16.762	818.060	620.096
375.956	16.727	817.627	619.586
376.971	16.587	817.589	618.989
377.986	16.737	817.229	619.210
379.000	16.735	816.498	618.596
380.015	16.766	815.726	618.066
381.029	16.691	815.629	617.668
382.044	16.894	814.588	617.564
383.059	16.805	814.474	617.097
384.073	16.723	813.656	616.124
385.088	16.766	813.109	615.813
386.102	16.708	812.262	614.908
387.117	16.767	812.209	615.024
388.132	16.841	811.123	614.418
389.146	16.845	810.711	614.066
390.161	16.839	810.391	613.747
391.175	16.884	810.114	613.647
392.190	16.955	809.086	613.070
393.205	16.892	808.569	612.397
394.219	16.765	808.698	611.981
395.234	16.851	808.198	611.860
396.248	16.933	807.433	611.520
397.263	16.831	807.065	610.821
398.278	16.793	807.030	610.603
399.292	16.860	806.474	610.367
400.307	16.821	806.134	609.917
401.321	16.887	805.478	609.604
402.336	16.927	804.913	609.267
403.350	16.922	804.500	608.881
404.365	17.079	804.159	609.133
405.380	17.165	803.776	609.097
406.394	17.037	803.465	608.349
407.409	17.117	802.667	607.979
408.423	17.213	802.524	608.160
409.438	17.187	802.127	607.711
410.453	17.193	801.817	607.446
411.467	17.173	801.378	606.988
412.482	17.133	800.848	606.389
413.496	17.234	800.632	606.532
414.511	17.372	799.987	606.483
415.526	17.191	800.038	605.822
416.540	17.383	799.036	605.693
417.555	17.269	798.393	604.745
418.569	17.409	798.303	605.121
419.584	17.433	797.855	604.814
420.599	17.388	797.637	604.437
421.613	105.016	1286.320	1447.879
422.628	90.149	1357.497	1447.978
