DTS Sentinel unit serial number:	SN413079Multiplexer serial number:	ORYXHardware model number:	OX4-SRSoftware version number:	ORYX F/W v4.00 Oryx Data Collector v3.7.2.0data status	okinstallation	princeton_trtdifferential loss correction	single-endedforward channel	channel 1reverse channel	N/Adate	2019/09/19time	12:38:35forward acquisition time	60.00reverse acquisition time	0.00gamma	496.2192k internal	0.2331k external	0.2331temperature offset calibration	1.0013default loss term (dB/km)	0.3790temperature slope calibration	1.0000multiplexer offset coefficient	1.0000multiplexer slope coefficient	1.0000fibre end	0.00T internal ref (°C)	27.44T ext. ref 1 (°C)	0.88T ext. ref 2 (°C)	25.32length (m)	temperature (°C)	Stokes	anti-Stokes-747.200	332.040	0.097	0.189
-746.185	299.465	0.034	-0.062
-745.171	-79.135	-0.065	-0.022
-744.156	-32.113	-0.223	-0.125
-743.142	-200.000	-0.030	-0.363
-742.127	140.213	0.184	-0.244
-741.112	-200.000	-0.023	0.153
-740.098	-132.260	0.214	0.028
-739.083	-49.773	0.276	0.132
-738.069	-72.717	0.063	0.023
-737.054	800.000	0.096	-0.409
-736.039	2.927	-0.247	-0.180
-735.025	-200.000	-0.019	0.088
-734.010	795.630	0.020	0.055
-732.996	-83.835	-0.249	0.080
-731.981	-175.713	-0.229	-0.006
-730.966	220.946	-0.150	-0.241
-729.952	-0.018	0.136	-0.097
-728.937	-200.000	0.054	-0.351
-727.923	172.670	-0.138	-0.199
-726.908	-200.000	0.003	0.376
-725.894	39.574	-0.167	0.151
-724.879	800.000	0.084	-0.314
-723.864	800.000	0.071	-0.259
-722.850	-86.818	0.282	-0.087
-721.835	-71.587	-0.182	-0.069
-720.821	696.755	-0.058	-0.153
-719.806	-200.000	0.009	-0.302
-718.791	-76.942	-0.171	-0.060
-717.777	-88.246	-0.438	-0.132
-716.762	7.173	0.093	-0.070
-715.748	-200.000	0.047	0.287
-714.733	20.120	0.253	0.205
-713.718	-47.090	0.050	-0.024
-712.704	-17.556	-0.292	-0.185
-711.689	14.499	-0.155	-0.122
-710.675	360.375	0.087	-0.175
-709.660	-200.000	-0.005	-0.288
-708.645	44.821	-0.114	-0.105
-707.631	-21.371	0.079	-0.048
-706.616	-200.000	-0.049	-0.228
-705.602	-54.281	-0.168	-0.077
-704.587	-200.000	0.036	0.192
-703.572	64.674	0.042	-0.043
-702.558	-200.000	-0.016	-0.102
-701.543	-200.000	-0.020	0.269
-700.529	-200.000	-0.008	-0.155
-699.514	-35.314	-0.459	-0.251
-698.499	-200.000	-0.032	-0.163
-697.485	343.217	0.105	0.207
-696.470	30.379	-0.014	0.012
-695.456	-200.000	0.029	0.186
-694.441	430.897	-0.146	0.317
-693.426	1.953	0.070	-0.051
-692.412	-196.538	-0.134	0.001
-691.397	-200.000	0.122	-0.000
-690.383	16.333	-0.089	0.071
-689.368	-48.581	0.301	-0.145
-688.354	-200.000	0.019	-0.289
-687.339	13.307	0.290	-0.226
-686.324	-125.412	-0.133	-0.020
-685.310	800.000	0.054	0.178
-684.295	59.303	-0.051	-0.050
-683.281	-145.346	-0.103	-0.009
-682.266	-82.724	-0.259	0.084
-681.251	800.000	0.101	-0.283
-680.237	-44.761	0.151	0.076
-679.222	800.000	-0.076	-0.285
-678.208	-127.376	0.268	0.039
-677.193	757.419	-0.051	-0.138
-676.178	183.361	0.141	0.209
-675.164	-5.797	0.276	-0.190
-674.149	15.104	0.156	0.123
-673.135	307.700	-0.032	0.060
-672.120	-82.153	-0.255	0.084
-671.105	-63.581	0.243	0.100
-670.091	234.029	0.094	-0.155
-669.076	-8.384	-0.135	-0.091
-668.062	-200.000	0.037	-0.384
-667.047	-6.674	0.111	0.076
-666.032	-130.402	0.233	0.032
-665.018	175.472	-0.150	0.218
-664.003	800.000	-0.044	-0.158
-662.989	392.366	-0.030	0.062
-661.974	65.952	0.217	-0.221
-660.959	424.591	-0.118	-0.254
-659.945	557.886	-0.200	-0.483
-658.930	-56.666	-0.414	-0.184
-657.916	238.910	0.176	0.294
-656.901	-70.037	0.362	-0.138
-655.886	-49.499	0.039	-0.019
-654.872	376.384	0.118	0.241
-653.857	-87.704	0.197	-0.060
-652.843	-28.658	-0.169	0.098
-651.828	387.245	0.003	0.006
-650.814	-200.000	0.007	-0.084
-649.799	-17.977	-0.206	0.129
-648.784	79.409	-0.147	-0.158
-647.770	697.839	0.086	0.227
-646.755	-200.000	-0.016	0.172
-645.741	800.000	0.050	0.170
-644.726	201.521	0.167	0.257
-643.711	-59.060	-0.059	-0.026
-642.697	-79.228	0.138	-0.047
-641.682	-149.520	-0.391	-0.031
-640.668	-72.706	-0.122	-0.045
-639.653	-15.675	0.195	-0.124
-638.638	-80.758	0.099	-0.033
-637.624	-200.000	0.025	0.131
-636.609	800.000	0.077	-0.285
-635.595	86.518	0.134	0.148
-634.580	-89.978	0.185	-0.054
-633.565	76.275	0.062	-0.066
-632.551	-48.343	-0.133	0.064
-631.536	261.416	-0.276	0.479
-630.522	529.173	-0.076	-0.179
-629.507	-18.513	0.159	-0.100
-628.492	36.282	-0.184	0.162
-627.478	-93.359	0.403	-0.112
-626.463	165.189	-0.056	-0.080
-625.449	-41.635	-0.154	0.079
-624.434	-1.927	-0.436	0.307
-623.419	-42.789	0.214	-0.109
-622.405	-26.842	-0.398	0.233
-621.390	-10.119	0.382	0.254
-620.376	38.162	0.307	0.274
-619.361	-112.364	0.146	-0.029
-618.346	148.517	-0.192	-0.259
-617.332	95.288	0.211	-0.241
-616.317	49.006	0.247	-0.232
-615.303	191.267	-0.063	0.095
-614.288	-17.161	0.259	0.164
-613.273	56.364	-0.092	0.089
-612.259	800.000	0.119	0.429
-611.244	481.711	-0.104	-0.236
-610.230	6.890	0.361	0.269
-609.215	199.617	-0.162	-0.249
-608.201	-44.401	0.223	-0.112
-607.186	-98.187	0.221	-0.057
-606.171	207.858	-0.073	-0.114
-605.157	299.618	-0.263	-0.486
-604.142	727.095	-0.090	-0.241
-603.128	29.533	-0.166	0.141
-602.113	-200.000	0.035	-0.352
-601.098	-180.260	-0.100	0.002
-600.084	-118.761	-0.180	-0.032
-599.069	-3.248	0.130	-0.091
-598.055	800.000	0.075	0.319
-597.040	-154.965	-0.086	0.006
-596.025	229.975	0.043	-0.071
-595.011	-16.767	-0.202	-0.128
-593.996	197.502	-0.176	0.269
-592.982	-200.000	0.005	0.074
-591.967	20.128	0.285	0.230
-590.952	800.000	-0.062	-0.184
-589.938	-200.000	-0.028	-0.172
-588.923	33.946	-0.077	-0.067
-587.909	-200.000	0.046	-0.301
-586.894	122.240	0.141	-0.176
-585.879	335.122	0.077	-0.150
-584.865	109.655	-0.062	-0.074
-583.850	-12.210	0.111	-0.073
-582.836	161.316	-0.142	0.199
-581.821	-42.208	-0.050	-0.026
-580.806	-18.444	-0.408	-0.255
-579.792	8.259	0.119	-0.090
-578.777	-80.904	-0.154	0.051
-577.763	-7.387	0.138	-0.094
-576.748	12.165	0.132	-0.101
-575.733	-22.508	-0.337	-0.204
-574.719	291.436	-0.015	0.027
-573.704	-200.000	-0.023	-0.344
-572.690	-156.424	0.095	-0.006
-571.675	293.325	0.061	0.110
-570.661	25.010	-0.212	0.176
-569.646	-106.493	0.331	-0.074
-568.631	800.000	-0.134	0.409
-567.617	-150.509	0.330	0.025
-566.602	484.766	-0.062	0.141
-565.588	-56.386	0.150	-0.066
-564.573	335.710	0.194	0.376
-563.558	42.563	-0.097	-0.088
-562.544	-95.785	0.099	0.026
-561.529	-46.494	0.120	0.059
-560.515	800.000	0.016	-0.047
-559.500	51.866	-0.247	-0.235
-558.485	-54.320	0.068	-0.031
-557.471	242.748	0.121	0.202
-556.456	-65.449	0.356	-0.143
-555.442	101.392	0.096	0.112
-554.427	-81.586	0.055	-0.018
-553.412	-121.199	-0.425	0.071
-552.398	105.998	0.077	0.091
-551.383	44.848	0.130	0.120
-550.369	-200.000	-0.014	0.244
-549.354	146.261	0.176	0.236
-548.339	290.132	-0.052	0.094
-547.325	28.939	0.389	0.329
-546.310	-72.367	-0.220	-0.081
-545.296	30.826	0.184	0.158
-544.281	-200.000	0.007	0.128
-543.266	-76.051	0.036	-0.013
-542.252	-14.286	0.121	-0.078
-541.237	-181.427	0.305	0.006
-540.223	-126.709	-0.215	0.032
-539.208	295.854	-0.026	-0.048
-538.193	133.066	-0.188	-0.243
-537.179	-69.907	-0.323	-0.123
-536.164	310.060	0.072	-0.134
-535.150	-126.536	-0.179	-0.027
-534.135	142.885	-0.171	-0.227
-533.121	800.000	-0.060	-0.231
-532.106	314.507	-0.179	-0.337
-531.091	74.234	0.043	-0.045
-530.077	-8.771	0.140	0.093
-529.062	-117.836	0.168	-0.030
-528.048	-66.159	-0.277	0.110
-527.033	-200.000	0.023	-0.167
-526.018	-200.000	-0.038	-0.351
-525.004	58.100	-0.058	0.057
-523.989	-16.945	-0.110	0.069
-522.975	-179.484	-0.039	-0.001
-521.960	-99.425	0.320	0.080
-520.945	-20.854	0.149	-0.091
-519.931	-56.018	0.352	0.157
-518.916	-119.755	-0.209	-0.036
-517.902	116.547	0.287	0.351
-516.887	777.510	-0.086	0.234
-515.872	196.616	0.066	-0.101
-514.858	-31.859	0.021	-0.012
-513.843	-14.494	0.231	0.148
-512.829	800.000	-0.099	-0.383
-511.814	-61.230	-0.315	-0.132
-510.799	-27.709	0.195	0.113
-509.785	800.000	0.103	-0.394
-508.770	717.172	0.052	0.137
-507.756	70.232	0.013	-0.013
-506.741	-200.000	0.005	0.075
-505.726	800.000	0.012	-0.048
-504.712	119.183	0.122	0.151
-503.697	10.583	0.187	0.142
-502.683	800.000	0.045	-0.171
-501.668	32.599	-0.215	-0.185
-500.653	-200.000	0.032	-0.145
-499.639	-104.244	0.295	-0.068
-498.624	-90.566	0.189	-0.054
-497.610	-104.830	0.061	-0.014
-496.595	-45.408	0.160	-0.079
-495.581	400.864	-0.058	-0.121
-494.566	800.000	-0.046	0.151
-493.551	-70.479	0.382	-0.144
-492.537	301.548	-0.141	-0.259
-491.522	-24.710	0.228	0.135
-490.508	-70.459	-0.108	0.041
-489.493	20.307	-0.096	0.077
-488.478	225.023	-0.075	0.122
-487.464	-45.065	-0.163	0.081
-486.449	-147.531	-0.305	-0.026
-485.435	-200.000	-0.026	0.239
-484.420	-135.765	0.061	0.007
-483.405	-50.753	0.421	0.198
-482.391	-200.000	-0.042	-0.323
-481.376	66.899	-0.177	-0.180
-480.362	38.979	-0.119	-0.106
-479.347	-200.000	-0.043	0.248
-478.332	-200.000	-0.008	0.210
-477.318	-101.805	0.150	0.036
-476.303	171.295	0.055	0.078
-475.289	-61.627	0.063	-0.026
-474.274	289.142	-0.151	0.272
-473.259	-152.153	0.174	-0.013
-472.245	-200.000	0.008	0.081
-471.230	-172.642	-0.099	-0.003
-470.216	-200.000	0.016	0.314
-469.201	-102.998	0.270	-0.064
-468.186	47.820	-0.295	0.274
-467.172	-61.539	-0.298	-0.125
-466.157	44.368	-0.134	0.123
-465.143	-148.650	-0.177	-0.014
-464.128	-200.000	0.039	0.228
-463.113	-164.257	-0.068	-0.003
-462.099	-76.421	0.084	-0.029
-461.084	198.733	0.075	0.115
-460.070	71.334	-0.225	-0.232
-459.055	388.326	0.098	-0.201
-458.040	-58.389	-0.085	0.037
-457.026	-200.000	-0.037	0.224
-456.011	-177.033	-0.239	0.006
-454.997	-92.715	0.009	0.003
-453.982	291.938	0.066	-0.119
-452.968	-89.654	-0.420	-0.123
-451.953	59.627	0.310	0.304
-450.938	-101.525	0.101	-0.024
-449.924	-200.000	0.065	-0.458
-448.909	-29.372	-0.106	-0.060
-447.895	-200.000	0.002	-0.418
-446.880	-100.207	-0.167	-0.041
-445.865	800.000	-0.111	-0.316
-444.851	157.551	0.021	-0.028
-443.836	-0.426	-0.360	0.255
-442.822	-58.909	-0.253	-0.109
-441.807	-130.288	-0.087	-0.012
-440.792	-25.976	0.122	0.072
-439.778	502.796	0.031	-0.071
-438.763	370.516	-0.121	0.243
-437.749	158.349	0.216	0.298
-436.734	273.392	0.163	0.286
-435.719	-38.250	-0.225	-0.118
-434.705	-51.550	0.146	-0.068
-433.690	-200.000	0.020	-0.421
-432.676	354.062	0.057	0.112
-431.661	-31.609	0.265	0.148
-430.646	-196.806	0.383	-0.003
-429.632	-53.647	0.259	0.118
-428.617	800.000	-0.085	0.306
-427.603	76.168	-0.060	0.063
-426.588	-200.000	0.017	-0.165
-425.573	800.000	-0.120	-0.409
-424.559	-61.437	-0.085	-0.035
-423.544	-68.815	0.076	0.029
-422.530	184.741	-0.059	-0.087
-421.515	-200.000	-0.010	0.422
-420.500	782.705	-0.121	-0.329
-419.486	-23.708	0.182	-0.108
-418.471	103.354	-0.319	0.371
-417.457	-66.464	-0.422	-0.167
-416.442	-38.822	-0.325	0.171
-415.428	359.851	0.082	0.164
-414.413	800.000	0.061	-0.263
-413.398	-200.000	0.040	0.217
-412.384	-40.781	-0.146	0.075
-411.369	-200.000	0.034	-0.297
-410.355	-63.933	0.129	0.052
-409.340	-200.000	-0.112	0.590
-408.325	800.000	-0.062	-0.246
-407.311	60.009	-0.345	-0.339
-406.296	-200.000	-0.004	-0.230
-405.282	268.044	0.072	0.125
-404.267	-123.900	-0.248	-0.039
-403.252	-77.907	0.115	0.039
-402.238	27.952	-0.143	-0.120
-401.223	-55.277	-0.195	-0.087
-400.209	-200.000	-0.012	-0.134
-399.194	-19.750	0.269	-0.165
-398.179	-82.617	0.260	0.084
-397.165	-200.000	-0.025	0.199
-396.150	1.016	0.087	-0.062
-395.136	-200.000	0.057	0.458
-394.121	-85.842	0.155	-0.048
-393.106	-73.444	-0.060	0.022
-392.092	-200.000	0.008	-0.106
-391.077	-50.414	0.366	0.172
-390.063	72.799	0.096	-0.100
-389.048	800.000	0.057	0.237
-388.033	-200.000	-0.041	-0.265
-387.019	-200.000	0.012	-0.171
-386.004	-122.011	-0.057	-0.009
-384.990	-16.589	0.077	0.048
-383.975	415.760	-0.098	0.208
-382.960	22.698	0.293	-0.238
-381.946	-200.000	-0.303	-0.001
-380.931	479.558	-0.098	-0.221
-379.917	-200.000	-0.041	-0.314
-378.902	-126.041	-0.263	-0.039
-377.888	88.046	0.110	-0.121
-376.873	-44.463	0.073	0.036
-375.858	800.000	0.020	0.065
-374.844	120.158	-0.144	-0.177
-373.829	-4.383	-0.412	0.283
-372.815	180.466	-0.073	0.106
-371.800	-55.041	-0.170	-0.076
-370.785	41.241	0.109	0.098
-369.771	-168.452	-0.125	-0.005
-368.756	100.736	0.183	0.211
-367.742	388.944	0.059	0.121
-366.727	486.707	0.158	0.357
-365.712	67.216	-0.350	0.354
-364.698	-200.000	-0.037	0.179
-363.683	-67.754	0.271	0.105
-362.669	-200.000	0.023	-0.105
-361.654	-75.208	0.311	0.110
-360.639	-86.411	-0.082	0.025
-359.625	-98.699	-0.093	0.024
-358.610	495.626	0.096	-0.219
-357.596	-102.618	0.108	-0.026
-356.581	242.794	-0.119	0.197
-355.566	-200.000	0.079	-0.374
-354.552	-132.067	-0.240	0.031
-353.537	-81.213	0.124	0.041
-352.523	616.837	-0.032	0.080
-351.508	-43.872	-0.161	-0.080
-350.493	-51.347	0.192	-0.089
-349.479	800.000	-0.031	0.095
-348.464	-119.394	-0.090	0.015
-347.450	36.239	0.108	-0.095
-346.435	-200.000	-0.003	0.214
-345.420	-22.277	0.199	-0.120
-344.406	800.000	-0.070	-0.192
-343.391	152.123	0.241	-0.325
-342.377	-110.638	-0.291	0.060
-341.362	-200.000	-0.014	0.091
-340.348	431.776	0.109	0.234
-339.333	-200.000	-0.009	0.184
-338.318	22.954	0.181	0.147
-337.304	151.502	0.073	-0.099
-336.289	16.157	-0.142	-0.111
-335.275	140.416	0.189	0.247
-334.260	-70.166	0.116	-0.044
-333.245	800.000	0.027	-0.108
-332.231	713.871	0.051	0.134
-331.216	-23.731	0.274	-0.163
-330.202	159.819	0.249	-0.344
-329.187	-27.262	-0.132	-0.076
-328.172	510.872	-0.070	0.162
-327.158	-62.005	0.082	0.034
-326.143	-123.364	-0.284	0.045
-325.129	-200.000	-0.010	0.047
-324.114	-37.994	-0.343	0.180
-323.099	-31.224	0.272	0.152
-322.085	1.343	0.131	0.093
-321.070	227.458	-0.040	-0.065
-320.056	340.465	-0.070	0.134
-319.041	173.798	-0.037	-0.053
-318.026	42.421	0.234	0.211
-317.012	-51.719	0.109	0.050
-315.997	161.768	0.123	-0.171
-314.983	800.000	-0.028	-0.098
-313.968	267.838	0.088	-0.152
-312.953	345.206	-0.051	-0.099
-311.939	-200.000	0.035	-0.369
-310.924	102.183	0.166	0.192
-309.910	531.707	-0.133	-0.312
-308.895	-200.000	0.086	-0.434
-307.880	152.048	-0.175	-0.236
-306.866	-184.073	0.333	0.006
-305.851	-67.949	-0.328	0.127
-304.837	-120.566	-0.064	-0.011
-303.822	196.186	0.210	0.316
-302.807	-76.901	-0.227	-0.078
-301.793	56.517	0.337	-0.324
-300.778	-168.720	0.194	-0.007
-299.764	114.899	0.033	-0.040
-298.749	24.871	-0.145	-0.119
-297.735	101.020	0.230	-0.264
-296.720	-144.236	0.262	0.024
-295.705	-84.327	-0.247	-0.077
-294.691	-57.851	-0.148	-0.064
-293.676	-116.665	0.209	-0.038
-292.662	-50.739	-0.340	0.158
-291.647	-200.000	-0.063	0.378
-290.632	44.215	-0.253	0.230
-289.618	111.568	-0.115	-0.138
-288.603	-135.631	-0.119	0.014
-287.589	-143.167	0.239	0.023
-286.574	-200.000	0.019	0.125
-285.559	50.117	-0.056	-0.052
-284.545	54.148	-0.181	-0.172
-283.530	669.439	-0.069	0.176
-282.516	800.000	0.029	-0.094
-281.501	57.483	0.352	0.340
-280.486	-38.574	0.319	-0.166
-279.472	222.426	0.105	-0.167
-278.457	-200.000	-0.003	-0.100
-277.443	32.077	-0.152	-0.129
-276.428	-111.854	0.085	-0.017
-275.413	-1.754	-0.032	0.022
-274.399	-101.728	-0.297	0.071
-273.384	-200.000	-0.020	0.196
-272.370	40.061	0.144	-0.127
-271.355	39.289	-0.244	0.215
-270.340	-43.434	0.137	-0.068
-269.326	119.191	-0.106	-0.130
-268.311	-22.855	-0.149	0.089
-267.297	-4.975	-0.211	-0.143
-266.282	-18.885	-0.384	0.236
-265.267	114.337	0.104	-0.125
-264.253	416.176	-0.108	0.227
-263.238	-31.298	-0.219	-0.122
-262.224	25.796	0.093	-0.077
-261.209	-200.000	-0.009	-0.451
-260.195	220.402	-0.133	0.210
-259.180	41.879	-0.395	0.354
-258.165	-60.377	-0.116	0.049
-257.151	-40.713	-0.371	0.190
-256.136	-154.989	0.247	0.016
-255.122	-80.390	0.294	-0.097
-254.107	800.000	-0.059	-0.164
-253.092	236.748	0.070	-0.115
-252.078	82.933	0.183	0.196
-251.063	111.852	0.134	0.160
-250.049	54.553	-0.283	0.269
-249.034	-200.000	-0.051	0.332
-248.019	-31.247	-0.246	0.137
-247.005	36.745	0.026	0.023
-245.990	-200.000	0.017	0.269
-244.976	-115.857	-0.176	0.032
-243.961	800.000	-0.040	0.121
-242.946	-70.404	0.252	0.094
-241.932	110.629	-0.198	0.235
-240.917	367.047	-0.052	0.104
-239.903	-141.618	-0.143	0.014
-238.888	51.064	-0.251	0.235
-237.873	-57.700	0.140	-0.061
-236.859	-68.839	0.376	-0.143
-235.844	251.976	-0.081	-0.136
-234.830	800.000	0.043	-0.130
-233.815	794.431	-0.111	-0.302
-232.800	268.816	-0.096	-0.166
-231.786	-200.000	0.017	0.221
-230.771	-165.968	0.145	0.006
-229.757	-144.496	0.280	0.026
-228.742	65.661	-0.370	-0.370
-227.727	-148.564	0.239	-0.019
-226.713	800.000	-0.017	-0.060
-225.698	56.001	0.070	0.067
-224.684	111.864	0.097	-0.116
-223.669	-200.000	-0.008	0.314
-222.655	-114.084	-0.055	0.011
-221.640	-151.676	-0.277	-0.020
-220.625	-186.494	0.240	-0.003
-219.611	-83.845	0.203	-0.064
-218.596	26.577	-0.079	-0.065
-217.582	-35.840	-0.335	0.179
-216.567	144.828	0.210	-0.276
-215.552	-40.121	-0.215	0.111
-214.538	49.787	0.080	-0.074
-213.523	42.659	-0.187	0.168
-212.509	109.535	0.106	0.125
-211.494	-99.805	0.367	-0.091
-210.479	31.253	-0.095	0.081
-209.465	-195.800	0.191	0.001
-208.450	-200.000	-0.038	0.195
-207.436	-200.000	0.013	0.077
-206.421	4.173	-0.149	-0.108
-205.406	76.909	0.178	-0.186
-204.392	42.009	-0.169	-0.151
-203.377	-79.201	-0.139	0.047
-202.363	-118.574	-0.206	-0.036
-201.348	800.000	0.054	0.229
-200.333	-170.794	-0.308	0.010
-199.319	-9.079	0.188	-0.124
-198.304	511.218	0.102	-0.234
-197.290	395.017	-0.019	0.038
-196.275	-74.583	0.135	-0.048
-195.260	-200.000	-0.017	0.103
-194.246	-36.622	0.077	-0.041
-193.231	-200.000	0.020	-0.144
-192.217	-75.336	-0.236	0.083
-191.202	-1.291	-0.102	-0.071
-190.187	84.120	-0.237	0.254
-189.173	-118.511	-0.386	0.067
-188.158	-200.000	-0.011	-0.193
-187.144	-200.000	-0.077	-0.451
-186.129	543.877	-0.150	0.352
-185.114	-168.349	0.211	-0.008
-184.100	266.203	0.190	-0.327
-183.085	800.000	-0.091	-0.265
-182.071	238.289	-0.052	0.086
-181.056	800.000	-0.103	0.404
-180.042	800.000	-0.048	0.161
-179.027	-147.411	0.301	-0.025
-178.012	698.073	-0.088	-0.228
-176.998	28.432	-0.078	0.065
-175.983	171.626	0.123	0.174
-174.969	-200.000	0.003	0.151
-173.954	-40.674	0.106	-0.054
-172.939	-200.000	0.009	-0.325
-171.925	800.000	-0.016	0.066
-170.910	-90.610	-0.258	0.073
-169.896	800.000	-0.050	0.168
-168.881	126.600	0.163	-0.203
-167.866	-25.053	-0.244	-0.142
-166.852	-34.477	0.324	0.175
-165.837	-10.031	0.189	-0.124
-164.823	547.024	0.063	-0.147
-163.808	193.802	-0.032	-0.048
-162.793	24.262	0.201	0.163
-161.779	224.532	-0.196	-0.312
-160.764	-108.467	-0.312	-0.066
-159.750	-2.523	0.081	0.056
-158.735	3.181	-0.071	-0.051
-157.720	335.172	-0.101	0.193
-156.706	-193.588	0.107	0.001
-155.691	-3.019	0.263	-0.180
-154.677	-92.382	-0.036	-0.010
-153.662	202.888	0.041	-0.062
-152.647	-78.234	0.397	-0.134
-151.633	-46.675	0.319	0.154
-150.618	119.067	0.369	0.449
-149.604	201.841	0.012	0.018
-148.589	-84.848	-0.225	-0.069
-147.574	208.957	-0.075	-0.115
-146.560	-75.624	0.096	0.033
-145.545	800.000	-0.090	-0.309
-144.531	56.016	0.208	-0.198
-143.516	-123.258	0.066	-0.010
-142.502	-148.065	0.065	-0.005
-141.487	76.402	0.178	-0.185
-140.472	-200.000	0.029	-0.207
-139.458	-200.000	-0.019	0.240
-138.443	-117.118	0.072	-0.013
-137.429	576.065	-0.022	0.053
-136.414	800.000	-0.076	-0.254
-135.399	93.203	0.274	-0.305
-134.385	-82.791	-0.218	-0.069
-133.370	13.027	-0.022	-0.017
-132.356	-15.633	-0.218	-0.137
-131.341	646.009	0.036	0.092
-130.326	-44.046	-0.202	0.100
-129.312	3.932	0.376	0.270
-128.297	-51.419	0.285	-0.131
-127.283	-10.607	-0.192	0.125
-126.268	-43.263	0.447	0.222
-125.253	751.405	-0.093	0.248
-124.239	-138.372	0.063	0.007
-123.224	124.329	0.119	0.148
-122.210	-200.000	0.006	0.198
-121.195	70.690	-0.196	-0.200
-120.180	-151.595	0.436	0.032
-119.166	59.369	-0.239	-0.232
-118.151	-52.176	-0.238	0.108
-117.137	28.721	-0.082	0.068
-116.122	-42.999	0.063	-0.031
-115.107	57.998	-0.387	-0.372
-114.093	84.616	-0.064	-0.069
-113.078	45.066	-0.200	0.181
-112.064	-34.943	0.156	-0.084
-111.049	-34.323	0.034	-0.018
-110.034	-200.000	0.045	0.264
-109.020	-24.140	0.152	0.089
-108.005	-126.140	-0.346	-0.051
-106.991	-200.000	-0.002	0.089
-105.976	800.000	0.048	-0.145
-104.962	42.465	0.086	-0.077
-103.947	-200.000	-0.021	0.128
-102.932	-144.319	0.158	0.014
-101.918	-70.127	-0.078	0.029
-100.903	168.437	-0.117	-0.163
-99.889	-137.485	0.183	-0.020
-98.874	589.009	0.082	-0.198
-97.859	-19.066	0.333	-0.203
-96.845	794.276	-0.109	-0.295
-95.830	132.340	0.185	0.234
-94.816	-77.076	-0.102	-0.035
-93.801	62.543	0.284	-0.278
-92.786	133.790	0.234	0.298
-91.772	-66.721	0.271	-0.105
-90.757	-200.000	0.009	0.196
-89.743	278.121	-0.042	-0.073
-88.728	-200.000	-0.031	-0.224
-87.713	-200.000	0.007	0.033
-86.699	459.599	-0.136	-0.296
-85.684	-181.866	0.364	-0.007
-84.670	-200.000	0.008	0.271
-83.655	-200.000	-0.011	0.298
-82.640	-200.000	0.007	0.178
-81.626	106.158	0.244	-0.283
-80.611	-23.512	0.173	-0.102
-79.597	-21.183	-0.175	0.105
-78.582	-200.000	0.046	0.380
-77.567	658.800	0.070	0.177
-76.553	800.000	-0.064	0.264
-75.538	274.991	-0.136	-0.236
-74.524	-90.107	-0.093	0.026
-73.509	800.000	-0.044	-0.180
-72.494	31.010	0.126	-0.106
-71.480	-200.000	0.043	-0.443
-70.465	-22.245	0.205	0.122
-69.451	-200.000	-0.005	0.067
-68.436	-29.245	-0.098	0.055
-67.422	-200.000	0.016	0.122
-66.407	387.773	0.046	0.092
-65.392	-81.203	0.091	-0.029
-64.378	-200.000	0.001	-0.055
-63.363	800.000	0.055	0.161
-62.349	-88.016	-0.295	0.087
-61.334	28.211	-1.130	-0.935
-60.319	113.613	0.606	0.721
-59.305	-200.000	-0.044	-0.968
-58.290	312.538	0.779	1.433
-57.276	348.220	0.966	1.865
-56.261	-200.000	110.874	609.493
-55.246	424.211	1531.630	3227.360
-54.232	140.645	2724.073	3524.710
-53.217	102.089	2197.145	2513.236
-52.203	39.258	1633.164	1431.795
-51.188	30.738	1375.373	1153.227
-50.173	27.761	1337.070	1103.100
-49.159	53.490	1392.622	1308.242
-48.144	52.800	1407.146	1317.590
-47.130	31.070	1362.333	1144.147
-46.115	27.548	1344.447	1107.716
-45.100	27.353	1340.137	1102.939
-44.086	27.374	1336.907	1100.365
-43.071	27.352	1334.859	1098.502
-42.057	27.365	1332.698	1096.761
-41.042	27.437	1330.645	1095.459
-40.027	27.373	1329.388	1093.998
-39.013	27.384	1327.474	1092.440
-37.998	27.363	1325.542	1090.685
-36.984	27.367	1323.957	1089.357
-35.969	27.501	1321.763	1088.314
-34.954	27.499	1320.385	1087.121
-33.940	27.457	1319.199	1085.854
-32.925	27.439	1317.754	1084.514
-31.911	27.459	1316.546	1083.596
-30.896	27.499	1314.822	1082.372
-29.881	27.638	1313.467	1082.035
-28.867	27.629	1311.844	1080.603
-27.852	27.537	1310.631	1079.020
-26.838	27.503	1309.087	1077.505
-25.823	27.420	1308.140	1076.187
-24.809	27.489	1307.097	1075.695
-23.794	27.498	1305.323	1074.246
-22.779	27.483	1304.077	1073.089
-21.765	27.472	1302.754	1071.894
-20.750	27.584	1301.060	1071.118
-19.736	27.443	1299.918	1069.307
-18.721	27.423	1299.036	1068.421
-17.706	27.513	1297.192	1067.386
-16.692	27.504	1295.868	1066.203
-15.677	27.423	1295.206	1065.143
-14.663	27.432	1294.061	1064.209
-13.648	27.364	1293.078	1062.965
-12.633	27.368	1291.971	1062.034
-11.619	27.407	1290.999	1061.420
-10.604	27.401	1290.269	1060.743
-9.590	27.255	1289.469	1059.193
-8.575	27.355	1288.518	1058.952
-7.560	27.264	1287.436	1057.495
-6.546	27.429	1286.762	1057.858
-5.531	27.288	1286.057	1056.417
-4.517	27.349	1285.186	1056.011
-3.502	27.463	1283.912	1055.581
-2.487	27.546	1282.611	1054.952
-1.473	27.496	1279.099	1051.735
-0.458	26.537	1265.327	1034.889
0.556	23.015	1249.190	1001.985
1.571	19.235	1256.635	986.274
2.586	18.059	1270.480	990.239
3.600	17.294	1258.542	976.457
4.615	12.744	1183.466	893.496
5.629	4.795	1107.663	795.700
6.644	1.136	1088.483	763.451
7.659	0.768	1086.344	760.033
8.673	0.712	1085.587	759.157
9.688	0.915	1084.011	759.003
10.702	1.017	1082.034	758.063
11.717	5.498	1087.765	784.515
12.731	12.795	1097.265	828.087
13.746	16.693	1101.639	850.945
14.761	17.419	1101.981	854.783
15.775	16.629	1100.687	849.737
16.790	15.663	1098.220	842.913
17.804	14.860	1097.045	837.915
18.819	14.693	1095.527	835.844
19.834	14.335	1095.035	833.607
20.848	14.049	1094.079	831.376
21.863	13.929	1092.610	829.586
22.877	13.763	1092.053	828.257
23.892	13.618	1091.458	827.010
24.907	13.575	1090.954	826.342
25.921	13.602	1090.006	825.685
26.936	13.672	1089.303	825.430
27.950	13.777	1087.993	824.886
28.965	13.841	1086.505	824.003
29.980	13.970	1085.098	823.500
30.994	13.899	1083.919	822.182
32.009	13.872	1083.297	821.502
33.023	13.967	1082.234	821.093
34.038	13.830	1081.359	819.679
35.053	13.948	1080.001	819.159
36.067	13.880	1079.432	818.320
37.082	13.829	1078.689	817.434
38.096	13.862	1078.099	817.078
39.111	13.802	1077.318	816.117
40.126	13.748	1076.210	814.942
41.140	13.635	1074.808	813.255
42.155	13.720	1073.313	812.469
43.169	13.680	1072.452	811.547
44.184	13.725	1071.336	810.853
45.199	13.641	1070.844	809.995
46.213	13.628	1069.498	808.843
47.228	13.823	1068.390	808.883
48.242	13.757	1066.887	807.352
49.257	13.749	1066.095	806.645
50.271	13.804	1065.336	806.264
51.286	13.677	1064.272	804.773
52.301	13.724	1063.507	804.352
53.315	13.755	1062.092	803.358
54.330	13.777	1060.965	802.544
55.344	13.830	1060.048	802.036
56.359	13.792	1059.520	801.379
57.374	13.713	1058.470	800.134
58.388	13.637	1057.796	799.189
59.403	13.598	1057.589	798.772
60.417	13.656	1055.767	797.606
61.432	13.637	1055.452	797.205
62.447	13.561	1054.612	796.133
63.461	13.616	1053.597	795.560
64.476	13.632	1052.989	795.107
65.490	13.710	1051.965	794.638
66.505	13.823	1051.023	794.399
67.520	13.714	1050.344	793.294
68.534	13.674	1049.311	792.254
69.549	13.670	1049.034	791.954
70.563	13.530	1048.454	790.776
71.578	13.462	1047.829	789.909
72.593	13.609	1046.640	789.645
73.607	13.613	1045.909	789.043
74.622	13.628	1045.278	788.567
75.636	13.593	1044.648	787.856
76.651	13.591	1043.969	787.266
77.666	13.583	1043.298	786.653
78.680	13.583	1042.498	785.981
79.695	13.544	1041.718	785.137
80.709	13.717	1040.474	784.951
81.724	13.703	1040.071	784.507
82.739	13.686	1040.047	784.341
83.753	13.760	1038.894	783.754
84.768	13.702	1038.126	782.830
85.782	13.833	1036.910	782.463
86.797	13.805	1035.907	781.501
87.812	13.727	1035.337	780.638
88.826	13.731	1033.621	779.292
89.841	13.725	1033.024	778.747
90.855	13.801	1032.209	778.421
91.870	13.790	1031.361	777.660
92.884	13.804	1030.291	776.848
93.899	13.829	1029.531	776.326
94.914	13.895	1028.774	775.992
95.928	13.851	1027.816	774.997
96.943	13.891	1027.110	774.583
97.957	13.886	1026.668	774.158
98.972	13.973	1025.244	773.419
99.987	13.932	1024.372	772.502
101.001	13.865	1023.626	771.559
102.016	13.892	1022.703	770.921
103.030	13.791	1021.997	769.852
104.045	13.791	1021.311	769.265
105.060	13.925	1019.907	768.763
106.074	13.790	1019.086	767.452
107.089	13.779	1018.149	766.628
108.103	13.711	1017.274	765.587
109.118	13.667	1016.654	764.849
110.133	13.809	1015.257	764.385
111.147	13.733	1015.060	763.819
112.162	13.733	1014.040	762.984
113.176	13.857	1012.697	762.473
114.191	13.864	1012.512	762.298
115.206	13.794	1011.390	761.069
116.220	13.832	1010.674	760.633
117.235	13.677	1010.169	759.479
118.249	13.856	1008.808	759.207
119.264	13.766	1008.372	758.401
120.279	13.888	1007.112	757.944
121.293	13.848	1006.431	757.180
122.308	13.832	1005.560	756.383
123.322	13.786	1004.364	755.211
124.337	13.839	1003.247	754.543
125.352	13.820	1002.328	753.697
126.366	13.890	1001.023	752.968
127.381	13.882	999.982	752.080
128.395	13.715	999.275	750.726
129.410	13.931	998.143	750.787
130.424	13.935	997.356	750.146
131.439	13.870	996.351	749.031
132.454	13.858	995.871	748.550
133.468	13.771	995.285	747.654
134.483	13.774	994.412	746.943
135.497	13.716	993.536	745.957
136.512	13.705	992.787	745.282
137.527	13.937	991.362	745.187
138.541	13.885	990.614	744.324
139.556	13.985	990.031	744.267
140.570	13.951	989.535	743.678
141.585	14.008	988.475	743.071
142.600	14.053	987.416	742.411
143.614	13.982	986.953	741.677
144.629	14.023	986.004	741.082
145.643	13.962	985.101	740.065
146.658	13.962	984.063	739.223
147.673	13.955	983.107	738.409
148.687	13.987	982.208	737.807
149.702	13.922	981.590	736.989
150.716	14.003	980.703	736.617
151.731	13.881	980.151	735.599
152.746	14.013	979.340	735.507
153.760	13.883	978.805	734.468
154.775	14.075	978.058	734.689
155.789	14.056	977.585	734.186
156.804	14.192	976.621	733.998
157.819	14.104	975.834	732.954
158.833	14.065	974.884	732.003
159.848	14.233	973.823	731.881
160.862	14.092	973.759	731.145
161.877	14.114	972.757	730.425
162.892	13.969	971.761	728.980
163.906	14.001	970.747	728.291
164.921	14.074	969.899	727.912
165.935	14.164	969.048	727.602
166.950	14.081	968.434	726.714
167.964	14.187	967.768	726.613
168.979	14.215	966.474	725.702
169.994	14.225	965.754	725.139
171.008	14.054	965.406	724.066
172.023	14.148	964.639	723.837
173.037	14.176	963.957	723.385
174.052	14.141	963.338	722.704
175.067	14.181	962.027	721.830
176.081	14.219	961.823	721.775
177.096	14.242	961.176	721.328
178.110	14.107	960.555	720.214
179.125	14.278	959.738	720.275
180.140	14.299	958.981	719.733
181.154	14.351	958.498	719.535
182.169	14.245	957.881	718.550
183.183	14.469	957.143	718.897
184.198	14.522	956.245	718.388
185.213	14.529	955.584	717.858
186.227	14.450	955.235	717.193
187.242	14.430	954.387	716.405
188.256	14.480	953.834	716.142
189.271	14.416	952.911	715.111
190.286	14.395	952.147	714.387
191.300	14.300	951.582	713.489
192.315	14.293	950.762	712.784
193.329	14.326	950.235	712.466
194.344	14.240	949.791	711.704
195.359	14.380	948.667	711.394
196.373	14.352	948.062	710.757
197.388	14.457	947.894	711.018
198.402	14.574	947.243	710.966
199.417	14.544	946.589	710.285
200.432	14.554	946.184	709.959
201.446	14.631	945.305	709.567
202.461	14.749	944.948	709.735
203.475	14.853	944.010	709.408
204.490	14.687	943.545	708.294
205.504	14.714	942.380	707.472
206.519	14.591	942.072	706.658
207.534	14.547	941.528	705.998
208.548	14.677	940.400	705.642
209.563	14.565	940.298	705.028
210.577	14.562	939.894	704.649
211.592	14.734	938.438	704.219
212.607	14.782	937.414	703.594
213.621	14.875	936.958	703.580
214.636	14.865	936.563	703.176
215.650	14.699	935.699	701.770
216.665	14.908	934.920	702.000
217.680	14.927	934.300	701.555
218.694	14.851	933.838	700.827
219.709	14.913	932.457	699.986
220.723	14.972	931.861	699.723
221.738	14.769	931.779	698.752
222.753	14.872	931.070	698.591
223.767	14.851	930.622	698.103
224.782	14.930	929.989	697.897
225.796	15.060	929.082	697.697
226.811	15.012	928.298	696.846
227.826	14.927	927.769	696.031
228.840	15.049	926.681	695.663
229.855	14.953	926.052	694.730
230.869	15.066	925.173	694.479
231.884	15.034	924.384	693.692
232.899	15.032	923.756	693.148
233.913	14.882	923.446	692.235
234.928	14.878	923.127	691.920
235.942	14.933	922.623	691.706
236.957	14.865	922.080	690.956
237.972	15.011	920.928	690.635
238.986	15.107	919.981	690.260
240.001	15.051	919.441	689.562
241.015	15.060	919.177	689.341
242.030	15.030	918.464	688.621
243.045	15.082	917.553	688.093
244.059	15.149	916.990	687.885
245.074	15.166	916.354	687.417
246.088	15.168	915.460	686.694
247.103	15.123	915.100	686.178
248.117	15.186	914.500	685.923
249.132	15.250	914.092	685.818
250.147	15.339	913.114	685.390
251.161	15.298	913.045	685.107
252.176	15.435	911.624	684.542
253.190	15.386	911.097	683.887
254.205	15.437	910.601	683.659
255.220	15.326	910.035	682.724
256.234	15.443	909.179	682.498
257.249	15.508	908.453	682.156
258.263	15.460	908.162	681.680
259.278	15.528	907.071	681.078
260.293	15.508	906.682	680.643
261.307	15.471	906.098	679.995
262.322	15.607	905.407	679.968
263.336	15.668	904.053	679.138
264.351	15.679	903.501	678.706
265.366	15.620	903.389	678.325
266.380	15.715	902.722	678.145
267.395	15.799	901.509	677.514
268.409	15.822	900.849	677.051
269.424	15.703	900.383	676.160
270.439	15.587	899.842	675.229
271.453	15.811	898.744	675.243
272.468	15.676	898.418	674.396
273.482	15.795	897.621	674.219
274.497	15.776	897.171	673.741
275.512	15.519	896.925	672.472
276.526	15.744	895.936	672.571
277.541	15.808	895.694	672.584
278.555	15.758	895.089	671.872
279.570	15.836	894.057	671.348
280.585	15.898	893.294	670.961
281.599	15.771	892.705	669.953
282.614	15.936	891.626	669.741
283.628	15.881	891.661	669.490
284.643	15.793	891.195	668.731
285.657	15.914	890.274	668.459
286.672	15.988	889.428	668.061
287.687	15.999	888.942	667.679
288.701	16.000	888.417	667.229
289.716	15.957	888.164	666.809
290.730	16.075	887.390	666.637
291.745	16.161	886.219	666.040
292.760	15.982	885.894	665.030
293.774	16.044	885.142	664.650
294.789	16.083	884.681	664.399
295.803	15.968	883.898	663.299
296.818	16.060	883.023	662.946
297.833	15.999	882.653	662.369
298.847	16.167	881.542	662.135
299.862	16.229	880.974	661.894
300.876	16.141	880.857	661.401
301.891	16.155	880.290	660.974
302.906	16.158	880.019	660.724
303.920	16.340	878.672	660.366
304.935	16.354	878.457	660.201
305.949	16.315	877.763	659.468
306.964	16.255	877.089	658.667
307.979	16.278	876.754	658.449
308.993	16.222	876.494	657.978
310.008	16.338	875.505	657.629
311.022	16.461	874.749	657.481
312.037	16.360	874.598	656.917
313.052	16.312	873.837	656.101
314.066	16.259	873.365	655.482
315.081	16.458	872.168	655.296
316.095	16.380	871.662	654.555
317.110	16.361	871.198	654.078
318.125	16.316	870.979	653.680
319.139	16.403	870.285	653.439
320.154	16.394	869.965	653.105
321.168	16.379	869.401	652.565
322.183	16.519	868.488	652.361
323.197	16.524	868.423	652.276
324.212	16.450	867.512	651.249
325.227	16.627	866.682	651.249
326.241	16.442	866.286	650.180
327.256	16.556	865.783	650.187
328.270	16.518	865.400	649.695
329.285	16.408	864.688	648.678
330.300	16.603	863.868	648.756
331.314	16.591	863.186	648.140
332.329	16.628	863.074	648.139
333.343	16.727	862.544	648.063
334.358	16.638	861.974	647.239
335.373	16.599	861.883	646.963
336.387	16.473	861.624	646.229
337.402	16.583	860.988	646.117
338.416	16.720	860.683	646.354
339.431	16.740	860.200	646.009
340.446	16.788	860.067	646.035
341.460	16.698	859.839	645.464
342.475	16.791	859.160	645.251
343.489	16.720	858.642	644.533
344.504	16.825	857.984	644.381
345.519	16.897	857.414	644.172
346.533	16.901	856.968	643.794
347.548	16.837	856.586	643.207
348.562	16.952	855.829	643.017
349.577	16.854	855.537	642.371
350.592	16.906	854.681	641.869
351.606	17.042	853.861	641.707
352.621	16.900	853.505	640.847
353.635	16.868	852.579	639.975
354.650	17.009	851.995	640.013
355.665	16.918	851.439	639.196
356.679	16.964	850.685	638.745
357.694	17.016	850.472	638.726
358.708	17.037	849.420	637.955
359.723	16.894	849.286	637.262
360.738	17.080	848.148	637.049
361.752	17.060	847.996	636.805
362.767	17.226	847.158	636.740
363.781	17.176	847.056	636.421
364.796	17.112	846.485	635.696
365.810	17.137	846.228	635.539
366.825	17.087	845.940	635.080
367.840	17.280	844.991	635.033
368.854	17.295	844.347	634.547
369.869	17.228	844.017	633.995
370.883	17.361	843.536	634.072
371.898	17.309	843.250	633.609
372.913	17.299	842.828	633.196
373.927	17.342	841.952	632.645
374.942	17.402	841.584	632.536
375.956	17.291	841.468	631.979
376.971	17.350	841.177	631.923
377.986	17.519	840.324	631.854
379.000	17.455	839.950	631.281
380.015	17.624	838.856	631.028
381.029	17.445	838.927	630.360
382.044	17.550	837.892	629.917
383.059	17.553	838.262	630.149
384.073	17.526	836.998	629.044
385.088	17.494	836.485	628.486
386.102	17.467	836.454	628.308
387.117	17.513	835.369	627.604
388.132	17.702	834.636	627.696
389.146	17.546	834.135	626.689
390.161	17.581	833.930	626.609
391.175	17.652	833.121	626.207
392.190	17.527	832.743	625.406
393.205	17.479	832.438	624.946
394.219	17.608	832.330	625.283
395.234	17.588	831.805	624.760
396.248	17.447	831.241	623.764
397.263	17.675	830.373	623.892
398.278	17.496	830.496	623.274
399.292	17.678	829.673	623.269
400.307	17.668	829.340	622.928
401.321	17.524	829.141	622.196
402.336	17.646	828.370	622.006
403.350	17.649	828.028	621.707
404.365	17.652	827.738	621.445
405.380	17.842	827.044	621.560
406.394	17.823	826.612	621.113
407.409	17.865	826.082	620.813
408.423	17.927	825.611	620.627
409.438	17.765	825.423	619.842
410.453	17.932	824.639	619.806
411.467	17.987	824.382	619.758
412.482	18.040	823.656	619.348
413.496	17.964	823.746	619.086
414.511	18.056	823.176	618.937
415.526	18.029	822.590	618.341
416.540	17.895	822.497	617.733
417.555	18.034	821.585	617.497
418.569	17.925	821.717	617.147
419.584	18.098	821.102	617.255
420.599	18.072	820.539	616.682
421.613	112.012	1297.001	1476.894
422.628	97.082	1366.380	1476.996
