DTS Sentinel unit serial number:	SN413079Multiplexer serial number:	ORYXHardware model number:	OX4-SRSoftware version number:	ORYX F/W v4.00 Oryx Data Collector v3.7.2.0data status	okinstallation	princeton_trtdifferential loss correction	single-endedforward channel	channel 1reverse channel	N/Adate	2019/09/17time	14:22:35forward acquisition time	60.00reverse acquisition time	0.00gamma	496.2192k internal	0.2299k external	0.2299temperature offset calibration	0.9970default loss term (dB/km)	0.3790temperature slope calibration	1.0000multiplexer offset coefficient	1.0000multiplexer slope coefficient	1.0000fibre end	0.00T internal ref (°C)	36.23T ext. ref 1 (°C)	0.40T ext. ref 2 (°C)	33.34length (m)	temperature (°C)	Stokes	anti-Stokes-747.200	187.022	0.084	0.127
-746.185	152.349	0.123	0.171
-745.171	-30.147	0.290	0.168
-744.156	-58.283	0.321	0.143
-743.142	195.429	-0.146	0.227
-742.127	313.482	0.266	0.511
-741.112	800.000	-0.067	0.212
-740.098	163.503	0.085	0.122
-739.083	-73.910	-0.166	0.062
-738.069	548.398	-0.086	0.210
-737.054	45.015	-0.253	-0.237
-736.039	239.167	-0.173	-0.294
-735.025	286.654	0.163	0.301
-734.010	800.000	-0.062	-0.186
-732.996	52.049	-0.343	0.333
-731.981	16.978	-0.096	0.078
-730.966	21.585	-0.039	0.033
-729.952	595.163	0.015	-0.039
-728.937	-144.999	0.450	-0.042
-727.923	298.798	-0.160	-0.301
-726.908	-129.033	-0.406	0.058
-725.894	-62.909	0.126	-0.053
-724.879	-80.546	0.106	0.036
-723.864	-200.000	-0.004	0.400
-722.850	-46.365	-0.167	-0.084
-721.835	-200.000	0.006	0.167
-720.821	800.000	-0.058	0.202
-719.806	-144.599	0.334	0.031
-718.791	-60.152	-0.149	-0.065
-717.777	-23.071	-0.155	-0.095
-716.762	-5.154	-0.308	0.216
-715.748	49.286	-0.181	0.173
-714.733	352.779	0.224	0.453
-713.718	-139.770	-0.178	0.019
-712.704	251.364	-0.115	0.200
-711.689	638.769	-0.113	-0.293
-710.675	-57.660	0.098	-0.044
-709.660	-200.000	0.033	-0.328
-708.645	65.042	0.271	-0.279
-707.631	-136.885	-0.224	0.026
-706.616	-200.000	-0.005	-0.186
-705.602	-134.570	0.206	-0.026
-704.587	-133.282	-0.288	0.037
-703.572	-200.000	0.047	-0.453
-702.558	-115.708	-0.446	-0.085
-701.543	311.249	-0.024	0.045
-700.529	105.001	-0.187	-0.224
-699.514	-200.000	-0.011	-0.345
-698.499	800.000	-0.044	-0.175
-697.485	199.416	0.096	0.149
-696.470	-23.803	0.268	-0.164
-695.456	0.471	-0.516	-0.375
-694.441	-130.403	0.121	-0.017
-693.426	84.763	0.133	-0.148
-692.412	-198.582	-0.329	-0.002
-691.397	-192.849	-0.261	-0.002
-690.383	-112.599	-0.216	0.044
-689.368	25.416	0.205	0.173
-688.354	631.534	-0.108	0.278
-687.339	800.000	0.064	0.211
-686.324	124.376	-0.158	0.203
-685.310	150.818	0.126	-0.174
-684.295	567.673	0.102	-0.253
-683.281	70.177	-0.131	-0.137
-682.266	8.779	0.335	-0.257
-681.251	66.605	0.140	-0.145
-680.237	-70.984	-0.149	0.057
-679.222	-200.000	-0.010	-0.055
-678.208	-64.676	0.470	-0.194
-677.193	-75.569	-0.195	-0.071
-676.178	10.442	-0.179	0.139
-675.164	169.646	-0.144	-0.209
-674.149	-179.679	-0.136	0.003
-673.135	-200.000	-0.013	0.074
-672.120	-200.000	-0.013	-0.137
-671.105	327.466	0.177	-0.346
-670.091	90.011	-0.209	-0.237
-669.076	800.000	0.047	-0.154
-668.062	295.621	-0.065	-0.121
-667.047	-200.000	-0.014	0.130
-666.032	-159.179	-0.160	-0.009
-665.018	548.379	0.061	0.149
-664.003	-200.000	0.017	0.199
-662.989	800.000	0.072	0.282
-661.974	175.505	-0.305	-0.449
-660.959	-166.255	0.207	0.009
-659.945	52.178	0.133	-0.129
-658.930	-44.886	0.082	-0.041
-657.916	54.094	0.031	0.031
-656.901	800.000	0.122	0.482
-655.886	5.928	-0.380	-0.286
-654.872	-29.126	-0.073	-0.042
-653.857	342.196	-0.114	0.226
-652.843	-36.705	0.135	-0.074
-651.828	323.204	-0.095	0.184
-650.814	-41.711	-0.159	-0.083
-649.799	-23.633	0.193	0.118
-648.784	-155.815	-0.407	0.026
-647.770	144.126	0.149	0.202
-646.755	800.000	0.050	-0.190
-645.741	488.554	-0.102	-0.236
-644.726	-81.816	-0.133	0.044
-643.711	800.000	-0.058	0.251
-642.697	44.418	0.099	0.092
-641.682	-48.750	0.230	0.112
-640.668	442.147	-0.073	0.162
-639.653	55.369	-0.089	0.087
-638.638	192.523	-0.139	-0.213
-637.624	-9.529	-0.504	-0.342
-636.609	215.952	0.119	-0.191
-635.595	22.600	0.163	-0.136
-634.580	171.645	0.133	-0.195
-633.565	-69.424	-0.040	-0.015
-632.551	244.433	-0.111	-0.189
-631.536	274.775	-0.146	0.263
-630.522	622.100	-0.125	0.320
-629.507	601.143	-0.062	0.155
-628.492	-122.362	-0.246	0.041
-627.478	732.612	-0.051	0.138
-626.463	219.362	-0.197	-0.320
-625.449	-200.000	0.033	0.168
-624.434	453.906	-0.042	-0.094
-623.419	800.000	-0.068	-0.203
-622.405	-61.613	-0.142	-0.060
-621.390	-152.474	0.270	0.020
-620.376	51.586	0.067	-0.065
-619.361	-115.808	-0.216	0.041
-618.346	264.133	-0.193	-0.340
-617.332	-112.271	0.441	0.090
-616.317	-124.367	-0.122	-0.019
-615.303	-115.903	-0.375	-0.071
-614.288	118.762	0.168	0.211
-613.273	246.055	0.163	-0.278
-612.259	43.776	-0.070	0.065
-611.244	20.378	-0.098	0.081
-610.230	-200.000	-0.026	-0.209
-609.215	438.425	-0.069	0.153
-608.201	215.411	-0.048	-0.077
-607.186	-30.593	0.188	-0.108
-606.171	62.247	0.130	-0.131
-605.157	-200.000	-0.013	-0.081
-604.142	-17.316	-0.156	0.100
-603.128	-200.000	-0.041	-0.228
-602.113	612.504	-0.171	-0.435
-601.098	424.047	-0.082	-0.178
-600.084	46.862	0.262	0.247
-599.069	-200.000	0.021	0.131
-598.055	-169.702	-0.234	0.009
-597.040	0.652	-0.045	0.033
-596.025	-6.357	0.197	0.136
-595.011	183.559	0.136	-0.204
-593.996	2.233	-0.187	0.137
-592.982	30.322	0.057	-0.049
-591.967	-74.256	0.182	-0.067
-590.952	-92.834	0.039	0.011
-589.938	-200.000	0.005	-0.344
-588.923	-44.778	-0.200	-0.101
-587.909	-47.899	0.276	-0.136
-586.894	199.852	-0.207	-0.322
-585.879	-66.815	0.160	-0.064
-584.865	-140.912	-0.127	0.013
-583.850	-80.819	0.378	-0.127
-582.836	-139.359	-0.137	-0.015
-581.821	439.032	-0.107	0.238
-580.806	-83.796	-0.056	0.018
-579.792	35.791	0.106	-0.095
-578.777	-50.445	-0.037	0.018
-577.763	280.249	0.080	-0.144
-576.748	800.000	-0.039	0.125
-575.733	57.294	0.224	-0.221
-574.719	-200.000	0.049	0.342
-573.704	-38.833	-0.111	-0.059
-572.690	-95.688	0.364	0.099
-571.675	115.012	0.161	-0.200
-570.661	202.965	0.027	0.042
-569.646	-164.046	-0.092	-0.004
-568.631	-14.618	-0.355	0.231
-567.617	-200.000	-0.012	0.121
-566.602	374.098	0.038	-0.078
-565.588	80.482	0.089	0.097
-564.573	-38.450	0.259	-0.139
-563.558	-54.201	0.113	-0.052
-562.544	354.438	-0.032	0.063
-561.529	91.234	-0.129	0.147
-560.515	144.121	0.342	0.463
-559.500	57.778	-0.064	-0.064
-558.485	-32.203	-0.202	-0.115
-557.471	-200.000	-0.012	-0.365
-556.456	-59.645	0.139	0.060
-555.442	553.092	-0.049	-0.119
-554.427	-76.219	-0.099	0.035
-553.412	-200.000	-0.041	0.217
-552.398	516.363	-0.103	0.243
-551.383	-10.823	0.125	-0.084
-550.369	-200.000	0.003	-0.118
-549.354	230.998	0.020	0.033
-548.339	47.834	0.378	-0.358
-547.325	-5.525	0.265	-0.184
-546.310	-200.000	-0.018	-0.249
-545.296	-19.815	-0.222	-0.139
-544.281	238.652	-0.120	0.202
-543.266	-55.529	-0.094	-0.043
-542.252	40.733	-0.122	-0.111
-541.237	800.000	-0.059	-0.238
-540.223	230.785	0.049	0.081
-539.208	-32.139	0.276	0.156
-538.193	174.489	-0.196	-0.288
-537.179	318.868	0.125	-0.240
-536.164	10.077	0.082	0.063
-535.150	54.658	0.228	-0.223
-534.135	90.862	0.291	-0.330
-533.121	-76.136	-0.128	0.046
-532.106	-200.000	0.085	-0.694
-531.091	-200.000	0.036	0.202
-530.077	306.804	-0.145	-0.274
-529.062	106.626	-0.229	0.275
-528.048	-63.028	-0.367	-0.153
-527.033	-200.000	-0.026	0.255
-526.018	-71.251	-0.053	-0.020
-525.004	-22.538	0.222	-0.136
-523.989	660.915	-0.035	-0.092
-522.975	-200.000	-0.040	0.184
-521.960	-87.054	-0.107	0.033
-520.945	573.837	-0.023	0.056
-519.931	-109.057	-0.180	-0.039
-518.916	-126.772	-0.106	-0.016
-517.902	-200.000	0.010	-0.099
-516.887	-61.921	0.073	-0.031
-515.872	-200.000	-0.034	-0.331
-514.858	-200.000	0.046	0.263
-513.843	-200.000	-0.008	-0.428
-512.829	69.592	-0.210	-0.219
-511.814	-30.917	-0.353	0.202
-510.799	-66.783	-0.452	0.181
-509.785	433.358	0.111	0.243
-508.770	135.396	-0.148	0.194
-507.756	-75.687	-0.066	-0.024
-506.741	-53.540	0.118	0.054
-505.726	532.034	0.192	0.459
-504.712	-200.000	-0.005	-0.113
-503.697	227.410	0.074	-0.121
-502.683	-53.031	-0.177	-0.082
-501.668	-110.306	-0.130	-0.027
-500.653	54.278	-0.135	0.131
-499.639	80.371	-0.127	-0.138
-498.624	15.981	-0.160	-0.127
-497.610	800.000	-0.075	-0.231
-496.595	-35.555	0.122	-0.067
-495.581	-140.733	-0.105	-0.011
-494.566	-0.432	-0.026	-0.018
-493.551	206.924	0.108	-0.170
-492.537	4.978	-0.160	0.119
-491.522	83.721	0.192	0.212
-490.508	-88.106	-0.068	0.021
-489.493	311.405	-0.129	-0.244
-488.478	73.958	0.093	-0.098
-487.464	-200.000	0.028	0.144
-486.449	800.000	0.023	-0.088
-485.435	-157.818	0.293	0.018
-484.420	-56.766	0.285	0.128
-483.405	140.639	-0.058	0.078
-482.391	-114.757	-0.166	0.032
-481.376	-9.251	0.071	0.048
-480.362	-84.654	-0.211	-0.067
-479.347	-200.000	-0.024	0.389
-478.332	-164.438	-0.365	-0.017
-477.318	111.177	-0.116	-0.141
-476.303	152.362	-0.140	-0.193
-475.289	-200.000	-0.016	0.272
-474.274	-200.000	-0.011	0.124
-473.259	-66.830	-0.353	-0.141
-472.245	-200.000	-0.068	-0.356
-471.230	423.369	-0.048	-0.103
-470.216	496.058	0.037	0.085
-469.201	301.455	0.078	-0.146
-468.186	729.066	-0.056	0.151
-467.172	-42.960	0.202	0.104
-466.157	800.000	-0.054	0.172
-465.143	158.265	0.156	0.218
-464.128	-200.000	-0.035	-0.280
-463.113	-200.000	-0.012	0.144
-462.099	-78.351	0.360	-0.125
-461.084	6.422	-0.052	-0.039
-460.070	-120.817	-0.262	-0.045
-459.055	-133.114	-0.116	0.015
-458.040	219.292	-0.157	0.254
-457.026	-43.812	-0.077	-0.039
-456.011	800.000	-0.021	-0.078
-454.997	-173.280	0.224	0.007
-453.982	-200.000	0.015	0.217
-452.968	131.611	0.116	-0.151
-451.953	800.000	0.088	-0.267
-450.938	-200.000	0.055	0.268
-449.924	-104.864	-0.256	0.059
-448.909	-92.687	-0.134	-0.038
-447.895	315.274	-0.080	-0.153
-446.880	-62.521	-0.254	0.106
-445.865	672.945	0.015	0.038
-444.851	23.060	-0.150	0.124
-443.836	-104.533	0.150	0.035
-442.822	254.381	-0.122	0.210
-441.807	-31.321	0.278	0.158
-440.792	-90.843	-0.156	0.045
-439.778	586.964	-0.102	0.252
-438.763	-62.878	0.139	-0.058
-437.749	352.399	-0.054	0.109
-436.734	800.000	0.082	-0.242
-435.719	-200.000	0.007	-0.087
-434.705	-146.802	-0.074	0.006
-433.690	-200.000	0.047	0.258
-432.676	116.025	0.086	0.106
-431.661	-200.000	0.020	-0.553
-430.646	75.925	0.095	0.102
-429.632	-200.000	-0.013	0.077
-428.617	406.195	0.160	-0.339
-427.603	-164.070	0.239	-0.011
-426.588	72.975	-0.130	-0.137
-425.573	-193.048	0.268	-0.002
-424.559	255.678	-0.051	0.088
-423.544	97.841	0.231	-0.268
-422.530	-200.000	-0.011	-0.219
-421.515	-137.604	-0.141	0.016
-420.500	-143.565	0.223	0.021
-419.486	-200.000	-0.013	-0.126
-418.471	336.274	-0.079	-0.155
-417.457	366.087	-0.052	-0.106
-416.442	648.110	-0.071	-0.182
-415.428	-111.131	-0.197	0.041
-414.413	-185.591	-0.095	-0.001
-413.398	267.196	-0.044	0.078
-412.384	-80.760	0.190	-0.064
-411.369	-200.000	-0.033	-0.180
-410.355	12.465	0.298	0.231
-409.340	-51.255	0.182	0.086
-408.325	-156.112	-0.284	-0.018
-407.311	-200.000	-0.022	-0.154
-406.296	800.000	0.176	0.583
-405.282	-158.563	0.178	0.010
-404.267	612.155	-0.072	-0.180
-403.252	27.142	0.226	-0.191
-402.238	291.628	-0.053	0.098
-401.223	-11.387	0.192	-0.127
-400.209	115.359	-0.143	0.176
-399.194	42.689	0.131	0.120
-398.179	101.262	0.229	0.268
-397.165	629.127	0.029	0.075
-396.150	-153.788	0.130	0.009
-395.136	-80.926	-0.306	-0.102
-394.121	800.000	0.019	-0.078
-393.106	15.368	0.132	0.105
-392.092	-200.000	-0.008	-0.057
-391.077	-49.781	0.172	-0.082
-390.063	-14.057	-0.349	0.226
-389.048	-200.000	-0.029	-0.363
-388.033	-73.977	0.153	-0.056
-387.019	800.000	-0.093	0.261
-386.004	-200.000	0.022	0.168
-384.990	41.367	0.101	0.092
-383.975	-200.000	-0.097	0.000
-382.960	-31.178	0.132	0.075
-381.946	-147.728	0.222	0.019
-380.931	-200.000	0.066	-0.439
-379.917	-200.000	-0.008	-0.287
-378.902	800.000	-0.028	0.079
-377.888	-200.000	0.003	-0.353
-376.873	-47.854	-0.137	0.067
-375.858	17.503	0.187	-0.150
-374.844	422.070	-0.091	0.197
-373.829	201.919	-0.063	0.097
-372.815	-97.236	0.197	-0.052
-371.800	800.000	0.052	0.145
-370.785	-146.745	-0.722	0.063
-369.771	800.000	-0.043	0.148
-368.756	-57.827	-0.082	-0.036
-367.742	800.000	-0.123	0.409
-366.727	158.280	-0.194	0.270
-365.712	-87.956	0.139	0.042
-364.698	-200.000	0.002	-0.221
-363.683	-80.115	-0.231	-0.078
-362.669	45.580	-0.322	-0.299
-361.654	72.531	0.139	0.146
-360.639	-200.000	0.031	0.316
-359.625	-73.122	0.161	0.059
-358.610	-200.000	-0.005	0.080
-357.596	-200.000	0.001	-0.098
-356.581	-40.424	-0.348	-0.182
-355.566	-200.000	0.019	0.175
-354.552	-200.000	0.005	0.110
-353.537	203.571	0.065	0.100
-352.523	-137.534	0.109	-0.012
-351.508	-146.339	-0.231	-0.020
-350.493	-100.249	0.108	0.027
-349.479	28.482	-0.206	0.175
-348.464	-138.081	0.513	0.057
-347.450	-72.915	-0.323	-0.119
-346.435	203.984	0.182	0.283
-345.420	-78.116	-0.196	-0.068
-344.406	361.189	0.109	0.219
-343.391	-102.693	0.230	0.055
-342.377	-200.000	-0.041	0.239
-341.362	141.232	-0.165	0.219
-340.348	800.000	-0.121	0.393
-339.333	310.524	-0.101	-0.189
-338.318	800.000	0.080	0.308
-337.304	84.126	0.161	-0.177
-336.289	-30.131	-0.219	-0.125
-335.275	325.688	0.105	0.202
-334.260	-200.000	0.046	0.205
-333.245	-42.361	0.312	-0.160
-332.231	218.368	-0.246	0.394
-331.216	800.000	0.016	0.066
-330.202	73.285	-0.283	-0.297
-329.187	120.518	0.230	0.287
-328.172	-115.149	-0.217	-0.041
-327.158	-59.676	-0.211	0.091
-326.143	-88.319	0.336	0.101
-325.129	-200.000	-0.026	-0.151
-324.114	51.832	-0.100	-0.095
-323.099	-50.554	-0.269	-0.128
-322.085	446.716	-0.018	0.040
-321.070	-61.209	-0.186	0.079
-320.056	126.462	-0.162	0.206
-319.041	-154.705	-0.042	-0.003
-318.026	-54.647	0.091	0.041
-317.012	800.000	0.061	0.212
-315.997	-122.078	0.245	-0.040
-314.983	56.098	-0.198	-0.193
-313.968	-132.163	-0.228	0.030
-312.953	25.017	-0.281	0.234
-311.939	800.000	0.015	-0.065
-310.924	66.087	-0.249	-0.253
-309.910	748.571	0.096	-0.260
-308.895	60.806	-0.129	-0.128
-307.880	-200.000	-0.045	0.236
-306.866	-200.000	0.026	0.259
-305.851	-200.000	0.065	-0.305
-304.837	474.028	0.072	-0.164
-303.822	-200.000	0.054	-0.366
-302.807	-5.547	0.396	-0.272
-301.793	-98.135	0.330	-0.085
-300.778	-102.059	0.247	-0.060
-299.764	-176.598	-0.229	0.006
-298.749	188.487	0.165	-0.248
-297.735	-67.350	-0.120	0.047
-296.720	-200.000	-0.016	-0.103
-295.705	800.000	0.079	-0.237
-294.691	60.935	0.090	-0.090
-293.676	371.461	-0.045	0.092
-292.662	-46.637	0.425	0.209
-291.647	-170.517	0.399	0.014
-290.632	-110.688	-0.173	-0.036
-289.618	-200.000	-0.006	0.325
-288.603	800.000	0.060	0.245
-287.589	6.224	0.475	0.353
-286.574	586.436	-0.069	0.169
-285.559	-61.430	-0.313	0.132
-284.545	16.722	0.019	-0.015
-283.530	800.000	0.095	0.275
-282.516	389.315	-0.058	0.121
-281.501	800.000	0.059	0.191
-280.486	7.230	0.232	-0.173
-279.472	273.319	0.036	0.064
-278.457	-200.000	0.001	0.217
-277.443	-200.000	-0.012	-0.112
-276.428	8.723	-0.216	-0.163
-275.413	800.000	-0.095	-0.311
-274.399	-131.878	-0.438	-0.057
-273.384	-12.140	0.280	-0.184
-272.370	-76.373	-0.094	0.033
-271.355	134.039	0.089	-0.115
-270.340	800.000	-0.041	0.120
-269.326	-82.270	-0.116	0.038
-268.311	170.412	-0.045	-0.065
-267.297	762.100	-0.100	0.273
-266.282	238.610	-0.067	0.111
-265.267	44.450	0.128	0.118
-264.253	800.000	0.063	0.255
-263.238	162.338	-0.139	0.196
-262.224	65.292	0.179	0.181
-261.209	-58.094	-0.102	0.044
-260.195	-76.111	-0.082	0.029
-259.180	800.000	0.065	0.270
-258.165	-163.073	-0.108	0.005
-257.151	570.377	0.042	-0.102
-256.136	-146.682	0.244	-0.021
-255.122	-91.021	0.333	-0.096
-254.107	-91.344	-0.316	0.091
-253.092	800.000	0.099	0.361
-252.078	800.000	-0.039	0.112
-251.063	284.941	0.100	0.179
-250.049	146.401	0.275	-0.370
-249.034	64.691	0.028	0.028
-248.019	4.009	-0.176	0.129
-247.005	-200.000	0.061	-0.421
-245.990	800.000	-0.038	-0.136
-244.976	464.503	-0.188	0.420
-243.961	800.000	0.028	0.112
-242.946	-171.657	0.053	0.002
-241.932	499.636	0.054	-0.125
-240.917	-23.412	0.364	-0.219
-239.903	-200.000	-0.050	0.248
-238.888	-111.632	-0.190	0.039
-237.873	-154.188	0.110	0.007
-236.859	-47.683	-0.327	-0.159
-235.844	430.090	-0.059	0.127
-234.830	-146.237	-0.112	-0.010
-233.815	-114.857	0.152	0.029
-232.800	-131.517	-0.264	-0.035
-231.786	-137.382	0.131	-0.015
-230.771	-200.000	0.030	0.418
-229.757	800.000	-0.101	0.285
-228.742	328.278	-0.104	-0.201
-227.727	-200.000	-0.020	-0.284
-226.713	35.871	-0.073	0.064
-225.698	308.281	-0.095	-0.178
-224.684	236.582	0.104	-0.172
-223.669	549.127	-0.035	-0.085
-222.655	-200.000	0.011	-0.193
-221.640	460.308	0.048	-0.108
-220.625	-132.109	-0.189	-0.025
-219.611	-119.837	0.251	-0.043
-218.596	-200.000	-0.022	-0.115
-217.582	-87.979	-0.040	0.012
-216.567	157.422	-0.134	0.185
-215.552	-22.633	-0.123	0.074
-214.538	231.566	-0.101	0.166
-213.523	52.313	-0.166	0.158
-212.509	-200.000	0.041	0.223
-211.494	800.000	0.049	-0.178
-210.479	57.638	-0.297	-0.290
-209.465	-40.851	0.214	-0.111
-208.450	2.852	-0.215	-0.156
-207.436	-95.249	0.311	-0.084
-206.421	450.309	-0.105	0.232
-205.406	-124.316	0.141	0.022
-204.392	45.642	0.261	-0.241
-203.377	-126.567	0.185	-0.027
-202.363	-115.040	0.261	-0.050
-201.348	-150.907	-0.234	0.018
-200.333	-49.641	0.110	0.052
-199.319	-76.786	-0.114	0.040
-198.304	-85.679	0.242	-0.075
-197.290	-200.000	0.024	0.147
-196.275	111.044	0.043	0.052
-195.260	-135.365	-0.010	0.001
-194.246	-86.936	-0.207	0.063
-193.231	-200.000	-0.116	-0.628
-192.217	9.597	-0.193	0.146
-191.202	5.926	0.187	0.138
-190.187	-43.478	0.061	0.031
-189.173	-55.110	-0.071	0.032
-188.158	-129.433	0.265	-0.037
-187.144	-200.000	0.030	0.197
-186.129	-50.355	-0.049	-0.023
-185.114	-121.404	0.205	0.034
-184.100	18.762	0.102	-0.081
-183.085	3.384	0.229	-0.166
-182.071	203.180	0.153	0.237
-181.056	-43.976	-0.176	0.089
-180.042	568.462	0.083	0.201
-179.027	-200.000	-0.030	-0.135
-178.012	-13.385	0.206	0.133
-176.998	-48.175	-0.232	0.112
-175.983	-153.774	0.027	-0.002
-174.969	114.977	-0.172	-0.209
-173.954	-12.537	0.376	0.245
-172.939	-200.000	0.052	0.257
-171.925	149.792	0.111	0.150
-170.910	111.446	0.170	0.204
-169.896	800.000	-0.030	0.106
-168.881	102.296	0.128	0.150
-167.866	-56.402	-0.216	0.096
-166.852	-200.000	0.087	-0.423
-165.837	-77.289	-0.241	-0.084
-164.823	-104.154	0.267	-0.062
-163.808	-200.000	0.364	0.001
-162.793	745.447	-0.049	-0.133
-161.779	-65.196	0.224	-0.090
-160.764	800.000	-0.070	0.208
-159.750	154.989	0.202	-0.278
-158.735	-128.852	0.238	-0.033
-157.720	0.720	-0.227	0.162
-156.706	76.525	0.136	0.144
-155.691	-9.400	-0.091	-0.061
-154.677	-57.099	0.252	0.111
-153.662	-93.097	0.181	0.050
-152.647	800.000	0.067	-0.186
-151.633	95.773	0.143	-0.163
-150.618	38.754	-0.070	-0.062
-149.604	-164.927	-0.319	0.014
-148.589	-200.000	-0.030	-0.168
-147.574	-43.452	-0.252	0.127
-146.560	-59.607	0.187	0.080
-145.545	800.000	-0.060	0.196
-144.531	-200.000	0.019	0.110
-143.516	12.306	-0.041	-0.031
-142.502	112.163	0.161	-0.194
-141.487	15.066	0.259	-0.202
-140.472	-119.030	0.087	0.015
-139.458	800.000	0.082	-0.246
-138.443	550.249	0.075	-0.179
-137.429	39.484	0.258	0.231
-136.414	-200.000	-0.044	0.279
-135.399	-97.411	0.104	-0.027
-134.385	137.851	-0.222	0.290
-133.370	-89.793	0.267	-0.078
-132.356	-64.087	-0.108	-0.044
-131.341	417.801	-0.012	-0.025
-130.326	-21.906	-0.089	-0.054
-129.312	-198.585	0.258	0.001
-128.297	-200.000	0.019	-0.149
-127.283	102.401	-0.119	-0.139
-126.268	118.744	-0.084	-0.103
-125.253	85.266	0.082	-0.089
-124.239	192.742	-0.132	-0.199
-123.224	-179.856	-0.311	0.007
-122.210	167.187	0.070	0.099
-121.195	-125.236	-0.183	0.028
-120.180	-127.733	0.136	-0.020
-119.166	-97.308	0.561	0.146
-118.151	40.824	-0.184	0.165
-117.137	417.685	0.098	-0.209
-116.122	221.924	-0.081	0.130
-115.107	296.893	0.073	-0.133
-114.093	-1.470	0.124	-0.087
-113.078	32.731	-0.298	-0.257
-112.064	-50.118	0.149	0.070
-111.049	-153.443	0.152	0.011
-110.034	-145.541	-0.070	0.006
-109.020	-200.000	-0.023	0.210
-108.005	263.328	-0.143	0.247
-106.991	189.523	0.012	0.018
-105.976	178.937	-0.189	-0.276
-104.962	-9.504	0.183	0.122
-103.947	108.584	0.135	-0.160
-102.932	20.504	-0.284	0.229
-101.918	43.986	0.178	0.163
-100.903	77.793	-0.061	0.064
-99.889	800.000	-0.019	-0.079
-98.874	147.794	-0.018	0.024
-97.859	4.263	-0.274	-0.199
-96.845	-109.104	0.113	0.024
-95.830	-1.994	-0.223	0.156
-94.816	800.000	0.106	0.311
-93.801	-117.767	0.077	0.014
-92.786	-45.712	0.408	0.200
-91.772	-89.919	-0.065	-0.019
-90.757	56.014	0.144	-0.139
-89.743	-200.000	0.044	-0.295
-88.728	-26.694	0.154	0.089
-87.713	-13.262	0.209	0.135
-86.699	8.910	0.333	0.250
-85.684	-200.000	-0.008	0.080
-84.670	192.586	0.082	-0.122
-83.655	189.458	-0.088	0.132
-82.640	-53.083	0.277	0.127
-81.626	-182.615	-0.239	0.004
-80.611	43.647	-0.159	0.144
-79.597	519.691	-0.092	-0.213
-78.582	-54.161	-0.349	0.158
-77.567	-200.000	0.005	0.126
-76.553	268.755	0.207	0.361
-75.538	-200.000	0.043	0.345
-74.524	-4.269	0.291	0.200
-73.509	4.597	-0.096	-0.070
-72.494	548.041	0.061	-0.146
-71.480	240.086	-0.130	0.216
-70.465	-42.537	0.007	-0.003
-69.451	-153.230	-0.080	0.006
-68.436	-153.944	0.170	0.012
-67.422	-196.451	0.170	-0.001
-66.407	-62.411	-0.344	-0.142
-65.392	-140.743	-0.192	-0.020
-64.378	-200.000	0.019	0.267
-63.363	800.000	-0.110	-0.334
-62.349	-70.482	0.089	-0.033
-61.334	85.379	-0.543	-0.593
-60.319	800.000	0.186	0.643
-59.305	-200.000	-0.017	-1.083
-58.290	493.420	0.526	1.200
-57.276	480.703	0.846	1.907
-56.261	-200.000	90.006	514.912
-55.246	442.207	1429.001	3108.527
-54.232	142.493	2635.140	3475.986
-53.217	110.106	2236.804	2667.285
-52.203	47.279	1672.759	1547.415
-51.188	39.455	1402.502	1248.039
-50.173	36.372	1358.852	1190.179
-49.159	55.604	1404.338	1350.904
-48.144	59.789	1422.428	1394.461
-47.130	40.147	1379.197	1231.412
-46.115	36.423	1361.249	1192.405
-45.100	36.115	1356.855	1186.612
-44.086	36.090	1354.413	1184.276
-43.071	36.054	1352.072	1181.958
-42.057	36.070	1349.749	1179.979
-41.042	36.034	1347.725	1177.941
-40.027	36.150	1346.144	1177.222
-39.013	36.203	1343.960	1175.588
-37.998	36.260	1342.079	1174.242
-36.984	36.246	1340.735	1172.938
-35.969	36.244	1338.825	1171.207
-34.954	36.209	1336.801	1169.178
-33.940	36.330	1335.469	1168.699
-32.925	36.342	1334.149	1167.573
-31.911	36.324	1332.611	1166.067
-30.896	36.435	1330.807	1165.115
-29.881	36.428	1329.716	1164.073
-28.867	36.256	1328.802	1162.188
-27.852	36.247	1326.981	1160.498
-26.838	36.274	1325.243	1159.091
-25.823	36.370	1323.845	1158.399
-24.809	36.348	1322.287	1156.860
-23.794	36.328	1320.430	1155.069
-22.779	36.376	1319.324	1154.340
-21.765	36.384	1318.241	1153.394
-20.750	36.290	1316.966	1151.673
-19.736	36.239	1315.468	1150.014
-18.721	36.084	1314.829	1148.484
-17.706	36.075	1313.433	1147.169
-16.692	36.261	1311.243	1146.314
-15.677	36.209	1310.314	1145.146
-14.663	36.321	1308.951	1144.576
-13.648	36.192	1308.393	1143.277
-12.633	36.075	1307.525	1141.784
-11.619	36.250	1306.294	1141.694
-10.604	36.127	1305.573	1140.296
-9.590	36.054	1304.949	1139.270
-8.575	36.118	1303.659	1138.477
-7.560	36.035	1303.185	1137.527
-6.546	36.167	1301.833	1137.083
-5.531	36.105	1300.854	1135.818
-4.517	36.085	1300.082	1134.981
-3.502	36.230	1298.959	1134.806
-2.487	36.102	1298.427	1133.546
-1.473	36.274	1293.965	1130.609
-0.458	35.210	1279.597	1111.845
0.556	30.344	1261.105	1072.707
1.571	25.916	1265.871	1050.913
2.586	24.107	1279.504	1051.469
3.600	22.916	1268.011	1034.960
4.615	16.831	1190.910	938.351
5.629	6.278	1108.046	818.354
6.644	0.828	1084.570	773.145
7.659	0.345	1081.985	768.767
8.673	0.205	1080.992	767.280
9.688	0.214	1079.653	766.310
10.702	0.513	1078.198	766.728
11.717	6.382	1086.196	802.316
12.731	15.444	1098.541	857.876
13.746	18.322	1100.599	874.124
14.761	17.323	1098.915	867.614
15.775	16.346	1096.878	860.948
16.790	15.267	1094.739	853.703
17.804	14.439	1093.461	848.417
18.819	14.173	1092.110	845.943
19.834	13.780	1091.048	843.048
20.848	13.598	1090.154	841.357
21.863	13.335	1088.990	839.052
22.877	13.225	1088.397	837.960
23.892	13.210	1087.656	837.242
24.907	13.197	1086.832	836.466
25.921	13.263	1085.995	836.081
26.936	13.221	1085.625	835.511
27.950	13.222	1084.369	834.476
28.965	13.384	1083.254	834.363
29.980	13.339	1082.011	833.105
30.994	13.520	1080.689	832.923
32.009	13.439	1080.044	831.946
33.023	13.564	1078.634	831.413
34.038	13.415	1077.782	829.935
35.053	13.328	1076.733	828.620
36.067	13.395	1075.765	828.138
37.082	13.410	1075.108	827.632
38.096	13.429	1074.246	826.990
39.111	13.312	1073.917	826.076
40.126	13.221	1072.477	824.446
41.140	13.292	1071.458	823.941
42.155	13.201	1069.967	822.269
43.169	13.075	1069.217	820.995
44.184	13.289	1067.664	820.789
45.199	13.299	1067.036	820.284
46.213	13.202	1066.089	819.003
47.228	13.318	1064.596	818.360
48.242	13.234	1064.186	817.554
49.257	13.296	1062.743	816.683
50.271	13.294	1061.998	816.026
51.286	13.320	1061.056	815.359
52.301	13.374	1060.032	814.766
53.315	13.259	1059.034	813.362
54.330	13.232	1058.323	812.607
55.344	13.290	1057.162	811.929
56.359	13.224	1056.192	810.790
57.374	13.199	1055.315	809.922
58.388	13.249	1054.265	809.291
59.403	13.124	1053.870	808.301
60.417	13.172	1052.771	807.623
61.432	13.025	1052.484	806.614
62.447	13.026	1051.356	805.682
63.461	13.062	1050.668	805.258
64.476	13.146	1049.333	804.576
65.490	13.083	1048.876	803.845
66.505	13.140	1048.135	803.483
67.520	13.274	1047.195	803.344
68.534	13.214	1046.431	802.395
69.549	13.104	1045.928	801.407
70.563	13.062	1045.173	800.553
71.578	13.040	1044.215	799.642
72.593	13.060	1043.146	798.848
73.607	13.040	1042.599	798.259
74.622	12.951	1042.194	797.453
75.636	13.136	1041.161	797.482
76.651	13.053	1040.715	796.669
77.666	13.163	1040.014	796.594
78.680	13.128	1039.177	795.716
79.695	13.163	1038.452	795.256
80.709	13.166	1037.749	794.661
81.724	13.232	1037.304	794.571
82.739	13.223	1036.526	793.861
83.753	13.227	1035.998	793.406
84.768	13.479	1034.289	793.230
85.782	13.364	1033.789	792.229
86.797	13.456	1032.871	791.894
87.812	13.347	1032.324	790.884
88.826	13.323	1030.910	789.616
89.841	13.254	1030.450	788.864
90.855	13.395	1029.047	788.393
91.870	13.389	1028.785	788.094
92.884	13.263	1027.584	786.506
93.899	13.441	1026.585	786.515
94.914	13.491	1025.764	786.056
95.928	13.458	1025.250	785.436
96.943	13.398	1024.407	784.435
97.957	13.363	1023.245	783.309
98.972	13.377	1022.294	782.578
99.987	13.288	1021.658	781.602
101.001	13.370	1020.243	780.839
102.016	13.244	1019.586	779.670
103.030	13.319	1018.895	779.429
104.045	13.449	1017.596	778.977
105.060	13.281	1017.113	777.747
106.074	13.353	1016.352	777.435
107.089	13.206	1015.060	775.690
108.103	13.268	1014.162	775.224
109.118	13.168	1013.256	773.995
110.133	13.265	1012.308	773.656
111.147	13.236	1011.380	772.743
112.162	13.182	1010.398	771.673
113.176	13.318	1009.725	771.723
114.191	13.277	1009.081	770.972
115.206	13.342	1008.109	770.465
116.220	13.270	1007.372	769.496
117.235	13.359	1006.215	768.958
118.249	13.253	1005.731	768.031
119.264	13.395	1004.662	767.804
120.279	13.267	1004.322	766.884
121.293	13.295	1003.037	765.963
122.308	13.233	1002.139	764.924
123.322	13.290	1001.513	764.640
124.337	13.322	1000.442	763.904
125.352	13.260	999.442	762.788
126.366	13.273	998.159	761.798
127.381	13.239	997.107	760.771
128.395	13.236	996.676	760.361
129.410	13.318	995.140	759.499
130.424	13.282	994.582	758.844
131.439	13.462	993.548	758.812
132.454	13.585	992.933	758.838
133.468	13.418	992.376	757.579
134.483	13.383	991.410	756.614
135.497	13.504	990.387	756.323
136.512	13.412	989.607	755.239
137.527	13.349	988.991	754.414
138.541	13.377	988.333	753.971
139.556	13.440	987.236	753.359
140.570	13.494	986.498	752.972
141.585	13.535	985.364	752.227
142.600	13.556	984.571	751.649
143.614	13.504	983.742	750.715
144.629	13.573	983.199	750.547
145.643	13.566	982.249	749.726
146.658	13.413	981.049	748.048
147.673	13.314	980.445	747.075
148.687	13.390	979.526	746.653
149.702	13.420	978.453	745.902
150.716	13.444	977.616	745.306
151.731	13.432	976.888	744.631
152.746	13.361	976.400	743.875
153.760	13.567	975.605	744.129
154.775	13.568	975.196	743.756
155.789	13.434	974.873	742.844
156.804	13.508	973.872	742.348
157.819	13.559	973.238	742.026
158.833	13.686	972.362	741.861
159.848	13.612	971.168	740.553
160.862	13.634	969.980	739.678
161.877	13.600	969.291	738.935
162.892	13.659	968.271	738.358
163.906	13.496	967.390	736.894
164.921	13.572	966.807	736.722
165.935	13.486	966.108	735.745
166.950	13.640	964.495	735.132
167.964	13.652	963.989	734.733
168.979	13.697	962.569	733.789
169.994	13.778	961.839	733.525
171.008	13.767	961.267	732.975
172.023	13.667	960.632	731.982
173.037	13.694	960.013	731.568
174.052	13.700	959.140	730.864
175.067	13.680	958.328	730.089
176.081	13.635	958.033	729.602
177.096	13.623	957.525	729.101
178.110	13.658	957.062	728.838
179.125	13.736	955.904	728.233
180.140	13.783	955.475	728.049
181.154	13.745	955.255	727.650
182.169	13.747	954.376	726.924
183.183	13.764	954.043	726.681
184.198	13.934	952.569	726.237
185.213	13.895	952.103	725.648
186.227	13.909	951.632	725.286
187.242	14.060	950.675	725.148
188.256	13.964	950.172	724.282
189.271	13.849	949.696	723.357
190.286	13.809	948.742	722.392
191.300	13.688	948.111	721.320
192.315	13.743	947.288	720.869
193.329	13.799	947.061	720.874
194.344	13.819	945.914	720.025
195.359	13.892	945.628	720.061
196.373	13.932	944.833	719.563
197.388	13.974	944.623	719.523
198.402	13.934	943.858	718.705
199.417	14.155	943.266	719.145
200.432	14.041	942.720	718.173
201.446	14.050	942.498	717.976
202.461	14.113	941.773	717.633
203.475	14.100	941.361	717.202
204.490	14.058	940.274	716.128
205.504	14.119	939.758	715.936
206.519	14.119	938.673	715.044
207.534	14.038	937.896	714.044
208.548	14.129	937.166	713.814
209.563	14.222	936.660	713.762
210.577	14.163	936.123	713.037
211.592	14.191	935.751	712.811
212.607	14.176	934.567	711.785
213.621	14.224	933.657	711.232
214.636	14.291	932.760	710.772
215.650	14.494	932.007	711.000
216.665	14.339	931.608	709.974
217.680	14.310	930.712	709.104
218.694	14.346	930.335	708.907
219.709	14.359	929.448	708.222
220.723	14.379	928.951	707.868
221.738	14.335	928.055	706.936
222.753	14.397	927.303	706.563
223.767	14.488	926.662	706.400
224.782	14.419	926.498	705.919
225.796	14.464	925.822	705.531
226.811	14.600	924.581	705.098
227.826	14.461	924.314	704.245
228.840	14.380	923.552	703.257
229.855	14.517	922.429	702.920
230.869	14.442	921.854	702.103
231.884	14.434	921.249	701.546
232.899	14.402	920.467	700.756
233.913	14.317	919.946	699.937
234.928	14.411	919.190	699.695
235.942	14.337	918.678	698.934
236.957	14.370	918.204	698.649
237.972	14.344	917.531	697.967
238.986	14.420	916.525	697.459
240.001	14.626	916.194	698.005
241.015	14.510	915.533	696.957
242.030	14.426	914.800	695.984
243.045	14.587	914.024	696.006
244.059	14.674	913.406	695.838
245.074	14.649	913.113	695.448
246.088	14.532	912.391	694.349
247.103	14.645	911.776	694.288
248.117	14.767	911.308	694.380
249.132	14.716	910.595	693.561
250.147	14.700	909.776	692.808
251.161	14.838	909.488	693.100
252.176	14.755	908.984	692.314
253.190	14.936	907.564	691.919
254.205	15.047	906.904	691.813
255.220	15.039	906.443	691.366
256.234	15.047	905.689	690.763
257.249	14.975	905.193	690.029
258.263	15.065	904.135	689.531
259.278	14.934	903.944	688.783
260.293	14.958	903.534	688.510
261.307	15.018	902.738	688.088
262.322	15.032	901.974	687.504
263.336	15.179	901.032	687.329
264.351	15.158	900.486	686.763
265.366	15.169	899.811	686.233
266.380	15.242	899.067	685.906
267.395	15.173	898.650	685.245
268.409	15.149	898.086	684.654
269.424	15.155	897.354	684.062
270.439	15.133	896.592	683.330
271.453	15.199	895.355	682.597
272.468	15.111	895.404	682.215
273.482	15.252	894.712	682.201
274.497	15.234	893.826	681.391
275.512	15.209	893.499	680.981
276.526	15.210	892.820	680.407
277.541	15.235	892.303	680.051
278.555	15.353	891.524	679.876
279.570	15.553	890.565	679.895
280.585	15.352	890.325	678.838
281.599	15.343	889.707	678.273
282.614	15.265	888.924	677.298
283.628	15.341	887.870	676.742
284.643	15.411	887.664	676.807
285.657	15.438	886.834	676.225
286.672	15.179	886.948	675.207
287.687	15.384	885.903	675.180
288.701	15.360	885.121	674.425
289.716	15.462	884.584	674.366
290.730	15.403	884.197	673.774
291.745	15.520	883.145	673.382
292.760	15.631	882.687	673.421
293.774	15.599	882.056	672.750
294.789	15.534	881.420	671.944
295.803	15.535	880.518	671.201
296.818	15.497	879.863	670.491
297.833	15.469	879.345	669.926
298.847	15.581	878.801	669.900
299.862	15.479	878.555	669.247
300.876	15.576	877.594	668.840
301.891	15.481	877.394	668.250
302.906	15.664	876.793	668.463
303.920	15.888	875.905	668.616
304.935	15.814	875.548	667.990
305.949	15.833	874.784	667.421
306.964	15.694	874.200	666.366
307.979	15.827	873.425	666.243
308.993	15.840	873.250	666.101
310.008	15.832	872.396	665.361
311.022	15.818	871.921	664.883
312.037	15.757	871.114	663.969
313.052	15.712	870.739	663.449
314.066	15.702	870.310	663.024
315.081	15.789	869.504	662.692
316.095	15.840	868.633	662.171
317.110	15.740	868.230	661.413
318.125	15.845	867.692	661.356
319.139	15.839	867.159	660.866
320.154	15.863	866.787	660.620
321.168	15.837	866.200	660.011
322.183	15.873	865.635	659.662
323.197	15.926	865.004	659.331
324.212	15.881	864.690	658.860
325.227	15.880	864.149	658.384
326.241	15.917	863.399	657.900
327.256	15.927	862.892	657.493
328.270	16.092	861.906	657.327
329.285	15.991	861.513	656.576
330.300	15.935	860.808	655.762
331.314	15.986	860.226	655.459
332.329	15.935	859.825	654.899
333.343	16.072	859.583	655.186
334.358	16.033	859.103	654.613
335.373	16.104	858.699	654.524
336.387	16.116	858.221	654.149
337.402	16.130	858.200	654.126
338.416	16.287	857.489	654.135
339.431	16.153	857.237	653.368
340.446	16.322	856.893	653.699
341.460	16.313	856.581	653.370
342.475	16.270	856.107	652.784
343.489	16.331	855.697	652.649
344.504	16.289	855.219	652.066
345.519	16.369	854.536	651.795
346.533	16.224	854.242	650.953
347.548	16.314	853.547	650.712
348.562	16.278	852.940	650.056
349.577	16.131	852.517	649.111
350.592	16.179	852.064	648.893
351.606	16.262	851.127	648.442
352.621	16.423	850.402	648.449
353.635	16.587	849.598	648.407
354.650	16.457	848.958	647.360
355.665	16.442	848.510	646.905
356.679	16.550	847.983	646.861
357.694	16.495	846.896	645.761
358.708	16.593	846.376	645.683
359.723	16.591	845.473	644.929
360.738	16.631	845.270	644.871
361.752	16.553	844.923	644.251
362.767	16.445	844.434	643.410
363.781	16.497	843.943	643.176
364.796	16.737	843.479	643.680
365.810	16.837	842.572	643.310
366.825	16.787	842.342	642.889
367.840	16.820	842.134	642.798
368.854	16.659	841.956	641.995
369.869	16.662	841.200	641.374
370.883	16.656	840.881	641.050
371.898	16.844	840.083	641.097
372.913	16.860	839.629	640.752
373.927	16.797	839.251	640.171
374.942	16.772	838.890	639.742
375.956	16.904	838.205	639.664
376.971	16.947	837.793	639.453
377.986	16.959	837.127	638.933
379.000	16.745	837.532	638.381
380.015	17.011	836.670	638.669
381.029	17.086	835.734	638.178
382.044	17.082	835.282	637.760
383.059	17.082	834.680	637.246
384.073	16.779	834.477	635.896
385.088	16.906	833.768	635.776
386.102	16.905	833.018	635.144
387.117	16.915	832.603	634.809
388.132	16.996	831.809	634.451
389.146	16.943	831.582	634.024
390.161	17.076	830.842	633.900
391.175	16.924	830.401	632.942
392.190	17.070	829.917	633.060
393.205	17.068	829.227	632.471
394.219	17.016	829.233	632.227
395.234	17.060	828.697	631.924
396.248	17.091	827.914	631.385
397.263	16.936	827.676	630.574
398.278	16.929	827.427	630.300
399.292	16.971	827.160	630.197
400.307	16.997	826.716	629.900
401.321	17.059	825.824	629.394
402.336	17.046	825.282	628.878
403.350	16.967	824.798	628.162
404.365	17.206	824.582	628.825
405.380	17.332	823.915	628.726
406.394	17.149	823.594	627.751
407.409	17.370	822.875	627.962
408.423	17.309	822.808	627.633
409.438	17.240	822.681	627.223
410.453	17.258	821.947	626.674
411.467	17.464	821.513	627.046
412.482	17.377	821.429	626.609
413.496	17.386	820.773	626.086
414.511	17.569	820.418	626.433
415.526	17.410	819.889	625.387
416.540	17.419	819.577	625.126
417.555	17.466	818.809	624.659
418.569	17.577	818.368	624.675
419.584	17.501	818.237	624.241
420.599	17.540	817.696	623.914
421.613	100.320	1282.048	1427.984
422.628	86.444	1349.730	1428.103
