DTS Sentinel unit serial number:	SN413079Multiplexer serial number:	ORYXHardware model number:	OX4-SRSoftware version number:	ORYX F/W v4.00 Oryx Data Collector v3.7.2.0data status	okinstallation	princeton_trtdifferential loss correction	single-endedforward channel	channel 1reverse channel	N/Adate	2019/09/19time	00:58:35forward acquisition time	60.00reverse acquisition time	0.00gamma	496.2192k internal	0.2344k external	0.2344temperature offset calibration	1.0020default loss term (dB/km)	0.3790temperature slope calibration	1.0000multiplexer offset coefficient	1.0000multiplexer slope coefficient	1.0000fibre end	0.00T internal ref (°C)	22.00T ext. ref 1 (°C)	0.73T ext. ref 2 (°C)	15.44length (m)	temperature (°C)	Stokes	anti-Stokes-747.200	-91.802	0.090	0.026
-746.185	220.265	-0.386	0.620
-745.171	-64.558	0.156	0.063
-744.156	40.660	-0.187	-0.169
-743.142	61.677	-0.021	0.021
-742.127	-200.000	-0.013	-0.091
-741.112	201.240	-0.136	0.209
-740.098	218.549	-0.144	0.230
-739.083	-32.772	0.155	0.086
-738.069	-74.948	-0.070	-0.025
-737.054	-22.593	0.147	0.089
-736.039	-42.991	-0.364	0.185
-735.025	-59.112	-0.109	0.047
-734.010	-104.227	-0.237	-0.055
-732.996	-200.000	0.003	0.122
-731.981	-200.000	0.033	-0.150
-730.966	149.840	0.345	0.467
-729.952	5.574	-0.146	0.108
-728.937	317.151	0.102	-0.193
-727.923	-200.000	-0.320	-0.000
-726.908	-63.589	0.105	-0.043
-725.894	800.000	-0.058	-0.221
-724.879	107.482	-0.297	-0.353
-723.864	-180.855	0.407	0.008
-722.850	-200.000	0.011	-0.217
-721.835	-200.000	0.047	-0.308
-720.821	63.116	-0.125	0.125
-719.806	308.498	-0.066	0.124
-718.791	-7.456	0.049	0.033
-717.777	549.153	0.093	-0.223
-716.762	-8.085	0.151	-0.102
-715.748	-200.000	-0.010	0.080
-714.733	-80.349	-0.191	-0.064
-713.718	-165.747	-0.284	0.012
-712.704	22.266	0.130	0.106
-711.689	-103.085	-0.310	-0.073
-710.675	-128.517	0.091	0.013
-709.660	182.817	0.147	0.217
-708.645	800.000	0.066	-0.265
-707.631	-200.000	-0.034	-0.172
-706.616	800.000	-0.020	-0.061
-705.602	414.596	0.040	-0.085
-704.587	165.979	-0.149	0.211
-703.572	-31.434	-0.289	0.162
-702.558	54.568	-0.149	-0.144
-701.543	178.806	0.142	-0.207
-700.529	67.229	-0.134	-0.136
-699.514	-200.000	0.029	0.223
-698.499	-36.385	-0.315	0.170
-697.485	355.891	0.142	-0.282
-696.470	130.458	-0.162	-0.207
-695.456	34.279	-0.104	-0.091
-694.441	143.424	-0.019	0.025
-693.426	-200.000	0.060	-0.476
-692.412	111.847	-0.090	-0.109
-691.397	-72.183	-0.239	-0.089
-690.383	-18.822	0.215	-0.134
-689.368	341.706	0.149	-0.290
-688.354	-8.776	-0.379	-0.254
-687.339	-56.182	0.075	0.033
-686.324	-58.714	0.241	0.104
-685.310	641.729	-0.077	-0.195
-684.295	-200.000	0.004	-0.050
-683.281	231.879	0.185	-0.304
-682.266	-20.299	0.238	0.146
-681.251	-200.000	0.064	-0.324
-680.237	35.513	-0.068	0.060
-679.222	-200.000	-0.036	0.231
-678.208	-98.727	0.257	-0.065
-677.193	-200.000	-0.047	0.305
-676.178	-200.000	-0.023	0.184
-675.164	21.749	-0.153	-0.125
-674.149	-106.395	-0.251	0.056
-673.135	179.216	0.186	-0.271
-672.120	-200.000	-0.003	-0.021
-671.105	8.111	-0.160	0.120
-670.091	236.634	0.044	-0.073
-669.076	75.384	0.305	-0.321
-668.062	57.626	-0.078	-0.076
-667.047	18.795	-0.057	-0.045
-666.032	266.248	0.135	0.235
-665.018	37.414	-0.127	0.113
-664.003	-163.676	-0.252	-0.012
-662.989	-200.000	0.043	-0.365
-661.974	-65.262	-0.191	0.077
-660.959	-107.705	0.088	-0.019
-659.945	-120.134	-0.234	-0.040
-658.930	90.066	-0.152	-0.170
-657.916	-149.018	0.309	-0.025
-656.901	-143.432	0.340	0.032
-655.886	-200.000	-0.009	0.109
-654.872	44.155	-0.058	-0.053
-653.857	-49.297	-0.029	0.014
-652.843	-72.304	-0.359	0.133
-651.828	-94.541	0.431	0.117
-650.814	-200.000	-0.018	-0.164
-649.799	-45.170	-0.410	-0.203
-648.784	29.341	0.046	-0.039
-647.770	-200.000	0.006	-0.173
-646.755	96.781	-0.134	0.154
-645.741	-200.000	-0.024	0.159
-644.726	152.898	0.064	-0.088
-643.711	15.971	-0.058	0.045
-642.697	-72.174	0.137	0.051
-641.682	-200.000	0.006	0.041
-640.668	-200.000	0.037	-0.165
-639.653	54.688	0.060	-0.057
-638.638	339.550	-0.072	-0.140
-637.624	155.062	-0.055	-0.075
-636.609	-22.751	0.111	0.067
-635.595	-134.203	0.242	0.030
-634.580	800.000	-0.022	0.095
-633.565	317.920	-0.114	0.214
-632.551	-200.000	-0.019	0.209
-631.536	-55.309	-0.175	0.078
-630.522	36.204	0.173	-0.152
-629.507	240.082	-0.086	0.142
-628.492	-121.712	-0.104	-0.017
-627.478	10.054	-0.334	-0.252
-626.463	50.770	-0.276	-0.260
-625.449	124.528	-0.141	0.177
-624.434	388.552	-0.211	-0.435
-623.419	361.530	0.096	-0.192
-622.405	-162.176	-0.150	-0.007
-621.390	134.103	0.187	0.241
-620.376	5.063	0.204	0.149
-619.361	-159.700	-0.119	0.007
-618.346	-3.424	0.207	-0.144
-617.332	-124.535	-0.438	-0.068
-616.317	-163.125	0.178	-0.009
-615.303	-200.000	-0.013	-0.249
-614.288	232.524	0.133	0.217
-613.273	800.000	0.116	-0.345
-612.259	-200.000	-0.011	-0.191
-611.244	218.943	0.246	0.391
-610.230	513.928	-0.024	0.056
-609.215	52.783	0.273	-0.259
-608.201	118.999	-0.100	0.123
-607.186	-46.604	-0.181	-0.088
-606.171	2.555	0.208	0.150
-605.157	219.156	-0.073	0.116
-604.142	6.194	-0.091	-0.067
-603.128	191.232	0.101	0.152
-602.113	-151.867	0.237	0.017
-601.098	-49.058	-0.154	-0.073
-600.084	131.426	-0.149	0.191
-599.069	-91.399	-0.109	0.031
-598.055	-57.828	-0.412	0.179
-597.040	-62.216	-0.215	-0.089
-596.025	-19.370	-0.052	-0.032
-595.011	-200.000	0.000	0.122
-593.996	800.000	0.069	0.260
-592.982	611.364	-0.050	0.125
-591.967	166.033	0.128	0.180
-590.952	-200.000	-0.008	0.249
-589.938	-116.306	-0.432	0.080
-588.923	-148.012	-0.187	0.015
-587.909	-72.016	-0.342	0.127
-586.894	-154.150	0.254	0.017
-585.879	70.227	-0.086	-0.089
-584.865	-69.920	0.090	-0.034
-583.850	-56.801	0.162	0.071
-582.836	800.000	0.072	-0.206
-581.821	600.391	0.102	-0.253
-580.806	-200.000	0.044	0.212
-579.792	2.854	-0.060	-0.044
-578.777	800.000	-0.055	-0.217
-577.763	-200.000	-0.049	0.264
-576.748	181.844	0.087	-0.128
-575.733	-87.474	0.092	0.028
-574.719	800.000	-0.097	0.293
-573.704	-4.651	0.142	-0.098
-572.690	-169.340	0.175	0.006
-571.675	-0.411	0.112	0.079
-570.661	-200.000	-0.020	0.114
-569.646	800.000	-0.120	-0.389
-568.631	-200.000	-0.036	-0.182
-567.617	35.302	0.177	-0.154
-566.602	-109.023	-0.144	0.030
-565.588	800.000	-0.110	0.329
-564.573	-200.000	0.003	0.554
-563.558	236.698	-0.236	0.388
-562.544	-121.141	0.220	0.037
-561.529	-200.000	0.018	0.095
-560.515	-200.000	0.036	-0.175
-559.500	37.283	-0.142	0.125
-558.485	181.166	0.155	0.227
-557.471	104.069	-0.049	0.058
-556.456	-200.000	-0.018	0.211
-555.442	-195.825	-0.095	0.001
-554.427	-200.000	-0.009	0.058
-553.412	509.836	0.037	-0.086
-552.398	121.361	-0.096	-0.118
-551.383	104.895	0.224	0.263
-550.369	87.695	0.175	-0.193
-549.354	-200.000	-0.021	-0.180
-548.339	37.247	0.158	-0.139
-547.325	-200.000	-0.045	-0.249
-546.310	-29.637	-0.110	-0.063
-545.296	-200.000	-0.023	-0.141
-544.281	694.187	0.136	0.354
-543.266	-131.743	-0.206	0.027
-542.252	-200.000	-0.010	0.096
-541.237	-53.476	0.169	-0.077
-540.223	-75.388	-0.262	0.093
-539.208	800.000	-0.064	0.263
-538.193	248.523	-0.082	-0.137
-537.179	182.078	0.245	0.358
-536.164	671.615	0.069	0.178
-535.150	-114.895	-0.252	-0.048
-534.135	-200.000	0.006	-0.309
-533.121	-200.000	0.001	-0.131
-532.106	-85.767	-0.302	-0.093
-531.091	344.530	0.169	-0.329
-530.077	-98.464	0.203	0.052
-529.062	14.815	-0.121	0.094
-528.048	-119.459	0.208	0.036
-527.033	-184.051	-0.426	0.007
-526.018	25.366	0.243	-0.200
-525.004	800.000	0.032	-0.111
-523.989	-22.923	-0.043	-0.026
-522.975	-25.574	-0.312	0.183
-521.960	361.132	-0.054	0.108
-520.945	-107.599	-0.104	-0.023
-519.931	-200.000	-0.004	-0.250
-518.916	800.000	0.063	-0.204
-517.902	-35.784	-0.178	-0.096
-516.887	-58.163	-0.255	-0.110
-515.872	-78.676	0.173	0.059
-514.858	800.000	0.045	-0.180
-513.843	102.006	-0.215	0.249
-512.829	-200.000	-0.013	0.089
-511.814	-83.870	0.113	-0.036
-510.799	800.000	0.134	-0.409
-509.785	800.000	-0.079	-0.233
-508.770	800.000	0.072	-0.269
-507.756	-133.005	0.120	0.015
-506.741	-18.519	0.049	0.030
-505.726	-200.000	-0.005	0.433
-504.712	-200.000	-0.023	0.155
-503.697	-200.000	-0.036	-0.213
-502.683	-139.940	-0.110	-0.012
-501.668	-200.000	-0.018	0.105
-500.653	14.494	0.160	0.123
-499.639	800.000	0.085	-0.247
-498.624	336.545	-0.248	0.478
-497.610	4.327	0.406	-0.295
-496.595	-76.892	0.322	-0.112
-495.581	702.204	0.147	-0.385
-494.566	-92.254	-0.447	-0.125
-493.551	69.239	-0.019	0.019
-492.537	-68.926	0.110	0.042
-491.522	-147.371	-0.085	0.007
-490.508	-27.515	-0.225	-0.130
-489.493	-200.000	-0.026	-0.336
-488.478	-94.419	-0.141	0.038
-487.464	-200.000	0.041	0.279
-486.449	800.000	-0.054	-0.206
-485.435	-200.000	0.056	0.263
-484.420	197.725	-0.062	-0.094
-483.405	-112.762	0.389	0.076
-482.391	83.917	-0.129	-0.140
-481.376	-200.000	0.045	0.368
-480.362	169.853	0.134	0.190
-479.347	800.000	-0.020	-0.064
-478.332	346.038	-0.163	0.317
-477.318	59.903	-0.140	0.137
-476.303	265.499	0.053	-0.092
-475.289	359.595	0.162	-0.321
-474.274	-19.873	0.046	0.028
-473.259	119.043	0.279	-0.342
-472.245	349.519	-0.036	-0.070
-471.230	-199.565	-0.267	0.001
-470.216	-75.791	0.165	0.058
-469.201	87.116	0.053	0.058
-468.186	-114.897	0.302	0.057
-467.172	-23.467	-0.226	-0.134
-466.157	24.807	-0.126	0.103
-465.143	16.891	0.324	0.254
-464.128	-82.806	-0.245	-0.078
-463.113	800.000	0.115	-0.349
-462.099	-46.516	0.230	0.112
-461.084	77.211	0.040	0.042
-460.070	120.354	-0.135	0.167
-459.055	-200.000	0.019	0.204
-458.040	800.000	0.156	0.538
-457.026	-200.000	-0.016	-0.111
-456.011	-127.822	-0.126	-0.018
-454.997	-77.237	-0.017	0.006
-453.982	-73.188	-0.180	0.065
-452.968	-113.682	0.147	-0.028
-451.953	22.614	-0.174	-0.141
-450.938	800.000	0.034	0.108
-449.924	800.000	0.080	-0.325
-448.909	53.041	-0.187	-0.178
-447.895	-200.000	-0.002	0.059
-446.880	15.207	-0.100	0.077
-445.865	-141.045	-0.156	0.016
-444.851	-72.742	-0.259	0.094
-443.836	-3.576	-0.010	-0.007
-442.822	-200.000	-0.035	-0.184
-441.807	305.116	0.094	-0.174
-440.792	-141.588	-0.259	0.026
-439.778	-200.000	-0.004	-0.189
-438.763	-158.621	-0.028	-0.002
-437.749	336.764	0.048	0.091
-436.734	-200.000	0.012	0.213
-435.719	-13.501	0.157	-0.100
-434.705	276.818	-0.286	0.502
-433.690	107.186	-0.030	0.035
-432.676	387.631	-0.078	-0.159
-431.661	97.959	0.149	-0.169
-430.646	25.883	0.072	-0.060
-429.632	-8.253	-0.107	0.071
-428.617	-200.000	-0.060	-0.363
-427.603	-59.162	0.243	0.103
-426.588	206.946	0.134	0.206
-425.573	-85.374	-0.091	0.028
-424.559	-60.683	-0.219	0.092
-423.544	5.028	0.181	0.132
-422.530	-173.481	-0.320	0.010
-421.515	-200.000	0.095	0.427
-420.500	-87.566	-0.300	-0.089
-419.486	201.886	0.100	-0.152
-418.471	18.340	0.201	0.158
-417.457	-25.492	-0.151	0.088
-416.442	-168.431	-0.114	0.004
-415.428	-122.114	0.092	0.015
-414.413	-100.676	0.151	0.037
-413.398	-131.130	0.157	-0.021
-412.384	800.000	0.081	0.235
-411.369	29.289	-0.083	0.070
-410.355	-200.000	0.031	-0.175
-409.340	-200.000	-0.053	0.287
-408.325	259.249	0.104	0.177
-407.311	104.992	0.085	0.099
-406.296	601.055	0.080	0.196
-405.282	-81.399	-0.275	-0.089
-404.267	-200.000	0.069	0.310
-403.252	21.732	0.212	0.171
-402.238	-200.000	-0.042	0.216
-401.223	687.985	-0.019	0.050
-400.209	-52.904	-0.058	0.026
-399.194	-43.614	0.368	-0.183
-398.179	-81.283	0.052	-0.017
-397.165	67.456	-0.168	0.169
-396.150	541.054	-0.088	-0.208
-395.136	454.028	0.075	0.165
-394.121	54.439	0.123	-0.117
-393.106	-24.245	0.286	-0.168
-392.092	31.730	0.331	-0.281
-391.077	-60.139	-0.279	0.117
-390.063	-106.382	-0.207	-0.046
-389.048	-109.264	-0.336	-0.070
-388.033	-77.367	0.181	0.062
-387.019	131.043	0.064	-0.082
-386.004	-103.980	0.254	0.058
-384.990	-200.000	0.023	-0.210
-383.975	-200.000	0.040	-0.178
-382.960	133.902	-0.151	0.193
-381.946	-200.000	0.091	0.451
-380.931	785.714	0.104	-0.281
-379.917	175.890	-0.135	-0.193
-378.902	-17.685	-0.128	-0.080
-377.888	-103.849	0.194	-0.045
-376.873	800.000	-0.098	0.283
-375.858	-103.695	0.140	-0.032
-374.844	475.068	0.118	0.263
-373.829	800.000	0.043	-0.136
-372.815	-200.000	-0.009	0.110
-371.800	120.316	0.074	0.091
-370.785	655.303	0.122	0.310
-369.771	223.434	0.121	0.193
-368.756	-119.338	0.089	0.015
-367.742	793.333	-0.084	-0.227
-366.727	-12.554	-0.192	0.124
-365.712	-105.103	0.131	0.030
-364.698	-156.008	0.260	0.016
-363.683	-136.951	-0.120	0.014
-362.669	200.663	0.160	0.243
-361.654	69.895	-0.114	-0.116
-360.639	68.538	-0.145	-0.147
-359.625	-110.636	-0.055	0.011
-358.610	672.657	-0.104	-0.266
-357.596	-70.717	0.105	0.039
-356.581	-178.953	0.196	-0.004
-355.566	-200.000	0.264	0.001
-354.552	58.923	0.116	0.112
-353.537	-26.711	-0.335	-0.193
-352.523	-200.000	0.039	-0.362
-351.508	-200.000	0.029	0.252
-350.493	41.489	-0.055	-0.049
-349.479	-20.326	0.282	0.171
-348.464	99.980	0.112	-0.128
-347.450	51.443	-0.151	-0.141
-346.435	-137.582	0.122	-0.014
-345.420	-52.605	0.128	-0.058
-344.406	-200.000	0.018	0.128
-343.391	146.430	0.245	0.325
-342.377	184.638	0.091	-0.132
-341.362	70.524	0.200	-0.204
-340.348	-144.014	-0.326	-0.030
-339.333	61.088	0.234	-0.229
-338.318	198.165	0.056	0.084
-337.304	331.405	-0.160	0.304
-336.289	-114.925	-0.209	0.039
-335.275	-200.000	0.070	-0.335
-334.260	152.269	0.188	-0.252
-333.245	-172.227	-0.168	-0.005
-332.231	-200.000	-0.036	0.168
-331.216	267.163	-0.054	-0.093
-330.202	-101.591	-0.291	0.070
-329.187	37.904	0.203	-0.178
-328.172	64.368	0.035	0.035
-327.158	-64.723	-0.255	0.102
-326.143	-69.162	-0.378	0.143
-325.129	100.576	0.203	0.232
-324.114	-200.000	0.024	-0.168
-323.099	97.114	-0.235	-0.266
-322.085	800.000	-0.047	-0.169
-321.070	-135.583	0.482	-0.056
-320.056	540.936	-0.088	-0.207
-319.041	-200.000	-0.000	-0.190
-318.026	-32.450	-0.051	-0.028
-317.012	-44.144	-0.200	-0.099
-315.997	93.684	0.062	-0.069
-314.983	800.000	0.047	-0.187
-313.968	443.692	-0.101	-0.217
-312.953	-16.876	-0.293	-0.182
-311.939	-18.722	0.239	-0.146
-310.924	143.620	-0.211	0.276
-309.910	-104.482	-0.260	-0.059
-308.895	623.446	0.014	0.035
-307.880	-84.899	0.383	0.118
-306.866	19.933	-0.376	0.298
-305.851	800.000	0.062	0.209
-304.837	800.000	-0.099	-0.296
-303.822	-200.000	-0.013	0.111
-302.807	206.138	0.048	-0.073
-301.793	-200.000	-0.015	-0.202
-300.778	800.000	-0.066	-0.265
-299.764	33.481	0.101	0.086
-298.749	202.197	-0.095	0.144
-297.735	800.000	0.069	0.293
-296.720	-54.269	0.063	-0.028
-295.705	50.308	0.038	0.035
-294.691	-200.000	0.043	0.268
-293.676	-65.296	-0.003	0.001
-292.662	50.880	0.091	0.085
-291.647	800.000	0.066	0.243
-290.632	239.733	-0.084	0.138
-289.618	-65.200	0.274	-0.109
-288.603	-129.783	-0.107	0.014
-287.589	90.969	0.110	0.121
-286.574	-33.740	0.238	0.129
-285.559	-47.121	-0.078	0.037
-284.545	148.316	-0.139	-0.184
-283.530	3.399	-0.156	0.112
-282.516	800.000	-0.076	0.302
-281.501	76.146	-0.062	-0.065
-280.486	99.346	-0.304	0.345
-279.472	-59.529	-0.192	-0.081
-278.457	-121.457	-0.248	-0.040
-277.443	-47.119	0.225	-0.108
-276.428	19.546	0.151	0.119
-275.413	-106.309	0.266	0.059
-274.399	255.773	0.113	-0.190
-273.384	5.662	-0.178	-0.129
-272.370	-200.000	0.002	-0.354
-271.355	-95.132	-0.186	0.049
-270.340	30.509	0.047	0.040
-269.326	-200.000	-0.043	-0.411
-268.311	-35.562	-0.143	-0.076
-267.297	-200.000	0.025	0.131
-266.282	-98.161	0.239	0.060
-265.267	-148.262	-0.210	0.017
-264.253	417.966	0.113	0.238
-263.238	107.467	0.052	0.061
-262.224	-200.000	-0.015	-0.413
-261.209	-139.946	-0.135	-0.014
-260.195	265.605	0.077	0.132
-259.180	800.000	0.055	-0.164
-258.165	-112.081	0.202	0.040
-257.151	-158.203	0.040	-0.002
-256.136	-185.846	0.306	0.004
-255.122	461.675	0.127	-0.278
-254.107	-200.000	0.013	-0.129
-253.092	-200.000	-0.035	0.168
-252.078	800.000	0.059	0.242
-251.063	-54.303	-0.037	0.017
-250.049	75.874	0.295	-0.306
-249.034	60.105	0.120	-0.117
-248.019	133.227	-0.381	0.484
-247.005	-30.943	0.130	-0.072
-245.990	800.000	0.044	0.122
-244.976	800.000	0.094	-0.388
-243.961	-200.000	0.052	-0.442
-242.946	-140.422	-0.156	-0.016
-241.932	19.474	-0.368	0.290
-240.917	-117.601	-0.164	0.029
-239.903	140.443	-0.105	-0.136
-238.888	249.038	-0.132	0.219
-237.873	489.731	0.014	-0.030
-236.859	56.103	0.078	-0.074
-235.844	-62.600	0.198	-0.081
-234.830	160.984	0.174	-0.238
-233.815	-163.853	0.256	0.012
-232.800	332.729	-0.049	-0.093
-231.786	-105.805	0.458	0.101
-230.771	40.085	0.154	-0.136
-229.757	-74.954	0.243	0.085
-228.742	410.729	-0.052	-0.109
-227.727	-51.337	0.043	0.020
-226.713	31.194	0.258	0.217
-225.698	-56.141	-0.312	0.136
-224.684	-113.491	0.440	0.085
-223.669	-11.891	0.091	-0.058
-222.655	38.552	-0.026	0.023
-221.640	-200.000	-0.011	0.257
-220.625	-200.000	0.005	-0.166
-219.611	-200.000	0.025	0.191
-218.596	15.665	0.267	0.206
-217.582	-1.249	-0.183	0.127
-216.567	428.574	0.242	-0.512
-215.552	24.713	-0.102	-0.083
-214.538	73.204	-0.123	-0.126
-213.523	22.376	-0.140	-0.112
-212.509	118.727	0.161	-0.195
-211.494	-133.449	-0.331	-0.041
-210.479	-39.568	-0.137	0.070
-209.465	-132.892	-0.296	0.037
-208.450	637.452	0.041	-0.102
-207.436	232.764	0.181	-0.292
-206.421	-200.000	-0.024	0.293
-205.406	-47.165	0.641	-0.306
-204.392	93.374	0.181	-0.201
-203.377	-120.332	-0.447	0.075
-202.363	2.393	0.191	0.135
-201.348	78.110	-0.213	-0.222
-200.333	-80.746	0.237	0.077
-199.319	-1.795	-0.046	0.032
-198.304	-89.379	-0.206	0.059
-197.290	72.263	0.141	-0.144
-196.275	-49.297	0.208	-0.097
-195.260	60.775	0.178	-0.173
-194.246	106.847	-0.219	0.254
-193.231	-44.377	-0.081	0.040
-192.217	127.385	-0.118	-0.146
-191.202	51.027	-0.081	-0.075
-190.187	-5.501	-0.193	-0.130
-189.173	-141.959	-0.490	-0.048
-188.158	36.822	0.303	-0.262
-187.144	267.373	0.050	0.086
-186.129	-91.937	-0.114	-0.032
-185.114	-4.131	-0.098	0.067
-184.100	-93.817	0.222	0.060
-183.085	800.000	-0.079	-0.240
-182.071	374.842	-0.134	-0.267
-181.056	800.000	0.082	-0.300
-180.042	-200.000	-0.034	0.218
-179.027	-33.033	-0.130	0.071
-178.012	-200.000	-0.010	0.085
-176.998	343.946	0.059	-0.112
-175.983	-200.000	-0.015	-0.115
-174.969	800.000	-0.040	0.159
-173.954	71.352	0.104	0.106
-172.939	-200.000	-0.003	0.090
-171.925	-200.000	0.046	0.287
-170.910	263.277	-0.101	0.172
-169.896	481.002	0.014	0.031
-168.881	-79.203	0.105	-0.035
-167.866	48.590	-0.147	-0.135
-166.852	462.288	0.135	-0.295
-165.837	193.283	0.199	0.294
-164.823	-109.488	-0.521	-0.108
-163.808	135.071	-0.213	0.271
-162.793	179.896	-0.152	0.218
-161.779	40.033	0.164	0.145
-160.764	-200.000	0.019	0.101
-159.750	18.210	-0.198	-0.154
-158.735	-200.000	0.097	0.586
-157.720	734.704	-0.062	-0.163
-156.706	51.284	0.207	-0.192
-155.691	373.076	-0.229	0.456
-154.677	800.000	-0.005	-0.016
-153.662	81.486	0.201	-0.213
-152.647	-3.801	0.256	-0.174
-151.633	800.000	0.108	-0.432
-150.618	-14.819	-0.145	-0.091
-149.604	-76.363	-0.214	0.074
-148.589	132.385	-0.111	0.140
-147.574	204.390	-0.144	0.218
-146.560	106.096	-0.337	0.390
-145.545	18.162	0.355	0.277
-144.531	-14.932	-0.147	-0.092
-143.516	19.112	-0.326	0.255
-142.502	-200.000	0.017	-0.214
-141.487	-86.819	-0.128	0.038
-140.472	164.640	0.027	0.037
-139.458	-200.000	0.022	0.107
-138.443	318.803	0.138	0.256
-137.429	-200.000	0.101	0.485
-136.414	-1.648	0.246	-0.169
-135.399	-80.181	0.368	-0.120
-134.385	-6.594	0.314	0.209
-133.370	33.963	0.080	0.068
-132.356	800.000	0.093	0.267
-131.341	-86.656	-0.290	0.087
-130.326	-62.882	-0.225	0.091
-129.312	-34.264	0.165	0.088
-128.297	106.587	0.135	-0.156
-127.283	236.515	0.045	0.074
-126.268	-74.844	0.101	0.036
-125.253	78.531	-0.145	-0.151
-124.239	267.510	0.077	0.132
-123.224	63.417	0.265	0.260
-122.210	-97.594	0.338	0.086
-121.195	-46.290	0.288	0.138
-120.180	-200.000	-0.008	0.274
-119.166	-200.000	-0.008	0.296
-118.151	-190.395	0.296	0.003
-117.137	158.580	-0.090	-0.123
-116.122	-200.000	0.062	0.296
-115.107	211.449	-0.180	-0.276
-114.093	-30.209	0.034	-0.019
-113.078	190.016	-0.069	-0.100
-112.064	430.858	0.095	-0.201
-111.049	132.209	-0.128	-0.161
-110.034	-109.144	0.260	-0.054
-109.020	800.000	-0.027	-0.109
-108.005	344.778	0.112	0.215
-106.991	-77.123	-0.177	-0.060
-105.976	-35.738	-0.107	-0.057
-104.962	-121.569	0.204	-0.033
-103.947	-101.522	-0.159	0.038
-102.932	94.766	0.136	0.151
-101.918	-90.882	-0.176	-0.050
-100.903	-102.403	0.036	-0.008
-99.889	620.881	-0.028	0.070
-98.874	-177.519	-0.221	0.005
-97.859	434.851	0.078	0.165
-96.845	105.283	-0.217	-0.250
-95.830	-200.000	-0.005	-0.044
-94.816	120.747	0.124	-0.150
-93.801	63.650	-0.403	-0.395
-92.786	-160.317	0.368	0.019
-91.772	-196.780	0.203	-0.001
-90.757	38.448	0.247	0.215
-89.743	140.706	0.095	0.123
-88.728	24.427	-0.165	-0.133
-87.713	611.244	0.103	0.252
-86.699	-59.938	0.248	0.103
-85.684	-134.874	0.164	0.019
-84.670	-200.000	-0.080	0.364
-83.655	319.964	0.051	0.095
-82.640	-17.342	0.057	0.035
-81.626	-105.485	0.226	-0.050
-80.611	199.098	0.070	-0.104
-79.597	309.815	0.063	-0.115
-78.582	-147.578	-0.312	0.026
-77.567	66.913	0.302	0.300
-76.553	-35.225	0.057	-0.030
-75.538	800.000	-0.033	0.123
-74.524	-75.894	0.253	-0.087
-73.509	59.822	0.236	-0.227
-72.494	-74.596	0.126	-0.044
-71.480	125.897	0.150	0.185
-70.465	83.688	-0.197	0.209
-69.451	-88.767	0.142	-0.041
-68.436	92.356	-0.089	0.097
-67.422	84.800	0.120	0.128
-66.407	-200.000	-0.016	-0.131
-65.392	244.386	-0.138	0.225
-64.378	474.601	0.188	-0.414
-63.363	-200.000	-0.114	-0.526
-62.349	83.476	-0.155	0.165
-61.334	7.928	-1.580	-1.155
-60.319	173.400	0.766	1.076
-59.305	699.508	-0.443	-1.136
-58.290	772.885	0.517	1.373
-57.276	720.512	0.516	1.336
-56.261	-200.000	133.805	688.371
-55.246	356.218	1662.967	3226.990
-54.232	134.265	2800.740	3536.937
-53.217	91.867	2166.943	2375.443
-52.203	33.474	1595.523	1350.042
-51.188	25.109	1342.630	1085.609
-50.173	23.055	1305.028	1043.060
-49.159	50.687	1379.074	1271.563
-48.144	47.037	1388.575	1258.103
-47.130	25.364	1335.125	1080.904
-46.115	22.290	1315.777	1046.932
-45.100	21.902	1310.775	1040.606
-44.086	21.979	1307.654	1038.544
-43.071	21.844	1306.041	1036.427
-42.057	21.779	1304.092	1034.452
-41.042	21.854	1302.356	1033.480
-40.027	21.847	1300.878	1032.223
-39.013	21.928	1298.810	1031.016
-37.998	21.837	1297.464	1029.371
-36.984	21.909	1295.601	1028.276
-35.969	22.087	1293.582	1027.673
-34.954	21.962	1292.097	1025.725
-33.940	21.957	1290.805	1024.629
-32.925	22.071	1289.437	1024.166
-31.911	22.076	1287.578	1022.679
-30.896	22.047	1286.924	1021.950
-29.881	22.093	1285.713	1021.217
-28.867	22.109	1283.870	1019.805
-27.852	22.098	1282.813	1018.857
-26.838	22.139	1281.433	1017.957
-25.823	22.193	1279.965	1017.068
-24.809	22.030	1278.997	1015.317
-23.794	22.047	1277.583	1014.250
-22.779	22.075	1276.353	1013.391
-21.765	22.153	1274.816	1012.585
-20.750	22.107	1273.477	1011.213
-19.736	22.073	1272.221	1009.984
-18.721	21.949	1271.359	1008.542
-17.706	21.922	1269.910	1007.198
-16.692	21.965	1268.904	1006.609
-15.677	21.917	1267.850	1005.460
-14.663	21.930	1266.824	1004.677
-13.648	21.971	1265.561	1003.874
-12.633	21.964	1264.530	1002.975
-11.619	21.958	1263.834	1002.349
-10.604	22.049	1262.818	1002.019
-9.590	21.956	1262.028	1000.827
-8.575	21.937	1261.216	1000.036
-7.560	21.874	1260.649	999.185
-6.546	21.934	1259.845	998.852
-5.531	21.909	1258.981	997.981
-4.517	22.012	1257.753	997.553
-3.502	21.919	1256.897	996.310
-2.487	21.886	1256.443	995.724
-1.473	21.808	1252.048	991.756
-0.458	20.172	1236.749	970.451
0.556	15.720	1221.130	933.058
1.571	11.985	1229.351	918.362
2.586	11.246	1245.159	925.889
3.600	11.373	1232.677	917.242
4.615	8.535	1161.611	849.230
5.629	3.272	1092.123	772.023
6.644	0.963	1075.831	749.026
7.659	0.642	1074.497	746.445
8.673	0.651	1072.967	745.363
9.688	0.655	1071.945	744.609
10.702	0.908	1069.514	744.097
11.717	4.000	1073.153	761.796
12.731	10.533	1081.764	800.164
13.746	15.679	1088.516	830.573
14.761	17.216	1090.204	839.384
15.775	16.733	1087.821	835.093
16.790	15.606	1085.974	828.054
17.804	14.966	1084.482	823.690
18.819	14.640	1083.823	821.513
19.834	14.417	1082.541	819.373
20.848	14.136	1082.017	817.523
21.863	13.811	1081.332	815.338
22.877	13.824	1079.764	814.144
23.892	13.797	1079.475	813.723
24.907	13.750	1078.577	812.741
25.921	13.817	1077.873	812.471
26.936	13.784	1076.881	811.487
27.950	13.812	1076.154	811.004
28.965	13.933	1074.312	810.137
29.980	13.995	1073.073	809.430
30.994	14.006	1072.022	808.620
32.009	13.911	1072.008	808.079
33.023	14.018	1070.633	807.488
34.038	13.888	1069.769	806.136
35.053	13.947	1069.067	805.818
36.067	13.808	1068.236	804.446
37.082	13.827	1067.488	803.906
38.096	13.928	1066.514	803.591
39.111	13.951	1065.866	803.144
40.126	13.842	1064.602	801.593
41.140	13.790	1063.102	800.141
42.155	13.808	1061.850	799.214
43.169	13.753	1061.285	798.454
44.184	13.804	1060.126	797.755
45.199	13.756	1059.066	796.659
46.213	13.729	1058.152	795.770
47.228	13.786	1057.210	795.263
48.242	13.746	1056.012	794.101
49.257	13.840	1054.968	793.697
50.271	13.910	1053.994	793.226
51.286	13.800	1053.261	792.082
52.301	13.916	1052.069	791.668
53.315	13.859	1050.891	790.439
54.330	13.828	1050.503	789.929
55.344	13.774	1049.461	788.822
56.359	13.729	1048.708	787.972
57.374	13.751	1047.870	787.376
58.388	13.670	1046.882	786.180
59.403	13.639	1046.277	785.509
60.417	13.744	1045.221	785.143
61.432	13.630	1044.494	783.988
62.447	13.718	1043.951	783.929
63.461	13.686	1042.639	782.724
64.476	13.625	1041.891	781.805
65.490	13.592	1041.183	781.047
66.505	13.592	1040.521	780.480
67.520	13.692	1039.190	779.885
68.534	13.694	1038.839	779.561
69.549	13.715	1038.171	779.088
70.563	13.648	1037.246	778.012
71.578	13.717	1036.499	777.705
72.593	13.575	1035.636	776.323
73.607	13.651	1034.455	775.729
74.622	13.672	1034.309	775.646
75.636	13.599	1033.658	774.750
76.651	13.617	1032.721	774.062
77.666	13.662	1031.807	773.517
78.680	13.635	1031.672	773.224
79.695	13.680	1031.165	772.987
80.709	13.724	1030.221	772.414
81.724	13.785	1029.406	772.019
82.739	13.843	1029.020	771.930
83.753	13.898	1028.130	771.451
84.768	13.825	1027.153	770.308
85.782	13.901	1025.918	769.667
86.797	13.930	1025.052	769.081
87.812	13.807	1024.397	767.956
88.826	13.759	1023.264	766.815
89.841	13.872	1022.381	766.607
90.855	13.796	1021.603	765.608
91.870	13.962	1020.560	765.524
92.884	13.916	1020.017	764.834
93.899	13.974	1019.363	764.543
94.914	13.837	1018.300	763.050
95.928	14.021	1016.732	762.649
96.943	13.840	1016.576	761.636
97.957	13.862	1015.839	761.118
98.972	13.875	1014.839	760.361
99.987	13.948	1013.918	759.936
101.001	13.868	1013.010	758.824
102.016	14.012	1011.792	758.500
103.030	13.898	1011.588	757.761
104.045	13.898	1010.463	756.851
105.060	13.939	1009.613	756.334
106.074	13.731	1009.101	754.936
107.089	13.831	1007.670	754.257
108.103	13.802	1006.672	753.311
109.118	13.785	1005.764	752.486
110.133	13.852	1004.884	752.063
111.147	13.759	1004.245	751.097
112.162	13.735	1003.582	750.428
113.176	13.876	1002.328	750.062
114.191	13.951	1001.649	749.826
115.206	13.908	1000.592	748.775
116.220	13.789	1000.233	747.900
117.235	13.851	999.346	747.450
118.249	13.853	998.372	746.666
119.264	13.856	997.867	746.237
120.279	13.844	996.921	745.407
121.293	13.760	996.362	744.549
122.308	13.695	995.590	743.614
123.322	13.817	994.184	743.042
124.337	13.789	993.291	742.187
125.352	13.745	992.116	741.044
126.366	13.952	990.667	740.822
127.381	13.843	989.557	739.440
128.395	13.825	988.890	738.794
129.410	13.834	988.092	738.173
130.424	13.897	987.402	737.874
131.439	13.850	986.401	736.853
132.454	13.986	985.282	736.553
133.468	13.734	985.135	735.262
134.483	13.770	984.378	734.791
135.497	14.006	982.606	734.448
136.512	13.949	981.898	733.602
137.527	13.900	981.374	732.929
138.541	13.892	980.875	732.453
139.556	13.902	979.992	731.776
140.570	14.096	978.686	731.587
141.585	14.077	978.325	731.169
142.600	14.002	977.219	729.950
143.614	14.205	976.473	730.218
144.629	14.086	975.618	728.994
145.643	14.116	974.742	728.404
146.658	14.138	973.612	727.591
147.673	14.051	972.770	726.520
148.687	14.018	972.012	725.745
149.702	13.994	971.173	724.948
150.716	14.034	970.347	724.443
151.731	13.994	969.860	723.840
152.746	14.068	969.120	723.547
153.760	14.122	968.626	723.347
154.775	14.109	967.888	722.677
155.789	14.190	967.056	722.345
156.804	14.131	966.667	721.731
157.819	14.367	965.330	721.695
158.833	14.281	965.149	721.124
159.848	14.179	964.621	720.223
160.862	14.115	963.550	719.081
161.877	14.152	962.584	718.457
162.892	14.067	961.419	717.156
163.906	14.062	960.784	716.600
164.921	14.070	960.183	716.120
165.935	14.200	959.238	715.913
166.950	14.241	957.665	714.853
167.964	14.191	957.209	714.233
168.979	14.115	956.480	713.300
169.994	14.161	955.295	712.550
171.008	14.219	954.310	711.998
172.023	14.208	953.924	711.601
173.037	14.465	952.463	711.544
174.052	14.163	952.532	710.246
175.067	14.305	951.750	710.208
176.081	14.254	951.034	709.393
177.096	14.200	950.772	708.903
178.110	14.237	950.320	708.660
179.125	14.313	949.395	708.231
180.140	14.342	948.689	707.767
181.154	14.416	947.937	707.454
182.169	14.417	947.636	707.174
183.183	14.357	947.291	706.597
184.198	14.556	946.123	706.506
185.213	14.492	945.692	705.852
186.227	14.501	944.823	705.179
187.242	14.518	944.507	704.953
188.256	14.560	943.568	704.366
189.271	14.550	942.940	703.796
190.286	14.492	942.179	702.920
191.300	14.490	941.317	702.207
192.315	14.500	940.818	701.811
193.329	14.447	940.415	701.228
194.344	14.548	939.417	700.845
195.359	14.560	938.477	700.133
196.373	14.461	938.895	699.968
197.388	14.668	938.007	700.110
198.402	14.675	937.089	699.392
199.417	14.637	936.624	698.827
200.432	14.666	936.261	698.613
201.446	14.767	935.511	698.413
202.461	14.752	935.139	698.012
203.475	14.768	934.577	697.598
204.490	14.762	933.704	696.859
205.504	14.685	932.745	695.762
206.519	14.641	932.321	695.199
207.534	14.692	931.621	694.828
208.548	14.719	931.019	694.432
209.563	14.943	930.062	694.587
210.577	14.730	929.371	693.125
211.592	14.764	928.926	692.873
212.607	14.861	927.934	692.472
213.621	14.959	927.210	692.277
214.636	14.898	926.799	691.655
215.650	14.857	925.861	690.728
216.665	14.917	925.460	690.615
217.680	15.027	924.487	690.281
218.694	14.874	924.099	689.299
219.709	14.849	923.576	688.745
220.723	15.015	922.422	688.506
221.738	15.061	921.595	688.017
222.753	14.938	921.045	687.039
223.767	15.123	920.539	687.361
224.782	15.042	920.150	686.679
225.796	15.065	919.370	686.128
226.811	15.026	918.596	685.330
227.826	15.081	917.670	684.806
228.840	15.018	917.476	684.343
229.855	15.146	916.227	683.872
230.869	15.161	915.351	683.218
231.884	15.117	915.114	682.801
232.899	14.976	914.871	681.988
233.913	15.115	913.573	681.524
234.928	14.996	913.264	680.750
235.942	15.081	912.561	680.508
236.957	15.059	911.915	679.879
237.972	15.074	911.470	679.548
238.986	14.910	911.053	678.511
240.001	15.088	909.993	678.383
241.015	15.169	909.117	677.998
242.030	15.155	908.719	677.583
243.045	15.323	907.777	677.502
244.059	15.165	907.611	676.679
245.074	15.141	906.839	675.947
246.088	15.431	906.001	676.429
247.103	15.334	905.640	675.710
248.117	15.384	904.732	675.174
249.132	15.477	904.217	675.105
250.147	15.491	903.340	674.448
251.161	15.410	902.921	673.748
252.176	15.405	902.210	673.139
253.190	15.563	901.761	673.378
254.205	15.700	901.031	673.321
255.220	15.605	900.586	672.551
256.234	15.496	900.021	671.631
257.249	15.625	898.835	671.201
258.263	15.591	898.404	670.684
259.278	15.576	897.712	670.048
260.293	15.735	896.937	670.045
261.307	15.635	896.437	669.213
262.322	15.693	895.791	668.904
263.336	15.693	895.150	668.366
264.351	15.747	894.694	668.181
265.366	15.821	893.722	667.690
266.380	15.827	893.222	667.280
267.395	15.677	892.580	666.149
268.409	15.700	891.861	665.645
269.424	15.875	890.571	665.314
270.439	15.844	890.013	664.717
271.453	15.858	889.691	664.471
272.468	15.725	889.596	663.815
273.482	15.949	888.376	663.730
274.497	15.714	887.874	662.372
275.512	15.878	887.235	662.480
276.526	15.908	886.821	662.230
277.541	15.984	886.119	661.946
278.555	16.011	885.877	661.813
279.570	16.017	884.958	661.093
280.585	16.125	884.307	660.972
281.599	15.978	883.654	659.847
282.614	16.037	882.774	659.364
283.628	16.177	882.200	659.422
284.643	15.987	881.795	658.321
285.657	16.010	881.018	657.771
286.672	16.106	880.391	657.621
287.687	16.054	880.001	657.069
288.701	16.183	879.062	656.812
289.716	16.072	878.600	655.975
290.730	16.116	878.008	655.647
291.745	16.149	877.512	655.346
292.760	16.224	876.368	654.723
293.774	16.156	876.334	654.379
294.789	16.179	875.615	653.874
295.803	16.155	874.761	653.082
296.818	16.213	874.238	652.861
297.833	16.275	873.500	652.490
298.847	16.271	872.939	651.998
299.862	16.261	872.308	651.432
300.876	16.314	871.908	651.279
301.891	16.327	871.445	650.927
302.906	16.298	870.688	650.192
303.920	16.387	869.917	649.900
304.935	16.506	869.410	649.923
305.949	16.421	868.941	649.185
306.964	16.508	867.913	648.693
307.979	16.561	867.609	648.615
308.993	16.417	867.178	647.684
310.008	16.420	866.614	647.214
311.022	16.518	865.813	646.936
312.037	16.543	865.087	646.429
313.052	16.527	864.803	646.099
314.066	16.313	864.319	644.864
315.081	16.380	863.906	644.754
316.095	16.487	862.621	644.147
317.110	16.473	862.514	643.958
318.125	16.516	861.772	643.509
319.139	16.480	861.120	642.829
320.154	16.551	860.925	642.895
321.168	16.580	860.131	642.354
322.183	16.544	859.465	641.664
323.197	16.577	859.257	641.576
324.212	16.643	858.739	641.386
325.227	16.640	857.838	640.642
326.241	16.713	857.018	640.251
327.256	16.546	857.226	639.717
328.270	16.565	856.458	639.158
329.285	16.603	855.855	638.795
330.300	16.673	855.343	638.621
331.314	16.690	854.526	638.018
332.329	16.685	854.311	637.784
333.343	16.728	853.785	637.498
334.358	16.740	853.447	637.233
335.373	16.860	852.836	637.170
336.387	16.833	852.657	636.881
337.402	16.795	852.345	636.448
338.416	16.854	851.768	636.183
339.431	16.955	851.386	636.221
340.446	16.930	850.669	635.531
341.460	16.886	850.823	635.427
342.475	16.922	849.965	634.865
343.489	16.942	849.400	634.464
344.504	17.077	849.094	634.680
345.519	17.093	848.558	634.286
346.533	17.148	847.825	633.886
347.548	16.986	847.706	633.138
348.562	17.028	847.223	632.876
349.577	16.985	846.472	632.099
350.592	17.010	845.643	631.517
351.606	16.961	845.397	631.096
352.621	16.943	844.640	630.407
353.635	17.019	844.140	630.261
354.650	17.035	843.721	629.950
355.665	17.021	842.793	629.150
356.679	17.033	841.905	628.478
357.694	17.079	841.439	628.243
358.708	17.268	840.827	628.431
359.723	17.127	840.073	627.292
360.738	17.091	839.601	626.751
361.752	17.075	839.317	626.424
362.767	17.185	838.078	625.849
363.781	17.176	837.912	625.633
364.796	17.217	837.643	625.531
365.810	17.380	837.145	625.701
366.825	17.463	836.245	625.280
367.840	17.290	836.273	624.608
368.854	17.305	835.958	624.374
369.869	17.343	835.204	623.895
370.883	17.357	834.912	623.672
371.898	17.361	834.578	623.382
372.913	17.532	834.072	623.577
373.927	17.585	833.209	623.069
374.942	17.530	833.101	622.733
375.956	17.414	832.819	622.042
376.971	17.553	831.950	621.846
377.986	17.683	831.347	621.816
379.000	17.687	831.255	621.706
380.015	17.502	830.803	620.637
381.029	17.522	830.374	620.337
382.044	17.628	829.564	620.062
383.059	17.735	828.783	619.813
384.073	17.562	828.630	619.012
385.088	17.647	827.937	618.751
386.102	17.678	827.163	618.230
387.117	17.553	826.685	617.363
388.132	17.687	826.008	617.289
389.146	17.611	825.678	616.713
390.161	17.764	825.325	616.947
391.175	17.652	825.027	616.264
392.190	17.793	824.119	616.041
393.205	17.761	823.904	615.711
394.219	17.728	823.534	615.260
395.234	17.623	823.043	614.461
396.248	17.793	822.503	614.617
397.263	17.691	822.143	613.924
398.278	17.704	821.932	613.761
399.292	17.713	821.474	613.397
400.307	17.783	820.990	613.233
401.321	17.802	820.495	612.878
402.336	17.816	819.848	612.388
403.350	17.735	819.710	611.941
404.365	17.798	819.112	611.666
405.380	17.970	818.167	611.522
406.394	18.029	817.230	610.979
407.409	17.996	817.229	610.806
408.423	17.925	816.971	610.305
409.438	17.994	816.634	610.246
410.453	18.006	816.335	610.013
411.467	17.940	815.884	609.384
412.482	17.946	815.752	609.253
413.496	18.199	814.985	609.528
414.511	18.190	814.673	609.210
415.526	18.252	814.472	609.225
416.540	18.131	813.745	608.200
417.555	18.219	813.072	607.955
418.569	18.276	812.825	607.920
419.584	18.307	812.341	607.613
420.599	18.176	812.297	607.059
421.613	115.851	1300.096	1490.035
422.628	100.323	1371.094	1490.106
