DTS Sentinel unit serial number:	SN413079Multiplexer serial number:	ORYXHardware model number:	OX4-SRSoftware version number:	ORYX F/W v4.00 Oryx Data Collector v3.7.2.0data status	okinstallation	princeton_trtdifferential loss correction	single-endedforward channel	channel 1reverse channel	N/Adate	2019/09/19time	04:10:35forward acquisition time	60.00reverse acquisition time	0.00gamma	496.2192k internal	0.2343k external	0.2343temperature offset calibration	1.0014default loss term (dB/km)	0.3790temperature slope calibration	1.0000multiplexer offset coefficient	1.0000multiplexer slope coefficient	1.0000fibre end	0.00T internal ref (°C)	20.37T ext. ref 1 (°C)	0.63T ext. ref 2 (°C)	13.80length (m)	temperature (°C)	Stokes	anti-Stokes-747.200	-200.000	0.046	0.315
-746.185	-83.347	0.062	0.020
-745.171	-64.143	-0.049	-0.020
-744.156	170.664	0.150	0.214
-743.142	-20.302	-0.080	-0.049
-742.127	342.750	-0.027	0.052
-741.112	471.301	0.055	0.124
-740.098	-72.995	-0.261	0.096
-739.083	-200.000	-0.001	0.079
-738.069	-200.000	-0.043	0.657
-737.054	107.769	-0.139	0.165
-736.039	27.363	0.100	0.084
-735.025	468.592	0.139	0.313
-734.010	-200.000	-0.019	0.117
-732.996	-24.145	0.202	-0.121
-731.981	-200.000	0.031	-0.153
-730.966	560.999	-0.109	-0.264
-729.952	-200.000	0.009	-0.258
-728.937	283.921	0.207	-0.373
-727.923	-75.731	-0.206	0.073
-726.908	-49.244	-0.155	0.074
-725.894	-120.658	-0.244	-0.041
-724.879	71.786	-0.124	-0.129
-723.864	-19.983	-0.207	0.128
-722.850	-21.509	-0.316	-0.193
-721.835	-102.068	0.291	-0.070
-720.821	-55.564	-0.366	0.164
-719.806	-68.085	-0.266	0.104
-718.791	-52.630	-0.177	0.082
-717.777	442.843	-0.130	-0.285
-716.762	70.525	-0.124	-0.128
-715.748	-118.867	-0.332	0.058
-714.733	101.828	0.072	0.084
-713.718	167.187	-0.093	0.132
-712.704	-4.543	-0.114	-0.079
-711.689	-123.074	-0.356	0.057
-710.675	58.336	0.122	-0.120
-709.660	-200.000	-0.011	0.071
-708.645	-92.990	-0.112	-0.031
-707.631	-142.836	-0.110	-0.011
-706.616	256.185	-0.075	0.129
-705.602	-25.058	-0.328	-0.195
-704.587	-110.423	-0.194	-0.040
-703.572	-2.757	-0.211	0.148
-702.558	19.471	-0.165	0.133
-701.543	-132.969	0.425	-0.054
-700.529	-200.000	-0.014	0.237
-699.514	-133.046	0.293	0.037
-698.499	-200.000	-0.027	0.135
-697.485	-18.310	-0.196	0.122
-696.470	-163.913	-0.266	0.012
-695.456	207.422	-0.082	-0.128
-694.441	-15.564	-0.055	0.035
-693.426	30.247	-0.076	-0.065
-692.412	314.047	0.026	0.049
-691.397	-20.935	-0.311	-0.190
-690.383	800.000	0.077	-0.253
-689.368	75.576	0.048	0.051
-688.354	-39.852	-0.265	0.138
-687.339	97.522	-0.189	-0.216
-686.324	81.013	0.167	-0.180
-685.310	-142.296	-0.556	-0.055
-684.295	-50.397	-0.131	0.062
-683.281	123.277	0.142	0.178
-682.266	-132.206	-0.125	-0.016
-681.251	-200.000	-0.002	-0.022
-680.237	361.224	-0.079	-0.158
-679.222	-113.130	0.144	-0.028
-678.208	130.273	-0.164	0.210
-677.193	67.282	0.276	-0.282
-676.178	-43.272	0.298	-0.150
-675.164	41.476	-0.133	-0.120
-674.149	80.995	0.113	0.122
-673.135	-138.074	-0.220	-0.024
-672.120	-36.937	-0.248	-0.133
-671.105	-93.715	0.164	-0.045
-670.091	208.433	-0.257	-0.401
-669.076	546.400	0.093	-0.221
-668.062	-200.000	-0.054	0.320
-667.047	-103.505	-0.220	0.052
-666.032	-71.058	0.240	0.090
-665.018	-119.429	-0.057	0.010
-664.003	56.215	0.062	-0.061
-662.989	192.323	-0.177	-0.266
-661.974	18.514	0.084	0.067
-660.959	216.548	-0.104	-0.165
-659.945	-78.051	-0.141	0.049
-658.930	800.000	-0.043	-0.177
-657.916	-121.864	-0.372	-0.061
-656.901	-26.936	-0.232	0.135
-655.886	8.539	0.099	0.075
-654.872	483.426	-0.143	-0.325
-653.857	100.209	0.263	0.304
-652.843	-1.111	0.261	-0.184
-651.828	-200.000	0.019	0.303
-650.814	0.489	0.111	0.079
-649.799	-106.525	-0.129	-0.029
-648.784	88.806	-0.143	0.159
-647.770	5.714	0.162	-0.119
-646.755	-106.186	-0.243	-0.054
-645.741	-67.800	-0.236	0.092
-644.726	-91.999	0.392	-0.111
-643.711	78.358	0.082	-0.088
-642.697	-93.223	-0.203	-0.056
-641.682	-143.733	-0.407	-0.038
-640.668	-200.000	-0.018	-0.108
-639.653	-200.000	0.052	-0.309
-638.638	14.228	-0.222	-0.172
-637.624	-200.000	-0.012	0.346
-636.609	800.000	-0.097	-0.377
-635.595	-200.000	0.055	0.323
-634.580	331.531	0.108	0.208
-633.565	145.239	0.013	0.017
-632.551	-61.868	-0.257	0.107
-631.536	-114.920	0.297	0.056
-630.522	513.784	0.105	0.245
-629.507	344.637	0.041	-0.081
-628.492	-200.000	-0.010	-0.062
-627.478	-200.000	-0.025	-0.127
-626.463	-200.000	-0.039	-0.257
-625.449	55.102	0.314	-0.302
-624.434	370.616	-0.064	0.129
-623.419	153.937	0.102	-0.139
-622.405	-200.000	-0.046	0.286
-621.390	25.224	-0.181	0.150
-620.376	-42.078	-0.120	-0.061
-619.361	-200.000	-0.065	-0.476
-618.346	16.489	-0.168	0.132
-617.332	-136.144	0.247	0.029
-616.317	-200.000	-0.001	-0.010
-615.303	109.039	-0.155	0.185
-614.288	-200.000	-0.004	0.121
-613.273	-85.633	-0.280	0.087
-612.259	56.511	0.143	-0.139
-611.244	162.376	-0.123	-0.172
-610.230	-58.242	-0.244	-0.106
-609.215	-155.014	0.158	-0.010
-608.201	177.720	0.173	-0.251
-607.186	96.543	0.255	-0.291
-606.171	-94.265	-0.265	-0.072
-605.157	-73.217	0.241	-0.088
-604.142	800.000	0.054	0.167
-603.128	-44.385	-0.326	-0.163
-602.113	305.342	-0.167	0.309
-601.098	-199.277	-0.098	-0.001
-600.084	-200.000	0.005	0.126
-599.069	589.276	-0.187	-0.460
-598.055	-143.011	-0.156	-0.015
-597.040	-85.683	0.079	-0.025
-596.025	-159.519	-0.439	0.024
-595.011	800.000	0.058	-0.197
-593.996	641.049	-0.094	0.240
-592.982	-200.000	0.025	-0.215
-591.967	43.442	0.214	0.195
-590.952	-78.365	-0.237	0.081
-589.938	190.877	0.176	0.263
-588.923	201.519	-0.189	0.290
-587.909	110.540	0.203	0.243
-586.894	-4.034	-0.366	-0.252
-585.879	800.000	-0.032	0.136
-584.865	38.822	0.108	-0.096
-583.850	33.000	0.024	0.020
-582.836	-14.346	0.285	0.183
-581.821	-160.252	-0.306	-0.016
-580.806	-147.970	-0.107	0.009
-579.792	-133.508	0.131	-0.016
-578.777	251.439	-0.182	-0.308
-577.763	800.000	-0.073	-0.270
-576.748	-99.404	-0.130	-0.033
-575.733	-119.610	0.102	-0.018
-574.719	-200.000	-0.003	-0.147
-573.704	-25.033	0.099	-0.058
-572.690	-60.753	-0.222	0.093
-571.675	-9.323	0.177	-0.118
-570.661	177.580	-0.087	0.126
-569.646	-87.961	-0.134	-0.040
-568.631	33.466	0.132	0.114
-567.617	-175.425	0.159	-0.004
-566.602	-34.083	0.302	-0.165
-565.588	-151.635	-0.198	0.015
-564.573	562.690	-0.064	-0.154
-563.558	529.865	-0.125	-0.294
-562.544	125.444	0.044	0.055
-561.529	-168.669	-0.413	0.016
-560.515	163.809	-0.024	0.034
-559.500	663.261	0.058	0.148
-558.485	640.922	0.079	-0.201
-557.471	800.000	0.012	0.035
-556.456	131.525	-0.151	-0.194
-555.442	-195.820	0.144	0.001
-554.427	-101.599	0.292	0.071
-553.412	800.000	-0.081	0.266
-552.398	308.505	0.080	0.149
-551.383	595.308	0.086	-0.210
-550.369	-116.711	-0.109	0.020
-549.354	-200.000	-0.005	0.156
-548.339	-200.000	0.004	-0.052
-547.325	401.496	0.139	-0.289
-546.310	-81.736	-0.174	-0.057
-545.296	-200.000	0.025	-0.267
-544.281	-200.000	0.012	-0.156
-543.266	55.979	-0.277	0.267
-542.252	-28.773	-0.392	0.224
-541.237	-200.000	0.031	0.163
-540.223	-96.673	0.085	-0.022
-539.208	-23.665	0.297	-0.177
-538.193	9.509	0.301	-0.226
-537.179	54.021	-0.135	-0.129
-536.164	43.714	0.213	0.194
-535.150	30.251	-0.153	-0.130
-534.135	-148.627	-0.137	-0.011
-533.121	800.000	-0.032	-0.096
-532.106	355.527	-0.119	-0.235
-531.091	800.000	0.094	-0.329
-530.077	-158.069	0.161	0.009
-529.062	-200.000	-0.023	0.221
-528.048	-47.397	-0.134	-0.065
-527.033	-200.000	0.022	0.114
-526.018	525.029	-0.117	-0.274
-525.004	-137.408	-0.230	-0.026
-523.989	60.188	0.080	-0.078
-522.975	-61.049	-0.056	-0.023
-521.960	-200.000	-0.005	0.091
-520.945	-200.000	0.012	-0.089
-519.931	729.291	-0.030	-0.079
-518.916	-119.221	0.231	0.040
-517.902	44.073	-0.116	-0.105
-516.887	621.917	-0.088	-0.219
-515.872	22.363	0.151	0.123
-514.858	49.616	0.080	0.074
-513.843	271.017	-0.104	0.181
-512.829	-31.366	0.194	-0.108
-511.814	-200.000	0.048	0.281
-510.799	800.000	0.060	0.171
-509.785	48.822	0.290	-0.270
-508.770	569.593	-0.027	-0.066
-507.756	-200.000	0.015	-0.133
-506.741	328.508	-0.242	-0.462
-505.726	-5.604	0.039	0.027
-504.712	206.333	-0.122	-0.189
-503.697	-114.886	-0.506	0.096
-502.683	800.000	-0.077	-0.297
-501.668	0.598	-0.358	-0.254
-500.653	-33.226	-0.075	0.041
-499.639	53.152	-0.163	0.155
-498.624	-200.000	-0.028	0.177
-497.610	-118.484	-0.272	0.048
-496.595	734.873	-0.088	0.234
-495.581	800.000	0.081	-0.299
-494.566	317.220	0.142	0.267
-493.551	-33.572	-0.267	0.146
-492.537	800.000	0.074	-0.251
-491.522	0.127	0.107	-0.075
-490.508	55.070	-0.209	0.200
-489.493	-62.450	0.271	-0.112
-488.478	207.509	-0.082	-0.126
-487.464	-83.834	-0.310	0.098
-486.449	32.492	0.099	0.085
-485.435	-200.000	-0.005	0.276
-484.420	800.000	0.018	-0.072
-483.405	3.100	-0.159	-0.115
-482.391	327.077	0.133	-0.254
-481.376	102.303	-0.171	0.198
-480.362	-32.085	-0.238	0.132
-479.347	94.598	-0.149	0.167
-478.332	800.000	0.106	0.362
-477.318	-93.574	-0.292	0.080
-476.303	-200.000	0.051	0.352
-475.289	722.604	-0.121	0.320
-474.274	-200.000	-0.038	0.311
-473.259	11.612	-0.157	0.119
-472.245	-200.000	0.003	-0.145
-471.230	-154.858	0.248	0.016
-470.216	681.135	-0.033	-0.085
-469.201	-112.009	0.468	-0.093
-468.186	-200.000	-0.006	-0.246
-467.172	-70.093	0.107	-0.040
-466.157	-200.000	0.064	-0.299
-465.143	-200.000	-0.002	0.233
-464.128	-200.000	-0.030	0.168
-463.113	-164.879	0.269	0.012
-462.099	447.011	-0.032	-0.070
-461.084	193.984	0.058	0.087
-460.070	-19.470	0.110	0.068
-459.055	203.128	-0.105	0.161
-458.040	-200.000	-0.032	0.555
-457.026	90.960	0.238	0.264
-456.011	-48.086	-0.159	0.076
-454.997	230.031	0.058	0.094
-453.982	-200.000	0.024	0.303
-452.968	414.187	0.118	0.250
-451.953	-99.157	-0.185	-0.046
-450.938	113.038	0.101	-0.121
-449.924	-200.000	-0.020	-0.306
-448.909	78.441	-0.128	0.136
-447.895	-156.700	0.175	-0.011
-446.880	445.282	-0.111	0.241
-445.865	-113.459	0.119	0.023
-444.851	-30.862	-0.394	-0.220
-443.836	-200.000	0.013	0.065
-442.822	510.006	0.124	0.287
-441.807	218.186	-0.100	-0.158
-440.792	465.108	-0.062	-0.138
-439.778	-197.101	-0.162	0.001
-438.763	-49.723	0.141	-0.067
-437.749	-200.000	-0.066	0.361
-436.734	-96.696	-0.075	0.020
-435.719	484.164	-0.125	-0.282
-434.705	-200.000	-0.034	-0.283
-433.690	518.619	-0.066	0.152
-432.676	-141.962	-0.041	-0.004
-431.661	-200.000	0.175	0.000
-430.646	-200.000	-0.035	0.286
-429.632	-148.669	-0.131	-0.011
-428.617	9.396	-0.297	-0.222
-427.603	800.000	0.059	-0.198
-426.588	800.000	-0.019	-0.058
-425.573	-5.633	0.114	-0.077
-424.559	207.868	0.090	-0.139
-423.544	-120.875	0.383	-0.064
-422.530	407.309	-0.261	-0.546
-421.515	-95.302	0.067	-0.018
-420.500	800.000	0.089	0.272
-419.486	-200.000	-0.019	0.202
-418.471	300.534	-0.149	0.272
-417.457	-71.477	0.097	0.036
-416.442	224.319	0.064	0.102
-415.428	800.000	-0.110	-0.311
-414.413	-17.816	0.110	-0.068
-413.398	223.444	0.345	-0.551
-412.384	-75.533	0.090	-0.032
-411.369	-200.000	0.007	-0.346
-410.355	381.820	0.239	0.485
-409.340	-115.722	-0.406	0.075
-408.325	51.891	0.047	0.044
-407.311	40.017	-0.070	0.062
-406.296	104.000	-0.192	0.223
-405.282	-62.477	0.146	0.060
-404.267	800.000	-0.064	0.185
-403.252	231.133	-0.023	0.037
-402.238	-54.929	0.225	0.100
-401.223	236.170	0.178	-0.291
-400.209	-131.371	-0.237	0.031
-399.194	66.555	-0.092	0.093
-398.179	-157.051	-0.149	-0.009
-397.165	772.577	0.078	0.210
-396.150	102.097	-0.290	0.334
-395.136	305.435	-0.271	0.497
-394.121	587.395	0.052	0.125
-393.106	-145.930	0.152	0.013
-392.092	-147.037	0.401	0.034
-391.077	-144.123	-0.204	-0.019
-390.063	-200.000	-0.009	0.157
-389.048	268.420	0.122	-0.212
-388.033	-88.786	0.181	0.053
-387.019	58.547	-0.232	-0.225
-386.004	97.932	-0.247	-0.281
-384.990	646.435	-0.053	-0.133
-383.975	800.000	0.042	-0.119
-382.960	-200.000	-0.004	0.041
-381.946	-200.000	-0.012	-0.249
-380.931	-19.056	-0.167	-0.103
-379.917	-63.759	0.159	0.064
-378.902	-200.000	-0.012	-0.239
-377.888	577.151	-0.056	0.135
-376.873	-73.219	-0.162	-0.058
-375.858	177.905	-0.097	0.140
-374.844	-90.896	0.426	0.121
-373.829	79.235	0.095	-0.101
-372.815	-115.726	-0.022	0.004
-371.800	16.372	0.204	-0.159
-370.785	-121.511	0.315	0.052
-369.771	-116.982	-0.104	-0.019
-368.756	-200.000	-0.038	-0.175
-367.742	96.236	0.318	0.359
-366.727	-37.516	-0.166	-0.088
-365.712	180.741	-0.163	0.236
-364.698	-200.000	-0.040	0.234
-363.683	-78.848	-0.233	-0.078
-362.669	224.294	-0.097	0.154
-361.654	15.914	-0.157	-0.122
-360.639	242.941	0.182	-0.301
-359.625	-59.439	0.297	-0.126
-358.610	-200.000	0.023	-0.249
-357.596	97.347	-0.088	-0.100
-356.581	-191.362	-0.088	0.001
-355.566	-89.330	0.593	0.172
-354.552	-130.989	0.136	-0.018
-353.537	174.485	0.235	-0.336
-352.523	-122.348	0.315	-0.051
-351.508	-156.962	0.136	0.008
-350.493	800.000	-0.022	-0.086
-349.479	254.726	-0.101	-0.170
-348.464	-58.992	-0.184	-0.078
-347.450	-20.139	0.150	-0.091
-346.435	-200.000	-0.007	-0.044
-345.420	159.529	0.082	-0.112
-344.406	160.828	-0.130	-0.178
-343.391	-200.000	0.026	0.344
-342.377	203.082	0.140	0.214
-341.362	-77.422	0.051	-0.017
-340.348	16.979	0.166	-0.130
-339.333	-122.023	0.185	0.030
-338.318	-168.448	0.157	-0.006
-337.304	-200.000	-0.042	-0.297
-336.289	-62.288	0.104	0.043
-335.275	-95.450	0.175	-0.046
-334.260	-41.554	-0.152	0.077
-333.245	800.000	0.049	-0.183
-332.231	-50.906	0.056	0.026
-331.216	-86.301	-0.053	0.016
-330.202	-200.000	-0.026	-0.127
-329.187	800.000	-0.074	0.233
-328.172	86.480	0.246	0.267
-327.158	-10.133	0.161	-0.106
-326.143	167.015	-0.042	0.059
-325.129	-137.303	0.197	-0.022
-324.114	800.000	-0.043	0.118
-323.099	-165.059	-0.225	-0.010
-322.085	224.812	-0.025	0.040
-321.070	117.269	-0.028	0.034
-320.056	800.000	0.037	0.144
-319.041	-126.630	-0.183	-0.027
-318.026	92.873	-0.207	0.230
-317.012	800.000	0.067	-0.221
-315.997	276.128	-0.095	-0.166
-314.983	-16.856	0.143	-0.089
-313.968	90.172	0.178	0.195
-312.953	40.975	-0.138	0.123
-311.939	458.517	-0.233	0.510
-310.924	-200.000	0.002	-0.027
-309.910	220.506	-0.120	0.190
-308.895	-200.000	0.009	0.372
-307.880	-151.015	0.268	-0.020
-306.866	90.188	-0.132	-0.145
-305.851	82.112	-0.183	-0.196
-304.837	-22.670	-0.213	0.127
-303.822	-112.148	0.385	0.076
-302.807	426.344	0.107	-0.227
-301.793	-8.527	0.098	-0.065
-300.778	-148.939	0.135	-0.011
-299.764	101.825	-0.057	0.065
-298.749	800.000	0.055	-0.173
-297.735	63.922	-0.238	0.235
-296.720	-20.024	0.098	-0.060
-295.705	-200.000	-0.006	0.244
-294.691	-200.000	-0.059	0.382
-293.676	800.000	-0.078	0.214
-292.662	-200.000	0.018	0.335
-291.647	800.000	0.073	0.308
-290.632	-90.710	0.349	0.099
-289.618	120.554	0.208	0.254
-288.603	-200.000	0.015	-0.101
-287.589	161.668	0.069	-0.094
-286.574	705.599	0.063	0.163
-285.559	-10.768	0.260	-0.169
-284.545	-71.775	0.160	0.059
-283.530	-61.910	-0.118	-0.049
-282.516	-116.437	0.352	-0.064
-281.501	-200.000	0.026	-0.125
-280.486	-108.220	0.152	0.032
-279.472	-140.272	-0.189	0.019
-278.457	265.360	-0.063	0.108
-277.443	-143.174	0.135	-0.013
-276.428	-62.429	-0.373	0.153
-275.413	-24.603	0.318	-0.186
-274.399	-70.069	-0.144	0.054
-273.384	89.527	-0.074	-0.081
-272.370	-110.983	0.271	-0.055
-271.355	-174.481	0.374	-0.011
-270.340	674.341	-0.038	0.098
-269.326	-54.241	-0.187	-0.083
-268.311	-200.000	-0.010	-0.108
-267.297	-200.000	0.033	-0.163
-266.282	-200.000	0.032	-0.253
-265.267	-200.000	0.017	0.089
-264.253	7.136	-0.414	0.303
-263.238	64.914	0.209	-0.208
-262.224	-144.848	-0.143	0.013
-261.209	77.933	0.112	0.117
-260.195	-92.697	0.244	0.067
-259.180	-200.000	0.045	0.256
-258.165	-60.852	-0.315	0.131
-257.151	800.000	0.020	0.069
-256.136	-166.293	-0.292	-0.012
-255.122	57.216	0.115	0.110
-254.107	-62.892	0.364	-0.148
-253.092	-8.229	-0.139	-0.092
-252.078	-88.121	0.150	0.044
-251.063	126.422	0.044	0.055
-250.049	361.661	-0.034	-0.067
-249.034	-19.702	-0.215	0.131
-248.019	294.414	-0.176	-0.316
-247.005	-200.000	0.048	-0.406
-245.990	0.434	0.174	0.122
-244.976	-51.462	0.106	-0.049
-243.961	246.982	0.145	0.241
-242.946	-6.068	0.335	0.225
-241.932	-10.306	0.091	0.059
-240.917	7.733	0.071	0.052
-239.903	608.972	0.103	0.252
-238.888	-155.472	-0.166	0.011
-237.873	-200.000	0.008	-0.490
-236.859	-200.000	-0.016	-0.220
-235.844	238.220	0.238	0.388
-234.830	307.788	-0.200	-0.366
-233.815	34.851	0.059	0.050
-232.800	-200.000	-0.004	0.031
-231.786	88.220	0.354	0.385
-230.771	66.208	0.342	-0.341
-229.757	61.357	-0.233	0.227
-228.742	-56.673	0.362	-0.157
-227.727	-131.265	-0.076	0.010
-226.713	88.631	-0.155	-0.169
-225.698	44.190	0.260	-0.234
-224.684	109.513	0.106	-0.125
-223.669	74.387	0.044	-0.045
-222.655	-180.206	-0.173	-0.004
-221.640	-71.191	-0.177	0.065
-220.625	5.822	0.286	-0.207
-219.611	-147.479	-0.103	-0.009
-218.596	131.991	-0.195	0.246
-217.582	154.188	-0.124	-0.167
-216.567	-13.725	-0.134	0.085
-215.552	800.000	-0.061	-0.260
-214.538	-200.000	0.023	0.246
-213.523	-102.956	-0.191	-0.045
-212.509	-200.000	-0.001	0.226
-211.494	-75.970	-0.083	-0.029
-210.479	-90.451	0.372	-0.106
-209.465	362.185	0.083	-0.164
-208.450	-200.000	-0.042	0.194
-207.436	-107.482	-0.158	0.034
-206.421	-200.000	0.037	-0.169
-205.406	14.818	0.101	-0.078
-204.392	800.000	0.048	-0.187
-203.377	0.748	-0.110	0.077
-202.363	324.440	0.085	0.159
-201.348	-200.000	0.030	-0.193
-200.333	-46.697	-0.236	0.113
-199.319	-43.065	-0.067	-0.033
-198.304	-200.000	0.039	-0.195
-197.290	216.846	-0.117	-0.183
-196.275	-200.000	-0.044	-0.295
-195.260	-122.249	-0.041	-0.007
-194.246	800.000	-0.107	0.306
-193.231	-80.325	-0.190	-0.062
-192.217	-11.300	0.203	0.131
-191.202	-11.622	0.129	0.083
-190.187	141.857	-0.105	-0.136
-189.173	800.000	-0.107	0.300
-188.158	-173.480	0.407	-0.012
-187.144	17.895	-0.187	0.146
-186.129	-200.000	0.024	0.212
-185.114	18.422	0.103	-0.081
-184.100	-40.999	0.119	-0.060
-183.085	59.973	0.147	-0.142
-182.071	-200.000	0.014	0.157
-181.056	-6.584	0.177	0.118
-180.042	228.131	-0.202	0.322
-179.027	132.429	0.182	-0.230
-178.012	800.000	0.090	-0.263
-176.998	65.236	0.043	-0.042
-175.983	-108.456	-0.085	-0.018
-174.969	-17.162	-0.145	0.090
-173.954	-200.000	0.000	-0.037
-172.939	-110.284	0.193	-0.039
-171.925	143.044	-0.049	0.063
-170.910	432.432	-0.103	0.219
-169.896	-200.000	0.004	0.062
-168.881	-143.183	-0.377	0.036
-167.866	800.000	0.070	-0.255
-166.852	800.000	0.068	0.251
-165.837	-59.164	0.108	-0.046
-164.823	33.239	0.095	0.081
-163.808	800.000	0.066	0.226
-162.793	16.803	0.047	0.036
-161.779	-120.523	-0.117	-0.019
-160.764	227.746	0.064	0.102
-159.750	-200.000	0.032	-0.156
-158.735	379.926	0.293	-0.587
-157.720	84.047	-0.099	0.105
-156.706	-200.000	-0.006	-0.087
-155.691	-43.008	-0.296	0.147
-154.677	-112.545	-0.143	-0.028
-153.662	-167.220	-0.378	0.015
-152.647	-110.913	0.162	-0.033
-151.633	11.245	0.090	-0.068
-150.618	528.413	0.121	0.278
-149.604	800.000	-0.055	0.233
-148.589	-33.456	0.050	-0.027
-147.574	-190.928	0.144	0.001
-146.560	430.292	-0.071	-0.150
-145.545	211.035	0.274	-0.422
-144.531	800.000	-0.125	-0.347
-143.516	522.105	-0.082	-0.188
-142.502	302.055	0.104	-0.188
-141.487	-200.000	0.021	-0.210
-140.472	13.466	-0.278	0.211
-139.458	0.721	-0.060	0.042
-138.443	436.481	0.069	0.146
-137.429	800.000	-0.035	0.095
-136.414	30.986	-0.376	0.315
-135.399	-200.000	-0.076	0.368
-134.385	800.000	-0.154	-0.482
-133.370	-23.156	-0.205	0.121
-132.356	263.329	0.179	0.305
-131.341	-77.770	0.223	0.075
-130.326	139.601	-0.287	0.369
-129.312	-65.465	0.332	-0.130
-128.297	147.833	0.134	0.177
-127.283	-65.531	-0.195	0.076
-126.268	61.184	-0.037	-0.036
-125.253	-161.068	0.142	-0.007
-124.239	-155.067	0.087	-0.006
-123.224	112.078	0.153	-0.181
-122.210	15.857	0.093	-0.072
-121.195	-23.560	-0.181	0.106
-120.180	800.000	-0.068	-0.245
-119.166	6.241	0.242	0.175
-118.151	800.000	0.094	0.283
-117.137	82.074	-0.048	-0.051
-116.122	-13.439	0.081	0.051
-115.107	19.944	-0.121	-0.096
-114.093	4.591	-0.138	-0.099
-113.078	741.116	0.104	0.272
-112.064	149.628	-0.176	-0.233
-111.049	-200.000	0.070	0.325
-110.034	-200.000	-0.010	0.449
-109.020	-200.000	0.006	0.167
-108.005	97.362	-0.110	0.123
-106.991	24.285	-0.225	0.182
-105.976	206.033	0.099	0.151
-104.962	-200.000	-0.031	0.359
-103.947	299.320	-0.106	0.191
-102.932	-200.000	-0.012	0.183
-101.918	-79.667	0.119	-0.039
-100.903	-67.665	0.163	-0.062
-99.889	538.294	-0.043	-0.100
-98.874	82.634	-0.090	0.096
-97.859	132.077	0.183	0.230
-96.845	168.646	0.022	-0.031
-95.830	227.866	0.088	-0.141
-94.816	408.482	0.097	0.200
-93.801	-5.747	0.182	0.122
-92.786	398.481	-0.075	-0.154
-91.772	-44.156	-0.100	-0.049
-90.757	-200.000	0.039	-0.203
-89.743	42.090	0.195	0.173
-88.728	-200.000	0.020	0.321
-87.713	-200.000	-0.011	-0.346
-86.699	-198.412	0.187	-0.001
-85.684	-200.000	-0.004	-0.101
-84.670	317.451	-0.076	0.140
-83.655	-200.000	0.036	-0.315
-82.640	-200.000	0.030	0.609
-81.626	500.690	-0.055	0.125
-80.611	-75.040	0.509	-0.178
-79.597	-60.760	0.102	-0.042
-78.582	-73.076	0.041	-0.015
-77.567	-116.431	-0.144	0.026
-76.553	-84.506	0.355	0.109
-75.538	-200.000	0.035	0.465
-74.524	-47.274	0.101	-0.048
-73.509	-200.000	0.013	0.215
-72.494	-200.000	0.019	0.202
-71.480	61.881	0.320	0.311
-70.465	-134.379	0.282	-0.034
-69.451	-193.225	-0.250	-0.002
-68.436	-62.680	0.151	0.061
-67.422	-1.251	-0.280	-0.193
-66.407	413.625	-0.067	-0.140
-65.392	-101.643	0.232	-0.055
-64.378	109.952	0.344	-0.402
-63.363	-200.000	0.023	0.263
-62.349	73.729	0.115	0.117
-61.334	154.178	-0.970	-1.297
-60.319	59.187	0.839	0.805
-59.305	800.000	-0.487	-1.555
-58.290	377.918	0.706	1.408
-57.276	395.080	0.718	1.460
-56.261	-200.000	137.512	659.062
-55.246	333.863	1671.022	3151.529
-54.232	134.609	2797.040	3537.814
-53.217	84.743	2168.949	2315.418
-52.203	31.102	1602.109	1339.350
-51.188	23.376	1353.095	1084.070
-50.173	21.334	1317.338	1043.206
-49.159	48.485	1392.317	1271.069
-48.144	44.574	1400.393	1254.339
-47.130	23.523	1347.850	1080.591
-46.115	20.458	1329.576	1047.451
-45.100	20.249	1323.863	1041.652
-44.086	20.269	1321.431	1039.818
-43.071	20.325	1318.902	1038.124
-42.057	20.193	1317.447	1036.147
-41.042	20.204	1315.620	1034.734
-40.027	20.313	1313.798	1033.909
-39.013	20.253	1312.008	1032.101
-37.998	20.294	1310.271	1030.936
-36.984	20.308	1308.918	1029.919
-35.969	20.393	1307.224	1029.049
-34.954	20.347	1305.484	1027.365
-33.940	20.418	1304.356	1026.858
-32.925	20.486	1302.631	1025.858
-31.911	20.430	1301.012	1024.212
-30.896	20.468	1299.737	1023.394
-29.881	20.515	1298.808	1022.895
-28.867	20.473	1297.392	1021.491
-27.852	20.468	1295.907	1020.255
-26.838	20.509	1294.248	1019.149
-25.823	20.486	1293.095	1018.065
-24.809	20.337	1292.165	1016.421
-23.794	20.414	1290.414	1015.450
-22.779	20.374	1289.183	1014.211
-21.765	20.479	1287.585	1013.525
-20.750	20.425	1286.869	1012.607
-19.736	20.313	1285.673	1010.972
-18.721	20.347	1284.398	1010.128
-17.706	20.369	1283.341	1009.384
-16.692	20.369	1282.060	1008.337
-15.677	20.407	1280.211	1007.064
-14.663	20.312	1279.781	1006.136
-13.648	20.369	1278.295	1005.253
-12.633	20.319	1277.800	1004.538
-11.619	20.394	1277.131	1004.403
-10.604	20.381	1275.956	1003.369
-9.590	20.318	1274.943	1002.168
-8.575	20.333	1273.731	1001.257
-7.560	20.263	1273.133	1000.349
-6.546	20.280	1272.645	1000.020
-5.531	20.321	1271.586	999.386
-4.517	20.364	1270.748	998.934
-3.502	20.351	1270.064	998.281
-2.487	20.243	1269.303	997.026
-1.473	20.224	1264.786	993.328
-0.458	18.642	1248.882	971.846
0.556	14.053	1233.491	934.209
1.571	10.445	1241.919	920.063
2.586	9.773	1257.207	927.440
3.600	9.965	1244.478	919.061
4.615	7.597	1173.326	853.728
5.629	2.925	1104.250	779.717
6.644	0.664	1089.169	757.673
7.659	0.690	1087.115	756.306
8.673	0.575	1086.308	755.106
9.688	0.591	1084.901	754.139
10.702	0.657	1082.124	752.473
11.717	3.537	1085.074	768.823
12.731	9.750	1093.686	805.984
13.746	15.268	1100.993	838.984
14.761	17.184	1103.038	850.063
15.775	16.471	1101.643	845.352
16.790	15.454	1099.509	838.562
17.804	14.815	1097.772	833.975
18.819	14.459	1096.452	831.125
19.834	14.227	1095.981	829.534
20.848	13.976	1095.056	827.513
21.863	13.757	1094.046	825.588
22.877	13.626	1092.830	823.944
23.892	13.662	1092.419	823.738
24.907	13.556	1092.044	822.859
25.921	13.533	1091.119	821.973
26.936	13.715	1090.267	822.163
27.950	13.750	1089.132	821.404
28.965	13.740	1087.526	820.072
29.980	13.880	1086.159	819.661
30.994	13.782	1085.105	818.311
32.009	13.950	1084.458	818.580
33.023	13.765	1083.346	816.753
34.038	13.780	1082.152	815.858
35.053	13.722	1081.740	815.186
36.067	13.703	1080.401	814.011
37.082	13.692	1079.588	813.275
38.096	13.774	1079.077	813.219
39.111	13.673	1078.293	812.064
40.126	13.750	1076.923	811.336
41.140	13.564	1075.872	809.564
42.155	13.606	1074.394	808.586
43.169	13.570	1073.367	807.565
44.184	13.630	1072.602	807.208
45.199	13.659	1071.254	806.265
46.213	13.777	1069.548	805.484
47.228	13.653	1069.098	804.469
48.242	13.634	1068.124	803.576
49.257	13.690	1067.315	803.164
50.271	13.677	1066.314	802.280
51.286	13.649	1065.473	801.441
52.301	13.743	1064.468	801.069
53.315	13.727	1063.120	799.903
54.330	13.709	1062.149	799.015
55.344	13.642	1061.366	798.036
56.359	13.713	1060.474	797.637
57.374	13.540	1060.003	796.377
58.388	13.511	1058.991	795.410
59.403	13.600	1057.957	794.989
60.417	13.515	1057.090	793.860
61.432	13.643	1055.933	793.531
62.447	13.521	1055.633	792.653
63.461	13.571	1054.705	792.125
64.476	13.621	1053.836	791.641
65.490	13.584	1053.035	790.793
66.505	13.472	1052.224	789.581
67.520	13.577	1051.555	789.510
68.534	13.594	1051.310	789.337
69.549	13.569	1050.283	788.375
70.563	13.553	1049.068	787.318
71.578	13.580	1048.155	786.691
72.593	13.440	1047.842	785.723
73.607	13.521	1046.845	785.289
74.622	13.512	1046.516	784.928
75.636	13.545	1045.489	784.247
76.651	13.468	1044.912	783.380
77.666	13.457	1043.966	782.552
78.680	13.434	1043.645	782.132
79.695	13.544	1042.609	781.806
80.709	13.541	1041.937	781.219
81.724	13.600	1041.472	781.078
82.739	13.617	1040.494	780.353
83.753	13.700	1040.049	780.342
84.768	13.884	1038.346	779.858
85.782	13.709	1037.708	778.491
86.797	13.736	1036.706	777.797
87.812	13.637	1035.992	776.728
88.826	13.590	1035.463	776.044
89.841	13.798	1034.131	775.949
90.855	13.723	1033.429	775.002
91.870	13.799	1032.413	774.526
92.884	13.788	1031.818	773.959
93.899	13.709	1030.587	772.599
94.914	13.855	1029.672	772.525
95.928	13.790	1028.917	771.588
96.943	13.836	1028.122	771.138
97.957	13.710	1027.542	770.053
98.972	13.674	1026.173	768.787
99.987	13.810	1025.433	768.799
101.001	13.786	1024.254	767.734
102.016	13.825	1023.717	767.446
103.030	13.743	1022.971	766.437
104.045	13.776	1022.200	765.945
105.060	13.762	1021.488	765.277
106.074	13.657	1020.449	763.951
107.089	13.771	1019.200	763.470
108.103	13.670	1018.440	762.369
109.118	13.754	1016.993	761.606
110.133	13.660	1016.269	760.564
111.147	13.570	1015.730	759.683
112.162	13.759	1014.844	759.814
113.176	13.739	1013.653	758.766
114.191	13.699	1013.261	758.224
115.206	13.747	1012.742	757.987
116.220	13.746	1011.631	757.083
117.235	13.724	1010.397	755.991
118.249	13.672	1009.844	755.278
119.264	13.629	1009.164	754.506
120.279	13.723	1007.882	753.905
121.293	13.703	1007.488	753.454
122.308	13.797	1006.030	752.723
123.322	13.740	1005.117	751.714
124.337	13.628	1004.123	750.397
125.352	13.712	1002.578	749.555
126.366	13.664	1001.925	748.786
127.381	13.635	1001.267	748.096
128.395	13.679	1000.353	747.548
129.410	13.697	999.211	746.708
130.424	13.621	998.449	745.730
131.439	13.717	997.851	745.649
132.454	13.751	996.688	744.867
133.468	13.687	996.137	744.103
134.483	13.681	995.293	743.378
135.497	13.735	994.261	742.782
136.512	13.700	993.434	741.946
137.527	13.672	992.734	741.229
138.541	13.661	991.994	740.562
139.556	13.728	991.183	740.194
140.570	13.847	990.184	739.912
141.585	13.934	989.114	739.434
142.600	13.929	988.644	738.995
143.614	13.868	987.884	738.089
144.629	13.875	987.274	737.597
145.643	13.880	985.976	736.585
146.658	13.864	985.155	735.839
147.673	14.032	983.874	735.557
148.687	13.803	983.573	734.254
149.702	13.836	982.271	733.365
150.716	13.880	981.317	732.781
151.731	13.913	980.613	732.338
152.746	13.868	980.049	731.652
153.760	13.941	979.420	731.440
154.775	13.912	979.237	731.108
155.789	13.978	977.966	730.386
156.804	14.070	977.258	730.198
157.819	13.842	977.071	728.992
158.833	14.054	976.325	729.300
159.848	14.080	975.286	728.573
160.862	14.066	974.038	727.516
161.877	14.053	973.137	726.720
162.892	13.937	972.650	725.788
163.906	13.996	971.187	724.889
164.921	14.074	970.610	724.733
165.935	14.010	969.396	723.483
166.950	14.095	968.621	723.211
167.964	14.013	967.633	722.053
168.979	14.004	967.096	721.552
169.994	14.076	965.943	720.938
171.008	14.077	965.616	720.634
172.023	14.196	964.220	720.044
173.037	14.207	963.843	719.746
174.052	14.077	963.151	718.606
175.067	13.923	962.797	717.611
176.081	14.180	961.928	718.011
177.096	14.039	961.627	717.113
178.110	14.122	960.537	716.594
179.125	14.243	960.039	716.681
180.140	14.210	959.439	716.027
181.154	14.294	959.067	716.046
182.169	14.180	958.389	714.989
183.183	14.244	957.668	714.660
184.198	14.303	956.713	714.140
185.213	14.229	956.419	713.537
186.227	14.254	955.473	712.876
187.242	14.346	954.870	712.758
188.256	14.474	953.892	712.511
189.271	14.306	953.615	711.525
190.286	14.277	952.754	710.693
191.300	14.299	951.733	709.962
192.315	14.422	950.997	709.878
193.329	14.157	951.337	708.936
194.344	14.181	950.189	708.124
195.359	14.397	949.207	708.244
196.373	14.485	948.676	708.162
197.388	14.458	948.294	707.698
198.402	14.543	947.748	707.588
199.417	14.439	947.275	706.731
200.432	14.407	946.529	705.978
201.446	14.515	946.274	706.183
202.461	14.605	945.389	705.839
203.475	14.680	944.632	705.530
204.490	14.488	944.246	704.367
205.504	14.585	943.099	703.856
206.519	14.476	942.753	703.080
207.534	14.585	941.667	702.667
208.548	14.542	941.475	702.278
209.563	14.590	940.135	701.420
210.577	14.668	939.679	701.342
211.592	14.623	938.649	700.327
212.607	14.632	938.401	700.117
213.621	14.706	937.502	699.694
214.636	14.717	936.819	699.167
215.650	14.735	935.448	698.159
216.665	14.673	935.229	697.674
217.680	14.876	934.673	698.043
218.694	14.870	933.643	697.187
219.709	14.810	933.193	696.539
220.723	14.780	932.672	695.964
221.738	14.798	932.093	695.546
222.753	14.811	931.533	695.122
223.767	14.885	930.763	694.793
224.782	14.997	930.153	694.743
225.796	14.920	929.336	693.750
226.811	14.913	928.666	693.159
227.826	14.819	928.427	692.531
228.840	14.910	927.541	692.183
229.855	14.940	926.507	691.476
230.869	14.918	925.806	690.802
231.884	14.952	924.766	690.102
232.899	14.913	924.406	689.614
233.913	14.777	923.907	688.620
234.928	14.910	923.003	688.432
235.942	14.821	922.774	687.832
236.957	14.993	922.078	687.962
237.972	15.045	920.915	687.246
238.986	15.012	920.257	686.560
240.001	15.029	919.798	686.227
241.015	15.076	919.109	685.843
242.030	14.877	918.902	684.814
243.045	14.946	918.324	684.604
244.059	15.054	917.508	684.376
245.074	15.042	916.820	683.753
246.088	15.060	916.266	683.355
247.103	15.157	915.391	683.036
248.117	15.202	914.670	682.623
249.132	15.145	914.200	681.977
250.147	15.259	913.611	681.942
251.161	15.193	912.996	681.155
252.176	15.259	912.552	681.033
253.190	15.413	911.537	680.840
254.205	15.330	910.893	679.960
255.220	15.276	910.449	679.350
256.234	15.401	909.137	678.817
257.249	15.481	908.496	678.603
258.263	15.390	907.860	677.699
259.278	15.464	907.497	677.667
260.293	15.507	906.848	677.295
261.307	15.491	906.369	676.814
262.322	15.635	905.781	676.895
263.336	15.640	904.605	675.977
264.351	15.570	904.094	675.255
265.366	15.523	903.537	674.590
266.380	15.654	902.809	674.509
267.395	15.606	902.272	673.856
268.409	15.579	901.172	672.869
269.424	15.591	900.606	672.436
270.439	15.573	899.982	671.838
271.453	15.604	899.470	671.518
272.468	15.688	898.844	671.327
273.482	15.617	898.242	670.536
274.497	15.595	897.908	670.141
275.512	15.701	897.087	669.890
276.526	15.700	896.911	669.694
277.541	15.682	896.135	668.985
278.555	15.785	894.962	668.460
279.570	15.704	894.957	668.073
280.585	15.790	893.888	667.560
281.599	15.841	892.616	666.751
282.614	15.708	892.631	666.176
283.628	15.814	891.889	665.982
284.643	15.836	891.398	665.646
285.657	15.839	890.485	664.916
286.672	15.759	889.726	663.975
287.687	15.991	888.993	664.283
288.701	15.964	888.798	663.973
289.716	15.915	888.060	663.169
290.730	15.976	887.517	662.946
291.745	15.963	887.025	662.469
292.760	16.067	886.187	662.194
293.774	16.044	885.657	661.648
294.789	16.132	884.937	661.397
295.803	16.010	884.440	660.486
296.818	16.080	883.279	659.835
297.833	16.049	882.829	659.322
298.847	16.073	882.171	658.864
299.862	16.148	881.815	658.832
300.876	16.025	881.314	657.922
301.891	16.123	880.502	657.640
302.906	16.285	879.534	657.489
303.920	16.146	879.535	656.892
304.935	16.226	879.021	656.758
305.949	16.125	878.302	655.772
306.964	16.321	877.263	655.698
307.979	16.347	876.737	655.349
308.993	16.299	876.289	654.771
310.008	16.397	875.441	654.456
311.022	16.356	874.892	653.831
312.037	16.241	874.880	653.319
313.052	16.263	874.398	652.988
314.066	16.162	873.699	652.014
315.081	16.300	872.993	651.963
316.095	16.201	872.688	651.297
317.110	16.289	871.700	650.842
318.125	16.246	871.440	650.424
319.139	16.229	871.096	650.044
320.154	16.328	870.472	649.903
321.168	16.226	870.165	649.222
322.183	16.505	869.064	649.414
323.197	16.360	868.739	648.556
324.212	16.305	868.519	648.124
325.227	16.421	867.384	647.665
326.241	16.492	866.777	647.428
327.256	16.331	866.508	646.553
328.270	16.374	865.730	646.081
329.285	16.414	864.993	645.625
330.300	16.403	864.908	645.460
331.314	16.455	864.187	645.067
332.329	16.343	863.695	644.214
333.343	16.507	863.200	644.413
334.358	16.455	862.638	643.739
335.373	16.485	861.899	643.246
336.387	16.592	861.701	643.447
337.402	16.548	861.645	643.179
338.416	16.623	861.453	643.265
339.431	16.551	860.668	642.347
340.446	16.704	860.075	642.428
341.460	16.674	859.682	641.965
342.475	16.878	859.633	642.644
343.489	16.696	859.067	641.477
344.504	16.786	858.842	641.590
345.519	16.863	857.917	641.135
346.533	16.747	857.677	640.462
347.548	16.679	857.153	639.756
348.562	16.736	856.291	639.272
349.577	16.751	855.585	638.743
350.592	16.732	855.411	638.484
351.606	16.830	854.738	638.297
352.621	16.715	854.208	637.410
353.635	16.733	853.171	636.650
354.650	16.852	852.650	636.650
355.665	16.946	852.014	636.472
356.679	16.980	851.423	636.103
357.694	16.914	850.591	635.177
358.708	16.961	849.978	634.838
359.723	17.036	849.371	634.609
360.738	16.933	848.788	633.733
361.752	17.087	848.204	633.815
362.767	17.074	847.488	633.176
363.781	17.139	846.886	632.913
364.796	17.074	846.438	632.280
365.810	17.139	846.318	632.377
366.825	17.232	845.768	632.255
367.840	17.216	845.503	631.942
368.854	17.094	845.174	631.185
369.869	17.203	844.820	631.271
370.883	17.169	844.384	630.761
371.898	17.099	843.757	629.977
372.913	17.266	843.425	630.294
373.927	17.238	842.651	629.559
374.942	17.346	842.065	629.462
375.956	17.282	841.845	629.008
376.971	17.331	841.660	628.993
377.986	17.474	840.744	628.783
379.000	17.501	840.267	628.470
380.015	17.536	839.699	628.117
381.029	17.543	839.380	627.849
382.044	17.349	838.309	626.279
383.059	17.540	838.071	626.750
384.073	17.444	837.443	625.871
385.088	17.401	837.033	625.351
386.102	17.414	836.421	624.887
387.117	17.399	835.911	624.392
388.132	17.464	835.258	624.090
389.146	17.404	834.635	623.350
390.161	17.390	834.640	623.247
391.175	17.572	833.810	623.236
392.190	17.632	832.914	622.733
393.205	17.422	832.998	621.974
394.219	17.485	832.220	621.566
395.234	17.451	831.934	621.172
396.248	17.524	831.612	621.144
397.263	17.533	831.152	620.777
398.278	17.476	830.740	620.208
399.292	17.584	830.120	620.082
400.307	17.550	829.729	619.614
401.321	17.595	829.244	619.358
402.336	17.686	828.541	619.112
403.350	17.578	828.377	618.540
404.365	17.696	827.886	618.548
405.380	17.794	827.439	618.514
406.394	17.810	826.675	617.946
407.409	17.731	826.477	617.459
408.423	17.806	826.189	617.459
409.438	17.887	825.634	617.283
410.453	17.836	824.960	616.540
411.467	17.942	824.927	616.844
412.482	17.785	824.592	615.971
413.496	17.897	823.974	615.860
414.511	17.977	823.533	615.765
415.526	18.105	823.167	615.896
416.540	18.034	822.646	615.197
417.555	18.009	821.934	614.520
418.569	17.965	821.877	614.265
419.584	18.044	821.265	614.037
420.599	18.060	820.523	613.485
421.613	115.593	1302.160	1492.826
422.628	100.290	1372.275	1492.896
