DTS Sentinel unit serial number:	SN413079Multiplexer serial number:	ORYXHardware model number:	OX4-SRSoftware version number:	ORYX F/W v4.00 Oryx Data Collector v3.7.2.0data status	okinstallation	princeton_trtdifferential loss correction	single-endedforward channel	channel 1reverse channel	N/Adate	2019/09/11time	21:08:11forward acquisition time	60.00reverse acquisition time	0.00gamma	496.2192k internal	0.2307k external	0.2307temperature offset calibration	1.0049default loss term (dB/km)	0.3790temperature slope calibration	1.0000multiplexer offset coefficient	1.0000multiplexer slope coefficient	1.0000fibre end	0.00T internal ref (°C)	36.50T ext. ref 1 (°C)	1.62T ext. ref 2 (°C)	30.52length (m)	temperature (°C)	Stokes	anti-Stokes-747.200	800.000	0.073	0.263
-746.185	-109.876	0.356	0.076
-745.171	-1.349	0.130	0.093
-744.156	61.021	-0.170	-0.172
-743.142	-99.429	0.372	-0.095
-742.127	800.000	0.125	0.543
-741.112	462.221	0.221	0.502
-740.098	163.672	-0.138	0.198
-739.083	346.438	0.174	-0.349
-738.069	185.842	0.078	0.118
-737.054	-42.082	0.212	-0.110
-736.039	144.084	-0.011	-0.015
-735.025	47.433	0.041	-0.039
-734.010	-52.850	-0.494	-0.231
-732.996	800.000	-0.042	-0.164
-731.981	76.379	-0.134	0.145
-730.966	-51.676	0.234	-0.111
-729.952	-200.000	-0.049	-0.379
-728.937	79.540	-0.146	-0.159
-727.923	325.843	0.059	0.115
-726.908	-200.000	-0.049	0.357
-725.894	297.408	0.116	-0.217
-724.879	800.000	-0.079	-0.229
-723.864	-129.059	0.235	-0.033
-722.850	406.751	0.095	0.205
-721.835	800.000	-0.086	-0.344
-720.821	-90.274	-0.275	-0.081
-719.806	272.851	0.105	-0.188
-718.791	-106.392	0.248	-0.056
-717.777	-118.823	-0.185	0.033
-716.762	62.363	-0.041	-0.041
-715.748	-74.762	-0.131	0.048
-714.733	644.436	0.038	-0.098
-713.718	447.828	-0.145	-0.325
-712.704	-83.805	-0.106	0.034
-711.689	-37.557	-0.386	-0.209
-710.675	24.536	-0.088	-0.074
-709.660	800.000	0.031	-0.106
-708.645	-144.601	-0.052	-0.005
-707.631	-50.549	0.180	0.086
-706.616	-26.992	0.079	-0.047
-705.602	-200.000	-0.023	0.259
-704.587	-200.000	0.137	-0.000
-703.572	629.096	0.176	0.452
-702.558	-59.539	-0.323	-0.141
-701.543	-63.568	-0.257	-0.107
-700.529	42.180	-0.145	-0.134
-699.514	-35.027	-0.255	-0.141
-698.499	-79.510	0.256	-0.088
-697.485	-124.816	-0.103	-0.016
-696.470	134.040	-0.063	-0.082
-695.456	-44.807	-0.284	0.144
-694.441	-200.000	-0.005	0.161
-693.426	-81.934	-0.116	-0.039
-692.412	-66.899	0.153	-0.062
-691.397	359.482	-0.168	0.340
-690.383	-200.000	0.058	-0.324
-689.368	-84.531	-0.476	0.153
-688.354	-23.879	-0.261	0.158
-687.339	433.084	0.032	-0.070
-686.324	-200.000	-0.040	-0.186
-685.310	-19.456	0.163	-0.102
-684.295	-36.916	0.252	-0.137
-683.281	-115.473	-0.177	-0.034
-682.266	-200.000	-0.221	0.001
-681.251	-43.582	-0.326	-0.167
-680.237	-9.712	0.208	-0.141
-679.222	137.682	0.047	0.062
-678.208	-135.956	0.114	0.014
-677.193	-108.129	-0.285	-0.063
-676.178	-97.533	-0.242	-0.064
-675.164	-97.115	-0.146	0.039
-674.149	673.199	0.060	-0.158
-673.135	144.690	-0.108	0.146
-672.120	622.087	0.050	-0.129
-671.105	204.180	0.098	0.154
-670.091	120.609	-0.168	0.211
-669.076	-187.518	0.220	-0.003
-668.062	-49.309	-0.373	0.180
-667.047	223.248	-0.058	0.095
-666.032	44.369	-0.080	0.075
-665.018	-86.835	-0.149	-0.046
-664.003	249.402	-0.073	-0.125
-662.989	-10.073	-0.101	0.068
-661.974	183.703	0.092	0.138
-660.959	-200.000	0.034	-0.488
-659.945	136.596	0.041	-0.054
-658.930	23.844	-0.312	-0.261
-657.916	-101.021	0.212	-0.053
-656.901	-122.848	-0.254	-0.042
-655.886	-200.000	0.017	0.115
-654.872	49.740	-0.173	-0.165
-653.857	414.986	-0.120	-0.260
-652.843	-167.375	0.226	0.009
-651.828	297.467	0.194	0.362
-650.814	107.538	0.064	0.077
-649.799	-0.628	-0.155	-0.112
-648.784	-26.983	0.231	0.136
-647.770	-137.464	0.271	0.031
-646.755	-59.059	0.070	0.031
-645.741	37.944	-0.056	0.050
-644.726	-64.163	-0.151	-0.062
-643.711	185.619	-0.138	-0.207
-642.697	122.533	0.059	-0.075
-641.682	-79.122	-0.058	0.020
-640.668	-24.116	-0.284	-0.172
-639.653	-64.865	-0.261	-0.107
-638.638	-200.000	0.028	-0.149
-637.624	36.599	-0.032	-0.029
-636.609	-200.000	0.004	-0.336
-635.595	89.670	-0.173	0.196
-634.580	800.000	0.076	-0.238
-633.565	-200.000	0.001	0.181
-632.551	210.627	0.087	0.138
-631.536	11.731	-0.260	0.202
-630.522	26.797	-0.233	0.198
-629.507	-200.000	-0.006	-0.099
-628.492	-96.377	-0.003	-0.001
-627.478	-53.505	-0.091	-0.042
-626.463	78.055	-0.102	0.110
-625.449	800.000	0.056	0.164
-624.434	800.000	0.171	0.529
-623.419	-50.532	0.356	0.170
-622.405	-200.000	0.015	-0.293
-621.390	800.000	-0.112	-0.337
-620.376	-40.437	-0.282	0.148
-619.361	-90.187	-0.091	-0.027
-618.346	94.845	0.140	-0.161
-617.332	-172.839	0.127	0.004
-616.317	-200.000	0.018	0.230
-615.303	800.000	0.053	0.223
-614.288	259.945	0.077	-0.135
-613.273	-108.195	0.091	0.020
-612.259	-200.000	-0.015	-0.113
-611.244	-200.000	0.048	-0.307
-610.230	800.000	0.061	0.201
-609.215	88.212	0.173	-0.194
-608.201	800.000	-0.054	-0.177
-607.186	800.000	-0.037	0.128
-606.171	800.000	0.048	-0.138
-605.157	-27.104	0.100	0.059
-604.142	48.181	0.084	0.079
-603.128	800.000	0.092	0.397
-602.113	-200.000	0.004	-0.087
-601.098	51.116	-0.128	0.123
-600.084	-105.896	0.457	0.104
-599.069	15.211	-0.198	-0.157
-598.055	-142.909	0.085	0.008
-597.040	165.636	-0.205	-0.294
-596.025	-200.000	-0.040	0.282
-595.011	102.484	-0.140	-0.166
-593.996	-79.626	0.334	-0.114
-592.982	-103.914	-0.065	0.015
-591.967	233.273	0.087	0.145
-590.952	5.250	-0.405	0.302
-589.938	65.059	-0.180	0.183
-588.923	-82.080	-0.042	-0.014
-587.909	800.000	-0.071	0.226
-586.894	27.592	-0.111	0.094
-585.879	-128.305	0.219	-0.031
-584.865	-12.999	-0.049	-0.032
-583.850	800.000	0.063	0.198
-582.836	-200.000	0.029	0.198
-581.821	0.331	0.241	0.174
-580.806	-49.594	0.061	-0.029
-579.792	154.249	0.178	-0.247
-578.777	98.822	-0.224	-0.261
-577.763	-200.000	0.014	-0.439
-576.748	173.859	-0.123	-0.179
-575.733	800.000	-0.023	-0.098
-574.719	10.277	0.197	-0.152
-573.704	-28.053	-0.138	-0.081
-572.690	170.532	-0.157	0.228
-571.675	134.063	0.172	0.225
-570.661	-110.638	0.275	-0.057
-569.646	-111.475	0.114	0.023
-568.631	800.000	-0.061	0.238
-567.617	-104.019	-0.123	0.029
-566.602	204.232	-0.039	0.061
-565.588	31.626	-0.111	-0.097
-564.573	-105.806	0.330	-0.075
-563.558	-200.000	0.007	0.216
-562.544	181.737	0.193	0.288
-561.529	-136.223	0.235	0.028
-560.515	-38.333	0.210	-0.112
-559.500	-15.043	-0.147	-0.095
-558.485	-40.821	-0.190	0.099
-557.471	-46.707	0.190	0.094
-556.456	-57.839	0.037	-0.017
-555.442	-200.000	0.001	-0.003
-554.427	-127.844	0.436	-0.063
-553.412	800.000	-0.003	0.009
-552.398	774.422	-0.081	-0.223
-551.383	21.450	0.193	-0.158
-550.369	22.312	0.112	-0.093
-549.354	-94.280	-0.184	0.051
-548.339	-200.000	0.001	0.077
-547.325	56.862	-0.143	0.141
-546.310	-6.294	0.371	-0.255
-545.296	-119.747	-0.115	0.020
-544.281	-8.546	-0.094	-0.063
-543.266	-35.090	-0.286	0.157
-542.252	-200.000	-0.018	0.116
-541.237	481.741	-0.157	0.359
-540.223	89.112	0.163	0.183
-539.208	-10.691	0.272	-0.181
-538.193	-59.181	0.135	0.059
-537.179	-27.693	0.040	0.023
-536.164	-200.000	0.002	-0.257
-535.150	-13.531	-0.015	-0.010
-534.135	15.291	-0.090	0.072
-533.121	-142.536	-0.434	-0.043
-532.106	235.354	0.014	-0.023
-531.091	206.593	0.057	0.090
-530.077	95.477	0.098	-0.112
-529.062	800.000	-0.083	0.280
-528.048	87.675	-0.137	-0.153
-527.033	-200.000	-0.031	-0.156
-526.018	94.937	-0.184	-0.212
-525.004	800.000	-0.069	-0.202
-523.989	38.025	-0.207	0.186
-522.975	296.438	0.044	0.081
-521.960	-63.168	-0.115	-0.048
-520.945	800.000	0.054	-0.216
-519.931	-22.169	-0.299	0.183
-518.916	105.912	0.053	0.063
-517.902	-98.828	-0.054	-0.014
-516.887	-200.000	0.004	-0.572
-515.872	372.570	0.142	-0.292
-514.858	-200.000	0.038	-0.398
-513.843	119.671	-0.132	-0.165
-512.829	215.479	-0.114	0.183
-511.814	-130.097	-0.158	-0.022
-510.799	30.939	-0.335	0.290
-509.785	-64.198	0.036	-0.015
-508.770	-200.000	0.001	-0.020
-507.756	-125.969	0.604	-0.092
-506.741	-52.360	-0.189	0.088
-505.726	326.418	0.022	-0.042
-504.712	248.473	-0.018	-0.030
-503.697	800.000	0.067	-0.238
-502.683	32.298	-0.076	0.066
-501.668	-102.191	-0.170	0.041
-500.653	65.563	-0.109	-0.112
-499.639	-19.166	-0.101	-0.063
-498.624	224.751	0.147	-0.239
-497.610	800.000	0.086	-0.312
-496.595	511.946	-0.161	0.378
-495.581	78.648	0.146	-0.157
-494.566	-166.935	0.076	-0.003
-493.551	188.848	-0.147	0.221
-492.537	29.107	-0.128	0.109
-491.522	800.000	0.061	-0.241
-490.508	20.225	0.258	-0.210
-489.493	-119.784	-0.390	0.068
-488.478	47.405	0.219	-0.206
-487.464	164.522	-0.195	0.277
-486.449	-35.279	-0.314	-0.172
-485.435	-54.160	-0.082	-0.038
-484.420	380.215	-0.231	-0.478
-483.405	54.655	0.094	-0.091
-482.391	-84.877	-0.412	0.130
-481.376	-122.162	0.247	-0.041
-480.362	-20.726	-0.051	0.032
-479.347	-138.978	0.272	0.030
-478.332	91.932	0.160	-0.181
-477.318	51.572	-0.113	-0.108
-476.303	68.254	-0.245	-0.253
-475.289	800.000	-0.018	-0.066
-474.274	243.797	0.193	-0.326
-473.259	-13.339	0.244	-0.159
-472.245	184.522	0.091	0.136
-471.230	82.387	0.125	0.136
-470.216	620.403	0.084	0.214
-469.201	-31.597	-0.126	-0.071
-468.186	-71.681	-0.260	-0.097
-467.172	304.330	-0.065	0.121
-466.157	312.280	-0.175	-0.331
-465.143	130.903	0.111	-0.143
-464.128	35.689	0.149	-0.131
-463.113	-200.000	0.085	-0.405
-462.099	-14.222	-0.262	0.170
-461.084	-200.000	0.042	-0.323
-460.070	329.723	0.079	0.154
-459.055	-86.443	-0.442	0.137
-458.040	491.879	0.156	-0.359
-457.026	173.196	0.092	-0.134
-456.011	-169.266	-0.244	-0.009
-454.997	580.399	0.120	-0.294
-453.982	-34.725	-0.278	0.153
-452.968	135.422	0.081	0.106
-451.953	242.050	0.135	0.227
-450.938	684.041	-0.066	-0.173
-449.924	43.259	0.310	0.285
-448.909	-71.277	-0.079	0.030
-447.895	800.000	-0.058	-0.234
-446.880	-121.703	0.343	0.057
-445.865	-36.788	-0.029	-0.016
-444.851	-200.000	0.007	-0.087
-443.836	-42.506	0.450	-0.230
-442.822	88.005	-0.124	0.138
-441.807	-41.366	0.269	-0.139
-440.792	-200.000	0.034	-0.285
-439.778	39.524	0.163	-0.147
-438.763	-200.000	-0.013	0.137
-437.749	548.343	0.150	0.361
-436.734	-178.865	-0.279	0.006
-435.719	-78.851	0.294	-0.101
-434.705	163.832	-0.023	-0.032
-433.690	-195.496	-0.120	0.001
-432.676	-9.971	-0.047	0.031
-431.661	-37.745	-0.048	0.026
-430.646	-3.854	0.138	-0.096
-429.632	-110.850	-0.223	-0.046
-428.617	-173.616	-0.119	-0.004
-427.603	443.451	-0.093	0.206
-426.588	-22.941	0.215	-0.130
-425.573	-200.000	0.000	0.277
-424.559	111.960	-0.202	-0.245
-423.544	599.254	0.087	-0.216
-422.530	-164.786	0.269	0.012
-421.515	41.559	0.261	0.237
-420.500	110.859	-0.072	-0.087
-419.486	-200.000	-0.036	0.246
-418.471	236.972	-0.140	0.232
-417.457	-130.374	-0.169	0.023
-416.442	-45.238	-0.232	0.116
-415.428	-13.260	0.235	-0.153
-414.413	-200.000	0.006	0.054
-413.398	-1.085	-0.238	-0.169
-412.384	-200.000	-0.033	0.179
-411.369	-200.000	-0.017	-0.210
-410.355	-80.919	0.174	0.058
-409.340	474.391	0.144	0.326
-408.325	-70.165	0.117	0.045
-407.311	-87.394	-0.167	-0.051
-406.296	140.909	0.231	-0.306
-405.282	-15.118	0.242	0.156
-404.267	97.511	-0.120	0.139
-403.252	-200.000	-0.011	0.090
-402.238	-200.000	-0.007	0.044
-401.223	-200.000	-0.003	-0.300
-400.209	240.060	-0.138	0.231
-399.194	672.064	-0.033	0.086
-398.179	800.000	0.133	-0.372
-397.165	-173.072	0.303	-0.009
-396.150	211.185	-0.143	0.225
-395.136	619.876	0.061	0.154
-394.121	-200.000	0.050	0.341
-393.106	-52.949	-0.250	-0.115
-392.092	-150.720	0.591	0.045
-391.077	273.310	-0.128	-0.228
-390.063	-144.985	0.102	-0.009
-389.048	-4.146	-0.350	-0.243
-388.033	-200.000	0.023	-0.108
-387.019	-124.949	-0.260	0.040
-386.004	1.072	0.089	-0.064
-384.990	-5.172	0.253	-0.175
-383.975	107.152	0.118	0.141
-382.960	-28.726	0.165	0.095
-381.946	-3.918	0.203	-0.141
-380.931	-134.337	0.065	0.008
-379.917	-102.871	-0.158	-0.038
-378.902	-24.553	0.184	-0.110
-377.888	315.066	-0.105	-0.198
-376.873	350.103	0.070	0.138
-375.858	800.000	0.032	-0.102
-374.844	-32.196	0.138	0.077
-373.829	97.064	0.107	-0.123
-372.815	-71.088	-0.153	0.058
-371.800	800.000	0.045	-0.177
-370.785	800.000	0.202	-0.704
-369.771	-65.293	-0.335	0.135
-368.756	558.790	-0.018	0.043
-367.742	-31.547	-0.180	0.101
-366.727	119.100	-0.096	0.119
-365.712	59.946	0.352	-0.348
-364.698	800.000	-0.058	0.194
-363.683	-78.907	-0.168	0.057
-362.669	-152.542	0.149	-0.011
-361.654	-8.368	0.163	0.110
-360.639	54.074	0.176	0.170
-359.625	-42.227	-0.504	-0.258
-358.610	-57.357	0.193	-0.085
-357.596	40.458	-0.112	0.101
-356.581	241.758	-0.146	-0.245
-355.566	652.553	-0.081	0.209
-354.552	50.205	0.103	0.097
-353.537	72.390	0.361	0.377
-352.523	-129.398	-0.145	-0.020
-351.508	-11.211	0.159	0.105
-350.493	800.000	0.131	-0.371
-349.479	-39.217	-0.172	-0.090
-348.464	-94.452	0.160	0.044
-347.450	-119.580	0.145	-0.025
-346.435	-55.242	0.171	0.077
-345.420	-100.195	0.184	-0.046
-344.406	-200.000	0.021	-0.174
-343.391	-142.161	0.096	-0.010
-342.377	800.000	0.078	0.236
-341.362	64.176	-0.099	-0.100
-340.348	137.358	-0.230	-0.302
-339.333	-130.270	-0.087	0.012
-338.318	-200.000	0.005	0.025
-337.304	-200.000	0.007	0.123
-336.289	-125.943	-0.217	-0.033
-335.275	-200.000	0.010	-0.111
-334.260	-140.362	-0.269	-0.028
-333.245	-101.828	-0.088	-0.021
-332.231	9.113	-0.178	-0.135
-331.216	-58.672	0.117	-0.051
-330.202	345.358	-0.166	-0.327
-329.187	-87.743	-0.276	-0.083
-328.172	-74.623	-0.071	0.026
-327.158	800.000	0.094	0.266
-326.143	157.445	0.144	0.200
-325.129	-125.564	0.105	0.016
-324.114	-173.372	0.074	-0.002
-323.099	-84.997	-0.308	-0.097
-322.085	-6.315	0.183	-0.125
-321.070	284.810	0.213	-0.384
-320.056	-200.000	-0.016	-0.178
-319.041	-141.804	0.158	0.016
-318.026	-200.000	0.000	0.371
-317.012	-200.000	0.023	0.285
-315.997	674.782	0.051	0.132
-314.983	-167.266	0.147	0.006
-313.968	-31.595	0.254	0.143
-312.953	283.728	-0.057	-0.102
-311.939	321.659	0.158	-0.300
-310.924	-174.838	0.195	0.005
-309.910	52.434	0.209	0.199
-308.895	-120.954	-0.130	-0.022
-307.880	22.096	0.096	0.079
-306.866	209.126	-0.137	-0.215
-305.851	-200.000	-0.025	0.134
-304.837	-71.642	-0.266	-0.099
-303.822	641.016	0.072	0.184
-302.807	-99.477	0.344	-0.087
-301.793	-200.000	0.009	-0.060
-300.778	-175.563	-0.421	0.011
-299.764	92.101	-0.113	0.127
-298.749	-17.482	0.213	0.134
-297.735	-200.000	-0.070	-0.384
-296.720	-21.772	-0.253	-0.154
-295.705	224.463	0.044	0.070
-294.691	-171.960	-0.100	0.003
-293.676	97.090	-0.110	0.127
-292.662	-200.000	0.007	0.144
-291.647	545.541	0.138	0.329
-290.632	138.452	0.155	0.204
-289.618	116.232	0.192	0.234
-288.603	800.000	-0.060	-0.209
-287.589	-200.000	-0.038	-0.361
-286.574	19.046	0.089	-0.071
-285.559	-200.000	-0.003	0.036
-284.545	800.000	0.053	-0.156
-283.530	-128.304	0.217	0.031
-282.516	-200.000	-0.006	0.156
-281.501	8.024	-0.187	-0.140
-280.486	-31.366	0.164	0.092
-279.472	800.000	0.044	0.124
-278.457	-55.221	0.068	0.031
-277.443	256.006	-0.134	0.229
-276.428	-118.422	0.217	-0.038
-275.413	6.162	-0.275	0.203
-274.399	-200.000	-0.039	0.283
-273.384	-132.435	0.190	0.025
-272.370	253.993	-0.112	0.191
-271.355	-24.523	-0.156	0.093
-270.340	-73.661	0.241	0.088
-269.326	-56.662	-0.174	-0.077
-268.311	199.716	0.185	0.283
-267.297	-83.972	0.287	-0.091
-266.282	279.375	0.117	-0.208
-265.267	84.511	0.025	0.027
-264.253	-200.000	0.018	0.232
-263.238	-47.120	-0.237	-0.115
-262.224	126.453	0.221	-0.279
-261.209	61.162	-0.155	-0.153
-260.195	133.608	0.241	0.311
-259.180	422.605	-0.179	0.385
-258.165	-74.034	-0.205	0.074
-257.151	-200.000	-0.044	-0.258
-256.136	-40.911	-0.337	0.174
-255.122	-200.000	-0.049	0.307
-254.107	83.269	0.276	0.300
-253.092	-200.000	-0.007	0.107
-252.078	-173.821	-0.091	-0.003
-251.063	93.214	-0.225	-0.254
-250.049	800.000	-0.100	-0.292
-249.034	22.226	-0.231	-0.188
-248.019	800.000	-0.010	-0.040
-247.005	-18.248	-0.175	-0.109
-245.990	-9.410	0.093	0.062
-244.976	-200.000	-0.008	-0.171
-243.961	-140.037	-0.129	0.014
-242.946	-200.000	0.086	0.420
-241.932	107.372	-0.221	-0.262
-240.917	232.461	-0.115	0.188
-239.903	-73.780	-0.187	0.068
-238.888	33.002	0.139	0.120
-237.873	-82.231	0.215	-0.070
-236.859	-175.382	-0.511	0.014
-235.844	-49.379	0.065	-0.031
-234.830	397.325	0.119	-0.249
-233.815	244.543	-0.128	0.214
-232.800	184.861	-0.056	0.082
-231.786	295.255	0.166	0.303
-230.771	-101.574	-0.207	0.050
-229.757	-200.000	-0.036	0.334
-228.742	-119.630	0.238	0.041
-227.727	-200.000	-0.003	0.085
-226.713	306.788	-0.163	-0.303
-225.698	-186.205	-0.112	0.002
-224.684	-117.399	-0.232	0.042
-223.669	423.805	-0.081	0.173
-222.655	-200.000	0.053	0.244
-221.640	194.128	-0.088	0.132
-220.625	-200.000	0.127	0.582
-219.611	454.005	-0.085	-0.187
-218.596	459.697	-0.031	-0.070
-217.582	-20.755	-0.336	-0.205
-216.567	-40.540	-0.221	0.114
-215.552	655.930	-0.079	0.201
-214.538	193.806	-0.138	-0.208
-213.523	-124.413	0.118	0.018
-212.509	-87.934	0.097	0.029
-211.494	-200.000	0.003	0.214
-210.479	-200.000	-0.058	-0.314
-209.465	-200.000	-0.004	0.030
-208.450	-67.456	0.173	0.068
-207.436	-109.074	-0.291	0.062
-206.421	-100.751	-0.218	0.053
-205.406	-200.000	-0.009	-0.225
-204.392	-1.885	-0.302	-0.212
-203.377	-120.235	-0.114	0.019
-202.363	30.177	-0.259	-0.220
-201.348	451.016	-0.114	0.250
-200.333	-94.160	0.214	-0.058
-199.319	-89.457	-0.077	-0.022
-198.304	-200.000	-0.014	0.178
-197.290	154.466	-0.102	-0.139
-196.275	-200.000	0.017	0.125
-195.260	8.804	-0.124	0.093
-194.246	235.889	0.076	-0.125
-193.231	-51.269	0.069	0.032
-192.217	-200.000	0.011	-0.081
-191.202	244.429	-0.125	-0.209
-190.187	-121.282	0.419	-0.070
-189.173	-92.248	0.208	-0.058
-188.158	2.146	-0.044	0.031
-187.144	2.340	0.087	-0.062
-186.129	12.549	-0.075	0.058
-185.114	-200.000	0.003	0.017
-184.100	-10.821	0.171	0.113
-183.085	-7.272	-0.245	0.165
-182.071	-200.000	-0.010	0.361
-181.056	-200.000	0.028	0.378
-180.042	800.000	-0.075	0.306
-179.027	800.000	-0.092	0.323
-178.012	-200.000	-0.010	0.274
-176.998	-84.356	0.465	0.146
-175.983	-81.023	0.140	0.046
-174.969	-136.884	0.172	-0.020
-173.954	-115.293	0.068	0.013
-172.939	-164.653	0.116	-0.005
-171.925	-64.395	-0.468	-0.189
-170.910	76.174	-0.085	-0.089
-169.896	-10.170	0.273	0.180
-168.881	193.137	-0.184	0.277
-167.866	-132.908	-0.178	0.023
-166.852	-200.000	-0.021	-0.244
-165.837	-200.000	0.049	-0.596
-164.823	-196.438	0.486	-0.003
-163.808	143.768	0.079	-0.105
-162.793	691.112	-0.079	0.205
-161.779	53.915	0.214	0.204
-160.764	-113.538	-0.452	0.088
-159.750	167.972	0.059	0.083
-158.735	-12.770	0.218	-0.141
-157.720	-200.000	-0.016	0.128
-156.706	-200.000	0.035	0.305
-155.691	195.782	0.170	0.258
-154.677	-134.451	-0.268	-0.033
-153.662	-126.511	0.336	-0.050
-152.647	-12.982	0.308	-0.199
-151.633	-122.586	0.052	-0.008
-150.618	-39.341	-0.063	-0.033
-149.604	-200.000	-0.026	-0.187
-148.589	5.977	-0.187	0.137
-147.574	199.993	0.216	0.329
-146.560	234.776	0.164	-0.268
-145.545	211.454	0.037	0.058
-144.531	-131.829	0.438	0.057
-143.516	338.985	0.186	0.360
-142.502	-170.197	-0.212	-0.007
-141.487	-143.999	0.061	-0.006
-140.472	716.215	0.038	0.100
-139.458	-200.000	-0.000	-0.265
-138.443	800.000	0.020	-0.060
-137.429	-144.739	-0.120	0.011
-136.414	537.021	-0.055	-0.131
-135.399	110.154	-0.113	0.134
-134.385	800.000	0.025	-0.072
-133.370	111.025	0.155	-0.185
-132.356	-104.858	-0.107	0.024
-131.341	-200.000	0.022	-0.127
-130.326	-200.000	-0.000	-0.217
-129.312	-41.232	0.341	-0.174
-128.297	-200.000	0.025	0.113
-127.283	711.120	-0.185	0.487
-126.268	-29.254	-0.171	-0.097
-125.253	90.717	-0.083	-0.092
-124.239	-84.512	0.147	-0.046
-123.224	-60.908	-0.205	0.086
-122.210	671.230	0.141	0.363
-121.195	800.000	0.043	0.163
-120.180	800.000	0.052	0.151
-119.166	61.852	-0.238	0.235
-118.151	46.212	0.281	-0.258
-117.137	74.712	-0.160	-0.168
-116.122	234.683	0.041	0.067
-115.107	292.214	0.053	-0.096
-114.093	186.598	-0.275	0.407
-113.078	-88.774	-0.148	-0.044
-112.064	-70.088	-0.207	-0.078
-111.049	-111.602	0.175	0.035
-110.034	280.827	-0.015	0.026
-109.020	138.453	0.162	-0.211
-108.005	-72.267	0.282	0.104
-106.991	-127.294	-0.122	-0.018
-105.976	-47.296	0.451	0.218
-104.962	12.685	0.118	-0.090
-103.947	-89.850	-0.072	-0.021
-102.932	800.000	0.055	0.164
-101.918	127.971	0.091	-0.114
-100.903	-23.980	0.128	-0.076
-99.889	-144.432	-0.456	-0.042
-98.874	74.229	0.171	0.178
-97.859	-200.000	-0.022	0.234
-96.845	23.742	0.314	0.256
-95.830	-196.959	0.228	0.001
-94.816	111.680	-0.103	-0.123
-93.801	524.495	0.041	0.097
-92.786	42.653	-0.238	0.215
-91.772	193.183	-0.123	-0.184
-90.757	202.482	-0.200	0.306
-89.743	-28.206	0.113	-0.065
-88.728	98.463	-0.294	-0.336
-87.713	-190.617	-0.040	0.000
-86.699	-200.000	-0.052	-0.254
-85.684	-95.261	-0.173	-0.046
-84.670	-200.000	-0.036	-0.226
-83.655	99.279	0.116	0.132
-82.640	152.204	0.215	0.291
-81.626	641.365	-0.048	-0.121
-80.611	77.473	-0.135	0.143
-79.597	-90.258	-0.211	0.061
-78.582	261.562	-0.107	0.183
-77.567	-53.420	0.198	-0.090
-76.553	800.000	-0.105	0.289
-75.538	-87.913	-0.240	-0.072
-74.524	-192.241	0.299	0.003
-73.509	-185.691	0.338	0.005
-72.494	-185.162	0.212	0.003
-71.480	133.530	0.150	-0.192
-70.465	243.765	0.205	-0.341
-69.451	-200.000	0.052	-0.233
-68.436	-138.778	0.353	0.038
-67.422	2.844	0.150	-0.108
-66.407	90.139	0.335	0.371
-65.392	-17.671	-0.193	0.120
-64.378	800.000	-0.059	0.252
-63.363	800.000	-0.029	0.107
-62.349	-99.798	-0.366	0.091
-61.334	-15.978	-0.835	-0.526
-60.319	42.600	0.320	0.289
-59.305	-200.000	0.046	-0.998
-58.290	280.501	0.565	1.000
-57.276	585.707	0.661	1.608
-56.261	-200.000	90.437	541.826
-55.246	529.393	1365.066	3189.909
-54.232	152.277	2576.739	3480.514
-53.217	116.694	2174.726	2640.727
-52.203	48.070	1633.424	1511.137
-51.188	39.924	1368.838	1216.421
-50.173	36.633	1325.673	1158.344
-49.159	57.447	1372.421	1326.385
-48.144	62.076	1391.001	1372.440
-47.130	40.234	1346.616	1198.356
-46.115	36.618	1328.474	1160.515
-45.100	36.427	1324.151	1155.554
-44.086	36.312	1321.716	1152.697
-43.071	36.277	1319.466	1150.478
-42.057	36.249	1317.723	1148.747
-41.042	36.349	1315.636	1147.478
-40.027	36.344	1314.081	1146.044
-39.013	36.393	1312.006	1144.481
-37.998	36.514	1309.690	1143.131
-36.984	36.524	1307.924	1141.599
-35.969	36.451	1306.764	1140.110
-34.954	36.516	1304.980	1138.893
-33.940	36.631	1303.578	1138.303
-32.925	36.567	1301.687	1136.231
-31.911	36.640	1300.562	1135.631
-30.896	36.591	1298.808	1133.766
-29.881	36.593	1297.633	1132.711
-28.867	36.659	1296.408	1131.982
-27.852	36.541	1294.780	1129.826
-26.838	36.628	1292.809	1128.566
-25.823	36.618	1292.136	1127.874
-24.809	36.524	1290.439	1125.805
-23.794	36.653	1289.291	1125.507
-22.779	36.521	1287.742	1123.345
-21.765	36.572	1286.645	1122.637
-20.750	36.482	1285.616	1121.177
-19.736	36.381	1284.429	1119.508
-18.721	36.419	1283.231	1118.642
-17.706	36.388	1281.556	1116.955
-16.692	36.435	1280.394	1116.169
-15.677	36.571	1279.136	1115.817
-14.663	36.597	1278.050	1114.971
-13.648	36.474	1277.252	1113.524
-12.633	36.411	1276.556	1112.509
-11.619	36.449	1275.348	1111.634
-10.604	36.447	1274.641	1110.960
-9.590	36.504	1273.304	1110.080
-8.575	36.351	1272.849	1108.757
-7.560	36.480	1271.730	1108.478
-6.546	36.399	1271.205	1107.516
-5.531	36.319	1270.275	1106.203
-4.517	36.427	1268.889	1105.566
-3.502	36.486	1267.740	1104.863
-2.487	36.417	1267.003	1103.782
-1.473	36.439	1262.666	1100.083
-0.458	34.843	1248.031	1078.299
0.556	31.025	1229.091	1037.159
1.571	27.117	1232.895	1018.426
2.586	26.030	1248.460	1025.015
3.600	25.157	1237.424	1010.949
4.615	18.214	1162.785	912.970
5.629	7.028	1082.964	794.333
6.644	2.115	1059.938	753.187
7.659	1.656	1057.536	749.151
8.673	1.277	1056.492	746.483
9.688	1.445	1054.958	746.158
10.702	1.848	1054.011	747.397
11.717	8.674	1063.861	788.017
12.731	19.091	1078.698	850.686
13.746	23.728	1084.125	877.866
14.761	24.391	1084.794	881.604
15.775	24.387	1084.370	881.164
16.790	24.176	1083.479	879.322
17.804	24.250	1082.783	879.042
18.819	24.296	1082.243	878.753
19.834	24.333	1081.975	878.641
20.848	24.404	1081.592	878.600
21.863	24.373	1081.313	878.142
22.877	24.388	1080.223	877.256
23.892	24.222	1080.076	876.240
24.907	24.288	1079.052	875.656
25.921	24.318	1077.980	874.856
26.936	24.303	1076.147	873.217
27.950	24.210	1074.671	871.491
28.965	24.040	1073.177	869.371
29.980	24.204	1071.411	868.661
30.994	24.384	1070.565	868.778
32.009	24.392	1069.497	867.874
33.023	24.274	1067.948	865.965
34.038	24.229	1067.628	865.412
35.053	24.236	1067.313	865.114
36.067	24.552	1065.888	865.412
37.082	24.407	1065.685	864.469
38.096	24.542	1065.217	864.664
39.111	24.709	1063.935	864.357
40.126	24.515	1062.355	862.061
41.140	24.242	1060.757	859.370
42.155	23.936	1059.847	857.081
43.169	23.918	1058.763	856.044
44.184	23.938	1057.977	855.426
45.199	23.944	1056.473	854.169
46.213	23.964	1055.776	853.625
47.228	24.213	1055.299	854.357
48.242	24.293	1054.072	853.667
49.257	24.407	1053.824	853.937
50.271	24.375	1053.111	853.134
51.286	24.442	1052.145	852.593
52.301	24.428	1051.251	851.726
53.315	24.406	1050.359	850.823
54.330	24.278	1049.680	849.590
55.344	24.290	1048.719	848.793
56.359	24.285	1047.719	847.888
57.374	24.161	1046.607	846.323
58.388	24.161	1045.735	845.543
59.403	23.997	1045.151	844.216
60.417	24.009	1044.226	843.452
61.432	23.960	1044.002	842.963
62.447	24.113	1043.073	842.865
63.461	24.188	1042.020	842.290
64.476	24.080	1041.207	841.050
65.490	23.946	1040.408	839.697
66.505	23.961	1039.765	839.175
67.520	24.160	1038.551	839.059
68.534	23.936	1037.585	837.153
69.549	23.596	1036.617	834.695
70.563	23.640	1035.914	834.262
71.578	23.606	1034.764	833.104
72.593	23.559	1033.791	832.028
73.607	23.671	1033.149	831.959
74.622	23.859	1033.142	832.761
75.636	24.009	1032.241	832.666
76.651	23.767	1031.218	830.635
77.666	23.701	1030.619	829.768
78.680	23.811	1029.955	829.676
79.695	23.931	1029.535	829.825
80.709	23.945	1028.897	829.301
81.724	23.914	1027.937	828.311
82.739	24.065	1026.788	828.014
83.753	24.407	1026.529	829.322
84.768	24.663	1025.950	829.967
85.782	24.821	1024.834	829.725
86.797	24.662	1023.889	828.152
87.812	24.423	1023.298	826.493
88.826	24.690	1021.920	826.539
89.841	24.640	1021.356	825.779
90.855	24.667	1020.747	825.339
91.870	24.596	1020.299	824.576
92.884	24.399	1018.748	822.341
93.899	24.504	1017.765	821.958
94.914	24.555	1016.749	821.299
95.928	24.399	1015.424	819.439
96.943	24.217	1014.512	817.798
97.957	23.940	1013.553	815.682
98.972	23.785	1012.255	813.856
99.987	24.126	1011.781	814.965
101.001	24.382	1011.015	815.446
102.016	24.380	1009.749	814.341
103.030	24.267	1009.018	813.167
104.045	24.059	1008.053	811.367
105.060	23.857	1007.095	809.604
106.074	24.124	1006.205	810.033
107.089	24.476	1005.823	811.255
108.103	24.373	1004.586	809.714
109.118	24.221	1003.052	807.720
110.133	24.122	1001.987	806.343
111.147	23.922	1000.963	804.542
112.162	23.749	1000.264	803.129
113.176	24.030	999.587	803.783
114.191	24.034	998.330	802.715
115.206	23.629	997.903	800.475
116.220	23.632	996.850	799.576
117.235	23.680	996.013	799.050
118.249	23.675	995.509	798.552
119.264	23.563	994.712	797.337
120.279	23.776	993.771	797.469
121.293	23.813	993.069	797.001
122.308	23.834	992.105	796.252
123.322	23.652	991.106	794.564
124.337	23.632	989.725	793.300
125.352	23.155	988.013	789.727
126.366	23.055	986.917	788.337
127.381	23.841	987.581	792.300
128.395	24.183	986.799	793.125
129.410	24.347	986.026	793.163
130.424	24.370	984.773	792.187
131.439	24.338	983.953	791.318
132.454	24.329	982.749	790.240
133.468	24.318	982.013	789.528
134.483	24.430	981.249	789.338
135.497	24.575	980.634	789.415
136.512	24.571	979.877	788.719
137.527	24.556	979.055	787.920
138.541	24.507	978.141	786.901
139.556	24.565	977.760	786.780
140.570	24.485	977.247	785.944
141.585	24.737	975.608	785.664
142.600	24.619	974.428	784.127
143.614	24.806	973.739	784.324
144.629	24.830	973.513	784.178
145.643	24.670	971.982	782.175
146.658	24.635	970.715	780.933
147.673	24.277	969.662	778.455
148.687	24.403	968.478	777.985
149.702	24.315	967.368	776.641
150.716	24.367	966.107	775.786
151.731	24.489	966.160	776.289
152.746	24.590	965.510	776.137
153.760	24.681	965.054	776.097
154.775	24.721	964.185	775.501
155.789	24.668	963.469	774.630
156.804	24.565	962.568	773.390
157.819	24.571	961.994	772.887
158.833	24.781	961.320	773.185
159.848	24.741	960.285	772.109
160.862	24.631	958.850	770.412
161.877	24.681	957.713	769.648
162.892	24.661	957.290	769.154
163.906	24.725	955.608	768.009
164.921	24.623	954.846	766.890
165.935	24.751	954.011	766.700
166.950	24.691	953.463	765.938
167.964	24.630	952.706	765.000
168.979	24.400	951.478	762.962
169.994	24.470	950.458	762.374
171.008	24.743	950.070	763.161
172.023	24.635	949.712	762.348
173.037	24.576	948.173	760.794
174.052	24.340	947.246	758.976
175.067	24.482	946.313	758.767
176.081	24.551	945.667	758.471
177.096	24.480	945.535	757.999
178.110	24.258	944.239	755.950
179.125	24.169	943.262	754.725
180.140	24.136	942.998	754.306
181.154	24.256	942.961	754.720
182.169	24.546	942.722	755.690
183.183	24.677	942.569	756.055
184.198	24.721	941.047	754.951
185.213	24.639	940.227	753.883
186.227	24.678	939.807	753.642
187.242	24.694	939.220	753.172
188.256	24.788	938.602	753.005
189.271	24.698	938.227	752.261
190.286	24.408	936.903	749.911
191.300	23.848	934.959	745.940
192.315	23.069	933.897	741.761
193.329	22.935	933.523	740.836
194.344	23.997	933.614	745.296
195.359	24.608	933.667	747.829
196.373	24.700	932.887	747.524
197.388	24.523	932.267	746.222
198.402	24.445	931.909	745.542
199.417	24.628	931.103	745.594
200.432	24.319	930.244	743.551
201.446	24.268	929.087	742.349
202.461	24.233	928.918	742.002
203.475	23.335	926.943	736.626
204.490	22.609	925.122	732.101
205.504	23.461	925.923	736.209
206.519	24.038	925.961	738.572
207.534	24.228	925.425	738.866
208.548	24.525	925.681	740.238
209.563	24.373	923.981	738.181
210.577	24.284	924.105	737.846
211.592	24.677	923.591	738.997
212.607	24.768	922.581	738.499
213.621	24.747	921.638	737.592
214.636	24.839	920.990	737.387
215.650	24.705	920.218	736.151
216.665	24.646	919.829	735.534
217.680	24.723	919.148	735.238
218.694	24.163	917.869	731.851
219.709	24.172	917.048	731.168
220.723	24.539	917.060	732.622
221.738	24.555	916.219	731.947
222.753	24.624	915.276	731.414
223.767	24.654	915.333	731.517
224.782	24.847	914.977	731.960
225.796	24.682	914.584	730.905
226.811	24.172	912.930	727.434
227.826	23.641	911.191	723.821
228.840	23.762	910.540	723.734
229.855	23.797	910.157	723.507
230.869	23.396	909.286	721.119
231.884	23.928	909.573	723.449
232.899	24.635	909.420	726.134
233.913	24.480	908.608	724.795
234.928	24.412	908.036	723.996
235.942	24.441	907.265	723.437
236.957	24.087	906.632	721.434
237.972	24.193	905.969	721.270
238.986	24.226	905.720	721.143
240.001	24.149	905.253	720.396
241.015	24.504	903.871	720.664
242.030	24.537	903.901	720.757
243.045	24.601	903.512	720.642
244.059	24.769	902.882	720.755
245.074	24.407	901.948	718.486
246.088	24.293	900.927	717.150
247.103	24.467	900.687	717.594
248.117	24.962	900.671	719.508
249.132	25.326	900.257	720.576
250.147	25.469	899.460	720.447
251.161	25.502	899.443	720.504
252.176	25.412	898.655	719.448
253.190	25.638	897.523	719.381
254.205	25.668	897.161	719.149
255.220	25.525	896.883	718.289
256.234	25.526	896.286	717.753
257.249	25.405	895.132	716.281
258.263	25.324	894.681	715.533
259.278	25.501	893.755	715.437
260.293	25.509	893.487	715.189
261.307	25.308	892.809	713.783
262.322	25.339	891.151	712.520
263.336	24.411	889.949	707.816
264.351	23.461	888.001	702.442
265.366	23.588	887.866	702.774
266.380	24.558	888.785	707.285
267.395	25.103	888.151	708.872
268.409	24.970	887.410	707.692
269.424	25.260	887.105	708.531
270.439	25.172	886.536	707.666
271.453	25.441	885.626	707.941
272.468	25.416	885.586	707.748
273.482	25.540	885.199	707.862
274.497	25.000	884.137	704.827
275.512	24.723	882.858	702.657
276.526	25.138	883.075	704.396
277.541	25.365	882.624	704.865
278.555	25.079	881.682	702.930
279.570	24.975	880.709	701.685
280.585	25.088	880.496	701.895
281.599	24.925	879.765	700.615
282.614	24.487	878.149	697.553
283.628	24.398	877.937	696.975
284.643	24.865	877.682	698.534
285.657	24.375	876.403	695.545
286.672	24.079	876.057	694.055
287.687	24.784	875.515	696.309
288.701	24.901	874.883	696.199
289.716	24.482	873.854	693.693
290.730	24.582	873.015	693.353
291.745	24.316	872.313	691.701
292.760	24.367	872.560	692.036
293.774	25.389	872.861	696.176
294.789	25.840	872.418	697.509
295.803	25.887	872.290	697.525
296.818	25.963	871.063	696.777
297.833	25.442	870.388	694.161
298.847	25.315	869.245	692.700
299.862	25.567	869.255	693.620
300.876	25.901	868.559	694.287
301.891	25.733	868.005	693.136
302.906	25.163	867.416	690.412
303.920	25.482	866.936	691.197
304.935	25.868	866.627	692.372
305.949	25.726	866.051	691.303
306.964	25.423	865.306	689.487
307.979	25.502	864.655	689.211
308.993	25.862	864.708	690.572
310.008	25.747	864.281	689.729
311.022	25.667	862.811	688.188
312.037	25.564	862.475	687.466
313.052	25.259	861.450	685.424
314.066	24.484	859.840	681.125
315.081	23.883	859.300	678.347
316.095	25.008	859.670	682.868
317.110	25.462	859.243	684.198
318.125	24.498	857.745	679.279
319.139	23.481	856.184	674.118
320.154	23.458	855.925	673.766
321.168	24.469	856.367	677.898
322.183	25.099	856.277	680.158
323.197	25.211	856.049	680.340
324.212	25.457	855.801	681.017
325.227	25.586	855.016	680.821
326.241	25.466	854.099	679.576
327.256	25.471	853.518	679.071
328.270	25.263	853.299	678.050
329.285	25.139	852.065	676.545
330.300	24.813	851.101	674.489
331.314	25.118	851.384	675.802
332.329	25.440	851.575	677.111
333.343	25.631	850.788	677.142
334.358	25.622	850.202	676.581
335.373	25.766	849.981	676.889
336.387	26.000	849.871	677.621
337.402	26.062	849.597	677.573
338.416	26.027	849.281	677.131
339.431	26.128	849.064	677.276
340.446	26.150	848.724	677.028
341.460	26.079	848.535	676.552
342.475	25.919	847.615	675.159
343.489	25.943	847.363	674.986
344.504	26.204	847.233	675.801
345.519	26.463	846.745	676.321
346.533	26.474	846.166	675.841
347.548	26.614	845.425	675.709
348.562	26.266	845.187	674.164
349.577	26.273	844.535	673.608
350.592	26.396	843.723	673.359
351.606	26.323	842.848	672.332
352.621	26.092	841.962	670.704
353.635	26.202	841.092	670.361
354.650	25.668	839.697	667.209
355.665	24.669	838.245	662.297
356.679	24.855	838.530	663.156
357.694	25.494	837.940	664.994
358.708	25.501	837.143	664.328
359.723	25.835	836.792	665.223
360.738	26.200	836.469	666.258
361.752	26.169	836.422	666.044
362.767	26.512	835.900	666.836
363.781	26.678	835.680	667.212
364.796	26.786	835.420	667.342
365.810	26.864	834.994	667.231
366.825	26.752	834.631	666.469
367.840	26.438	833.526	664.376
368.854	26.167	832.462	662.475
369.869	26.176	832.309	662.329
370.883	26.047	831.950	661.510
371.898	26.035	831.202	660.811
372.913	26.077	831.143	660.859
373.927	26.260	830.946	661.316
374.942	26.548	830.067	661.610
375.956	26.517	829.740	661.177
376.971	26.758	829.332	661.674
377.986	26.943	828.660	661.753
379.000	26.607	828.569	660.397
380.015	26.590	827.809	659.672
381.029	26.653	827.100	659.278
382.044	26.847	826.747	659.645
383.059	26.801	826.521	659.238
384.073	26.880	825.848	658.928
385.088	26.796	824.973	657.866
386.102	26.517	824.364	656.312
387.117	26.499	823.760	655.708
388.132	26.176	822.537	653.508
389.146	25.655	821.745	650.936
390.161	26.063	821.699	652.320
391.175	26.629	821.463	654.117
392.190	26.097	820.371	651.271
393.205	24.677	818.461	644.582
394.219	23.344	816.411	638.113
395.234	23.245	816.159	637.504
396.248	24.822	817.694	644.330
397.263	26.431	818.286	650.532
398.278	26.269	818.308	649.908
399.292	26.097	817.291	648.423
400.307	25.935	816.966	647.527
401.321	26.040	816.863	647.765
402.336	26.560	816.787	649.515
403.350	26.787	816.690	650.193
404.365	27.107	816.544	651.166
405.380	27.461	816.204	652.107
406.394	27.529	815.182	651.476
407.409	27.467	814.830	650.914
408.423	27.204	814.831	649.918
409.438	27.468	814.334	650.405
410.453	27.521	813.747	650.070
411.467	27.391	813.161	649.080
412.482	27.333	812.782	648.514
413.496	27.541	812.239	648.764
414.511	27.527	812.058	648.510
415.526	27.518	811.363	647.868
416.540	27.243	811.011	646.551
417.555	27.009	810.117	644.950
418.569	27.165	809.590	645.027
419.584	27.184	809.121	644.664
420.599	26.900	808.837	643.374
421.613	105.480	1277.790	1432.465
422.628	91.047	1346.118	1432.561
