DTS Sentinel unit serial number:	SN413079Multiplexer serial number:	ORYXHardware model number:	OX4-SRSoftware version number:	ORYX F/W v4.00 Oryx Data Collector v3.7.2.0data status	okinstallation	princeton_trtdifferential loss correction	single-endedforward channel	channel 1reverse channel	N/Adate	2019/09/19time	01:22:35forward acquisition time	60.00reverse acquisition time	0.00gamma	496.2192k internal	0.2344k external	0.2344temperature offset calibration	1.0022default loss term (dB/km)	0.3790temperature slope calibration	1.0000multiplexer offset coefficient	1.0000multiplexer slope coefficient	1.0000fibre end	0.00T internal ref (°C)	21.69T ext. ref 1 (°C)	0.71T ext. ref 2 (°C)	14.98length (m)	temperature (°C)	Stokes	anti-Stokes-747.200	-160.527	-0.715	0.038
-746.185	-121.138	-0.530	0.089
-745.171	-136.442	-0.057	0.007
-744.156	-98.655	0.133	0.034
-743.142	202.113	0.127	0.196
-742.127	800.000	0.052	-0.168
-741.112	-75.989	-0.265	-0.094
-740.098	85.492	-0.126	0.138
-739.083	449.947	0.017	-0.037
-738.069	-127.783	-0.392	0.057
-737.054	-15.407	0.260	-0.166
-736.039	800.000	0.044	-0.145
-735.025	800.000	-0.053	0.232
-734.010	-102.212	-0.151	-0.036
-732.996	154.746	-0.122	0.168
-731.981	-200.000	0.025	-0.155
-730.966	-91.647	0.253	0.072
-729.952	-98.715	-0.414	0.106
-728.937	-200.000	0.045	-0.291
-727.923	108.786	-0.172	0.205
-726.908	-143.771	-0.416	-0.039
-725.894	-101.822	-0.250	0.061
-724.879	-158.132	-0.049	-0.003
-723.864	-63.394	0.053	0.022
-722.850	-72.067	-0.033	0.012
-721.835	800.000	0.132	-0.371
-720.821	-90.316	-0.196	0.057
-719.806	51.088	-0.122	-0.115
-718.791	-62.296	0.159	0.066
-717.777	800.000	-0.067	-0.230
-716.762	66.195	-0.081	-0.082
-715.748	-25.423	-0.085	0.050
-714.733	800.000	-0.067	0.243
-713.718	-37.322	0.158	0.084
-712.704	12.876	-0.136	-0.105
-711.689	-112.378	-0.048	0.010
-710.675	449.178	0.069	-0.152
-709.660	-10.905	0.047	-0.031
-708.645	-200.000	-0.027	0.224
-707.631	-200.000	0.089	-0.569
-706.616	-200.000	0.014	-0.092
-705.602	-28.378	0.518	-0.299
-704.587	-43.844	-0.143	-0.072
-703.572	-22.023	0.198	0.120
-702.558	163.927	0.188	-0.264
-701.543	396.334	0.154	0.320
-700.529	-33.419	0.107	-0.059
-699.514	-200.000	-0.005	-0.238
-698.499	35.878	0.262	-0.230
-697.485	434.714	-0.136	0.296
-696.470	167.167	-0.190	-0.270
-695.456	800.000	-0.047	-0.162
-694.441	14.531	0.265	-0.207
-693.426	186.965	-0.236	0.351
-692.412	-15.909	0.273	0.174
-691.397	469.309	0.086	0.192
-690.383	-139.461	0.108	0.012
-689.368	450.734	-0.134	-0.295
-688.354	800.000	-0.111	0.418
-687.339	239.995	0.137	-0.228
-686.324	137.284	0.070	0.091
-685.310	-119.100	-0.134	0.023
-684.295	-150.149	-0.327	0.025
-683.281	-52.942	0.074	0.034
-682.266	800.000	-0.100	0.335
-681.251	-200.000	-0.010	0.223
-680.237	-0.604	0.216	-0.153
-679.222	78.100	0.109	0.116
-678.208	-200.000	-0.035	0.172
-677.193	-161.808	-0.164	-0.008
-676.178	612.774	-0.089	-0.223
-675.164	-26.044	0.382	-0.224
-674.149	-200.000	-0.007	0.119
-673.135	-60.312	-0.500	-0.212
-672.120	800.000	0.054	0.210
-671.105	-200.000	0.010	-0.238
-670.091	272.232	-0.129	0.227
-669.076	800.000	0.016	0.066
-668.062	-78.186	-0.210	-0.072
-667.047	-200.000	-0.029	-0.136
-666.032	-64.393	-0.327	-0.132
-665.018	800.000	0.038	0.153
-664.003	104.253	0.184	-0.215
-662.989	173.297	-0.132	-0.189
-661.974	-42.934	0.096	-0.049
-660.959	-83.932	0.226	-0.072
-659.945	-171.288	-0.237	-0.008
-658.930	-38.455	0.134	0.071
-657.916	92.748	-0.111	-0.125
-656.901	41.243	0.132	0.119
-655.886	800.000	-0.072	0.259
-654.872	35.569	-0.225	-0.197
-653.857	-90.818	-0.145	0.042
-652.843	284.589	0.109	-0.195
-651.828	-97.081	-0.178	0.046
-650.814	75.863	-0.210	-0.221
-649.799	-118.742	-0.235	0.041
-648.784	-5.093	-0.013	-0.009
-647.770	-115.832	0.119	-0.022
-646.755	-17.442	-0.432	-0.271
-645.741	-200.000	0.019	-0.486
-644.726	-25.902	-0.203	0.119
-643.711	800.000	-0.075	-0.243
-642.697	-127.786	0.184	0.026
-641.682	-200.000	-0.016	0.244
-640.668	410.650	0.013	0.027
-639.653	-21.663	0.266	-0.161
-638.638	-60.314	-0.374	0.159
-637.624	-52.528	-0.162	0.075
-636.609	28.782	0.358	0.302
-635.595	444.691	0.122	-0.267
-634.580	84.294	0.134	-0.145
-633.565	800.000	0.026	0.093
-632.551	110.659	0.063	-0.076
-631.536	-6.995	0.095	-0.064
-630.522	-200.000	0.015	0.091
-629.507	-124.618	-0.159	0.025
-628.492	42.480	0.207	-0.187
-627.478	2.149	-0.052	0.038
-626.463	318.186	0.070	-0.133
-625.449	86.620	-0.188	-0.207
-624.434	800.000	0.077	0.279
-623.419	62.521	0.310	-0.308
-622.405	73.064	-0.223	-0.232
-621.390	73.318	0.134	0.140
-620.376	-200.000	0.020	-0.093
-619.361	-41.982	-0.204	-0.104
-618.346	-70.219	-0.018	0.007
-617.332	-67.843	0.397	0.155
-616.317	-51.504	0.239	-0.111
-615.303	228.390	0.203	0.330
-614.288	800.000	-0.029	0.112
-613.273	119.380	-0.078	0.096
-612.259	-175.674	0.420	-0.011
-611.244	-93.134	0.162	-0.045
-610.230	-76.333	0.067	-0.023
-609.215	-200.000	0.029	0.148
-608.201	-140.109	-0.097	0.010
-607.186	800.000	-0.016	-0.049
-606.171	31.245	-0.239	-0.204
-605.157	197.761	-0.080	-0.121
-604.142	800.000	0.058	-0.184
-603.128	-101.408	0.115	0.028
-602.113	-200.000	0.036	-0.472
-601.098	-49.500	0.070	0.033
-600.084	-19.666	-0.079	-0.048
-599.069	-1.803	0.152	-0.106
-598.055	201.255	-0.013	-0.020
-597.040	-138.202	-0.209	-0.023
-596.025	-64.438	0.222	0.090
-595.011	-109.249	-0.279	-0.059
-593.996	-168.286	-0.379	-0.015
-592.982	39.506	-0.139	0.124
-591.967	431.457	-0.074	-0.159
-590.952	-4.016	-0.162	0.112
-589.938	-200.000	0.033	-0.238
-588.923	-200.000	-0.011	0.071
-587.909	61.712	0.236	-0.234
-586.894	-94.450	0.377	0.102
-585.879	-141.547	-0.183	-0.018
-584.865	-64.424	0.170	-0.069
-583.850	-200.000	-0.020	-0.216
-582.836	800.000	0.051	0.162
-581.821	-52.995	-0.431	-0.197
-580.806	49.106	0.203	0.190
-579.792	-200.000	0.005	-0.230
-578.777	354.655	-0.158	-0.313
-577.763	93.556	0.009	-0.010
-576.748	-169.595	0.211	-0.008
-575.733	-200.000	-0.006	-0.234
-574.719	-200.000	-0.006	-0.045
-573.704	-56.509	0.192	-0.084
-572.690	-5.958	-0.110	-0.075
-571.675	-200.000	-0.006	-0.127
-570.661	160.011	-0.007	0.010
-569.646	32.106	-0.167	-0.143
-568.631	-4.043	-0.204	-0.141
-567.617	-88.356	-0.148	-0.044
-566.602	-67.549	0.261	0.102
-565.588	-124.654	0.281	0.043
-564.573	115.137	0.391	-0.474
-563.558	800.000	-0.022	-0.075
-562.544	216.059	0.028	-0.044
-561.529	200.656	0.136	0.208
-560.515	182.180	-0.043	0.063
-559.500	-200.000	-0.045	-0.242
-558.485	-130.275	-0.383	-0.052
-557.471	-93.289	0.322	0.089
-556.456	-12.217	-0.189	0.123
-555.442	-200.000	-0.016	-0.096
-554.427	111.492	-0.117	0.140
-553.412	14.353	0.268	-0.208
-552.398	-200.000	0.043	-0.217
-551.383	10.828	-0.345	0.261
-550.369	23.530	-0.259	0.211
-549.354	800.000	-0.113	0.338
-548.339	-164.035	-0.266	-0.012
-547.325	-104.287	0.448	0.103
-546.310	148.048	0.200	-0.268
-545.296	315.932	0.074	0.139
-544.281	121.002	-0.269	0.332
-543.266	800.000	0.062	-0.236
-542.252	302.907	-0.161	-0.296
-541.237	-120.502	0.119	-0.020
-540.223	800.000	0.028	-0.092
-539.208	536.807	-0.067	0.158
-538.193	-175.924	-0.183	0.005
-537.179	5.995	-0.200	0.147
-536.164	73.005	-0.065	0.067
-535.150	365.555	0.105	-0.210
-534.135	130.329	0.154	-0.196
-533.121	391.121	-0.150	-0.310
-532.106	-71.111	0.408	-0.152
-531.091	271.126	-0.113	-0.198
-530.077	255.044	0.044	-0.075
-529.062	-164.643	-0.106	0.005
-528.048	-117.539	-0.121	0.022
-527.033	-200.000	-0.002	0.022
-526.018	800.000	-0.079	-0.231
-525.004	-200.000	-0.033	0.331
-523.989	800.000	0.140	0.383
-522.975	-200.000	0.002	0.034
-521.960	-32.450	0.231	0.128
-520.945	800.000	-0.038	-0.138
-519.931	800.000	0.068	0.212
-518.916	534.443	-0.097	-0.229
-517.902	397.898	-0.079	-0.164
-516.887	624.847	0.029	0.073
-515.872	-200.000	0.026	0.118
-514.858	800.000	-0.082	0.247
-513.843	800.000	-0.120	-0.381
-512.829	163.444	-0.137	0.190
-511.814	25.717	-0.206	0.170
-510.799	779.515	-0.047	0.127
-509.785	337.926	-0.182	-0.351
-508.770	-200.000	0.008	0.080
-507.756	-103.782	-0.197	-0.046
-506.741	-5.601	-0.144	0.098
-505.726	-84.108	0.386	-0.122
-504.712	800.000	0.105	0.321
-503.697	800.000	0.035	0.118
-502.683	28.847	0.229	0.192
-501.668	800.000	0.068	-0.293
-500.653	-200.000	-0.014	0.354
-499.639	66.677	-0.111	0.112
-498.624	-6.244	-0.176	0.119
-497.610	96.324	0.131	0.149
-496.595	40.205	-0.142	0.127
-495.581	7.849	-0.190	0.141
-494.566	130.740	0.045	0.057
-493.551	800.000	-0.041	0.124
-492.537	-191.683	-0.074	-0.001
-491.522	8.498	-0.103	-0.077
-490.508	552.255	0.062	0.148
-489.493	594.458	0.044	-0.108
-488.478	120.751	0.292	0.360
-487.464	800.000	0.063	0.187
-486.449	103.759	0.162	0.189
-485.435	5.366	0.137	-0.100
-484.420	262.160	0.187	-0.322
-483.405	-109.993	-0.441	-0.091
-482.391	-129.919	0.430	-0.058
-481.376	-4.311	-0.282	0.194
-480.362	800.000	0.039	0.129
-479.347	-200.000	-0.034	0.279
-478.332	172.380	0.168	-0.240
-477.318	98.691	0.157	0.180
-476.303	-5.925	-0.077	-0.052
-475.289	-12.714	0.106	0.069
-474.274	-76.989	0.214	0.074
-473.259	141.201	-0.188	-0.246
-472.245	270.711	0.010	-0.018
-471.230	-200.000	-0.048	0.219
-470.216	-146.294	-0.274	0.024
-469.201	800.000	0.067	0.243
-468.186	207.387	-0.043	-0.066
-467.172	-200.000	-0.054	0.294
-466.157	-200.000	0.024	-0.189
-465.143	-108.780	0.326	0.069
-464.128	-44.302	0.137	0.068
-463.113	800.000	-0.060	-0.173
-462.099	-69.273	0.221	-0.084
-461.084	-200.000	-0.012	0.100
-460.070	-87.543	0.106	-0.032
-459.055	5.124	0.224	-0.163
-458.040	-0.841	-0.060	0.042
-457.026	45.135	0.089	0.082
-456.011	-111.807	-0.256	-0.051
-454.997	-7.631	0.087	-0.058
-453.982	182.805	-0.054	0.079
-452.968	800.000	0.022	0.066
-451.953	669.120	0.070	-0.180
-450.938	-12.800	-0.007	0.004
-449.924	-25.097	-0.326	0.191
-448.909	67.714	-0.083	-0.084
-447.895	-200.000	0.012	0.288
-446.880	124.361	-0.102	-0.127
-445.865	-41.881	0.257	-0.130
-444.851	-42.965	-0.110	0.055
-443.836	-90.717	0.297	0.085
-442.822	39.774	-0.202	-0.179
-441.807	-15.145	-0.203	0.129
-440.792	260.331	0.114	-0.195
-439.778	-200.000	-0.091	-0.468
-438.763	36.699	0.140	0.122
-437.749	73.018	-0.119	-0.122
-436.734	-200.000	-0.014	0.122
-435.719	755.081	-0.034	0.090
-434.705	261.972	0.035	-0.059
-433.690	800.000	-0.092	0.272
-432.676	231.399	0.134	-0.216
-431.661	363.005	-0.112	-0.221
-430.646	-73.297	0.096	0.035
-429.632	55.855	0.288	0.276
-428.617	28.604	-0.350	-0.293
-427.603	186.967	0.289	0.426
-426.588	367.963	-0.064	-0.129
-425.573	321.718	0.021	0.040
-424.559	-147.979	0.190	-0.016
-423.544	800.000	-0.013	0.047
-422.530	466.321	-0.041	-0.090
-421.515	368.144	0.003	0.006
-420.500	-129.474	0.213	0.029
-419.486	800.000	-0.137	-0.393
-418.471	335.408	0.182	0.349
-417.457	66.028	0.152	-0.152
-416.442	-71.085	-0.148	-0.055
-415.428	-200.000	0.008	-0.285
-414.413	385.366	0.044	-0.090
-413.398	-71.544	-0.337	0.124
-412.384	105.170	-0.124	-0.144
-411.369	-122.004	-0.304	-0.049
-410.355	800.000	0.006	0.018
-409.340	-4.653	-0.266	-0.181
-408.325	-21.838	-0.347	0.208
-407.311	236.540	0.141	0.230
-406.296	800.000	-0.160	0.528
-405.282	-88.055	-0.464	0.137
-404.267	-180.990	-0.048	-0.001
-403.252	18.230	0.124	0.097
-402.238	-115.343	-0.187	0.035
-401.223	-151.739	-0.262	-0.019
-400.209	-200.000	-0.011	0.053
-399.194	301.734	0.307	-0.560
-398.179	422.545	-0.044	-0.094
-397.165	768.974	-0.106	-0.286
-396.150	-94.445	-0.140	-0.038
-395.136	369.050	-0.042	0.085
-394.121	-200.000	-0.004	0.147
-393.106	800.000	-0.150	-0.419
-392.092	-37.037	-0.379	-0.200
-391.077	392.548	-0.020	-0.041
-390.063	-77.579	0.210	-0.072
-389.048	-28.462	0.016	0.009
-388.033	87.794	-0.173	0.190
-387.019	-27.172	0.262	0.150
-386.004	326.010	-0.103	-0.195
-384.990	42.444	-0.074	0.067
-383.975	-19.298	0.073	0.045
-382.960	91.139	0.117	0.130
-381.946	-196.817	-0.124	-0.001
-380.931	-78.058	-0.177	0.060
-379.917	-200.000	-0.001	-0.153
-378.902	-175.031	-0.146	0.004
-377.888	256.877	0.117	0.198
-376.873	131.197	0.075	-0.095
-375.858	243.144	-0.052	-0.086
-374.844	44.708	-0.076	-0.069
-373.829	-200.000	0.002	0.129
-372.815	220.050	-0.105	-0.166
-371.800	-200.000	-0.006	-0.323
-370.785	78.736	-0.047	-0.050
-369.771	-128.083	-0.244	-0.035
-368.756	-46.675	0.108	-0.052
-367.742	-159.140	-0.236	0.013
-366.727	-200.000	0.018	0.171
-365.712	-70.900	0.240	0.089
-364.698	-46.101	-0.317	0.154
-363.683	410.251	-0.201	-0.420
-362.669	0.119	-0.182	-0.128
-361.654	800.000	0.095	-0.378
-360.639	695.288	0.037	-0.097
-359.625	-200.000	0.002	0.245
-358.610	282.329	-0.076	0.134
-357.596	-42.069	0.376	-0.190
-356.581	-57.810	0.133	0.057
-355.566	-24.286	0.084	-0.049
-354.552	800.000	-0.089	-0.249
-353.537	-102.226	0.396	0.094
-352.523	-37.694	-0.181	-0.095
-351.508	-32.404	0.217	-0.119
-350.493	-92.830	-0.078	-0.021
-349.479	274.953	0.165	-0.288
-348.464	800.000	0.085	-0.234
-347.450	123.283	0.075	0.093
-346.435	426.221	0.149	0.317
-345.420	475.614	-0.113	0.251
-344.406	-179.373	-0.410	0.009
-343.391	212.547	-0.089	-0.139
-342.377	-20.814	-0.466	-0.282
-341.362	-134.906	0.250	-0.030
-340.348	146.316	0.114	-0.150
-339.333	-97.641	0.323	0.082
-338.318	-200.000	0.026	0.538
-337.304	-200.000	-0.015	0.180
-336.289	735.314	0.146	0.386
-335.275	107.949	0.122	0.144
-334.260	800.000	0.073	-0.207
-333.245	-124.815	-0.217	-0.033
-332.231	-162.086	0.222	0.011
-331.216	574.724	0.093	0.222
-330.202	540.096	0.052	-0.121
-329.187	-62.831	-0.275	0.112
-328.172	-200.000	0.021	0.196
-327.158	122.564	0.063	-0.078
-326.143	576.098	-0.070	0.169
-325.129	-106.466	-0.079	-0.017
-324.114	-145.024	0.478	0.043
-323.099	45.642	-0.321	0.292
-322.085	-22.701	-0.256	0.152
-321.070	226.841	0.066	0.106
-320.056	61.546	-0.139	-0.136
-319.041	91.425	-0.139	-0.154
-318.026	-43.910	-0.301	0.149
-317.012	638.458	-0.121	-0.304
-315.997	70.238	-0.122	-0.124
-314.983	-145.789	0.050	0.004
-313.968	-68.170	0.124	0.048
-312.953	800.000	0.091	0.320
-311.939	197.409	0.090	-0.135
-310.924	-95.230	-0.047	0.012
-309.910	-153.296	0.210	0.014
-308.895	287.644	0.020	0.036
-307.880	84.763	-0.064	-0.069
-306.866	-123.688	-0.166	-0.026
-305.851	1.595	-0.085	-0.060
-304.837	-17.805	-0.304	-0.188
-303.822	21.615	-0.125	-0.100
-302.807	-200.000	0.023	0.196
-301.793	144.466	0.082	0.107
-300.778	-150.630	-0.092	-0.007
-299.764	-200.000	-0.006	-0.409
-298.749	93.292	0.158	-0.176
-297.735	-200.000	0.016	0.147
-296.720	-116.783	-0.268	-0.048
-295.705	-11.406	0.336	0.217
-294.691	-98.175	0.268	0.068
-293.676	-133.431	0.387	-0.048
-292.662	353.339	-0.077	-0.150
-291.647	800.000	0.048	-0.168
-290.632	55.529	0.275	-0.262
-289.618	-187.368	-0.324	-0.004
-288.603	37.265	0.205	0.178
-287.589	-130.577	-0.193	0.026
-286.574	800.000	-0.092	-0.277
-285.559	800.000	-0.106	0.380
-284.545	-10.791	-0.194	-0.126
-283.530	-188.253	0.642	-0.008
-282.516	-151.385	-0.275	0.020
-281.501	116.756	-0.053	0.064
-280.486	335.252	0.171	0.326
-279.472	475.355	0.173	-0.384
-278.457	76.947	-0.192	0.201
-277.443	800.000	0.078	-0.325
-276.428	800.000	-0.030	-0.085
-275.413	-176.658	-0.064	-0.002
-274.399	-165.739	-0.153	0.006
-273.384	-200.000	-0.035	0.203
-272.370	72.847	-0.122	0.125
-271.355	169.878	-0.071	0.100
-270.340	266.859	0.100	0.171
-269.326	33.256	-0.069	0.059
-268.311	209.974	-0.128	-0.198
-267.297	-200.000	0.002	0.105
-266.282	388.818	-0.141	0.287
-265.267	31.942	0.359	0.304
-264.253	-38.920	-0.128	0.066
-263.238	161.091	-0.030	0.041
-262.224	-60.121	-0.101	-0.042
-261.209	800.000	0.037	-0.157
-260.195	-114.400	0.287	-0.054
-259.180	-2.527	0.069	0.047
-258.165	-135.306	0.121	-0.014
-257.151	800.000	-0.072	0.215
-256.136	-66.989	0.353	0.137
-255.122	48.655	0.132	-0.121
-254.107	-163.251	-0.121	-0.006
-253.092	66.812	-0.100	-0.100
-252.078	117.282	0.177	0.214
-251.063	-73.639	0.268	-0.096
-250.049	-51.819	0.138	-0.063
-249.034	-109.807	-0.141	-0.029
-248.019	212.606	-0.238	-0.369
-247.005	140.928	-0.038	0.049
-245.990	-148.693	-0.060	-0.005
-244.976	-200.000	0.001	-0.049
-243.961	690.768	-0.092	0.237
-242.946	-200.000	0.005	-0.035
-241.932	-168.890	0.462	0.017
-240.917	231.865	-0.125	-0.201
-239.903	-21.826	0.226	-0.135
-238.888	-84.762	-0.229	0.071
-237.873	-22.785	0.221	0.131
-236.859	800.000	0.024	0.066
-235.844	-200.000	0.017	0.227
-234.830	389.049	0.051	0.105
-233.815	343.937	0.108	-0.208
-232.800	-137.746	-0.139	0.015
-231.786	-99.845	0.372	-0.091
-230.771	-200.000	0.020	0.259
-229.757	-200.000	0.063	0.377
-228.742	-1.620	0.189	0.131
-227.727	-111.762	0.274	-0.054
-226.713	800.000	-0.038	-0.118
-225.698	-200.000	-0.021	-0.136
-224.684	239.793	0.082	-0.134
-223.669	-200.000	-0.021	0.219
-222.655	64.388	0.126	0.125
-221.640	125.901	-0.101	0.125
-220.625	-122.745	-0.330	0.052
-219.611	196.095	0.155	0.231
-218.596	-145.307	-0.223	0.020
-217.582	800.000	-0.080	0.235
-216.567	102.582	0.023	0.026
-215.552	32.890	-0.025	0.021
-214.538	259.418	0.192	0.325
-213.523	49.838	0.284	-0.262
-212.509	-63.052	0.297	0.120
-211.494	23.578	-0.130	0.105
-210.479	-200.000	-0.012	0.077
-209.465	50.951	0.076	-0.070
-208.450	37.210	-0.134	-0.117
-207.436	-200.000	-0.052	-0.238
-206.421	-20.822	0.101	0.060
-205.406	800.000	-0.033	-0.096
-204.392	-46.832	-0.215	0.103
-203.377	-200.000	-0.005	0.044
-202.363	-200.000	0.008	0.243
-201.348	129.835	-0.087	-0.110
-200.333	-200.000	-0.032	-0.195
-199.319	235.742	-0.152	0.246
-198.304	184.356	0.066	0.095
-197.290	-59.365	0.184	-0.077
-196.275	324.832	-0.201	-0.377
-195.260	800.000	-0.034	0.116
-194.246	-72.327	0.114	0.041
-193.231	-21.431	0.276	0.165
-192.217	590.981	0.019	0.046
-191.202	182.142	0.071	0.103
-190.187	-4.361	-0.254	0.172
-189.173	-200.000	-0.032	-0.162
-188.158	-14.399	-0.091	0.057
-187.144	-200.000	-0.056	0.242
-186.129	36.881	0.185	0.160
-185.114	299.923	0.039	0.071
-184.100	-48.613	-0.291	0.137
-183.085	-46.932	0.159	0.076
-182.071	56.502	-0.097	0.092
-181.056	-192.098	0.057	0.001
-180.042	-87.451	-0.272	0.081
-179.027	-200.000	-0.013	-0.199
-178.012	-200.000	0.018	-0.104
-176.998	-32.020	-0.228	0.125
-175.983	160.332	0.109	-0.148
-174.969	101.668	0.244	0.279
-173.954	153.227	0.189	0.254
-172.939	-117.015	-0.294	0.052
-171.925	-118.471	0.211	-0.037
-170.910	-200.000	-0.019	-0.261
-169.896	355.724	0.035	-0.067
-168.881	761.240	-0.032	-0.085
-167.866	-64.541	-0.122	-0.048
-166.852	-115.650	-0.283	-0.052
-165.837	-113.477	0.163	-0.031
-164.823	-54.939	-0.299	-0.132
-163.808	-47.601	0.131	0.062
-162.793	257.746	-0.132	0.222
-161.779	-81.616	-0.099	0.032
-160.764	505.066	0.108	-0.244
-159.750	299.696	-0.051	-0.092
-158.735	-30.171	0.120	0.067
-157.720	-200.000	-0.023	0.119
-156.706	-48.373	-0.107	-0.050
-155.691	79.266	0.137	-0.143
-154.677	528.960	0.071	-0.164
-153.662	-66.239	0.424	0.165
-152.647	-200.000	0.030	0.189
-151.633	-200.000	-0.009	0.068
-150.618	-75.490	0.298	0.104
-149.604	-17.348	0.172	0.106
-148.589	153.568	-0.069	-0.092
-147.574	40.645	0.084	0.074
-146.560	-145.407	-0.298	0.026
-145.545	800.000	-0.093	0.369
-144.531	800.000	-0.084	-0.340
-143.516	-56.386	0.224	0.097
-142.502	-94.731	0.212	0.056
-141.487	601.354	-0.035	-0.086
-140.472	-200.000	-0.002	-0.347
-139.458	-4.471	-0.255	-0.172
-138.443	-69.562	0.284	0.106
-137.429	-200.000	0.119	0.557
-136.414	800.000	-0.073	-0.239
-135.399	-200.000	-0.036	0.292
-134.385	124.248	0.102	0.125
-133.370	295.120	0.193	-0.345
-132.356	44.204	-0.179	0.160
-131.341	-200.000	0.012	-0.177
-130.326	800.000	0.082	0.222
-129.312	-200.000	-0.011	-0.092
-128.297	-26.949	-0.146	-0.083
-127.283	12.317	-0.182	-0.137
-126.268	315.607	-0.162	0.299
-125.253	-200.000	0.036	0.275
-124.239	-45.490	0.101	-0.049
-123.224	12.853	-0.263	-0.198
-122.210	-75.398	-0.216	-0.075
-121.195	-113.872	0.221	-0.042
-120.180	39.870	-0.141	-0.123
-119.166	-50.749	-0.140	0.064
-118.151	573.622	0.097	0.232
-117.137	-135.601	0.101	0.012
-116.122	506.998	0.099	0.225
-115.107	-67.582	-0.274	0.105
-114.093	179.566	0.146	0.209
-113.078	59.115	0.146	0.140
-112.064	-103.435	-0.402	-0.092
-111.049	800.000	0.057	-0.239
-110.034	-134.618	0.296	0.035
-109.020	-129.523	-0.296	-0.040
-108.005	-86.269	-0.082	-0.025
-106.991	800.000	-0.049	0.202
-105.976	-12.841	0.366	0.233
-104.962	96.972	0.017	0.019
-103.947	105.538	0.240	-0.277
-102.932	-200.000	-0.018	-0.203
-101.918	7.196	-0.211	-0.154
-100.903	-66.529	0.507	-0.196
-99.889	-200.000	-0.020	0.280
-98.874	-6.083	0.178	-0.119
-97.859	800.000	0.021	0.056
-96.845	-135.802	-0.189	0.022
-95.830	-200.000	0.010	0.272
-94.816	-54.409	-0.084	0.037
-93.801	-156.085	-0.095	-0.006
-92.786	-200.000	0.016	-0.128
-91.772	-65.286	0.360	-0.141
-90.757	-131.691	-0.365	-0.047
-89.743	-23.231	-0.261	-0.153
-88.728	-53.578	-0.161	0.072
-87.713	67.569	-0.184	-0.183
-86.699	0.182	0.230	0.160
-85.684	-36.111	0.068	0.036
-84.670	61.807	0.121	0.118
-83.655	154.990	-0.242	0.325
-82.640	800.000	-0.024	0.076
-81.626	0.635	-0.063	0.044
-80.611	-25.014	0.180	0.104
-79.597	-200.000	-0.002	-0.156
-78.582	-77.337	-0.132	0.045
-77.567	-36.148	0.293	-0.154
-76.553	-200.000	-0.026	0.129
-75.538	800.000	0.110	0.403
-74.524	609.248	0.082	0.199
-73.509	-200.000	0.028	0.188
-72.494	-200.000	0.018	-0.288
-71.480	-90.350	-0.147	-0.042
-70.465	-154.180	0.223	-0.015
-69.451	-101.042	0.099	0.024
-68.436	-121.466	0.172	-0.028
-67.422	-83.712	0.207	-0.064
-66.407	-191.272	0.312	-0.003
-65.392	-135.581	0.349	-0.040
-64.378	111.941	0.187	0.220
-63.363	-12.410	0.204	-0.130
-62.349	-33.918	0.085	0.045
-61.334	33.507	-1.141	-0.966
-60.319	-55.136	1.039	0.456
-59.305	800.000	-0.486	-1.338
-58.290	414.707	0.762	1.582
-57.276	800.000	0.426	1.323
-56.261	-200.000	134.915	689.592
-55.246	348.774	1670.053	3209.487
-54.232	134.310	2802.239	3538.407
-53.217	90.589	2167.897	2364.566
-52.203	32.885	1597.414	1347.098
-51.188	25.004	1343.283	1085.223
-50.173	22.767	1306.114	1041.962
-49.159	51.267	1380.235	1275.805
-48.144	47.389	1389.555	1260.818
-47.130	25.203	1336.236	1080.560
-46.115	21.900	1317.266	1045.525
-45.100	21.663	1312.352	1040.179
-44.086	21.670	1309.406	1037.841
-43.071	21.527	1307.312	1035.295
-42.057	21.623	1305.064	1034.038
-41.042	21.464	1304.257	1032.419
-40.027	21.560	1302.765	1031.764
-39.013	21.585	1300.271	1029.897
-37.998	21.621	1298.640	1028.774
-36.984	21.602	1297.214	1027.494
-35.969	21.610	1295.745	1026.338
-34.954	21.650	1293.934	1025.098
-33.940	21.669	1292.316	1023.882
-32.925	21.652	1291.498	1023.093
-31.911	21.728	1289.761	1022.121
-30.896	21.816	1288.245	1021.394
-29.881	21.823	1286.729	1020.189
-28.867	21.718	1285.895	1018.877
-27.852	21.794	1284.249	1017.974
-26.838	21.932	1282.755	1017.549
-25.823	21.743	1281.643	1015.534
-24.809	21.710	1280.230	1014.183
-23.794	21.826	1278.883	1013.746
-22.779	21.759	1277.603	1012.304
-21.765	21.775	1276.239	1011.276
-20.750	21.834	1274.771	1010.410
-19.736	21.649	1273.847	1008.575
-18.721	21.741	1272.319	1007.852
-17.706	21.526	1271.886	1006.237
-16.692	21.694	1270.256	1005.870
-15.677	21.680	1269.190	1004.906
-14.663	21.657	1268.065	1003.845
-13.648	21.586	1267.533	1002.975
-12.633	21.576	1266.343	1001.940
-11.619	21.688	1265.403	1001.796
-10.604	21.691	1264.711	1001.221
-9.590	21.587	1263.650	999.750
-8.575	21.693	1262.579	999.468
-7.560	21.617	1261.958	998.504
-6.546	21.673	1260.824	997.885
-5.531	21.684	1259.941	997.210
-4.517	21.617	1259.652	996.559
-3.502	21.613	1258.467	995.562
-2.487	21.735	1257.277	995.271
-1.473	21.583	1252.950	990.946
-0.458	19.948	1237.692	969.689
0.556	15.464	1222.220	932.018
1.571	11.855	1230.317	917.906
2.586	11.165	1245.788	925.451
3.600	11.144	1233.940	916.448
4.615	8.390	1162.273	848.532
5.629	3.283	1092.795	772.182
6.644	0.817	1076.871	748.667
7.659	0.667	1075.142	746.656
8.673	0.709	1074.635	746.445
9.688	0.658	1073.369	745.249
10.702	0.945	1070.362	744.505
11.717	4.025	1073.706	761.945
12.731	10.465	1082.487	799.975
13.746	15.643	1089.027	830.378
14.761	17.226	1091.034	839.667
15.775	16.733	1088.826	835.462
16.790	15.677	1087.284	828.997
17.804	14.862	1085.708	823.710
18.819	14.728	1084.414	821.993
19.834	14.551	1083.574	820.416
20.848	14.253	1082.640	818.170
21.863	13.994	1081.725	816.137
22.877	13.836	1081.231	814.916
23.892	13.874	1079.603	813.803
24.907	13.668	1079.991	813.012
25.921	13.697	1078.951	812.298
26.936	13.800	1078.195	812.165
27.950	13.862	1077.163	811.617
28.965	13.954	1075.651	810.856
29.980	13.926	1074.537	809.806
30.994	14.075	1073.451	809.642
32.009	14.158	1072.276	809.088
33.023	13.994	1071.339	807.515
34.038	13.869	1070.576	806.261
35.053	13.922	1070.011	806.019
36.067	13.822	1069.006	804.706
37.082	13.933	1067.849	804.304
38.096	13.935	1067.485	803.969
39.111	13.853	1066.520	802.774
40.126	13.885	1064.962	801.682
41.140	13.732	1064.488	800.517
42.155	13.836	1062.578	799.509
43.169	13.864	1061.578	798.820
44.184	13.811	1060.967	798.037
45.199	13.773	1059.858	796.950
46.213	13.856	1058.670	796.383
47.228	13.893	1057.543	795.641
48.242	13.951	1056.396	794.985
49.257	13.870	1055.798	794.080
50.271	13.950	1054.712	793.575
51.286	13.912	1053.900	792.711
52.301	13.865	1053.000	791.741
53.315	13.822	1051.796	790.561
54.330	13.858	1050.941	790.019
55.344	13.776	1050.033	788.877
56.359	13.750	1049.351	788.173
57.374	13.782	1048.282	787.449
58.388	13.771	1047.397	786.665
59.403	13.722	1046.659	785.810
60.417	13.751	1045.412	784.941
61.432	13.716	1044.864	784.292
62.447	13.574	1044.013	782.913
63.461	13.679	1043.185	782.718
64.476	13.687	1041.953	781.761
65.490	13.629	1041.588	781.146
66.505	13.696	1040.651	780.691
67.520	13.657	1040.053	779.989
68.534	13.676	1039.359	779.490
69.549	13.746	1038.655	779.221
70.563	13.697	1037.665	778.179
71.578	13.639	1036.940	777.294
72.593	13.685	1036.193	776.883
73.607	13.639	1035.514	776.090
74.622	13.721	1034.896	775.939
75.636	13.641	1034.135	774.928
76.651	13.743	1033.504	774.864
77.666	13.652	1032.942	773.948
78.680	13.705	1032.270	773.623
79.695	13.672	1031.284	772.663
80.709	13.709	1030.657	772.294
81.724	13.711	1029.922	771.686
82.739	13.785	1029.414	771.583
83.753	13.884	1028.400	771.213
84.768	13.878	1027.481	770.427
85.782	14.016	1026.617	770.350
86.797	13.894	1025.911	769.189
87.812	13.787	1025.188	768.083
88.826	13.923	1023.570	767.433
89.841	13.812	1023.395	766.722
90.855	13.996	1021.986	766.446
91.870	13.983	1021.503	765.956
92.884	13.939	1020.593	765.003
93.899	13.902	1020.148	764.430
94.914	13.998	1018.737	763.746
95.928	13.869	1018.363	762.808
96.943	13.874	1017.481	762.102
97.957	13.978	1016.359	761.668
98.972	14.156	1015.191	761.543
99.987	13.943	1014.691	760.126
101.001	14.013	1013.166	759.234
102.016	13.947	1012.208	758.148
103.030	13.883	1011.931	757.585
104.045	13.925	1011.250	757.199
105.060	13.960	1009.992	756.348
106.074	13.857	1009.485	755.431
107.089	13.920	1008.452	754.876
108.103	13.835	1007.582	753.777
109.118	13.872	1006.055	752.735
110.133	13.833	1005.411	752.008
111.147	13.738	1004.994	751.199
112.162	13.900	1004.032	751.147
113.176	13.927	1002.933	750.381
114.191	14.000	1001.796	749.792
115.206	13.940	1001.509	749.242
116.220	13.936	1000.588	748.466
117.235	14.012	999.637	748.034
118.249	13.854	998.602	746.483
119.264	13.827	998.198	745.990
120.279	14.036	996.834	745.843
121.293	13.957	996.188	744.941
122.308	13.786	995.557	743.637
123.322	14.006	994.055	743.433
124.337	13.811	993.343	741.966
125.352	13.935	992.221	741.611
126.366	13.819	991.245	740.300
127.381	13.999	989.788	739.948
128.395	13.971	988.916	739.109
129.410	13.917	988.035	738.143
130.424	13.773	987.696	737.185
131.439	13.842	986.524	736.550
132.454	13.816	985.953	735.944
133.468	13.863	984.810	735.236
134.483	13.795	984.000	734.262
135.497	14.025	982.981	734.453
136.512	13.883	982.135	733.130
137.527	13.934	981.224	732.609
138.541	13.894	981.005	732.207
139.556	14.023	979.970	731.938
140.570	13.946	979.345	731.066
141.585	14.051	978.340	730.712
142.600	14.022	977.694	730.040
143.614	14.110	976.951	729.804
144.629	14.146	975.632	728.915
145.643	14.190	974.693	728.339
146.658	13.978	974.063	726.878
147.673	13.982	973.025	726.057
148.687	14.046	972.214	725.665
149.702	14.062	970.821	724.632
150.716	14.059	970.248	724.128
151.731	14.014	969.648	723.418
152.746	14.030	969.319	723.180
153.760	14.099	968.454	722.768
154.775	14.131	968.028	722.528
155.789	14.130	967.095	721.762
156.804	14.120	966.493	721.208
157.819	14.152	965.726	720.710
158.833	14.240	964.957	720.451
159.848	14.228	964.418	719.934
160.862	14.256	963.302	719.159
161.877	14.294	962.451	718.623
162.892	14.059	961.743	717.019
163.906	14.093	960.752	716.360
164.921	14.195	959.849	716.062
165.935	14.244	958.785	715.418
166.950	14.189	958.337	714.782
167.964	14.259	957.126	714.117
168.979	14.191	956.857	713.559
169.994	14.260	955.679	712.914
171.008	14.212	955.075	712.195
172.023	14.278	954.506	711.991
173.037	14.459	953.328	711.825
174.052	14.278	952.850	710.631
175.067	14.392	952.158	710.536
176.081	14.227	951.928	709.599
177.096	14.311	951.452	709.539
178.110	14.339	950.654	709.000
179.125	14.345	949.833	708.351
180.140	14.351	949.367	707.965
181.154	14.459	948.806	707.944
182.169	14.386	948.296	707.192
183.183	14.404	948.008	706.988
184.198	14.364	946.993	706.003
185.213	14.542	945.762	705.775
186.227	14.548	945.283	705.379
187.242	14.439	945.168	704.773
188.256	14.635	944.013	704.674
189.271	14.389	943.428	703.138
190.286	14.369	942.845	702.557
191.300	14.421	941.854	701.977
192.315	14.316	941.431	701.156
193.329	14.437	940.824	701.151
194.344	14.600	939.882	701.071
195.359	14.512	939.012	699.991
196.373	14.393	938.867	699.324
197.388	14.476	938.421	699.274
198.402	14.703	937.346	699.363
199.417	14.661	936.988	698.860
200.432	14.683	936.769	698.727
201.446	14.734	936.399	698.602
202.461	14.783	935.459	698.042
203.475	14.627	934.922	696.929
204.490	14.741	933.926	696.602
205.504	14.837	933.150	696.360
206.519	14.859	932.581	695.968
207.534	14.737	931.672	694.720
208.548	14.803	930.880	694.340
209.563	14.721	930.891	693.946
210.577	14.823	929.956	693.611
211.592	14.920	929.445	693.571
212.607	14.967	928.164	692.749
213.621	14.899	927.847	692.169
214.636	14.899	927.136	691.579
215.650	14.943	926.196	690.995
216.665	15.052	925.539	690.896
217.680	15.128	924.711	690.529
218.694	14.933	924.482	689.494
219.709	15.055	923.443	689.162
220.723	14.891	923.067	688.145
221.738	15.047	922.479	688.288
222.753	14.997	921.806	687.518
223.767	15.014	921.102	687.002
224.782	15.016	920.735	686.677
225.796	15.295	919.786	687.050
226.811	15.080	919.069	685.573
227.826	15.194	918.481	685.542
228.840	14.966	917.958	684.158
229.855	15.060	917.428	684.086
230.869	15.155	916.124	683.442
231.884	15.031	915.616	682.496
232.899	15.059	914.922	682.030
233.913	15.094	914.021	681.443
234.928	15.086	913.455	680.926
235.942	15.000	913.358	680.445
236.957	15.116	912.651	680.331
237.972	15.201	911.661	679.875
238.986	15.199	911.314	679.550
240.001	15.247	910.535	679.104
241.015	15.165	909.940	678.265
242.030	15.172	909.186	677.675
243.045	15.109	908.356	676.740
244.059	15.252	907.528	676.640
245.074	15.216	906.927	675.986
246.088	15.340	906.364	676.006
247.103	15.307	905.804	675.398
248.117	15.349	905.489	675.270
249.132	15.450	904.543	674.912
250.147	15.522	903.946	674.699
251.161	15.560	903.185	674.223
252.176	15.530	902.696	673.675
253.190	15.590	902.125	673.432
254.205	15.582	901.049	672.537
255.220	15.599	900.653	672.248
256.234	15.624	900.217	671.965
257.249	15.581	899.552	671.237
258.263	15.585	898.728	670.580
259.278	15.629	897.888	670.067
260.293	15.701	897.500	670.006
261.307	15.791	897.009	669.938
262.322	15.721	896.387	669.137
263.336	15.786	895.454	668.640
264.351	15.697	894.826	667.756
265.366	15.761	893.922	667.278
266.380	15.734	893.438	666.749
267.395	15.740	892.932	666.338
268.409	15.881	891.837	666.019
269.424	15.944	891.104	665.663
270.439	15.803	890.567	664.645
271.453	15.963	889.563	664.469
272.468	15.876	889.263	663.844
273.482	15.850	888.660	663.231
274.497	15.781	888.271	662.610
275.512	15.742	887.852	662.084
276.526	15.983	887.006	662.343
277.541	16.002	886.519	661.996
278.555	15.949	885.809	661.198
279.570	16.141	884.650	661.027
280.585	16.056	884.262	660.346
281.599	15.982	883.528	659.449
282.614	15.942	883.059	658.885
283.628	15.943	882.403	658.343
284.643	15.944	881.960	657.958
285.657	15.881	881.481	657.295
286.672	16.044	880.668	657.267
287.687	16.049	880.002	656.731
288.701	16.083	879.879	656.712
289.716	16.161	878.863	656.201
290.730	16.075	878.305	655.391
291.745	16.026	877.664	654.665
292.760	16.141	877.112	654.640
293.774	16.312	876.261	654.610
294.789	16.120	875.537	653.269
295.803	16.309	874.645	653.277
296.818	16.233	874.281	652.654
297.833	16.321	873.169	652.106
298.847	16.382	872.706	651.939
299.862	16.345	872.163	651.332
300.876	16.236	872.267	650.932
301.891	16.369	871.206	650.596
302.906	16.362	870.762	650.178
303.920	16.308	870.112	649.426
304.935	16.591	869.206	649.781
305.949	16.454	868.930	648.990
306.964	16.441	868.263	648.387
307.979	16.377	867.887	647.800
308.993	16.540	866.976	647.687
310.008	16.521	866.401	647.131
311.022	16.521	866.121	646.863
312.037	16.514	865.242	646.122
313.052	16.437	865.012	645.599
314.066	16.619	864.202	645.631
315.081	16.546	863.869	645.050
316.095	16.455	862.964	643.970
317.110	16.451	862.602	643.626
318.125	16.533	862.225	643.600
319.139	16.543	861.477	643.021
320.154	16.534	861.045	642.609
321.168	16.572	860.547	642.323
322.183	16.674	859.647	641.984
323.197	16.587	859.455	641.454
324.212	16.507	858.755	640.572
325.227	16.459	858.506	640.146
326.241	16.581	857.923	640.116
327.256	16.622	857.191	639.669
328.270	16.634	856.680	639.277
329.285	16.595	856.146	638.675
330.300	16.572	855.617	638.137
331.314	16.726	855.056	638.240
332.329	16.790	854.444	637.968
333.343	16.724	854.195	637.478
334.358	16.705	854.073	637.258
335.373	16.649	853.465	636.540
336.387	16.782	852.938	636.588
337.402	16.851	852.721	636.633
338.416	16.826	852.247	636.127
339.431	17.010	851.356	636.095
340.446	17.009	851.169	635.897
341.460	16.957	850.752	635.333
342.475	16.921	850.831	635.201
343.489	16.931	850.384	634.848
344.504	16.959	849.899	634.534
345.519	17.113	849.158	634.502
346.533	17.116	848.655	634.079
347.548	17.092	847.940	633.401
348.562	17.012	847.499	632.718
349.577	16.890	847.113	631.917
350.592	16.941	846.228	631.391
351.606	16.893	845.778	630.823
352.621	17.142	844.760	630.932
353.635	17.214	844.103	630.652
354.650	17.084	843.969	630.014
355.665	17.133	843.200	629.564
356.679	17.106	842.357	628.782
357.694	17.193	841.834	628.656
358.708	17.158	841.367	628.121
359.723	17.072	840.977	627.458
360.738	17.306	839.670	627.291
361.752	17.360	839.271	627.135
362.767	17.180	838.905	626.145
363.781	17.273	838.200	625.906
364.796	17.412	837.759	626.033
365.810	17.451	837.302	625.777
366.825	17.276	837.288	625.070
367.840	17.274	837.039	624.820
368.854	17.432	836.055	624.608
369.869	17.405	835.522	624.057
370.883	17.422	835.231	623.848
371.898	17.588	834.584	623.917
372.913	17.412	834.609	623.236
373.927	17.488	833.954	622.971
374.942	17.414	833.603	622.381
375.956	17.527	832.825	622.159
376.971	17.616	832.382	622.097
377.986	17.529	832.471	621.790
379.000	17.557	831.630	621.211
380.015	17.664	831.096	621.148
381.029	17.607	830.695	620.584
382.044	17.573	830.429	620.207
383.059	17.733	829.321	619.906
384.073	17.895	828.643	619.931
385.088	17.766	828.120	619.018
386.102	17.767	827.838	618.756
387.117	17.463	827.597	617.420
388.132	17.753	826.550	617.633
389.146	17.641	826.174	616.894
390.161	17.664	825.764	616.617
391.175	17.679	825.428	616.364
392.190	17.616	824.893	615.681
393.205	17.848	824.092	615.866
394.219	17.729	823.872	615.221
395.234	17.508	823.540	614.118
396.248	17.587	823.319	614.186
397.263	17.721	822.510	614.011
398.278	17.763	822.100	613.800
399.292	17.728	821.868	613.447
400.307	17.793	821.064	613.027
401.321	17.770	820.979	612.828
402.336	17.729	820.517	612.281
403.350	17.828	819.574	611.876
404.365	17.858	819.511	611.885
405.380	17.846	818.855	611.296
406.394	17.868	818.194	610.829
407.409	18.002	817.882	611.021
408.423	18.041	817.375	610.726
409.438	18.166	817.108	610.920
410.453	18.162	816.611	610.480
411.467	18.101	816.102	609.826
412.482	18.007	815.956	609.328
413.496	18.159	815.614	609.560
414.511	18.184	814.884	609.052
415.526	18.045	814.544	608.249
416.540	18.224	814.053	608.464
417.555	18.174	813.526	607.839
418.569	18.231	812.884	607.510
419.584	18.306	812.572	607.488
420.599	18.174	812.664	607.034
421.613	116.372	1300.029	1491.782
422.628	100.812	1370.991	1491.858
