DTS Sentinel unit serial number:	SN413079Multiplexer serial number:	ORYXHardware model number:	OX4-SRSoftware version number:	ORYX F/W v4.00 Oryx Data Collector v3.7.2.0data status	okinstallation	princeton_trtdifferential loss correction	single-endedforward channel	channel 1reverse channel	N/Adate	2019/09/19time	00:02:35forward acquisition time	60.00reverse acquisition time	0.00gamma	496.2192k internal	0.2342k external	0.2342temperature offset calibration	1.0022default loss term (dB/km)	0.3790temperature slope calibration	1.0000multiplexer offset coefficient	1.0000multiplexer slope coefficient	1.0000fibre end	0.00T internal ref (°C)	23.02T ext. ref 1 (°C)	0.75T ext. ref 2 (°C)	15.92length (m)	temperature (°C)	Stokes	anti-Stokes-747.200	-200.000	0.018	0.232
-746.185	-1.704	-0.134	0.095
-745.171	406.445	-0.038	-0.081
-744.156	5.836	-0.269	0.199
-743.142	-117.314	0.225	0.041
-742.127	63.059	-0.184	-0.184
-741.112	-93.618	0.162	0.045
-740.098	13.289	0.211	0.164
-739.083	-200.000	0.020	-0.222
-738.069	-118.518	-0.185	-0.033
-737.054	-55.120	-0.226	-0.102
-736.039	229.282	-0.084	-0.137
-735.025	-40.083	0.143	-0.075
-734.010	-27.580	-0.218	0.127
-732.996	-88.458	-0.327	-0.098
-731.981	-200.000	0.167	-0.000
-730.966	-164.852	-0.191	-0.009
-729.952	-200.000	-0.006	-0.065
-728.937	-108.256	-0.051	-0.011
-727.923	800.000	-0.108	-0.329
-726.908	-91.944	-0.117	0.033
-725.894	6.908	0.309	-0.231
-724.879	100.714	0.053	-0.062
-723.864	-53.412	0.260	-0.119
-722.850	-200.000	0.006	-0.033
-721.835	-32.703	-0.431	0.240
-720.821	-94.195	-0.115	-0.032
-719.806	-108.982	0.212	-0.045
-718.791	166.177	0.036	-0.051
-717.777	-102.922	-0.057	-0.014
-716.762	-200.000	-0.011	0.159
-715.748	-200.000	-0.026	-0.355
-714.733	71.034	0.054	-0.056
-713.718	-200.000	0.012	0.063
-712.704	53.606	-0.185	-0.178
-711.689	373.535	-0.083	0.168
-710.675	800.000	0.035	-0.129
-709.660	231.807	-0.222	-0.365
-708.645	283.335	-0.103	-0.184
-707.631	8.174	-0.253	-0.190
-706.616	-200.000	0.052	0.426
-705.602	36.069	-0.215	-0.190
-704.587	-200.000	-0.061	-0.363
-703.572	490.329	0.086	0.198
-702.558	798.005	0.025	-0.070
-701.543	-200.000	-0.004	-0.351
-700.529	-139.629	-0.159	-0.017
-699.514	-200.000	-0.018	-0.171
-698.499	395.021	0.088	0.184
-697.485	277.324	-0.096	-0.170
-696.470	46.993	0.240	0.223
-695.456	-200.000	-0.030	-0.148
-694.441	238.154	-0.243	0.403
-693.426	28.038	0.158	0.133
-692.412	-76.972	0.160	-0.056
-691.397	-72.653	-0.098	0.036
-690.383	91.148	-0.278	0.312
-689.368	-60.764	0.101	-0.043
-688.354	-25.062	-0.090	0.053
-687.339	-200.000	-0.052	-0.458
-686.324	396.607	-0.218	0.455
-685.310	-112.990	-0.169	0.033
-684.295	-87.597	-0.084	-0.025
-683.281	12.680	-0.126	0.097
-682.266	-200.000	-0.052	0.258
-681.251	-111.190	-0.187	0.038
-680.237	145.451	0.083	0.112
-679.222	-11.288	0.270	0.178
-678.208	-68.989	0.036	0.014
-677.193	-200.000	-0.017	0.283
-676.178	21.811	-0.071	0.057
-675.164	-18.283	0.324	-0.203
-674.149	-45.339	0.136	-0.068
-673.135	-119.516	-0.066	0.011
-672.120	-130.338	-0.154	0.021
-671.105	-17.587	0.200	-0.125
-670.091	-200.000	-0.024	0.511
-669.076	800.000	0.035	-0.115
-668.062	409.493	0.090	-0.190
-667.047	-131.866	0.193	0.025
-666.032	85.239	-0.259	0.283
-665.018	122.262	-0.041	-0.052
-664.003	-200.000	-0.019	0.165
-662.989	316.550	-0.093	-0.175
-661.974	-86.488	-0.107	0.033
-660.959	-13.464	-0.113	-0.073
-659.945	578.392	0.155	0.379
-658.930	-200.000	0.006	0.031
-657.916	649.281	-0.152	-0.387
-656.901	-99.527	0.133	-0.033
-655.886	-19.889	0.145	0.090
-654.872	-79.111	0.100	-0.034
-653.857	-66.619	-0.276	0.109
-652.843	-200.000	-0.009	-0.134
-651.828	-14.923	-0.165	-0.106
-650.814	-129.779	0.344	-0.047
-649.799	-200.000	0.024	0.200
-648.784	800.000	-0.053	0.221
-647.770	-131.913	0.252	-0.033
-646.755	-80.429	-0.331	-0.110
-645.741	232.866	0.043	-0.070
-644.726	566.908	-0.077	-0.186
-643.711	-179.602	-0.118	0.003
-642.697	96.427	0.166	-0.190
-641.682	294.824	0.151	-0.276
-640.668	-24.447	-0.070	0.041
-639.653	-33.980	-0.182	-0.100
-638.638	52.968	-0.023	-0.022
-637.624	-94.560	0.196	-0.053
-636.609	-200.000	0.019	0.192
-635.595	34.915	-0.213	0.186
-634.580	514.100	0.186	0.433
-633.565	-86.045	0.387	-0.119
-632.551	-88.840	-0.235	-0.069
-631.536	-66.755	-0.061	0.024
-630.522	-20.106	-0.197	-0.121
-629.507	-186.227	-0.582	-0.008
-628.492	523.106	0.127	0.297
-627.478	105.352	-0.090	-0.106
-626.463	-200.000	0.003	-0.074
-625.449	-200.000	-0.012	-0.069
-624.434	-186.655	-0.275	-0.004
-623.419	65.487	-0.233	-0.235
-622.405	48.090	0.159	-0.148
-621.390	47.023	0.122	-0.113
-620.376	-89.528	0.215	-0.063
-619.361	178.670	0.110	-0.161
-618.346	-105.144	0.093	-0.021
-617.332	104.661	0.197	-0.231
-616.317	-123.846	-0.659	0.104
-615.303	-5.591	-0.123	0.084
-614.288	-99.190	-0.191	-0.048
-613.273	-87.591	0.134	-0.040
-612.259	9.925	-0.148	0.112
-611.244	-34.261	0.164	0.090
-610.230	165.919	0.030	0.042
-609.215	-200.000	-0.002	0.178
-608.201	800.000	-0.064	0.188
-607.186	-45.398	-0.177	0.087
-606.171	-34.994	0.168	0.091
-605.157	0.955	-0.056	-0.040
-604.142	-9.729	0.156	0.103
-603.128	-123.104	0.309	0.049
-602.113	-20.108	-0.037	-0.023
-601.098	72.828	-0.199	0.207
-600.084	-39.078	0.303	-0.159
-599.069	708.894	-0.025	-0.066
-598.055	-15.749	-0.328	0.208
-597.040	7.470	-0.359	-0.268
-596.025	-92.339	0.168	0.047
-595.011	442.896	-0.144	-0.315
-593.996	-180.086	-0.394	0.008
-592.982	-123.575	-0.194	-0.031
-591.967	-177.837	-0.211	0.005
-590.952	136.873	0.101	-0.131
-589.938	-104.727	0.241	0.055
-588.923	-96.239	-0.283	-0.075
-587.909	178.012	-0.081	0.117
-586.894	337.464	-0.103	0.199
-585.879	33.071	-0.378	-0.326
-584.865	800.000	0.041	0.163
-583.850	-84.107	0.163	0.051
-582.836	423.798	0.116	-0.247
-581.821	138.013	-0.044	-0.058
-580.806	-17.812	0.143	-0.089
-579.792	-200.000	0.092	0.476
-578.777	486.687	-0.189	0.428
-577.763	-31.697	0.147	-0.082
-576.748	-183.255	-0.075	-0.001
-575.733	-103.161	0.323	0.076
-574.719	-169.758	0.276	-0.010
-573.704	90.674	0.270	0.301
-572.690	-139.833	0.072	-0.008
-571.675	-124.826	-0.191	0.029
-570.661	800.000	-0.012	0.049
-569.646	-16.866	-0.382	0.240
-568.631	31.508	-0.072	-0.061
-567.617	447.071	-0.083	-0.182
-566.602	-200.000	-0.005	-0.041
-565.588	-118.660	0.094	-0.017
-564.573	-8.273	0.203	-0.136
-563.558	-17.487	0.154	-0.096
-562.544	46.528	0.040	-0.037
-561.529	108.603	-0.036	0.043
-560.515	336.364	0.109	-0.211
-559.500	136.269	0.161	-0.209
-558.485	-200.000	0.005	0.180
-557.471	-200.000	0.005	0.182
-556.456	46.781	-0.233	0.215
-555.442	744.512	0.179	0.479
-554.427	800.000	-0.121	-0.503
-553.412	-47.120	-0.180	0.087
-552.398	12.116	-0.219	-0.168
-551.383	121.995	0.200	-0.248
-550.369	106.976	0.150	0.177
-549.354	-200.000	-0.009	0.342
-548.339	385.999	-0.057	-0.116
-547.325	-87.451	0.363	-0.109
-546.310	-200.000	-0.058	-0.263
-545.296	-56.378	0.083	-0.037
-544.281	-12.642	-0.213	0.138
-543.266	-200.000	0.077	-0.383
-542.252	-68.060	-0.182	-0.071
-541.237	81.479	-0.199	0.214
-540.223	-103.028	-0.123	0.029
-539.208	800.000	-0.071	0.222
-538.193	-16.061	0.200	-0.126
-537.179	800.000	-0.008	-0.027
-536.164	57.798	-0.057	-0.056
-535.150	-8.511	0.071	0.047
-534.135	-102.287	0.296	-0.071
-533.121	29.170	0.079	-0.067
-532.106	-93.126	-0.245	0.068
-531.091	-178.567	0.136	0.003
-530.077	800.000	-0.023	-0.098
-529.062	195.795	0.130	0.196
-528.048	-200.000	-0.005	-0.059
-527.033	293.019	-0.081	-0.146
-526.018	-200.000	-0.024	-0.139
-525.004	-62.064	-0.306	-0.127
-523.989	82.834	0.193	-0.208
-522.975	-200.000	-0.023	0.131
-521.960	172.438	-0.138	-0.197
-520.945	-24.810	0.079	0.046
-519.931	800.000	-0.129	0.483
-518.916	-141.839	-0.183	-0.018
-517.902	-118.411	-0.416	0.073
-516.887	34.209	0.129	0.112
-515.872	-106.167	0.286	-0.064
-514.858	-200.000	-0.035	-0.196
-513.843	-53.223	0.176	0.080
-512.829	-10.350	0.137	-0.090
-511.814	-8.214	0.338	-0.226
-510.799	-17.618	-0.305	0.190
-509.785	-33.091	0.170	0.093
-508.770	-200.000	-0.000	0.120
-507.756	9.496	0.144	0.108
-506.741	62.352	0.337	0.334
-505.726	141.923	-0.210	0.277
-504.712	340.927	0.152	0.295
-503.697	312.481	0.073	-0.136
-502.683	87.599	0.121	-0.133
-501.668	-200.000	0.003	-0.275
-500.653	156.756	0.030	0.041
-499.639	8.351	0.022	0.016
-498.624	-130.112	-0.172	-0.023
-497.610	-200.000	-0.018	-0.158
-496.595	78.930	0.133	0.141
-495.581	0.736	-0.020	0.014
-494.566	65.700	0.216	0.217
-493.551	-121.749	-0.628	-0.103
-492.537	-27.727	0.231	-0.133
-491.522	250.994	-0.106	0.180
-490.508	-29.337	0.136	0.077
-489.493	-31.885	-0.346	-0.192
-488.478	-78.103	-0.243	-0.083
-487.464	115.971	-0.329	-0.399
-486.449	-200.000	0.077	-0.362
-485.435	81.037	-0.062	-0.066
-484.420	-141.513	0.114	0.011
-483.405	2.751	-0.237	-0.170
-482.391	-200.000	-0.050	0.242
-481.376	-129.542	-0.249	0.034
-480.362	-53.910	0.209	-0.094
-479.347	-56.101	-0.342	0.151
-478.332	273.304	0.189	-0.331
-477.318	76.279	0.223	0.234
-476.303	47.756	0.146	-0.136
-475.289	-79.313	0.026	0.009
-474.274	800.000	-0.017	0.061
-473.259	-200.000	0.056	0.247
-472.245	-200.000	-0.076	0.371
-471.230	45.245	0.428	0.391
-470.216	800.000	-0.048	0.140
-469.201	264.847	0.049	-0.085
-468.186	800.000	-0.056	-0.210
-467.172	-73.113	-0.085	-0.031
-466.157	800.000	-0.080	-0.302
-465.143	-88.992	0.282	-0.083
-464.128	-33.021	-0.112	-0.062
-463.113	-135.401	-0.024	-0.003
-462.099	-69.929	0.146	0.055
-461.084	-200.000	-0.026	-0.213
-460.070	-144.540	0.066	0.006
-459.055	-173.466	-0.140	0.004
-458.040	435.442	-0.211	-0.455
-457.026	43.850	0.116	0.105
-456.011	217.983	0.138	0.218
-454.997	-200.000	-0.018	-0.277
-453.982	655.900	-0.085	-0.216
-452.968	-97.945	0.199	0.051
-451.953	-118.373	-0.204	-0.036
-450.938	-81.458	0.142	-0.046
-449.924	13.369	0.135	0.104
-448.909	626.332	0.060	0.149
-447.895	-151.948	0.168	0.012
-446.880	-200.000	0.029	0.228
-445.865	800.000	-0.013	-0.038
-444.851	-47.994	0.203	0.097
-443.836	-200.000	-0.026	0.135
-442.822	71.656	-0.116	-0.119
-441.807	-200.000	0.070	-0.335
-440.792	-31.103	0.228	0.127
-439.778	4.745	0.312	0.227
-438.763	800.000	0.073	0.261
-437.749	310.884	0.032	0.060
-436.734	-122.300	0.310	-0.050
-435.719	449.830	-0.136	0.297
-434.705	-156.804	-0.251	-0.015
-433.690	-200.000	0.009	-0.177
-432.676	-130.217	0.281	-0.038
-431.661	800.000	0.070	0.206
-430.646	-118.626	-0.135	-0.024
-429.632	800.000	-0.011	0.036
-428.617	233.218	-0.204	0.332
-427.603	16.574	0.188	0.147
-426.588	574.009	0.019	-0.045
-425.573	176.858	0.073	-0.105
-424.559	36.441	0.112	-0.097
-423.544	800.000	0.057	0.244
-422.530	-200.000	-0.025	0.326
-421.515	355.203	-0.157	-0.309
-420.500	800.000	0.044	-0.190
-419.486	-70.960	-0.116	0.043
-418.471	-45.817	-0.362	-0.177
-417.457	-200.000	0.017	0.080
-416.442	511.466	-0.175	-0.404
-415.428	-143.313	0.421	0.040
-414.413	340.749	-0.049	0.095
-413.398	-100.749	-0.137	0.033
-412.384	486.527	-0.068	-0.154
-411.369	1.848	-0.167	-0.119
-410.355	127.158	0.051	0.064
-409.340	3.696	0.131	0.095
-408.325	-200.000	-0.030	0.150
-407.311	-67.216	-0.129	-0.050
-406.296	-16.982	-0.216	0.135
-405.282	379.071	-0.183	0.371
-404.267	5.097	-0.129	-0.094
-403.252	7.649	0.184	0.136
-402.238	117.348	-0.319	0.387
-401.223	92.803	-0.318	-0.354
-400.209	-83.194	0.359	-0.114
-399.194	135.591	-0.209	-0.269
-398.179	800.000	-0.069	-0.189
-397.165	43.804	-0.030	-0.027
-396.150	99.610	0.273	0.312
-395.136	-162.644	0.125	0.006
-394.121	73.395	-0.197	-0.204
-393.106	-117.133	0.463	-0.083
-392.092	-200.000	-0.003	0.043
-391.077	10.116	-0.166	0.125
-390.063	-176.690	-0.269	-0.007
-389.048	-80.973	0.139	0.046
-388.033	302.641	0.096	0.175
-387.019	-105.858	-0.178	-0.040
-386.004	-138.990	0.115	-0.012
-384.990	657.304	-0.130	-0.329
-383.975	-200.000	-0.035	-0.150
-382.960	-200.000	0.033	0.286
-381.946	-139.695	0.236	-0.025
-380.931	800.000	0.119	0.361
-379.917	172.208	0.123	0.175
-378.902	-10.496	-0.098	0.064
-377.888	183.200	-0.120	0.175
-376.873	-59.170	-0.094	-0.040
-375.858	-200.000	-0.014	-0.110
-374.844	-95.761	-0.211	-0.056
-373.829	-200.000	0.012	0.119
-372.815	-19.342	-0.137	-0.084
-371.800	141.370	-0.224	-0.293
-370.785	800.000	-0.128	-0.388
-369.771	238.684	-0.112	-0.184
-368.756	138.745	0.105	0.137
-367.742	800.000	-0.044	0.162
-366.727	-119.430	-0.111	-0.019
-365.712	75.860	-0.242	0.252
-364.698	-200.000	-0.015	-0.397
-363.683	-52.870	-0.155	0.071
-362.669	195.301	0.124	0.187
-361.654	-151.187	0.350	0.026
-360.639	-36.334	-0.172	-0.092
-359.625	-200.000	0.053	0.426
-358.610	-200.000	-0.002	-0.146
-357.596	288.651	0.087	-0.156
-356.581	29.773	0.043	0.036
-355.566	-200.000	0.036	-0.181
-354.552	453.571	-0.064	-0.141
-353.537	-69.117	0.222	-0.084
-352.523	-200.000	0.062	-0.511
-351.508	765.736	-0.009	0.023
-350.493	-139.667	-0.150	-0.016
-349.479	-15.298	-0.277	0.174
-348.464	-200.000	0.013	-0.204
-347.450	-20.932	-0.171	-0.103
-346.435	-200.000	0.033	-0.211
-345.420	94.523	-0.097	0.109
-344.406	232.393	-0.161	0.261
-343.391	359.176	-0.195	0.385
-342.377	270.240	-0.109	0.188
-341.362	72.144	-0.409	-0.420
-340.348	-81.957	-0.501	-0.162
-339.333	243.116	0.077	0.128
-338.318	-162.495	-0.342	-0.017
-337.304	-41.931	0.044	0.022
-336.289	-102.902	0.255	-0.060
-335.275	-200.000	0.002	-0.148
-334.260	42.639	0.163	-0.146
-333.245	-101.870	-0.129	-0.031
-332.231	-88.635	-0.413	0.121
-331.216	196.988	0.126	0.189
-330.202	-72.065	0.186	0.068
-329.187	-77.065	0.120	0.041
-328.172	-81.763	0.219	-0.071
-327.158	80.544	-0.119	-0.126
-326.143	117.061	-0.006	0.007
-325.129	-171.643	0.364	-0.012
-324.114	128.967	-0.065	-0.082
-323.099	443.699	0.199	0.430
-322.085	266.036	-0.078	0.134
-321.070	-84.757	0.088	0.027
-320.056	-136.014	-0.213	-0.025
-319.041	800.000	0.076	0.220
-318.026	800.000	-0.133	-0.438
-317.012	-200.000	0.037	-0.211
-315.997	34.276	0.186	0.159
-314.983	146.613	0.135	0.178
-313.968	-37.713	-0.290	0.152
-312.953	800.000	-0.057	-0.167
-311.939	800.000	-0.044	-0.151
-310.924	-200.000	0.037	-0.413
-309.910	102.122	-0.122	0.141
-308.895	-200.000	-0.074	0.417
-307.880	210.553	-0.134	-0.208
-306.866	111.671	0.143	0.170
-305.851	-132.334	0.232	0.030
-304.837	-200.000	0.017	0.127
-303.822	-62.883	-0.166	0.068
-302.807	45.648	-0.123	-0.112
-301.793	27.389	0.223	0.185
-300.778	-40.738	0.097	-0.049
-299.764	24.924	0.394	0.322
-298.749	101.979	-0.059	-0.068
-297.735	-110.996	0.198	-0.040
-296.720	-105.296	-0.111	0.025
-295.705	-147.487	0.368	-0.031
-294.691	623.829	-0.045	-0.113
-293.676	181.866	0.155	0.225
-292.662	618.904	-0.022	-0.054
-291.647	-200.000	-0.050	0.322
-290.632	-9.862	0.013	0.009
-289.618	-129.497	-0.219	0.030
-288.603	-200.000	-0.037	-0.265
-287.589	-50.635	0.144	-0.067
-286.574	9.862	-0.229	0.171
-285.559	40.706	-0.120	0.107
-284.545	-171.988	0.178	0.006
-283.530	-98.507	-0.060	0.015
-282.516	-22.580	-0.116	-0.069
-281.501	-200.000	0.009	-0.203
-280.486	55.276	0.258	-0.246
-279.472	446.264	-0.099	-0.215
-278.457	259.411	0.257	0.436
-277.443	-194.272	-0.315	0.003
-276.428	-29.990	-0.053	-0.030
-275.413	-20.240	0.243	-0.147
-274.399	-115.454	-0.539	0.100
-273.384	111.819	0.204	-0.242
-272.370	382.986	-0.064	-0.129
-271.355	1.920	0.157	0.111
-270.340	-96.387	0.245	0.064
-269.326	467.904	-0.094	0.207
-268.311	-200.000	-0.002	-0.189
-267.297	-58.687	-0.183	0.078
-266.282	-200.000	0.007	0.122
-265.267	-4.169	0.296	-0.202
-264.253	-200.000	-0.008	0.059
-263.238	-97.980	-0.076	-0.019
-262.224	-200.000	-0.004	-0.100
-261.209	-200.000	-0.035	-0.233
-260.195	-200.000	0.025	0.236
-259.180	800.000	-0.031	-0.094
-258.165	-200.000	0.052	-0.328
-257.151	-110.142	-0.054	0.011
-256.136	157.011	0.066	-0.089
-255.122	612.470	-0.208	0.511
-254.107	27.066	-0.057	-0.047
-253.092	-83.093	0.595	-0.188
-252.078	362.394	0.097	-0.190
-251.063	298.561	0.182	0.328
-250.049	-200.000	-0.083	-0.494
-249.034	-200.000	-0.033	0.174
-248.019	-130.761	0.132	0.017
-247.005	135.069	-0.075	-0.095
-245.990	-109.913	-0.049	0.010
-244.976	357.352	-0.089	-0.174
-243.961	-42.063	-0.110	-0.056
-242.946	-132.587	0.236	-0.030
-241.932	-200.000	-0.019	-0.286
-240.917	800.000	0.046	0.168
-239.903	-200.000	0.011	0.260
-238.888	-55.878	0.455	-0.199
-237.873	57.323	-0.181	0.173
-236.859	800.000	-0.096	-0.341
-235.844	-200.000	0.023	-0.100
-234.830	-200.000	-0.041	-0.301
-233.815	34.971	0.119	-0.102
-232.800	0.102	-0.091	-0.063
-231.786	-2.573	-0.145	0.100
-230.771	369.655	-0.066	-0.131
-229.757	-200.000	-0.009	0.173
-228.742	-136.433	-0.173	-0.020
-227.727	48.471	-0.111	0.102
-226.713	-140.472	-0.162	-0.017
-225.698	87.040	0.104	-0.113
-224.684	-200.000	0.005	0.072
-223.669	-196.076	-0.232	-0.002
-222.655	-138.077	0.097	0.011
-221.640	-88.978	0.308	-0.089
-220.625	51.147	-0.141	0.131
-219.611	59.765	0.176	0.170
-218.596	321.349	-0.015	0.028
-217.582	356.531	0.102	0.199
-216.567	800.000	0.020	0.082
-215.552	-122.581	0.103	-0.016
-214.538	-53.873	-0.080	-0.036
-213.523	681.782	-0.119	0.305
-212.509	-45.554	0.130	0.063
-211.494	136.474	0.402	0.515
-210.479	47.115	0.138	-0.126
-209.465	242.296	-0.126	-0.206
-208.450	-16.925	0.116	-0.072
-207.436	751.463	-0.028	0.074
-206.421	7.022	-0.100	-0.073
-205.406	217.594	0.107	0.167
-204.392	141.834	0.165	-0.215
-203.377	105.193	0.049	0.057
-202.363	505.084	-0.060	-0.136
-201.348	-31.832	0.178	-0.098
-200.333	-55.835	0.165	0.072
-199.319	144.300	0.291	0.380
-198.304	-128.065	0.264	-0.037
-197.290	47.595	-0.188	0.172
-196.275	-14.772	-0.221	-0.139
-195.260	-135.696	-0.103	0.012
-194.246	267.012	-0.061	-0.104
-193.231	512.513	0.166	-0.379
-192.217	643.695	-0.075	-0.187
-191.202	-138.955	0.305	-0.033
-190.187	82.768	-0.125	-0.133
-189.173	-39.931	0.290	0.148
-188.158	-200.000	0.012	0.296
-187.144	-70.533	0.157	0.058
-186.129	58.806	-0.058	0.056
-185.114	-71.830	-0.113	-0.041
-184.100	-200.000	-0.006	-0.085
-183.085	191.944	-0.174	-0.257
-182.071	-10.774	0.185	-0.120
-181.056	-26.773	-0.193	0.110
-180.042	-126.574	-0.271	0.039
-179.027	156.021	-0.150	-0.203
-178.012	714.417	0.083	-0.215
-176.998	-155.184	0.270	0.017
-175.983	127.598	0.181	-0.226
-174.969	-49.029	-0.029	-0.013
-173.954	-59.552	-0.223	-0.094
-172.939	-163.649	0.345	0.016
-171.925	800.000	-0.103	-0.284
-170.910	800.000	-0.038	-0.162
-169.896	102.895	0.076	-0.087
-168.881	165.136	0.197	0.272
-167.866	-92.979	-0.152	-0.042
-166.852	58.332	-0.265	-0.255
-165.837	800.000	0.127	0.390
-164.823	487.282	0.036	0.080
-163.808	800.000	-0.018	0.059
-162.793	-200.000	-0.025	-0.149
-161.779	-41.559	-0.231	0.116
-160.764	-166.797	0.325	0.013
-159.750	-200.000	-0.025	0.145
-158.735	-200.000	-0.022	0.264
-157.720	-200.000	0.051	0.430
-156.706	800.000	0.166	0.518
-155.691	-66.992	0.105	0.040
-154.677	-102.394	0.182	-0.043
-153.662	-97.870	0.178	-0.045
-152.647	-103.062	0.231	0.054
-151.633	-81.651	-0.280	-0.090
-150.618	-200.000	0.048	-0.250
-149.604	-30.504	0.170	-0.094
-148.589	63.803	-0.189	0.186
-147.574	143.629	0.151	-0.197
-146.560	36.518	-0.103	-0.089
-145.545	165.000	-0.048	0.067
-144.531	-25.538	0.071	-0.041
-143.516	58.676	-0.088	-0.085
-142.502	50.390	-0.103	0.096
-141.487	87.580	-0.282	-0.305
-140.472	-121.837	-0.244	-0.039
-139.458	13.339	0.176	0.133
-138.443	-68.781	0.088	0.033
-137.429	140.139	0.164	0.212
-136.414	800.000	-0.132	0.379
-135.399	-200.000	0.094	0.410
-134.385	-93.949	0.161	-0.043
-133.370	-117.189	-0.064	-0.011
-132.356	-140.355	0.260	-0.027
-131.341	800.000	-0.063	-0.183
-130.326	-29.374	0.250	0.140
-129.312	760.589	-0.129	0.341
-128.297	-42.148	0.095	0.048
-127.283	79.405	-0.094	0.098
-126.268	800.000	-0.038	-0.126
-125.253	284.665	0.123	-0.216
-124.239	40.750	-0.147	-0.129
-123.224	-20.586	-0.037	-0.022
-122.210	71.973	0.272	-0.277
-121.195	36.116	-0.153	0.132
-120.180	-200.000	-0.031	-0.268
-119.166	558.956	-0.021	0.050
-118.151	542.905	0.070	0.162
-117.137	800.000	-0.052	0.167
-116.122	-200.000	0.017	0.254
-115.107	-69.177	-0.052	0.019
-114.093	-200.000	0.003	0.071
-113.078	59.175	-0.294	0.283
-112.064	-20.440	0.397	0.239
-111.049	-62.290	-0.294	0.120
-110.034	357.596	-0.124	-0.243
-109.020	-72.766	-0.188	0.068
-108.005	158.810	0.076	0.104
-106.991	-80.432	0.395	0.129
-105.976	-110.766	0.141	-0.028
-104.962	-57.517	0.080	-0.034
-103.947	800.000	-0.026	0.088
-102.932	48.075	0.340	-0.311
-101.918	113.139	-0.051	-0.060
-100.903	13.737	0.260	-0.197
-99.889	-91.618	0.068	0.019
-98.874	647.917	0.041	-0.103
-97.859	-104.649	0.216	-0.049
-96.845	-76.214	0.192	0.066
-95.830	-54.700	0.188	0.083
-94.816	80.622	0.162	0.171
-93.801	212.601	0.156	-0.241
-92.786	237.897	-0.137	-0.222
-91.772	-53.256	0.081	0.036
-90.757	35.865	0.184	0.158
-89.743	122.004	0.165	0.201
-88.728	-93.091	-0.310	0.084
-87.713	800.000	0.109	0.305
-86.699	-25.358	-0.098	-0.056
-85.684	-12.777	0.070	0.044
-84.670	-27.276	0.180	0.103
-83.655	402.410	-0.108	-0.222
-82.640	109.500	0.124	0.145
-81.626	459.339	0.128	-0.279
-80.611	-120.879	0.196	0.032
-79.597	-151.330	-0.250	0.018
-78.582	-200.000	-0.008	-0.169
-77.567	-96.980	0.166	0.042
-76.553	44.388	0.397	-0.356
-75.538	139.271	-0.132	-0.169
-74.524	-116.140	0.125	-0.023
-73.509	179.518	-0.020	-0.028
-72.494	-200.000	0.008	0.244
-71.480	-18.107	-0.269	0.165
-70.465	-200.000	-0.004	-0.098
-69.451	484.456	-0.043	0.095
-68.436	-200.000	-0.072	0.333
-67.422	-82.907	0.221	0.070
-66.407	-25.197	0.056	0.032
-65.392	261.922	0.109	-0.185
-64.378	-112.083	0.313	-0.061
-63.363	-46.489	0.143	0.068
-62.349	-8.035	-0.172	0.113
-61.334	52.206	-1.092	-1.015
-60.319	21.406	0.707	0.560
-59.305	800.000	-0.408	-1.449
-58.290	800.000	0.540	1.555
-57.276	-200.000	0.262	1.668
-56.261	-200.000	128.997	692.017
-55.246	406.050	1618.673	3330.590
-54.232	137.862	2771.603	3540.296
-53.217	96.253	2158.542	2406.540
-52.203	34.539	1588.064	1352.293
-51.188	26.298	1331.572	1084.617
-50.173	23.795	1294.420	1039.684
-49.159	52.365	1364.596	1269.147
-48.144	48.876	1375.384	1258.178
-47.130	26.501	1322.437	1078.213
-46.115	23.169	1303.552	1043.164
-45.100	23.043	1297.994	1037.940
-44.086	22.850	1295.790	1035.005
-43.071	22.931	1293.167	1033.341
-42.057	22.701	1292.102	1031.107
-41.042	22.937	1289.649	1030.481
-40.027	22.933	1288.426	1029.438
-39.013	22.983	1286.104	1027.836
-37.998	22.861	1284.918	1026.139
-36.984	22.994	1282.540	1024.971
-35.969	23.080	1280.541	1023.826
-34.954	23.062	1279.318	1022.706
-33.940	22.966	1278.313	1021.305
-32.925	23.084	1276.784	1020.724
-31.911	23.125	1274.965	1019.469
-30.896	23.083	1274.167	1018.546
-29.881	23.050	1272.867	1017.280
-28.867	23.113	1271.161	1016.235
-27.852	23.138	1270.006	1015.414
-26.838	23.061	1268.832	1013.997
-25.823	23.138	1267.351	1013.211
-24.809	23.059	1266.116	1011.734
-23.794	23.158	1264.770	1011.185
-22.779	23.049	1263.504	1009.509
-21.765	23.052	1262.388	1008.593
-20.750	23.071	1260.961	1007.523
-19.736	23.079	1259.536	1006.388
-18.721	22.977	1258.496	1004.938
-17.706	23.001	1257.308	1004.089
-16.692	22.924	1256.528	1002.987
-15.677	22.999	1254.809	1002.001
-14.663	22.966	1253.699	1000.884
-13.648	22.994	1252.638	1000.159
-12.633	22.948	1251.852	999.232
-11.619	22.922	1251.440	998.717
-10.604	22.944	1250.612	998.141
-9.590	22.965	1249.379	997.235
-8.575	22.923	1248.353	996.141
-7.560	23.006	1247.677	996.025
-6.546	23.044	1246.764	995.474
-5.531	22.935	1245.778	994.034
-4.517	22.901	1245.139	993.291
-3.502	22.994	1244.157	992.995
-2.487	23.089	1242.919	992.498
-1.473	22.878	1238.776	987.970
-0.458	21.064	1224.148	966.227
0.556	16.445	1208.278	927.706
1.571	12.626	1216.164	912.544
2.586	11.903	1231.015	919.546
3.600	11.836	1219.033	910.143
4.615	8.936	1148.882	842.473
5.629	3.446	1079.662	764.483
6.644	0.904	1062.689	739.982
7.659	0.703	1061.086	737.819
8.673	0.729	1059.859	737.028
9.688	0.683	1058.989	736.132
10.702	0.822	1056.447	734.976
11.717	4.281	1059.829	754.101
12.731	10.886	1068.894	792.782
13.746	15.970	1075.032	822.133
14.761	17.305	1076.759	829.906
15.775	16.598	1075.180	825.166
16.790	15.585	1073.459	818.839
17.804	15.028	1071.452	814.525
18.819	14.660	1070.039	811.592
19.834	14.379	1069.028	809.386
20.848	14.220	1068.225	807.936
21.863	13.865	1067.917	805.909
22.877	13.766	1066.892	804.580
23.892	13.732	1065.986	803.661
24.907	13.803	1065.283	803.405
25.921	13.729	1065.053	802.802
26.936	13.811	1063.968	802.313
27.950	13.894	1062.382	801.445
28.965	13.888	1061.710	800.836
29.980	13.945	1060.243	799.935
30.994	14.022	1059.243	799.482
32.009	13.960	1058.536	798.578
33.023	14.011	1056.883	797.505
34.038	13.956	1056.318	796.743
35.053	13.817	1055.308	795.247
36.067	13.940	1054.447	795.113
37.082	13.912	1053.426	794.142
38.096	13.798	1053.129	793.301
39.111	13.838	1052.649	793.061
40.126	13.722	1051.314	791.432
41.140	13.857	1049.655	790.754
42.155	13.746	1049.048	789.699
43.169	13.795	1047.387	788.615
44.184	13.699	1046.977	787.777
45.199	13.887	1045.097	787.184
46.213	13.829	1044.982	786.753
47.228	13.892	1043.358	785.759
48.242	13.944	1042.299	785.142
49.257	13.870	1041.466	784.094
50.271	13.925	1040.646	783.666
51.286	13.880	1039.816	782.759
52.301	13.810	1039.089	781.814
53.315	13.853	1037.836	781.003
54.330	13.799	1036.932	779.998
55.344	13.864	1035.892	779.452
56.359	13.694	1035.607	778.371
57.374	13.822	1034.065	777.747
58.388	13.883	1033.145	777.271
59.403	13.917	1032.729	777.046
60.417	13.819	1031.870	775.873
61.432	13.718	1031.016	774.690
62.447	13.755	1030.195	774.177
63.461	13.606	1029.718	773.057
64.476	13.658	1028.776	772.524
65.490	13.642	1028.002	771.800
66.505	13.786	1027.100	771.725
67.520	13.644	1026.529	770.568
68.534	13.658	1025.797	770.014
69.549	13.681	1024.911	769.385
70.563	13.698	1024.015	768.724
71.578	13.664	1023.347	767.996
72.593	13.719	1022.629	767.644
73.607	13.656	1022.074	766.869
74.622	13.752	1021.379	766.722
75.636	13.548	1020.753	765.243
76.651	13.632	1020.219	765.163
77.666	13.603	1019.549	764.459
78.680	13.660	1018.555	763.912
79.695	13.683	1017.882	763.444
80.709	13.663	1017.362	762.892
81.724	13.696	1016.525	762.349
82.739	13.730	1015.860	761.939
83.753	13.908	1014.825	761.914
84.768	13.946	1013.408	760.958
85.782	13.950	1012.876	760.508
86.797	13.833	1012.340	759.500
87.812	13.708	1011.329	758.103
88.826	13.783	1010.347	757.646
89.841	13.925	1009.516	757.600
90.855	13.905	1008.242	756.487
91.870	13.819	1007.888	755.766
92.884	14.028	1006.524	755.626
93.899	13.945	1006.290	755.005
94.914	14.052	1005.212	754.614
95.928	13.983	1004.567	753.752
96.943	13.959	1003.481	752.763
97.957	14.014	1002.501	752.209
98.972	13.875	1001.899	751.061
99.987	13.989	1000.927	750.783
101.001	13.962	1000.007	749.901
102.016	13.823	999.624	748.924
103.030	14.049	998.513	749.044
104.045	13.999	997.494	747.987
105.060	13.932	997.002	747.251
106.074	13.815	996.115	745.992
107.089	13.816	994.953	745.062
108.103	13.784	993.866	744.039
109.118	13.766	993.500	743.619
110.133	13.921	992.482	743.483
111.147	13.910	991.328	742.503
112.162	13.835	990.623	741.577
113.176	13.831	990.009	741.031
114.191	13.918	989.055	740.642
115.206	13.826	988.426	739.694
116.220	13.871	987.672	739.264
117.235	13.886	986.502	738.388
118.249	13.887	985.605	737.656
119.264	13.816	985.002	736.825
120.279	13.810	984.412	736.291
121.293	13.836	983.031	735.312
122.308	13.851	981.853	734.429
123.322	13.824	981.189	733.751
124.337	13.831	980.776	733.407
125.352	13.740	979.422	731.929
126.366	13.857	978.155	731.429
127.381	13.907	977.325	730.968
128.395	13.894	976.226	730.021
129.410	13.930	975.488	729.564
130.424	13.881	974.517	728.558
131.439	14.031	973.325	728.258
132.454	13.851	973.160	727.284
133.468	13.982	972.304	727.151
134.483	13.869	971.594	726.061
135.497	13.970	970.107	725.327
136.512	13.775	969.771	724.164
137.527	13.879	968.553	723.644
138.541	13.934	967.556	723.071
139.556	14.063	967.082	723.214
140.570	13.968	966.528	722.324
141.585	14.170	965.571	722.424
142.600	14.148	964.627	721.557
143.614	14.052	964.495	720.979
144.629	14.080	963.246	720.101
145.643	14.163	962.160	719.584
146.658	13.968	961.326	718.053
147.673	14.079	960.310	717.714
148.687	14.075	959.736	717.203
149.702	13.956	958.927	716.020
150.716	13.956	958.358	715.534
151.731	13.950	957.433	714.752
152.746	13.986	956.564	714.197
153.760	14.054	956.031	714.026
154.775	14.122	955.475	713.839
155.789	14.149	954.937	713.492
156.804	14.134	954.180	712.800
157.819	14.043	953.958	712.180
158.833	14.184	952.747	711.814
159.848	14.224	952.099	711.438
160.862	14.204	951.018	710.484
161.877	14.077	950.711	709.650
162.892	14.084	949.545	708.746
163.906	14.253	948.347	708.507
164.921	14.218	947.878	707.946
165.935	14.176	947.216	707.211
166.950	14.286	945.770	706.537
167.964	14.359	945.097	706.279
168.979	14.150	944.452	704.851
169.994	14.231	943.302	704.272
171.008	14.174	943.141	703.849
172.023	14.350	941.981	703.663
173.037	14.464	940.784	703.187
174.052	14.347	940.963	702.767
175.067	14.170	940.264	701.437
176.081	14.337	939.675	701.638
177.096	14.223	939.365	700.866
178.110	14.328	938.180	700.360
179.125	14.271	937.834	699.802
180.140	14.361	937.334	699.745
181.154	14.430	936.254	699.164
182.169	14.360	936.356	698.886
183.183	14.339	935.748	698.280
184.198	14.495	934.547	697.976
185.213	14.469	934.042	697.431
186.227	14.591	933.079	697.156
187.242	14.556	932.646	696.627
188.256	14.617	932.272	696.539
189.271	14.548	931.345	695.498
190.286	14.513	930.373	694.565
191.300	14.455	929.844	693.867
192.315	14.309	929.500	692.940
193.329	14.422	928.743	692.786
194.344	14.453	927.945	692.259
195.359	14.577	927.061	692.051
196.373	14.496	926.941	691.566
197.388	14.601	926.306	691.463
198.402	14.560	925.816	690.867
199.417	14.667	925.302	690.866
200.432	14.727	924.636	690.556
201.446	14.840	923.815	690.350
202.461	14.811	923.857	690.198
203.475	14.704	923.209	689.213
204.490	14.732	922.170	688.493
205.504	14.679	921.714	687.872
206.519	14.646	920.772	686.973
207.534	14.728	920.388	686.963
208.548	14.774	919.553	686.466
209.563	14.814	918.863	686.056
210.577	14.832	918.255	685.616
211.592	14.927	917.111	685.091
212.607	14.797	916.569	684.091
213.621	14.864	915.827	683.749
214.636	14.928	915.015	683.344
215.650	14.892	914.791	682.971
216.665	14.922	913.910	682.375
217.680	15.007	913.126	682.075
218.694	15.011	912.396	681.486
219.709	15.021	911.743	680.979
220.723	14.887	911.357	680.086
221.738	14.956	910.316	679.528
222.753	15.095	910.016	679.810
223.767	14.968	909.659	678.967
224.782	15.083	908.753	678.696
225.796	15.017	908.239	677.985
226.811	15.081	907.329	677.505
227.826	15.059	906.652	676.849
228.840	14.984	905.995	675.998
229.855	15.083	905.205	675.749
230.869	15.170	904.190	675.281
231.884	15.133	903.228	674.354
232.899	14.964	903.044	673.477
233.913	15.024	902.057	672.920
234.928	15.041	901.645	672.623
235.942	15.206	901.006	672.750
236.957	15.071	900.373	671.677
237.972	15.085	900.175	671.524
238.986	15.129	899.007	670.770
240.001	15.031	898.861	670.211
241.015	15.250	897.986	670.375
242.030	15.234	897.268	669.713
243.045	15.278	896.599	669.333
244.059	15.219	896.558	669.008
245.074	15.167	895.571	668.003
246.088	15.262	895.503	668.270
247.103	15.372	894.218	667.690
248.117	15.376	894.038	667.514
249.132	15.465	892.988	667.027
250.147	15.514	892.160	666.541
251.161	15.479	891.832	666.101
252.176	15.631	890.746	665.833
253.190	15.417	890.598	664.813
254.205	15.511	889.497	664.307
255.220	15.604	889.340	664.497
256.234	15.508	888.826	663.675
257.249	15.623	887.718	663.241
258.263	15.644	887.042	662.762
259.278	15.673	886.167	662.163
260.293	15.766	885.885	662.259
261.307	15.680	885.438	661.528
262.322	15.806	884.646	661.374
263.336	15.753	883.563	660.300
264.351	15.738	883.229	659.932
265.366	15.864	882.412	659.757
266.380	15.875	881.970	659.411
267.395	15.850	880.972	658.508
268.409	15.752	880.614	657.799
269.424	15.770	879.940	657.309
270.439	15.824	879.097	656.832
271.453	15.843	878.449	656.363
272.468	15.868	878.118	656.155
273.482	15.774	877.498	655.266
274.497	15.739	876.929	654.649
275.512	15.834	876.321	654.506
276.526	15.856	875.994	654.290
277.541	15.869	875.423	653.854
278.555	16.055	874.756	654.021
279.570	15.982	873.835	652.990
280.585	15.950	872.716	651.972
281.599	16.090	872.324	652.164
282.614	15.968	872.209	651.549
283.628	16.099	870.973	651.073
284.643	16.034	870.607	650.494
285.657	16.149	869.796	650.272
286.672	16.083	869.719	649.902
287.687	16.035	868.748	648.936
288.701	16.132	868.445	649.024
289.716	16.304	867.320	648.787
290.730	16.198	867.148	648.195
291.745	16.058	866.710	647.269
292.760	16.298	865.553	647.271
293.774	16.296	865.047	646.827
294.789	16.148	864.804	646.022
295.803	16.225	863.973	645.637
296.818	16.277	863.251	645.240
297.833	16.231	862.499	644.445
298.847	16.175	862.099	643.874
299.862	16.162	861.778	643.528
300.876	16.212	861.483	643.441
301.891	16.312	860.633	643.131
302.906	16.309	860.084	642.653
303.920	16.272	859.190	641.789
304.935	16.358	858.885	641.831
305.949	16.346	858.289	641.282
306.964	16.535	857.061	641.025
307.979	16.473	857.031	640.708
308.993	16.447	856.384	640.071
310.008	16.472	855.674	639.579
311.022	16.402	855.083	638.817
312.037	16.486	854.578	638.699
313.052	16.513	853.664	638.060
314.066	16.543	853.569	638.047
315.081	16.476	853.078	637.371
316.095	16.510	852.261	636.832
317.110	16.439	851.838	636.195
318.125	16.516	851.129	635.898
319.139	16.602	850.507	635.697
320.154	16.453	850.956	635.418
321.168	16.532	850.024	634.963
322.183	16.523	849.299	634.329
323.197	16.596	848.720	634.115
324.212	16.675	847.788	633.660
325.227	16.639	847.227	633.048
326.241	16.674	846.601	632.656
327.256	16.566	846.390	632.039
328.270	16.543	845.980	631.590
329.285	16.544	845.398	631.104
330.300	16.661	844.290	630.656
331.314	16.694	843.648	630.244
332.329	16.599	843.636	629.827
333.343	16.619	843.565	629.793
334.358	16.807	842.737	629.817
335.373	16.735	842.258	629.136
336.387	16.746	842.165	629.051
337.402	16.813	842.108	629.204
338.416	16.821	841.682	628.859
339.431	16.878	841.144	628.610
340.446	16.862	840.406	627.945
341.460	16.868	840.217	627.769
342.475	16.931	840.540	628.188
343.489	16.897	839.777	627.437
344.504	16.906	838.781	626.673
345.519	17.044	838.728	627.087
346.533	16.941	837.956	626.074
347.548	17.062	837.074	625.805
348.562	16.890	836.639	624.790
349.577	16.978	836.012	624.590
350.592	16.951	835.625	624.149
351.606	16.850	835.319	623.493
352.621	17.031	834.398	623.413
353.635	17.011	833.492	622.610
354.650	16.994	833.069	622.178
355.665	17.033	832.483	621.826
356.679	17.165	831.678	621.655
357.694	17.165	831.140	621.197
358.708	17.213	830.443	620.797
359.723	17.119	829.802	619.918
360.738	17.198	829.562	619.973
361.752	17.056	829.462	619.326
362.767	17.217	828.344	619.022
363.781	17.260	828.008	618.874
364.796	17.225	827.225	618.105
365.810	17.340	827.068	618.352
366.825	17.429	826.791	618.412
367.840	17.433	826.074	617.837
368.854	17.490	825.352	617.449
369.869	17.442	824.776	616.790
370.883	17.433	824.806	616.724
371.898	17.498	824.595	616.747
372.913	17.545	823.882	616.330
373.927	17.472	823.152	615.463
374.942	17.584	822.723	615.493
375.956	17.623	822.661	615.536
376.971	17.631	822.041	615.046
377.986	17.556	821.473	614.294
379.000	17.600	821.127	614.142
380.015	17.751	820.346	614.046
381.029	17.688	819.960	613.476
382.044	17.522	819.630	612.579
383.059	17.733	818.965	612.784
384.073	17.623	818.744	612.171
385.088	17.727	817.731	611.733
386.102	17.665	817.259	611.103
387.117	17.588	816.769	610.404
388.132	17.691	815.893	610.064
389.146	17.703	815.861	610.030
390.161	17.700	815.272	609.526
391.175	17.736	814.647	609.131
392.190	17.769	814.253	608.904
393.205	17.644	814.023	608.231
394.219	17.724	813.374	607.977
395.234	17.767	812.975	607.778
396.248	17.656	812.881	607.259
397.263	17.635	812.172	606.601
398.278	17.743	811.696	606.576
399.292	17.671	811.546	606.153
400.307	17.770	811.081	606.106
401.321	17.727	810.563	605.511
402.336	17.850	809.685	605.239
403.350	17.881	809.578	605.215
404.365	17.968	808.633	604.762
405.380	18.038	808.028	604.503
406.394	17.909	807.923	603.915
407.409	17.908	807.852	603.805
408.423	17.985	807.599	603.837
409.438	18.069	806.811	603.488
410.453	17.989	806.872	603.200
411.467	18.056	805.999	602.728
412.482	18.229	805.267	602.739
413.496	18.148	805.023	602.215
414.511	18.123	805.058	602.101
415.526	18.109	804.512	601.589
416.540	18.175	803.889	601.303
417.555	18.238	803.313	601.039
418.569	18.282	802.831	600.782
419.584	18.230	802.614	600.384
420.599	18.227	802.206	600.016
421.613	116.575	1298.885	1492.967
422.628	100.701	1371.207	1493.016
