DTS Sentinel unit serial number:	SN413079Multiplexer serial number:	ORYXHardware model number:	OX4-SRSoftware version number:	ORYX F/W v4.00 Oryx Data Collector v3.7.2.0data status	okinstallation	princeton_trtdifferential loss correction	single-endedforward channel	channel 1reverse channel	N/Adate	2019/09/15time	18:26:35forward acquisition time	60.00reverse acquisition time	0.00gamma	496.2192k internal	0.2290k external	0.2290temperature offset calibration	0.9938default loss term (dB/km)	0.3790temperature slope calibration	1.0000multiplexer offset coefficient	1.0000multiplexer slope coefficient	1.0000fibre end	0.00T internal ref (°C)	44.20T ext. ref 1 (°C)	6.71T ext. ref 2 (°C)	37.95length (m)	temperature (°C)	Stokes	anti-Stokes-747.200	-200.000	0.027	-0.150
-746.185	433.921	0.050	0.112
-745.171	800.000	-0.021	0.073
-744.156	544.747	-0.085	0.207
-743.142	-32.658	-0.152	-0.086
-742.127	-131.284	0.350	0.048
-741.112	-156.808	-0.213	0.013
-740.098	-48.977	0.237	-0.116
-739.083	-38.403	0.113	-0.061
-738.069	588.218	0.050	0.126
-737.054	353.726	-0.031	-0.064
-736.039	270.076	-0.174	0.314
-735.025	800.000	0.022	0.093
-734.010	-4.760	-0.108	0.076
-732.996	-200.000	0.018	-0.106
-731.981	-200.000	0.089	-0.489
-730.966	233.981	0.109	-0.184
-729.952	-87.387	-0.103	-0.032
-728.937	116.839	-0.089	-0.112
-727.923	100.678	-0.010	0.012
-726.908	15.970	0.098	0.079
-725.894	117.726	-0.147	0.185
-724.879	70.850	0.101	0.108
-723.864	-29.412	-0.127	0.074
-722.850	-108.456	0.200	-0.044
-721.835	374.088	-0.070	-0.147
-720.821	59.099	-0.079	-0.080
-719.806	3.839	-0.180	0.135
-718.791	-100.928	-0.173	0.043
-717.777	314.822	0.133	-0.257
-716.762	800.000	-0.070	-0.254
-715.748	-30.340	0.346	0.201
-714.733	-89.947	-0.229	0.068
-713.718	109.260	-0.066	0.081
-712.704	-79.180	-0.400	0.139
-711.689	-146.124	-0.190	-0.017
-710.675	-200.000	0.010	-0.193
-709.660	277.186	0.190	-0.345
-708.645	223.137	0.236	-0.390
-707.631	-200.000	-0.054	-0.280
-706.616	129.570	-0.053	0.070
-705.602	800.000	-0.100	-0.427
-704.587	683.159	0.134	-0.358
-703.572	-8.502	-0.101	-0.069
-702.558	800.000	-0.045	0.167
-701.543	-200.000	0.004	0.114
-700.529	57.474	-0.188	-0.188
-699.514	-124.786	-0.239	0.038
-698.499	-146.516	0.212	0.019
-697.485	74.487	-0.188	0.202
-696.470	-84.284	-0.082	-0.027
-695.456	-58.654	-0.151	-0.067
-694.441	-57.516	-0.356	0.160
-693.426	447.397	-0.030	-0.068
-692.412	800.000	0.084	-0.277
-691.397	-87.534	-0.280	0.086
-690.383	-46.181	0.116	-0.058
-689.368	175.334	0.042	-0.062
-688.354	-51.156	-0.403	-0.193
-687.339	-187.474	0.252	-0.003
-686.324	800.000	-0.067	-0.192
-685.310	800.000	0.032	0.125
-684.295	-55.209	-0.392	-0.180
-683.281	145.468	-0.166	-0.227
-682.266	92.390	-0.192	0.221
-681.251	-78.345	0.069	0.024
-680.237	-48.274	0.079	0.039
-679.222	-200.000	0.008	-0.199
-678.208	-31.321	-0.450	-0.259
-677.193	-62.297	0.045	0.019
-676.178	-24.046	0.033	0.020
-675.164	800.000	-0.048	0.190
-674.149	-62.948	-0.279	-0.118
-673.135	-168.398	-0.103	-0.004
-672.120	-56.293	-0.286	-0.130
-671.105	181.564	-0.052	-0.079
-670.091	230.665	0.173	-0.289
-669.076	-37.855	-0.325	-0.177
-668.062	800.000	-0.081	-0.236
-667.047	-63.018	-0.288	-0.122
-666.032	563.950	-0.023	0.057
-665.018	-200.000	0.073	0.340
-664.003	722.607	-0.102	-0.278
-662.989	17.614	-0.130	0.105
-661.974	-15.773	0.107	0.070
-660.959	655.616	-0.071	0.187
-659.945	800.000	0.037	-0.125
-658.930	-76.625	0.056	0.020
-657.916	92.799	0.142	0.163
-656.901	-200.000	0.013	0.165
-655.886	800.000	-0.022	-0.093
-654.872	34.610	0.174	0.155
-653.857	134.834	0.289	-0.383
-652.843	185.355	0.065	-0.098
-651.828	355.506	-0.138	-0.279
-650.814	800.000	0.106	-0.327
-649.799	429.106	-0.154	0.339
-648.784	304.305	-0.110	0.208
-647.770	-173.718	-0.213	-0.006
-646.755	800.000	-0.067	0.204
-645.741	800.000	0.067	-0.237
-644.726	800.000	-0.082	-0.233
-643.711	72.720	-0.134	-0.143
-642.697	-87.854	-0.095	-0.029
-641.682	140.564	-0.028	0.038
-640.668	-75.357	-0.212	0.077
-639.653	-78.795	-0.220	-0.077
-638.638	-176.465	-0.100	0.003
-637.624	-200.000	0.041	-0.532
-636.609	142.040	-0.118	-0.159
-635.595	-14.442	0.323	-0.212
-634.580	800.000	-0.067	-0.290
-633.565	-200.000	0.008	-0.182
-632.551	153.932	0.055	-0.077
-631.536	0.660	-0.246	0.179
-630.522	800.000	-0.053	-0.221
-629.507	-154.593	0.387	0.026
-628.492	-200.000	-0.036	0.241
-627.478	23.006	0.166	0.139
-626.463	269.690	0.156	0.279
-625.449	-61.738	-0.154	0.066
-624.434	-8.824	-0.105	-0.072
-623.419	-68.329	-0.247	-0.098
-622.405	-48.595	0.416	0.204
-621.390	-97.080	0.259	0.069
-620.376	227.140	-0.097	-0.161
-619.361	251.975	0.033	-0.058
-618.346	-19.353	0.124	-0.078
-617.332	109.366	0.118	0.144
-616.317	-155.261	0.264	-0.018
-615.303	40.922	0.308	0.283
-614.288	800.000	-0.092	0.298
-613.273	66.729	-0.110	0.114
-612.259	64.214	0.160	-0.164
-611.244	572.016	0.081	-0.202
-610.230	28.856	0.010	-0.008
-609.215	-53.548	0.175	-0.082
-608.201	800.000	0.106	0.360
-607.186	34.848	0.237	0.211
-606.171	-133.235	0.256	0.033
-605.157	684.258	-0.052	0.138
-604.142	-138.427	0.402	-0.045
-603.128	58.100	0.208	-0.207
-602.113	-92.828	-0.326	-0.093
-601.098	-161.201	-0.103	-0.005
-600.084	-200.000	-0.054	0.623
-599.069	-18.684	0.151	-0.096
-598.055	35.708	-0.208	-0.186
-597.040	146.625	0.247	-0.337
-596.025	-52.101	-0.176	-0.083
-595.011	-57.390	0.037	-0.016
-593.996	-111.565	-0.260	0.054
-592.982	-49.629	0.043	-0.021
-591.967	800.000	0.015	0.044
-590.952	-52.594	0.281	-0.132
-589.938	-58.625	0.160	0.070
-588.923	800.000	0.067	0.204
-587.909	-200.000	-0.045	-0.236
-586.894	-21.652	0.131	-0.081
-585.879	800.000	-0.085	-0.320
-584.865	-105.101	-0.007	0.002
-583.850	-200.000	0.010	-0.142
-582.836	738.300	0.087	-0.238
-581.821	-200.000	0.071	0.394
-580.806	-200.000	-0.016	-0.087
-579.792	-200.000	0.005	-0.046
-578.777	285.380	-0.074	-0.136
-577.763	224.572	-0.183	0.301
-576.748	36.030	0.221	0.198
-575.733	800.000	-0.029	-0.103
-574.719	146.268	-0.081	-0.111
-573.704	117.802	0.200	-0.250
-572.690	-172.450	0.095	-0.003
-571.675	-96.415	-0.387	-0.104
-570.661	-200.000	0.025	-0.154
-569.646	-96.905	0.310	-0.083
-568.631	-43.309	-0.199	-0.103
-567.617	-164.985	-0.321	-0.015
-566.602	-20.814	-0.387	0.241
-565.588	700.352	-0.038	0.100
-564.573	107.602	0.137	0.165
-563.558	-200.000	0.005	-0.073
-562.544	800.000	0.109	0.319
-561.529	566.228	-0.026	0.064
-560.515	-126.128	0.304	-0.046
-559.500	141.888	-0.171	-0.230
-558.485	800.000	-0.003	0.011
-557.471	183.992	-0.077	0.115
-556.456	-200.000	-0.012	-0.397
-555.442	-200.000	-0.024	0.227
-554.427	6.891	-0.258	-0.195
-553.412	16.402	-0.083	-0.067
-552.398	-132.397	0.195	-0.026
-551.383	-6.411	0.296	0.205
-550.369	101.643	-0.026	0.031
-549.354	245.810	0.173	0.297
-548.339	-200.000	-0.031	-0.225
-547.325	386.488	-0.210	-0.441
-546.310	97.909	-0.177	0.207
-545.296	-200.000	-0.010	-0.138
-544.281	-200.000	-0.019	-0.087
-543.266	-134.011	0.139	-0.018
-542.252	40.337	0.195	0.178
-541.237	-66.472	0.271	0.109
-540.223	152.220	0.115	-0.160
-539.208	113.906	-0.103	0.127
-538.193	379.147	0.079	-0.164
-537.179	236.817	0.094	0.159
-536.164	128.725	-0.059	0.076
-535.150	-58.493	0.046	-0.021
-534.135	-15.638	-0.184	0.119
-533.121	800.000	0.027	0.108
-532.106	-63.880	0.323	-0.134
-531.091	-4.596	-0.298	-0.209
-530.077	800.000	0.033	-0.132
-529.062	42.624	0.051	-0.048
-528.048	-200.000	-0.011	-0.074
-527.033	158.157	-0.078	-0.110
-526.018	110.471	-0.107	0.130
-525.004	-29.246	-0.213	0.124
-523.989	-200.000	-0.311	0.001
-522.975	304.332	-0.112	0.210
-521.960	472.298	-0.105	0.241
-520.945	-200.000	-0.001	-0.042
-519.931	-200.000	-0.069	0.388
-518.916	-63.077	-0.075	0.031
-517.902	800.000	-0.015	-0.062
-516.887	28.148	-0.072	0.061
-515.872	800.000	-0.034	0.099
-514.858	-154.760	-0.135	-0.009
-513.843	-156.858	-0.204	-0.013
-512.829	255.813	0.128	0.223
-511.814	800.000	-0.102	0.380
-510.799	800.000	-0.106	0.366
-509.785	165.639	-0.227	0.326
-508.770	-200.000	-0.001	-0.093
-507.756	800.000	0.087	0.264
-506.741	164.452	0.041	0.059
-505.726	-100.483	0.072	-0.018
-504.712	27.921	0.014	-0.012
-503.697	60.847	-0.148	0.149
-502.683	146.043	-0.092	0.126
-501.668	647.047	-0.085	0.220
-500.653	788.597	-0.027	-0.076
-499.639	110.694	0.209	0.255
-498.624	184.193	-0.130	-0.195
-497.610	-19.030	0.122	0.077
-496.595	174.522	0.037	0.054
-495.581	800.000	0.013	-0.052
-494.566	-66.283	-0.276	0.112
-493.551	-69.454	0.304	0.118
-492.537	-73.223	-0.080	0.030
-491.522	601.107	-0.093	0.234
-490.508	779.179	0.097	-0.269
-489.493	-200.000	0.075	0.337
-488.478	-78.437	-0.431	-0.150
-487.464	-20.314	-0.202	-0.126
-486.449	-53.794	-0.110	0.051
-485.435	-200.000	0.001	-0.093
-484.420	16.268	0.022	-0.018
-483.405	-45.198	0.104	0.052
-482.391	192.672	-0.138	-0.211
-481.376	446.470	0.105	0.235
-480.362	-200.000	0.007	-0.176
-479.347	-200.000	0.029	0.177
-478.332	718.872	-0.089	0.240
-477.318	-32.515	-0.396	0.224
-476.303	390.171	0.113	-0.237
-475.289	-200.000	-0.014	0.170
-474.274	-95.478	0.166	-0.045
-473.259	-92.072	-0.192	-0.055
-472.245	466.807	0.022	-0.049
-471.230	-82.311	0.258	-0.085
-470.216	175.886	0.195	-0.286
-469.201	-46.973	0.120	-0.059
-468.186	288.816	-0.128	0.235
-467.172	800.000	-0.199	0.575
-466.157	-200.000	0.029	-0.168
-465.143	-11.549	-0.188	-0.125
-464.128	-147.308	0.195	-0.017
-463.113	-55.106	-0.038	-0.017
-462.099	-200.000	0.073	-0.328
-461.084	-178.535	0.123	0.003
-460.070	-108.657	0.159	-0.034
-459.055	-170.286	0.248	-0.009
-458.040	87.025	0.224	0.251
-457.026	-61.199	-0.284	0.121
-456.011	602.981	0.100	-0.252
-454.997	551.890	-0.154	-0.376
-453.982	146.374	0.125	0.170
-452.968	800.000	-0.010	0.033
-451.953	-37.009	0.204	0.111
-450.938	-198.297	0.016	0.000
-449.924	-43.983	-0.251	-0.128
-448.909	105.480	-0.183	-0.218
-447.895	87.410	0.076	0.085
-446.880	148.441	-0.046	0.063
-445.865	800.000	0.099	0.341
-444.851	-200.000	-0.050	-0.294
-443.836	47.699	0.235	-0.222
-442.822	63.854	-0.191	0.194
-441.807	-143.675	-0.136	0.013
-440.792	708.039	0.166	0.444
-439.778	-12.373	-0.204	-0.135
-438.763	-148.870	0.050	0.004
-437.749	-132.342	0.105	-0.014
-436.734	740.736	-0.046	-0.126
-435.719	-17.486	0.232	-0.148
-434.705	21.902	0.069	0.057
-433.690	800.000	0.105	-0.308
-432.676	800.000	-0.016	0.047
-431.661	700.249	0.135	-0.359
-430.646	165.311	0.031	-0.045
-429.632	17.101	0.308	-0.247
-428.617	-137.889	-0.385	-0.044
-427.603	-121.149	0.117	-0.020
-426.588	-200.000	0.060	0.324
-425.573	-14.454	0.025	-0.016
-424.559	-200.000	-0.067	0.372
-423.544	-200.000	-0.028	-0.235
-422.530	800.000	0.041	-0.148
-421.515	-200.000	0.052	0.250
-420.500	236.773	-0.112	-0.187
-419.486	800.000	-0.149	-0.622
-418.471	33.357	-0.203	-0.179
-417.457	233.114	-0.077	0.127
-416.442	800.000	0.016	-0.059
-415.428	-200.000	0.004	0.024
-414.413	-65.097	-0.058	-0.024
-413.398	-81.282	0.190	-0.063
-412.384	-133.817	-0.111	0.014
-411.369	-200.000	0.020	0.294
-410.355	-200.000	-0.084	0.459
-409.340	-139.375	-0.298	0.032
-408.325	-37.980	0.087	0.047
-407.311	-17.839	-0.286	-0.182
-406.296	159.334	-0.050	-0.070
-405.282	-100.500	0.219	0.055
-404.267	-11.823	-0.215	0.143
-403.252	132.508	-0.182	-0.237
-402.238	38.964	-0.115	-0.104
-401.223	189.175	-0.146	-0.222
-400.209	430.970	0.095	0.208
-399.194	55.093	0.137	0.134
-398.179	-88.161	0.360	0.109
-397.165	325.821	0.125	-0.241
-396.150	170.681	-0.094	-0.136
-395.136	0.090	-0.160	0.115
-394.121	14.805	0.209	-0.165
-393.106	193.579	-0.120	-0.183
-392.092	-134.934	0.290	-0.035
-391.077	-200.000	0.001	0.323
-390.063	-184.246	-0.228	-0.004
-389.048	419.758	-0.074	0.160
-388.033	731.936	0.063	-0.170
-387.019	-98.886	0.114	-0.029
-386.004	-22.999	0.120	0.073
-384.990	-18.725	-0.132	0.083
-383.975	-200.000	-0.042	-0.275
-382.960	-35.006	0.022	0.012
-381.946	-60.017	0.141	-0.061
-380.931	5.606	0.096	0.072
-379.917	160.619	-0.086	0.121
-378.902	205.429	-0.173	-0.271
-377.888	575.762	0.116	0.287
-376.873	133.386	-0.122	-0.159
-375.858	-108.997	-0.090	-0.019
-374.844	800.000	-0.017	0.049
-373.829	32.952	-0.295	-0.258
-372.815	90.862	0.196	-0.221
-371.800	79.283	0.198	0.215
-370.785	274.012	0.042	0.075
-369.771	-98.744	0.349	0.090
-368.756	63.344	-0.030	-0.030
-367.742	-200.000	-0.032	0.234
-366.727	356.172	0.186	0.375
-365.712	-200.000	0.038	-0.245
-364.698	704.838	0.023	0.061
-363.683	47.688	0.097	0.091
-362.669	63.267	0.062	-0.063
-361.654	-200.000	-0.007	-0.147
-360.639	-136.603	-0.079	-0.009
-359.625	-14.727	-0.301	0.195
-358.610	-92.791	0.119	0.034
-357.596	-200.000	-0.011	-0.217
-356.581	-200.000	-0.042	-0.229
-355.566	-200.000	0.006	-0.360
-354.552	-136.052	0.102	0.012
-353.537	698.005	0.052	-0.137
-352.523	-200.000	-0.001	0.043
-351.508	-200.000	-0.080	-0.397
-350.493	-125.311	-0.298	-0.046
-349.479	148.653	0.101	-0.138
-348.464	175.382	-0.135	-0.197
-347.450	-120.242	0.110	-0.019
-346.435	-56.366	0.147	-0.066
-345.420	84.569	-0.255	-0.282
-344.406	-200.000	0.080	0.360
-343.391	391.640	0.067	-0.141
-342.377	800.000	-0.056	0.173
-341.362	800.000	-0.073	-0.235
-340.348	-73.247	-0.157	0.058
-339.333	-101.626	0.229	0.056
-338.318	800.000	-0.144	-0.588
-337.304	181.025	0.123	-0.183
-336.289	44.986	-0.245	0.228
-335.275	-200.000	-0.031	0.141
-334.260	-96.528	0.377	0.100
-333.245	-13.114	-0.198	0.130
-332.231	-200.000	0.009	-0.133
-331.216	800.000	-0.056	-0.156
-330.202	-200.000	-0.011	-0.161
-329.187	139.875	-0.182	0.242
-328.172	115.439	-0.164	-0.202
-327.158	86.460	0.173	-0.192
-326.143	36.725	0.073	-0.065
-325.129	402.372	0.145	-0.308
-324.114	-43.128	-0.040	-0.020
-323.099	-159.722	0.253	-0.014
-322.085	100.709	-0.054	0.063
-321.070	366.386	-0.132	0.268
-320.056	-200.000	-0.023	0.176
-319.041	65.023	-0.254	0.259
-318.026	-83.389	-0.141	0.046
-317.012	-168.375	-0.093	0.004
-315.997	80.922	-0.102	0.111
-314.983	-167.768	0.122	-0.005
-313.968	-200.000	0.038	-0.180
-312.953	-71.379	-0.090	0.034
-311.939	523.513	0.128	0.302
-310.924	-200.000	-0.025	0.283
-309.910	228.991	-0.120	0.196
-308.895	-200.000	-0.023	0.136
-307.880	-35.969	0.266	-0.145
-306.866	129.987	-0.123	0.159
-305.851	-75.230	0.262	0.094
-304.837	-182.997	0.262	-0.005
-303.822	33.672	0.274	-0.240
-302.807	-75.954	0.230	-0.082
-301.793	-105.402	0.278	0.064
-300.778	100.212	-0.180	-0.210
-299.764	6.885	-0.303	0.227
-298.749	-188.649	0.330	-0.004
-297.735	218.603	-0.224	-0.361
-296.720	70.314	0.074	0.077
-295.705	-25.293	-0.064	-0.038
-294.691	405.687	-0.036	-0.077
-293.676	172.651	0.193	0.279
-292.662	317.601	-0.068	0.130
-291.647	16.587	0.088	0.070
-290.632	1.338	-0.289	0.209
-289.618	-200.000	0.073	-0.326
-288.603	-200.000	0.029	-0.376
-287.589	586.065	-0.081	0.200
-286.574	529.640	0.138	-0.327
-285.559	131.127	0.093	-0.120
-284.545	-200.000	0.011	-0.265
-283.530	397.381	-0.129	-0.271
-282.516	251.011	-0.189	0.323
-281.501	73.644	0.206	-0.217
-280.486	31.927	0.177	-0.153
-279.472	38.050	0.038	-0.034
-278.457	33.585	-0.060	-0.053
-277.443	800.000	0.105	0.318
-276.428	800.000	-0.065	0.217
-275.413	103.809	-0.261	0.308
-274.399	800.000	0.020	0.069
-273.384	-52.863	-0.260	-0.120
-272.370	-76.421	0.123	0.044
-271.355	-38.223	-0.111	-0.059
-270.340	-47.587	0.171	-0.084
-269.326	800.000	-0.082	0.236
-268.311	-65.551	0.332	-0.134
-267.297	141.638	0.101	0.135
-266.282	-85.708	0.346	-0.108
-265.267	-200.000	-0.004	-0.198
-264.253	-55.815	-0.155	-0.070
-263.238	-200.000	0.016	0.179
-262.224	-102.198	0.196	-0.047
-261.209	-200.000	0.015	-0.075
-260.195	46.318	-0.217	0.202
-259.180	13.217	0.074	0.058
-258.165	-94.811	0.275	0.075
-257.151	51.687	0.113	0.108
-256.136	-200.000	-0.016	0.139
-255.122	-104.663	0.257	0.059
-254.107	-139.122	-0.411	-0.045
-253.092	138.689	-0.090	-0.118
-252.078	-94.456	0.033	0.009
-251.063	-32.028	0.224	0.126
-250.049	-200.000	0.002	-0.147
-249.034	2.153	0.170	0.123
-248.019	491.508	0.031	0.072
-247.005	-125.225	-0.237	-0.036
-245.990	288.381	-0.066	-0.121
-244.976	24.877	-0.218	0.182
-243.961	-43.166	0.084	-0.043
-242.946	245.454	0.082	0.139
-241.932	109.220	-0.318	0.382
-240.917	239.898	-0.177	0.295
-239.903	796.199	0.064	-0.177
-238.888	-62.308	-0.051	0.021
-237.873	-103.542	0.227	-0.054
-236.859	-26.006	0.092	0.054
-235.844	-200.000	0.020	-0.335
-234.830	-200.000	-0.008	0.121
-233.815	-85.496	0.137	0.043
-232.800	-200.000	0.020	0.098
-231.786	98.298	-0.038	0.044
-230.771	315.218	0.215	0.407
-229.757	-167.333	-0.269	0.011
-228.742	-200.000	-0.036	0.238
-227.727	-200.000	0.027	-0.124
-226.713	800.000	0.035	0.132
-225.698	206.544	0.121	-0.189
-224.684	-24.206	-0.059	0.035
-223.669	800.000	-0.080	-0.233
-222.655	186.619	0.133	-0.199
-221.640	-37.853	-0.150	-0.080
-220.625	-112.918	0.104	0.021
-219.611	35.258	-0.046	0.041
-218.596	128.636	-0.127	-0.162
-217.582	490.896	0.104	0.240
-216.567	69.630	-0.206	0.212
-215.552	-182.983	0.028	0.000
-214.538	800.000	0.036	0.131
-213.523	-43.169	-0.220	-0.112
-212.509	95.973	0.162	-0.186
-211.494	-123.757	-0.188	0.030
-210.479	2.307	0.157	0.114
-209.465	8.972	-0.233	0.176
-208.450	-200.000	0.015	-0.321
-207.436	-200.000	-0.078	-0.434
-206.421	-100.619	0.233	-0.058
-205.406	52.830	-0.274	0.263
-204.392	-47.401	0.195	0.095
-203.377	-200.000	-0.105	-0.475
-202.363	629.735	0.051	-0.129
-201.348	-200.000	-0.006	-0.190
-200.333	0.232	-0.418	-0.299
-199.319	-145.754	0.190	0.017
-198.304	-55.208	0.232	-0.105
-197.290	180.404	-0.130	-0.191
-196.275	33.975	0.039	0.034
-195.260	-200.000	0.011	0.259
-194.246	-75.456	-0.190	-0.068
-193.231	800.000	0.103	-0.336
-192.217	-118.374	0.060	0.011
-191.202	-137.514	-0.165	-0.019
-190.187	462.793	0.122	0.272
-189.173	-200.000	0.002	0.047
-188.158	-27.206	0.095	-0.055
-187.144	-79.270	-0.117	-0.040
-186.129	299.328	0.149	-0.275
-185.114	-114.466	0.238	0.046
-184.100	-200.000	-0.013	0.218
-183.085	44.804	-0.189	-0.174
-182.071	-176.063	-0.453	0.012
-181.056	-141.425	0.411	0.042
-180.042	-50.860	-0.083	-0.039
-179.027	11.140	-0.286	0.219
-178.012	146.345	-0.080	0.108
-176.998	608.359	0.010	-0.025
-175.983	-101.302	-0.075	-0.018
-174.969	-1.954	-0.141	0.099
-173.954	24.734	-0.118	-0.098
-172.939	-130.663	0.090	-0.012
-171.925	-64.114	0.092	0.038
-170.910	-130.746	0.133	-0.018
-169.896	-146.127	-0.037	0.003
-168.881	-123.043	-0.112	-0.018
-167.866	-117.742	-0.113	0.020
-166.852	-131.384	0.223	-0.029
-165.837	800.000	0.091	0.344
-164.823	800.000	-0.077	0.244
-163.808	-50.582	0.265	0.125
-162.793	800.000	0.013	0.046
-161.779	172.458	-0.103	-0.148
-160.764	-119.240	-0.198	0.034
-159.750	38.189	-0.174	-0.155
-158.735	-118.714	-0.133	-0.024
-157.720	41.297	0.144	-0.131
-156.706	459.970	-0.175	-0.391
-155.691	-42.763	-0.055	-0.028
-154.677	65.930	0.282	0.287
-153.662	-200.000	-0.012	0.163
-152.647	95.278	0.145	0.165
-151.633	-19.726	0.246	0.153
-150.618	122.199	-0.139	-0.174
-149.604	331.421	-0.050	0.097
-148.589	493.681	0.027	0.063
-147.574	423.200	-0.086	0.185
-146.560	50.732	0.326	0.308
-145.545	-200.000	-0.012	-0.084
-144.531	-200.000	0.014	0.077
-143.516	800.000	0.027	0.082
-142.502	-200.000	0.021	0.113
-141.487	282.984	0.079	0.142
-140.472	-200.000	-0.018	-0.164
-139.458	45.584	0.221	-0.205
-138.443	-99.994	-0.237	0.059
-137.429	597.591	-0.066	-0.164
-136.414	-200.000	-0.039	0.244
-135.399	-82.345	0.080	0.026
-134.385	798.010	0.027	-0.075
-133.370	-200.000	-0.051	0.279
-132.356	-124.819	0.352	-0.054
-131.341	-29.132	0.269	-0.155
-130.326	-40.827	-0.117	0.060
-129.312	-200.000	0.014	0.270
-128.297	-200.000	-0.022	-0.299
-127.283	-99.760	-0.161	-0.040
-126.268	-89.922	-0.223	0.065
-125.253	-200.000	0.075	-0.407
-124.239	800.000	0.073	0.228
-123.224	519.481	0.040	0.093
-122.210	-11.472	0.108	-0.071
-121.195	-92.721	-0.141	-0.040
-120.180	310.461	0.178	0.332
-119.166	-200.000	-0.042	-0.259
-118.151	202.022	-0.226	-0.348
-117.137	70.609	-0.054	-0.056
-116.122	33.987	0.109	-0.094
-115.107	-101.160	-0.059	0.015
-114.093	36.216	0.108	-0.095
-113.078	-200.000	-0.014	0.061
-112.064	800.000	0.097	0.351
-111.049	-45.608	0.067	-0.033
-110.034	-200.000	0.039	-0.262
-109.020	-74.330	-0.042	0.015
-108.005	225.791	0.144	0.234
-106.991	-200.000	0.001	-0.074
-105.976	140.740	-0.144	-0.190
-104.962	35.200	-0.161	0.141
-103.947	-106.862	0.212	-0.047
-102.932	-154.711	0.088	-0.006
-101.918	7.170	0.169	0.126
-100.903	-200.000	0.004	0.276
-99.889	718.774	0.040	0.105
-98.874	63.400	0.072	-0.072
-97.859	368.777	0.081	-0.163
-96.845	29.374	0.199	0.169
-95.830	103.730	-0.198	-0.232
-94.816	-30.554	-0.306	-0.173
-93.801	-32.332	-0.226	0.126
-92.786	43.091	0.099	-0.090
-91.772	173.355	-0.094	-0.136
-90.757	98.902	-0.245	0.283
-89.743	-200.000	0.003	-0.287
-88.728	-19.908	0.251	0.155
-87.713	91.231	0.176	0.197
-86.699	-85.415	0.101	0.031
-85.684	29.115	-0.084	-0.071
-84.670	534.858	0.099	-0.234
-83.655	-138.759	-0.132	-0.014
-82.640	-172.421	0.240	-0.008
-81.626	800.000	0.058	0.168
-80.611	-200.000	-0.084	-0.444
-79.597	-200.000	-0.003	-0.165
-78.582	68.639	-0.148	0.152
-77.567	-165.757	0.111	0.005
-76.553	300.927	-0.092	0.170
-75.538	-57.424	0.064	0.028
-74.524	271.691	-0.165	-0.289
-73.509	333.494	0.076	0.148
-72.494	-130.296	0.180	-0.024
-71.480	-19.948	0.080	0.049
-70.465	-109.966	-0.286	-0.060
-69.451	-53.929	0.117	0.053
-68.436	660.768	-0.088	0.226
-67.422	-8.156	-0.407	0.273
-66.407	37.925	0.167	-0.148
-65.392	734.537	-0.139	-0.370
-64.378	99.900	-0.124	-0.144
-63.363	112.359	0.102	-0.123
-62.349	263.320	-0.176	0.305
-61.334	-56.762	-0.832	-0.367
-60.319	46.828	0.249	0.231
-59.305	-200.000	0.015	-0.838
-58.290	123.431	0.514	0.643
-57.276	318.695	0.892	1.685
-56.261	-200.000	72.037	549.197
-55.246	604.677	1268.146	3148.713
-54.232	145.916	2494.652	3335.826
-53.217	123.147	2225.478	2780.054
-52.203	57.482	1670.724	1627.487
-51.188	48.495	1389.264	1297.681
-50.173	44.613	1340.819	1228.999
-49.159	62.524	1373.116	1367.913
-48.144	71.176	1392.199	1439.350
-47.130	48.691	1355.679	1267.300
-46.115	44.443	1339.529	1226.596
-45.100	44.165	1334.419	1220.198
-44.086	44.076	1332.110	1217.505
-43.071	44.059	1329.783	1215.224
-42.057	43.966	1327.878	1212.882
-41.042	44.106	1325.831	1211.801
-40.027	44.070	1324.724	1210.521
-39.013	44.077	1322.669	1208.641
-37.998	44.103	1320.361	1206.636
-36.984	44.130	1319.092	1205.591
-35.969	44.213	1317.136	1204.246
-34.954	44.326	1315.584	1203.449
-33.940	44.288	1313.916	1201.649
-32.925	44.227	1313.035	1200.435
-31.911	44.209	1311.565	1198.940
-30.896	44.345	1309.481	1197.787
-29.881	44.305	1308.354	1196.477
-28.867	44.318	1306.919	1195.190
-27.852	44.324	1305.591	1193.965
-26.838	44.321	1304.028	1192.471
-25.823	44.329	1302.416	1190.993
-24.809	44.193	1301.394	1189.216
-23.794	44.279	1299.743	1188.166
-22.779	44.355	1298.107	1187.069
-21.765	44.363	1296.710	1185.791
-20.750	44.341	1295.420	1184.434
-19.736	44.119	1294.294	1182.065
-18.721	44.203	1293.149	1181.457
-17.706	44.092	1292.575	1180.245
-16.692	44.247	1291.104	1179.750
-15.677	44.252	1289.526	1178.296
-14.663	44.089	1288.796	1176.635
-13.648	44.123	1287.723	1175.806
-12.633	44.059	1286.877	1174.614
-11.619	44.140	1285.877	1174.122
-10.604	44.135	1285.288	1173.513
-9.590	44.142	1283.819	1172.167
-8.575	44.120	1282.889	1171.139
-7.560	44.110	1281.681	1169.934
-6.546	44.098	1280.939	1169.142
-5.531	44.179	1280.001	1168.705
-4.517	44.203	1278.836	1167.732
-3.502	44.180	1278.181	1166.958
-2.487	44.128	1277.821	1166.284
-1.473	44.213	1273.472	1162.756
-0.458	42.671	1257.658	1139.536
0.556	35.636	1235.746	1088.641
1.571	29.989	1236.676	1057.235
2.586	28.028	1250.107	1057.293
3.600	26.153	1239.031	1037.074
4.615	20.313	1166.493	944.588
5.629	11.500	1088.553	836.440
6.644	7.023	1065.366	796.064
7.659	6.730	1062.222	792.177
8.673	6.459	1061.109	789.915
9.688	6.620	1059.426	789.399
10.702	7.070	1058.193	790.659
11.717	11.669	1065.833	819.397
12.731	17.944	1073.986	857.186
13.746	18.847	1073.797	861.489
14.761	17.393	1071.106	851.977
15.775	16.357	1068.871	844.944
16.790	15.189	1067.230	837.734
17.804	14.349	1065.657	832.235
18.819	14.013	1064.086	829.254
19.834	13.634	1063.165	826.577
20.848	13.392	1062.338	824.655
21.863	13.293	1061.335	823.311
22.877	13.167	1060.506	821.965
23.892	13.058	1059.883	820.868
24.907	13.079	1059.435	820.552
25.921	13.171	1058.198	819.979
26.936	13.183	1056.814	818.896
27.950	13.244	1055.327	817.973
28.965	13.285	1053.990	817.063
29.980	13.365	1052.507	816.237
30.994	13.431	1050.941	815.276
32.009	13.391	1050.419	814.601
33.023	13.446	1049.237	813.884
34.038	13.427	1048.177	812.898
35.053	13.375	1047.406	811.971
36.067	13.304	1046.041	810.491
37.082	13.303	1045.534	810.022
38.096	13.464	1044.437	809.889
39.111	13.317	1043.947	808.719
40.126	13.274	1042.571	807.370
41.140	13.143	1041.685	805.973
42.155	12.966	1040.587	804.193
43.169	12.998	1039.454	803.403
44.184	13.090	1037.775	802.477
45.199	13.095	1036.870	801.735
46.213	13.109	1036.328	801.309
47.228	13.205	1035.277	800.892
48.242	13.202	1034.033	799.844
49.257	13.082	1033.258	798.594
50.271	13.303	1032.073	798.673
51.286	13.214	1031.313	797.589
52.301	13.153	1030.616	796.682
53.315	13.279	1029.188	796.116
54.330	13.155	1028.231	794.709
55.344	13.022	1027.802	793.668
56.359	13.152	1026.593	793.288
57.374	13.154	1025.958	792.738
58.388	13.110	1024.874	791.618
59.403	13.017	1024.045	790.464
60.417	13.109	1023.089	790.093
61.432	13.110	1022.306	789.421
62.447	13.022	1021.656	788.431
63.461	12.874	1021.142	787.257
64.476	12.984	1019.909	786.763
65.490	12.959	1019.153	785.992
66.505	13.061	1018.214	785.684
67.520	12.990	1018.008	785.118
68.534	13.080	1016.979	784.680
69.549	12.977	1016.428	783.697
70.563	13.015	1015.498	783.092
71.578	13.006	1014.471	782.185
72.593	12.949	1013.856	781.376
73.607	12.947	1013.065	780.684
74.622	12.872	1012.935	780.160
75.636	12.892	1012.050	779.506
76.651	12.989	1011.219	779.255
77.666	12.913	1011.112	778.743
78.680	12.966	1010.053	778.110
79.695	12.994	1009.036	777.389
80.709	13.060	1008.826	777.468
81.724	13.050	1008.348	776.987
82.739	13.207	1007.318	776.863
83.753	13.253	1006.569	776.429
84.768	13.310	1005.843	776.071
85.782	13.423	1004.582	775.560
86.797	13.336	1003.728	774.424
87.812	13.137	1003.302	773.097
88.826	13.286	1002.279	772.935
89.841	13.363	1001.506	772.628
90.855	13.346	1000.379	771.613
91.870	13.371	999.527	771.002
92.884	13.274	999.084	770.143
93.899	13.462	998.356	770.385
94.914	13.375	997.576	769.310
95.928	13.507	996.376	768.931
96.943	13.456	995.432	767.900
97.957	13.354	994.833	766.895
98.972	13.393	993.723	766.154
99.987	13.278	993.392	765.297
101.001	13.337	992.074	764.489
102.016	13.319	991.147	763.622
103.030	13.387	990.934	763.703
104.045	13.380	989.814	762.743
105.060	13.228	989.295	761.575
106.074	13.124	988.138	760.139
107.089	13.198	986.724	759.323
108.103	13.077	986.078	758.201
109.118	13.087	985.387	757.649
110.133	13.059	984.620	756.863
111.147	13.083	983.410	755.978
112.162	13.179	982.515	755.662
113.176	13.196	981.719	755.061
114.191	13.216	981.310	754.770
115.206	13.099	980.670	753.676
116.220	13.272	979.191	753.263
117.235	13.179	979.039	752.658
118.249	13.324	977.551	752.104
119.264	13.244	976.930	751.195
120.279	13.224	976.304	750.556
121.293	13.187	975.363	749.601
122.308	13.176	974.340	748.697
123.322	13.108	973.386	747.589
124.337	13.078	972.737	746.891
125.352	13.127	971.304	745.947
126.366	13.155	970.100	745.081
127.381	13.129	968.903	743.978
128.395	13.211	968.580	744.033
129.410	13.128	967.901	743.071
130.424	13.125	967.162	742.428
131.439	13.364	965.909	742.473
132.454	13.316	965.788	742.098
133.468	13.334	964.774	741.333
134.483	13.473	963.586	740.977
135.497	13.311	962.946	739.693
136.512	13.318	962.106	739.017
137.527	13.307	961.363	738.331
138.541	13.328	960.504	737.701
139.556	13.355	960.154	737.486
140.570	13.421	959.277	737.042
141.585	13.467	958.625	736.680
142.600	13.522	957.576	736.049
143.614	13.518	956.911	735.458
144.629	13.602	956.279	735.279
145.643	13.542	954.993	733.961
146.658	13.546	953.711	732.927
147.673	13.380	953.135	731.687
148.687	13.396	951.815	730.677
149.702	13.493	950.714	730.198
150.716	13.301	950.263	728.939
151.731	13.395	949.294	728.547
152.746	13.354	948.717	727.858
153.760	13.408	948.708	728.025
154.775	13.425	947.938	727.442
155.789	13.604	947.082	727.507
156.804	13.407	946.757	726.331
157.819	13.527	945.533	725.850
158.833	13.507	945.138	725.395
159.848	13.737	943.835	725.340
160.862	13.533	943.207	723.900
161.877	13.475	942.191	722.806
162.892	13.369	941.287	721.585
163.906	13.281	940.718	720.699
164.921	13.568	939.215	720.733
165.935	13.491	938.191	719.548
166.950	13.602	937.531	719.464
167.964	13.580	936.775	718.722
168.979	13.482	936.014	717.652
169.994	13.494	935.240	717.047
171.008	13.592	934.535	716.865
172.023	13.537	934.111	716.238
173.037	13.604	933.217	715.781
174.052	13.698	932.367	715.472
175.067	13.579	931.522	714.246
176.081	13.509	931.128	713.577
177.096	13.486	930.756	713.130
178.110	13.442	929.746	712.106
179.125	13.575	929.191	712.188
180.140	13.597	928.756	711.888
181.154	13.762	928.326	712.202
182.169	13.686	928.069	711.617
183.183	13.706	927.576	711.261
184.198	13.667	926.891	710.505
185.213	13.819	925.613	710.113
186.227	13.982	924.656	710.012
187.242	13.803	924.317	708.923
188.256	13.814	924.145	708.778
189.271	13.883	923.154	708.247
190.286	13.698	922.589	706.962
191.300	13.670	921.547	705.984
192.315	13.524	921.039	704.910
193.329	13.551	920.607	704.631
194.344	13.643	920.037	704.526
195.359	13.734	918.907	703.984
196.373	13.834	918.356	703.924
197.388	13.891	918.021	703.848
198.402	13.978	917.538	703.783
199.417	14.086	917.046	703.797
200.432	13.997	916.447	702.902
201.446	14.086	916.022	702.890
202.461	14.138	915.524	702.663
203.475	14.107	914.824	701.935
204.490	14.083	914.159	701.261
205.504	14.081	913.436	700.636
206.519	14.038	912.662	699.801
207.534	13.939	912.014	698.822
208.548	13.990	911.394	698.501
209.563	14.071	910.669	698.225
210.577	14.073	909.843	697.537
211.592	14.197	909.604	697.814
212.607	14.064	908.488	696.337
213.621	14.251	907.666	696.429
214.636	14.181	906.911	695.495
215.650	14.203	906.433	695.156
216.665	14.278	905.745	694.882
217.680	14.212	905.074	694.030
218.694	14.300	904.471	693.874
219.709	14.311	903.997	693.495
220.723	14.330	903.372	693.031
221.738	14.415	902.526	692.676
222.753	14.257	901.851	691.439
223.767	14.286	901.191	690.992
224.782	14.404	900.476	690.874
225.796	14.390	900.365	690.668
226.811	14.311	899.560	689.664
227.826	14.161	899.106	688.633
228.840	14.410	897.695	688.522
229.855	14.411	896.930	687.877
230.869	14.282	896.350	686.841
231.884	14.241	896.082	686.404
232.899	14.313	894.975	685.794
233.913	14.208	894.306	684.785
234.928	14.197	893.818	684.307
235.942	14.232	893.186	683.908
236.957	14.291	892.814	683.805
237.972	14.378	891.857	683.368
238.986	14.248	891.291	682.339
240.001	14.227	890.660	681.712
241.015	14.362	890.013	681.709
242.030	14.360	889.398	681.167
243.045	14.505	888.745	681.201
244.059	14.522	888.314	680.878
245.074	14.475	887.782	680.220
246.088	14.432	887.063	679.433
247.103	14.594	885.996	679.215
248.117	14.741	885.691	679.520
249.132	14.726	885.381	679.162
250.147	14.709	885.050	678.775
251.161	14.911	883.787	678.567
252.176	14.831	883.346	677.846
253.190	14.714	882.985	677.035
254.205	14.758	882.595	676.853
255.220	14.931	881.267	676.476
256.234	14.882	880.771	675.837
257.249	15.027	880.057	675.811
258.263	14.958	879.242	674.851
259.278	14.952	878.600	674.272
260.293	15.034	878.385	674.378
261.307	15.057	877.909	674.047
262.322	15.196	877.087	673.913
263.336	15.060	876.200	672.625
264.351	15.160	875.541	672.462
265.366	15.179	875.095	672.137
266.380	15.070	874.400	671.105
267.395	15.042	873.678	670.380
268.409	15.011	873.129	669.778
269.424	15.003	872.398	669.125
270.439	15.052	871.607	668.656
271.453	14.996	871.006	667.909
272.468	15.126	870.275	667.811
273.482	14.991	870.030	667.023
274.497	15.058	869.639	666.931
275.512	15.147	868.526	666.373
276.526	15.144	867.923	665.839
277.541	15.222	867.572	665.820
278.555	15.317	867.031	665.725
279.570	15.278	866.283	664.939
280.585	15.292	865.603	664.414
281.599	15.411	864.378	663.883
282.614	15.285	863.976	663.018
283.628	15.265	863.491	662.509
284.643	15.255	862.882	661.941
285.657	15.262	862.650	661.735
286.672	15.324	861.679	661.174
287.687	15.337	861.267	660.850
288.701	15.389	860.770	660.617
289.716	15.336	860.123	659.853
290.730	15.509	859.338	659.873
291.745	15.402	858.727	658.922
292.760	15.356	858.433	658.459
293.774	15.557	857.316	658.331
294.789	15.433	857.019	657.560
295.803	15.452	856.278	657.008
296.818	15.407	855.697	656.327
297.833	15.510	855.129	656.238
298.847	15.582	854.535	656.006
299.862	15.602	853.634	655.334
300.876	15.494	853.242	654.554
301.891	15.633	852.530	654.488
302.906	15.792	852.053	654.686
303.920	15.651	851.575	653.710
304.935	15.900	850.976	654.163
305.949	15.681	850.485	652.874
306.964	15.696	849.759	652.319
307.979	15.800	849.287	652.300
308.993	15.776	848.842	651.810
310.008	15.856	848.074	651.470
311.022	15.776	847.689	650.809
312.037	15.700	847.087	649.993
313.052	15.577	846.548	649.049
314.066	15.618	846.061	648.775
315.081	15.486	845.697	647.928
316.095	15.706	844.563	647.851
317.110	15.780	843.770	647.470
318.125	15.653	844.127	647.199
319.139	15.713	843.014	646.518
320.154	15.769	842.706	646.438
321.168	15.789	842.407	646.232
322.183	15.782	841.655	645.571
323.197	15.746	841.390	645.169
324.212	15.895	840.479	644.987
325.227	15.733	840.109	644.027
326.241	15.858	839.475	643.960
327.256	15.725	838.799	642.876
328.270	15.773	838.308	642.626
329.285	15.857	837.905	642.582
330.300	15.810	837.191	641.799
331.314	15.886	836.838	641.761
332.329	15.920	836.243	641.375
333.343	15.866	835.960	640.897
334.358	16.031	835.494	641.110
335.373	16.008	835.499	640.969
336.387	15.961	834.978	640.334
337.402	15.979	834.471	639.960
338.416	16.213	833.958	640.395
339.431	16.104	834.157	640.080
340.446	16.028	833.550	639.269
341.460	16.240	832.984	639.579
342.475	16.167	832.815	639.120
343.489	16.329	832.290	639.273
344.504	16.200	831.640	638.229
345.519	16.251	831.293	638.098
346.533	16.320	830.481	637.678
347.548	16.425	829.917	637.586
348.562	16.205	829.420	636.319
349.577	16.167	829.140	635.902
350.592	16.137	828.187	635.002
351.606	16.051	827.762	634.298
352.621	16.192	826.704	633.961
353.635	16.327	826.227	634.044
354.650	16.286	825.608	633.362
355.665	16.186	825.236	632.644
356.679	16.229	824.611	632.270
357.694	16.311	823.949	632.015
358.708	16.421	823.084	631.706
359.723	16.445	822.611	631.377
360.738	16.231	822.413	630.371
361.752	16.315	821.751	630.121
362.767	16.576	820.970	630.439
363.781	16.468	820.538	629.646
364.796	16.575	820.021	629.594
365.810	16.768	819.778	630.070
366.825	16.627	819.282	629.107
367.840	16.701	818.769	628.933
368.854	16.624	818.592	628.455
369.869	16.545	818.014	627.664
370.883	16.585	817.914	627.680
371.898	16.534	817.730	627.293
372.913	16.732	816.961	627.382
373.927	16.611	816.621	626.617
374.942	16.603	816.079	626.117
375.956	16.838	815.534	626.512
376.971	16.908	815.150	626.421
377.986	16.848	814.761	625.845
379.000	16.826	814.518	625.522
380.015	16.839	813.429	624.676
381.029	16.877	813.302	624.666
382.044	17.010	812.360	624.377
383.059	17.056	811.446	623.788
384.073	17.016	810.926	623.183
385.088	16.871	810.545	622.305
386.102	16.760	809.976	621.407
387.117	16.911	809.221	621.324
388.132	16.812	808.992	620.731
389.146	16.861	808.502	620.478
390.161	16.862	808.198	620.196
391.175	16.956	807.762	620.148
392.190	16.882	806.762	619.057
393.205	16.996	806.433	619.165
394.219	16.843	806.554	618.643
395.234	16.741	806.059	617.839
396.248	17.002	805.015	617.934
397.263	16.989	804.889	617.736
398.278	16.870	804.625	617.043
399.292	16.895	803.881	616.510
400.307	16.903	803.699	616.345
401.321	16.950	803.108	616.007
402.336	16.994	802.576	615.706
403.350	17.004	802.227	615.418
404.365	17.053	802.035	615.394
405.380	17.058	801.431	614.895
406.394	17.153	800.923	614.796
407.409	17.325	800.424	614.982
408.423	17.245	800.099	614.388
409.438	17.176	799.745	613.811
410.453	17.340	799.230	613.953
411.467	17.378	799.112	613.947
412.482	17.295	798.780	613.338
413.496	17.462	797.917	613.221
414.511	17.332	797.959	612.733
415.526	17.391	797.366	612.434
416.540	17.441	796.976	612.260
417.555	17.435	796.295	611.661
418.569	17.221	796.107	610.693
419.584	17.294	795.695	610.587
420.599	17.457	795.437	610.920
421.613	79.688	1240.766	1287.721
422.628	67.390	1305.656	1287.853
