DTS Sentinel unit serial number:	SN413079Multiplexer serial number:	ORYXHardware model number:	OX4-SRSoftware version number:	ORYX F/W v4.00 Oryx Data Collector v3.7.2.0data status	okinstallation	princeton_trtdifferential loss correction	single-endedforward channel	channel 1reverse channel	N/Adate	2019/09/18time	04:42:35forward acquisition time	60.00reverse acquisition time	0.00gamma	496.2192k internal	0.2339k external	0.2339temperature offset calibration	0.9977default loss term (dB/km)	0.3790temperature slope calibration	1.0000multiplexer offset coefficient	1.0000multiplexer slope coefficient	1.0000fibre end	0.00T internal ref (°C)	23.44T ext. ref 1 (°C)	0.19T ext. ref 2 (°C)	17.76length (m)	temperature (°C)	Stokes	anti-Stokes-747.200	800.000	0.042	0.137
-746.185	214.034	-0.133	0.211
-745.171	-36.904	0.280	-0.150
-744.156	-122.592	-0.275	0.045
-743.142	-126.148	0.225	0.034
-742.127	-70.061	-0.314	-0.120
-741.112	-101.726	0.135	-0.033
-740.098	10.485	-0.295	0.226
-739.083	-129.148	0.234	-0.033
-738.069	-110.995	-0.448	-0.092
-737.054	58.278	-0.047	0.046
-736.039	-78.246	-0.081	0.028
-735.025	66.494	0.243	0.248
-734.010	-132.487	-0.197	-0.025
-732.996	-45.007	0.321	-0.160
-731.981	127.833	-0.089	-0.114
-730.966	411.320	0.131	-0.278
-729.952	-90.818	-0.183	-0.053
-728.937	800.000	-0.107	-0.333
-727.923	-23.808	-0.419	-0.252
-726.908	-71.833	-0.016	0.006
-725.894	-164.765	-0.274	-0.012
-724.879	71.903	-0.212	0.221
-723.864	192.983	-0.182	0.275
-722.850	238.251	-0.152	-0.253
-721.835	435.327	-0.037	-0.081
-720.821	28.560	0.198	0.167
-719.806	-162.495	0.203	0.010
-718.791	-200.000	0.015	-0.178
-717.777	-123.498	-0.097	0.015
-716.762	10.696	-0.366	-0.279
-715.748	6.149	0.081	-0.060
-714.733	185.079	0.144	-0.214
-713.718	-48.026	-0.235	-0.114
-712.704	-80.345	-0.099	0.033
-711.689	-66.931	-0.247	-0.098
-710.675	312.246	-0.074	0.138
-709.660	-72.849	0.230	0.085
-708.645	-80.944	0.090	0.030
-707.631	-200.000	-0.086	0.434
-706.616	154.935	0.044	0.060
-705.602	800.000	0.050	-0.214
-704.587	-127.788	-0.431	-0.062
-703.572	-96.870	-0.098	0.026
-702.558	89.101	0.137	-0.153
-701.543	-68.366	-0.308	-0.120
-700.529	-22.260	-0.329	0.200
-699.514	-123.299	-0.487	-0.078
-698.499	78.709	-0.146	0.157
-697.485	48.665	-0.291	0.273
-696.470	80.267	0.320	0.345
-695.456	800.000	0.091	0.320
-694.441	333.620	-0.228	0.442
-693.426	-22.415	0.247	0.150
-692.412	-35.252	-0.189	-0.103
-691.397	-200.000	0.096	-0.527
-690.383	-129.834	-0.252	-0.035
-689.368	-13.615	-0.288	0.186
-688.354	-142.499	-0.082	0.008
-687.339	-152.866	-0.198	-0.014
-686.324	-72.341	0.400	-0.148
-685.310	-200.000	-0.013	-0.461
-684.295	97.591	-0.032	0.037
-683.281	-200.000	-0.068	-0.356
-682.266	234.290	0.137	-0.225
-681.251	-133.680	0.299	-0.037
-680.237	15.450	-0.240	0.189
-679.222	186.604	0.131	-0.195
-678.208	800.000	-0.071	0.211
-677.193	-200.000	0.035	0.246
-676.178	400.279	-0.135	-0.283
-675.164	65.279	-0.241	0.244
-674.149	130.445	-0.114	-0.146
-673.135	-200.000	0.029	-0.167
-672.120	-86.065	-0.090	-0.028
-671.105	19.951	-0.062	-0.050
-670.091	-112.479	0.140	0.028
-669.076	800.000	-0.042	0.161
-668.062	129.058	0.045	-0.057
-667.047	138.296	0.237	0.311
-666.032	124.956	0.085	-0.108
-665.018	373.986	0.038	0.077
-664.003	86.385	-0.066	-0.073
-662.989	-67.077	0.283	-0.111
-661.974	142.335	-0.040	-0.053
-660.959	800.000	-0.071	0.258
-659.945	800.000	0.092	0.316
-658.930	-176.857	0.259	-0.007
-657.916	-79.326	-0.150	0.051
-656.901	800.000	0.093	-0.271
-655.886	-27.504	0.227	-0.132
-654.872	-104.064	0.164	-0.038
-653.857	-200.000	0.052	-0.430
-652.843	-75.303	0.069	0.025
-651.828	77.065	0.285	-0.302
-650.814	-12.472	-0.363	-0.237
-649.799	-200.000	-0.005	-0.098
-648.784	157.347	-0.238	-0.330
-647.770	163.815	-0.151	0.213
-646.755	-131.996	-0.322	-0.042
-645.741	157.681	0.161	-0.223
-644.726	382.499	0.097	0.198
-643.711	-200.000	0.001	-0.162
-642.697	-200.000	0.042	-0.219
-641.682	-48.160	0.261	-0.126
-640.668	800.000	0.081	-0.325
-639.653	-48.445	0.362	0.174
-638.638	13.552	-0.163	0.126
-637.624	-22.324	0.368	-0.223
-636.609	800.000	-0.051	0.168
-635.595	-200.000	-0.012	-0.324
-634.580	-200.000	-0.027	-0.307
-633.565	-200.000	-0.010	-0.217
-632.551	-173.094	-0.209	-0.006
-631.536	-21.521	-0.192	-0.117
-630.522	-167.638	0.141	0.006
-629.507	-7.192	0.251	-0.170
-628.492	-147.325	-0.122	0.010
-627.478	-120.456	0.295	-0.050
-626.463	-85.192	-0.558	0.174
-625.449	-136.229	-0.068	0.008
-624.434	-55.580	0.284	0.127
-623.419	-18.191	-0.187	-0.117
-622.405	460.173	-0.177	-0.394
-621.390	135.402	0.056	-0.073
-620.376	-154.428	-0.093	0.006
-619.361	-28.206	-0.150	-0.087
-618.346	102.740	0.158	-0.185
-617.332	-159.848	-0.072	-0.004
-616.317	-200.000	0.030	-0.239
-615.303	-58.030	0.282	0.123
-614.288	130.586	-0.047	0.060
-613.273	26.029	0.212	0.177
-612.259	800.000	-0.089	-0.302
-611.244	40.626	0.101	0.091
-610.230	800.000	0.079	-0.254
-609.215	-103.911	-0.274	-0.064
-608.201	-122.032	-0.333	0.055
-607.186	400.856	0.074	-0.154
-606.171	-46.986	-0.102	-0.050
-605.157	-119.836	-0.201	0.035
-604.142	-52.527	-0.379	-0.175
-603.128	-4.620	0.193	0.133
-602.113	-63.195	-0.280	0.115
-601.098	-166.034	-0.312	-0.013
-600.084	175.053	-0.097	-0.140
-599.069	-68.616	0.161	-0.062
-598.055	-65.598	-0.376	0.150
-597.040	-7.170	-0.213	0.144
-596.025	195.637	-0.173	0.263
-595.011	510.823	0.150	0.347
-593.996	13.500	0.212	0.164
-592.982	-16.634	-0.110	-0.069
-591.967	537.276	0.149	0.352
-590.952	-101.287	0.107	0.026
-589.938	-200.000	-0.004	-0.104
-588.923	-36.155	0.319	0.171
-587.909	49.826	0.061	-0.057
-586.894	-200.000	0.012	-0.066
-585.879	635.165	-0.013	-0.033
-584.865	421.527	-0.020	0.043
-583.850	-139.262	0.290	0.031
-582.836	-151.494	0.266	0.020
-581.821	800.000	-0.115	-0.319
-580.806	-71.859	-0.155	0.058
-579.792	142.076	0.074	0.098
-578.777	137.751	-0.213	-0.277
-577.763	421.809	0.135	-0.289
-576.748	-134.813	-0.271	0.033
-575.733	193.634	0.016	-0.024
-574.719	472.250	0.182	0.408
-573.704	-27.517	-0.079	-0.046
-572.690	-8.206	-0.224	0.150
-571.675	294.560	-0.073	0.132
-570.661	184.371	-0.215	-0.317
-569.646	14.673	-0.112	0.087
-568.631	80.410	0.087	0.093
-567.617	192.896	-0.200	-0.301
-566.602	23.925	0.070	0.058
-565.588	-200.000	-0.005	-0.205
-564.573	75.489	-0.326	-0.342
-563.558	24.390	-0.239	0.197
-562.544	-109.588	-0.229	-0.048
-561.529	-52.136	-0.111	0.051
-560.515	-89.902	-0.102	0.030
-559.500	-200.000	0.047	0.329
-558.485	-23.144	0.224	-0.134
-557.471	-44.907	-0.182	-0.090
-556.456	-109.667	-0.216	-0.045
-555.442	-200.000	-0.023	0.120
-554.427	-41.882	0.208	0.106
-553.412	-24.023	-0.308	-0.183
-552.398	-50.749	-0.287	0.134
-551.383	183.910	0.110	-0.162
-550.369	-200.000	0.012	0.149
-549.354	-175.572	0.205	-0.006
-548.339	-200.000	-0.005	0.152
-547.325	305.175	-0.092	-0.171
-546.310	157.436	0.081	-0.111
-545.296	-200.000	0.001	0.442
-544.281	5.879	-0.081	0.060
-543.266	146.436	0.061	0.081
-542.252	-125.958	0.107	0.016
-541.237	-200.000	0.060	-0.475
-540.223	-75.439	-0.119	-0.042
-539.208	96.102	0.166	-0.189
-538.193	-44.342	-0.274	-0.137
-537.179	673.482	0.120	-0.310
-536.164	140.725	-0.244	0.321
-535.150	-104.399	-0.155	-0.036
-534.135	116.432	0.097	-0.118
-533.121	107.352	0.042	-0.050
-532.106	800.000	0.055	-0.177
-531.091	343.453	-0.053	0.104
-530.077	-94.349	-0.295	-0.080
-529.062	95.428	-0.320	-0.362
-528.048	-200.000	0.010	0.139
-527.033	208.067	0.084	-0.130
-526.018	-200.000	0.070	0.336
-525.004	-42.772	0.156	0.079
-523.989	-166.672	-0.340	-0.014
-522.975	56.535	0.012	-0.012
-521.960	-44.461	-0.297	-0.148
-520.945	-168.573	-0.109	0.004
-519.931	-200.000	0.032	0.253
-518.916	116.562	-0.141	0.172
-517.902	-37.489	0.249	0.132
-516.887	-109.324	-0.069	0.015
-515.872	-151.340	-0.109	-0.008
-514.858	-89.612	0.250	-0.073
-513.843	-93.453	0.207	-0.057
-512.829	-141.416	0.267	0.027
-511.814	-100.315	-0.108	0.027
-510.799	-135.336	0.278	-0.033
-509.785	-29.415	-0.116	0.066
-508.770	-32.805	0.099	0.054
-507.756	263.388	-0.060	-0.104
-506.741	-50.254	-0.347	-0.163
-505.726	-200.000	-0.021	0.250
-504.712	165.781	-0.123	0.172
-503.697	76.828	-0.064	-0.068
-502.683	-200.000	0.005	-0.036
-501.668	-200.000	0.020	0.181
-500.653	-146.994	0.068	0.006
-499.639	34.820	0.094	0.081
-498.624	-60.526	0.140	-0.059
-497.610	480.289	-0.052	-0.116
-496.595	441.084	0.130	-0.283
-495.581	-17.892	-0.177	-0.110
-494.566	99.993	0.128	0.147
-493.551	254.568	-0.089	-0.151
-492.537	378.148	-0.169	0.344
-491.522	249.149	0.046	-0.077
-490.508	-200.000	-0.059	-0.301
-489.493	-83.889	-0.059	0.018
-488.478	31.841	-0.139	-0.119
-487.464	-115.801	0.304	-0.057
-486.449	-109.234	-0.193	-0.041
-485.435	-53.358	-0.411	0.187
-484.420	-8.972	0.255	-0.170
-483.405	55.379	-0.096	-0.092
-482.391	5.646	-0.114	-0.084
-481.376	-18.392	0.143	-0.088
-480.362	-200.000	-0.035	0.163
-479.347	223.158	-0.142	0.228
-478.332	-200.000	0.011	-0.090
-477.318	88.543	0.042	-0.047
-476.303	800.000	-0.003	0.010
-475.289	-7.298	0.186	-0.125
-474.274	-103.572	-0.108	0.025
-473.259	-200.000	-0.008	0.037
-472.245	77.826	0.124	0.131
-471.230	-65.588	-0.112	0.045
-470.216	108.743	-0.160	-0.190
-469.201	82.111	-0.098	0.105
-468.186	403.472	0.050	-0.104
-467.172	90.997	0.230	-0.256
-466.157	-200.000	0.040	-0.193
-465.143	800.000	-0.075	0.245
-464.128	-84.131	0.262	-0.083
-463.113	606.770	-0.073	0.180
-462.099	-49.777	0.315	0.148
-461.084	10.956	0.127	0.096
-460.070	-200.000	-0.381	0.001
-459.055	-200.000	0.010	0.244
-458.040	178.117	-0.111	0.160
-457.026	-113.255	-0.298	0.058
-456.011	-38.769	0.202	0.105
-454.997	800.000	0.082	0.246
-453.982	-136.351	-0.247	-0.029
-452.968	23.720	-0.136	0.111
-451.953	106.511	0.044	0.052
-450.938	-27.236	-0.327	-0.189
-449.924	-99.513	-0.113	0.028
-448.909	640.920	0.072	0.182
-447.895	356.239	-0.072	0.143
-446.880	5.016	0.237	-0.173
-445.865	-200.000	0.008	0.226
-444.851	-200.000	-0.464	-0.001
-443.836	428.622	0.024	0.052
-442.822	-118.000	-0.147	0.026
-441.807	184.438	0.066	-0.097
-440.792	-113.840	0.307	-0.059
-439.778	506.291	0.100	0.229
-438.763	-200.000	0.024	0.306
-437.749	-32.820	0.221	-0.122
-436.734	6.988	0.066	0.049
-435.719	-54.828	-0.336	-0.150
-434.705	7.442	0.116	0.086
-433.690	582.090	0.096	-0.234
-432.676	800.000	0.083	-0.321
-431.661	-200.000	-0.046	0.304
-430.646	-124.861	-0.302	-0.046
-429.632	71.581	0.209	0.215
-428.617	-61.919	-0.341	-0.141
-427.603	-85.242	0.222	0.069
-426.588	800.000	-0.030	-0.121
-425.573	367.105	-0.109	0.217
-424.559	-3.566	-0.056	0.038
-423.544	424.964	0.137	-0.291
-422.530	-29.048	-0.167	-0.095
-421.515	-106.952	-0.249	0.055
-420.500	-200.000	0.033	0.205
-419.486	259.448	0.076	-0.130
-418.471	19.120	-0.336	-0.267
-417.457	-200.000	0.008	-0.252
-416.442	-200.000	-0.034	-0.182
-415.428	212.224	-0.110	0.172
-414.413	-69.001	-0.142	-0.054
-413.398	659.907	0.176	0.450
-412.384	-131.459	0.236	-0.031
-411.369	-57.223	-0.235	-0.103
-410.355	-6.069	-0.102	-0.069
-409.340	52.358	-0.219	-0.207
-408.325	210.368	-0.129	-0.201
-407.311	-71.554	-0.164	0.061
-406.296	29.758	-0.239	-0.201
-405.282	143.733	0.211	0.278
-404.267	800.000	-0.104	0.298
-403.252	-83.775	-0.295	0.093
-402.238	-57.782	-0.113	-0.049
-401.223	800.000	-0.012	-0.036
-400.209	282.958	-0.056	0.099
-399.194	800.000	-0.080	-0.297
-398.179	74.903	0.118	0.123
-397.165	-200.000	0.022	-0.267
-396.150	226.053	-0.068	-0.110
-395.136	-2.020	-0.264	-0.184
-394.121	-200.000	0.006	0.236
-393.106	-41.242	0.019	0.010
-392.092	800.000	0.037	0.134
-391.077	800.000	-0.090	0.338
-390.063	99.210	-0.133	0.152
-389.048	-138.870	0.124	0.013
-388.033	-200.000	0.007	0.217
-387.019	-78.679	0.339	-0.115
-386.004	-200.000	0.031	0.292
-384.990	-129.110	-0.399	0.055
-383.975	-200.000	0.040	-0.382
-382.960	-120.387	0.132	0.022
-381.946	-25.531	-0.140	-0.082
-380.931	-1.963	0.103	0.072
-379.917	800.000	-0.166	0.562
-378.902	-200.000	-0.001	0.221
-377.888	-30.458	0.191	0.107
-376.873	83.605	-0.270	0.291
-375.858	-43.521	0.257	-0.128
-374.844	-134.224	-0.474	-0.058
-373.829	-80.703	0.284	0.093
-372.815	-105.272	-0.193	-0.044
-371.800	-141.990	0.097	0.010
-370.785	-81.648	0.243	-0.079
-369.771	-42.353	0.131	-0.066
-368.756	800.000	-0.031	0.097
-367.742	-200.000	0.009	0.142
-366.727	800.000	0.143	0.410
-365.712	-74.375	-0.296	0.106
-364.698	-92.954	-0.189	-0.052
-363.683	407.739	-0.173	0.361
-362.669	-200.000	0.002	0.076
-361.654	-200.000	0.024	-0.248
-360.639	626.867	0.172	0.429
-359.625	133.716	0.150	-0.192
-358.610	-63.702	-0.379	0.153
-357.596	-200.000	0.004	0.153
-356.581	-171.483	-0.521	-0.017
-355.566	30.110	0.101	-0.085
-354.552	26.056	-0.302	-0.249
-353.537	258.866	-0.120	0.205
-352.523	-59.079	0.232	0.099
-351.508	258.571	-0.069	0.117
-350.493	195.397	-0.142	0.214
-349.479	371.377	-0.186	0.372
-348.464	-135.583	-0.246	0.029
-347.450	800.000	0.068	-0.210
-346.435	-147.811	0.397	0.033
-345.420	-68.078	0.242	0.093
-344.406	-148.371	-0.232	0.019
-343.391	172.611	0.051	-0.073
-342.377	103.960	-0.052	0.060
-341.362	34.205	0.199	-0.171
-340.348	13.128	-0.183	-0.140
-339.333	-84.564	0.351	-0.109
-338.318	-200.000	-0.004	0.094
-337.304	256.500	0.058	-0.098
-336.289	-35.091	0.228	0.123
-335.275	-200.000	-0.054	0.364
-334.260	296.280	-0.053	-0.096
-333.245	-200.000	0.020	-0.167
-332.231	800.000	0.141	0.419
-331.216	442.106	-0.094	0.203
-330.202	-200.000	-0.003	0.204
-329.187	-90.179	0.175	0.050
-328.172	-73.262	0.337	0.122
-327.158	14.338	0.117	-0.090
-326.143	-50.175	0.179	0.083
-325.129	-83.923	-0.088	0.028
-324.114	-123.398	0.329	-0.052
-323.099	-43.386	0.339	0.169
-322.085	-200.000	-0.022	0.118
-321.070	-72.852	-0.237	0.086
-320.056	282.087	0.114	-0.201
-319.041	109.564	-0.239	-0.282
-318.026	-150.700	-0.367	0.028
-317.012	-72.730	0.198	-0.072
-315.997	-100.785	0.281	-0.068
-314.983	800.000	-0.066	0.277
-313.968	42.028	-0.126	0.113
-312.953	-200.000	0.022	-0.126
-311.939	205.314	0.046	-0.071
-310.924	61.271	0.313	0.307
-309.910	93.096	-0.232	-0.259
-308.895	51.610	0.172	-0.162
-307.880	-21.914	0.401	0.240
-306.866	-121.669	-0.222	0.036
-305.851	-85.940	0.136	0.041
-304.837	800.000	0.101	0.318
-303.822	-60.421	0.228	-0.096
-302.807	4.095	-0.195	0.140
-301.793	-200.000	-0.021	-0.122
-300.778	-200.000	-0.038	0.259
-299.764	-63.556	-0.218	0.088
-298.749	-120.165	0.121	0.020
-297.735	14.262	0.269	0.206
-296.720	153.541	-0.075	0.102
-295.705	124.404	-0.096	0.119
-294.691	800.000	0.044	-0.157
-293.676	415.178	-0.104	-0.219
-292.662	-109.257	-0.282	-0.059
-291.647	108.999	0.177	0.209
-290.632	216.150	-0.169	-0.265
-289.618	233.931	0.114	0.185
-288.603	95.804	0.225	-0.253
-287.589	-200.000	-0.009	-0.140
-286.574	153.649	0.174	0.235
-285.559	378.116	-0.071	-0.143
-284.545	-200.000	-0.011	-0.265
-283.530	-20.339	0.163	-0.099
-282.516	-21.797	-0.161	-0.096
-281.501	391.703	-0.060	0.123
-280.486	-23.006	0.280	-0.166
-279.472	79.117	0.056	0.059
-278.457	41.688	-0.092	-0.082
-277.443	-75.985	-0.199	0.069
-276.428	8.777	-0.056	0.041
-275.413	800.000	-0.063	0.202
-274.399	800.000	0.066	-0.217
-273.384	-97.388	0.013	0.003
-272.370	-200.000	-0.024	-0.243
-271.355	159.543	0.104	0.142
-270.340	50.235	0.093	-0.086
-269.326	83.714	-0.227	-0.244
-268.311	-60.888	0.335	0.140
-267.297	37.522	-0.071	-0.062
-266.282	137.992	0.114	0.148
-265.267	463.804	-0.089	0.196
-264.253	200.448	-0.149	-0.225
-263.238	-4.405	-0.175	0.119
-262.224	-200.000	-0.062	0.296
-261.209	-57.324	0.311	0.134
-260.195	-200.000	0.002	0.181
-259.180	-40.147	0.622	-0.319
-258.165	-47.024	0.046	0.022
-257.151	72.555	0.233	-0.240
-256.136	-170.964	-0.122	0.004
-255.122	-200.000	0.032	0.165
-254.107	-6.216	-0.257	0.173
-253.092	-157.648	0.564	0.033
-252.078	-159.737	-0.398	0.022
-251.063	-200.000	0.372	0.001
-250.049	-200.000	0.024	-0.238
-249.034	-200.000	0.362	0.001
-248.019	-200.000	0.042	-0.313
-247.005	-60.916	-0.357	0.148
-245.990	-18.363	0.154	-0.095
-244.976	-44.250	0.360	0.178
-243.961	-110.874	0.146	-0.029
-242.946	133.976	-0.267	-0.340
-241.932	-200.000	-0.018	0.170
-240.917	-89.315	0.315	0.091
-239.903	25.089	0.131	-0.107
-238.888	38.969	0.036	-0.032
-237.873	800.000	-0.049	0.190
-236.859	-200.000	-0.012	0.128
-235.844	-134.414	0.088	-0.011
-234.830	-200.000	0.016	0.210
-233.815	92.873	-0.178	-0.198
-232.800	-141.936	0.300	-0.029
-231.786	182.571	0.270	0.391
-230.771	-87.920	0.187	0.055
-229.757	-200.000	-0.014	0.085
-228.742	329.823	0.127	-0.239
-227.727	165.346	-0.053	0.073
-226.713	163.026	0.153	-0.211
-225.698	213.842	0.020	-0.031
-224.684	-23.864	0.223	0.131
-223.669	800.000	0.081	0.330
-222.655	311.625	0.096	0.176
-221.640	-200.000	0.015	0.192
-220.625	-103.542	0.111	-0.026
-219.611	139.854	0.137	0.178
-218.596	-124.422	0.153	-0.023
-217.582	-64.237	0.226	0.090
-216.567	520.614	-0.171	-0.394
-215.552	800.000	0.055	-0.238
-214.538	-200.000	0.013	0.081
-213.523	-19.312	0.090	0.055
-212.509	-22.034	-0.238	-0.142
-211.494	82.811	0.174	-0.186
-210.479	-42.498	0.297	-0.149
-209.465	-192.952	-0.260	-0.002
-208.450	-118.768	0.195	-0.034
-207.436	76.494	0.132	-0.137
-206.421	800.000	0.059	0.197
-205.406	646.243	0.041	0.104
-204.392	-135.271	-0.150	-0.018
-203.377	-200.000	-0.011	-0.097
-202.363	-58.146	0.308	-0.132
-201.348	-46.534	-0.125	-0.060
-200.333	-92.327	-0.188	0.052
-199.319	-200.000	0.201	-0.001
-198.304	-21.206	-0.106	0.063
-197.290	-127.700	0.219	-0.031
-196.275	140.962	0.059	-0.076
-195.260	376.129	-0.132	-0.265
-194.246	146.469	-0.071	-0.094
-193.231	645.259	0.032	-0.080
-192.217	800.000	0.101	0.338
-191.202	-200.000	-0.043	-0.415
-190.187	-161.118	-0.112	0.006
-189.173	-86.876	0.150	0.045
-188.158	-150.741	-0.545	0.041
-187.144	800.000	-0.041	-0.145
-186.129	-140.173	0.197	0.020
-185.114	-4.317	0.354	-0.240
-184.100	800.000	-0.021	-0.088
-183.085	249.726	0.270	0.449
-182.071	-31.252	-0.312	-0.172
-181.056	-148.458	0.186	-0.015
-180.042	800.000	0.088	-0.289
-179.027	-86.328	0.083	-0.025
-178.012	-98.816	0.229	0.057
-176.998	32.748	-0.185	-0.157
-175.983	15.041	0.461	0.355
-174.969	-84.961	-0.424	-0.130
-173.954	800.000	0.021	-0.075
-172.939	-200.000	-0.003	-0.056
-171.925	96.075	-0.157	0.176
-170.910	-38.122	0.252	-0.131
-169.896	10.371	0.160	-0.119
-168.881	324.086	0.154	-0.288
-167.866	-18.874	-0.113	0.069
-166.852	-200.000	0.017	-0.539
-165.837	-41.450	0.186	0.094
-164.823	759.006	-0.147	0.389
-163.808	-200.000	-0.049	-0.309
-162.793	-200.000	0.034	-0.333
-161.779	-3.627	-0.059	-0.040
-160.764	-129.671	0.247	-0.033
-159.750	-31.680	0.236	0.130
-158.735	-200.000	-0.006	-0.049
-157.720	-133.831	0.019	-0.002
-156.706	-44.599	0.118	-0.058
-155.691	95.546	0.138	-0.154
-154.677	119.107	0.113	-0.137
-153.662	-86.290	-0.134	0.041
-152.647	93.620	-0.053	-0.059
-151.633	-200.000	-0.004	0.136
-150.618	-14.797	0.086	0.054
-149.604	16.773	0.276	0.214
-148.589	-16.908	-0.244	0.151
-147.574	389.541	-0.086	0.175
-146.560	800.000	-0.074	-0.254
-145.545	800.000	0.031	0.122
-144.531	-200.000	0.006	-0.076
-143.516	-73.204	0.139	0.050
-142.502	236.012	-0.106	-0.171
-141.487	-28.112	-0.129	0.073
-140.472	257.464	0.024	-0.041
-139.458	16.033	0.112	0.086
-138.443	-200.000	0.028	-0.266
-137.429	-168.536	0.216	-0.008
-136.414	-135.085	-0.087	-0.010
-135.399	106.821	0.061	-0.070
-134.385	-200.000	0.066	0.324
-133.370	165.237	-0.099	-0.137
-132.356	69.647	-0.126	-0.127
-131.341	75.444	-0.145	0.150
-130.326	142.999	0.146	-0.190
-129.312	70.861	0.052	0.052
-128.297	-66.059	0.253	0.099
-127.283	800.000	-0.013	0.043
-126.268	116.324	0.114	0.137
-125.253	215.620	-0.151	-0.235
-124.239	169.608	-0.039	-0.054
-123.224	149.857	0.154	0.205
-122.210	350.563	0.029	-0.057
-121.195	-193.996	-0.288	0.002
-120.180	-17.259	0.285	0.176
-119.166	415.800	-0.031	-0.064
-118.151	-72.302	-0.279	-0.101
-117.137	-200.000	-0.027	-0.127
-116.122	-22.556	0.018	-0.011
-115.107	138.079	0.141	0.180
-114.093	-200.000	0.000	-0.092
-113.078	-200.000	-0.007	-0.101
-112.064	-73.617	0.236	0.084
-111.049	-200.000	-0.008	0.047
-110.034	-200.000	-0.030	0.147
-109.020	-200.000	-0.022	0.222
-108.005	564.731	-0.154	-0.366
-106.991	601.185	0.071	-0.173
-105.976	-74.550	0.265	0.093
-104.962	84.789	-0.120	0.128
-103.947	-200.000	0.044	0.282
-102.932	-10.510	0.107	0.069
-101.918	224.368	0.096	0.151
-100.903	330.366	0.063	-0.119
-99.889	800.000	0.128	-0.359
-98.874	-149.320	0.104	0.008
-97.859	-29.681	0.152	0.085
-96.845	-200.000	-0.000	-0.111
-95.830	-190.248	-0.104	0.001
-94.816	366.359	-0.132	-0.260
-93.801	-200.000	-0.026	-0.186
-92.786	116.912	0.097	-0.117
-91.772	-200.000	-0.008	-0.203
-90.757	-152.316	0.225	0.016
-89.743	504.290	-0.064	-0.145
-88.728	324.543	0.040	0.075
-87.713	49.893	0.104	-0.096
-86.699	112.461	-0.157	0.186
-85.684	-72.702	0.130	0.047
-84.670	53.422	0.258	0.242
-83.655	-32.563	-0.099	0.054
-82.640	-13.945	-0.148	0.094
-81.626	-34.661	0.174	0.093
-80.611	-200.000	0.068	0.306
-79.597	39.648	-0.047	-0.042
-78.582	68.121	-0.076	-0.076
-77.567	-200.000	0.032	0.272
-76.553	-200.000	0.001	0.083
-75.538	163.595	-0.170	-0.233
-74.524	-200.000	0.039	0.471
-73.509	213.481	0.105	-0.163
-72.494	-80.821	-0.125	0.041
-71.480	-73.566	0.070	-0.025
-70.465	-200.000	-0.031	0.250
-69.451	-50.943	0.052	0.024
-68.436	-159.456	0.213	-0.012
-67.422	491.295	-0.059	0.132
-66.407	-29.957	-0.189	-0.105
-65.392	201.371	-0.117	-0.176
-64.378	-106.321	0.370	-0.081
-63.363	429.816	-0.084	0.178
-62.349	-200.000	0.043	-0.256
-61.334	191.782	-1.025	-1.509
-60.319	454.200	0.320	0.693
-59.305	241.128	-0.680	-1.109
-58.290	566.402	0.563	1.333
-57.276	209.672	0.785	1.201
-56.261	-200.000	124.219	644.695
-55.246	414.088	1562.380	3246.517
-54.232	143.242	2720.675	3534.424
-53.217	96.362	2162.804	2415.348
-52.203	35.209	1594.764	1364.521
-51.188	26.534	1339.228	1093.680
-50.173	24.100	1301.293	1048.345
-49.159	51.462	1370.023	1270.434
-48.144	48.750	1381.761	1264.873
-47.130	26.691	1330.534	1087.346
-46.115	23.510	1310.926	1052.441
-45.100	23.396	1306.165	1047.903
-44.086	23.357	1303.327	1045.351
-43.071	23.342	1301.126	1043.459
-42.057	23.310	1298.816	1041.376
-41.042	23.283	1297.331	1039.986
-40.027	23.394	1296.018	1039.541
-39.013	23.286	1294.259	1037.459
-37.998	23.400	1292.121	1036.367
-36.984	23.355	1290.572	1034.824
-35.969	23.419	1288.638	1033.603
-34.954	23.520	1286.766	1032.651
-33.940	23.561	1285.630	1031.933
-32.925	23.573	1284.698	1031.217
-31.911	23.449	1283.415	1029.427
-30.896	23.392	1282.325	1028.178
-29.881	23.583	1280.652	1027.902
-28.867	23.584	1279.219	1026.722
-27.852	23.616	1277.787	1025.712
-26.838	23.537	1276.956	1024.548
-25.823	23.689	1274.693	1023.569
-24.809	23.535	1273.716	1021.857
-23.794	23.476	1272.273	1020.322
-22.779	23.467	1271.287	1019.440
-21.765	23.555	1269.893	1018.788
-20.750	23.544	1268.571	1017.619
-19.736	23.477	1267.318	1016.188
-18.721	23.400	1266.320	1014.907
-17.706	23.428	1265.317	1014.224
-16.692	23.379	1263.949	1012.811
-15.677	23.378	1263.134	1012.111
-14.663	23.395	1261.673	1010.995
-13.648	23.232	1260.935	1009.436
-12.633	23.354	1259.701	1009.103
-11.619	23.515	1258.511	1009.022
-10.604	23.350	1257.927	1007.579
-9.590	23.341	1257.116	1006.836
-8.575	23.350	1256.161	1006.081
-7.560	23.302	1255.819	1005.495
-6.546	23.313	1254.772	1004.680
-5.531	23.330	1254.248	1004.320
-4.517	23.426	1253.060	1003.869
-3.502	23.318	1252.366	1002.666
-2.487	23.382	1251.383	1002.199
-1.473	23.460	1246.584	998.755
-0.458	21.792	1232.338	978.008
0.556	17.112	1216.903	943.489
1.571	13.684	1224.793	930.316
2.586	13.085	1240.087	938.449
3.600	13.262	1227.650	929.946
4.615	9.794	1155.443	856.786
5.629	3.268	1084.893	771.772
6.644	0.345	1067.646	745.005
7.659	0.152	1066.122	742.926
8.673	0.136	1064.870	741.909
9.688	0.117	1063.935	741.094
10.702	0.284	1061.125	739.896
11.717	4.289	1065.859	762.855
12.731	11.213	1075.436	803.896
13.746	15.769	1080.484	830.132
14.761	16.710	1081.268	835.304
15.775	16.033	1079.912	830.847
16.790	15.098	1077.892	824.616
17.804	14.407	1076.455	820.046
18.819	14.176	1075.260	817.930
19.834	13.860	1074.122	815.435
20.848	13.625	1073.362	813.634
21.863	13.356	1072.572	811.642
22.877	13.077	1072.299	809.997
23.892	13.145	1070.799	809.125
24.907	13.294	1069.994	809.173
25.921	13.228	1069.665	808.530
26.936	13.212	1068.829	807.752
27.950	13.242	1067.689	806.962
28.965	13.367	1066.948	806.942
29.980	13.426	1065.145	805.796
30.994	13.422	1064.035	804.862
32.009	13.428	1063.051	804.076
33.023	13.380	1062.426	803.302
34.038	13.355	1061.163	802.155
35.053	13.298	1060.443	801.259
36.067	13.306	1059.722	800.684
37.082	13.305	1059.339	800.317
38.096	13.344	1058.246	799.610
39.111	13.289	1057.503	798.714
40.126	13.315	1056.167	797.758
41.140	13.223	1055.173	796.494
42.155	13.190	1053.838	795.256
43.169	13.182	1052.939	794.469
44.184	13.227	1051.652	793.648
45.199	13.075	1051.052	792.392
46.213	13.258	1049.482	792.015
47.228	13.260	1049.052	791.630
48.242	13.277	1047.876	790.755
49.257	13.150	1046.988	789.407
50.271	13.352	1045.958	789.525
51.286	13.251	1045.109	788.335
52.301	13.405	1043.560	787.826
53.315	13.319	1042.881	786.836
54.330	13.165	1042.240	785.549
55.344	13.214	1040.975	784.763
56.359	13.166	1040.159	783.848
57.374	13.137	1039.556	783.189
58.388	13.119	1038.439	782.193
59.403	13.209	1037.289	781.682
60.417	13.094	1036.955	780.817
61.432	13.213	1036.182	780.727
62.447	13.084	1035.566	779.585
63.461	13.160	1034.489	779.064
64.476	13.131	1033.707	778.269
65.490	13.126	1032.979	777.628
66.505	13.119	1032.009	776.800
67.520	13.010	1032.259	776.405
68.534	13.220	1030.594	776.071
69.549	13.122	1030.073	775.148
70.563	13.098	1029.572	774.592
71.578	13.051	1028.598	773.570
72.593	12.991	1027.614	772.479
73.607	13.189	1027.107	772.959
74.622	13.040	1026.341	771.615
75.636	13.137	1025.374	771.274
76.651	12.983	1024.858	770.099
77.666	13.129	1024.230	770.241
78.680	13.038	1023.717	769.362
79.695	13.084	1023.150	769.081
80.709	13.129	1022.656	768.850
81.724	13.222	1021.640	768.452
82.739	13.307	1020.713	768.083
83.753	13.336	1019.860	767.506
84.768	13.228	1019.446	766.624
85.782	13.370	1018.260	766.323
86.797	13.349	1017.736	765.763
87.812	13.131	1016.309	763.613
88.826	13.304	1015.266	763.562
89.841	13.239	1014.861	762.889
90.855	13.257	1013.612	761.968
91.870	13.285	1013.173	761.700
92.884	13.341	1012.654	761.499
93.899	13.429	1011.330	760.841
94.914	13.478	1010.281	760.208
95.928	13.459	1009.517	759.482
96.943	13.437	1008.689	758.691
97.957	13.356	1008.430	758.054
98.972	13.335	1007.346	757.079
99.987	13.499	1006.024	756.767
101.001	13.344	1005.615	755.685
102.016	13.255	1004.810	754.604
103.030	13.331	1003.931	754.226
104.045	13.470	1003.024	754.110
105.060	13.402	1002.710	753.499
106.074	13.367	1001.672	752.493
107.089	13.305	1000.344	751.145
108.103	13.274	999.710	750.465
109.118	13.256	998.558	749.452
110.133	13.284	997.811	748.950
111.147	13.331	997.028	748.507
112.162	13.331	996.046	747.703
113.176	13.385	995.572	747.527
114.191	13.230	994.842	746.215
115.206	13.276	994.362	745.997
116.220	13.329	993.008	745.151
117.235	13.311	992.344	744.506
118.249	13.304	990.958	743.370
119.264	13.250	990.779	742.928
120.279	13.267	989.738	742.158
121.293	13.204	988.966	741.229
122.308	13.244	988.031	740.642
123.322	13.440	986.433	740.256
124.337	13.228	985.783	738.756
125.352	13.270	985.175	738.424
126.366	13.414	983.951	738.082
127.381	13.242	983.089	736.605
128.395	13.296	982.277	736.168
129.410	13.238	981.156	735.004
130.424	13.279	980.906	734.936
131.439	13.415	979.345	734.307
132.454	13.455	978.736	733.960
133.468	13.345	978.280	733.068
134.483	13.373	977.219	732.330
135.497	13.367	976.504	731.704
136.512	13.370	975.542	730.931
137.527	13.378	974.685	730.258
138.541	13.292	973.845	729.186
139.556	13.364	973.326	729.052
140.570	13.417	972.593	728.669
141.585	13.482	971.220	727.865
142.600	13.574	970.570	727.718
143.614	13.688	969.839	727.605
144.629	13.544	969.163	726.403
145.643	13.433	968.433	725.304
146.658	13.475	967.154	724.464
147.673	13.481	966.120	723.655
148.687	13.411	965.794	723.040
149.702	13.533	964.598	722.611
150.716	13.477	964.080	721.915
151.731	13.507	962.908	721.105
152.746	13.495	962.479	720.669
153.760	13.654	961.777	720.769
154.775	13.618	961.281	720.179
155.789	13.534	960.696	719.311
156.804	13.599	959.925	718.950
157.819	13.594	959.386	718.463
158.833	13.692	958.720	718.325
159.848	13.721	957.928	717.792
160.862	13.712	956.965	716.970
161.877	13.604	955.852	715.604
162.892	13.605	955.048	714.944
163.906	13.524	954.392	714.041
164.921	13.641	953.412	713.750
165.935	13.733	952.456	713.364
166.950	13.733	951.625	712.679
167.964	13.697	950.826	711.867
168.979	13.757	949.881	711.351
169.994	13.793	948.876	710.688
171.008	13.772	948.282	710.092
172.023	13.720	947.925	709.537
173.037	13.689	947.365	708.925
174.052	13.679	946.471	708.151
175.067	13.663	945.980	707.652
176.081	13.747	945.185	707.353
177.096	13.758	944.712	706.982
178.110	13.678	944.447	706.384
179.125	13.733	943.561	705.892
180.140	13.847	942.699	705.668
181.154	13.794	942.737	705.408
182.169	13.834	942.211	705.121
183.183	13.905	941.501	704.832
184.198	13.895	940.525	703.993
185.213	13.858	939.978	703.364
186.227	13.884	939.408	702.990
187.242	13.982	938.414	702.595
188.256	13.929	937.928	701.948
189.271	13.946	937.206	701.415
190.286	13.888	936.280	700.414
191.300	13.857	935.942	699.969
192.315	13.833	935.092	699.170
193.329	13.895	934.601	699.006
194.344	13.851	934.105	698.387
195.359	13.910	933.516	698.133
196.373	13.989	932.561	697.687
197.388	13.998	932.356	697.512
198.402	14.189	931.711	697.765
199.417	14.261	931.063	697.521
200.432	14.231	930.558	696.954
201.446	14.116	930.311	696.227
202.461	14.112	929.744	695.723
203.475	14.194	929.037	695.479
204.490	14.178	927.925	694.518
205.504	14.115	927.791	694.089
206.519	14.117	926.766	693.270
207.534	14.098	925.998	692.559
208.548	14.270	924.995	692.462
209.563	14.101	924.934	691.653
210.577	14.160	924.011	691.146
211.592	14.323	923.247	691.187
212.607	14.289	922.606	690.508
213.621	14.321	921.703	689.904
214.636	14.319	921.545	689.715
215.650	14.353	920.455	688.980
216.665	14.345	919.859	688.440
217.680	14.453	918.914	688.116
218.694	14.359	918.653	687.471
219.709	14.451	917.444	686.885
220.723	14.450	917.078	686.546
221.738	14.520	915.906	685.895
222.753	14.473	915.783	685.549
223.767	14.557	915.028	685.272
224.782	14.479	914.709	684.650
225.796	14.605	914.213	684.735
226.811	14.517	913.243	683.587
227.826	14.386	912.768	682.634
228.840	14.442	911.941	682.186
229.855	14.341	911.472	681.362
230.869	14.413	910.298	680.715
231.884	14.614	909.549	680.918
232.899	14.549	908.675	679.938
233.913	14.504	908.379	679.471
234.928	14.556	907.477	678.950
235.942	14.626	906.698	678.593
236.957	14.558	906.429	678.053
237.972	14.525	906.299	677.761
238.986	14.588	905.439	677.312
240.001	14.559	904.724	676.603
241.015	14.482	904.281	675.897
242.030	14.684	903.459	676.042
243.045	14.665	903.129	675.657
244.059	14.639	902.443	674.982
245.074	14.610	901.928	674.419
246.088	14.693	900.780	673.834
247.103	14.719	900.512	673.678
248.117	14.802	899.745	673.380
249.132	14.846	899.209	673.096
250.147	15.010	898.082	672.855
251.161	14.915	897.728	672.147
252.176	14.918	897.095	671.626
253.190	14.946	896.553	671.272
254.205	14.982	895.684	670.709
255.220	14.965	895.199	670.215
256.234	15.084	894.583	670.173
257.249	15.136	894.017	669.898
258.263	15.025	893.050	668.670
259.278	15.045	892.383	668.189
260.293	15.137	891.918	668.151
261.307	15.114	891.331	667.561
262.322	15.218	890.865	667.566
263.336	15.227	889.781	666.733
264.351	15.184	889.501	666.293
265.366	15.197	888.275	665.367
266.380	15.194	888.120	665.179
267.395	15.204	887.418	664.633
268.409	15.108	886.457	663.475
269.424	15.150	885.991	663.234
270.439	15.160	885.450	662.811
271.453	15.237	884.501	662.343
272.468	15.150	884.292	661.785
273.482	15.205	883.504	661.355
274.497	15.223	882.827	660.861
275.512	15.269	882.334	660.613
276.526	15.290	881.859	660.284
277.541	15.282	881.514	659.936
278.555	15.297	880.578	659.234
279.570	15.354	880.089	659.035
280.585	15.496	879.407	659.023
281.599	15.439	878.490	658.052
282.614	15.444	877.739	657.452
283.628	15.410	877.116	656.794
284.643	15.433	876.632	656.463
285.657	15.436	875.724	655.739
286.672	15.514	875.297	655.663
287.687	15.506	874.785	655.190
288.701	15.425	874.174	654.359
289.716	15.581	873.570	654.457
290.730	15.601	872.926	653.994
291.745	15.428	872.356	652.839
292.760	15.718	871.389	653.182
293.774	15.683	870.680	652.456
294.789	15.737	870.000	652.101
295.803	15.584	869.605	651.152
296.818	15.581	869.366	650.904
297.833	15.496	868.528	649.889
298.847	15.688	867.599	649.879
299.862	15.739	867.068	649.620
300.876	15.779	866.629	649.389
301.891	15.752	865.761	648.577
302.906	15.767	865.397	648.304
303.920	15.826	864.855	648.070
304.935	15.864	864.358	647.787
305.949	15.828	863.868	647.225
306.964	15.924	862.956	646.851
307.979	15.848	862.383	646.071
308.993	15.922	862.014	646.024
310.008	15.940	861.479	645.634
311.022	15.908	860.981	645.082
312.037	15.889	859.971	644.195
313.052	15.842	859.533	643.630
314.066	15.907	859.198	643.570
315.081	15.812	858.935	642.952
316.095	15.862	858.165	642.512
317.110	15.945	857.591	642.341
318.125	15.971	856.929	641.888
319.139	15.929	856.323	641.217
320.154	15.931	855.927	640.872
321.168	15.906	855.733	640.574
322.183	15.855	854.738	639.579
323.197	16.067	854.315	640.009
324.212	16.055	853.732	639.472
325.227	15.942	853.510	638.821
326.241	16.100	852.508	638.611
327.256	16.082	851.928	638.053
328.270	15.881	851.528	636.937
329.285	16.009	851.071	637.021
330.300	15.889	850.614	636.170
331.314	15.965	849.950	635.907
332.329	16.108	849.587	636.118
333.343	16.171	849.130	635.954
334.358	16.250	848.608	635.805
335.373	16.096	848.269	634.916
336.387	16.097	847.851	634.551
337.402	16.094	847.886	634.511
338.416	16.205	847.337	634.460
339.431	16.214	846.701	633.960
340.446	16.353	846.303	634.129
341.460	16.289	846.146	633.716
342.475	16.290	845.516	633.190
343.489	16.383	845.055	633.137
344.504	16.384	844.309	632.529
345.519	16.441	844.088	632.521
346.533	16.541	843.506	632.402
347.548	16.396	842.919	631.361
348.562	16.244	842.720	630.591
349.577	16.462	841.690	630.575
350.592	16.359	841.258	629.815
351.606	16.437	840.423	629.424
352.621	16.357	839.875	628.659
353.635	16.372	839.410	628.312
354.650	16.321	838.735	627.562
355.665	16.319	837.986	626.938
356.679	16.647	837.100	627.435
357.694	16.572	836.623	626.746
358.708	16.627	836.148	626.535
359.723	16.436	835.830	625.536
360.738	16.498	835.023	625.106
361.752	16.702	834.519	625.426
362.767	16.442	834.154	624.138
363.781	16.582	833.357	624.005
364.796	16.733	832.889	624.156
365.810	16.576	832.753	623.417
366.825	16.860	832.105	623.922
367.840	16.751	831.839	623.269
368.854	16.678	831.259	622.511
369.869	16.838	830.427	622.420
370.883	16.747	830.307	621.940
371.898	16.695	830.287	621.678
372.913	16.927	829.660	622.006
373.927	16.921	828.746	621.243
374.942	16.957	828.408	621.068
375.956	16.787	828.221	620.251
376.971	16.873	827.797	620.193
377.986	16.943	827.190	619.939
379.000	17.005	826.713	619.752
380.015	17.051	825.973	619.310
381.029	17.140	825.302	619.078
382.044	17.290	824.636	619.070
383.059	17.171	824.170	618.232
384.073	17.139	824.080	617.991
385.088	16.981	823.591	616.996
386.102	16.980	822.562	616.168
387.117	17.079	822.264	616.249
388.132	16.987	821.776	615.497
389.146	17.226	820.923	615.667
390.161	17.069	820.918	615.042
391.175	17.265	820.415	615.317
392.190	17.146	819.552	614.188
393.205	17.214	819.093	614.034
394.219	17.186	819.083	613.870
395.234	17.182	818.587	613.430
396.248	17.031	818.235	612.566
397.263	16.923	817.517	611.586
398.278	16.999	817.161	611.539
399.292	17.252	816.611	611.985
400.307	17.205	816.167	611.430
401.321	17.167	815.570	610.790
402.336	17.207	815.258	610.647
403.350	17.196	814.841	610.240
404.365	17.273	814.599	610.284
405.380	17.286	813.891	609.746
406.394	17.427	813.180	609.662
407.409	17.485	812.757	609.500
408.423	17.483	812.275	609.077
409.438	17.510	812.113	609.000
410.453	17.466	811.730	608.500
411.467	17.381	811.510	607.978
412.482	17.491	811.039	607.964
413.496	17.520	810.815	607.845
414.511	17.507	810.305	607.363
415.526	17.583	809.702	607.127
416.540	17.484	809.278	606.405
417.555	17.578	808.614	606.187
418.569	17.580	808.399	605.980
419.584	17.773	807.645	606.046
420.599	17.620	807.254	605.155
421.613	113.623	1298.953	1487.232
422.628	98.140	1370.550	1487.327
