DTS Sentinel unit serial number:	SN413079Multiplexer serial number:	ORYXHardware model number:	OX4-SRSoftware version number:	ORYX F/W v4.00 Oryx Data Collector v3.7.2.0data status	okinstallation	princeton_trtdifferential loss correction	single-endedforward channel	channel 1reverse channel	N/Adate	2019/09/18time	10:06:35forward acquisition time	60.00reverse acquisition time	0.00gamma	496.2192k internal	0.2330k external	0.2330temperature offset calibration	0.9974default loss term (dB/km)	0.3790temperature slope calibration	1.0000multiplexer offset coefficient	1.0000multiplexer slope coefficient	1.0000fibre end	0.00T internal ref (°C)	27.62T ext. ref 1 (°C)	0.32T ext. ref 2 (°C)	24.15length (m)	temperature (°C)	Stokes	anti-Stokes-747.200	128.069	0.180	-0.231
-746.185	-200.000	-0.035	-0.271
-745.171	-83.691	-0.174	0.056
-744.156	800.000	-0.053	0.153
-743.142	-200.000	0.037	0.327
-742.127	201.053	0.124	0.192
-741.112	-160.192	-0.237	0.013
-740.098	162.643	-0.054	0.077
-739.083	641.641	-0.123	0.317
-738.069	-200.000	-0.030	0.193
-737.054	715.415	-0.088	0.234
-736.039	-194.389	-0.445	0.004
-735.025	-200.000	0.007	0.258
-734.010	-200.000	-0.027	-0.220
-732.996	101.611	-0.176	-0.207
-731.981	370.522	-0.135	0.275
-730.966	438.546	0.101	0.222
-729.952	-41.459	0.119	-0.062
-728.937	198.419	0.175	0.270
-727.923	124.747	0.056	-0.071
-726.908	-200.000	0.067	0.378
-725.894	72.113	0.064	0.067
-724.879	80.768	-0.228	0.248
-723.864	113.345	-0.147	-0.179
-722.850	-184.213	0.250	0.004
-721.835	-80.597	-0.385	0.129
-720.821	120.099	-0.073	0.092
-719.806	800.000	0.095	0.360
-718.791	-48.191	-0.157	0.076
-717.777	249.936	0.127	-0.218
-716.762	-200.000	0.000	0.007
-715.748	-161.014	0.080	0.004
-714.733	1.323	-0.052	-0.037
-713.718	3.133	-0.208	0.152
-712.704	-200.000	0.002	-0.079
-711.689	-200.000	0.028	0.213
-710.675	56.292	0.128	-0.125
-709.660	-200.000	-0.017	0.113
-708.645	-57.489	0.278	-0.123
-707.631	17.546	-0.101	0.081
-706.616	-62.236	-0.248	0.104
-705.602	3.787	0.075	0.055
-704.587	-68.538	-0.120	-0.047
-703.572	800.000	0.030	0.097
-702.558	-79.174	-0.218	0.074
-701.543	800.000	-0.050	-0.186
-700.529	140.659	0.089	-0.119
-699.514	800.000	-0.047	-0.141
-698.499	-34.505	0.042	-0.023
-697.485	311.047	-0.162	-0.306
-696.470	-200.000	-0.039	-0.270
-695.456	61.799	0.427	-0.428
-694.441	-200.000	0.043	0.273
-693.426	-19.976	-0.202	0.125
-692.412	-200.000	0.000	0.047
-691.397	-83.072	-0.189	-0.061
-690.383	194.389	-0.181	-0.275
-689.368	-168.856	0.084	0.003
-688.354	-200.000	-0.017	-0.090
-687.339	800.000	0.117	-0.357
-686.324	-11.721	0.095	-0.063
-685.310	-78.729	0.214	-0.073
-684.295	79.900	0.185	0.200
-683.281	-137.743	0.078	0.009
-682.266	-83.061	-0.497	0.161
-681.251	-97.450	-0.029	0.007
-680.237	218.994	0.081	0.130
-679.222	27.098	-0.126	-0.107
-678.208	26.640	0.175	0.147
-677.193	181.985	0.105	-0.156
-676.178	-160.068	0.274	0.015
-675.164	-75.246	0.172	-0.062
-674.149	800.000	0.055	-0.221
-673.135	800.000	-0.077	0.251
-672.120	800.000	0.065	0.214
-671.105	59.928	-0.203	0.201
-670.091	443.372	-0.212	-0.467
-669.076	-200.000	-0.023	0.235
-668.062	475.413	-0.027	-0.061
-667.047	274.076	-0.272	-0.483
-666.032	14.753	0.126	0.099
-665.018	-200.000	0.023	-0.380
-664.003	39.870	-0.089	-0.080
-662.989	-42.603	-0.240	0.123
-661.974	44.391	-0.160	-0.147
-660.959	-92.866	-0.214	-0.060
-659.945	-33.519	0.162	0.090
-658.930	-16.324	0.099	0.063
-657.916	-93.277	-0.099	0.028
-656.901	-73.539	-0.190	-0.070
-655.886	-200.000	0.045	0.423
-654.872	-57.419	-0.131	0.058
-653.857	465.649	0.135	0.304
-652.843	393.837	-0.077	0.161
-651.828	122.909	0.156	0.195
-650.814	-18.467	-0.160	0.100
-649.799	79.498	-0.270	-0.290
-648.784	-195.732	0.097	-0.001
-647.770	-4.241	-0.323	0.224
-646.755	-154.429	0.334	0.022
-645.741	-200.000	0.020	0.170
-644.726	-200.000	-0.005	0.466
-643.711	483.331	0.174	-0.396
-642.697	149.472	0.175	-0.238
-641.682	-154.825	0.123	-0.008
-640.668	8.830	0.019	0.014
-639.653	-151.959	-0.436	-0.032
-638.638	-200.000	0.021	0.109
-637.624	42.351	0.119	0.108
-636.609	800.000	-0.011	0.040
-635.595	-22.507	0.152	0.092
-634.580	-120.516	-0.310	-0.053
-633.565	14.518	-0.073	-0.057
-632.551	47.816	0.050	0.047
-631.536	-39.016	0.412	-0.217
-630.522	800.000	0.098	-0.349
-629.507	310.280	-0.069	-0.130
-628.492	-200.000	0.019	0.095
-627.478	334.650	-0.098	0.190
-626.463	-4.922	-0.096	-0.066
-625.449	-58.122	-0.310	0.136
-624.434	603.315	-0.072	-0.180
-623.419	-127.183	-0.087	0.013
-622.405	800.000	-0.149	0.418
-621.390	-200.000	-0.136	-0.000
-620.376	-200.000	-0.007	-0.294
-619.361	118.952	0.058	0.072
-618.346	30.683	-0.075	0.064
-617.332	134.862	-0.091	-0.119
-616.317	-89.405	-0.118	0.035
-615.303	-31.859	-0.067	0.038
-614.288	-86.261	-0.101	0.031
-613.273	81.040	0.196	-0.211
-612.259	-200.000	0.008	-0.182
-611.244	-15.503	0.129	-0.083
-610.230	800.000	0.098	0.292
-609.215	-112.694	-0.395	0.079
-608.201	257.916	0.174	0.301
-607.186	113.007	-0.187	-0.227
-606.171	539.285	0.098	-0.233
-605.157	615.418	0.086	-0.217
-604.142	800.000	-0.079	0.225
-603.128	490.488	0.071	-0.162
-602.113	-200.000	0.062	-0.297
-601.098	186.444	-0.085	-0.127
-600.084	-104.829	-0.303	-0.070
-599.069	-158.538	-0.203	0.012
-598.055	-200.000	0.006	0.199
-597.040	-3.738	0.068	-0.047
-596.025	-37.625	-0.082	0.044
-595.011	-108.783	-0.282	-0.060
-593.996	108.049	-0.089	-0.107
-592.982	-59.664	0.201	-0.086
-591.967	65.824	0.077	0.078
-590.952	73.055	-0.044	0.046
-589.938	102.419	0.210	-0.246
-588.923	-200.000	-0.014	-0.452
-587.909	-74.016	0.334	-0.121
-586.894	-37.773	-0.247	-0.132
-585.879	-70.651	0.116	0.044
-584.865	76.535	-0.233	0.247
-583.850	647.614	-0.049	-0.126
-582.836	-179.590	0.565	-0.012
-581.821	-23.167	-0.094	-0.057
-580.806	121.350	0.079	0.098
-579.792	-200.000	0.023	0.265
-578.777	348.943	0.102	0.201
-577.763	208.159	-0.095	-0.148
-576.748	-88.270	-0.401	0.120
-575.733	303.835	-0.079	0.147
-574.719	71.673	-0.066	0.069
-573.704	800.000	0.082	-0.328
-572.690	-48.647	-0.259	0.124
-571.675	800.000	-0.023	-0.083
-570.661	-104.292	0.383	0.089
-569.646	332.381	-0.190	-0.367
-568.631	-200.000	-0.076	0.337
-567.617	174.984	-0.124	-0.180
-566.602	493.121	-0.118	-0.271
-565.588	-72.138	-0.369	-0.137
-564.573	-200.000	0.009	0.228
-563.558	-132.221	0.145	0.019
-562.544	159.673	-0.076	-0.105
-561.529	97.732	-0.105	-0.120
-560.515	-136.116	-0.315	0.037
-559.500	-200.000	0.017	-0.075
-558.485	800.000	0.154	-0.467
-557.471	-131.997	-0.176	0.023
-556.456	21.106	-0.196	-0.159
-555.442	343.433	-0.148	-0.289
-554.427	-200.000	-0.010	-0.153
-553.412	-200.000	0.015	-0.397
-552.398	15.273	-0.155	-0.121
-551.383	-3.803	-0.204	-0.142
-550.369	800.000	-0.020	0.062
-549.354	590.023	0.154	-0.379
-548.339	-57.320	0.123	-0.054
-547.325	666.440	-0.057	-0.148
-546.310	-87.347	-0.430	-0.130
-545.296	407.343	0.090	-0.190
-544.281	-200.000	0.026	-0.411
-543.266	327.492	-0.090	0.172
-542.252	-94.539	-0.255	0.069
-541.237	800.000	0.082	0.289
-540.223	152.534	0.150	-0.204
-539.208	-200.000	-0.071	0.348
-538.193	800.000	0.066	-0.225
-537.179	-116.134	-0.219	0.041
-536.164	-40.250	0.065	0.034
-535.150	800.000	-0.088	-0.253
-534.135	-200.000	0.046	-0.204
-533.121	-74.809	0.270	-0.097
-532.106	373.530	-0.204	-0.415
-531.091	-98.843	-0.186	0.047
-530.077	-111.022	0.109	-0.022
-529.062	-38.609	-0.135	-0.071
-528.048	800.000	0.053	-0.170
-527.033	-89.181	0.091	-0.027
-526.018	295.503	0.080	-0.146
-525.004	-160.421	-0.236	0.013
-523.989	99.150	0.209	0.241
-522.975	-161.132	-0.287	-0.015
-521.960	199.982	-0.208	-0.318
-520.945	-200.000	0.044	-0.211
-519.931	800.000	0.019	-0.078
-518.916	800.000	-0.016	0.064
-517.902	-123.936	0.105	0.016
-516.887	-62.324	0.171	-0.071
-515.872	-151.559	-0.153	-0.011
-514.858	358.291	0.074	-0.147
-513.843	-121.090	-0.210	0.035
-512.829	-200.000	0.010	-0.062
-511.814	-200.000	0.014	0.248
-510.799	-120.430	0.295	-0.050
-509.785	-200.000	-0.037	0.368
-508.770	-45.077	-0.100	-0.050
-507.756	211.579	-0.038	0.060
-506.741	45.158	-0.128	0.117
-505.726	60.596	0.188	-0.186
-504.712	-200.000	-0.002	0.017
-503.697	16.126	0.255	0.200
-502.683	-93.185	-0.234	-0.065
-501.668	15.943	-0.359	-0.282
-500.653	800.000	-0.090	0.308
-499.639	341.936	-0.101	-0.197
-498.624	34.850	0.136	-0.119
-497.610	373.057	0.137	-0.278
-496.595	-200.000	-0.034	0.252
-495.581	-200.000	-0.020	0.345
-494.566	-100.675	-0.405	-0.100
-493.551	800.000	-0.082	-0.304
-492.537	-200.000	-0.087	0.391
-491.522	-39.259	-0.062	0.032
-490.508	100.103	0.235	-0.272
-489.493	-87.504	0.331	-0.100
-488.478	-200.000	-0.010	-0.066
-487.464	-153.626	-0.408	-0.028
-486.449	-200.000	0.025	-0.150
-485.435	-120.151	-0.184	0.031
-484.420	-200.000	-0.044	0.216
-483.405	-200.000	-0.012	-0.361
-482.391	-81.022	-0.159	0.053
-481.376	-117.312	0.213	-0.039
-480.362	-127.377	0.490	0.071
-479.347	176.997	-0.143	-0.207
-478.332	-69.642	0.353	-0.134
-477.318	366.952	-0.085	-0.170
-476.303	-106.308	-0.208	-0.046
-475.289	800.000	-0.129	-0.495
-474.274	800.000	-0.051	-0.163
-473.259	489.882	0.013	-0.029
-472.245	800.000	-0.042	0.132
-471.230	-72.958	0.241	-0.088
-470.216	88.410	-0.236	-0.261
-469.201	-7.873	-0.125	-0.084
-468.186	-200.000	-0.025	-0.192
-467.172	236.622	0.098	0.161
-466.157	-21.558	-0.368	-0.224
-465.143	394.454	0.050	0.104
-464.128	800.000	-0.102	0.320
-463.113	-48.785	0.309	0.148
-462.099	-200.000	0.004	0.342
-461.084	-200.000	-0.007	-0.033
-460.070	-115.208	-0.059	-0.011
-459.055	50.958	-0.067	-0.063
-458.040	-106.422	0.276	0.061
-457.026	-165.054	-0.221	-0.010
-456.011	90.602	0.110	0.123
-454.997	-200.000	0.017	0.155
-453.982	-119.211	0.112	-0.019
-452.968	38.347	0.266	0.236
-451.953	49.043	-0.082	-0.076
-450.938	-102.291	-0.163	0.039
-449.924	-14.039	0.229	-0.147
-448.909	-200.000	-0.028	-0.292
-447.895	34.614	0.072	0.063
-446.880	-200.000	-0.322	0.001
-445.865	-200.000	0.006	-0.179
-444.851	-91.842	-0.062	-0.017
-443.836	800.000	0.017	-0.051
-442.822	-164.859	0.213	0.009
-441.807	-86.727	0.238	0.073
-440.792	-200.000	-0.052	-0.242
-439.778	800.000	-0.032	-0.105
-438.763	-97.508	-0.173	-0.045
-437.749	9.092	-0.312	-0.235
-436.734	188.987	0.148	0.221
-435.719	-87.656	-0.376	0.113
-434.705	800.000	0.066	0.278
-433.690	10.169	-0.340	0.257
-432.676	324.126	0.141	0.267
-431.661	-28.603	-0.185	-0.106
-430.646	-73.105	0.449	-0.164
-429.632	261.387	-0.204	0.352
-428.617	414.528	0.013	-0.028
-427.603	-112.345	-0.230	-0.046
-426.588	173.718	0.277	-0.398
-425.573	-200.000	0.016	-0.215
-424.559	24.532	0.211	-0.174
-423.544	211.229	0.113	-0.176
-422.530	-81.731	-0.154	0.050
-421.515	-66.814	0.118	-0.047
-420.500	642.630	0.012	-0.030
-419.486	82.534	-0.104	0.112
-418.471	-137.892	0.301	-0.033
-417.457	319.950	0.191	0.360
-416.442	240.365	-0.073	0.121
-415.428	-200.000	0.013	0.220
-414.413	237.146	-0.052	0.086
-413.398	800.000	-0.070	0.252
-412.384	-62.956	-0.337	0.139
-411.369	-112.999	-0.177	-0.035
-410.355	800.000	0.074	-0.297
-409.340	54.064	0.084	-0.080
-408.325	800.000	-0.066	0.268
-407.311	68.968	0.181	0.185
-406.296	272.319	-0.101	-0.177
-405.282	800.000	0.072	-0.259
-404.267	-200.000	0.023	-0.271
-403.252	257.250	0.048	-0.081
-402.238	-156.067	0.614	-0.039
-401.223	-47.109	-0.048	0.023
-400.209	127.722	0.252	0.318
-399.194	-105.666	0.188	0.042
-398.179	-200.000	-0.048	-0.386
-397.165	-200.000	0.013	-0.207
-396.150	-72.932	-0.252	0.092
-395.136	17.096	-0.072	0.057
-394.121	-200.000	-0.057	0.487
-393.106	-200.000	-0.055	-0.271
-392.092	-92.890	0.432	-0.120
-391.077	680.273	0.027	0.070
-390.063	474.398	0.183	0.410
-389.048	-200.000	0.008	0.127
-388.033	166.743	-0.085	-0.120
-387.019	158.613	-0.038	0.053
-386.004	501.389	0.091	0.208
-384.990	119.539	0.344	0.423
-383.975	4.053	-0.277	-0.202
-382.960	105.187	-0.036	0.042
-381.946	-131.475	0.151	0.020
-380.931	-200.000	0.004	0.047
-379.917	139.153	-0.102	-0.133
-378.902	-103.375	-0.137	0.032
-377.888	-122.464	-0.031	0.005
-376.873	5.789	0.191	0.140
-375.858	251.510	0.071	-0.121
-374.844	-200.000	-0.002	-0.120
-373.829	-107.345	-0.291	0.064
-372.815	-116.568	-0.253	0.046
-371.800	800.000	0.200	0.559
-370.785	736.538	0.043	-0.115
-369.771	-17.275	0.241	0.151
-368.756	207.683	-0.144	-0.223
-367.742	-108.049	-0.198	-0.043
-366.727	38.040	-0.243	0.214
-365.712	236.502	0.062	-0.101
-364.698	-157.593	0.083	0.005
-363.683	-200.000	0.005	-0.132
-362.669	35.580	-0.060	-0.052
-361.654	800.000	0.040	0.131
-360.639	-44.033	0.100	-0.050
-359.625	38.326	0.127	-0.112
-358.610	-200.000	0.042	-0.197
-357.596	800.000	0.056	0.154
-356.581	141.127	0.173	0.226
-355.566	54.254	0.324	0.309
-354.552	-200.000	0.040	0.263
-353.537	182.252	-0.162	0.237
-352.523	151.720	-0.021	-0.028
-351.508	110.985	-0.069	0.082
-350.493	-164.466	0.527	0.024
-349.479	-77.096	0.104	0.036
-348.464	-146.247	0.058	0.005
-347.450	800.000	-0.035	0.119
-346.435	1.606	0.143	0.102
-345.420	-194.741	-0.134	0.001
-344.406	206.562	0.168	0.259
-343.391	719.419	0.084	0.221
-342.377	-200.000	-0.032	-0.437
-341.362	-15.673	0.297	0.188
-340.348	-139.949	0.155	0.016
-339.333	112.392	-0.051	-0.061
-338.318	168.549	-0.163	-0.230
-337.304	-200.000	0.011	0.186
-336.289	319.382	0.142	0.266
-335.275	-84.517	0.231	-0.072
-334.260	-200.000	0.023	0.348
-333.245	148.153	-0.010	0.013
-332.231	78.740	0.124	-0.132
-331.216	800.000	0.095	-0.267
-330.202	-24.057	0.136	0.081
-329.187	79.369	0.165	-0.175
-328.172	-177.053	-0.085	0.002
-327.158	153.064	0.080	-0.108
-326.143	-21.568	-0.147	-0.089
-325.129	394.301	0.071	0.146
-324.114	29.555	-0.106	0.089
-323.099	684.721	-0.049	0.127
-322.085	436.180	-0.199	0.429
-321.070	28.386	-0.119	0.099
-320.056	584.218	-0.093	0.227
-319.041	-79.127	0.039	-0.013
-318.026	46.387	-0.112	-0.103
-317.012	-60.702	-0.205	-0.086
-315.997	-165.360	-0.197	-0.009
-314.983	800.000	-0.032	-0.129
-313.968	-104.512	-0.120	-0.027
-312.953	133.026	0.066	0.085
-311.939	150.534	-0.159	0.214
-310.924	350.496	0.090	0.176
-309.910	38.125	0.141	0.125
-308.895	-145.282	0.370	0.033
-307.880	28.172	0.167	-0.140
-306.866	-119.704	0.140	0.024
-305.851	-83.834	0.015	-0.005
-304.837	-103.420	-0.348	0.081
-303.822	-21.081	0.289	0.175
-302.807	-104.099	-0.173	0.040
-301.793	-24.227	0.197	-0.116
-300.778	800.000	-0.155	0.560
-299.764	-200.000	0.012	-0.097
-298.749	141.244	0.110	0.143
-297.735	232.505	-0.141	-0.229
-296.720	-200.000	0.009	0.222
-295.705	800.000	0.111	0.415
-294.691	-200.000	-0.031	0.176
-293.676	70.731	-0.058	-0.059
-292.662	-70.757	0.035	-0.013
-291.647	614.053	-0.056	-0.138
-290.632	-108.724	0.115	-0.024
-289.618	-117.266	-0.257	-0.046
-288.603	181.740	0.215	0.313
-287.589	-128.645	0.326	-0.046
-286.574	32.880	-0.288	0.247
-285.559	-191.599	0.297	-0.003
-284.545	44.859	0.289	-0.263
-283.530	208.711	-0.187	0.289
-282.516	123.139	0.119	0.148
-281.501	800.000	-0.079	-0.255
-280.486	95.031	0.123	-0.139
-279.472	294.427	-0.079	-0.142
-278.457	219.621	0.088	-0.139
-277.443	-25.880	0.134	0.078
-276.428	-157.309	0.325	0.019
-275.413	-33.037	0.176	0.096
-274.399	-163.731	0.099	-0.005
-273.384	279.100	-0.146	0.257
-272.370	-200.000	0.030	-0.138
-271.355	-200.000	-0.057	0.394
-270.340	800.000	0.028	-0.114
-269.326	-121.636	0.216	-0.035
-268.311	379.428	0.045	0.092
-267.297	-47.143	-0.404	-0.195
-266.282	250.827	0.084	-0.141
-265.267	386.300	-0.044	-0.089
-264.253	131.454	-0.093	-0.118
-263.238	-131.718	0.245	0.032
-262.224	-62.661	-0.376	0.154
-261.209	143.885	0.132	-0.173
-260.195	-39.244	-0.324	0.168
-259.180	448.613	0.118	-0.257
-258.165	-47.956	0.262	-0.125
-257.151	800.000	-0.104	0.287
-256.136	-4.745	-0.287	0.196
-255.122	81.577	0.249	-0.266
-254.107	-47.442	0.094	0.045
-253.092	503.201	0.045	0.103
-252.078	557.383	0.109	0.259
-251.063	-200.000	0.032	-0.146
-250.049	245.243	0.127	-0.211
-249.034	-60.469	0.313	0.131
-248.019	356.471	0.080	-0.158
-247.005	-102.646	0.139	0.033
-245.990	-56.744	-0.118	-0.052
-244.976	-200.000	-0.015	0.273
-243.961	-200.000	-0.055	0.464
-242.946	-72.606	-0.312	-0.114
-241.932	2.010	-0.023	0.016
-240.917	800.000	-0.080	-0.297
-239.903	-200.000	0.047	-0.291
-238.888	-139.259	0.178	-0.019
-237.873	-86.961	-0.267	0.080
-236.859	-200.000	-0.005	0.108
-235.844	-139.403	0.118	-0.012
-234.830	475.844	0.111	-0.247
-233.815	-200.000	0.023	-0.230
-232.800	65.640	0.225	0.225
-231.786	39.532	0.216	-0.191
-230.771	800.000	-0.048	0.199
-229.757	39.494	0.033	0.029
-228.742	-104.482	0.487	-0.111
-227.727	150.448	-0.085	0.114
-226.713	227.957	-0.122	0.197
-225.698	800.000	-0.045	0.148
-224.684	-200.000	-0.023	-0.309
-223.669	343.210	-0.196	-0.379
-222.655	-20.720	-0.087	0.053
-221.640	143.070	0.262	0.343
-220.625	-200.000	0.021	-0.119
-219.611	87.862	0.194	-0.212
-218.596	-3.321	-0.130	0.089
-217.582	-200.000	-0.033	0.179
-216.567	800.000	0.062	-0.186
-215.552	-21.226	0.209	0.126
-214.538	52.593	0.116	0.110
-213.523	-189.453	-0.207	-0.002
-212.509	-14.812	-0.007	-0.004
-211.494	-59.395	-0.114	0.048
-210.479	341.847	0.147	0.284
-209.465	-200.000	-0.073	0.379
-208.450	98.853	-0.089	-0.102
-207.436	-120.730	0.208	-0.035
-206.421	-200.000	-0.012	-0.167
-205.406	191.871	0.049	-0.073
-204.392	-157.834	-0.269	-0.016
-203.377	800.000	-0.079	0.253
-202.363	-16.796	0.356	0.222
-201.348	202.266	-0.137	0.209
-200.333	800.000	-0.067	0.221
-199.319	27.029	-0.232	-0.192
-198.304	-197.463	0.103	0.001
-197.290	800.000	-0.050	0.203
-196.275	800.000	0.084	-0.249
-195.260	144.888	0.073	-0.096
-194.246	-126.922	-0.409	-0.059
-193.231	-160.852	-0.351	0.018
-192.217	-126.380	0.106	0.016
-191.202	800.000	-0.083	-0.295
-190.187	-80.392	0.155	-0.051
-189.173	800.000	-0.104	0.294
-188.158	-45.737	0.052	0.025
-187.144	-185.233	-0.156	-0.002
-186.129	-200.000	0.028	0.296
-185.114	113.848	-0.058	-0.069
-184.100	-200.000	0.028	-0.143
-183.085	-200.000	-0.063	0.296
-182.071	413.305	-0.029	0.060
-181.056	-200.000	-0.030	-0.314
-180.042	307.021	-0.160	0.293
-179.027	-155.673	0.320	-0.020
-178.012	59.770	-0.185	-0.180
-176.998	112.729	-0.321	-0.383
-175.983	-200.000	0.350	-0.001
-174.969	-200.000	0.002	0.050
-173.954	800.000	0.066	-0.185
-172.939	-151.671	0.186	-0.014
-171.925	-158.355	-0.230	-0.013
-170.910	1.794	-0.230	0.163
-169.896	800.000	-0.073	0.224
-168.881	800.000	-0.063	0.173
-167.866	21.029	0.109	0.087
-166.852	-93.498	0.280	0.076
-165.837	292.801	-0.097	0.175
-164.823	36.923	0.201	0.175
-163.808	-147.444	0.266	0.022
-162.793	800.000	0.038	-0.148
-161.779	800.000	-0.044	0.142
-160.764	605.426	0.152	0.373
-159.750	214.250	-0.076	0.118
-158.735	115.407	0.145	0.174
-157.720	-200.000	0.008	-0.557
-156.706	-17.867	0.260	-0.161
-155.691	636.199	-0.081	-0.202
-154.677	11.236	-0.353	0.266
-153.662	-200.000	0.001	0.029
-152.647	800.000	-0.026	0.081
-151.633	-200.000	-0.022	0.273
-150.618	-93.213	-0.061	-0.017
-149.604	-69.573	0.385	0.145
-148.589	721.792	0.040	0.106
-147.574	-38.798	0.122	0.063
-146.560	-200.000	-0.052	0.296
-145.545	-107.926	-0.159	-0.034
-144.531	-105.470	0.287	0.064
-143.516	800.000	0.172	0.472
-142.502	-200.000	-0.056	-0.306
-141.487	-3.517	0.052	0.036
-140.472	-61.605	0.099	-0.041
-139.458	-123.724	0.171	-0.027
-138.443	-120.033	0.228	0.038
-137.429	154.584	0.129	0.175
-136.414	-63.168	-0.397	0.161
-135.399	87.207	0.242	-0.263
-134.385	79.417	-0.222	0.234
-133.370	-4.499	-0.256	0.174
-132.356	-200.000	0.034	0.327
-131.341	-200.000	-0.021	-0.140
-130.326	-73.262	0.172	0.062
-129.312	-142.676	0.295	-0.028
-128.297	488.071	-0.187	0.420
-127.283	800.000	-0.068	-0.196
-126.268	-114.599	0.014	-0.003
-125.253	15.655	0.092	-0.071
-124.239	-146.166	-0.118	0.010
-123.224	-200.000	-0.036	0.234
-122.210	-200.000	-0.022	0.174
-121.195	-182.821	0.082	-0.001
-120.180	-6.616	-0.069	-0.046
-119.166	-93.621	-0.011	-0.003
-118.151	-136.610	0.106	-0.012
-117.137	-85.052	-0.226	-0.069
-116.122	-34.632	-0.260	0.140
-115.107	-44.473	0.028	-0.014
-114.093	800.000	-0.019	0.058
-113.078	439.428	0.077	0.164
-112.064	-104.302	0.252	-0.057
-111.049	-200.000	0.035	0.151
-110.034	347.291	-0.226	-0.437
-109.020	230.232	0.217	-0.348
-108.005	18.170	0.287	-0.225
-106.991	64.088	0.111	-0.110
-105.976	44.791	0.115	-0.104
-104.962	800.000	-0.052	0.173
-103.947	61.523	-0.137	-0.134
-102.932	80.706	-0.040	0.043
-101.918	800.000	0.057	0.211
-100.903	264.408	-0.158	0.270
-99.889	-200.000	0.012	-0.151
-98.874	144.629	0.082	0.108
-97.859	158.089	-0.164	0.223
-96.845	91.729	-0.087	-0.096
-95.830	-200.000	0.007	0.136
-94.816	116.915	-0.142	-0.171
-93.801	217.324	0.127	0.199
-92.786	6.008	0.136	0.099
-91.772	35.060	0.144	-0.124
-90.757	-169.573	-0.115	-0.004
-89.743	182.437	-0.086	-0.124
-88.728	18.193	0.058	0.046
-87.713	-200.000	-0.006	0.221
-86.699	106.952	0.207	-0.242
-85.684	-73.106	-0.312	-0.112
-84.670	-11.359	0.208	0.134
-83.655	-200.000	-0.026	-0.295
-82.640	-85.033	-0.133	0.041
-81.626	347.475	0.063	0.122
-80.611	800.000	-0.074	0.206
-79.597	800.000	-0.086	0.269
-78.582	-128.543	-0.107	-0.015
-77.567	-48.345	-0.351	0.166
-76.553	88.172	0.124	-0.135
-75.538	595.049	-0.073	-0.177
-74.524	-166.454	-0.256	-0.011
-73.509	241.803	0.147	0.241
-72.494	598.011	-0.063	0.154
-71.480	701.037	0.121	-0.312
-70.465	-114.446	-0.216	-0.041
-69.451	-200.000	-0.025	0.437
-68.436	-75.407	0.148	0.052
-67.422	492.684	0.098	-0.220
-66.407	800.000	-0.043	-0.146
-65.392	363.193	0.211	-0.415
-64.378	-68.415	0.154	-0.059
-63.363	530.467	0.104	-0.240
-62.349	382.938	0.027	0.055
-61.334	355.492	-0.724	-1.413
-60.319	95.142	0.428	0.478
-59.305	110.738	-0.492	-0.580
-58.290	123.389	0.709	0.871
-57.276	800.000	0.439	1.358
-56.261	-200.000	110.497	607.487
-55.246	430.086	1525.145	3234.806
-54.232	143.060	2704.295	3525.673
-53.217	101.957	2185.104	2499.801
-52.203	38.973	1626.262	1424.541
-51.188	30.691	1369.976	1149.106
-50.173	27.991	1331.559	1100.600
-49.159	53.488	1385.427	1302.260
-48.144	53.058	1400.565	1313.805
-47.130	31.120	1356.677	1140.389
-46.115	27.743	1338.970	1105.047
-45.100	27.469	1334.335	1099.524
-44.086	27.451	1331.824	1097.307
-43.071	27.511	1329.395	1095.620
-42.057	27.479	1327.282	1093.643
-41.042	27.489	1325.382	1092.094
-40.027	27.582	1324.172	1091.612
-39.013	27.530	1321.741	1089.254
-37.998	27.582	1319.966	1088.061
-36.984	27.595	1318.245	1086.677
-35.969	27.586	1316.547	1085.179
-34.954	27.685	1314.748	1084.238
-33.940	27.696	1313.432	1083.175
-32.925	27.653	1312.265	1081.920
-31.911	27.750	1310.514	1081.005
-30.896	27.730	1309.421	1079.942
-29.881	27.664	1308.386	1078.656
-28.867	27.691	1306.815	1077.476
-27.852	27.812	1305.046	1076.688
-26.838	27.752	1303.637	1075.129
-25.823	27.684	1302.865	1074.051
-24.809	27.642	1301.389	1072.546
-23.794	27.620	1300.236	1071.423
-22.779	27.719	1298.293	1070.358
-21.765	27.726	1296.580	1068.945
-20.750	27.628	1296.028	1067.873
-19.736	27.725	1294.414	1067.069
-18.721	27.593	1293.620	1065.600
-17.706	27.558	1292.002	1064.020
-16.692	27.588	1291.081	1063.394
-15.677	27.553	1290.028	1062.281
-14.663	27.580	1288.959	1061.517
-13.648	27.546	1287.665	1060.215
-12.633	27.617	1286.873	1059.933
-11.619	27.563	1285.674	1058.587
-10.604	27.572	1285.139	1058.155
-9.590	27.433	1284.141	1056.488
-8.575	27.518	1283.016	1056.009
-7.560	27.682	1281.610	1055.763
-6.546	27.612	1281.150	1054.936
-5.531	27.600	1279.998	1053.875
-4.517	27.588	1279.401	1053.276
-3.502	27.557	1278.655	1052.439
-2.487	27.568	1277.916	1051.853
-1.473	27.619	1273.914	1048.808
-0.458	26.448	1258.760	1029.629
0.556	21.801	1242.630	994.372
1.571	18.473	1250.415	981.482
2.586	17.722	1265.318	988.741
3.600	17.283	1253.738	977.082
4.615	12.668	1179.356	894.026
5.629	4.398	1103.183	794.049
6.644	0.617	1082.754	760.268
7.659	0.205	1081.385	757.172
8.673	0.178	1080.329	756.226
9.688	0.271	1078.793	755.553
10.702	0.460	1076.614	754.907
11.717	5.392	1083.154	784.204
12.731	13.206	1093.625	831.156
13.746	16.697	1097.557	851.664
14.761	16.940	1097.108	852.457
15.775	16.055	1095.379	846.598
16.790	15.053	1093.752	840.235
17.804	14.304	1091.932	835.010
18.819	14.091	1090.634	832.876
19.834	13.803	1089.835	830.750
20.848	13.507	1088.753	828.373
21.863	13.219	1088.410	826.599
22.877	13.225	1087.284	825.699
23.892	13.137	1086.386	824.505
24.907	13.068	1086.114	823.884
25.921	13.164	1085.122	823.534
26.936	13.199	1084.416	823.100
27.950	13.294	1083.029	822.449
28.965	13.229	1082.063	821.321
29.980	13.350	1080.377	820.568
30.994	13.317	1079.565	819.712
32.009	13.358	1078.410	818.966
33.023	13.271	1077.297	817.621
34.038	13.291	1076.062	816.709
35.053	13.334	1075.145	816.153
36.067	13.333	1074.500	815.587
37.082	13.353	1073.541	814.886
38.096	13.298	1073.091	814.198
39.111	13.284	1072.332	813.485
40.126	13.168	1070.947	811.789
41.140	13.081	1070.038	810.601
42.155	13.146	1068.738	809.866
43.169	13.047	1067.861	808.645
44.184	13.092	1066.803	807.989
45.199	13.030	1065.530	806.655
46.213	13.202	1064.268	806.463
47.228	13.155	1063.282	805.415
48.242	13.177	1062.575	804.919
49.257	13.155	1061.585	803.992
50.271	13.222	1060.287	803.262
51.286	13.322	1059.517	803.093
52.301	13.203	1058.525	801.695
53.315	13.200	1057.722	801.000
54.330	13.200	1056.545	800.037
55.344	13.063	1055.643	798.618
56.359	13.078	1055.073	798.188
57.374	13.146	1053.745	797.444
58.388	13.054	1052.942	796.321
59.403	13.035	1052.494	795.819
60.417	13.192	1050.997	795.373
61.432	13.040	1050.343	794.078
62.447	12.916	1049.920	793.089
63.461	13.014	1049.023	792.814
64.476	13.188	1047.516	792.441
65.490	13.038	1047.096	791.334
66.505	13.162	1046.227	791.202
67.520	13.054	1045.801	790.293
68.534	13.065	1044.840	789.550
69.549	13.101	1044.210	789.172
70.563	13.038	1043.801	788.493
71.578	13.034	1042.605	787.503
72.593	13.074	1041.622	786.878
73.607	13.077	1040.838	786.234
74.622	13.041	1040.249	785.546
75.636	12.996	1039.841	784.953
76.651	12.950	1038.910	783.966
77.666	12.984	1038.557	783.792
78.680	12.999	1037.436	782.948
79.695	12.923	1037.293	782.406
80.709	13.232	1035.717	782.614
81.724	12.997	1035.649	781.380
82.739	13.260	1034.636	781.790
83.753	13.095	1034.368	780.737
84.768	13.241	1033.283	780.540
85.782	13.350	1032.221	780.182
86.797	13.276	1031.033	778.867
87.812	13.180	1030.191	777.712
88.826	13.136	1029.559	776.960
89.841	13.258	1028.437	776.615
90.855	13.139	1027.868	775.559
91.870	13.313	1026.638	775.380
92.884	13.307	1025.659	774.539
93.899	13.403	1025.077	774.482
94.914	13.366	1024.045	773.462
95.928	13.352	1023.409	772.848
96.943	13.384	1022.571	772.297
97.957	13.389	1021.476	771.424
98.972	13.287	1020.874	770.424
99.987	13.245	1020.191	769.649
101.001	13.173	1019.341	768.600
102.016	13.332	1018.015	768.272
103.030	13.392	1016.799	767.563
104.045	13.262	1016.889	766.964
105.060	13.305	1015.440	766.000
106.074	13.377	1014.481	765.543
107.089	13.124	1013.593	763.633
108.103	13.292	1012.477	763.500
109.118	13.129	1011.776	762.156
110.133	13.214	1010.705	761.671
111.147	13.174	1010.119	760.978
112.162	13.127	1009.631	760.330
113.176	13.177	1008.447	759.600
114.191	13.206	1007.788	759.167
115.206	13.308	1006.947	758.935
116.220	13.243	1006.392	758.154
117.235	13.256	1005.076	757.154
118.249	13.280	1004.194	756.530
119.264	13.171	1003.442	755.402
120.279	13.295	1002.661	755.311
121.293	13.291	1001.939	754.683
122.308	13.262	1000.916	753.714
123.322	13.247	1000.000	752.889
124.337	13.193	998.823	751.692
125.352	13.215	997.839	750.981
126.366	13.191	996.988	750.168
127.381	13.310	995.644	749.629
128.395	13.218	994.878	748.571
129.410	13.313	993.931	748.219
130.424	13.358	993.131	747.753
131.439	13.314	992.790	747.232
132.454	13.358	991.321	746.262
133.468	13.462	990.161	745.789
134.483	13.324	989.857	744.873
135.497	13.167	989.162	743.576
136.512	13.244	987.978	742.966
137.527	13.329	987.070	742.600
138.541	13.257	986.572	741.836
139.556	13.387	985.986	741.913
140.570	13.337	985.262	741.081
141.585	13.372	983.699	739.996
142.600	13.385	983.357	739.731
143.614	13.481	982.764	739.649
144.629	13.485	982.008	739.032
145.643	13.476	981.004	738.172
146.658	13.348	979.820	736.643
147.673	13.399	978.776	736.023
148.687	13.376	978.324	735.514
149.702	13.439	977.243	734.916
150.716	13.373	976.338	733.876
151.731	13.437	975.810	733.698
152.746	13.347	975.505	733.007
153.760	13.372	974.375	732.202
154.775	13.432	974.110	732.206
155.789	13.470	973.426	731.792
156.804	13.495	972.652	731.257
157.819	13.500	971.601	730.422
158.833	13.485	971.601	730.294
159.848	13.633	970.030	729.700
160.862	13.649	968.804	728.781
161.877	13.590	968.234	728.031
162.892	13.535	967.060	726.841
163.906	13.580	966.319	726.416
164.921	13.426	965.571	725.115
165.935	13.615	964.550	725.112
166.950	13.638	963.640	724.467
167.964	13.616	963.017	723.838
168.979	13.494	962.111	722.559
169.994	13.557	961.207	722.092
171.008	13.651	960.648	722.016
172.023	13.560	960.154	721.186
173.037	13.539	959.660	720.658
174.052	13.648	958.429	720.143
175.067	13.654	957.814	719.644
176.081	13.584	957.354	718.933
177.096	13.690	956.348	718.573
178.110	13.603	956.051	717.907
179.125	13.590	955.734	717.553
180.140	13.581	955.246	717.083
181.154	13.760	954.499	717.232
182.169	13.724	953.683	716.400
183.183	13.751	953.340	716.196
184.198	13.836	952.133	715.590
185.213	13.780	951.368	714.711
186.227	13.969	950.883	715.096
187.242	13.873	950.176	714.090
188.256	13.868	949.507	713.501
189.271	13.757	949.121	712.671
190.286	13.860	948.035	712.235
191.300	13.709	947.644	711.233
192.315	13.690	946.765	710.427
193.329	13.726	946.507	710.326
194.344	13.848	945.875	710.310
195.359	13.748	945.095	709.235
196.373	13.801	944.113	708.659
197.388	13.972	943.658	708.986
198.402	13.992	943.295	708.739
199.417	14.083	942.749	708.653
200.432	14.162	942.166	708.486
201.446	14.085	941.863	707.869
202.461	14.099	940.948	707.176
203.475	13.957	940.632	706.272
204.490	13.976	939.679	705.576
205.504	14.089	938.808	705.341
206.519	14.017	938.065	704.415
207.534	14.157	936.749	703.955
208.548	14.018	936.652	703.230
209.563	14.116	936.036	703.121
210.577	14.097	935.480	702.563
211.592	14.255	934.654	702.546
212.607	14.151	934.071	701.605
213.621	14.132	933.274	700.867
214.636	14.166	932.591	700.432
215.650	14.345	931.586	700.372
216.665	14.317	930.868	699.650
217.680	14.393	930.023	699.274
218.694	14.237	929.796	698.384
219.709	14.239	929.249	697.923
220.723	14.273	928.409	697.371
221.738	14.322	927.362	696.730
222.753	14.323	927.231	696.571
223.767	14.383	926.380	696.122
224.782	14.440	925.923	695.957
225.796	14.374	925.644	695.408
226.811	14.473	924.609	694.984
227.826	14.455	923.938	694.342
228.840	14.535	923.147	694.017
229.855	14.386	921.873	692.382
230.869	14.423	921.522	692.210
231.884	14.335	921.112	691.476
232.899	14.486	920.139	691.310
233.913	14.411	919.382	690.370
234.928	14.493	918.681	690.120
235.942	14.267	918.722	689.154
236.957	14.480	917.654	689.175
237.972	14.400	917.325	688.534
238.986	14.502	916.302	688.128
240.001	14.362	915.969	687.238
241.015	14.507	915.148	687.157
242.030	14.525	914.660	686.807
243.045	14.531	913.967	686.248
244.059	14.540	913.640	685.982
245.074	14.499	913.161	685.390
246.088	14.567	912.168	684.866
247.103	14.543	911.452	684.167
248.117	14.705	910.749	684.243
249.132	14.693	910.108	683.654
250.147	14.859	909.238	683.618
251.161	14.905	908.676	683.324
252.176	14.847	908.148	682.629
253.190	14.820	907.374	681.877
254.205	14.962	906.672	681.867
255.220	15.002	906.213	681.622
256.234	14.900	905.354	680.500
257.249	14.930	904.813	680.158
258.263	14.808	904.331	679.238
259.278	14.914	903.327	678.857
260.293	15.148	902.358	679.016
261.307	15.139	902.308	678.882
262.322	15.000	901.464	677.624
263.336	15.095	900.739	677.401
264.351	15.274	899.891	677.429
265.366	15.121	899.547	676.494
266.380	15.036	899.330	675.925
267.395	15.205	898.325	675.792
268.409	15.063	897.488	674.529
269.424	15.083	896.761	674.003
270.439	15.074	896.307	673.567
271.453	15.009	895.513	672.649
272.468	15.002	895.237	672.354
273.482	15.229	894.469	672.628
274.497	15.134	893.663	671.583
275.512	15.195	892.690	671.036
276.526	15.158	892.796	670.908
277.541	15.263	892.158	670.790
278.555	15.313	891.318	670.300
279.570	15.278	890.998	669.861
280.585	15.206	890.194	668.909
281.599	15.361	888.901	668.496
282.614	15.396	888.425	668.219
283.628	15.382	888.217	667.949
284.643	15.429	887.019	667.172
285.657	15.306	886.854	666.502
286.672	15.311	886.339	666.074
287.687	15.301	885.678	665.481
288.701	15.415	884.694	665.132
289.716	15.381	884.525	664.811
290.730	15.397	883.676	664.181
291.745	15.523	882.977	664.093
292.760	15.452	882.562	663.441
293.774	15.497	882.089	663.205
294.789	15.611	880.904	662.706
295.803	15.513	880.272	661.784
296.818	15.531	879.758	661.412
297.833	15.580	878.900	660.900
298.847	15.693	878.372	660.888
299.862	15.636	877.791	660.171
300.876	15.565	877.262	659.434
301.891	15.589	876.727	659.069
302.906	15.683	876.251	659.020
303.920	15.660	875.992	658.679
304.935	15.814	874.965	658.451
305.949	15.725	874.566	657.742
306.964	15.865	873.621	657.523
307.979	15.845	872.911	656.852
308.993	15.766	872.668	656.303
310.008	15.868	872.047	656.173
311.022	15.829	871.152	655.291
312.037	15.913	870.784	655.281
313.052	15.832	870.145	654.427
314.066	15.706	869.406	653.325
315.081	15.670	869.381	653.109
316.095	15.732	868.465	652.604
317.110	15.686	867.939	651.970
318.125	15.761	867.691	652.019
319.139	15.791	867.078	651.616
320.154	15.867	866.361	651.315
321.168	15.722	866.086	650.490
322.183	15.821	865.464	650.349
323.197	15.884	864.816	650.046
324.212	15.860	864.344	649.539
325.227	15.901	864.034	649.410
326.241	15.923	862.921	648.598
327.256	15.854	862.642	648.066
328.270	15.922	861.725	647.581
329.285	15.948	861.309	647.311
330.300	15.871	861.055	646.768
331.314	15.829	860.336	646.011
332.329	16.027	859.725	646.253
333.343	16.059	859.171	645.902
334.358	15.935	859.196	645.388
335.373	15.888	859.012	645.013
336.387	16.111	858.120	645.137
337.402	15.971	858.211	644.617
338.416	16.113	857.636	644.670
339.431	16.147	857.517	644.654
340.446	16.145	856.477	643.805
341.460	16.208	856.280	643.840
342.475	16.200	856.225	643.712
343.489	16.296	855.482	643.462
344.504	16.357	855.019	643.288
345.519	16.304	854.441	642.595
346.533	16.274	853.794	641.940
347.548	16.347	853.243	641.744
348.562	16.338	852.655	641.213
349.577	16.195	852.205	640.276
350.592	16.287	851.423	639.979
351.606	16.389	850.619	639.706
352.621	16.253	850.253	638.859
353.635	16.219	849.821	638.348
354.650	16.404	848.879	638.284
355.665	16.430	848.084	637.728
356.679	16.293	847.825	636.959
357.694	16.361	847.363	636.810
358.708	16.479	846.145	636.283
359.723	16.536	845.616	636.043
360.738	16.450	845.313	635.435
361.752	16.446	844.505	634.759
362.767	16.728	843.518	635.016
363.781	16.478	843.724	634.177
364.796	16.612	843.120	634.172
365.810	16.531	843.008	633.727
366.825	16.669	842.245	633.616
367.840	16.573	842.270	633.218
368.854	16.534	841.791	632.657
369.869	16.656	841.265	632.658
370.883	16.857	840.160	632.522
371.898	16.822	840.372	632.496
372.913	16.724	839.695	631.566
373.927	16.711	838.909	630.871
374.942	16.871	838.770	631.306
375.956	16.916	837.784	630.673
376.971	16.908	837.620	630.466
377.986	16.873	837.264	630.011
379.000	16.894	836.759	629.654
380.015	16.963	836.192	629.429
381.029	16.817	835.898	628.611
382.044	16.967	835.345	628.693
383.059	16.933	834.700	628.028
384.073	16.901	833.995	627.322
385.088	16.830	833.515	626.644
386.102	17.004	832.658	626.587
387.117	17.036	832.035	626.180
388.132	16.932	831.695	625.484
389.146	16.979	831.095	625.152
390.161	16.935	831.005	624.868
391.175	16.903	830.613	624.398
392.190	17.096	829.319	624.079
393.205	17.039	828.981	623.562
394.219	17.026	828.602	623.174
395.234	17.057	828.581	623.215
396.248	16.900	828.448	622.484
397.263	16.927	827.861	622.089
398.278	17.040	827.229	621.970
399.292	17.111	826.712	621.788
400.307	16.965	826.415	620.977
401.321	16.904	826.012	620.395
402.336	17.031	825.413	620.354
403.350	17.151	824.716	620.214
404.365	17.219	824.244	620.054
405.380	17.078	823.809	619.156
406.394	17.152	823.220	618.929
407.409	17.286	823.014	619.207
408.423	17.410	822.855	619.483
409.438	17.441	822.226	619.068
410.453	17.328	821.806	618.286
411.467	17.384	821.214	617.989
412.482	17.331	820.794	617.427
413.496	17.458	820.636	617.714
414.511	17.358	820.235	616.994
415.526	17.303	819.989	616.554
416.540	17.454	819.088	616.369
417.555	17.482	818.614	616.061
418.569	17.366	818.555	615.541
419.584	17.443	817.914	615.284
420.599	17.547	817.343	615.175
421.613	110.863	1297.045	1477.945
422.628	95.921	1366.912	1478.035
