DTS Sentinel unit serial number:	SN413079Multiplexer serial number:	ORYXHardware model number:	OX4-SRSoftware version number:	ORYX F/W v4.00 Oryx Data Collector v3.7.2.0data status	okinstallation	princeton_trtdifferential loss correction	single-endedforward channel	channel 1reverse channel	N/Adate	2019/09/17time	23:54:35forward acquisition time	60.00reverse acquisition time	0.00gamma	496.2192k internal	0.2340k external	0.2340temperature offset calibration	0.9980default loss term (dB/km)	0.3790temperature slope calibration	1.0000multiplexer offset coefficient	1.0000multiplexer slope coefficient	1.0000fibre end	0.00T internal ref (°C)	23.94T ext. ref 1 (°C)	0.17T ext. ref 2 (°C)	17.24length (m)	temperature (°C)	Stokes	anti-Stokes-747.200	40.162	0.238	-0.215
-746.185	-148.241	0.147	0.012
-745.171	99.653	0.316	0.367
-744.156	-63.689	-0.110	-0.045
-743.142	3.865	0.397	-0.291
-742.127	-200.000	-0.036	0.384
-741.112	382.517	-0.141	0.291
-740.098	-200.000	-0.007	0.190
-739.083	-200.000	-0.001	0.024
-738.069	-133.560	-0.306	0.038
-737.054	128.219	-0.119	0.151
-736.039	605.035	0.081	-0.203
-735.025	-80.533	-0.112	-0.037
-734.010	180.810	-0.171	0.251
-732.996	6.605	-0.182	0.135
-731.981	114.372	0.144	0.175
-730.966	9.332	-0.420	0.318
-729.952	-17.322	0.117	-0.074
-728.937	800.000	-0.050	-0.140
-727.923	-124.523	0.128	-0.020
-726.908	60.522	-0.164	0.163
-725.894	-121.269	-0.056	0.009
-724.879	130.842	-0.157	0.202
-723.864	800.000	0.054	-0.203
-722.850	800.000	-0.099	-0.310
-721.835	-200.000	-0.004	-0.021
-720.821	421.410	0.086	-0.184
-719.806	800.000	-0.022	-0.075
-718.791	-6.163	-0.104	0.071
-717.777	-200.000	-0.003	0.143
-716.762	-56.207	-0.058	0.026
-715.748	-82.062	-0.274	-0.089
-714.733	-200.000	-0.033	0.279
-713.718	57.636	-0.036	-0.035
-712.704	-200.000	-0.062	-0.418
-711.689	704.561	-0.139	-0.368
-710.675	390.612	-0.157	0.326
-709.660	140.323	0.237	-0.313
-708.645	15.287	0.144	-0.113
-707.631	800.000	-0.049	0.193
-706.616	96.480	-0.032	0.037
-705.602	-76.416	-0.038	0.013
-704.587	85.466	0.136	-0.149
-703.572	-1.019	-0.178	0.126
-702.558	-200.000	0.019	0.319
-701.543	-91.493	0.390	0.111
-700.529	-200.000	-0.051	0.268
-699.514	-178.028	-0.171	-0.004
-698.499	800.000	-0.078	-0.222
-697.485	-60.384	-0.310	0.132
-696.470	-70.533	0.289	-0.109
-695.456	29.763	-0.249	-0.212
-694.441	509.786	0.009	0.020
-693.426	-49.761	-0.061	0.029
-692.412	-131.684	0.427	0.056
-691.397	393.654	-0.162	-0.338
-690.383	202.557	-0.148	0.229
-689.368	-87.597	0.232	-0.070
-688.354	3.948	0.276	-0.202
-687.339	9.271	-0.125	0.095
-686.324	-103.765	-0.376	0.088
-685.310	-95.627	0.523	0.140
-684.295	-200.000	-0.040	0.185
-683.281	-86.884	0.211	-0.064
-682.266	-173.833	0.126	-0.004
-681.251	-200.000	0.056	0.325
-680.237	-50.433	0.115	-0.054
-679.222	-86.475	0.127	0.039
-678.208	-160.280	-0.204	-0.011
-677.193	-85.776	-0.231	0.072
-676.178	800.000	0.044	-0.163
-675.164	8.727	0.309	-0.233
-674.149	800.000	-0.070	-0.196
-673.135	722.949	0.050	-0.132
-672.120	-200.000	-0.034	-0.206
-671.105	311.787	-0.111	0.208
-670.091	76.397	-0.182	0.192
-669.076	800.000	-0.107	-0.333
-668.062	-193.995	0.429	0.004
-667.047	-73.417	0.102	0.037
-666.032	55.819	0.174	0.168
-665.018	800.000	-0.035	0.108
-664.003	321.215	-0.186	-0.354
-662.989	659.923	0.062	-0.158
-661.974	-97.407	0.266	-0.069
-660.959	-30.133	0.226	0.129
-659.945	313.889	0.117	-0.220
-658.930	193.634	-0.063	-0.095
-657.916	212.291	-0.022	-0.034
-656.901	155.109	0.117	-0.160
-655.886	40.405	-0.122	0.110
-654.872	-123.287	-0.330	-0.053
-653.857	-200.000	-0.052	0.324
-652.843	-200.000	0.042	0.249
-651.828	-85.519	-0.092	0.029
-650.814	-9.734	-0.282	-0.187
-649.799	800.000	-0.058	-0.229
-648.784	-82.485	-0.181	-0.059
-647.770	-42.379	-0.243	-0.124
-646.755	-33.044	0.123	0.068
-645.741	-118.640	0.110	-0.019
-644.726	20.211	0.185	0.149
-643.711	420.766	-0.189	0.405
-642.697	-200.000	-0.055	-0.258
-641.682	-116.405	0.044	-0.008
-640.668	101.677	0.191	0.222
-639.653	-9.975	0.083	0.055
-638.638	4.594	-0.222	0.163
-637.624	-7.563	-0.066	0.045
-636.609	-200.000	-0.012	0.254
-635.595	271.556	0.175	0.308
-634.580	222.993	0.031	0.050
-633.565	87.901	-0.048	-0.053
-632.551	-200.000	-0.022	0.185
-631.536	9.478	-0.144	0.109
-630.522	-93.766	-0.560	-0.154
-629.507	-41.236	0.115	0.059
-628.492	-71.350	0.094	0.035
-627.478	271.082	-0.175	-0.307
-626.463	-181.813	0.269	0.005
-625.449	773.289	-0.110	-0.298
-624.434	-200.000	0.028	-0.126
-623.419	519.785	-0.075	-0.176
-622.405	800.000	0.106	-0.317
-621.390	44.193	0.170	0.156
-620.376	-200.000	0.005	-0.042
-619.361	96.101	0.115	0.131
-618.346	412.649	-0.024	-0.051
-617.332	-200.000	0.019	0.206
-616.317	20.056	-0.308	-0.248
-615.303	-27.880	0.315	0.182
-614.288	-24.332	-0.147	-0.088
-613.273	275.308	0.068	0.121
-612.259	-21.278	0.173	-0.105
-611.244	-114.949	0.102	-0.019
-610.230	285.541	0.036	-0.064
-609.215	800.000	0.044	0.184
-608.201	-65.337	-0.032	0.013
-607.186	-200.000	0.046	0.347
-606.171	800.000	0.037	-0.112
-605.157	-113.915	-0.463	-0.090
-604.142	-26.783	-0.262	-0.153
-603.128	-141.690	0.210	0.021
-602.113	312.326	-0.065	0.122
-601.098	-111.762	-0.477	0.096
-600.084	94.733	0.134	-0.152
-599.069	-200.000	0.006	0.161
-598.055	263.247	-0.113	-0.196
-597.040	800.000	0.017	-0.072
-596.025	-166.442	0.095	0.004
-595.011	-200.000	0.008	-0.058
-593.996	79.248	0.076	-0.081
-592.982	-106.050	-0.167	-0.037
-591.967	-200.000	-0.017	-0.136
-590.952	332.519	0.131	0.252
-589.938	636.624	-0.034	0.085
-588.923	74.858	-0.134	-0.141
-587.909	-160.415	-0.134	-0.007
-586.894	-196.783	-0.182	-0.001
-585.879	-200.000	0.015	0.332
-584.865	-37.983	-0.227	0.120
-583.850	-78.375	-0.188	-0.064
-582.836	119.769	0.094	-0.116
-581.821	119.615	-0.234	0.288
-580.806	-200.000	-0.010	0.248
-579.792	-73.626	-0.089	0.032
-578.777	-28.000	-0.137	0.079
-577.763	619.927	0.036	0.090
-576.748	197.866	0.199	-0.303
-575.733	-200.000	0.043	-0.436
-574.719	313.301	0.093	0.173
-573.704	-50.490	-0.012	-0.006
-572.690	-43.313	-0.106	0.053
-571.675	-46.055	0.158	-0.078
-570.661	-182.068	0.379	0.007
-569.646	-59.417	0.221	0.095
-568.631	-200.000	0.107	0.471
-567.617	-131.231	-0.304	0.040
-566.602	-200.000	-0.049	-0.449
-565.588	-200.000	-0.032	-0.381
-564.573	-4.586	-0.137	0.094
-563.558	-67.542	0.350	-0.137
-562.544	107.587	-0.188	-0.222
-561.529	800.000	-0.006	-0.023
-560.515	-52.093	-0.187	-0.086
-559.500	419.064	-0.153	-0.326
-558.485	-200.000	-0.023	-0.229
-557.471	209.456	-0.126	0.196
-556.456	-200.000	0.046	-0.308
-555.442	-136.401	-0.203	0.024
-554.427	-107.669	0.096	-0.021
-553.412	24.150	-0.080	-0.066
-552.398	132.103	-0.222	-0.285
-551.383	-110.989	0.194	0.040
-550.369	-79.075	0.177	-0.060
-549.354	784.565	-0.089	0.243
-548.339	-52.758	-0.185	-0.085
-547.325	316.742	-0.016	0.031
-546.310	-133.444	-0.040	0.005
-545.296	45.593	-0.320	-0.294
-544.281	-58.113	-0.072	-0.031
-543.266	151.681	0.214	0.291
-542.252	-200.000	-0.062	0.310
-541.237	-85.642	-0.216	-0.067
-540.223	-26.598	-0.198	-0.115
-539.208	-200.000	0.064	-0.314
-538.193	-45.323	-0.420	0.207
-537.179	-20.155	-0.143	0.087
-536.164	73.626	0.423	-0.441
-535.150	30.684	-0.126	0.107
-534.135	-200.000	0.018	-0.122
-533.121	15.938	-0.176	-0.138
-532.106	8.990	0.227	-0.171
-531.091	-43.852	-0.295	-0.148
-530.077	319.087	0.059	-0.110
-529.062	-83.416	-0.273	-0.087
-528.048	465.804	-0.062	-0.137
-527.033	127.659	-0.140	0.176
-526.018	-200.000	-0.031	-0.215
-525.004	186.692	0.117	0.174
-523.989	-84.053	-0.368	0.116
-522.975	42.140	-0.018	-0.017
-521.960	71.862	-0.232	0.240
-520.945	283.194	0.016	0.029
-519.931	800.000	-0.026	-0.091
-518.916	-200.000	0.353	0.001
-517.902	-0.892	-0.360	0.253
-516.887	164.250	0.082	-0.115
-515.872	378.230	-0.113	0.230
-514.858	19.827	-0.257	0.206
-513.843	-200.000	-0.016	-0.159
-512.829	-42.748	0.276	-0.139
-511.814	-43.996	-0.058	-0.029
-510.799	50.459	0.124	0.117
-509.785	-15.567	-0.217	-0.137
-508.770	-154.907	0.249	0.016
-507.756	-126.483	-0.218	-0.032
-506.741	37.157	-0.148	0.130
-505.726	-43.341	0.227	-0.114
-504.712	-200.000	0.010	-0.104
-503.697	-184.038	-0.152	-0.003
-502.683	800.000	0.045	-0.184
-501.668	800.000	0.073	-0.207
-500.653	-164.885	0.369	0.016
-499.639	4.863	-0.196	-0.143
-498.624	-200.000	0.004	0.156
-497.610	-17.956	-0.204	-0.127
-496.595	-13.260	-0.152	0.098
-495.581	-155.717	0.227	-0.014
-494.566	-102.726	0.241	-0.057
-493.551	-200.000	-0.002	-0.233
-492.537	-63.241	-0.232	-0.095
-491.522	393.404	-0.092	-0.189
-490.508	42.492	-0.108	0.098
-489.493	219.384	-0.136	-0.216
-488.478	-146.485	-0.140	-0.012
-487.464	119.591	-0.083	-0.101
-486.449	233.063	0.102	-0.167
-485.435	-47.293	-0.123	0.059
-484.420	-200.000	-0.022	0.363
-483.405	-116.151	0.213	0.039
-482.391	-28.566	0.047	0.027
-481.376	-97.902	-0.260	0.067
-480.362	-26.862	0.091	0.053
-479.347	-90.412	0.464	-0.133
-478.332	-173.925	-0.181	0.005
-477.318	143.059	0.104	-0.137
-476.303	487.418	0.196	0.444
-475.289	800.000	0.051	0.185
-474.274	-200.000	0.030	0.183
-473.259	-176.500	0.261	-0.007
-472.245	110.823	0.292	0.349
-471.230	-92.238	-0.329	0.092
-470.216	314.954	0.123	-0.230
-469.201	350.587	-0.093	0.183
-468.186	-200.000	-0.013	0.161
-467.172	-37.817	-0.386	0.204
-466.157	407.741	0.063	0.131
-465.143	-200.000	-0.019	-0.189
-464.128	-40.706	0.065	-0.034
-463.113	-46.970	-0.078	-0.038
-462.099	12.884	-0.059	0.045
-461.084	-42.354	-0.104	-0.053
-460.070	-200.000	-0.052	0.232
-459.055	-122.272	0.101	-0.016
-458.040	-200.000	-0.002	-0.022
-457.026	-101.138	-0.262	0.064
-456.011	800.000	-0.059	0.192
-454.997	800.000	0.013	-0.040
-453.982	94.032	0.284	-0.320
-452.968	800.000	0.082	-0.291
-451.953	-14.333	0.205	0.131
-450.938	-89.477	-0.109	-0.032
-449.924	-123.390	0.188	0.030
-448.909	-110.837	0.175	0.036
-447.895	-200.000	0.040	-0.280
-446.880	12.584	-0.176	-0.134
-445.865	-102.179	0.118	-0.028
-444.851	-184.346	-0.045	0.001
-443.836	75.363	-0.157	-0.164
-442.822	196.401	-0.144	-0.218
-441.807	3.953	0.212	-0.153
-440.792	-55.703	0.311	-0.138
-439.778	-135.811	0.145	0.017
-438.763	788.961	-0.029	-0.079
-437.749	588.315	0.104	-0.255
-436.734	123.668	0.202	-0.251
-435.719	-30.347	-0.272	0.153
-434.705	60.823	0.160	-0.157
-433.690	215.931	0.068	-0.107
-432.676	-200.000	-0.012	0.128
-431.661	-14.408	-0.138	0.088
-430.646	90.340	-0.166	0.183
-429.632	800.000	-0.052	0.152
-428.617	61.347	0.088	0.086
-427.603	24.910	-0.047	-0.038
-426.588	-169.213	-0.223	-0.008
-425.573	203.344	0.131	0.200
-424.559	-94.252	-0.053	-0.014
-423.544	-28.699	0.105	0.060
-422.530	371.640	-0.107	0.214
-421.515	87.417	-0.056	0.062
-420.500	227.345	-0.223	0.359
-419.486	10.480	0.240	-0.181
-418.471	-140.268	0.112	-0.012
-417.457	402.549	-0.191	0.397
-416.442	-42.255	0.567	0.287
-415.428	-89.557	-0.423	-0.123
-414.413	-25.964	-0.119	0.069
-413.398	136.521	0.166	0.215
-412.384	80.029	0.246	-0.262
-411.369	-97.041	0.053	-0.014
-410.355	-47.589	0.161	0.077
-409.340	-108.799	-0.135	-0.029
-408.325	-76.130	0.300	0.105
-407.311	-20.565	-0.259	-0.157
-406.296	373.094	0.032	-0.064
-405.282	369.988	-0.104	0.209
-404.267	348.891	-0.060	0.117
-403.252	530.148	0.105	-0.244
-402.238	-200.000	0.089	-0.415
-401.223	-200.000	-0.004	-0.033
-400.209	-200.000	-0.030	0.165
-399.194	-127.924	-0.159	0.023
-398.179	-68.307	-0.192	-0.074
-397.165	-19.223	0.106	0.065
-396.150	-91.081	0.486	0.138
-395.136	-200.000	0.015	0.072
-394.121	-200.000	0.008	-0.090
-393.106	-200.000	-0.010	-0.083
-392.092	800.000	-0.047	0.141
-391.077	-76.134	0.156	0.054
-390.063	144.471	0.197	-0.260
-389.048	23.832	0.062	-0.050
-388.033	-200.000	0.033	0.278
-387.019	-113.706	-0.145	0.028
-386.004	69.805	0.098	0.100
-384.990	-118.090	-0.134	0.024
-383.975	-47.521	0.065	-0.031
-382.960	19.731	-0.323	0.257
-381.946	-3.116	-0.239	-0.165
-380.931	81.668	-0.158	-0.169
-379.917	-81.430	-0.035	-0.011
-378.902	800.000	-0.052	-0.159
-377.888	10.035	0.066	-0.050
-376.873	-175.819	-0.328	-0.009
-375.858	32.803	-0.082	0.070
-374.844	7.344	0.168	0.124
-373.829	9.448	-0.109	0.081
-372.815	-115.732	-0.127	-0.024
-371.800	-32.381	-0.533	-0.294
-370.785	-200.000	0.005	-0.165
-369.771	800.000	0.041	-0.143
-368.756	800.000	0.009	0.029
-367.742	74.634	-0.092	0.096
-366.727	-116.215	-0.298	-0.055
-365.712	-141.337	0.154	0.015
-364.698	324.964	-0.035	0.066
-363.683	-89.618	-0.401	0.116
-362.669	486.804	0.153	-0.344
-361.654	270.512	0.170	0.295
-360.639	-18.242	0.152	-0.094
-359.625	70.581	0.039	0.040
-358.610	-200.000	-0.070	0.319
-357.596	-119.804	0.121	-0.021
-356.581	-86.082	0.131	-0.040
-355.566	-103.139	-0.154	0.036
-354.552	-200.000	0.069	0.329
-353.537	60.057	0.100	0.097
-352.523	73.161	0.045	-0.047
-351.508	-85.991	0.228	0.069
-350.493	358.554	-0.049	0.097
-349.479	-165.900	-0.526	0.022
-348.464	96.528	-0.108	-0.123
-347.450	487.086	-0.084	0.189
-346.435	36.178	0.087	-0.075
-345.420	-165.465	0.151	0.007
-344.406	-200.000	0.021	0.222
-343.391	82.165	0.148	0.158
-342.377	-118.568	0.236	-0.041
-341.362	-200.000	0.027	-0.363
-340.348	800.000	0.062	-0.259
-339.333	-41.376	-0.049	-0.025
-338.318	-15.646	-0.118	0.074
-337.304	-129.067	0.167	0.023
-336.289	81.057	-0.016	-0.017
-335.275	-141.843	-0.251	-0.025
-334.260	-15.526	-0.065	0.041
-333.245	291.555	-0.115	-0.207
-332.231	-144.596	-0.392	-0.036
-331.216	299.551	0.087	0.157
-330.202	-81.160	-0.178	0.058
-329.187	-54.769	0.214	0.095
-328.172	-126.104	0.188	0.028
-327.158	209.200	0.080	-0.124
-326.143	571.170	0.022	-0.052
-325.129	542.102	-0.037	0.086
-324.114	-142.667	0.135	0.013
-323.099	122.273	-0.199	0.246
-322.085	178.233	0.039	-0.056
-321.070	-84.866	0.247	-0.077
-320.056	-179.168	-0.180	0.004
-319.041	30.882	0.094	-0.079
-318.026	800.000	0.051	-0.141
-317.012	-200.000	0.028	-0.282
-315.997	-200.000	0.021	0.180
-314.983	-116.675	0.220	-0.040
-313.968	-200.000	0.009	-0.088
-312.953	-83.006	-0.161	0.051
-311.939	-80.823	0.272	0.089
-310.924	458.500	0.143	0.313
-309.910	-200.000	-0.043	0.369
-308.895	277.419	-0.163	0.287
-307.880	-200.000	-0.055	-0.435
-306.866	-94.423	-0.255	-0.069
-305.851	25.803	-0.235	-0.193
-304.837	-57.711	0.109	0.047
-303.822	23.183	-0.083	0.067
-302.807	-19.958	0.251	-0.153
-301.793	185.892	0.081	-0.119
-300.778	800.000	0.069	-0.212
-299.764	132.750	0.110	-0.140
-298.749	183.792	0.153	0.222
-297.735	-200.000	0.018	-0.083
-296.720	-96.200	0.059	-0.015
-295.705	-200.000	0.005	0.094
-294.691	208.604	-0.029	-0.045
-293.676	-26.389	-0.150	-0.087
-292.662	-112.357	0.125	-0.025
-291.647	-135.247	-0.150	-0.018
-290.632	800.000	0.061	-0.220
-289.618	305.734	-0.144	-0.263
-288.603	-57.446	-0.208	0.090
-287.589	-200.000	-0.001	-0.037
-286.574	-31.772	-0.336	0.185
-285.559	-84.807	0.165	0.051
-284.545	209.647	-0.051	-0.079
-283.530	93.543	0.167	0.186
-282.516	-200.000	0.007	-0.051
-281.501	-16.844	0.288	0.179
-280.486	136.012	0.099	0.127
-279.472	140.671	0.208	-0.271
-278.457	15.950	0.102	0.079
-277.443	-47.761	-0.272	-0.130
-276.428	-200.000	-0.014	-0.114
-275.413	36.316	-0.054	0.047
-274.399	800.000	-0.037	-0.112
-273.384	165.142	0.094	-0.131
-272.370	5.803	-0.054	0.040
-271.355	84.373	-0.273	0.294
-270.340	800.000	0.054	0.163
-269.326	101.731	-0.161	-0.185
-268.311	-5.453	0.397	0.268
-267.297	-70.716	-0.249	0.093
-266.282	-200.000	0.016	0.077
-265.267	-32.466	-0.263	0.144
-264.253	800.000	0.103	0.441
-263.238	59.013	0.169	0.164
-262.224	-54.858	-0.155	0.069
-261.209	339.063	-0.092	-0.176
-260.195	151.139	0.295	0.394
-259.180	387.323	-0.064	-0.131
-258.165	47.584	-0.055	-0.050
-257.151	108.444	0.197	-0.231
-256.136	-200.000	0.036	0.195
-255.122	-200.000	0.047	-0.225
-254.107	94.784	0.174	-0.194
-253.092	-129.745	0.242	-0.033
-252.078	21.824	-0.306	-0.245
-251.063	-82.922	0.186	-0.059
-250.049	-41.193	0.100	-0.051
-249.034	170.435	0.079	-0.112
-248.019	-68.242	0.194	0.074
-247.005	-200.000	0.003	0.046
-245.990	-179.266	-0.313	-0.007
-244.976	430.645	-0.014	-0.030
-243.961	-10.687	-0.100	-0.065
-242.946	-58.230	-0.224	0.096
-241.932	409.122	-0.173	-0.360
-240.917	285.061	-0.161	-0.286
-239.903	-200.000	-0.030	-0.313
-238.888	-111.653	0.230	-0.046
-237.873	41.290	0.347	0.309
-236.859	-40.430	-0.210	0.107
-235.844	753.273	-0.015	-0.039
-234.830	-200.000	0.002	-0.333
-233.815	800.000	-0.065	0.223
-232.800	-92.856	0.098	0.027
-231.786	140.421	0.103	-0.134
-230.771	1.233	0.217	0.153
-229.757	-200.000	-0.013	0.073
-228.742	-200.000	-0.022	0.452
-227.727	518.747	0.164	0.377
-226.713	-121.046	0.130	0.021
-225.698	179.643	0.098	-0.141
-224.684	-34.916	0.187	-0.100
-223.669	22.874	0.201	0.162
-222.655	-16.519	0.082	0.051
-221.640	-66.470	-0.356	-0.139
-220.625	56.106	0.223	0.212
-219.611	133.735	0.038	0.048
-218.596	-142.220	-0.107	-0.010
-217.582	-79.277	0.225	0.075
-216.567	-34.960	0.296	0.159
-215.552	383.453	-0.112	0.226
-214.538	-59.557	-0.464	0.196
-213.523	124.214	0.342	0.422
-212.509	-65.722	0.192	-0.075
-211.494	390.131	0.184	-0.375
-210.479	-59.758	-0.230	-0.097
-209.465	-102.863	0.430	0.100
-208.450	-200.000	-0.069	0.478
-207.436	-86.582	0.406	0.122
-206.421	156.853	-0.050	-0.067
-205.406	-200.000	-0.059	-0.413
-204.392	-59.172	0.327	-0.138
-203.377	-82.493	0.145	-0.046
-202.363	-200.000	-0.037	0.203
-201.348	201.764	0.124	0.188
-200.333	-49.378	-0.209	-0.098
-199.319	-125.261	0.169	0.025
-198.304	251.888	0.074	0.123
-197.290	96.603	-0.097	-0.109
-196.275	642.636	0.217	-0.542
-195.260	-129.398	-0.091	-0.012
-194.246	-71.644	-0.056	0.021
-193.231	300.333	0.120	-0.218
-192.217	212.559	-0.006	0.009
-191.202	-200.000	0.027	-0.181
-190.187	-49.211	0.396	-0.186
-189.173	-200.000	0.028	-0.150
-188.158	-200.000	0.022	0.161
-187.144	-200.000	0.032	0.176
-186.129	-21.589	0.298	0.178
-185.114	-23.479	-0.121	0.071
-184.100	-189.070	-0.143	-0.002
-183.085	93.738	0.144	0.160
-182.071	670.869	0.004	-0.010
-181.056	-43.156	-0.155	0.077
-180.042	19.200	-0.191	0.150
-179.027	800.000	-0.066	-0.196
-178.012	800.000	0.048	0.155
-176.998	-92.413	0.296	-0.082
-175.983	-165.900	-0.384	0.016
-174.969	370.858	-0.042	0.084
-173.954	-101.458	0.098	0.023
-172.939	800.000	0.081	-0.300
-171.925	-200.000	-0.014	-0.077
-170.910	564.066	-0.106	0.252
-169.896	-166.942	0.102	0.004
-168.881	161.600	0.316	-0.433
-167.866	102.782	0.109	0.125
-166.852	152.727	0.223	0.298
-165.837	-200.000	-0.002	-0.089
-164.823	800.000	-0.132	-0.364
-163.808	-24.308	-0.025	0.015
-162.793	-81.389	-0.315	0.102
-161.779	-2.559	0.362	0.248
-160.764	-20.528	0.197	-0.118
-159.750	-200.000	0.024	-0.154
-158.735	800.000	0.115	0.322
-157.720	161.231	0.127	0.173
-156.706	-148.085	-0.419	-0.034
-155.691	138.425	0.132	0.169
-154.677	-68.181	0.187	0.071
-153.662	61.389	0.177	-0.172
-152.647	-123.561	-0.248	0.039
-151.633	11.631	0.151	-0.114
-150.618	-200.000	-0.006	0.189
-149.604	47.937	-0.138	0.126
-148.589	314.684	0.034	-0.063
-147.574	790.667	0.032	0.085
-146.560	-151.748	0.218	0.016
-145.545	40.177	0.277	-0.244
-144.531	119.207	-0.133	0.161
-143.516	527.249	0.036	0.084
-142.502	-57.957	0.120	-0.051
-141.487	213.052	-0.036	-0.055
-140.472	800.000	0.128	0.393
-139.458	-200.000	-0.065	0.313
-138.443	-62.328	-0.288	0.117
-137.429	-82.730	-0.133	0.042
-136.414	490.661	-0.104	0.234
-135.399	800.000	0.083	0.245
-134.385	-131.123	0.417	0.054
-133.370	800.000	-0.064	-0.237
-132.356	-82.341	-0.104	-0.033
-131.341	-49.207	0.179	-0.084
-130.326	-200.000	0.014	0.226
-129.312	56.934	0.089	0.085
-128.297	800.000	-0.060	0.205
-127.283	-124.860	-0.214	-0.032
-126.268	-122.896	0.187	0.030
-125.253	353.885	-0.090	-0.176
-124.239	-79.378	-0.260	-0.086
-123.224	-200.000	-0.056	0.353
-122.210	-9.109	0.228	0.149
-121.195	800.000	-0.069	-0.219
-120.180	252.308	0.175	-0.291
-119.166	145.951	0.097	-0.127
-118.151	-144.689	-0.175	-0.016
-117.137	-127.236	-0.029	0.004
-116.122	27.645	-0.244	0.201
-115.107	-22.543	0.229	0.136
-114.093	54.062	-0.087	-0.081
-113.078	-124.323	-0.077	-0.012
-112.064	-1.973	-0.268	-0.184
-111.049	-200.000	-0.018	-0.162
-110.034	800.000	-0.036	-0.107
-109.020	0.514	0.207	-0.145
-108.005	386.477	0.112	-0.225
-106.991	0.425	0.173	0.121
-105.976	-200.000	-0.017	0.101
-104.962	800.000	0.063	0.210
-103.947	29.295	-0.073	0.061
-102.932	800.000	0.037	0.143
-101.918	312.733	-0.091	0.167
-100.903	-70.089	0.288	0.107
-99.889	81.574	-0.174	0.184
-98.874	800.000	-0.119	0.340
-97.859	238.588	-0.083	0.135
-96.845	-29.135	-0.180	0.101
-95.830	33.054	-0.175	-0.148
-94.816	-94.243	0.045	-0.012
-93.801	-159.628	0.151	-0.008
-92.786	-200.000	0.016	0.184
-91.772	-106.276	-0.176	0.039
-90.757	-160.557	0.195	0.010
-89.743	57.243	0.330	-0.314
-88.728	-200.000	0.006	0.160
-87.713	800.000	-0.032	0.100
-86.699	-67.736	0.143	-0.055
-85.684	17.989	-0.285	-0.222
-84.670	389.752	0.099	0.201
-83.655	-200.000	0.104	0.529
-82.640	43.405	-0.036	-0.032
-81.626	-113.762	-0.128	0.024
-80.611	800.000	-0.045	0.141
-79.597	-30.317	0.410	0.228
-78.582	208.149	0.070	0.107
-77.567	800.000	-0.056	-0.193
-76.553	131.719	0.142	-0.178
-75.538	800.000	-0.057	-0.187
-74.524	-19.003	-0.177	-0.108
-73.509	23.437	0.015	0.012
-72.494	62.196	-0.271	-0.264
-71.480	-200.000	-0.028	-0.125
-70.465	89.623	-0.138	-0.150
-69.451	800.000	-0.107	0.392
-68.436	-76.955	0.042	-0.014
-67.422	680.274	0.089	0.227
-66.407	188.793	-0.063	0.092
-65.392	-134.196	0.185	-0.022
-64.378	-22.958	0.238	-0.140
-63.363	-11.234	0.086	0.055
-62.349	159.931	0.147	-0.200
-61.334	68.999	-1.268	-1.272
-60.319	220.353	0.538	0.841
-59.305	224.850	-0.704	-1.111
-58.290	515.533	0.743	1.694
-57.276	336.236	0.876	1.660
-56.261	-200.000	122.810	654.757
-55.246	442.122	1535.153	3279.836
-54.232	148.758	2679.964	3534.401
-53.217	98.290	2132.873	2397.364
-52.203	35.353	1577.720	1350.264
-51.188	27.223	1324.045	1084.844
-50.173	24.647	1286.747	1039.280
-49.159	52.096	1355.647	1260.210
-48.144	49.319	1367.327	1254.426
-47.130	27.351	1315.466	1078.399
-46.115	24.093	1296.551	1043.790
-45.100	23.957	1291.313	1038.736
-44.086	23.798	1289.515	1036.322
-43.071	23.805	1286.998	1034.296
-42.057	23.777	1284.931	1032.435
-41.042	23.898	1282.973	1031.520
-40.027	23.774	1281.668	1029.712
-39.013	23.851	1280.034	1028.805
-37.998	23.882	1278.275	1027.529
-36.984	23.909	1276.582	1026.284
-35.969	23.887	1274.747	1024.640
-34.954	23.928	1272.977	1023.416
-33.940	23.892	1272.090	1022.450
-32.925	23.959	1270.873	1021.820
-31.911	23.956	1269.358	1020.541
-30.896	23.978	1267.822	1019.392
-29.881	24.118	1266.463	1019.059
-28.867	24.103	1265.094	1017.834
-27.852	24.080	1263.946	1016.736
-26.838	24.067	1262.954	1015.823
-25.823	24.013	1261.368	1014.201
-24.809	24.072	1259.838	1013.266
-23.794	24.099	1258.393	1012.219
-22.779	24.058	1257.034	1010.851
-21.765	24.038	1255.951	1009.829
-20.750	23.892	1255.037	1008.223
-19.736	23.977	1253.982	1007.819
-18.721	23.864	1252.794	1006.185
-17.706	23.917	1251.689	1005.559
-16.692	23.817	1250.334	1003.864
-15.677	23.939	1249.184	1003.587
-14.663	23.868	1248.316	1002.452
-13.648	23.886	1246.617	1001.148
-12.633	23.873	1245.940	1000.492
-11.619	23.929	1245.354	1000.298
-10.604	23.949	1244.529	999.707
-9.590	23.887	1243.993	998.888
-8.575	23.830	1242.826	997.590
-7.560	23.916	1241.806	997.215
-6.546	23.873	1240.949	996.245
-5.531	23.783	1240.412	995.271
-4.517	23.942	1239.281	995.216
-3.502	23.936	1238.444	994.470
-2.487	23.866	1237.443	993.238
-1.473	23.874	1233.134	989.782
-0.458	22.182	1218.507	968.685
0.556	17.020	1203.025	931.497
1.571	13.319	1210.257	916.542
2.586	12.639	1225.313	924.048
3.600	12.532	1213.401	914.386
4.615	9.206	1142.280	843.285
5.629	3.227	1071.767	761.643
6.644	0.417	1054.971	735.944
7.659	0.107	1052.660	732.755
8.673	0.062	1052.331	732.242
9.688	0.094	1050.717	731.211
10.702	0.300	1048.583	730.661
11.717	3.981	1053.033	751.595
12.731	10.928	1061.711	791.638
13.746	15.823	1067.714	819.947
14.761	16.840	1068.609	825.520
15.775	16.094	1066.513	820.202
16.790	15.164	1064.827	814.313
17.804	14.415	1063.323	809.453
18.819	13.979	1062.366	806.539
19.834	13.840	1061.409	805.066
20.848	13.536	1060.704	802.986
21.863	13.444	1059.764	801.759
22.877	13.163	1059.027	799.766
23.892	13.171	1058.204	799.116
24.907	13.230	1057.504	798.799
25.921	13.154	1056.893	797.903
26.936	13.205	1055.904	797.332
27.950	13.164	1054.886	796.291
28.965	13.353	1053.693	796.233
29.980	13.406	1052.425	795.458
30.994	13.447	1051.399	794.808
32.009	13.486	1050.454	794.210
33.023	13.444	1049.564	793.265
34.038	13.377	1048.642	792.181
35.053	13.340	1047.637	791.175
36.067	13.396	1046.756	790.705
37.082	13.333	1046.430	790.087
38.096	13.351	1045.570	789.453
39.111	13.241	1044.583	788.117
40.126	13.329	1043.362	787.542
41.140	13.282	1041.899	786.146
42.155	13.064	1041.325	784.608
43.169	13.109	1039.981	783.739
44.184	13.155	1039.163	783.269
45.199	13.098	1038.333	782.305
46.213	13.191	1037.215	781.835
47.228	13.289	1036.346	781.573
48.242	13.248	1035.164	780.418
49.257	13.233	1034.322	779.646
50.271	13.317	1033.216	779.136
51.286	13.374	1032.458	778.768
52.301	13.322	1031.797	777.953
53.315	13.324	1030.312	776.776
54.330	13.217	1029.684	775.730
55.344	13.174	1029.068	774.996
56.359	13.350	1027.764	774.771
57.374	13.185	1027.237	773.532
58.388	13.220	1025.978	772.679
59.403	13.095	1025.718	771.829
60.417	13.310	1024.636	771.953
61.432	13.038	1024.054	770.174
62.447	13.141	1023.009	769.803
63.461	13.055	1022.181	768.712
64.476	13.225	1021.119	768.635
65.490	13.107	1020.505	767.555
66.505	13.204	1019.818	767.423
67.520	13.134	1019.398	766.713
68.534	13.054	1018.996	765.972
69.549	13.189	1018.177	765.912
70.563	13.164	1017.333	765.095
71.578	13.112	1016.097	763.859
72.593	13.003	1015.687	762.976
73.607	13.050	1015.232	762.785
74.622	12.956	1014.962	762.079
75.636	13.161	1013.410	761.792
76.651	13.117	1012.889	761.132
77.666	12.985	1012.219	759.951
78.680	13.031	1011.576	759.614
79.695	13.081	1010.996	759.343
80.709	13.121	1010.447	759.044
81.724	13.152	1010.198	758.934
82.739	13.230	1009.253	758.514
83.753	13.220	1008.246	757.646
84.768	13.320	1007.002	757.100
85.782	13.449	1006.402	757.174
86.797	13.449	1005.233	756.228
87.812	13.267	1004.366	754.680
88.826	13.184	1003.783	753.792
89.841	13.335	1002.621	753.542
90.855	13.428	1001.297	752.906
91.870	13.405	1001.121	752.602
92.884	13.411	1000.042	751.751
93.899	13.514	999.170	751.496
94.914	13.332	998.757	750.294
95.928	13.382	998.304	750.112
96.943	13.457	996.964	749.379
97.957	13.328	996.028	748.026
98.972	13.385	995.144	747.554
99.987	13.333	994.621	746.860
101.001	13.414	993.323	746.182
102.016	13.357	992.624	745.334
103.030	13.316	991.760	744.438
104.045	13.395	991.339	744.410
105.060	13.323	990.072	743.071
106.074	13.282	989.281	742.228
107.089	13.124	988.373	740.770
108.103	13.229	987.270	740.350
109.118	13.138	986.790	739.517
110.133	13.172	986.050	739.049
111.147	13.231	985.001	738.461
112.162	13.128	984.250	737.372
113.176	13.383	982.999	737.506
114.191	13.324	982.635	736.904
115.206	13.378	981.405	736.157
116.220	13.231	980.973	735.115
117.235	13.357	979.672	734.633
118.249	13.356	979.080	734.120
119.264	13.283	978.643	733.404
120.279	13.227	977.749	732.419
121.293	13.233	976.558	731.490
122.308	13.287	976.051	731.285
123.322	13.227	974.639	729.896
124.337	13.260	973.768	729.329
125.352	13.318	972.305	728.420
126.366	13.187	971.907	727.481
127.381	13.192	970.634	726.487
128.395	13.420	969.530	726.597
129.410	13.247	969.016	725.390
130.424	13.346	968.135	725.099
131.439	13.403	967.594	724.880
132.454	13.273	966.735	723.606
133.468	13.381	965.705	723.242
134.483	13.369	964.597	722.296
135.497	13.456	963.552	721.826
136.512	13.252	963.592	720.903
137.527	13.281	962.504	720.153
138.541	13.335	961.673	719.702
139.556	13.357	961.031	719.252
140.570	13.412	960.217	718.817
141.585	13.314	959.501	717.795
142.600	13.474	958.669	717.803
143.614	13.482	957.940	717.229
144.629	13.550	957.104	716.834
145.643	13.419	956.471	715.728
146.658	13.487	955.204	715.012
147.673	13.520	954.112	714.273
148.687	13.588	953.238	713.846
149.702	13.481	952.676	712.902
150.716	13.353	952.190	711.926
151.731	13.548	951.162	711.932
152.746	13.392	950.594	710.773
153.760	13.444	950.002	710.491
154.775	13.565	949.380	710.485
155.789	13.546	948.577	709.737
156.804	13.656	947.889	709.632
157.819	13.583	947.204	708.742
158.833	13.548	946.737	708.180
159.848	13.742	945.764	708.221
160.862	13.619	945.141	707.165
161.877	13.619	944.152	706.362
162.892	13.533	943.040	705.102
163.906	13.520	942.223	704.373
164.921	13.538	941.644	703.956
165.935	13.573	940.921	703.500
166.950	13.657	939.702	702.885
167.964	13.551	939.293	702.066
168.979	13.698	938.050	701.697
169.994	13.548	937.677	700.720
171.008	13.613	936.889	700.346
172.023	13.679	935.764	699.719
173.037	13.793	935.033	699.594
174.052	13.768	934.192	698.795
175.067	13.660	933.891	698.054
176.081	13.658	933.537	697.721
177.096	13.656	932.882	697.162
178.110	13.654	932.402	696.733
179.125	13.692	931.762	696.353
180.140	13.766	930.809	695.886
181.154	13.701	930.781	695.535
182.169	13.744	929.966	695.043
183.183	13.822	929.253	694.776
184.198	13.898	928.149	694.207
185.213	13.815	928.081	693.746
186.227	13.916	927.313	693.532
187.242	13.868	926.664	692.786
188.256	13.914	926.153	692.533
189.271	13.923	925.191	691.791
190.286	13.799	924.072	690.378
191.300	13.771	923.150	689.511
192.315	13.688	922.767	688.818
193.329	13.750	922.665	688.941
194.344	13.833	921.867	688.626
195.359	13.948	920.849	688.283
196.373	13.883	920.351	687.581
197.388	13.913	920.500	687.754
198.402	14.106	919.503	687.748
199.417	14.291	918.300	687.551
200.432	14.129	918.266	686.797
201.446	14.184	918.009	686.771
202.461	14.294	917.157	686.526
203.475	14.128	916.988	685.653
204.490	14.091	916.054	684.744
205.504	14.204	915.031	684.383
206.519	14.100	914.495	683.492
207.534	14.099	913.761	682.878
208.548	14.140	913.062	682.465
209.563	14.189	912.652	682.300
210.577	14.110	911.745	681.235
211.592	14.189	911.216	681.106
212.607	14.354	909.933	680.760
213.621	14.436	909.033	680.361
214.636	14.239	908.791	679.316
215.650	14.256	908.394	679.027
216.665	14.408	907.568	678.969
217.680	14.284	907.074	678.037
218.694	14.435	906.489	678.154
219.709	14.361	905.740	677.230
220.723	14.426	904.591	676.576
221.738	14.277	904.400	675.770
222.753	14.476	903.504	675.845
223.767	14.416	902.928	675.112
224.782	14.456	902.711	675.054
225.796	14.488	901.870	674.493
226.811	14.303	901.287	673.252
227.826	14.513	900.056	673.118
228.840	14.557	899.484	672.809
229.855	14.533	898.742	672.096
230.869	14.598	898.290	671.962
231.884	14.437	897.675	670.796
232.899	14.587	896.564	670.506
233.913	14.418	896.029	669.369
234.928	14.417	895.617	668.997
235.942	14.474	894.813	668.567
236.957	14.545	894.149	668.298
237.972	14.604	893.585	668.052
238.986	14.469	893.243	667.197
240.001	14.513	892.620	666.849
241.015	14.605	891.518	666.334
242.030	14.678	891.105	666.257
243.045	14.659	890.786	665.883
244.059	14.524	890.015	664.712
245.074	14.692	889.476	664.918
246.088	14.621	888.732	664.020
247.103	14.779	887.587	663.735
248.117	14.736	887.550	663.478
249.132	14.751	886.915	663.003
250.147	14.820	886.786	663.124
251.161	15.021	885.283	662.735
252.176	14.883	885.118	662.005
253.190	15.005	883.925	661.539
254.205	14.830	884.170	660.973
255.220	14.975	882.850	660.500
256.234	14.870	882.492	659.758
257.249	15.152	881.784	660.281
258.263	15.060	880.955	659.240
259.278	14.966	880.417	658.411
260.293	15.030	879.771	658.119
261.307	15.116	879.072	657.875
262.322	15.268	877.897	657.534
263.336	15.189	877.450	656.833
264.351	15.260	877.441	657.047
265.366	15.358	876.330	656.538
266.380	15.252	875.764	655.643
267.395	15.131	875.545	654.949
268.409	15.199	874.124	654.093
269.424	15.205	873.426	653.535
270.439	15.119	872.925	652.768
271.453	15.276	871.960	652.602
272.468	15.203	872.130	652.383
273.482	15.129	871.462	651.541
274.497	15.158	870.710	651.033
275.512	15.154	870.492	650.798
276.526	15.156	869.879	650.287
277.541	15.319	869.026	650.224
278.555	15.324	868.527	649.813
279.570	15.451	867.589	649.545
280.585	15.442	867.022	649.028
281.599	15.521	865.943	648.470
282.614	15.471	865.653	648.003
283.628	15.460	864.812	647.272
284.643	15.430	864.740	647.045
285.657	15.334	864.076	646.120
286.672	15.382	863.669	645.943
287.687	15.348	863.038	645.285
288.701	15.523	861.974	645.103
289.716	15.391	861.612	644.268
290.730	15.528	860.853	644.172
291.745	15.619	860.067	643.874
292.760	15.614	859.934	643.699
293.774	15.464	859.259	642.563
294.789	15.610	858.523	642.511
295.803	15.501	857.754	641.463
296.818	15.641	857.150	641.492
297.833	15.676	856.307	640.936
298.847	15.622	855.673	640.197
299.862	15.703	855.106	640.026
300.876	15.788	854.723	640.007
301.891	15.649	854.597	639.327
302.906	15.723	853.846	638.989
303.920	15.772	853.438	638.815
304.935	15.836	852.639	638.402
305.949	15.921	851.643	637.921
306.964	15.835	851.121	637.150
307.979	15.847	850.564	636.720
308.993	15.936	850.208	636.734
310.008	15.916	849.736	636.249
311.022	15.815	849.384	635.549
312.037	15.913	848.306	635.055
313.052	15.751	848.138	634.260
314.066	15.743	847.451	633.662
315.081	15.875	846.837	633.644
316.095	15.968	846.143	633.416
317.110	15.925	845.143	632.451
318.125	15.853	845.289	632.236
319.139	15.886	844.815	631.949
320.154	15.939	844.159	631.600
321.168	15.868	843.798	631.008
322.183	15.900	843.085	630.537
323.197	16.081	842.376	630.629
324.212	15.894	841.984	629.582
325.227	15.854	841.806	629.242
326.241	15.834	841.203	628.663
327.256	15.907	840.480	628.339
328.270	15.853	840.126	627.815
329.285	15.863	839.076	627.015
330.300	15.968	838.450	626.881
331.314	16.115	837.963	627.008
332.329	16.043	837.799	626.564
333.343	16.092	836.970	626.069
334.358	16.107	836.748	625.903
335.373	16.026	836.487	625.353
336.387	16.270	835.993	625.834
337.402	16.245	836.094	625.759
338.416	16.234	835.565	625.269
339.431	16.251	835.235	625.028
340.446	16.286	834.972	624.907
341.460	16.259	834.394	624.318
342.475	16.353	833.949	624.276
343.489	16.578	833.149	624.452
344.504	16.377	832.905	623.475
345.519	16.391	832.456	623.135
346.533	16.335	831.938	622.487
347.548	16.307	831.508	622.004
348.562	16.337	830.574	621.362
349.577	16.305	830.050	620.798
350.592	16.267	829.675	620.322
351.606	16.349	828.772	619.894
352.621	16.436	827.869	619.482
353.635	16.447	827.650	619.305
354.650	16.461	826.884	618.726
355.665	16.318	826.497	617.861
356.679	16.484	825.641	617.772
357.694	16.569	825.048	617.582
358.708	16.579	824.343	617.039
359.723	16.544	824.090	616.667
360.738	16.593	823.808	616.580
361.752	16.711	822.514	615.986
362.767	16.706	822.318	615.764
363.781	16.633	822.111	615.291
364.796	16.733	821.557	615.184
365.810	16.772	820.929	614.800
366.825	16.884	820.381	614.742
367.840	16.646	819.886	613.454
368.854	16.770	819.333	613.437
369.869	16.743	818.955	613.001
370.883	16.708	819.075	612.912
371.898	16.817	818.413	612.756
372.913	16.850	817.810	612.370
373.927	16.817	817.527	611.984
374.942	16.717	817.384	611.459
375.956	16.780	817.369	611.624
376.971	17.145	816.004	611.863
377.986	16.911	815.796	610.810
379.000	16.866	815.118	610.088
380.015	16.940	814.881	610.120
381.029	17.011	814.068	609.714
382.044	16.879	813.927	609.080
383.059	17.059	812.988	608.968
384.073	17.081	812.377	608.537
385.088	16.860	812.255	607.599
386.102	17.026	811.078	607.258
387.117	16.973	810.722	606.749
388.132	17.022	810.677	606.837
389.146	16.993	809.949	606.136
390.161	17.095	809.497	606.108
391.175	17.150	808.659	605.621
392.190	17.039	808.607	605.134
393.205	17.015	808.387	604.829
394.219	17.031	807.992	604.539
395.234	17.065	807.176	603.996
396.248	17.140	806.734	603.877
397.263	17.083	806.316	603.309
398.278	17.123	805.850	603.047
399.292	17.154	805.360	602.737
400.307	17.209	804.816	602.472
401.321	17.117	804.553	601.895
402.336	17.116	804.323	601.669
403.350	17.319	803.840	601.972
404.365	17.248	803.529	601.433
405.380	17.338	802.980	601.290
406.394	17.302	802.248	600.560
407.409	17.416	801.986	600.712
408.423	17.336	801.459	599.982
409.438	17.493	801.155	600.255
410.453	17.644	800.076	599.926
411.467	17.417	800.450	599.352
412.482	17.478	799.887	599.093
413.496	17.498	799.612	598.906
414.511	17.544	799.237	598.735
415.526	17.600	798.747	598.509
416.540	17.571	797.796	597.642
417.555	17.535	797.679	597.376
418.569	17.479	797.337	596.872
419.584	17.579	797.005	596.922
420.599	17.679	796.324	596.706
421.613	113.987	1298.451	1487.296
422.628	98.152	1371.602	1487.378
