DTS Sentinel unit serial number:	SN413079Multiplexer serial number:	ORYXHardware model number:	OX4-SRSoftware version number:	ORYX F/W v4.00 Oryx Data Collector v3.7.2.0data status	okinstallation	princeton_trtdifferential loss correction	single-endedforward channel	channel 1reverse channel	N/Adate	2019/09/15time	08:58:35forward acquisition time	60.00reverse acquisition time	0.00gamma	496.2192k internal	0.2315k external	0.2315temperature offset calibration	0.9984default loss term (dB/km)	0.3790temperature slope calibration	1.0000multiplexer offset coefficient	1.0000multiplexer slope coefficient	1.0000fibre end	0.00T internal ref (°C)	32.69T ext. ref 1 (°C)	4.98T ext. ref 2 (°C)	29.68length (m)	temperature (°C)	Stokes	anti-Stokes-747.200	-200.000	0.018	0.152
-746.185	-11.916	-0.049	0.033
-745.171	107.854	0.270	0.327
-744.156	-99.444	-0.151	0.039
-743.142	-118.046	-0.294	-0.053
-742.127	-44.389	-0.216	0.110
-741.112	-62.021	-0.240	0.102
-740.098	614.882	-0.017	-0.044
-739.083	-16.994	0.456	0.292
-738.069	-21.168	0.487	0.302
-737.054	-200.000	-0.009	0.062
-736.039	-171.790	-0.368	-0.012
-735.025	48.081	-0.158	0.150
-734.010	201.803	-0.059	-0.092
-732.996	-200.000	-0.036	-0.203
-731.981	62.210	-0.299	-0.302
-730.966	-6.890	-0.152	0.104
-729.952	87.038	-0.032	-0.036
-728.937	364.463	0.043	-0.088
-727.923	-40.602	-0.215	0.113
-726.908	-58.681	-0.312	0.137
-725.894	588.982	-0.112	0.279
-724.879	-145.430	-0.305	0.028
-723.864	378.462	-0.007	0.016
-722.850	-105.107	-0.314	0.073
-721.835	510.765	-0.152	0.359
-720.821	209.448	-0.175	0.277
-719.806	-96.668	-0.291	-0.078
-718.791	-44.512	-0.141	0.071
-717.777	-136.295	0.114	0.013
-716.762	-66.877	-0.137	0.055
-715.748	-63.991	-0.218	-0.090
-714.733	-133.844	0.097	-0.012
-713.718	171.016	0.091	-0.133
-712.704	-72.431	0.108	-0.040
-711.689	-34.145	0.059	0.033
-710.675	173.234	-0.134	0.195
-709.660	443.642	0.061	0.134
-708.645	-200.000	-0.040	0.299
-707.631	-29.661	-0.141	0.081
-706.616	130.852	0.083	-0.107
-705.602	-200.000	-0.029	-0.312
-704.587	284.891	-0.061	0.111
-703.572	-11.598	-0.247	-0.164
-702.558	-18.425	-0.180	-0.114
-701.543	-163.847	-0.280	-0.013
-700.529	-152.830	-0.518	0.037
-699.514	800.000	0.097	0.360
-698.499	-200.000	0.051	0.310
-697.485	6.877	-0.272	0.205
-696.470	800.000	0.036	-0.107
-695.456	120.015	0.041	0.051
-694.441	71.741	-0.180	-0.190
-693.426	350.658	-0.073	-0.146
-692.412	622.770	-0.041	0.103
-691.397	-132.363	-0.162	0.021
-690.383	-80.665	0.285	-0.096
-689.368	2.704	0.246	-0.180
-688.354	-200.000	-0.024	-0.180
-687.339	800.000	-0.041	-0.124
-686.324	-200.000	-0.002	0.246
-685.310	-200.000	-0.015	0.426
-684.295	-118.722	0.145	0.026
-683.281	-200.000	-0.041	0.405
-682.266	612.782	-0.082	-0.209
-681.251	506.036	0.086	0.201
-680.237	-1.009	0.069	-0.049
-679.222	138.095	-0.013	-0.017
-678.208	-48.312	-0.487	0.238
-677.193	194.442	0.025	0.038
-676.178	32.038	-0.383	-0.334
-675.164	-116.888	0.242	0.045
-674.149	-187.186	0.059	0.001
-673.135	168.450	-0.065	-0.094
-672.120	65.052	0.038	0.038
-671.105	-87.262	-0.210	0.064
-670.091	-200.000	0.001	-0.217
-669.076	201.703	-0.117	0.183
-668.062	15.601	0.232	-0.185
-667.047	-137.768	0.159	0.018
-666.032	269.092	0.043	0.076
-665.018	-89.001	-0.189	0.056
-664.003	-126.880	0.163	-0.024
-662.989	132.753	-0.075	0.098
-661.974	-110.991	-0.328	-0.068
-660.959	-77.835	0.297	-0.104
-659.945	-200.000	0.082	-0.446
-658.930	-200.000	0.006	0.170
-657.916	-200.000	-0.002	-0.184
-656.901	-49.193	-0.301	-0.145
-655.886	800.000	-0.122	-0.382
-654.872	-200.000	-0.039	0.352
-653.857	-94.020	-0.169	-0.047
-652.843	60.094	-0.189	-0.189
-651.828	-41.054	0.030	0.016
-650.814	-115.295	-0.298	-0.057
-649.799	-200.000	0.010	-0.366
-648.784	-200.000	-0.010	-0.143
-647.770	800.000	0.029	-0.093
-646.755	-54.297	-0.244	0.112
-645.741	-63.897	0.212	-0.088
-644.726	-8.742	0.061	-0.041
-643.711	-122.436	0.156	-0.026
-642.697	190.210	-0.087	0.133
-641.682	800.000	-0.030	0.120
-640.668	-200.000	0.001	0.285
-639.653	-200.000	-0.051	0.255
-638.638	4.882	-0.262	-0.195
-637.624	800.000	-0.031	-0.133
-636.609	240.232	-0.112	-0.189
-635.595	65.614	-0.025	0.025
-634.580	800.000	-0.090	0.348
-633.565	-121.792	0.119	0.020
-632.551	-161.441	-0.147	0.008
-631.536	-200.000	-0.006	-0.296
-630.522	369.696	-0.005	-0.009
-629.507	-200.000	0.081	-0.406
-628.492	5.632	0.075	0.056
-627.478	-193.048	-0.271	-0.002
-626.463	800.000	-0.053	-0.175
-625.449	-32.066	-0.271	-0.153
-624.434	174.854	0.044	-0.065
-623.419	-117.308	-0.303	0.056
-622.405	-103.072	-0.199	-0.048
-621.390	-200.000	0.043	0.219
-620.376	1.855	-0.167	0.121
-619.361	-53.787	0.189	-0.087
-618.346	502.058	0.172	-0.401
-617.332	800.000	-0.021	-0.064
-616.317	213.250	-0.047	0.075
-615.303	-130.139	-0.606	0.083
-614.288	-200.000	-0.073	0.525
-613.273	-76.364	0.152	0.054
-612.259	272.592	-0.096	0.171
-611.244	610.648	0.060	-0.150
-610.230	-90.501	0.340	-0.099
-609.215	-7.353	0.200	-0.137
-608.201	244.363	-0.084	-0.142
-607.186	83.277	0.040	0.044
-606.171	-18.169	0.148	-0.093
-605.157	104.225	0.170	0.202
-604.142	132.162	0.130	0.169
-603.128	-42.660	-0.029	-0.015
-602.113	5.801	0.237	0.176
-601.098	-200.000	0.027	-0.175
-600.084	108.535	0.242	0.291
-599.069	-45.826	-0.328	-0.163
-598.055	26.765	-0.144	-0.122
-597.040	-200.000	-0.017	0.152
-596.025	800.000	-0.038	0.135
-595.011	28.649	0.268	-0.229
-593.996	-47.502	0.099	-0.049
-592.982	-118.635	-0.198	-0.035
-591.967	-38.068	-0.128	-0.069
-590.952	-46.182	0.129	0.064
-589.938	-82.303	-0.086	0.028
-588.923	-200.000	0.046	-0.202
-587.909	-200.000	-0.020	-0.200
-586.894	-2.930	0.058	0.041
-585.879	-200.000	-0.021	0.135
-584.865	-200.000	0.012	0.084
-583.850	-200.000	0.011	-0.076
-582.836	35.418	-0.081	0.071
-581.821	-200.000	-0.055	-0.279
-580.806	-1.378	-0.162	0.115
-579.792	215.291	0.137	0.219
-578.777	-52.313	-0.082	-0.038
-577.763	-42.977	-0.157	-0.080
-576.748	800.000	-0.030	-0.091
-575.733	9.150	0.079	-0.060
-574.719	130.868	0.031	0.040
-573.704	-136.550	-0.132	0.015
-572.690	-200.000	-0.033	0.154
-571.675	118.363	-0.205	-0.255
-570.661	-4.786	0.235	0.163
-569.646	131.457	0.153	0.198
-568.631	-175.991	0.292	0.008
-567.617	4.678	-0.080	-0.059
-566.602	-0.724	0.100	-0.072
-565.588	97.009	-0.177	0.204
-564.573	-11.947	0.128	-0.085
-563.558	-56.020	-0.137	-0.061
-562.544	235.370	-0.133	0.220
-561.529	279.278	0.030	0.054
-560.515	-108.122	0.132	0.029
-559.500	-200.000	-0.037	0.221
-558.485	800.000	-0.091	0.281
-557.471	-118.629	0.306	0.054
-556.456	-85.017	-0.180	-0.057
-555.442	-200.000	0.001	-0.023
-554.427	-82.225	0.210	-0.069
-553.412	141.309	-0.075	-0.100
-552.398	-69.177	0.287	0.111
-551.383	3.663	-0.269	0.197
-550.369	-147.118	0.234	-0.020
-549.354	-61.227	0.437	0.185
-548.339	-73.981	-0.195	-0.071
-547.325	187.115	0.110	-0.165
-546.310	-153.081	-0.150	0.011
-545.296	-200.000	0.069	0.355
-544.281	201.811	-0.146	0.226
-543.266	-60.854	-0.241	-0.103
-542.252	450.419	-0.036	-0.079
-541.237	247.775	0.070	0.119
-540.223	-112.735	0.270	-0.054
-539.208	800.000	0.030	0.091
-538.193	755.287	0.064	-0.174
-537.179	57.428	-0.207	-0.203
-536.164	-81.240	-0.322	0.107
-535.150	-104.182	-0.072	0.017
-534.135	-102.385	0.050	-0.012
-533.121	11.829	-0.256	0.198
-532.106	40.228	-0.209	0.189
-531.091	38.373	0.040	0.035
-530.077	-54.128	0.114	0.052
-529.062	762.659	-0.087	-0.236
-528.048	800.000	-0.063	-0.267
-527.033	-109.537	0.065	0.014
-526.018	-159.400	-0.226	-0.013
-525.004	-36.562	-0.296	-0.160
-523.989	-43.760	0.275	0.139
-522.975	58.961	0.140	-0.139
-521.960	800.000	-0.058	0.222
-520.945	-148.689	0.215	0.018
-519.931	-117.665	-0.104	-0.019
-518.916	-140.919	0.270	0.028
-517.902	-80.924	-0.054	0.018
-516.887	-82.131	0.136	0.044
-515.872	471.833	0.143	-0.324
-514.858	-130.699	-0.280	-0.038
-513.843	-88.365	-0.036	-0.011
-512.829	22.470	0.119	0.098
-511.814	-84.247	0.267	-0.085
-510.799	-1.700	-0.272	-0.193
-509.785	76.145	0.118	-0.126
-508.770	389.566	0.118	-0.245
-507.756	-110.707	0.198	0.041
-506.741	-77.886	-0.338	-0.117
-505.726	731.063	0.095	-0.255
-504.712	40.107	-0.086	-0.077
-503.697	-65.449	0.308	0.124
-502.683	-200.000	-0.001	0.032
-501.668	179.144	0.091	0.134
-500.653	-200.000	-0.032	-0.147
-499.639	-103.342	-0.349	-0.083
-498.624	83.043	-0.065	0.071
-497.610	-139.380	-0.056	-0.006
-496.595	-200.000	-0.006	0.191
-495.581	800.000	0.135	0.381
-494.566	72.742	-0.178	0.186
-493.551	471.265	0.190	0.428
-492.537	10.484	0.148	0.113
-491.522	464.747	-0.142	0.318
-490.508	-157.144	-0.031	0.002
-489.493	-81.830	0.230	-0.076
-488.478	333.192	-0.062	0.121
-487.464	800.000	0.052	-0.149
-486.449	-200.000	0.018	0.209
-485.435	33.773	-0.259	0.226
-484.420	-27.391	-0.148	0.086
-483.405	-75.525	0.342	0.122
-482.391	-200.000	-0.004	-0.095
-481.376	-167.915	-0.281	-0.011
-480.362	-105.515	-0.269	-0.061
-479.347	-43.035	-0.155	0.079
-478.332	-200.000	0.046	0.212
-477.318	146.053	0.117	-0.157
-476.303	-200.000	0.010	-0.139
-475.289	-200.000	-0.007	0.146
-474.274	51.864	-0.111	0.106
-473.259	-121.240	0.100	-0.017
-472.245	800.000	-0.116	-0.343
-471.230	-200.000	-0.024	0.254
-470.216	-107.436	-0.067	0.015
-469.201	176.235	-0.137	0.199
-468.186	-200.000	-0.009	0.146
-467.172	-2.092	0.083	0.059
-466.157	19.296	-0.142	-0.115
-465.143	-17.701	-0.186	0.117
-464.128	54.061	0.149	-0.144
-463.113	-200.000	0.031	-0.163
-462.099	800.000	-0.081	0.250
-461.084	-144.063	0.373	-0.035
-460.070	800.000	-0.065	0.270
-459.055	-194.039	-0.223	-0.002
-458.040	-2.793	-0.212	-0.149
-457.026	-154.394	0.312	0.021
-456.011	-146.523	0.131	-0.011
-454.997	102.225	0.220	-0.258
-453.982	191.427	-0.138	0.209
-452.968	-200.000	0.005	-0.051
-451.953	309.060	0.227	-0.426
-450.938	680.804	0.136	-0.356
-449.924	24.161	0.116	-0.096
-448.909	-200.000	-0.013	-0.259
-447.895	-54.996	-0.188	0.085
-446.880	-90.397	0.070	-0.020
-445.865	-8.448	-0.080	0.054
-444.851	136.751	0.056	-0.073
-443.836	-111.214	0.218	-0.045
-442.822	152.738	-0.149	-0.204
-441.807	277.171	0.096	0.171
-440.792	46.480	-0.143	0.133
-439.778	800.000	0.057	0.226
-438.763	430.969	-0.037	0.080
-437.749	132.449	-0.043	0.056
-436.734	21.363	-0.221	-0.180
-435.719	800.000	0.039	0.137
-434.705	455.634	0.130	-0.288
-433.690	-200.000	0.008	0.194
-432.676	251.502	0.106	-0.180
-431.661	14.148	0.140	-0.109
-430.646	-84.891	-0.092	-0.029
-429.632	-200.000	-0.012	-0.325
-428.617	-200.000	-0.031	0.172
-427.603	-108.844	-0.304	-0.065
-426.588	447.076	-0.171	0.378
-425.573	800.000	-0.055	0.228
-424.559	-200.000	0.019	0.235
-423.544	-9.525	0.049	-0.033
-422.530	92.831	0.167	0.188
-421.515	211.268	-0.247	-0.389
-420.500	136.889	-0.229	-0.299
-419.486	-125.465	-0.085	0.013
-418.471	800.000	-0.042	0.139
-417.457	800.000	0.103	0.432
-416.442	-200.000	-0.008	0.139
-415.428	-5.733	-0.076	0.052
-414.413	105.232	0.089	0.106
-413.398	60.447	-0.097	-0.096
-412.384	30.149	-0.228	-0.194
-411.369	107.790	-0.047	-0.056
-410.355	-200.000	-0.009	-0.043
-409.340	120.402	-0.083	-0.103
-408.325	-200.000	0.038	0.200
-407.311	-90.716	0.262	-0.076
-406.296	-200.000	0.081	0.370
-405.282	98.393	-0.417	-0.480
-404.267	-85.082	0.110	0.034
-403.252	-153.673	-0.232	0.016
-402.238	800.000	-0.016	0.068
-401.223	147.666	0.111	0.150
-400.209	165.349	-0.252	-0.355
-399.194	-200.000	-0.017	-0.118
-398.179	800.000	0.049	-0.140
-397.165	-54.099	-0.227	0.103
-396.150	-32.619	0.107	-0.060
-395.136	-200.000	0.011	0.050
-394.121	-73.002	-0.143	-0.052
-393.106	-137.160	0.285	0.032
-392.092	438.437	-0.043	-0.094
-391.077	325.658	0.043	0.082
-390.063	365.108	-0.090	0.181
-389.048	644.849	0.106	0.270
-388.033	261.662	0.145	0.251
-387.019	570.463	0.062	0.152
-386.004	-159.260	-0.136	0.008
-384.990	800.000	0.052	-0.219
-383.975	-116.747	-0.413	-0.076
-382.960	-129.250	0.064	0.009
-381.946	-0.286	-0.272	-0.193
-380.931	143.623	-0.117	0.156
-379.917	-200.000	-0.035	-0.239
-378.902	588.107	0.150	0.368
-377.888	-200.000	-0.017	0.178
-376.873	-200.000	0.004	-0.169
-375.858	33.776	-0.117	-0.102
-374.844	-126.210	0.090	0.013
-373.829	98.878	0.220	0.254
-372.815	-114.664	-0.326	0.062
-371.800	-8.753	0.341	-0.228
-370.785	-77.582	-0.164	0.057
-369.771	169.855	0.089	0.127
-368.756	391.817	-0.014	-0.030
-367.742	800.000	-0.029	-0.102
-366.727	-41.510	-0.271	-0.139
-365.712	-200.000	0.033	0.231
-364.698	-118.198	0.234	-0.042
-363.683	250.394	0.145	0.246
-362.669	-24.511	-0.177	-0.105
-361.654	162.494	0.213	0.298
-360.639	-106.846	-0.021	0.005
-359.625	182.912	0.083	0.123
-358.610	-200.000	0.024	0.341
-357.596	-34.447	0.179	0.098
-356.581	-140.260	0.269	0.028
-355.566	-200.000	-0.039	0.228
-354.552	139.155	0.067	-0.088
-353.537	-200.000	-0.018	0.174
-352.523	-102.494	-0.424	-0.101
-351.508	-98.321	-0.201	0.051
-350.493	-108.489	-0.295	-0.063
-349.479	-200.000	0.043	-0.346
-348.464	800.000	-0.093	-0.351
-347.450	-34.701	-0.281	0.153
-346.435	-200.000	0.046	-0.208
-345.420	115.411	0.087	-0.106
-344.406	541.236	0.121	0.288
-343.391	-200.000	0.044	-0.326
-342.377	-126.020	-0.039	0.006
-341.362	-134.257	-0.347	-0.043
-340.348	109.699	-0.058	0.069
-339.333	-12.065	0.142	-0.092
-338.318	486.281	0.095	-0.216
-337.304	-86.980	0.106	-0.032
-336.289	-66.539	0.276	0.109
-335.275	-113.645	-0.080	0.016
-334.260	-113.110	0.259	0.051
-333.245	800.000	-0.069	-0.299
-332.231	-200.000	-0.017	-0.280
-331.216	-57.452	-0.384	0.168
-330.202	706.154	0.143	-0.375
-329.187	-200.000	0.154	0.000
-328.172	-71.815	-0.091	-0.034
-327.158	-58.118	-0.117	-0.051
-326.143	110.527	-0.085	0.102
-325.129	-43.193	0.179	0.090
-324.114	-173.232	0.261	0.008
-323.099	-122.550	0.132	-0.021
-322.085	142.680	0.090	-0.119
-321.070	267.997	-0.054	0.095
-320.056	401.299	-0.085	-0.178
-319.041	-200.000	0.020	0.103
-318.026	-137.533	0.313	-0.035
-317.012	-102.273	0.179	-0.043
-315.997	800.000	0.099	-0.339
-314.983	47.801	0.117	0.109
-313.968	52.083	-0.097	0.092
-312.953	110.435	0.019	0.023
-311.939	800.000	-0.066	-0.235
-310.924	-166.248	0.234	0.010
-309.910	-68.557	-0.132	0.051
-308.895	-7.734	0.417	-0.280
-307.880	-200.000	-0.003	0.017
-306.866	-94.589	-0.150	0.041
-305.851	-107.364	0.127	0.028
-304.837	373.122	-0.190	-0.384
-303.822	1.216	-0.111	-0.079
-302.807	87.577	-0.097	-0.107
-301.793	83.184	-0.051	-0.055
-300.778	-22.483	-0.297	-0.179
-299.764	148.393	-0.131	-0.177
-298.749	-200.000	0.103	-0.450
-297.735	-38.988	0.363	0.190
-296.720	-200.000	0.052	0.245
-295.705	0.893	-0.163	0.116
-294.691	-121.609	0.211	-0.035
-293.676	80.072	0.168	0.180
-292.662	800.000	0.126	-0.550
-291.647	800.000	-0.127	-0.413
-290.632	137.590	-0.107	0.140
-289.618	-113.459	-0.041	-0.008
-288.603	-129.036	0.065	0.009
-287.589	340.660	0.175	0.340
-286.574	37.717	-0.099	0.087
-285.559	-14.862	-0.259	-0.165
-284.545	-200.000	-0.037	-0.300
-283.530	-200.000	0.016	-0.193
-282.516	49.837	0.368	-0.346
-281.501	-54.673	0.089	-0.040
-280.486	800.000	-0.069	0.211
-279.472	-33.064	0.106	-0.058
-278.457	-37.221	0.206	0.110
-277.443	-132.988	-0.160	0.020
-276.428	800.000	-0.129	0.358
-275.413	142.595	0.245	-0.323
-274.399	-200.000	-0.031	-0.298
-273.384	-99.814	-0.156	-0.039
-272.370	800.000	-0.050	-0.215
-271.355	-85.413	0.152	0.047
-270.340	-40.701	0.142	0.073
-269.326	122.448	-0.111	-0.138
-268.311	38.240	0.031	0.027
-267.297	-8.708	-0.177	0.118
-266.282	-178.634	-0.081	-0.002
-265.267	800.000	0.083	-0.256
-264.253	-91.479	-0.254	-0.072
-263.238	-77.634	-0.149	0.051
-262.224	49.917	0.064	-0.060
-261.209	-53.903	-0.405	0.184
-260.195	-69.361	0.216	0.082
-259.180	-29.803	0.219	-0.124
-258.165	44.799	-0.144	0.131
-257.151	297.646	-0.092	0.168
-256.136	23.703	-0.170	0.139
-255.122	-135.618	0.131	-0.015
-254.107	-5.599	0.163	-0.111
-253.092	-31.035	0.230	-0.129
-252.078	-200.000	-0.017	-0.189
-251.063	-125.282	0.286	-0.044
-250.049	-39.834	-0.174	0.090
-249.034	-82.870	0.138	-0.044
-248.019	89.436	0.132	-0.146
-247.005	-94.989	-0.180	0.048
-245.990	233.577	-0.057	0.093
-244.976	8.588	0.406	-0.304
-243.961	240.747	-0.162	0.268
-242.946	625.368	0.078	-0.195
-241.932	800.000	-0.053	-0.220
-240.917	-9.995	-0.117	0.077
-239.903	7.585	0.095	-0.070
-238.888	-26.411	-0.057	0.033
-237.873	-200.000	0.000	0.224
-236.859	12.992	0.091	-0.070
-235.844	-125.364	0.151	-0.023
-234.830	-171.741	0.189	0.006
-233.815	-122.539	-0.069	0.011
-232.800	800.000	0.106	0.324
-231.786	800.000	0.032	0.121
-230.771	-61.458	0.060	0.025
-229.757	-155.018	-0.235	0.015
-228.742	-200.000	-0.011	-0.102
-227.727	-159.253	-0.118	0.007
-226.713	-153.985	-0.569	0.039
-225.698	-123.792	0.301	0.047
-224.684	-109.474	0.242	0.051
-223.669	112.752	-0.151	-0.182
-222.655	-200.000	-0.001	-0.192
-221.640	41.267	-0.218	-0.196
-220.625	78.398	0.106	0.112
-219.611	197.865	0.217	-0.330
-218.596	233.885	0.142	0.231
-217.582	800.000	0.006	-0.025
-216.567	-6.939	0.214	-0.144
-215.552	-1.893	0.161	-0.113
-214.538	-135.585	0.090	-0.011
-213.523	-30.626	-0.066	0.037
-212.509	-102.574	0.194	-0.046
-211.494	-200.000	-0.000	-0.100
-210.479	-67.361	-0.208	-0.081
-209.465	-107.739	-0.172	0.037
-208.450	64.124	-0.096	0.096
-207.436	-80.504	-0.519	-0.172
-206.421	-86.494	0.284	-0.086
-205.406	-144.715	-0.386	0.035
-204.392	-200.000	-0.024	0.104
-203.377	72.456	0.212	0.219
-202.363	-154.124	-0.228	-0.015
-201.348	143.037	0.066	-0.087
-200.333	800.000	-0.091	0.346
-199.319	32.210	0.144	0.123
-198.304	398.762	0.047	0.098
-197.290	-200.000	0.065	0.335
-196.275	800.000	0.096	0.297
-195.260	-50.850	-0.611	0.285
-194.246	-18.249	0.375	0.233
-193.231	-97.919	-0.136	-0.035
-192.217	243.493	-0.068	-0.113
-191.202	-62.704	-0.188	0.077
-190.187	320.294	-0.101	0.190
-189.173	-200.000	0.019	0.084
-188.158	-200.000	0.053	-0.259
-187.144	97.956	-0.108	0.123
-186.129	-52.435	0.518	-0.238
-185.114	800.000	0.054	-0.219
-184.100	800.000	-0.048	0.154
-183.085	65.470	0.055	-0.055
-182.071	-58.633	-0.132	0.057
-181.056	-100.845	-0.132	0.032
-180.042	-144.836	0.236	-0.021
-179.027	800.000	0.043	-0.130
-178.012	368.039	0.059	-0.117
-176.998	220.539	-0.081	0.129
-175.983	77.247	-0.105	0.111
-174.969	-200.000	0.006	-0.152
-173.954	-82.047	0.207	0.067
-172.939	-37.720	-0.129	0.068
-171.925	389.233	0.090	-0.185
-170.910	800.000	-0.040	0.131
-169.896	42.535	-0.144	-0.130
-168.881	-124.535	0.495	0.076
-167.866	43.484	0.101	0.091
-166.852	-15.987	0.217	0.137
-165.837	-200.000	-0.059	0.410
-164.823	32.298	-0.144	-0.123
-163.808	31.560	0.310	-0.264
-162.793	54.114	0.400	0.381
-161.779	-126.357	0.178	0.026
-160.764	31.587	-0.169	-0.144
-159.750	-57.448	0.357	0.155
-158.735	-71.566	0.122	0.045
-157.720	-84.576	-0.211	-0.066
-156.706	800.000	0.098	0.268
-155.691	-130.477	0.172	-0.023
-154.677	-86.099	-0.205	-0.063
-153.662	-200.000	0.042	0.226
-152.647	-200.000	0.015	0.196
-151.633	233.807	-0.071	-0.115
-150.618	-48.337	-0.130	-0.062
-149.604	112.897	-0.163	-0.196
-148.589	-200.000	-0.003	-0.052
-147.574	-43.883	0.129	0.064
-146.560	-4.608	0.314	-0.215
-145.545	600.172	0.026	-0.064
-144.531	-3.026	0.171	0.118
-143.516	-9.849	-0.096	0.063
-142.502	182.567	0.194	0.284
-141.487	84.526	-0.124	-0.135
-140.472	-122.151	0.371	0.060
-139.458	800.000	-0.092	0.347
-138.443	-9.758	-0.060	0.040
-137.429	-200.000	0.049	-0.267
-136.414	-200.000	-0.008	-0.109
-135.399	19.993	-0.321	0.256
-134.385	-200.000	0.023	-0.139
-133.370	337.262	0.003	-0.006
-132.356	-200.000	0.032	-0.281
-131.341	-200.000	0.061	-0.489
-130.326	-200.000	-0.037	-0.364
-129.312	-18.439	0.175	0.108
-128.297	800.000	-0.059	-0.169
-127.283	126.556	-0.179	0.224
-126.268	-84.547	-0.416	0.130
-125.253	121.047	-0.055	0.067
-124.239	446.070	0.176	-0.383
-123.224	800.000	0.191	0.590
-122.210	-39.192	0.180	0.093
-121.195	-200.000	-0.011	0.263
-120.180	-3.785	-0.353	0.242
-119.166	28.341	-0.127	-0.107
-118.151	-100.985	-0.213	0.052
-117.137	-200.000	0.030	0.139
-116.122	64.055	0.333	-0.331
-115.107	-108.495	-0.334	-0.071
-114.093	-75.845	-0.509	0.179
-113.078	-135.736	0.203	-0.024
-112.064	84.651	0.049	0.053
-111.049	-200.000	0.023	-0.263
-110.034	-200.000	0.016	0.185
-109.020	-77.867	0.264	-0.090
-108.005	-200.000	0.060	0.452
-106.991	-200.000	0.003	0.238
-105.976	800.000	0.146	-0.451
-104.962	116.955	0.135	0.163
-103.947	-200.000	0.018	-0.304
-102.932	-45.487	-0.342	0.168
-101.918	82.064	-0.216	-0.231
-100.903	7.905	-0.196	0.145
-99.889	342.423	-0.135	-0.262
-98.874	243.516	0.178	-0.295
-97.859	-200.000	0.010	-0.111
-96.845	3.483	-0.065	0.047
-95.830	800.000	-0.120	-0.428
-94.816	-200.000	0.010	0.089
-93.801	800.000	0.074	-0.212
-92.786	21.170	-0.110	-0.088
-91.772	-130.146	-0.251	0.034
-90.757	51.226	0.099	0.093
-89.743	-200.000	0.019	0.084
-88.728	72.830	0.098	-0.101
-87.713	403.844	-0.072	-0.150
-86.699	297.476	-0.021	-0.039
-85.684	119.516	-0.116	0.142
-84.670	89.405	0.167	-0.184
-83.655	122.166	0.195	0.240
-82.640	-68.597	-0.279	0.107
-81.626	-200.000	-0.008	-0.147
-80.611	29.120	-0.213	-0.178
-79.597	-90.516	-0.306	-0.087
-78.582	800.000	0.078	-0.332
-77.567	800.000	0.080	0.278
-76.553	239.076	0.092	-0.151
-75.538	-200.000	0.003	-0.274
-74.524	-200.000	-0.061	-0.284
-73.509	293.203	0.110	-0.199
-72.494	208.016	-0.050	0.078
-71.480	800.000	0.087	-0.334
-70.465	-106.062	-0.125	-0.028
-69.451	-200.000	0.003	0.065
-68.436	-200.000	0.026	0.137
-67.422	-79.567	-0.142	0.047
-66.407	68.949	0.189	-0.192
-65.392	-43.351	0.171	0.086
-64.378	-116.740	-0.164	0.030
-63.363	-128.078	0.170	-0.024
-62.349	-88.055	-0.208	-0.062
-61.334	53.480	-1.073	-1.016
-60.319	43.673	0.668	0.603
-59.305	800.000	-0.310	-1.089
-58.290	800.000	0.350	1.225
-57.276	347.215	0.765	1.487
-56.261	-200.000	97.358	595.997
-55.246	630.441	1417.107	3537.480
-54.232	187.431	2608.549	3839.484
-53.217	120.956	2174.467	2668.626
-52.203	44.681	1624.261	1473.476
-51.188	36.155	1358.850	1180.732
-50.173	32.989	1316.143	1124.763
-49.159	56.686	1362.989	1308.601
-48.144	58.809	1379.980	1337.669
-47.130	36.449	1338.075	1164.268
-46.115	32.840	1320.757	1127.636
-45.100	32.672	1315.518	1122.117
-44.086	32.505	1313.463	1119.329
-43.071	32.637	1310.454	1117.501
-42.057	32.572	1309.271	1116.066
-41.042	32.599	1307.618	1114.768
-40.027	32.605	1305.935	1113.325
-39.013	32.603	1304.145	1111.747
-37.998	32.556	1302.153	1109.726
-36.984	32.705	1300.435	1109.096
-35.969	32.693	1298.940	1107.708
-34.954	32.741	1296.800	1106.115
-33.940	32.916	1295.123	1105.666
-32.925	32.862	1294.105	1104.438
-31.911	32.741	1292.724	1102.510
-30.896	32.693	1291.814	1101.406
-29.881	32.913	1289.522	1100.697
-28.867	32.841	1288.574	1099.424
-27.852	32.817	1287.243	1098.103
-26.838	32.824	1285.706	1096.787
-25.823	32.833	1284.356	1095.645
-24.809	32.797	1282.762	1094.034
-23.794	32.767	1281.623	1092.848
-22.779	32.815	1280.646	1092.249
-21.765	32.774	1279.031	1090.590
-20.750	32.774	1278.073	1089.729
-19.736	32.664	1276.889	1088.039
-18.721	32.724	1275.180	1086.886
-17.706	32.550	1274.624	1085.366
-16.692	32.590	1273.505	1084.605
-15.677	32.618	1272.276	1083.671
-14.663	32.553	1270.921	1082.105
-13.648	32.586	1269.765	1081.263
-12.633	32.700	1268.885	1081.125
-11.619	32.603	1268.283	1080.012
-10.604	32.550	1267.614	1079.101
-9.590	32.628	1265.939	1078.074
-8.575	32.590	1265.363	1077.325
-7.560	32.529	1264.482	1076.183
-6.546	32.524	1264.007	1075.708
-5.531	32.520	1263.068	1074.846
-4.517	32.777	1261.237	1074.711
-3.502	32.553	1261.047	1073.225
-2.487	32.646	1259.871	1072.711
-1.473	32.593	1256.494	1069.495
-0.458	31.720	1241.652	1051.921
0.556	27.294	1224.300	1015.821
1.571	23.711	1230.673	1000.865
2.586	22.789	1245.874	1007.878
3.600	22.188	1233.909	994.709
4.615	16.959	1161.609	908.413
5.629	8.880	1086.324	808.844
6.644	5.285	1066.309	776.040
7.659	4.981	1063.405	772.353
8.673	4.875	1062.304	770.957
9.688	4.770	1061.326	769.661
10.702	5.061	1059.980	770.053
11.717	10.084	1067.131	800.091
12.731	17.201	1076.977	842.833
13.746	19.299	1078.183	854.109
14.761	18.182	1075.865	846.670
15.775	16.911	1074.435	839.185
16.790	15.875	1071.854	831.977
17.804	15.081	1070.681	827.073
18.819	14.771	1069.580	824.620
19.834	14.555	1068.315	822.506
20.848	14.337	1067.508	820.737
21.863	14.127	1066.717	819.022
22.877	14.024	1065.466	817.481
23.892	13.992	1065.436	817.228
24.907	14.029	1064.818	816.865
25.921	13.995	1063.492	815.608
26.936	14.013	1062.087	814.550
27.950	13.983	1060.681	813.252
28.965	14.165	1059.155	812.898
29.980	14.205	1057.391	811.667
30.994	14.164	1056.620	810.805
32.009	14.226	1055.743	810.363
33.023	14.233	1054.698	809.522
34.038	14.195	1053.534	808.373
35.053	14.196	1052.481	807.497
36.067	14.184	1051.481	806.599
37.082	14.151	1050.829	805.869
38.096	14.197	1050.107	805.465
39.111	14.232	1049.825	805.349
40.126	14.097	1048.177	803.361
41.140	14.006	1046.761	801.763
42.155	13.799	1046.052	800.154
43.169	13.802	1045.011	799.300
44.184	13.866	1043.509	798.390
45.199	13.910	1042.565	797.807
46.213	14.014	1041.625	797.514
47.228	14.079	1040.847	797.164
48.242	14.161	1039.492	796.447
49.257	14.108	1038.806	795.595
50.271	14.150	1038.160	795.230
51.286	14.169	1037.008	794.371
52.301	14.121	1036.044	793.332
53.315	14.012	1035.054	791.983
54.330	13.917	1034.159	790.777
55.344	13.929	1033.045	789.910
56.359	13.979	1032.102	789.360
57.374	13.813	1031.779	788.253
58.388	13.953	1030.557	787.912
59.403	13.837	1029.919	786.809
60.417	13.893	1029.137	786.407
61.432	13.948	1027.976	785.710
62.447	13.920	1027.326	785.012
63.461	13.816	1026.535	783.846
64.476	13.771	1025.525	782.793
65.490	13.843	1024.896	782.581
66.505	13.873	1023.863	781.866
67.520	13.727	1023.725	781.004
68.534	13.927	1022.250	780.749
69.549	13.774	1022.080	779.832
70.563	13.763	1021.186	779.030
71.578	13.763	1020.399	778.362
72.593	13.751	1019.557	777.590
73.607	13.784	1018.441	776.829
74.622	13.607	1018.487	775.962
75.636	13.752	1017.503	775.824
76.651	13.701	1016.832	775.006
77.666	13.775	1016.289	774.869
78.680	13.816	1015.388	774.303
79.695	13.668	1014.974	773.230
80.709	13.891	1014.419	773.778
81.724	13.937	1013.503	773.227
82.739	13.919	1012.896	772.609
83.753	14.104	1012.429	773.043
84.768	14.213	1011.380	772.684
85.782	14.380	1009.635	772.056
86.797	14.256	1009.173	771.059
87.812	14.141	1008.250	769.753
88.826	14.116	1006.684	768.373
89.841	14.131	1006.514	768.246
90.855	14.232	1005.453	767.832
91.870	14.249	1004.819	767.361
92.884	14.344	1003.975	767.085
93.899	14.237	1002.872	765.681
94.914	14.341	1001.978	765.410
95.928	14.336	1001.138	764.676
96.943	14.150	1000.568	763.320
97.957	14.240	999.837	763.108
98.972	14.187	998.881	762.067
99.987	14.217	998.126	761.564
101.001	14.139	996.834	760.155
102.016	14.104	996.478	759.655
103.030	14.209	995.196	759.089
104.045	14.227	994.919	758.894
105.060	14.201	993.778	757.836
106.074	13.992	993.085	756.291
107.089	13.895	991.838	754.831
108.103	13.980	990.741	754.318
109.118	13.890	990.379	753.566
110.133	13.945	989.020	752.714
111.147	13.924	988.375	752.061
112.162	13.912	987.970	751.633
113.176	13.904	986.888	750.706
114.191	14.109	986.198	751.041
115.206	14.052	985.376	750.093
116.220	14.064	984.266	749.236
117.235	14.069	983.424	748.550
118.249	14.147	982.197	747.902
119.264	13.974	981.665	746.652
120.279	13.914	980.985	745.800
121.293	13.851	980.432	745.028
122.308	13.793	979.932	744.322
123.322	13.984	978.227	743.820
124.337	13.940	977.241	742.805
125.352	14.040	976.090	742.312
126.366	13.883	975.126	740.814
127.381	13.955	974.101	740.289
128.395	13.986	973.649	740.018
129.410	13.922	972.711	738.957
130.424	13.962	971.737	738.328
131.439	13.986	971.461	738.161
132.454	14.151	970.373	738.001
133.468	14.116	969.309	736.968
134.483	14.072	969.017	736.487
135.497	14.124	967.736	735.678
136.512	14.176	967.131	735.384
137.527	14.009	966.257	733.917
138.541	14.255	965.388	734.276
139.556	14.164	965.239	733.696
140.570	14.210	964.163	733.017
141.585	14.287	963.359	732.680
142.600	14.313	962.810	732.311
143.614	14.371	961.481	731.489
144.629	14.179	961.265	730.421
145.643	14.271	959.821	729.663
146.658	14.110	958.833	728.139
147.673	14.235	957.941	727.944
148.687	14.140	957.322	726.993
149.702	14.196	956.174	726.302
150.716	14.045	955.842	725.328
151.731	14.213	954.939	725.309
152.746	14.174	954.139	724.471
153.760	14.246	953.511	724.242
154.775	14.251	952.663	723.555
155.789	14.391	952.157	723.714
156.804	14.385	951.675	723.257
157.819	14.293	951.363	722.557
158.833	14.457	950.329	722.418
159.848	14.528	949.320	721.895
160.862	14.459	948.172	720.662
161.877	14.349	947.500	719.612
162.892	14.138	946.929	718.204
163.906	14.255	945.580	717.621
164.921	14.230	944.961	716.979
165.935	14.328	944.018	716.623
166.950	14.407	943.118	716.217
167.964	14.461	941.902	715.461
168.979	14.302	941.446	714.367
169.994	14.456	940.327	714.117
171.008	14.469	939.657	713.601
172.023	14.529	939.018	713.308
173.037	14.574	938.306	712.898
174.052	14.485	937.744	712.026
175.067	14.455	936.926	711.213
176.081	14.345	936.521	710.375
177.096	14.343	935.890	709.827
178.110	14.450	935.567	709.972
179.125	14.348	934.658	708.785
180.140	14.529	933.794	708.836
181.154	14.531	933.592	708.628
182.169	14.491	933.620	708.418
183.183	14.559	932.845	708.058
184.198	14.700	931.423	707.511
185.213	14.750	930.666	707.085
186.227	14.486	930.610	705.863
187.242	14.736	929.784	706.233
188.256	14.699	929.349	705.682
189.271	14.638	928.794	704.940
190.286	14.599	927.336	703.609
191.300	14.340	926.890	702.117
192.315	14.286	926.343	701.412
193.329	14.558	925.613	701.940
194.344	14.474	925.193	701.209
195.359	14.615	924.375	701.117
196.373	14.659	923.911	700.887
197.388	14.683	923.817	700.857
198.402	14.779	923.148	700.690
199.417	15.061	922.187	701.078
200.432	14.958	921.774	700.270
201.446	14.839	921.695	699.650
202.461	15.012	920.753	699.597
203.475	15.059	919.905	699.088
204.490	14.875	919.417	697.889
205.504	14.905	918.379	697.164
206.519	14.839	917.936	696.488
207.534	14.879	917.087	695.951
208.548	14.798	916.455	695.073
209.563	14.810	916.038	694.744
210.577	14.885	915.401	694.511
211.592	15.010	914.464	694.260
212.607	15.039	913.622	693.678
213.621	15.134	912.682	693.295
214.636	14.997	912.400	692.455
215.650	15.048	911.787	692.140
216.665	15.139	910.580	691.535
217.680	15.257	909.968	691.497
218.694	15.211	909.448	690.850
219.709	15.141	908.826	690.029
220.723	15.355	907.686	689.981
221.738	15.098	907.844	688.984
222.753	15.178	906.885	688.525
223.767	15.189	906.000	687.834
224.782	15.320	905.841	688.192
225.796	15.272	905.511	687.683
226.811	15.157	904.773	686.591
227.826	15.130	904.071	685.886
228.840	15.105	903.047	684.948
229.855	15.214	901.942	684.494
230.869	15.047	901.599	683.490
231.884	15.023	900.914	682.814
232.899	15.199	900.183	682.918
233.913	15.158	899.421	682.110
234.928	15.245	898.451	681.671
235.942	15.064	898.467	680.884
236.957	15.244	897.042	680.476
237.972	15.197	896.995	680.189
238.986	15.096	896.844	679.605
240.001	15.139	895.948	679.037
241.015	15.151	895.494	678.685
242.030	15.283	894.560	678.451
243.045	15.351	893.979	678.224
244.059	15.324	893.637	677.797
245.074	15.399	892.699	677.327
246.088	15.406	892.261	676.962
247.103	15.372	891.656	676.309
248.117	15.438	891.121	676.109
249.132	15.672	890.281	676.353
250.147	15.730	889.628	676.029
251.161	15.750	888.903	675.499
252.176	15.682	888.352	674.747
253.190	15.725	887.947	674.553
254.205	15.801	887.410	674.390
255.220	15.992	886.075	674.081
256.234	15.877	885.809	673.358
257.249	15.854	885.166	672.717
258.263	15.803	884.710	672.107
259.278	15.787	884.119	671.533
260.293	15.822	883.349	671.029
261.307	15.942	883.060	671.229
262.322	15.933	882.458	670.679
263.336	15.834	881.606	669.575
264.351	16.070	880.677	669.749
265.366	15.911	880.318	668.787
266.380	16.023	879.460	668.521
267.395	16.012	878.481	667.674
268.409	15.878	878.138	666.820
269.424	15.945	877.297	666.391
270.439	16.049	876.390	666.053
271.453	15.943	875.865	665.176
272.468	15.825	875.550	664.410
273.482	15.947	874.840	664.294
274.497	15.929	874.614	663.994
275.512	15.816	874.299	663.252
276.526	15.995	873.313	663.147
277.541	15.912	872.897	662.448
278.555	16.147	872.473	662.992
279.570	16.151	871.863	662.486
280.585	16.187	870.635	661.634
281.599	16.037	870.505	660.890
282.614	16.150	869.320	660.374
283.628	15.965	868.754	659.159
284.643	16.018	868.342	658.998
285.657	16.132	867.491	658.737
286.672	16.007	867.055	657.861
287.687	16.031	866.438	657.427
288.701	16.217	865.615	657.469
289.716	16.157	865.647	657.204
290.730	16.278	864.615	656.832
291.745	16.247	864.254	656.377
292.760	16.254	863.848	656.038
293.774	16.369	862.973	655.763
294.789	16.332	862.058	654.868
295.803	16.213	861.528	653.943
296.818	16.306	860.761	653.664
297.833	16.201	860.361	652.896
298.847	16.309	859.827	652.853
299.862	16.306	859.061	652.203
300.876	16.383	858.783	652.229
301.891	16.473	858.190	652.068
302.906	16.440	857.379	651.268
303.920	16.647	856.766	651.539
304.935	16.698	855.973	651.078
305.949	16.552	855.737	650.277
306.964	16.548	855.186	649.785
307.979	16.409	854.850	648.941
308.993	16.694	854.110	649.414
310.008	16.502	853.441	648.114
311.022	16.513	853.310	647.997
312.037	16.499	852.531	647.295
313.052	16.425	851.660	646.295
314.066	16.435	850.959	645.741
315.081	16.509	850.373	645.524
316.095	16.475	849.720	644.842
317.110	16.396	848.979	643.921
318.125	16.461	848.887	644.042
319.139	16.523	848.584	643.990
320.154	16.486	848.056	643.392
321.168	16.697	847.275	643.546
322.183	16.584	846.757	642.663
323.197	16.666	846.256	642.539
324.212	16.529	845.633	641.491
325.227	16.703	845.109	641.693
326.241	16.604	844.917	641.116
327.256	16.614	844.026	640.422
328.270	16.576	843.591	639.893
329.285	16.459	843.072	638.998
330.300	16.609	842.267	638.897
331.314	16.723	841.449	638.650
332.329	16.700	841.092	638.239
333.343	16.679	841.004	638.035
334.358	16.720	840.473	637.730
335.373	16.700	840.210	637.399
336.387	16.833	839.922	637.624
337.402	16.909	839.677	637.667
338.416	16.748	839.693	637.019
339.431	16.789	839.107	636.669
340.446	16.937	838.175	636.465
341.460	16.875	838.408	636.352
342.475	17.064	837.703	636.467
343.489	17.103	837.338	636.281
344.504	17.108	836.640	635.712
345.519	16.978	836.198	634.835
346.533	16.961	835.604	634.264
347.548	16.946	835.202	633.848
348.562	16.903	834.665	633.222
349.577	17.040	833.512	632.804
350.592	16.996	833.342	632.452
351.606	16.975	832.494	631.677
352.621	16.944	831.778	630.960
353.635	17.064	831.227	630.932
354.650	17.047	830.570	630.314
355.665	17.108	829.892	629.972
356.679	17.067	829.506	629.470
357.694	17.187	828.704	629.252
358.708	17.191	828.419	628.992
359.723	17.117	827.742	628.151
360.738	17.251	827.007	628.033
361.752	17.257	826.501	627.614
362.767	17.235	826.182	627.235
363.781	17.297	825.962	627.242
364.796	17.384	825.010	626.783
365.810	17.490	824.840	626.991
366.825	17.478	824.457	626.598
367.840	17.534	824.038	626.433
368.854	17.484	823.118	625.493
369.869	17.416	822.906	625.027
370.883	17.435	822.458	624.702
371.898	17.475	822.396	624.745
372.913	17.484	821.936	624.375
373.927	17.404	821.139	623.418
374.942	17.440	820.908	623.323
375.956	17.578	820.543	623.496
376.971	17.549	820.462	623.272
377.986	17.741	819.628	623.282
379.000	17.732	819.017	622.731
380.015	17.682	818.681	622.238
381.029	17.738	817.905	621.796
382.044	17.657	817.418	621.076
383.059	17.753	816.722	620.843
384.073	17.629	816.678	620.303
385.088	17.559	815.719	619.266
386.102	17.629	814.873	618.821
387.117	17.574	814.715	618.448
388.132	17.520	814.028	617.674
389.146	17.579	813.666	617.562
390.161	17.824	812.931	617.833
391.175	17.892	812.554	617.740
392.190	17.780	811.786	616.698
393.205	17.781	811.082	616.112
394.219	17.642	811.190	615.637
395.234	17.635	810.765	615.233
396.248	17.524	810.197	614.348
397.263	17.710	809.493	614.429
398.278	17.561	809.431	613.793
399.292	17.592	808.930	613.468
400.307	17.678	808.484	613.385
401.321	17.638	808.197	612.972
402.336	17.643	807.821	612.648
403.350	17.751	807.130	612.460
404.365	17.799	806.742	612.281
405.380	17.977	805.923	612.245
406.394	18.115	805.606	612.443
407.409	18.048	805.170	611.819
408.423	18.038	805.057	611.643
409.438	18.046	804.902	611.499
410.453	18.107	804.388	611.273
411.467	18.223	803.859	611.233
412.482	18.079	803.799	610.619
413.496	18.193	803.428	610.687
414.511	18.319	802.361	610.273
415.526	18.125	802.886	609.925
416.540	18.182	801.957	609.371
417.555	18.062	801.723	608.711
418.569	18.029	801.254	608.183
419.584	18.288	800.472	608.456
420.599	18.260	799.884	607.856
421.613	154.576	1370.776	1792.206
422.628	133.954	1453.968	1792.322
