DTS Sentinel unit serial number:	SN413079Multiplexer serial number:	ORYXHardware model number:	OX4-SRSoftware version number:	ORYX F/W v4.00 Oryx Data Collector v3.7.2.0data status	okinstallation	princeton_trtdifferential loss correction	single-endedforward channel	channel 1reverse channel	N/Adate	2019/09/15time	10:26:35forward acquisition time	60.00reverse acquisition time	0.00gamma	496.2192k internal	0.2309k external	0.2309temperature offset calibration	0.9989default loss term (dB/km)	0.3790temperature slope calibration	1.0000multiplexer offset coefficient	1.0000multiplexer slope coefficient	1.0000fibre end	0.00T internal ref (°C)	34.25T ext. ref 1 (°C)	5.04T ext. ref 2 (°C)	29.48length (m)	temperature (°C)	Stokes	anti-Stokes-747.200	-160.347	-0.156	-0.009
-746.185	-171.952	-0.458	0.015
-745.171	-200.000	0.010	-0.179
-744.156	-114.177	-0.128	0.025
-743.142	182.335	-0.205	0.307
-742.127	-92.802	-0.374	-0.106
-741.112	265.869	0.076	0.134
-740.098	157.192	-0.166	0.233
-739.083	-88.206	0.118	0.036
-738.069	177.888	0.134	-0.198
-737.054	-72.890	-0.432	-0.161
-736.039	-135.778	-0.452	-0.054
-735.025	-66.585	0.218	-0.088
-734.010	20.916	-0.409	-0.337
-732.996	-200.000	-0.026	0.178
-731.981	223.794	-0.073	0.120
-730.966	313.373	0.101	0.193
-729.952	268.103	-0.080	0.143
-728.937	-200.000	-0.015	-0.291
-727.923	-200.000	-0.037	-0.202
-726.908	-200.000	-0.049	0.260
-725.894	26.252	-0.261	0.222
-724.879	163.410	-0.088	-0.126
-723.864	-200.000	0.046	-0.279
-722.850	-200.000	0.091	-0.467
-721.835	-114.342	-0.257	-0.050
-720.821	322.173	0.059	-0.114
-719.806	34.435	-0.223	0.198
-718.791	-199.361	-0.150	-0.001
-717.777	-200.000	0.005	-0.206
-716.762	-191.882	0.278	0.003
-715.748	-94.835	-0.230	-0.063
-714.733	115.116	-0.159	-0.197
-713.718	-78.378	-0.230	0.080
-712.704	-92.516	-0.439	-0.125
-711.689	800.000	-0.048	-0.135
-710.675	78.810	0.174	-0.189
-709.660	-106.643	-0.413	0.093
-708.645	-89.933	-0.171	0.051
-707.631	-164.091	0.214	0.010
-706.616	-37.490	-0.110	0.060
-705.602	-200.000	-0.023	-0.174
-704.587	180.704	0.064	0.096
-703.572	309.445	0.147	0.278
-702.558	175.874	-0.093	-0.136
-701.543	-94.426	-0.128	-0.035
-700.529	283.176	0.150	0.274
-699.514	110.093	-0.110	0.134
-698.499	551.579	-0.082	-0.199
-697.485	242.235	-0.023	-0.040
-696.470	509.001	0.100	-0.237
-695.456	-200.000	-0.064	0.382
-694.441	273.648	0.145	0.259
-693.426	-132.163	0.218	-0.029
-692.412	426.979	0.065	0.141
-691.397	-99.824	0.239	-0.061
-690.383	43.482	-0.072	0.066
-689.368	22.914	0.265	-0.220
-688.354	-23.096	-0.082	-0.050
-687.339	-12.771	-0.294	0.194
-686.324	48.183	-0.191	-0.181
-685.310	-9.771	-0.248	0.167
-684.295	-200.000	0.050	0.263
-683.281	-89.884	-0.264	-0.078
-682.266	-200.000	-0.057	-0.341
-681.251	-200.000	0.040	-0.225
-680.237	158.825	0.162	-0.227
-679.222	-108.995	-0.349	0.075
-678.208	3.071	-0.114	-0.084
-677.193	-200.000	0.007	-0.275
-676.178	-200.000	0.067	-0.308
-675.164	-68.243	0.217	-0.085
-674.149	-147.575	-0.149	0.013
-673.135	76.261	0.058	-0.062
-672.120	-200.000	0.034	0.241
-671.105	-16.996	-0.136	0.087
-670.091	46.107	-0.234	-0.219
-669.076	-179.390	-0.305	0.007
-668.062	24.446	0.029	0.024
-667.047	800.000	-0.058	0.176
-666.032	-112.687	0.058	-0.012
-665.018	213.163	-0.128	0.205
-664.003	6.073	0.073	0.055
-662.989	331.389	0.080	0.156
-661.974	-63.342	-0.190	-0.079
-660.959	518.690	-0.106	-0.251
-659.945	378.764	-0.203	0.422
-658.930	-12.684	-0.105	-0.069
-657.916	229.988	-0.058	0.095
-656.901	3.196	0.325	-0.240
-655.886	-40.611	-0.120	-0.063
-654.872	8.810	-0.090	0.069
-653.857	277.140	0.118	0.212
-652.843	491.923	-0.168	0.389
-651.828	197.807	0.152	-0.235
-650.814	-200.000	0.028	-0.335
-649.799	252.282	-0.269	-0.464
-648.784	-200.000	0.002	-0.154
-647.770	-145.815	0.260	0.023
-646.755	800.000	-0.117	0.458
-645.741	-200.000	-0.041	-0.345
-644.726	414.437	-0.082	0.178
-643.711	383.395	-0.235	0.489
-642.697	800.000	-0.033	0.132
-641.682	-94.692	0.314	0.086
-640.668	800.000	-0.080	-0.241
-639.653	-200.000	0.007	0.076
-638.638	-43.036	-0.160	0.082
-637.624	-56.604	-0.355	0.159
-636.609	-122.985	-0.312	0.051
-635.595	103.363	-0.171	0.202
-634.580	36.437	-0.173	-0.154
-633.565	138.896	-0.125	0.166
-632.551	800.000	-0.027	0.110
-631.536	36.883	0.074	-0.066
-630.522	44.981	0.196	-0.183
-629.507	-30.284	0.149	-0.086
-628.492	54.736	-0.137	-0.133
-627.478	-68.380	0.264	-0.104
-626.463	-200.000	0.017	-0.398
-625.449	-200.000	0.007	0.179
-624.434	283.153	0.128	-0.232
-623.419	-129.941	-0.102	0.014
-622.405	41.358	0.417	-0.381
-621.390	-33.206	0.421	-0.236
-620.376	-53.194	-0.257	-0.119
-619.361	623.950	-0.047	0.121
-618.346	-200.000	0.022	-0.268
-617.332	800.000	0.117	0.435
-616.317	-127.361	-0.130	-0.019
-615.303	-200.000	-0.009	0.076
-614.288	-128.050	-0.113	0.016
-613.273	-36.806	-0.139	-0.075
-612.259	-47.271	-0.157	-0.077
-611.244	124.312	-0.219	-0.278
-610.230	-95.900	0.294	0.079
-609.215	-6.189	0.048	-0.033
-608.201	304.074	0.024	0.045
-607.186	289.474	0.054	0.099
-606.171	-200.000	0.018	-0.291
-605.157	36.315	-0.277	-0.246
-604.142	599.961	-0.089	0.223
-603.128	-60.980	0.137	0.059
-602.113	-200.000	0.002	0.055
-601.098	780.829	-0.076	0.211
-600.084	-10.917	-0.237	0.158
-599.069	-171.069	-0.085	0.003
-598.055	-19.703	0.029	-0.018
-597.040	-63.218	0.266	-0.111
-596.025	11.732	-0.098	0.076
-595.011	186.738	-0.105	0.157
-593.996	633.536	0.091	-0.233
-592.982	-111.614	0.427	0.088
-591.967	9.895	0.373	-0.286
-590.952	-200.000	-0.008	-0.127
-589.938	720.404	0.071	0.190
-588.923	11.818	0.189	0.147
-587.909	132.856	0.150	0.196
-586.894	-104.824	-0.207	-0.048
-585.879	396.240	0.008	-0.017
-584.865	-81.215	-0.108	-0.036
-583.850	130.853	0.064	-0.083
-582.836	512.262	0.014	0.032
-581.821	52.610	-0.119	0.115
-580.806	-24.866	0.203	0.122
-579.792	11.925	-0.164	0.127
-578.777	-123.432	-0.611	-0.098
-577.763	800.000	-0.066	-0.258
-576.748	26.112	-0.126	-0.106
-575.733	-200.000	0.036	0.245
-574.719	-200.000	0.026	0.125
-573.704	800.000	0.084	0.293
-572.690	800.000	-0.068	0.195
-571.675	-147.356	-0.588	-0.050
-570.661	103.260	0.067	-0.079
-569.646	153.071	0.221	-0.305
-568.631	-11.220	0.147	-0.098
-567.617	-200.000	-0.031	0.152
-566.602	-84.411	0.321	0.102
-565.588	437.773	0.007	-0.015
-564.573	56.651	-0.232	0.228
-563.558	148.079	0.104	0.142
-562.544	-200.000	0.031	0.159
-561.529	-111.051	0.131	0.027
-560.515	8.374	-0.161	0.122
-559.500	-46.130	-0.394	-0.196
-558.485	85.336	0.057	-0.063
-557.471	-51.136	-0.246	-0.116
-556.456	-72.316	0.127	-0.047
-555.442	-131.914	-0.269	0.035
-554.427	800.000	0.041	0.118
-553.412	-79.592	-0.105	-0.036
-552.398	-55.909	-0.359	0.162
-551.383	185.238	0.104	-0.156
-550.369	630.818	-0.092	-0.234
-549.354	9.023	-0.130	0.099
-548.339	74.664	-0.216	0.230
-547.325	-84.633	0.076	0.024
-546.310	-165.961	-0.283	-0.012
-545.296	587.358	0.069	0.172
-544.281	-144.533	0.314	-0.029
-543.266	800.000	0.060	-0.168
-542.252	-200.000	-0.022	-0.109
-541.237	800.000	-0.016	-0.070
-540.223	800.000	-0.089	-0.287
-539.208	-142.090	-0.232	0.023
-538.193	-200.000	-0.020	-0.256
-537.179	800.000	-0.050	0.170
-536.164	-73.741	-0.181	0.066
-535.150	-108.581	0.088	-0.019
-534.135	217.484	-0.107	-0.172
-533.121	-61.626	-0.113	-0.048
-532.106	800.000	-0.086	0.246
-531.091	16.840	-0.251	-0.200
-530.077	800.000	-0.160	-0.492
-529.062	550.060	0.023	-0.055
-528.048	23.862	-0.111	0.092
-527.033	-59.741	0.309	0.133
-526.018	546.826	-0.106	-0.256
-525.004	221.753	0.118	-0.191
-523.989	-161.602	0.269	0.014
-522.975	-57.412	-0.274	-0.121
-521.960	-132.034	-0.244	-0.032
-520.945	-94.629	0.601	0.165
-519.931	47.939	0.227	0.214
-518.916	-200.000	-0.015	0.219
-517.902	116.083	-0.031	-0.038
-516.887	32.762	0.251	-0.219
-515.872	-46.672	0.188	0.093
-514.858	800.000	-0.072	0.200
-513.843	402.864	-0.076	-0.162
-512.829	800.000	0.014	-0.046
-511.814	800.000	-0.114	0.341
-510.799	591.668	-0.088	0.218
-509.785	-86.845	-0.323	-0.099
-508.770	214.067	0.069	0.111
-507.756	-2.948	0.110	0.077
-506.741	-199.880	-0.174	0.001
-505.726	339.230	0.126	-0.248
-504.712	-200.000	0.000	0.120
-503.697	-125.673	-0.238	-0.036
-502.683	67.622	-0.098	0.100
-501.668	-78.546	-0.131	-0.045
-500.653	-200.000	-0.050	0.568
-499.639	-16.846	-0.074	-0.047
-498.624	35.886	0.067	-0.059
-497.610	120.954	-0.200	0.251
-496.595	800.000	0.076	-0.290
-495.581	-200.000	-0.025	0.166
-494.566	-200.000	-0.004	0.228
-493.551	-129.464	0.121	-0.017
-492.537	800.000	-0.122	-0.351
-491.522	-14.015	0.110	-0.071
-490.508	800.000	0.054	0.201
-489.493	800.000	0.073	0.293
-488.478	3.043	0.073	0.053
-487.464	-152.849	-0.151	0.011
-486.449	80.184	0.293	0.317
-485.435	60.523	-0.126	0.125
-484.420	198.366	0.016	0.024
-483.405	-106.942	-0.286	0.064
-482.391	-41.160	0.116	-0.060
-481.376	-200.000	-0.030	0.182
-480.362	45.723	0.100	-0.093
-479.347	131.276	0.136	-0.176
-478.332	-200.000	-0.067	0.313
-477.318	-87.723	0.176	0.053
-476.303	75.972	0.024	0.026
-475.289	195.310	0.146	0.223
-474.274	268.143	0.148	-0.261
-473.259	-81.853	0.122	0.040
-472.245	800.000	-0.085	0.241
-471.230	800.000	-0.122	0.474
-470.216	4.204	-0.263	-0.193
-469.201	-200.000	0.068	-0.325
-468.186	208.188	-0.125	0.197
-467.172	-200.000	0.024	-0.141
-466.157	214.839	0.166	0.264
-465.143	-200.000	-0.023	-0.132
-464.128	-200.000	0.306	-0.001
-463.113	800.000	-0.030	-0.124
-462.099	-88.286	0.248	0.074
-461.084	-153.149	0.235	0.017
-460.070	-73.523	-0.161	0.059
-459.055	83.990	0.134	0.147
-458.040	800.000	-0.119	0.369
-457.026	-59.195	0.361	-0.156
-456.011	222.042	-0.105	-0.170
-454.997	800.000	-0.037	-0.144
-453.982	-200.000	-0.003	0.293
-452.968	-170.101	-0.218	-0.008
-451.953	49.057	0.120	-0.113
-450.938	-130.415	0.282	-0.038
-449.924	338.408	0.043	-0.085
-448.909	800.000	0.154	-0.442
-447.895	-200.000	0.037	-0.191
-446.880	-200.000	0.023	-0.159
-445.865	33.254	0.141	-0.123
-444.851	27.073	-0.281	-0.236
-443.836	800.000	-0.115	-0.345
-442.822	103.043	0.146	-0.171
-441.807	47.813	0.163	-0.153
-440.792	-200.000	-0.006	-0.078
-439.778	249.343	0.095	0.162
-438.763	-60.356	0.124	0.053
-437.749	60.482	0.192	0.191
-436.734	-163.199	-0.205	0.010
-435.719	-36.926	0.091	0.049
-434.705	-200.000	-0.050	0.327
-433.690	-200.000	0.043	0.415
-432.676	-76.096	-0.194	0.069
-431.661	-200.000	0.081	0.405
-430.646	77.172	0.261	-0.278
-429.632	800.000	0.048	-0.167
-428.617	-72.264	-0.236	-0.088
-427.603	65.475	-0.109	0.110
-426.588	-78.028	0.391	0.135
-425.573	41.867	-0.088	-0.080
-424.559	-62.081	0.135	-0.056
-423.544	522.438	0.132	-0.310
-422.530	-200.000	0.009	0.216
-421.515	-193.195	-0.286	-0.003
-420.500	-40.546	-0.211	-0.110
-419.486	265.279	-0.019	-0.034
-418.471	16.872	0.260	-0.207
-417.457	553.932	0.075	0.182
-416.442	-200.000	-0.036	-0.279
-415.428	-106.666	-0.360	0.080
-414.413	-115.043	0.200	-0.038
-413.398	84.457	0.072	0.079
-412.384	-113.553	0.225	-0.044
-411.369	84.528	-0.068	-0.075
-410.355	33.590	0.152	0.132
-409.340	10.676	-0.068	-0.052
-408.325	252.796	0.120	0.206
-407.311	8.978	0.130	0.099
-406.296	-56.862	0.360	-0.159
-405.282	-200.000	0.018	-0.445
-404.267	561.040	-0.086	-0.208
-403.252	-22.120	-0.300	0.183
-402.238	-145.375	-0.165	0.015
-401.223	60.076	-0.232	-0.230
-400.209	-67.784	-0.283	0.111
-399.194	124.282	0.195	0.245
-398.179	331.914	0.080	0.155
-397.165	542.887	0.064	-0.154
-396.150	-71.098	-0.364	-0.137
-395.136	-16.126	0.178	-0.114
-394.121	-141.107	-0.387	0.040
-393.106	-142.394	0.297	0.029
-392.092	-200.000	0.013	0.175
-391.077	-200.000	0.033	0.200
-390.063	110.937	0.204	-0.247
-389.048	-163.646	-0.308	-0.015
-388.033	-16.093	0.144	0.092
-387.019	77.699	0.089	-0.095
-386.004	521.761	-0.075	-0.177
-384.990	30.174	-0.260	0.223
-383.975	-200.000	0.035	-0.257
-382.960	-18.145	0.119	0.075
-381.946	0.351	-0.205	-0.147
-380.931	-77.772	-0.264	-0.091
-379.917	270.046	-0.135	-0.238
-378.902	-200.000	-0.040	0.230
-377.888	170.677	-0.148	0.213
-376.873	-200.000	-0.013	0.083
-375.858	-10.510	0.166	-0.110
-374.844	29.451	-0.172	0.147
-373.829	89.502	-0.189	0.211
-372.815	108.239	0.103	-0.123
-371.800	-19.465	0.128	-0.080
-370.785	-154.067	-0.299	0.020
-369.771	800.000	0.118	-0.405
-368.756	450.790	0.085	-0.187
-367.742	55.221	0.090	0.087
-366.727	-200.000	0.005	-0.056
-365.712	77.493	-0.004	0.004
-364.698	42.695	0.152	0.139
-363.683	-200.000	0.000	0.431
-362.669	-40.979	0.279	-0.144
-361.654	-44.051	-0.193	0.097
-360.639	-200.000	0.042	0.275
-359.625	-167.931	-0.039	-0.002
-358.610	-200.000	-0.032	0.202
-357.596	-71.300	0.204	-0.077
-356.581	554.527	0.211	0.507
-355.566	268.330	-0.060	0.106
-354.552	234.363	-0.258	0.425
-353.537	-200.000	0.039	-0.230
-352.523	-96.460	0.268	-0.071
-351.508	-120.794	0.153	-0.026
-350.493	45.502	0.143	0.132
-349.479	-200.000	0.037	-0.191
-348.464	-101.593	0.283	-0.069
-347.450	264.750	0.214	0.373
-346.435	190.909	0.072	-0.108
-345.420	81.611	0.234	0.253
-344.406	-23.579	0.153	0.092
-343.391	491.349	-0.136	-0.312
-342.377	-174.624	0.161	0.005
-341.362	305.794	-0.079	-0.146
-340.348	-76.553	-0.148	0.052
-339.333	58.253	0.194	-0.191
-338.318	13.266	-0.172	-0.133
-337.304	-200.000	0.053	0.338
-336.289	-18.634	0.325	0.203
-335.275	-80.862	0.061	-0.020
-334.260	-40.923	-0.025	-0.013
-333.245	-86.416	0.040	0.012
-332.231	3.704	0.046	0.034
-331.216	-125.636	-0.124	-0.019
-330.202	23.301	-0.093	0.076
-329.187	-200.000	-0.025	-0.156
-328.172	184.686	0.236	0.350
-327.158	-11.186	0.353	0.232
-326.143	-140.587	-0.187	0.019
-325.129	360.217	0.087	0.174
-324.114	-86.060	-0.353	0.109
-323.099	800.000	0.035	0.099
-322.085	-200.000	-0.017	-0.436
-321.070	-83.967	0.268	-0.085
-320.056	-200.000	-0.033	-0.159
-319.041	157.205	-0.121	0.167
-318.026	105.012	0.070	-0.083
-317.012	482.560	-0.031	0.071
-315.997	-200.000	0.012	0.131
-314.983	-34.463	-0.047	0.026
-313.968	-136.453	0.231	0.027
-312.953	16.450	0.217	0.171
-311.939	-106.104	-0.163	-0.037
-310.924	534.613	-0.009	0.022
-309.910	-129.675	0.329	-0.045
-308.895	-78.775	0.204	0.070
-307.880	-16.420	0.210	-0.133
-306.866	443.744	0.123	-0.270
-305.851	144.788	-0.201	-0.268
-304.837	-59.225	-0.185	0.079
-303.822	800.000	0.060	-0.185
-302.807	-141.219	-0.262	-0.027
-301.793	48.425	-0.157	0.147
-300.778	409.335	-0.046	0.098
-299.764	-200.000	0.010	-0.248
-298.749	-200.000	0.045	-0.207
-297.735	66.503	-0.113	0.115
-296.720	-131.030	0.392	0.052
-295.705	145.545	-0.076	0.101
-294.691	-134.007	-0.082	0.010
-293.676	-28.573	-0.193	0.111
-292.662	-83.177	0.260	-0.083
-291.647	-200.000	0.016	-0.108
-290.632	-200.000	-0.008	-0.121
-289.618	-48.793	0.202	-0.097
-288.603	-80.878	0.131	-0.044
-287.589	65.561	-0.092	0.093
-286.574	-127.538	-0.184	-0.027
-285.559	-71.502	-0.244	-0.091
-284.545	-200.000	0.049	0.274
-283.530	679.986	0.102	0.265
-282.516	-0.040	-0.074	-0.052
-281.501	-7.625	0.183	0.124
-280.486	224.473	-0.096	-0.155
-279.472	-153.907	0.140	-0.010
-278.457	-135.350	0.091	-0.011
-277.443	331.321	-0.067	-0.130
-276.428	-11.554	0.288	-0.189
-275.413	198.187	0.047	0.072
-274.399	171.392	-0.160	0.229
-273.384	-200.000	0.034	-0.210
-272.370	-22.706	-0.173	-0.104
-271.355	144.353	-0.106	0.142
-270.340	-33.756	-0.166	-0.091
-269.326	232.054	-0.057	-0.093
-268.311	-200.000	-0.052	0.445
-267.297	800.000	-0.064	-0.222
-266.282	263.202	0.076	-0.131
-265.267	59.893	0.083	-0.082
-264.253	94.599	-0.072	0.082
-263.238	289.264	0.186	0.336
-262.224	33.839	0.055	0.048
-261.209	-133.708	0.186	-0.023
-260.195	-200.000	-0.043	0.316
-259.180	-126.571	0.313	-0.046
-258.165	306.633	-0.020	-0.037
-257.151	-32.853	-0.241	0.134
-256.136	-52.649	-0.462	-0.213
-255.122	94.917	0.072	-0.082
-254.107	390.614	-0.115	0.238
-253.092	201.785	-0.113	-0.173
-252.078	67.796	0.067	0.068
-251.063	249.327	0.049	-0.082
-250.049	-200.000	0.039	0.205
-249.034	80.878	-0.124	-0.133
-248.019	-105.306	-0.326	-0.074
-247.005	-103.693	0.154	-0.036
-245.990	-23.461	0.173	-0.104
-244.976	237.955	0.135	-0.223
-243.961	112.389	-0.076	-0.092
-242.946	-200.000	0.002	-0.043
-241.932	21.859	0.143	-0.116
-240.917	-125.500	-0.086	-0.013
-239.903	-59.417	-0.295	0.126
-238.888	83.853	-0.091	-0.099
-237.873	-191.815	-0.203	-0.002
-236.859	800.000	-0.078	-0.250
-235.844	-113.380	-0.026	0.005
-234.830	365.321	0.070	-0.140
-233.815	-181.836	0.075	0.001
-232.800	-200.000	-0.037	0.177
-231.786	-200.000	0.016	-0.166
-230.771	-200.000	-0.096	-0.425
-229.757	-200.000	0.031	-0.274
-228.742	-200.000	0.006	-0.353
-227.727	800.000	-0.097	-0.288
-226.713	91.142	0.141	0.157
-225.698	-146.005	-0.358	-0.032
-224.684	-31.136	-0.160	-0.090
-223.669	800.000	0.075	0.257
-222.655	38.526	0.203	-0.180
-221.640	-70.370	0.118	-0.044
-220.625	-200.000	-0.070	-0.362
-219.611	-78.744	-0.057	-0.019
-218.596	800.000	-0.123	-0.435
-217.582	-200.000	0.022	0.122
-216.567	-145.088	0.267	0.024
-215.552	94.580	-0.213	-0.241
-214.538	674.125	0.140	0.362
-213.523	316.831	0.084	-0.158
-212.509	800.000	-0.076	-0.238
-211.494	34.590	0.028	-0.024
-210.479	88.796	0.214	0.237
-209.465	-200.000	-0.020	0.207
-208.450	255.886	-0.053	0.090
-207.436	210.210	0.130	0.203
-206.421	585.379	0.024	-0.059
-205.406	800.000	-0.130	-0.530
-204.392	-138.575	-0.178	0.019
-203.377	-83.270	0.215	0.069
-202.363	43.545	-0.071	-0.065
-201.348	-200.000	-0.073	-0.697
-200.333	13.108	0.278	-0.214
-199.319	-200.000	0.014	-0.152
-198.304	211.214	0.076	0.119
-197.290	69.336	0.142	-0.145
-196.275	-17.896	-0.302	-0.188
-195.260	-26.701	0.183	0.107
-194.246	-174.533	-0.245	0.007
-193.231	-200.000	-0.012	-0.103
-192.217	73.489	-0.114	-0.119
-191.202	800.000	-0.108	0.325
-190.187	50.944	0.161	0.152
-189.173	-112.026	0.320	0.064
-188.158	-200.000	-0.003	-0.229
-187.144	55.721	-0.240	0.232
-186.129	-200.000	0.010	0.247
-185.114	124.357	-0.176	-0.220
-184.100	246.975	-0.075	0.126
-183.085	223.883	0.087	0.140
-182.071	-200.000	0.021	0.401
-181.056	-200.000	0.068	0.558
-180.042	800.000	-0.055	0.226
-179.027	-81.260	-0.211	-0.069
-178.012	133.120	0.062	-0.080
-176.998	-55.122	-0.311	0.139
-175.983	251.853	-0.105	0.177
-174.969	-200.000	0.011	0.088
-173.954	645.776	0.163	0.415
-172.939	-9.016	0.419	0.279
-171.925	114.765	0.151	0.183
-170.910	-200.000	-0.023	0.142
-169.896	-200.000	-0.028	-0.404
-168.881	-69.351	0.131	-0.050
-167.866	-131.607	-0.151	-0.020
-166.852	-136.491	0.159	0.018
-165.837	-35.307	-0.295	0.159
-164.823	-200.000	0.014	0.287
-163.808	800.000	0.165	-0.489
-162.793	103.406	0.196	-0.229
-161.779	454.116	0.071	-0.157
-160.764	490.314	0.086	-0.196
-159.750	-60.666	-0.391	-0.165
-158.735	-42.953	0.050	-0.025
-157.720	-200.000	0.043	-0.268
-156.706	800.000	-0.032	0.101
-155.691	14.419	-0.101	0.078
-154.677	-92.524	-0.039	0.011
-153.662	-200.000	0.013	0.133
-152.647	289.739	-0.092	0.166
-151.633	313.406	0.028	0.053
-150.618	-200.000	0.018	0.097
-149.604	800.000	-0.077	-0.239
-148.589	24.503	-0.057	0.047
-147.574	96.013	0.056	-0.063
-146.560	-25.676	-0.209	0.122
-145.545	107.752	-0.059	0.070
-144.531	-33.578	0.301	0.165
-143.516	-3.006	0.346	-0.240
-142.502	-35.734	-0.303	0.163
-141.487	800.000	-0.053	0.144
-140.472	148.888	0.126	0.169
-139.458	-38.108	-0.150	-0.079
-138.443	-118.808	0.232	-0.041
-137.429	-159.614	-0.324	0.018
-136.414	-179.564	-0.045	0.001
-135.399	-94.226	-0.287	0.078
-134.385	499.317	-0.113	-0.257
-133.370	-121.346	0.355	0.059
-132.356	-60.441	-0.335	0.141
-131.341	-32.861	0.155	-0.085
-130.326	-62.057	0.273	0.113
-129.312	76.365	-0.139	-0.146
-128.297	-15.987	0.179	-0.113
-127.283	63.060	-0.207	-0.206
-126.268	221.342	0.115	-0.183
-125.253	-4.643	-0.060	0.041
-124.239	166.547	-0.304	0.428
-123.224	-125.446	0.156	-0.024
-122.210	316.470	0.144	-0.270
-121.195	-42.683	-0.236	0.119
-120.180	246.680	0.179	0.299
-119.166	139.000	-0.109	-0.143
-118.151	-112.703	0.250	0.049
-117.137	800.000	-0.060	0.169
-116.122	800.000	0.083	0.286
-115.107	102.256	-0.069	0.080
-114.093	-200.000	0.037	0.208
-113.078	11.487	0.177	0.135
-112.064	-46.750	0.202	-0.098
-111.049	-200.000	-0.029	-0.254
-110.034	-52.023	-0.163	-0.075
-109.020	587.930	0.056	-0.136
-108.005	363.825	-0.064	0.128
-106.991	-200.000	0.005	-0.047
-105.976	-43.518	-0.221	-0.111
-104.962	10.954	-0.227	0.172
-103.947	47.294	0.128	-0.118
-102.932	-19.565	-0.198	0.122
-101.918	29.693	-0.030	0.025
-100.903	23.984	0.359	0.293
-99.889	24.365	-0.201	0.165
-98.874	71.156	-0.221	-0.227
-97.859	314.173	-0.128	0.238
-96.845	-200.000	0.024	-0.182
-95.830	-93.575	-0.322	0.088
-94.816	800.000	-0.033	-0.131
-93.801	-45.239	-0.343	-0.169
-92.786	135.231	0.136	0.175
-91.772	-73.485	-0.136	-0.049
-90.757	-86.799	-0.054	0.016
-89.743	-200.000	-0.027	0.216
-88.728	761.747	0.140	0.376
-87.713	199.465	-0.149	-0.226
-86.699	111.392	-0.184	0.220
-85.684	-54.217	0.031	0.014
-84.670	21.002	-0.384	0.309
-83.655	800.000	0.098	0.426
-82.640	98.035	0.058	-0.066
-81.626	215.701	-0.117	0.184
-80.611	800.000	0.133	0.396
-79.597	-142.263	-0.507	-0.050
-78.582	800.000	-0.163	-0.447
-77.567	197.185	0.113	-0.171
-76.553	404.481	0.135	-0.282
-75.538	410.065	0.034	-0.071
-74.524	-140.147	-0.133	-0.014
-73.509	800.000	0.091	-0.340
-72.494	-126.261	0.092	-0.014
-71.480	800.000	-0.123	-0.361
-70.465	203.099	0.100	0.153
-69.451	113.217	0.193	-0.232
-68.436	-11.102	-0.186	-0.121
-67.422	800.000	0.060	0.200
-66.407	249.519	-0.099	-0.167
-65.392	-158.922	0.065	0.004
-64.378	800.000	-0.080	0.328
-63.363	800.000	0.069	-0.267
-62.349	-200.000	-0.007	-0.069
-61.334	-10.443	-0.846	-0.554
-60.319	716.678	0.175	0.461
-59.305	485.883	-0.373	-0.840
-58.290	68.658	0.641	0.651
-57.276	-200.000	0.236	1.285
-56.261	-200.000	97.481	573.300
-55.246	627.110	1402.637	3502.780
-54.232	186.179	2608.955	3838.167
-53.217	121.156	2184.906	2689.703
-52.203	46.057	1633.600	1495.601
-51.188	37.739	1367.916	1201.293
-50.173	34.502	1325.169	1144.327
-49.159	56.228	1374.360	1319.974
-48.144	60.075	1392.110	1360.430
-47.130	37.952	1346.581	1183.662
-46.115	34.415	1328.707	1146.676
-45.100	34.183	1323.806	1141.010
-44.086	34.086	1321.661	1138.538
-43.071	33.983	1319.617	1136.115
-42.057	34.023	1317.247	1134.269
-41.042	34.128	1315.320	1133.188
-40.027	34.089	1314.441	1132.155
-39.013	34.101	1312.432	1130.451
-37.998	34.099	1310.435	1128.675
-36.984	34.216	1308.547	1127.698
-35.969	34.270	1306.889	1126.543
-34.954	34.329	1304.715	1124.971
-33.940	34.246	1303.725	1123.582
-32.925	34.348	1302.670	1123.231
-31.911	34.395	1300.845	1121.887
-30.896	34.409	1299.373	1120.659
-29.881	34.311	1298.126	1118.960
-28.867	34.420	1296.587	1118.233
-27.852	34.400	1295.286	1116.947
-26.838	34.395	1294.015	1115.780
-25.823	34.291	1292.613	1113.918
-24.809	34.408	1291.074	1113.230
-23.794	34.407	1289.775	1112.059
-22.779	34.291	1288.516	1110.254
-21.765	34.373	1287.013	1109.394
-20.750	34.305	1285.862	1107.962
-19.736	34.238	1284.561	1106.409
-18.721	34.223	1283.621	1105.464
-17.706	34.117	1282.529	1103.869
-16.692	34.223	1280.580	1102.759
-15.677	34.174	1280.084	1102.006
-14.663	34.276	1278.733	1101.389
-13.648	34.155	1277.969	1099.987
-12.633	34.192	1276.849	1099.192
-11.619	34.183	1275.879	1098.261
-10.604	34.196	1275.153	1097.670
-9.590	34.231	1274.466	1097.237
-8.575	34.128	1273.202	1095.511
-7.560	34.175	1272.249	1094.915
-6.546	34.160	1271.698	1094.312
-5.531	34.053	1270.864	1092.934
-4.517	34.077	1269.594	1091.938
-3.502	34.113	1268.933	1091.532
-2.487	34.044	1268.044	1090.332
-1.473	34.039	1264.251	1086.999
-0.458	32.745	1249.246	1066.740
0.556	27.840	1230.701	1026.155
1.571	23.948	1235.248	1007.856
2.586	22.875	1251.146	1014.572
3.600	22.184	1240.479	1001.900
4.615	17.252	1168.145	916.852
5.629	9.013	1092.542	815.705
6.644	5.266	1072.219	781.738
7.659	5.078	1069.438	778.704
8.673	4.905	1067.975	776.707
9.688	4.902	1066.796	775.767
10.702	5.128	1065.708	776.030
11.717	10.283	1072.794	806.870
12.731	17.514	1082.951	850.695
13.746	19.338	1084.184	860.700
14.761	18.147	1081.966	852.927
15.775	17.013	1079.628	845.361
16.790	15.925	1077.266	838.026
17.804	15.206	1075.995	833.387
18.819	14.885	1074.603	830.643
19.834	14.649	1073.779	828.760
20.848	14.329	1073.183	826.639
21.863	14.124	1072.194	824.787
22.877	13.903	1072.035	823.495
23.892	13.950	1070.474	822.458
24.907	13.903	1070.218	821.954
25.921	13.985	1069.078	821.414
26.936	13.995	1067.679	820.313
27.950	14.114	1066.392	819.842
28.965	14.254	1064.555	819.045
29.980	14.214	1063.006	817.585
30.994	14.268	1061.839	816.876
32.009	14.327	1060.973	816.427
33.023	14.314	1060.101	815.622
34.038	14.312	1058.512	814.315
35.053	14.146	1058.062	813.090
36.067	14.271	1056.885	812.721
37.082	14.165	1056.486	811.824
38.096	14.212	1055.658	811.349
39.111	14.239	1054.678	810.654
40.126	14.076	1054.057	809.310
41.140	14.050	1052.008	807.541
42.155	14.048	1050.800	806.533
43.169	13.963	1050.069	805.487
44.184	13.967	1048.723	804.404
45.199	13.920	1048.252	803.743
46.213	14.021	1046.876	803.104
47.228	14.208	1045.243	802.684
48.242	14.141	1044.725	801.889
49.257	14.044	1044.004	800.798
50.271	14.100	1042.953	800.193
51.286	14.206	1041.798	799.746
52.301	14.147	1041.267	798.982
53.315	14.170	1040.024	798.068
54.330	14.100	1038.964	796.849
55.344	13.903	1038.362	795.373
56.359	14.064	1037.354	795.303
57.374	14.037	1036.356	794.337
58.388	13.910	1035.252	792.816
59.403	13.992	1034.331	792.429
60.417	13.919	1033.840	791.636
61.432	13.999	1032.887	791.218
62.447	13.895	1032.147	790.088
63.461	13.913	1030.763	789.040
64.476	13.783	1030.348	788.035
65.490	13.825	1029.815	787.760
66.505	13.771	1029.304	787.041
67.520	13.809	1028.742	786.721
68.534	13.921	1027.796	786.459
69.549	13.717	1027.182	784.953
70.563	13.867	1026.266	784.894
71.578	13.919	1025.108	784.187
72.593	13.876	1024.677	783.585
73.607	13.621	1024.058	781.837
74.622	13.836	1022.787	781.812
75.636	13.820	1022.185	781.208
76.651	13.765	1021.653	780.471
77.666	13.914	1020.602	780.300
78.680	13.788	1020.094	779.250
79.695	13.862	1019.433	779.023
80.709	13.945	1018.974	778.993
81.724	13.982	1018.777	778.950
82.739	13.958	1017.939	778.126
83.753	14.054	1016.964	777.760
84.768	14.198	1016.067	777.681
85.782	14.293	1015.302	777.468
86.797	14.212	1014.406	776.333
87.812	14.211	1013.356	775.461
88.826	14.157	1012.784	774.699
89.841	14.169	1011.618	773.796
90.855	14.307	1010.524	773.533
91.870	14.160	1010.525	772.783
92.884	14.214	1009.005	771.800
93.899	14.352	1007.838	771.477
94.914	14.400	1006.955	770.955
95.928	14.342	1006.600	770.348
96.943	14.297	1005.068	768.899
97.957	14.240	1004.463	768.107
98.972	14.283	1003.897	767.805
99.987	14.233	1002.728	766.611
101.001	14.295	1001.699	766.043
102.016	14.320	1000.645	765.285
103.030	14.382	999.957	764.977
104.045	14.285	999.458	764.080
105.060	14.251	998.565	763.176
106.074	14.021	997.773	761.446
107.089	13.888	996.740	759.984
108.103	13.992	995.585	759.512
109.118	14.008	994.334	758.563
110.133	13.957	994.001	758.006
111.147	14.042	992.892	757.485
112.162	14.070	992.129	756.963
113.176	14.063	991.356	756.273
114.191	13.977	991.051	755.580
115.206	14.126	989.936	755.340
116.220	13.982	989.231	754.083
117.235	13.983	987.845	752.967
118.249	14.032	987.323	752.724
119.264	14.091	986.515	752.306
120.279	13.882	985.914	750.839
121.293	13.874	984.839	749.915
122.308	14.078	983.578	749.809
123.322	13.989	983.153	749.015
124.337	13.930	982.034	747.833
125.352	13.989	980.449	746.825
126.366	13.997	979.666	746.201
127.381	14.025	978.508	745.377
128.395	14.075	977.692	744.913
129.410	14.013	977.128	744.141
130.424	14.035	976.679	743.830
131.439	14.125	975.875	743.555
132.454	14.280	974.537	743.161
133.468	14.054	974.310	741.914
134.483	14.219	973.212	741.750
135.497	14.116	972.325	740.546
136.512	14.152	971.295	739.859
137.527	14.098	970.576	739.004
138.541	14.342	969.200	738.975
139.556	14.228	969.016	738.261
140.570	14.276	968.440	737.969
141.585	14.410	967.330	737.655
142.600	14.369	966.760	736.973
143.614	14.381	966.087	736.446
144.629	14.358	965.247	735.639
145.643	14.405	964.142	734.938
146.658	14.277	963.301	733.671
147.673	14.207	962.454	732.650
148.687	14.237	961.125	731.706
149.702	14.190	960.592	731.031
150.716	14.121	960.052	730.250
151.731	14.210	959.238	729.958
152.746	14.199	958.490	729.278
153.760	14.317	958.028	729.375
154.775	14.301	957.371	728.741
155.789	14.372	956.746	728.510
156.804	14.454	955.774	728.066
157.819	14.407	955.637	727.691
158.833	14.446	955.179	727.450
159.848	14.401	954.190	726.434
160.862	14.366	952.907	725.243
161.877	14.313	952.111	724.343
162.892	14.274	951.458	723.611
163.906	14.276	949.865	722.342
164.921	14.362	949.214	722.157
165.935	14.379	948.207	721.399
166.950	14.408	947.240	720.727
167.964	14.430	946.593	720.266
168.979	14.499	945.466	719.643
169.994	14.378	944.667	718.447
171.008	14.302	944.241	717.733
172.023	14.502	943.248	717.776
173.037	14.569	942.754	717.625
174.052	14.579	941.837	716.905
175.067	14.321	941.559	715.522
176.081	14.309	941.140	715.089
177.096	14.386	940.518	714.885
178.110	14.462	939.774	714.583
179.125	14.437	939.321	714.068
180.140	14.433	938.789	713.582
181.154	14.641	938.391	714.106
182.169	14.590	937.613	713.235
183.183	14.631	936.850	712.767
184.198	14.666	935.888	712.121
185.213	14.645	935.437	711.623
186.227	14.729	934.826	711.453
187.242	14.789	934.080	711.078
188.256	14.798	933.632	710.714
189.271	14.745	932.807	709.798
190.286	14.586	931.834	708.320
191.300	14.377	931.384	707.029
192.315	14.434	930.260	706.351
193.329	14.315	930.466	705.943
194.344	14.501	929.572	705.988
195.359	14.545	928.767	705.500
196.373	14.585	928.387	705.318
197.388	14.702	928.003	705.461
198.402	14.881	927.248	705.578
199.417	14.932	926.715	705.325
200.432	14.942	926.064	704.810
201.446	15.128	925.528	705.122
202.461	15.016	925.399	704.491
203.475	14.986	924.958	703.965
204.490	14.893	923.414	702.338
205.504	14.901	922.763	701.816
206.519	14.838	922.185	701.048
207.534	14.931	921.484	700.844
208.548	14.795	921.034	699.868
209.563	14.903	919.955	699.441
210.577	15.128	919.275	699.800
211.592	15.169	918.453	699.283
212.607	15.071	918.303	698.700
213.621	15.033	917.300	697.716
214.636	15.050	916.458	697.085
215.650	15.145	915.803	696.922
216.665	15.179	915.350	696.655
217.680	15.018	914.868	695.556
218.694	15.108	914.144	695.320
219.709	15.168	913.105	694.715
220.723	15.253	912.526	694.566
221.738	15.247	911.803	693.929
222.753	15.237	911.363	693.494
223.767	15.123	911.193	692.831
224.782	15.372	910.231	693.067
225.796	15.195	909.957	692.065
226.811	15.283	909.341	691.897
227.826	15.309	908.493	691.301
228.840	15.270	907.536	690.351
229.855	15.146	906.606	689.069
230.869	15.059	906.077	688.249
231.884	15.150	905.276	687.954
232.899	15.201	904.647	687.624
233.913	15.080	903.878	686.481
234.928	15.104	903.329	686.106
235.942	15.208	902.645	685.951
236.957	15.054	902.311	685.005
237.972	15.128	901.450	684.593
238.986	15.205	900.653	684.242
240.001	15.202	900.510	684.062
241.015	15.213	899.592	683.350
242.030	15.223	899.303	683.110
243.045	15.327	898.609	682.943
244.059	15.393	898.216	682.853
245.074	15.369	897.498	682.151
246.088	15.400	896.591	681.525
247.103	15.447	895.859	681.101
248.117	15.459	895.707	680.971
249.132	15.575	895.073	680.903
250.147	15.760	894.063	680.823
251.161	15.673	893.982	680.348
252.176	15.710	893.171	679.818
253.190	15.890	892.294	679.819
254.205	15.762	892.036	679.047
255.220	15.787	891.526	678.696
256.234	15.963	890.531	678.591
257.249	15.836	889.923	677.554
258.263	15.785	889.192	676.733
259.278	15.806	888.454	676.195
260.293	15.843	887.965	675.911
261.307	15.895	887.800	675.935
262.322	15.937	886.978	675.420
263.336	16.043	886.015	675.050
264.351	16.028	885.041	674.189
265.366	15.912	885.229	673.809
266.380	16.033	884.076	673.352
267.395	15.915	883.711	672.545
268.409	16.001	882.585	671.970
269.424	15.905	882.118	671.173
270.439	15.889	881.396	670.501
271.453	15.902	880.725	669.985
272.468	15.853	880.282	669.393
273.482	15.978	879.676	669.369
274.497	16.047	879.055	669.113
275.512	15.883	878.368	667.880
276.526	15.911	878.040	667.683
277.541	16.059	877.514	667.808
278.555	16.185	876.780	667.690
279.570	16.181	876.132	667.120
280.585	16.255	875.025	666.511
281.599	16.201	874.320	665.703
282.614	16.049	874.059	664.845
283.628	16.016	873.635	664.334
284.643	16.129	872.899	664.162
285.657	16.130	872.412	663.736
286.672	16.128	871.519	662.989
287.687	16.199	870.956	662.780
288.701	16.161	870.520	662.241
289.716	16.199	869.812	661.792
290.730	16.213	869.445	661.510
291.745	16.297	869.057	661.486
292.760	16.389	868.326	661.230
293.774	16.454	867.180	660.554
294.789	16.306	866.817	659.640
295.803	16.216	866.070	658.664
296.818	16.241	865.629	658.365
297.833	16.206	864.609	657.395
298.847	16.319	863.991	657.309
299.862	16.384	863.745	657.314
300.876	16.575	862.906	657.361
301.891	16.480	862.348	656.510
302.906	16.437	861.857	655.911
303.920	16.606	861.130	655.953
304.935	16.503	860.837	655.271
305.949	16.601	860.173	655.090
306.964	16.523	859.558	654.262
307.979	16.570	858.880	653.869
308.993	16.585	858.568	653.632
310.008	16.484	858.008	652.756
311.022	16.614	857.055	652.477
312.037	16.412	856.770	651.422
313.052	16.493	855.793	650.936
314.066	16.474	855.482	650.566
315.081	16.475	855.224	650.316
316.095	16.682	853.993	650.120
317.110	16.437	853.773	648.954
318.125	16.499	853.125	648.639
319.139	16.591	852.623	648.552
320.154	16.545	852.224	648.019
321.168	16.552	852.124	647.910
322.183	16.640	851.340	647.594
323.197	16.637	850.546	646.922
324.212	16.535	850.235	646.238
325.227	16.703	849.686	646.405
326.241	16.599	848.511	645.057
327.256	16.537	848.484	644.744
328.270	16.619	847.981	644.616
329.285	16.601	847.433	644.076
330.300	16.722	846.498	643.767
331.314	16.641	846.093	643.094
332.329	16.672	845.765	642.905
333.343	16.823	845.148	642.951
334.358	16.805	844.907	642.644
335.373	16.930	844.635	642.855
336.387	16.683	844.154	641.496
337.402	16.876	844.221	642.220
338.416	16.919	843.579	641.836
339.431	16.930	842.882	641.292
340.446	16.926	842.548	640.968
341.460	17.003	842.348	641.049
342.475	17.097	841.989	641.074
343.489	17.173	841.323	640.796
344.504	17.073	841.061	640.162
345.519	17.314	840.515	640.599
346.533	17.081	840.178	639.409
347.548	17.119	839.286	638.818
348.562	16.914	838.941	637.727
349.577	16.878	838.723	637.369
350.592	16.924	837.520	636.572
351.606	17.095	837.046	636.797
352.621	16.887	836.460	635.514
353.635	16.985	835.493	635.088
354.650	17.225	834.601	635.254
355.665	17.288	834.064	635.024
356.679	17.180	833.789	634.354
357.694	17.093	833.329	633.625
358.708	17.108	832.755	633.187
359.723	17.084	832.126	632.562
360.738	16.974	831.933	631.952
361.752	17.185	830.961	631.942
362.767	17.093	830.388	631.108
363.781	17.432	829.789	631.855
364.796	17.216	829.658	630.898
365.810	17.355	829.353	631.125
366.825	17.562	828.701	631.342
367.840	17.570	828.263	630.980
368.854	17.465	827.687	630.098
369.869	17.477	827.344	629.827
370.883	17.601	826.502	629.587
371.898	17.569	826.548	629.448
372.913	17.630	826.046	629.234
373.927	17.482	825.584	628.281
374.942	17.554	824.835	627.922
375.956	17.614	824.807	628.067
376.971	17.786	824.145	628.140
377.986	17.730	823.706	627.542
379.000	17.715	823.202	627.049
380.015	17.811	822.575	626.869
381.029	17.685	822.169	626.041
382.044	17.736	821.660	625.783
383.059	17.661	821.199	625.105
384.073	17.819	820.165	624.841
385.088	17.696	819.770	624.035
386.102	17.626	819.076	623.194
387.117	17.693	818.588	623.013
388.132	17.619	817.972	622.218
389.146	17.870	817.444	622.677
390.161	17.808	816.837	621.934
391.175	17.849	816.778	621.985
392.190	17.634	816.057	620.596
393.205	17.696	815.481	620.330
394.219	17.768	815.325	620.417
395.234	17.727	815.027	619.988
396.248	17.857	814.331	619.874
397.263	17.738	813.498	618.755
398.278	17.668	813.468	618.423
399.292	17.672	813.356	618.296
400.307	17.674	812.658	617.718
401.321	17.791	811.989	617.580
402.336	17.743	811.830	617.229
403.350	17.790	811.313	616.952
404.365	17.819	811.071	616.818
405.380	18.117	810.325	617.274
406.394	18.093	809.615	616.591
407.409	18.039	809.384	616.168
408.423	18.188	809.058	616.401
409.438	18.328	808.800	616.652
410.453	18.016	808.615	615.334
411.467	18.066	808.032	615.015
412.482	18.302	807.407	615.334
413.496	18.177	807.577	614.960
414.511	18.195	807.074	614.588
415.526	18.323	806.214	614.336
416.540	18.141	805.796	613.313
417.555	18.227	805.426	613.282
418.569	18.323	805.003	613.251
419.584	18.292	804.905	613.011
420.599	18.306	803.895	612.239
421.613	153.763	1370.026	1790.694
422.628	133.361	1452.548	1790.811
