DTS Sentinel unit serial number:	SN413079Multiplexer serial number:	ORYXHardware model number:	OX4-SRSoftware version number:	ORYX F/W v4.00 Oryx Data Collector v3.7.2.0data status	okinstallation	princeton_trtdifferential loss correction	single-endedforward channel	channel 1reverse channel	N/Adate	2019/09/15time	09:22:35forward acquisition time	60.00reverse acquisition time	0.00gamma	496.2192k internal	0.2312k external	0.2312temperature offset calibration	0.9984default loss term (dB/km)	0.3790temperature slope calibration	1.0000multiplexer offset coefficient	1.0000multiplexer slope coefficient	1.0000fibre end	0.00T internal ref (°C)	33.52T ext. ref 1 (°C)	4.97T ext. ref 2 (°C)	30.41length (m)	temperature (°C)	Stokes	anti-Stokes-747.200	214.642	0.074	0.119
-746.185	800.000	0.104	-0.304
-745.171	-200.000	-0.040	0.290
-744.156	-67.606	-0.204	-0.081
-743.142	-73.889	-0.107	0.040
-742.127	-200.000	-0.009	0.378
-741.112	168.355	0.239	0.345
-740.098	-200.000	0.026	0.248
-739.083	292.969	0.011	0.021
-738.069	-132.964	0.503	0.065
-737.054	-3.675	-0.227	-0.160
-736.039	578.746	-0.022	-0.054
-735.025	104.302	0.122	0.146
-734.010	790.672	0.176	-0.492
-732.996	120.958	-0.242	-0.306
-731.981	348.399	0.116	0.233
-730.966	-26.589	-0.154	0.091
-729.952	-200.000	-0.053	-0.246
-728.937	-91.205	0.085	-0.025
-727.923	-200.000	0.004	0.139
-726.908	-109.547	0.110	-0.023
-725.894	-121.841	-0.286	-0.048
-724.879	-200.000	0.002	-0.058
-723.864	-146.312	-0.238	-0.021
-722.850	135.578	-0.175	-0.230
-721.835	-200.000	-0.024	-0.138
-720.821	-60.412	0.176	-0.076
-719.806	-118.910	-0.052	0.009
-718.791	800.000	-0.041	-0.126
-717.777	320.772	-0.085	-0.164
-716.762	646.883	-0.083	0.214
-715.748	-71.567	-0.212	-0.080
-714.733	217.510	0.054	-0.086
-713.718	800.000	-0.031	0.104
-712.704	-200.000	-0.000	-0.107
-711.689	31.597	0.121	0.105
-710.675	-90.561	0.251	-0.074
-709.660	-102.662	-0.145	-0.035
-708.645	-128.086	-0.195	0.028
-707.631	-94.328	-0.166	0.046
-706.616	-91.247	-0.127	-0.037
-705.602	25.987	0.037	0.031
-704.587	28.367	-0.036	0.031
-703.572	-116.475	0.404	0.076
-702.558	226.010	0.059	0.097
-701.543	-200.000	0.009	0.077
-700.529	800.000	0.051	-0.181
-699.514	304.600	0.107	0.200
-698.499	186.219	-0.040	0.061
-697.485	-116.755	0.198	-0.037
-696.470	-73.415	0.089	-0.033
-695.456	-114.023	-0.297	-0.058
-694.441	357.805	0.087	0.176
-693.426	800.000	-0.019	0.081
-692.412	-200.000	-0.011	0.174
-691.397	155.782	-0.060	0.083
-690.383	219.283	-0.113	-0.183
-689.368	-63.431	0.317	0.132
-688.354	12.924	0.082	0.064
-687.339	-200.000	0.035	-0.204
-686.324	800.000	-0.032	-0.116
-685.310	-33.360	-0.294	0.165
-684.295	140.406	0.048	0.064
-683.281	-156.329	-0.105	0.007
-682.266	-200.000	0.032	0.180
-681.251	-150.476	-0.044	-0.003
-680.237	90.483	0.186	-0.211
-679.222	115.457	0.308	0.381
-678.208	111.902	-0.324	0.396
-677.193	481.356	-0.057	0.130
-676.178	-200.000	0.032	-0.165
-675.164	-132.172	-0.143	-0.019
-674.149	-94.854	-0.321	-0.088
-673.135	-54.376	0.288	-0.132
-672.120	105.854	-0.165	-0.198
-671.105	-157.261	0.264	0.016
-670.091	-200.000	0.021	-0.215
-669.076	123.568	0.224	0.285
-668.062	131.356	0.070	0.091
-667.047	-8.995	0.242	-0.164
-666.032	-4.251	0.113	0.079
-665.018	800.000	0.081	-0.292
-664.003	100.616	0.162	-0.190
-662.989	312.927	-0.174	0.331
-661.974	201.482	-0.033	-0.052
-660.959	208.959	0.031	0.049
-659.945	-62.413	-0.183	-0.077
-658.930	-185.543	0.308	0.005
-657.916	171.072	0.097	-0.140
-656.901	7.163	0.068	-0.051
-655.886	-94.370	0.185	-0.051
-654.872	-200.000	-0.047	-0.226
-653.857	-57.702	-0.109	-0.048
-652.843	800.000	-0.072	-0.310
-651.828	-200.000	0.010	-0.189
-650.814	100.900	-0.104	-0.123
-649.799	-80.290	0.374	-0.127
-648.784	-132.766	-0.046	0.006
-647.770	688.773	0.043	0.114
-646.755	800.000	0.098	-0.396
-645.741	87.719	-0.207	-0.232
-644.726	-94.375	0.259	-0.071
-643.711	75.567	-0.184	0.196
-642.697	168.817	-0.082	-0.118
-641.682	800.000	0.063	-0.187
-640.668	800.000	0.022	0.066
-639.653	60.455	-0.065	0.065
-638.638	509.619	0.128	-0.301
-637.624	-149.040	0.386	-0.031
-636.609	800.000	-0.049	0.189
-635.595	46.667	-0.146	-0.137
-634.580	196.729	-0.114	-0.175
-633.565	204.088	0.106	0.166
-632.551	-72.100	0.344	0.129
-631.536	-200.000	-0.004	-0.109
-630.522	-104.872	0.043	-0.010
-629.507	88.503	0.100	0.113
-628.492	151.150	-0.127	-0.175
-627.478	-4.703	0.245	0.171
-626.463	-132.864	0.180	-0.023
-625.449	-200.000	-0.021	-0.378
-624.434	-76.476	-0.237	-0.084
-623.419	-200.000	-0.053	0.359
-622.405	329.560	-0.175	0.339
-621.390	245.149	-0.064	-0.108
-620.376	800.000	0.020	-0.088
-619.361	109.888	0.344	-0.416
-618.346	-64.684	-0.108	0.044
-617.332	-141.445	-0.420	0.043
-616.317	450.265	-0.030	-0.066
-615.303	104.767	0.398	0.474
-614.288	-117.600	-0.235	0.043
-613.273	112.697	-0.105	-0.128
-612.259	88.296	0.152	0.170
-611.244	-105.925	0.085	0.019
-610.230	-119.053	-0.190	-0.034
-609.215	-145.833	-0.358	-0.032
-608.201	207.579	-0.247	-0.389
-607.186	800.000	-0.074	0.274
-606.171	104.531	-0.033	-0.039
-605.157	-200.000	-0.000	0.095
-604.142	-200.000	-0.012	-0.125
-603.128	267.302	-0.134	-0.237
-602.113	-200.000	0.013	-0.154
-601.098	447.751	0.193	-0.430
-600.084	-200.000	0.014	0.155
-599.069	58.076	0.119	0.117
-598.055	93.557	-0.153	-0.174
-597.040	800.000	-0.016	0.068
-596.025	-92.336	0.148	0.042
-595.011	-30.272	0.129	0.074
-593.996	175.909	0.109	-0.160
-592.982	218.861	0.186	-0.300
-591.967	481.538	0.108	0.246
-590.952	-34.405	-0.148	-0.082
-589.938	548.114	-0.167	-0.403
-588.923	20.164	0.156	0.127
-587.909	-200.000	0.053	0.377
-586.894	-78.942	-0.185	0.063
-585.879	95.021	-0.181	0.208
-584.865	-73.935	-0.285	0.104
-583.850	-138.694	-0.353	0.039
-582.836	-157.273	0.085	0.005
-581.821	-121.018	0.318	0.054
-580.806	296.552	-0.107	-0.197
-579.792	3.729	-0.153	-0.112
-578.777	80.151	-0.194	0.210
-577.763	27.486	0.172	0.146
-576.748	-7.838	0.190	-0.129
-575.733	411.706	-0.041	0.087
-574.719	489.141	0.095	-0.219
-573.704	45.604	-0.226	0.211
-572.690	21.187	-0.110	0.090
-571.675	800.000	-0.059	-0.191
-570.661	-79.576	-0.138	0.047
-569.646	71.813	-0.019	0.020
-568.631	-58.958	-0.195	-0.085
-567.617	45.360	0.185	-0.172
-566.602	-55.595	0.031	0.014
-565.588	53.707	0.121	0.117
-564.573	-32.538	-0.304	-0.171
-563.558	800.000	-0.085	-0.276
-562.544	800.000	0.012	0.037
-561.529	-200.000	-0.030	-0.167
-560.515	4.108	0.163	0.120
-559.500	800.000	0.079	0.292
-558.485	166.919	0.157	0.224
-557.471	171.602	0.206	0.297
-556.456	-133.334	-0.355	-0.045
-555.442	359.613	-0.036	0.072
-554.427	-200.000	-0.057	-0.369
-553.412	369.194	0.090	0.183
-552.398	-25.675	0.113	0.067
-551.383	105.435	-0.122	-0.145
-550.369	-137.533	0.378	0.043
-549.354	-156.885	0.250	0.015
-548.339	-200.000	0.064	0.374
-547.325	-192.128	-0.106	0.001
-546.310	-200.000	0.025	-0.144
-545.296	564.529	0.026	-0.065
-544.281	204.524	-0.131	-0.204
-543.266	402.794	-0.102	-0.217
-542.252	-162.994	-0.225	0.011
-541.237	317.296	0.012	-0.022
-540.223	-125.341	0.387	-0.059
-539.208	325.071	0.133	-0.255
-538.193	-200.000	0.007	-0.214
-537.179	-75.140	0.182	0.065
-536.164	2.190	0.052	0.038
-535.150	-68.649	0.084	0.033
-534.135	295.880	-0.073	0.134
-533.121	-167.737	-0.276	0.011
-532.106	-74.391	-0.130	0.047
-531.091	-181.863	0.040	-0.001
-530.077	-82.433	-0.320	-0.105
-529.062	100.340	0.245	0.286
-528.048	-200.000	-0.035	0.225
-527.033	-200.000	-0.022	-0.130
-526.018	594.011	-0.106	0.265
-525.004	537.354	0.026	0.061
-523.989	396.384	-0.148	-0.311
-522.975	-200.000	-0.029	-0.166
-521.960	-113.683	0.304	-0.060
-520.945	595.555	0.086	0.214
-519.931	149.668	0.055	0.075
-518.916	-200.000	0.023	-0.126
-517.902	-51.635	0.124	0.058
-516.887	12.175	-0.096	0.074
-515.872	23.718	0.210	-0.174
-514.858	-200.000	0.003	-0.102
-513.843	395.406	-0.068	-0.142
-512.829	-33.175	-0.172	-0.096
-511.814	181.587	-0.110	-0.163
-510.799	35.342	0.182	-0.160
-509.785	-2.721	-0.217	-0.153
-508.770	172.673	-0.087	0.126
-507.756	-95.785	-0.187	0.050
-506.741	14.732	0.211	0.166
-505.726	-53.537	-0.029	-0.013
-504.712	465.856	-0.164	-0.369
-503.697	22.931	0.198	0.163
-502.683	-143.179	0.269	-0.026
-501.668	730.385	-0.069	-0.185
-500.653	-172.658	-0.178	0.006
-499.639	-74.009	0.185	0.068
-498.624	800.000	0.040	-0.161
-497.610	189.552	-0.106	0.160
-496.595	-65.701	0.131	-0.053
-495.581	102.704	0.074	0.087
-494.566	-75.639	-0.127	-0.045
-493.551	-153.064	-0.330	0.023
-492.537	-200.000	-0.003	-0.083
-491.522	183.504	-0.107	0.159
-490.508	800.000	0.048	0.184
-489.493	-105.162	0.162	-0.037
-488.478	-192.942	-0.097	0.001
-487.464	-81.041	0.341	0.114
-486.449	800.000	0.111	0.356
-485.435	-32.958	0.127	0.071
-484.420	-80.056	0.252	0.085
-483.405	-103.447	-0.309	0.073
-482.391	55.448	-0.292	0.284
-481.376	-54.631	0.176	-0.080
-480.362	-200.000	0.000	0.308
-479.347	166.465	-0.107	0.152
-478.332	-200.000	-0.009	-0.146
-477.318	-200.000	0.003	-0.096
-476.303	-200.000	-0.024	-0.185
-475.289	365.125	-0.192	-0.388
-474.274	-40.623	-0.120	-0.063
-473.259	-200.000	-0.348	-0.001
-472.245	-200.000	-0.019	-0.202
-471.230	800.000	0.029	-0.086
-470.216	-200.000	-0.048	-0.239
-469.201	30.628	-0.181	-0.155
-468.186	-151.806	-0.156	-0.011
-467.172	-200.000	-0.049	0.269
-466.157	84.403	0.089	-0.098
-465.143	-88.839	0.179	-0.053
-464.128	12.778	0.094	-0.073
-463.113	22.876	0.183	0.151
-462.099	-85.695	0.059	-0.018
-461.084	-6.851	-0.332	-0.227
-460.070	-200.000	-0.007	0.151
-459.055	-121.874	0.146	0.024
-458.040	-84.152	-0.199	-0.063
-457.026	142.876	0.166	-0.221
-456.011	-102.981	0.317	-0.075
-454.997	800.000	-0.077	0.248
-453.982	-200.000	-0.008	0.138
-452.968	-132.843	-0.120	0.015
-451.953	-200.000	-0.026	0.119
-450.938	800.000	-0.062	0.188
-449.924	361.286	-0.077	0.156
-448.909	-200.000	-0.004	-0.066
-447.895	-3.548	0.406	-0.283
-446.880	-84.055	0.243	-0.078
-445.865	-2.968	-0.172	0.121
-444.851	-200.000	0.071	-0.379
-443.836	168.278	0.086	-0.123
-442.822	85.245	-0.173	0.191
-441.807	-200.000	0.003	0.041
-440.792	-81.014	0.170	0.056
-439.778	-108.001	-0.119	-0.026
-438.763	671.783	0.015	0.038
-437.749	121.230	0.051	0.064
-436.734	43.203	-0.128	-0.117
-435.719	20.625	0.132	-0.107
-434.705	758.495	0.109	0.296
-433.690	120.470	0.149	0.185
-432.676	362.309	-0.032	0.064
-431.661	-200.000	-0.003	-0.194
-430.646	74.259	-0.040	0.042
-429.632	-30.963	0.276	0.156
-428.617	-110.242	0.191	0.040
-427.603	-191.551	-0.102	0.001
-426.588	-92.901	-0.389	-0.109
-425.573	800.000	0.058	-0.243
-424.559	-200.000	0.003	-0.096
-423.544	150.547	0.027	-0.036
-422.530	35.570	0.130	-0.115
-421.515	-41.565	-0.394	-0.203
-420.500	-98.769	-0.178	-0.045
-419.486	-147.484	0.218	-0.018
-418.471	-200.000	0.000	-0.212
-417.457	13.255	-0.117	-0.091
-416.442	-54.789	-0.075	0.034
-415.428	-18.243	-0.156	-0.098
-414.413	-81.031	-0.108	-0.036
-413.398	93.932	0.195	0.222
-412.384	-200.000	0.060	0.381
-411.369	-140.918	0.241	-0.025
-410.355	80.427	0.177	-0.191
-409.340	5.169	0.269	-0.199
-408.325	42.094	-0.353	-0.321
-407.311	153.584	-0.048	0.065
-406.296	137.283	-0.116	0.152
-405.282	118.884	-0.095	-0.117
-404.267	-150.139	0.285	-0.022
-403.252	153.184	-0.140	0.192
-402.238	-200.000	0.017	0.427
-401.223	-42.553	-0.071	-0.036
-400.209	-49.782	-0.057	0.027
-399.194	-125.178	0.078	0.012
-398.179	23.672	-0.188	-0.155
-397.165	-200.000	0.016	0.210
-396.150	74.344	-0.055	0.058
-395.136	174.551	-0.054	0.079
-394.121	1.667	0.190	0.137
-393.106	91.488	0.060	0.068
-392.092	-77.961	0.108	0.037
-391.077	-21.148	-0.112	-0.068
-390.063	-66.538	-0.223	-0.089
-389.048	-104.062	0.087	-0.020
-388.033	-200.000	-0.049	-0.250
-387.019	-149.267	-0.283	-0.023
-386.004	-166.695	-0.212	-0.009
-384.990	-200.000	-0.002	-0.107
-383.975	175.349	-0.051	0.074
-382.960	-200.000	0.013	-0.285
-381.946	-149.642	0.262	-0.021
-380.931	800.000	0.051	0.193
-379.917	800.000	-0.059	0.208
-378.902	-157.508	0.181	-0.011
-377.888	121.923	0.179	-0.223
-376.873	-67.771	0.266	0.104
-375.858	55.474	-0.125	0.121
-374.844	-41.020	0.121	0.063
-373.829	30.030	0.099	0.085
-372.815	-141.454	0.332	0.034
-371.800	153.306	0.241	0.330
-370.785	-29.030	-0.130	0.074
-369.771	-44.421	0.099	-0.049
-368.756	-95.933	0.428	0.114
-367.742	-200.000	0.073	-0.435
-366.727	-131.525	-0.465	-0.061
-365.712	-172.938	0.134	0.004
-364.698	-86.898	-0.216	0.066
-363.683	371.182	0.061	-0.123
-362.669	-200.000	0.012	-0.357
-361.654	-117.593	0.155	0.028
-360.639	-200.000	0.067	-0.299
-359.625	-159.410	0.077	0.004
-358.610	-75.110	-0.178	0.064
-357.596	800.000	-0.083	0.245
-356.581	343.886	0.099	0.193
-355.566	484.009	-0.106	-0.241
-354.552	-20.301	-0.254	-0.156
-353.537	-200.000	0.030	0.232
-352.523	45.187	-0.231	-0.213
-351.508	-200.000	-0.020	0.241
-350.493	-200.000	0.031	-0.292
-349.479	-0.394	0.050	-0.035
-348.464	141.507	-0.063	0.083
-347.450	-169.024	-0.124	-0.005
-346.435	-121.183	-0.496	-0.083
-345.420	89.899	-0.075	-0.083
-344.406	297.384	0.138	-0.253
-343.391	84.845	-0.024	-0.026
-342.377	152.983	-0.046	-0.063
-341.362	800.000	0.056	-0.175
-340.348	-103.028	-0.147	0.035
-339.333	-10.188	-0.034	-0.022
-338.318	55.814	-0.064	-0.062
-337.304	-81.863	-0.114	-0.037
-336.289	-12.306	-0.181	-0.118
-335.275	800.000	-0.028	-0.100
-334.260	287.171	0.114	-0.206
-333.245	800.000	-0.080	0.261
-332.231	-35.297	0.183	0.099
-331.216	-200.000	-0.000	-0.229
-330.202	259.663	0.097	-0.167
-329.187	-48.268	0.114	-0.055
-328.172	117.762	-0.118	-0.145
-327.158	-77.906	-0.157	-0.054
-326.143	-0.410	-0.251	0.178
-325.129	-97.953	-0.234	-0.060
-324.114	-115.292	0.262	-0.049
-323.099	357.843	-0.065	-0.130
-322.085	800.000	0.086	-0.317
-321.070	-22.979	-0.274	-0.165
-320.056	800.000	-0.046	-0.140
-319.041	107.842	0.096	0.114
-318.026	144.630	0.153	-0.204
-317.012	203.830	-0.076	-0.117
-315.997	36.779	-0.036	0.032
-314.983	0.061	-0.172	0.122
-313.968	-200.000	0.013	0.155
-312.953	47.636	0.265	0.247
-311.939	710.592	0.037	0.098
-310.924	-200.000	0.030	-0.172
-309.910	-111.038	0.207	-0.042
-308.895	135.554	-0.127	0.164
-307.880	276.423	-0.131	0.233
-306.866	800.000	0.093	0.318
-305.851	-34.274	0.174	0.095
-304.837	36.757	0.251	-0.221
-303.822	-25.216	-0.240	0.142
-302.807	0.693	-0.343	-0.245
-301.793	-100.292	-0.253	-0.063
-300.778	-200.000	0.006	-0.181
-299.764	-109.140	-0.339	0.072
-298.749	339.864	0.039	0.076
-297.735	-6.152	0.152	-0.104
-296.720	4.018	0.345	-0.252
-295.705	800.000	0.093	0.320
-294.691	-200.000	-0.002	-0.105
-293.676	156.212	-0.153	-0.210
-292.662	33.895	0.089	0.077
-291.647	800.000	-0.027	0.087
-290.632	-77.194	0.085	0.029
-289.618	-33.553	-0.208	-0.114
-288.603	-179.766	0.207	0.004
-287.589	-175.728	-0.167	-0.004
-286.574	-26.099	0.283	0.166
-285.559	-91.974	-0.057	0.016
-284.545	233.020	0.071	-0.116
-283.530	-11.935	0.136	-0.089
-282.516	800.000	0.072	-0.242
-281.501	-39.337	-0.195	0.102
-280.486	-60.017	0.098	-0.042
-279.472	116.294	0.144	0.176
-278.457	-17.983	-0.142	0.088
-277.443	800.000	0.009	0.031
-276.428	82.895	0.204	0.221
-275.413	89.076	-0.076	0.085
-274.399	-200.000	-0.004	0.323
-273.384	239.616	-0.065	0.109
-272.370	122.862	0.180	-0.224
-271.355	-200.000	0.034	0.384
-270.340	800.000	-0.066	0.219
-269.326	800.000	-0.091	0.350
-268.311	-200.000	0.033	-0.342
-267.297	-20.628	0.239	-0.146
-266.282	-113.980	0.067	0.013
-265.267	-96.424	0.062	0.016
-264.253	51.683	-0.056	0.053
-263.238	-121.112	0.275	-0.046
-262.224	800.000	0.115	-0.378
-261.209	-49.738	-0.291	-0.138
-260.195	-200.000	0.006	-0.028
-259.180	-200.000	-0.047	0.328
-258.165	-39.518	0.226	0.118
-257.151	-90.203	0.206	0.060
-256.136	28.464	0.180	0.151
-255.122	-12.644	-0.100	-0.065
-254.107	800.000	-0.010	0.032
-253.092	72.722	0.213	-0.221
-252.078	398.426	-0.012	-0.024
-251.063	67.623	0.385	0.392
-250.049	156.469	-0.119	0.164
-249.034	-24.806	-0.331	-0.196
-248.019	-6.977	0.061	-0.041
-247.005	57.079	0.193	0.188
-245.990	-7.545	0.108	0.073
-244.976	-34.879	0.197	-0.107
-243.961	310.774	0.107	-0.199
-242.946	97.692	0.074	0.085
-241.932	101.982	-0.067	-0.077
-240.917	800.000	-0.107	0.343
-239.903	-75.283	0.350	0.124
-238.888	224.306	0.092	-0.148
-237.873	-144.381	0.026	-0.002
-236.859	-200.000	-0.042	0.269
-235.844	-143.952	-0.095	0.009
-234.830	-200.000	0.051	0.270
-233.815	-21.749	-0.300	0.182
-232.800	-44.702	-0.431	0.214
-231.786	-39.055	0.319	-0.167
-230.771	17.662	-0.131	0.104
-229.757	16.142	-0.166	0.130
-228.742	-200.000	-0.001	-0.105
-227.727	-136.903	-0.217	0.025
-226.713	199.368	0.064	-0.098
-225.698	800.000	-0.088	0.302
-224.684	738.261	-0.072	0.193
-223.669	-112.005	-0.176	0.035
-222.655	664.908	-0.070	0.181
-221.640	-142.397	-0.042	0.004
-220.625	224.348	0.017	0.027
-219.611	596.347	0.022	-0.054
-218.596	84.237	0.312	-0.339
-217.582	-57.822	-0.157	0.068
-216.567	136.215	0.159	0.206
-215.552	-200.000	-0.077	0.337
-214.538	800.000	-0.137	-0.484
-213.523	20.030	0.073	0.058
-212.509	-15.913	-0.156	0.098
-211.494	583.034	0.197	-0.481
-210.479	91.743	0.128	0.143
-209.465	-76.433	-0.077	0.027
-208.450	-45.618	0.222	0.109
-207.436	-200.000	0.041	0.294
-206.421	-39.937	-0.394	-0.204
-205.406	-200.000	0.010	0.140
-204.392	-168.166	0.158	0.006
-203.377	69.948	-0.269	-0.276
-202.363	149.622	0.101	-0.136
-201.348	-26.308	0.111	0.064
-200.333	97.580	-0.149	-0.170
-199.319	334.387	-0.100	0.192
-198.304	-200.000	-0.001	0.260
-197.290	673.801	0.029	0.076
-196.275	-17.034	0.095	-0.060
-195.260	385.671	-0.038	0.078
-194.246	40.164	-0.244	0.218
-193.231	-165.031	0.269	-0.012
-192.217	454.766	0.103	0.227
-191.202	56.126	0.067	-0.065
-190.187	62.914	-0.111	-0.110
-189.173	12.737	0.156	0.119
-188.158	-37.110	-0.375	-0.200
-187.144	-200.000	0.013	0.087
-186.129	-78.151	0.378	0.129
-185.114	28.023	0.178	-0.149
-184.100	273.379	-0.079	-0.138
-183.085	800.000	-0.062	0.210
-182.071	-62.863	0.381	0.157
-181.056	534.668	0.062	-0.147
-180.042	-55.504	-0.303	-0.135
-179.027	-136.861	-0.242	-0.028
-178.012	-22.573	0.165	-0.099
-176.998	-200.000	0.100	0.000
-175.983	-200.000	-0.029	0.132
-174.969	-21.365	-0.039	-0.024
-173.954	98.418	0.058	0.067
-172.939	137.735	-0.104	0.136
-171.925	36.523	-0.106	-0.093
-170.910	-30.782	-0.346	0.194
-169.896	22.724	-0.169	-0.138
-168.881	11.662	-0.117	-0.089
-167.866	800.000	-0.083	-0.255
-166.852	11.404	-0.114	-0.086
-165.837	-46.591	0.090	0.044
-164.823	-200.000	-0.017	0.334
-163.808	-28.186	-0.383	0.220
-162.793	116.621	-0.267	0.325
-161.779	-45.389	0.218	0.107
-160.764	-117.093	0.271	0.049
-159.750	-200.000	-0.021	0.125
-158.735	365.774	-0.055	-0.110
-157.720	51.882	0.142	0.134
-156.706	185.123	0.130	-0.191
-155.691	-200.000	0.037	0.311
-154.677	29.886	0.095	-0.080
-153.662	88.000	0.217	0.239
-152.647	-113.213	-0.092	0.018
-151.633	2.435	0.114	0.082
-150.618	-76.768	0.117	-0.041
-149.604	800.000	0.104	0.317
-148.589	-200.000	-0.027	0.235
-147.574	-30.208	-0.136	0.077
-146.560	79.943	0.097	-0.103
-145.545	-200.000	0.034	0.284
-144.531	800.000	-0.071	0.265
-143.516	800.000	0.015	0.064
-142.502	-200.000	0.044	-0.381
-141.487	-33.670	0.178	0.097
-140.472	-200.000	0.049	-0.297
-139.458	97.803	-0.050	-0.058
-138.443	-79.902	-0.152	0.051
-137.429	503.224	-0.162	0.372
-136.414	79.643	0.249	0.265
-135.399	-67.869	0.303	-0.117
-134.385	511.067	-0.043	-0.100
-133.370	-200.000	0.039	-0.214
-132.356	-8.751	0.322	0.214
-131.341	559.927	0.052	-0.123
-130.326	51.188	0.293	0.275
-129.312	-129.201	0.298	-0.041
-128.297	300.771	-0.090	0.164
-127.283	-200.000	0.025	0.111
-126.268	800.000	0.017	-0.056
-125.253	-39.038	0.105	-0.055
-124.239	-148.425	-0.342	-0.028
-123.224	270.316	0.030	0.052
-122.210	-150.896	0.198	0.015
-121.195	-38.683	-0.100	-0.052
-120.180	-200.000	0.017	0.163
-119.166	-200.000	0.012	0.058
-118.151	283.663	0.134	0.238
-117.137	-103.430	-0.124	0.029
-116.122	38.881	0.117	0.104
-115.107	4.724	0.167	-0.121
-114.093	779.315	0.090	0.243
-113.078	-200.000	0.005	-0.151
-112.064	533.621	-0.135	0.316
-111.049	98.667	-0.156	-0.179
-110.034	-0.745	0.333	0.234
-109.020	28.118	-0.107	0.090
-108.005	-118.762	0.148	-0.026
-106.991	109.671	0.267	0.316
-105.976	-42.548	-0.146	-0.073
-104.962	-122.952	0.112	0.018
-103.947	-69.735	-0.383	0.145
-102.932	7.276	0.079	-0.059
-101.918	172.217	-0.093	-0.132
-100.903	-76.288	-0.197	0.069
-99.889	-63.362	-0.258	0.105
-98.874	800.000	0.170	0.545
-97.859	362.795	0.130	0.259
-96.845	-35.703	-0.182	0.098
-95.830	-181.606	0.240	0.005
-94.816	618.152	-0.043	-0.107
-93.801	155.401	0.244	0.332
-92.786	20.800	-0.106	0.085
-91.772	-68.103	-0.117	0.045
-90.757	37.587	-0.029	-0.025
-89.743	8.557	0.211	0.157
-88.728	83.728	0.088	-0.095
-87.713	-198.878	-0.164	0.001
-86.699	-113.969	0.112	-0.022
-85.684	-200.000	-0.013	-0.075
-84.670	800.000	-0.132	-0.453
-83.655	74.861	-0.192	-0.200
-82.640	-139.868	0.247	-0.026
-81.626	93.456	-0.221	0.247
-80.611	350.458	-0.087	0.171
-79.597	800.000	-0.034	0.134
-78.582	237.816	0.053	0.087
-77.567	382.452	-0.072	-0.146
-76.553	384.399	-0.083	0.169
-75.538	800.000	-0.083	-0.329
-74.524	-200.000	-0.017	0.325
-73.509	-200.000	0.014	-0.188
-72.494	157.509	0.177	0.243
-71.480	-131.329	0.353	0.046
-70.465	-179.560	0.290	-0.006
-69.451	-200.000	-0.000	-0.119
-68.436	57.263	-0.167	0.161
-67.422	-113.898	0.176	0.034
-66.407	-58.088	-0.096	-0.041
-65.392	800.000	0.086	-0.328
-64.378	8.252	0.135	-0.100
-63.363	-200.000	0.066	0.455
-62.349	800.000	-0.127	0.452
-61.334	22.268	-1.020	-0.823
-60.319	-200.000	0.112	0.796
-59.305	685.699	-0.274	-0.708
-58.290	148.576	0.558	0.745
-57.276	389.204	0.742	1.518
-56.261	-200.000	97.941	581.588
-55.246	614.267	1421.455	3517.190
-54.232	183.799	2626.862	3838.050
-53.217	119.298	2187.038	2672.999
-52.203	45.354	1631.901	1487.080
-51.188	37.021	1365.253	1193.044
-50.173	33.710	1322.797	1136.120
-49.159	56.368	1372.467	1317.360
-48.144	59.724	1389.777	1354.330
-47.130	37.400	1344.252	1176.804
-46.115	33.690	1326.557	1139.048
-45.100	33.450	1322.081	1133.722
-44.086	33.518	1319.287	1131.688
-43.071	33.460	1316.918	1129.267
-42.057	33.334	1315.204	1127.003
-41.042	33.349	1313.671	1125.728
-40.027	33.381	1311.676	1124.169
-39.013	33.422	1310.185	1123.084
-37.998	33.475	1308.278	1121.724
-36.984	33.659	1306.417	1121.170
-35.969	33.579	1304.344	1118.876
-34.954	33.582	1302.804	1117.525
-33.940	33.603	1301.739	1116.691
-32.925	33.561	1300.376	1115.232
-31.911	33.662	1298.521	1114.188
-30.896	33.601	1297.284	1112.728
-29.881	33.603	1296.152	1111.723
-28.867	33.594	1294.819	1110.481
-27.852	33.607	1293.261	1109.176
-26.838	33.704	1291.517	1108.207
-25.823	33.621	1290.273	1106.611
-24.809	33.526	1289.694	1105.514
-23.794	33.619	1287.615	1104.228
-22.779	33.520	1286.488	1102.643
-21.765	33.564	1285.124	1101.685
-20.750	33.655	1283.475	1100.760
-19.736	33.546	1282.512	1099.256
-18.721	33.434	1281.894	1098.034
-17.706	33.433	1280.293	1096.611
-16.692	33.418	1278.868	1095.262
-15.677	33.462	1278.362	1095.040
-14.663	33.365	1277.111	1093.362
-13.648	33.482	1275.705	1092.790
-12.633	33.383	1275.187	1091.735
-11.619	33.371	1274.463	1091.000
-10.604	33.439	1273.241	1090.304
-9.590	33.463	1271.934	1089.282
-8.575	33.441	1271.035	1088.340
-7.560	33.455	1270.391	1087.828
-6.546	33.447	1269.160	1086.680
-5.531	33.467	1268.516	1086.204
-4.517	33.402	1267.846	1085.213
-3.502	33.358	1266.879	1084.089
-2.487	33.544	1265.805	1084.194
-1.473	33.440	1262.258	1080.520
-0.458	32.498	1247.549	1062.572
0.556	27.861	1230.138	1025.011
1.571	24.260	1235.636	1009.151
2.586	23.341	1251.389	1016.659
3.600	22.487	1240.677	1003.006
4.615	17.101	1167.617	914.911
5.629	9.001	1091.658	814.353
6.644	5.301	1071.382	780.697
7.659	4.811	1069.184	776.585
8.673	4.878	1067.614	775.708
9.688	4.871	1066.093	774.497
10.702	5.085	1064.316	774.200
11.717	10.108	1071.667	804.526
12.731	17.336	1082.342	848.664
13.746	19.367	1083.502	859.638
14.761	18.042	1081.357	851.259
15.775	17.037	1078.850	844.214
16.790	15.947	1077.148	837.395
17.804	15.195	1075.277	832.133
18.819	14.864	1074.545	829.850
19.834	14.651	1072.894	827.443
20.848	14.383	1072.338	825.615
21.863	14.127	1071.390	823.544
22.877	13.972	1071.021	822.418
23.892	13.995	1070.040	821.707
24.907	13.808	1069.956	820.643
25.921	14.123	1067.969	820.606
26.936	14.136	1066.676	819.602
27.950	14.089	1065.543	818.426
28.965	14.195	1064.012	817.700
29.980	14.244	1062.127	816.422
30.994	14.174	1061.287	815.360
32.009	14.335	1060.186	815.228
33.023	14.309	1059.188	814.260
34.038	14.194	1058.372	813.003
35.053	14.196	1057.386	812.178
36.067	14.109	1056.554	811.047
37.082	14.106	1056.163	810.659
38.096	14.256	1054.811	810.279
39.111	14.296	1054.100	809.857
40.126	14.165	1052.679	808.059
41.140	14.112	1051.147	806.553
42.155	13.969	1050.519	805.306
43.169	14.022	1049.120	804.419
44.184	13.941	1048.347	803.364
45.199	13.923	1046.848	802.057
46.213	13.935	1046.024	801.411
47.228	14.164	1044.654	801.396
48.242	14.085	1043.887	800.356
49.257	14.069	1043.161	799.651
50.271	14.085	1042.161	798.892
51.286	14.144	1041.270	798.418
52.301	14.012	1040.443	797.082
53.315	14.052	1039.379	796.391
54.330	14.075	1037.933	795.318
55.344	13.959	1037.232	794.159
56.359	13.999	1036.258	793.531
57.374	14.049	1035.331	792.993
58.388	13.976	1034.551	791.979
59.403	13.883	1034.140	791.150
60.417	13.774	1033.140	789.796
61.432	13.938	1032.361	789.908
62.447	13.978	1031.265	789.192
63.461	13.701	1030.801	787.451
64.476	13.819	1029.801	787.176
65.490	13.739	1028.707	785.890
66.505	13.903	1028.050	786.099
67.520	13.834	1027.562	785.326
68.534	13.971	1026.303	784.943
69.549	13.827	1025.917	783.899
70.563	13.802	1025.109	783.092
71.578	13.914	1023.679	782.462
72.593	13.699	1023.684	781.381
73.607	13.732	1022.718	780.728
74.622	13.817	1021.644	780.240
75.636	13.786	1021.441	779.871
76.651	13.809	1020.544	779.224
77.666	13.835	1019.803	778.713
78.680	13.808	1019.185	778.043
79.695	13.834	1018.690	777.718
80.709	13.889	1017.999	777.381
81.724	14.000	1017.517	777.462
82.739	13.963	1016.304	776.297
83.753	14.078	1015.970	776.507
84.768	14.280	1014.752	776.450
85.782	14.229	1014.109	775.650
86.797	14.281	1013.189	775.124
87.812	14.007	1012.616	773.341
88.826	14.191	1011.199	773.047
89.841	14.077	1010.519	771.928
90.855	14.339	1009.368	772.195
91.870	14.340	1008.346	771.347
92.884	14.233	1008.111	770.605
93.899	14.345	1007.069	770.258
94.914	14.331	1006.688	769.835
95.928	14.322	1005.348	768.700
96.943	14.330	1004.180	767.774
97.957	14.277	1003.642	767.051
98.972	14.281	1003.006	766.516
99.987	14.160	1002.402	765.431
101.001	14.222	1000.811	764.433
102.016	14.134	1000.367	763.623
103.030	14.297	999.563	763.689
104.045	14.191	998.422	762.262
105.060	14.258	997.471	761.778
106.074	14.027	996.947	760.255
107.089	13.966	995.253	758.617
108.103	14.008	994.609	758.249
109.118	13.988	993.575	757.304
110.133	13.869	992.965	756.227
111.147	13.946	992.138	755.883
112.162	13.983	991.230	755.292
113.176	14.067	990.418	754.986
114.191	14.100	989.886	754.665
115.206	13.974	989.121	753.444
116.220	13.992	988.263	752.805
117.235	13.994	987.070	751.839
118.249	14.059	986.510	751.638
119.264	14.050	985.711	750.923
120.279	14.097	984.624	750.240
121.293	13.900	983.771	748.639
122.308	13.863	983.082	747.880
123.322	13.857	982.053	747.004
124.337	13.986	980.841	746.594
125.352	13.904	979.680	745.278
126.366	13.943	978.809	744.726
127.381	13.922	977.991	743.942
128.395	14.010	977.023	743.535
129.410	14.009	976.018	742.699
130.424	14.101	974.968	742.245
131.439	14.114	974.745	742.068
132.454	14.136	973.561	741.198
133.468	14.216	973.160	741.181
134.483	14.170	972.172	740.162
135.497	14.180	971.475	739.610
136.512	14.125	970.358	738.451
137.527	14.067	969.378	737.379
138.541	14.077	969.264	737.275
139.556	14.194	968.132	736.863
140.570	14.256	967.850	736.858
141.585	14.250	966.735	735.921
142.600	14.302	965.826	735.391
143.614	14.395	964.699	734.877
144.629	14.422	964.251	734.592
145.643	14.278	963.689	733.464
146.658	14.300	962.270	732.417
147.673	14.205	961.200	731.119
148.687	14.054	960.582	729.920
149.702	14.173	959.900	729.862
150.716	14.088	958.927	728.683
151.731	14.189	958.079	728.417
152.746	14.200	957.442	727.916
153.760	14.265	956.933	727.747
154.775	14.311	956.340	727.435
155.789	14.344	955.635	726.977
156.804	14.277	954.956	726.104
157.819	14.288	954.556	725.785
158.833	14.495	953.763	726.017
159.848	14.469	952.986	725.249
160.862	14.397	951.798	723.971
161.877	14.336	950.919	722.972
162.892	14.172	950.153	721.613
163.906	14.222	948.971	720.869
164.921	14.280	948.086	720.384
165.935	14.249	947.507	719.746
166.950	14.280	946.627	719.149
167.964	14.346	945.436	718.463
168.979	14.384	944.462	717.824
169.994	14.373	943.892	717.279
171.008	14.355	943.208	716.619
172.023	14.505	942.237	716.462
173.037	14.617	941.201	716.094
174.052	14.397	940.812	714.789
175.067	14.420	940.347	714.473
176.081	14.300	939.674	713.382
177.096	14.308	939.265	713.046
178.110	14.323	938.557	712.506
179.125	14.499	938.016	712.785
180.140	14.366	937.415	711.699
181.154	14.564	936.840	712.043
182.169	14.515	936.932	711.841
183.183	14.612	935.922	711.423
184.198	14.713	934.896	711.013
185.213	14.545	934.640	710.038
186.227	14.668	933.550	709.669
187.242	14.653	933.073	709.184
188.256	14.793	932.461	709.248
189.271	14.656	931.883	708.163
190.286	14.430	931.153	706.591
191.300	14.281	930.593	705.472
192.315	14.305	929.779	704.893
193.329	14.400	929.355	704.912
194.344	14.485	928.360	704.453
195.359	14.577	927.681	704.265
196.373	14.646	927.010	703.983
197.388	14.754	926.871	704.271
198.402	14.840	926.356	704.180
199.417	14.815	925.635	703.465
200.432	14.833	925.473	703.356
201.446	14.890	924.696	702.940
202.461	14.909	924.723	702.979
203.475	14.829	923.946	701.989
204.490	14.820	922.687	700.934
205.504	14.719	922.196	700.078
206.519	14.920	920.961	699.917
207.534	14.860	920.735	699.432
208.548	14.921	919.632	698.788
209.563	14.946	918.872	698.253
210.577	14.870	918.350	697.476
211.592	14.914	917.930	697.281
212.607	15.034	917.149	697.127
213.621	15.032	916.333	696.434
214.636	14.988	915.939	695.889
215.650	15.105	915.017	695.617
216.665	15.118	914.227	695.007
217.680	15.133	913.816	694.696
218.694	15.223	913.065	694.434
219.709	15.044	912.337	693.078
220.723	15.101	911.871	692.900
221.738	15.169	911.303	692.686
222.753	15.166	910.616	692.093
223.767	15.137	910.124	691.537
224.782	15.232	909.205	691.168
225.796	15.366	908.815	691.365
226.811	15.283	908.007	690.345
227.826	15.266	907.562	689.878
228.840	15.154	906.634	688.649
229.855	15.273	905.887	688.511
230.869	15.234	904.900	687.539
231.884	15.014	904.817	686.514
232.899	15.068	903.758	685.871
233.913	15.060	903.291	685.424
234.928	15.133	902.627	685.156
235.942	15.083	902.010	684.422
236.957	15.185	901.288	684.233
237.972	15.230	900.594	683.827
238.986	15.232	899.903	683.252
240.001	15.219	899.505	682.836
241.015	15.229	898.916	682.369
242.030	15.218	898.540	681.979
243.045	15.234	897.632	681.294
244.059	15.211	897.291	680.880
245.074	15.433	896.194	680.890
246.088	15.301	895.715	679.929
247.103	15.440	895.027	679.909
248.117	15.551	894.496	679.894
249.132	15.678	893.932	679.922
250.147	15.729	893.375	679.645
251.161	15.750	892.534	679.029
252.176	15.667	892.339	678.485
253.190	15.810	891.521	678.380
254.205	15.855	891.036	678.132
255.220	15.852	890.264	677.471
256.234	15.834	889.666	676.884
257.249	15.816	888.979	676.228
258.263	15.768	888.178	675.366
259.278	15.976	887.248	675.434
260.293	15.810	887.375	674.805
261.307	16.014	886.589	674.965
262.322	16.013	885.489	674.063
263.336	15.942	884.885	673.263
264.351	15.829	884.875	672.743
265.366	15.975	883.717	672.386
266.380	16.140	882.915	672.375
267.395	15.975	882.449	671.301
268.409	15.923	881.520	670.330
269.424	16.011	881.157	670.343
270.439	15.904	880.477	669.342
271.453	16.030	879.169	668.789
272.468	15.926	879.016	668.199
273.482	16.050	878.314	668.099
274.497	16.039	877.842	667.638
275.512	15.853	877.227	666.374
276.526	15.860	876.918	666.107
277.541	15.885	876.399	665.755
278.555	16.035	875.776	665.815
279.570	16.187	875.097	665.837
280.585	16.180	874.167	665.045
281.599	16.154	873.594	664.448
282.614	16.021	873.280	663.628
283.628	16.109	872.404	663.248
284.643	16.139	871.805	662.853
285.657	16.174	870.865	662.214
286.672	16.106	870.465	661.588
287.687	16.189	869.430	661.068
288.701	16.227	869.187	660.974
289.716	16.172	868.750	660.367
290.730	16.236	868.134	660.089
291.745	16.311	867.555	659.885
292.760	16.340	866.909	659.449
293.774	16.261	866.628	658.866
294.789	16.181	865.990	658.009
295.803	16.283	864.943	657.554
296.818	16.193	864.248	656.617
297.833	16.288	863.610	656.444
298.847	16.281	862.883	655.807
299.862	16.252	862.513	655.357
300.876	16.471	861.927	655.700
301.891	16.432	861.397	655.089
302.906	16.372	861.031	654.522
303.920	16.593	860.219	654.701
304.935	16.501	859.888	654.035
305.949	16.471	859.502	653.568
306.964	16.601	858.493	653.246
307.979	16.489	858.269	652.583
308.993	16.404	858.126	652.089
310.008	16.474	857.038	651.475
311.022	16.568	856.496	651.368
312.037	16.745	855.662	651.354
313.052	16.557	855.047	650.107
314.066	16.614	854.296	649.698
315.081	16.367	854.106	648.546
316.095	16.470	853.372	648.327
317.110	16.501	853.066	648.156
318.125	16.554	852.350	647.758
319.139	16.605	851.772	647.458
320.154	16.598	851.292	647.008
321.168	16.546	850.900	646.454
322.183	16.597	850.277	646.117
323.197	16.667	849.338	645.613
324.212	16.644	849.267	645.414
325.227	16.457	848.821	644.309
326.241	16.503	848.075	643.858
327.256	16.522	847.350	643.324
328.270	16.605	847.029	643.340
329.285	16.627	846.180	642.722
330.300	16.452	846.274	642.070
331.314	16.581	845.330	641.785
332.329	16.680	844.899	641.777
333.343	16.824	844.313	641.822
334.358	16.813	843.846	641.368
335.373	16.681	843.624	640.644
336.387	16.770	843.172	640.581
337.402	16.757	843.067	640.394
338.416	16.954	842.691	640.796
339.431	17.028	842.179	640.630
340.446	16.901	841.734	639.754
341.460	17.007	841.279	639.752
342.475	17.180	840.863	640.031
343.489	17.017	840.834	639.337
344.504	17.198	840.018	639.343
345.519	17.122	839.404	638.532
346.533	17.073	839.139	638.091
347.548	17.031	838.750	637.582
348.562	16.910	838.250	636.689
349.577	16.999	837.258	636.215
350.592	17.031	836.428	635.646
351.606	17.002	835.771	634.984
352.621	16.884	835.009	633.907
353.635	16.905	834.729	633.715
354.650	16.992	834.357	633.703
355.665	16.997	833.351	632.902
356.679	17.174	832.622	632.951
357.694	17.186	832.193	632.613
358.708	17.231	831.145	631.930
359.723	17.095	831.283	631.473
360.738	17.145	830.376	630.912
361.752	17.142	829.709	630.341
362.767	17.272	829.139	630.331
363.781	17.339	828.850	630.303
364.796	17.424	828.113	630.005
365.810	17.340	828.259	629.749
366.825	17.465	827.386	629.491
367.840	17.390	826.962	628.835
368.854	17.322	827.026	628.575
369.869	17.362	826.119	627.978
370.883	17.351	825.851	627.679
371.898	17.433	825.364	627.558
372.913	17.528	825.200	627.726
373.927	17.505	824.544	627.089
374.942	17.558	824.145	626.924
375.956	17.558	823.936	626.709
376.971	17.758	823.241	626.861
377.986	17.667	823.014	626.297
379.000	17.584	822.539	625.576
380.015	17.646	821.792	625.178
381.029	17.554	820.921	624.127
382.044	17.631	820.960	624.380
383.059	17.721	820.317	624.167
384.073	17.646	819.606	623.294
385.088	17.707	818.588	622.688
386.102	17.590	818.433	622.089
387.117	17.682	817.686	621.804
388.132	17.530	817.398	620.973
389.146	17.590	816.778	620.665
390.161	17.648	816.178	620.367
391.175	17.784	815.967	620.646
392.190	17.727	815.252	619.840
393.205	17.815	814.221	619.320
394.219	17.911	814.111	619.533
395.234	17.679	813.986	618.538
396.248	17.580	813.756	617.950
397.263	17.732	812.926	617.815
398.278	17.584	812.709	617.062
399.292	17.704	812.466	617.257
400.307	17.655	811.954	616.634
401.321	17.788	811.142	616.446
402.336	17.790	810.771	616.116
403.350	17.824	810.168	615.725
404.365	17.846	809.906	615.552
405.380	17.903	809.460	615.364
406.394	17.942	809.150	615.215
407.409	18.097	808.363	615.120
408.423	18.161	808.125	615.112
409.438	18.036	808.203	614.668
410.453	18.178	807.365	614.486
411.467	17.978	807.466	613.791
412.482	18.273	806.361	613.954
413.496	18.244	806.348	613.787
414.511	18.143	806.026	613.124
415.526	18.201	805.615	612.966
416.540	18.195	804.924	612.365
417.555	18.153	804.388	611.752
418.569	18.298	804.053	611.961
419.584	18.227	803.674	611.365
420.599	18.250	803.342	611.141
421.613	153.934	1370.477	1790.725
422.628	133.492	1453.129	1790.840
