DTS Sentinel unit serial number:	SN413079Multiplexer serial number:	ORYXHardware model number:	OX4-SRSoftware version number:	ORYX F/W v4.00 Oryx Data Collector v3.7.2.0data status	okinstallation	princeton_trtdifferential loss correction	single-endedforward channel	channel 1reverse channel	N/Adate	2019/09/17time	04:30:35forward acquisition time	60.00reverse acquisition time	0.00gamma	496.2192k internal	0.2323k external	0.2323temperature offset calibration	0.9962default loss term (dB/km)	0.3790temperature slope calibration	1.0000multiplexer offset coefficient	1.0000multiplexer slope coefficient	1.0000fibre end	0.00T internal ref (°C)	29.69T ext. ref 1 (°C)	0.12T ext. ref 2 (°C)	24.17length (m)	temperature (°C)	Stokes	anti-Stokes-747.200	-200.000	0.024	0.222
-746.185	37.455	-0.151	0.136
-745.171	350.864	-0.043	0.087
-744.156	739.279	-0.037	0.100
-743.142	5.622	-0.304	-0.227
-742.127	-129.375	0.160	0.022
-741.112	-114.310	-0.196	0.038
-740.098	-73.038	0.179	0.066
-739.083	-69.746	0.125	-0.048
-738.069	147.746	-0.131	-0.179
-737.054	11.374	0.248	-0.192
-736.039	429.644	0.197	-0.430
-735.025	-111.953	0.130	-0.026
-734.010	37.328	-0.240	-0.215
-732.996	111.205	0.153	-0.186
-731.981	-136.396	-0.293	-0.034
-730.966	-87.383	-0.082	-0.025
-729.952	800.000	0.069	-0.243
-728.937	342.556	-0.047	-0.093
-727.923	-119.739	-0.353	0.061
-726.908	-1.043	0.241	-0.172
-725.894	-200.000	0.028	-0.421
-724.879	-102.873	0.165	0.040
-723.864	-87.069	-0.171	0.053
-722.850	-141.496	-0.278	-0.028
-721.835	-50.147	0.413	-0.197
-720.821	20.389	-0.381	-0.311
-719.806	-55.769	-0.134	0.060
-718.791	140.835	-0.066	0.088
-717.777	-87.988	-0.447	0.136
-716.762	180.633	-0.163	0.241
-715.748	-191.115	0.128	0.001
-714.733	-200.000	0.013	-0.057
-713.718	-68.084	0.213	-0.084
-712.704	487.760	-0.072	0.165
-711.689	29.292	-0.140	0.120
-710.675	184.412	-0.097	0.145
-709.660	-200.000	0.036	0.295
-708.645	-22.361	0.407	-0.248
-707.631	134.492	0.087	0.114
-706.616	-200.000	-0.029	0.142
-705.602	49.063	-0.204	0.193
-704.587	-51.345	-0.240	-0.113
-703.572	-100.781	-0.335	-0.083
-702.558	246.259	0.124	0.211
-701.543	540.235	-0.145	0.347
-700.529	-200.000	0.017	-0.240
-699.514	37.170	-0.174	0.155
-698.499	62.607	-0.093	0.094
-697.485	-118.032	0.169	0.030
-696.470	296.533	-0.106	-0.195
-695.456	105.906	-0.177	0.211
-694.441	118.024	-0.099	-0.123
-693.426	254.211	-0.138	0.238
-692.412	-72.689	-0.495	0.184
-691.397	-200.000	0.017	0.260
-690.383	182.968	-0.126	0.187
-689.368	-200.000	0.023	0.416
-688.354	-200.000	0.047	-0.348
-687.339	-200.000	0.042	-0.284
-686.324	-110.988	0.423	-0.088
-685.310	-81.444	-0.230	0.076
-684.295	-119.962	0.057	-0.010
-683.281	133.512	0.057	0.074
-682.266	13.749	0.106	-0.083
-681.251	94.922	-0.274	0.314
-680.237	789.206	0.026	-0.072
-679.222	-200.000	-0.017	-0.112
-678.208	-138.470	0.095	0.011
-677.193	611.138	-0.067	-0.169
-676.178	2.493	0.178	-0.130
-675.164	221.990	-0.235	-0.381
-674.149	-5.718	0.287	-0.198
-673.135	8.560	-0.177	-0.134
-672.120	-12.757	0.269	0.177
-671.105	642.640	-0.073	0.187
-670.091	-89.289	-0.131	0.039
-669.076	800.000	0.004	0.018
-668.062	-200.000	0.041	0.336
-667.047	-80.002	0.168	-0.057
-666.032	405.111	-0.061	0.130
-665.018	-124.526	-0.282	0.044
-664.003	43.819	0.028	0.025
-662.989	-200.000	-0.012	-0.301
-661.974	19.192	0.064	0.052
-660.959	150.456	-0.238	-0.326
-659.945	-174.880	-0.047	-0.001
-658.930	800.000	-0.105	-0.322
-657.916	800.000	0.112	-0.355
-656.901	-65.353	-0.396	-0.160
-655.886	-200.000	-0.015	0.194
-654.872	249.439	0.024	-0.040
-653.857	48.898	-0.298	-0.281
-652.843	391.046	-0.042	-0.087
-651.828	81.962	0.206	-0.225
-650.814	800.000	-0.083	-0.344
-649.799	-85.498	-0.344	0.108
-648.784	-64.984	-0.321	0.130
-647.770	-64.926	0.125	0.051
-646.755	800.000	-0.024	-0.083
-645.741	800.000	-0.059	0.179
-644.726	800.000	0.031	-0.128
-643.711	-200.000	0.006	-0.202
-642.697	-33.043	-0.164	-0.092
-641.682	-29.190	0.098	0.056
-640.668	122.778	-0.049	0.062
-639.653	12.008	-0.207	0.160
-638.638	800.000	-0.015	-0.045
-637.624	800.000	0.036	0.107
-636.609	136.077	-0.226	0.296
-635.595	357.657	0.085	-0.170
-634.580	321.645	-0.101	0.193
-633.565	-19.867	-0.075	-0.047
-632.551	0.251	-0.234	-0.168
-631.536	-45.158	0.116	0.058
-630.522	-200.000	-0.020	0.195
-629.507	575.912	-0.072	-0.176
-628.492	134.772	0.131	-0.170
-627.478	392.446	-0.142	0.298
-626.463	156.084	-0.109	-0.151
-625.449	-11.229	0.079	0.053
-624.434	800.000	0.051	-0.191
-623.419	-200.000	-0.003	-0.101
-622.405	-200.000	0.036	-0.276
-621.390	112.735	-0.243	-0.296
-620.376	-172.624	0.272	-0.009
-619.361	-38.573	-0.064	0.034
-618.346	-115.404	0.083	-0.016
-617.332	318.595	0.085	-0.162
-616.317	-200.000	0.003	0.052
-615.303	-200.000	-0.001	-0.046
-614.288	-200.000	0.001	-0.068
-613.273	762.151	-0.118	0.322
-612.259	-200.000	-0.024	-0.302
-611.244	-42.305	0.215	0.110
-610.230	439.143	0.051	-0.111
-609.215	800.000	0.046	-0.140
-608.201	289.392	-0.067	0.121
-607.186	102.408	0.086	0.101
-606.171	407.840	0.089	-0.189
-605.157	-200.000	0.019	-0.466
-604.142	-73.214	-0.270	-0.099
-603.128	-200.000	-0.049	0.303
-602.113	193.300	0.285	-0.432
-601.098	800.000	-0.083	-0.322
-600.084	-200.000	0.010	-0.207
-599.069	-137.927	0.216	0.024
-598.055	-200.000	0.000	0.125
-597.040	-200.000	0.025	0.304
-596.025	-200.000	-0.020	-0.171
-595.011	138.575	0.211	0.278
-593.996	-200.000	-0.009	-0.240
-592.982	-70.123	-0.201	-0.077
-591.967	16.617	-0.038	-0.030
-590.952	279.733	0.045	-0.081
-589.938	-73.704	-0.146	-0.053
-588.923	-169.832	0.231	0.008
-587.909	-120.797	0.200	0.034
-586.894	-77.513	-0.258	0.090
-585.879	-83.172	0.235	-0.076
-584.865	800.000	-0.073	-0.219
-583.850	80.677	0.094	-0.101
-582.836	141.839	-0.248	-0.330
-581.821	27.880	0.083	0.070
-580.806	14.330	0.041	0.032
-579.792	481.270	0.072	0.163
-578.777	-7.368	-0.282	0.191
-577.763	-200.000	-0.008	0.229
-576.748	800.000	0.118	0.408
-575.733	193.184	-0.099	-0.150
-574.719	-43.135	0.149	0.076
-573.704	-97.651	0.216	0.056
-572.690	698.364	-0.156	0.411
-571.675	175.977	-0.179	0.261
-570.661	-152.727	0.152	-0.011
-569.646	453.457	0.163	0.361
-568.631	-28.720	-0.147	0.085
-567.617	-99.886	-0.083	-0.021
-566.602	100.584	0.079	-0.093
-565.588	168.454	-0.088	0.125
-564.573	-51.104	0.190	0.089
-563.558	30.711	-0.246	0.212
-562.544	60.487	-0.072	-0.072
-561.529	-200.000	-0.039	0.232
-560.515	511.477	0.065	0.152
-559.500	-200.000	-0.035	-0.370
-558.485	-154.865	0.271	0.018
-557.471	-200.000	0.062	-0.332
-556.456	-103.075	-0.216	0.051
-555.442	-200.000	-0.049	0.359
-554.427	244.139	0.175	-0.295
-553.412	-88.848	0.065	0.019
-552.398	16.694	-0.061	-0.048
-551.383	461.836	-0.070	-0.156
-550.369	-130.198	0.212	0.029
-549.354	-200.000	-0.012	-0.159
-548.339	719.257	-0.038	0.102
-547.325	85.649	0.179	0.198
-546.310	77.357	-0.087	0.093
-545.296	-28.969	0.185	-0.106
-544.281	-122.031	-0.427	0.070
-543.266	112.728	-0.043	0.053
-542.252	109.714	0.208	0.250
-541.237	44.460	0.075	0.069
-540.223	-200.000	-0.043	-0.284
-539.208	-139.089	-0.345	-0.037
-538.193	-39.263	0.106	-0.056
-537.179	332.563	0.072	0.140
-536.164	800.000	-0.046	-0.177
-535.150	-102.818	0.103	-0.024
-534.135	-200.000	0.001	-0.181
-533.121	119.661	-0.175	-0.217
-532.106	-129.094	-0.152	-0.021
-531.091	1.780	0.231	0.166
-530.077	-185.223	0.171	-0.003
-529.062	35.837	-0.093	0.082
-528.048	-8.645	-0.041	0.028
-527.033	800.000	-0.135	0.467
-526.018	-76.011	0.269	0.095
-525.004	593.438	0.114	-0.282
-523.989	-138.444	0.238	-0.026
-522.975	-200.000	-0.027	-0.304
-521.960	146.724	-0.038	-0.051
-520.945	-109.406	-0.129	0.027
-519.931	-200.000	-0.025	0.179
-518.916	-48.658	0.072	0.035
-517.902	-112.720	0.314	0.062
-516.887	-122.486	-0.183	0.030
-515.872	800.000	0.073	0.311
-514.858	33.617	0.095	-0.083
-513.843	-193.187	-0.320	0.003
-512.829	169.297	0.164	0.235
-511.814	-140.449	0.121	0.013
-510.799	146.541	-0.214	-0.288
-509.785	-200.000	-0.024	-0.183
-508.770	206.617	0.011	-0.017
-507.756	-80.268	0.304	-0.102
-506.741	800.000	0.020	0.084
-505.726	800.000	-0.059	-0.231
-504.712	-140.971	0.181	0.019
-503.697	134.017	-0.164	-0.213
-502.683	215.552	-0.045	-0.072
-501.668	374.031	0.098	0.200
-500.653	308.380	-0.137	0.257
-499.639	-108.238	-0.159	0.034
-498.624	-200.000	0.048	0.221
-497.610	104.855	0.020	0.024
-496.595	315.419	-0.042	-0.079
-495.581	-200.000	0.005	0.204
-494.566	340.868	-0.155	0.302
-493.551	160.142	-0.144	-0.201
-492.537	9.739	0.331	0.251
-491.522	51.054	-0.224	0.212
-490.508	-200.000	0.096	-0.556
-489.493	-49.988	-0.255	0.121
-488.478	159.705	0.271	-0.377
-487.464	55.334	0.165	0.159
-486.449	77.542	-0.253	-0.269
-485.435	126.647	0.174	-0.220
-484.420	-164.688	0.325	-0.015
-483.405	-81.130	0.196	0.065
-482.391	-160.940	0.121	0.006
-481.376	783.353	0.060	0.166
-480.362	192.821	-0.199	0.300
-479.347	480.132	0.102	0.232
-478.332	746.212	-0.121	0.327
-477.318	42.244	0.137	-0.124
-476.303	124.509	0.308	-0.388
-475.289	-172.418	-0.434	-0.014
-474.274	-6.944	0.062	-0.042
-473.259	-200.000	-0.000	-0.058
-472.245	199.367	0.083	0.128
-471.230	-108.507	-0.167	0.036
-470.216	4.241	0.495	-0.362
-469.201	-30.161	-0.243	0.138
-468.186	-95.404	0.364	-0.098
-467.172	10.866	-0.181	-0.138
-466.157	304.139	0.064	0.119
-465.143	800.000	0.128	-0.407
-464.128	320.791	0.077	0.146
-463.113	28.054	-0.089	-0.075
-462.099	800.000	0.027	-0.104
-461.084	-187.144	0.281	-0.004
-460.070	163.588	-0.093	0.130
-459.055	-54.264	0.130	0.059
-458.040	-13.502	-0.039	0.025
-457.026	-200.000	-0.016	0.157
-456.011	-118.414	0.120	-0.021
-454.997	-127.595	-0.080	-0.012
-453.982	15.688	0.009	-0.007
-452.968	-200.000	0.019	0.241
-451.953	-200.000	-0.054	0.239
-450.938	800.000	0.040	-0.141
-449.924	316.109	0.163	0.307
-448.909	-111.676	-0.284	0.057
-447.895	379.071	0.122	0.250
-446.880	800.000	-0.067	-0.196
-445.865	-200.000	0.008	0.235
-444.851	-200.000	0.027	0.232
-443.836	167.732	-0.178	-0.253
-442.822	42.353	0.177	-0.161
-441.807	-200.000	-0.040	-0.232
-440.792	-25.418	-0.259	0.153
-439.778	-145.724	-0.253	-0.023
-438.763	-97.444	0.295	0.077
-437.749	501.765	-0.036	0.083
-436.734	37.263	-0.036	-0.032
-435.719	99.752	0.296	-0.343
-434.705	-142.947	-0.511	0.049
-433.690	-122.057	-0.366	-0.060
-432.676	-94.245	0.068	-0.019
-431.661	52.085	-0.149	-0.141
-430.646	-124.877	0.257	-0.040
-429.632	-48.941	0.186	-0.089
-428.617	90.163	-0.093	-0.104
-427.603	-28.969	-0.275	-0.157
-426.588	66.001	0.193	-0.195
-425.573	-200.000	0.020	-0.314
-424.559	-200.000	-0.027	0.121
-423.544	231.219	0.060	0.099
-422.530	243.524	-0.030	0.050
-421.515	589.267	0.079	-0.194
-420.500	-14.528	-0.284	-0.182
-419.486	-144.842	0.169	-0.015
-418.471	51.092	-0.096	0.091
-417.457	15.924	-0.196	0.154
-416.442	-200.000	0.049	-0.277
-415.428	154.812	0.089	-0.122
-414.413	34.955	0.404	0.352
-413.398	-16.367	-0.227	0.144
-412.384	-82.112	0.172	0.056
-411.369	-132.737	-0.436	0.056
-410.355	-200.000	-0.009	0.185
-409.340	200.229	-0.164	0.251
-408.325	-27.179	-0.129	0.075
-407.311	-21.950	0.384	-0.232
-406.296	-96.491	-0.079	0.021
-405.282	800.000	0.050	0.161
-404.267	-200.000	0.014	0.268
-403.252	-52.921	-0.211	-0.097
-402.238	43.969	0.063	-0.057
-401.223	-169.687	0.222	-0.008
-400.209	77.737	0.016	0.017
-399.194	-50.592	0.155	0.073
-398.179	292.786	0.087	0.157
-397.165	7.495	-0.180	0.134
-396.150	-114.625	0.065	0.012
-395.136	90.312	0.099	-0.111
-394.121	23.953	0.126	0.103
-393.106	-34.160	0.094	-0.051
-392.092	-142.034	0.221	-0.022
-391.077	800.000	-0.141	-0.427
-390.063	96.283	-0.054	-0.061
-389.048	314.139	0.165	0.310
-388.033	-114.188	-0.186	0.036
-387.019	124.583	0.166	-0.208
-386.004	197.071	-0.137	-0.208
-384.990	4.251	-0.342	-0.249
-383.975	183.459	0.071	-0.104
-382.960	-9.283	-0.190	0.126
-381.946	-111.131	-0.268	-0.055
-380.931	-9.151	0.182	-0.121
-379.917	743.273	0.011	0.029
-378.902	-189.974	0.318	-0.004
-377.888	-200.000	-0.009	-0.357
-376.873	-125.842	-0.145	0.022
-375.858	-115.999	0.293	-0.054
-374.844	-117.191	-0.123	-0.022
-373.829	-140.452	-0.222	-0.023
-372.815	3.118	0.009	-0.006
-371.800	-200.000	-0.032	0.201
-370.785	1.490	-0.160	-0.114
-369.771	118.410	-0.096	-0.118
-368.756	-87.178	0.297	-0.090
-367.742	-0.484	-0.185	-0.131
-366.727	-200.000	0.002	0.036
-365.712	-200.000	-0.001	-0.025
-364.698	59.129	-0.168	0.165
-363.683	-200.000	0.044	-0.317
-362.669	-8.753	0.316	0.211
-361.654	-200.000	0.180	0.000
-360.639	-127.968	-0.248	0.035
-359.625	1.208	-0.198	0.141
-358.610	-81.877	0.308	-0.100
-357.596	-163.753	0.247	-0.012
-356.581	-59.185	-0.109	-0.047
-355.566	37.599	-0.137	-0.121
-354.552	27.502	-0.103	-0.086
-353.537	280.947	0.154	-0.275
-352.523	712.233	0.060	0.159
-351.508	630.595	-0.134	0.336
-350.493	-82.897	0.206	-0.066
-349.479	80.301	0.172	-0.184
-348.464	362.261	0.153	-0.306
-347.450	682.932	0.115	0.299
-346.435	410.448	0.109	-0.229
-345.420	221.868	-0.058	-0.092
-344.406	-55.064	0.274	0.123
-343.391	-99.298	-0.211	0.053
-342.377	-178.990	-0.106	0.002
-341.362	-165.547	0.325	-0.014
-340.348	-48.817	0.133	0.063
-339.333	761.919	-0.009	-0.025
-338.318	13.215	0.327	0.252
-337.304	-76.494	0.080	0.028
-336.289	411.588	-0.034	0.071
-335.275	800.000	0.035	-0.128
-334.260	173.782	0.107	0.154
-333.245	-200.000	0.003	0.033
-332.231	591.392	0.088	0.216
-331.216	-115.938	0.268	0.050
-330.202	144.493	0.014	0.018
-329.187	800.000	-0.052	-0.195
-328.172	186.014	0.115	-0.171
-327.158	2.728	0.179	0.129
-326.143	800.000	0.059	0.171
-325.129	129.798	-0.090	-0.115
-324.114	-23.380	-0.084	-0.050
-323.099	-44.229	-0.125	0.062
-322.085	178.972	-0.171	0.248
-321.070	43.151	-0.159	0.144
-320.056	-47.270	0.230	-0.111
-319.041	-200.000	0.000	-0.248
-318.026	-149.422	-0.243	0.019
-317.012	97.232	-0.102	0.116
-315.997	45.633	-0.197	0.181
-314.983	-7.240	0.154	-0.104
-313.968	-92.747	-0.186	-0.052
-312.953	113.018	0.096	0.115
-311.939	800.000	0.076	0.300
-310.924	-96.412	-0.211	-0.055
-309.910	799.351	-0.027	-0.074
-308.895	123.187	0.225	0.280
-307.880	-200.000	0.021	0.339
-306.866	107.026	0.289	-0.341
-305.851	-33.821	0.282	0.154
-304.837	-200.000	0.045	0.206
-303.822	-23.183	-0.134	0.080
-302.807	49.115	0.193	-0.180
-301.793	-4.592	0.085	-0.058
-300.778	101.264	0.261	0.301
-299.764	-38.133	-0.066	0.035
-298.749	-200.000	0.044	-0.266
-297.735	256.863	0.062	0.105
-296.720	118.968	-0.151	0.185
-295.705	-139.020	-0.372	0.040
-294.691	-175.933	-0.123	-0.003
-293.676	355.143	0.083	0.164
-292.662	-200.000	0.023	0.199
-291.647	148.903	-0.223	0.299
-290.632	246.292	-0.060	-0.101
-289.618	316.003	0.018	0.035
-288.603	3.775	0.155	0.112
-287.589	-104.052	-0.189	-0.044
-286.574	800.000	0.080	-0.266
-285.559	-10.045	0.131	-0.086
-284.545	-106.904	-0.322	0.071
-283.530	-26.314	-0.290	0.169
-282.516	-130.049	0.226	0.031
-281.501	-200.000	-0.070	-0.339
-280.486	-110.821	0.087	-0.018
-279.472	3.722	-0.256	-0.185
-278.457	-200.000	-0.005	-0.417
-277.443	368.767	-0.157	-0.315
-276.428	-143.178	-0.017	0.002
-275.413	158.895	-0.113	0.155
-274.399	468.540	0.118	0.262
-273.384	800.000	-0.056	0.205
-272.370	89.369	-0.252	-0.278
-271.355	-51.696	-0.249	-0.115
-270.340	-32.287	0.201	-0.111
-269.326	65.165	0.121	0.121
-268.311	-62.745	-0.259	-0.106
-267.297	-76.780	0.219	0.076
-266.282	-181.008	0.157	0.003
-265.267	-144.022	0.265	0.025
-264.253	-108.657	0.449	0.095
-263.238	-200.000	0.005	0.183
-262.224	-134.306	0.240	0.029
-261.209	-200.000	-0.024	-0.174
-260.195	89.047	-0.142	0.157
-259.180	-124.778	-0.327	0.050
-258.165	153.929	0.132	0.179
-257.151	272.733	0.050	0.087
-256.136	187.826	0.111	0.164
-255.122	-157.556	-0.160	0.009
-254.107	104.835	0.122	0.143
-253.092	-16.790	0.209	0.131
-252.078	-200.000	0.009	-0.184
-251.063	164.219	0.158	0.221
-250.049	-102.181	-0.337	0.080
-249.034	-200.000	0.032	0.323
-248.019	-200.000	-0.008	0.231
-247.005	102.311	0.265	-0.307
-245.990	630.808	0.032	-0.079
-244.976	95.745	-0.024	-0.028
-243.961	-200.000	0.003	0.120
-242.946	-4.808	-0.163	-0.111
-241.932	15.652	0.176	-0.137
-240.917	135.320	0.073	-0.094
-239.903	-126.652	-0.229	-0.034
-238.888	-158.895	0.363	0.020
-237.873	-200.000	-0.006	0.190
-236.859	670.278	0.016	0.041
-235.844	-70.784	-0.239	-0.089
-234.830	91.721	0.036	-0.040
-233.815	800.000	0.013	-0.044
-232.800	81.562	-0.131	0.140
-231.786	-59.154	0.319	0.136
-230.771	416.245	-0.093	-0.197
-229.757	-169.012	0.325	-0.012
-228.742	417.096	0.038	0.081
-227.727	-132.562	0.188	-0.024
-226.713	68.246	-0.038	-0.038
-225.698	318.173	-0.288	0.539
-224.684	343.035	0.138	0.268
-223.669	423.590	-0.155	0.329
-222.655	-62.330	-0.112	0.046
-221.640	-200.000	-0.014	-0.128
-220.625	-8.554	0.138	0.092
-219.611	-92.739	-0.216	0.060
-218.596	-200.000	0.040	0.455
-217.582	-11.177	-0.190	-0.124
-216.567	-51.327	0.220	-0.102
-215.552	-67.363	-0.288	-0.112
-214.538	347.782	0.131	-0.255
-213.523	79.037	-0.230	0.244
-212.509	619.303	-0.125	0.311
-211.494	-132.085	-0.476	0.061
-210.479	800.000	0.059	0.245
-209.465	800.000	-0.094	-0.335
-208.450	170.207	0.018	0.025
-207.436	0.011	-0.098	-0.069
-206.421	341.496	0.127	0.246
-205.406	256.376	0.174	-0.295
-204.392	800.000	0.023	-0.085
-203.377	17.661	-0.415	-0.326
-202.363	-110.948	-0.285	0.058
-201.348	274.781	0.175	0.306
-200.333	-33.501	0.291	0.159
-199.319	-200.000	-0.008	0.103
-198.304	3.920	0.145	0.104
-197.290	-65.451	0.177	0.070
-196.275	401.225	-0.018	-0.036
-195.260	-200.000	-0.003	-0.337
-194.246	113.392	0.182	0.218
-193.231	-125.741	0.180	0.027
-192.217	-200.000	0.056	-0.358
-191.202	-200.000	-0.005	-0.129
-190.187	115.088	0.177	-0.213
-189.173	56.365	-0.170	-0.164
-188.158	162.999	-0.178	0.247
-187.144	-200.000	0.008	-0.062
-186.129	-200.000	0.056	-0.245
-185.114	-200.000	0.002	-0.299
-184.100	-75.995	-0.319	-0.111
-183.085	-60.006	-0.179	-0.076
-182.071	-119.803	-0.457	-0.078
-181.056	283.368	0.076	-0.135
-180.042	-70.422	-0.022	0.008
-179.027	-95.350	-0.100	0.027
-178.012	-39.088	-0.333	0.173
-176.998	150.176	-0.131	-0.175
-175.983	193.916	-0.080	0.120
-174.969	-32.054	0.132	-0.073
-173.954	37.534	-0.118	0.103
-172.939	800.000	-0.103	0.370
-171.925	-200.000	-0.037	-0.281
-170.910	-166.887	-0.099	0.004
-169.896	52.506	-0.183	0.172
-168.881	-3.251	0.179	-0.123
-167.866	94.527	-0.308	-0.346
-166.852	-179.487	0.150	-0.003
-165.837	-69.609	-0.357	0.135
-164.823	-138.494	0.287	0.031
-163.808	-200.000	0.002	-0.034
-162.793	-33.492	-0.206	-0.112
-161.779	468.371	-0.107	-0.237
-160.764	-200.000	0.011	-0.316
-159.750	-200.000	0.037	-0.207
-158.735	-200.000	0.103	0.472
-157.720	397.090	-0.102	-0.210
-156.706	-54.414	0.166	0.074
-155.691	351.010	-0.069	-0.135
-154.677	800.000	-0.108	-0.433
-153.662	-9.612	0.279	-0.184
-152.647	-85.721	-0.302	-0.093
-151.633	320.774	-0.043	-0.080
-150.618	-106.306	0.040	-0.009
-149.604	264.199	0.138	0.236
-148.589	125.340	-0.075	-0.093
-147.574	636.802	0.090	-0.225
-146.560	-16.568	-0.226	0.141
-145.545	800.000	-0.024	-0.068
-144.531	-116.191	0.048	-0.009
-143.516	-85.845	-0.044	-0.013
-142.502	-39.079	-0.231	-0.120
-141.487	-27.965	0.162	-0.093
-140.472	84.535	-0.181	0.195
-139.458	-40.984	-0.269	0.137
-138.443	-200.000	-0.013	-0.086
-137.429	-173.388	-0.129	-0.004
-136.414	116.535	0.136	0.165
-135.399	190.721	-0.201	0.298
-134.385	-102.067	0.159	0.038
-133.370	-160.026	0.061	-0.003
-132.356	-145.766	-0.172	0.015
-131.341	-168.485	-0.090	0.003
-130.326	800.000	0.055	-0.198
-129.312	-200.000	0.020	0.230
-128.297	-108.061	0.232	0.050
-127.283	-134.563	0.149	0.018
-126.268	282.253	-0.027	-0.048
-125.253	-200.000	0.018	-0.333
-124.239	-12.816	0.282	-0.181
-123.224	-32.034	0.184	-0.101
-122.210	56.266	0.152	0.145
-121.195	80.526	-0.078	-0.083
-120.180	63.346	-0.144	-0.143
-119.166	-200.000	0.023	0.154
-118.151	-102.810	0.125	0.029
-117.137	-200.000	-0.034	0.252
-116.122	87.873	-0.256	0.279
-115.107	60.475	-0.107	0.104
-114.093	-7.810	-0.109	-0.072
-113.078	93.580	-0.099	0.111
-112.064	-38.204	-0.171	-0.089
-111.049	-95.080	-0.142	0.038
-110.034	-144.337	0.194	0.018
-109.020	800.000	0.068	-0.287
-108.005	-200.000	0.021	0.110
-106.991	800.000	0.038	0.163
-105.976	116.171	0.128	0.155
-104.962	-200.000	-0.028	0.361
-103.947	800.000	0.163	-0.544
-102.932	66.429	0.101	-0.101
-101.918	-110.758	0.380	0.077
-100.903	446.801	0.166	-0.359
-99.889	-200.000	0.001	0.070
-98.874	-92.045	-0.206	-0.057
-97.859	800.000	0.036	0.098
-96.845	124.200	-0.266	0.329
-95.830	104.309	0.103	0.120
-94.816	181.076	0.162	0.235
-93.801	45.289	0.209	0.190
-92.786	-200.000	0.041	0.389
-91.772	-200.000	-0.059	0.613
-90.757	206.454	0.115	-0.177
-89.743	32.510	-0.276	0.235
-88.728	-111.210	0.318	-0.064
-87.713	-137.085	0.104	0.012
-86.699	-50.388	-0.020	-0.009
-85.684	-67.145	-0.197	0.076
-84.670	-130.074	0.154	0.021
-83.655	-200.000	0.008	0.340
-82.640	62.971	-0.115	-0.113
-81.626	172.433	0.185	-0.262
-80.611	378.275	-0.057	0.114
-79.597	213.471	0.144	-0.224
-78.582	-30.644	0.075	-0.042
-77.567	-88.189	0.196	0.058
-76.553	-21.629	-0.187	-0.112
-75.538	284.467	-0.188	0.332
-74.524	192.648	-0.009	0.013
-73.509	-200.000	-0.025	-0.346
-72.494	-37.966	-0.097	-0.051
-71.480	-58.065	0.105	-0.045
-70.465	-191.333	-0.326	0.003
-69.451	99.649	0.198	0.225
-68.436	645.492	-0.118	-0.297
-67.422	-200.000	-0.027	0.497
-66.407	41.892	0.363	0.324
-65.392	234.716	-0.119	0.193
-64.378	121.620	-0.172	0.211
-63.363	800.000	0.048	-0.193
-62.349	267.909	-0.037	0.063
-61.334	237.873	-0.753	-1.228
-60.319	15.014	0.752	0.579
-59.305	750.138	-0.332	-0.880
-58.290	800.000	0.346	1.225
-57.276	800.000	0.475	1.624
-56.261	-200.000	108.492	590.765
-55.246	446.409	1477.317	3192.699
-54.232	146.954	2660.834	3517.223
-53.217	106.312	2159.570	2515.303
-52.203	41.088	1608.464	1428.028
-51.188	33.148	1348.124	1148.847
-50.173	30.055	1307.295	1095.748
-49.159	53.715	1360.664	1283.863
-48.144	54.189	1375.591	1300.748
-47.130	33.205	1331.247	1134.626
-46.115	29.698	1313.581	1098.716
-45.100	29.587	1308.790	1094.010
-44.086	29.660	1306.047	1092.105
-43.071	29.519	1304.239	1089.717
-42.057	29.474	1302.166	1087.680
-41.042	29.443	1300.206	1085.817
-40.027	29.634	1298.167	1085.191
-39.013	29.622	1296.518	1083.699
-37.998	29.535	1294.858	1081.760
-36.984	29.705	1293.123	1081.262
-35.969	29.674	1290.988	1079.252
-34.954	29.687	1289.610	1078.131
-33.940	29.754	1288.511	1077.560
-32.925	29.696	1286.902	1075.834
-31.911	29.791	1285.917	1075.523
-30.896	29.774	1284.261	1073.999
-29.881	29.832	1283.160	1073.371
-28.867	29.891	1281.296	1072.112
-27.852	29.840	1279.342	1070.139
-26.838	29.804	1278.383	1069.082
-25.823	29.752	1277.491	1067.996
-24.809	29.763	1275.751	1066.565
-23.794	29.766	1274.741	1065.693
-22.779	29.663	1273.960	1064.406
-21.765	29.759	1271.902	1063.196
-20.750	29.769	1270.666	1062.176
-19.736	29.741	1269.379	1060.896
-18.721	29.647	1268.177	1059.312
-17.706	29.566	1267.259	1058.042
-16.692	29.679	1265.907	1057.517
-15.677	29.612	1265.008	1056.340
-14.663	29.609	1264.100	1055.520
-13.648	29.530	1262.643	1053.813
-12.633	29.719	1261.600	1053.977
-11.619	29.564	1261.152	1052.681
-10.604	29.642	1259.969	1052.094
-9.590	29.705	1258.607	1051.274
-8.575	29.595	1258.201	1050.265
-7.560	29.587	1257.305	1049.431
-6.546	29.578	1256.503	1048.667
-5.531	29.744	1254.926	1048.252
-4.517	29.612	1254.567	1047.161
-3.502	29.598	1253.866	1046.458
-2.487	29.638	1253.036	1045.952
-1.473	29.704	1248.494	1042.491
-0.458	28.057	1233.973	1021.132
0.556	22.672	1217.222	982.674
1.571	19.083	1223.024	967.141
2.586	18.198	1237.861	973.754
3.600	17.970	1226.659	963.568
4.615	13.279	1153.975	881.442
5.629	4.595	1078.441	780.246
6.644	0.509	1058.662	745.709
7.659	0.096	1056.639	742.176
8.673	-0.049	1055.551	740.632
9.688	-0.064	1053.986	739.397
10.702	0.268	1052.018	739.582
11.717	5.429	1058.944	769.838
12.731	13.747	1070.293	819.255
13.746	17.422	1073.449	839.767
14.761	17.050	1072.738	837.304
15.775	15.966	1070.787	830.367
16.790	14.921	1068.714	823.542
17.804	14.278	1067.161	819.107
18.819	14.000	1066.103	816.860
19.834	13.641	1065.237	814.360
20.848	13.419	1064.265	812.452
21.863	13.204	1063.316	810.602
22.877	12.988	1062.673	808.981
23.892	12.982	1061.779	808.198
24.907	13.086	1061.122	808.140
25.921	13.060	1060.034	807.110
26.936	13.097	1059.444	806.772
27.950	13.187	1058.702	806.572
28.965	13.167	1057.417	805.426
29.980	13.310	1056.458	805.319
30.994	13.284	1055.139	804.117
32.009	13.243	1054.375	803.265
33.023	13.287	1053.326	802.610
34.038	13.395	1052.151	802.166
35.053	13.150	1051.607	800.495
36.067	13.232	1050.338	799.854
37.082	13.324	1049.873	799.871
38.096	13.438	1048.783	799.522
39.111	13.303	1048.064	798.254
40.126	13.162	1046.874	796.597
41.140	13.179	1045.694	795.709
42.155	13.009	1045.014	794.302
43.169	13.122	1043.647	793.738
44.184	13.192	1042.352	793.018
45.199	13.109	1041.877	792.185
46.213	13.097	1040.544	791.048
47.228	13.140	1039.279	790.218
48.242	13.184	1038.187	789.530
49.257	13.114	1037.502	788.606
50.271	13.159	1036.744	788.177
51.286	13.239	1035.762	787.739
52.301	13.161	1035.216	786.885
53.315	13.192	1033.787	785.876
54.330	13.021	1032.983	784.379
55.344	13.102	1032.239	784.132
56.359	13.218	1030.753	783.483
57.374	13.102	1030.188	782.433
58.388	13.010	1029.357	781.301
59.403	13.047	1028.713	780.914
60.417	13.060	1027.827	780.236
61.432	12.940	1027.181	779.108
62.447	13.009	1025.880	778.379
63.461	13.037	1025.311	778.010
64.476	12.956	1024.509	776.952
65.490	12.993	1023.728	776.467
66.505	13.125	1022.716	776.251
67.520	12.976	1022.698	775.465
68.534	13.004	1021.905	774.927
69.549	13.048	1020.859	774.272
70.563	12.934	1020.053	773.061
71.578	12.946	1019.156	772.367
72.593	12.837	1018.716	771.457
73.607	12.975	1017.680	771.246
74.622	12.909	1017.109	770.439
75.636	12.849	1016.500	769.629
76.651	12.819	1016.275	769.250
77.666	12.782	1015.246	768.230
78.680	13.054	1014.470	768.842
79.695	13.047	1013.607	768.085
80.709	13.077	1013.146	767.808
81.724	13.008	1012.525	766.950
82.739	13.014	1011.933	766.461
83.753	13.167	1010.969	766.374
84.768	13.171	1010.301	765.819
85.782	13.257	1009.412	765.473
86.797	13.305	1008.460	764.906
87.812	13.127	1007.411	763.222
88.826	13.158	1006.483	762.595
89.841	13.127	1005.557	761.682
90.855	13.155	1005.120	761.412
91.870	13.222	1004.160	760.925
92.884	13.255	1003.289	760.350
93.899	13.321	1001.971	759.590
94.914	13.399	1001.241	759.328
95.928	13.413	1000.518	758.774
96.943	13.375	999.620	757.853
97.957	13.197	998.873	756.406
98.972	13.116	998.122	755.396
99.987	13.239	997.103	755.124
101.001	13.184	996.153	754.087
102.016	13.323	995.205	753.932
103.030	13.337	994.639	753.501
104.045	13.304	993.624	752.518
105.060	13.256	992.968	751.733
106.074	13.081	992.290	750.362
107.089	13.099	991.302	749.626
108.103	13.056	990.519	748.772
109.118	13.090	989.248	747.902
110.133	13.049	988.477	747.067
111.147	13.168	987.931	747.128
112.162	13.143	987.142	746.349
113.176	13.141	985.909	745.342
114.191	13.158	985.630	745.144
115.206	13.164	984.738	744.429
116.220	13.127	983.862	743.535
117.235	13.146	983.194	743.049
118.249	13.285	982.164	742.831
119.264	13.029	981.749	741.301
120.279	13.075	980.742	740.681
121.293	13.192	979.910	740.510
122.308	12.997	979.275	739.094
123.322	13.124	978.134	738.733
124.337	13.059	976.907	737.454
125.352	13.145	975.658	736.826
126.366	13.254	974.693	736.520
127.381	13.148	973.657	735.202
128.395	13.180	972.896	734.700
129.410	13.238	971.838	734.095
130.424	13.218	971.468	733.662
131.439	13.180	970.698	732.847
132.454	13.241	969.974	732.507
133.468	13.264	968.949	731.770
134.483	13.257	968.139	731.063
135.497	13.271	967.114	730.286
136.512	13.259	966.484	729.692
137.527	13.121	965.835	728.529
138.541	13.120	965.005	727.835
139.556	13.391	963.845	728.087
140.570	13.319	963.491	727.438
141.585	13.353	962.611	726.859
142.600	13.382	961.165	725.830
143.614	13.356	960.412	725.085
144.629	13.390	959.944	724.814
145.643	13.507	958.663	724.297
146.658	13.349	957.954	723.003
147.673	13.385	957.017	722.392
148.687	13.330	956.395	721.618
149.702	13.338	955.659	721.035
150.716	13.331	954.617	720.153
151.731	13.310	954.013	719.545
152.746	13.240	953.696	718.937
153.760	13.304	953.195	718.774
154.775	13.330	952.509	718.305
155.789	13.416	951.709	718.009
156.804	13.473	951.015	717.672
157.819	13.582	950.294	717.537
158.833	13.625	949.428	717.003
159.848	13.516	948.870	716.046
160.862	13.381	947.957	714.714
161.877	13.349	947.006	713.795
162.892	13.499	945.677	713.377
163.906	13.401	944.835	712.257
164.921	13.394	944.423	711.851
165.935	13.505	943.107	711.272
166.950	13.461	942.312	710.423
167.964	13.498	941.671	710.035
168.979	13.446	940.642	708.973
169.994	13.590	939.636	708.770
171.008	13.486	939.077	707.841
172.023	13.645	938.460	707.993
173.037	13.730	937.519	707.583
174.052	13.727	936.759	706.934
175.067	13.570	936.234	705.805
176.081	13.526	935.811	705.236
177.096	13.406	935.394	704.350
178.110	13.427	934.534	703.726
179.125	13.683	933.912	704.285
180.140	13.605	933.497	703.578
181.154	13.728	932.894	703.584
182.169	13.645	932.580	702.932
183.183	13.884	931.825	703.314
184.198	13.720	931.072	701.990
185.213	13.731	930.589	701.607
186.227	13.755	929.491	700.820
187.242	13.883	929.047	700.964
188.256	13.858	928.258	700.201
189.271	13.849	927.579	699.589
190.286	13.727	926.844	698.458
191.300	13.572	926.467	697.462
192.315	13.569	925.661	696.781
193.329	13.641	925.281	696.734
194.344	13.603	924.660	696.047
195.359	13.773	923.850	696.088
196.373	13.786	923.441	695.771
197.388	13.925	922.796	695.809
198.402	13.890	922.308	695.232
199.417	13.982	922.006	695.329
200.432	13.813	921.111	693.885
201.446	14.142	920.215	694.523
202.461	14.079	920.489	694.405
203.475	13.968	919.772	693.339
204.490	13.986	918.403	692.323
205.504	14.044	917.667	691.944
206.519	14.029	917.041	691.350
207.534	14.039	916.453	690.889
208.548	13.984	915.657	689.999
209.563	14.008	915.571	689.973
210.577	14.035	914.855	689.484
211.592	14.139	913.907	689.137
212.607	14.138	913.182	688.528
213.621	14.198	912.471	688.177
214.636	14.212	911.682	687.578
215.650	14.206	910.744	686.788
216.665	14.084	910.415	685.976
217.680	14.148	909.990	685.858
218.694	14.265	909.119	685.622
219.709	14.215	908.241	684.695
220.723	14.235	907.356	684.047
221.738	14.250	906.860	683.675
222.753	14.205	906.467	683.135
223.767	14.241	905.905	682.798
224.782	14.386	905.197	682.800
225.796	14.432	904.611	682.484
226.811	14.388	904.451	682.122
227.826	14.292	903.624	681.044
228.840	14.315	902.471	680.211
229.855	14.266	901.646	679.329
230.869	14.373	900.942	679.173
231.884	14.309	900.284	678.357
232.899	14.118	899.657	677.047
233.913	14.198	899.487	677.184
234.928	14.211	898.466	676.408
235.942	14.352	897.904	676.497
236.957	14.223	897.057	675.279
237.972	14.340	896.413	675.207
238.986	14.365	895.571	674.614
240.001	14.334	895.536	674.402
241.015	14.357	894.714	673.816
242.030	14.454	894.096	673.685
243.045	14.366	893.324	672.689
244.059	14.415	893.050	672.620
245.074	14.605	892.156	672.652
246.088	14.495	891.683	671.793
247.103	14.453	890.960	671.021
248.117	14.448	890.533	670.619
249.132	14.831	889.527	671.340
250.147	14.764	889.097	670.686
251.161	14.735	888.770	670.264
252.176	14.763	887.827	669.607
253.190	14.808	887.089	669.173
254.205	14.765	886.701	668.648
255.220	14.824	886.009	668.305
256.234	14.898	885.206	667.934
257.249	14.754	884.762	666.966
258.263	14.797	883.825	666.370
259.278	14.771	883.182	665.724
260.293	14.930	882.681	665.920
261.307	14.907	882.095	665.328
262.322	14.958	881.628	665.120
263.336	15.021	880.596	664.533
264.351	15.157	879.655	664.302
265.366	15.113	879.613	664.037
266.380	15.035	879.112	663.292
267.395	14.982	878.235	662.363
268.409	15.163	877.143	662.193
269.424	14.951	876.394	660.735
270.439	15.011	875.914	660.550
271.453	14.997	875.216	659.909
272.468	15.071	874.866	659.878
273.482	15.064	873.776	658.970
274.497	14.992	873.729	658.596
275.512	15.100	872.965	658.385
276.526	15.146	872.424	658.100
277.541	15.178	871.847	657.730
278.555	15.207	871.398	657.449
279.570	15.398	870.807	657.694
280.585	15.364	869.889	656.808
281.599	15.196	869.321	655.663
282.614	15.170	868.716	655.048
283.628	15.198	867.949	654.520
284.643	15.321	867.333	654.478
285.657	15.210	866.813	653.594
286.672	15.262	866.529	653.527
287.687	15.230	865.833	652.819
288.701	15.259	865.379	652.530
289.716	15.260	864.775	652.023
290.730	15.293	863.985	651.498
291.745	15.482	863.224	651.599
292.760	15.491	862.623	651.122
293.774	15.354	862.591	650.510
294.789	15.442	861.686	650.109
295.803	15.316	861.156	649.166
296.818	15.479	859.917	648.803
297.833	15.409	859.546	648.195
298.847	15.489	859.116	648.125
299.862	15.406	858.571	647.334
300.876	15.348	858.267	646.824
301.891	15.638	857.411	647.239
302.906	15.552	857.139	646.645
303.920	15.482	856.934	646.165
304.935	15.747	855.606	646.125
305.949	15.659	855.158	645.389
306.964	15.690	854.470	644.933
307.979	15.675	853.891	644.380
308.993	15.612	853.377	643.694
310.008	15.873	852.476	643.958
311.022	15.698	852.226	643.040
312.037	15.686	851.682	642.530
313.052	15.541	851.194	641.549
314.066	15.587	850.473	641.127
315.081	15.670	849.697	640.798
316.095	15.619	849.250	640.211
317.110	15.570	848.891	639.699
318.125	15.605	848.208	639.260
319.139	15.613	848.053	639.117
320.154	15.674	847.665	638.999
321.168	15.825	846.949	638.976
322.183	15.752	846.379	638.212
323.197	15.664	845.865	637.437
324.212	15.805	845.201	637.413
325.227	15.886	844.423	637.078
326.241	15.751	844.082	636.251
327.256	15.748	843.445	635.707
328.270	15.737	842.886	635.185
329.285	15.843	842.014	634.873
330.300	15.853	841.469	634.441
331.314	15.768	841.043	633.744
332.329	15.806	840.859	633.692
333.343	15.908	840.279	633.584
334.358	15.909	839.715	633.107
335.373	15.855	839.705	632.839
336.387	15.972	839.189	632.836
337.402	16.071	838.729	632.804
338.416	16.006	838.559	632.376
339.431	16.129	837.719	632.148
340.446	16.033	837.259	631.383
341.460	16.104	837.082	631.460
342.475	16.145	836.780	631.330
343.489	16.225	836.231	631.159
344.504	16.271	835.795	630.946
345.519	16.303	835.335	630.663
346.533	16.227	834.869	629.972
347.548	16.077	834.722	629.246
348.562	15.992	834.118	628.416
349.577	16.052	833.308	627.974
350.592	16.159	832.541	627.739
351.606	16.232	831.979	627.533
352.621	16.257	831.134	626.932
353.635	16.154	830.793	626.237
354.650	16.167	830.197	625.780
355.665	16.175	829.443	625.187
356.679	16.351	828.746	625.257
357.694	16.363	827.768	624.509
358.708	16.323	827.478	624.087
359.723	16.383	826.672	623.645
360.738	16.496	826.114	623.585
361.752	16.490	825.568	623.095
362.767	16.431	825.445	622.730
363.781	16.269	824.949	621.706
364.796	16.469	824.461	622.019
365.810	16.591	823.624	621.780
366.825	16.444	823.503	621.092
367.840	16.581	822.967	621.138
368.854	16.464	822.602	620.379
369.869	16.513	822.139	620.151
370.883	16.705	821.417	620.256
371.898	16.516	821.307	619.426
372.913	16.679	821.162	619.861
373.927	16.748	820.245	619.364
374.942	16.640	819.688	618.495
375.956	16.580	819.637	618.183
376.971	16.712	819.216	618.291
377.986	16.784	818.631	618.060
379.000	16.768	818.334	617.722
380.015	16.859	817.470	617.345
381.029	16.873	817.015	616.998
382.044	16.715	816.272	615.807
383.059	16.898	816.003	616.218
384.073	16.866	815.433	615.616
385.088	16.810	815.045	615.064
386.102	16.804	814.298	614.423
387.117	16.770	813.721	613.813
388.132	16.911	812.954	613.690
389.146	16.835	812.368	612.916
390.161	17.008	811.994	613.207
391.175	16.936	811.533	612.544
392.190	16.971	811.067	612.264
393.205	16.878	810.786	611.663
394.219	16.819	810.411	611.111
395.234	16.792	809.987	610.643
396.248	16.842	809.612	610.485
397.263	16.829	809.348	610.185
398.278	16.733	808.541	609.176
399.292	16.834	808.236	609.256
400.307	16.885	807.989	609.201
401.321	16.955	807.428	608.973
402.336	16.986	806.764	608.532
403.350	16.834	806.233	607.532
404.365	17.045	805.670	607.810
405.380	17.047	805.545	607.668
406.394	17.158	804.823	607.468
407.409	17.089	804.623	607.014
408.423	17.301	804.277	607.459
409.438	17.208	803.875	606.768
410.453	17.259	803.207	606.392
411.467	17.251	803.112	606.240
412.482	17.263	802.778	605.977
413.496	17.364	802.169	605.823
414.511	17.388	801.633	605.448
415.526	17.364	801.331	605.084
416.540	17.419	800.937	604.927
417.555	17.369	800.131	604.087
418.569	17.407	800.002	604.070
419.584	17.418	799.717	603.843
420.599	17.440	799.014	603.333
421.613	108.960	1292.827	1469.372
422.628	93.710	1364.738	1469.457
