DTS Sentinel unit serial number:	SN413079Multiplexer serial number:	ORYXHardware model number:	OX4-SRSoftware version number:	ORYX F/W v4.00 Oryx Data Collector v3.7.2.0data status	okinstallation	princeton_trtdifferential loss correction	single-endedforward channel	channel 1reverse channel	N/Adate	2019/09/10time	17:20:11forward acquisition time	60.00reverse acquisition time	0.00gamma	496.2192k internal	0.2299k external	0.2299temperature offset calibration	0.9924default loss term (dB/km)	0.3790temperature slope calibration	1.0000multiplexer offset coefficient	1.0000multiplexer slope coefficient	1.0000fibre end	0.00T internal ref (°C)	37.62T ext. ref 1 (°C)	-0.37T ext. ref 2 (°C)	32.10length (m)	temperature (°C)	Stokes	anti-Stokes-747.200	388.112	0.034	-0.073
-746.185	73.509	-0.218	0.233
-745.171	-103.506	-0.215	0.052
-744.156	21.497	-0.165	0.137
-743.142	-118.021	-0.367	-0.067
-742.127	48.197	-0.104	-0.099
-741.112	428.713	-0.081	-0.178
-740.098	5.610	-0.196	0.148
-739.083	800.000	0.063	0.185
-738.069	-112.827	-0.259	-0.052
-737.054	57.400	0.176	0.175
-736.039	800.000	0.047	0.143
-735.025	-46.073	0.129	0.065
-734.010	84.816	-0.396	-0.443
-732.996	-55.673	-0.191	0.087
-731.981	-75.868	0.259	-0.094
-730.966	-117.350	0.158	0.029
-729.952	-200.000	-0.075	-0.344
-728.937	-200.000	0.023	-0.151
-727.923	-200.000	-0.020	-0.148
-726.908	-86.420	-0.139	0.044
-725.894	45.195	-0.280	-0.263
-724.879	-170.762	-0.195	-0.007
-723.864	-15.763	0.046	0.030
-722.850	-84.352	-0.245	0.079
-721.835	-200.000	0.018	-0.151
-720.821	-36.081	-0.333	-0.183
-719.806	-38.418	0.184	0.099
-718.791	-83.877	0.112	-0.036
-717.777	-68.681	0.483	0.191
-716.762	168.140	0.227	0.330
-715.748	-85.623	-0.228	-0.072
-714.733	-200.000	-0.031	0.321
-713.718	53.532	-0.032	-0.032
-712.704	800.000	-0.074	-0.260
-711.689	315.610	0.219	-0.420
-710.675	141.991	0.152	0.205
-709.660	-132.497	-0.269	-0.035
-708.645	-182.717	-0.169	0.003
-707.631	-124.651	0.011	-0.002
-706.616	-92.409	-0.117	0.034
-705.602	36.348	-0.067	-0.060
-704.587	-57.507	0.216	-0.096
-703.572	152.750	0.111	-0.154
-702.558	-59.606	0.069	0.030
-701.543	-200.000	-0.007	0.166
-700.529	69.062	0.074	0.078
-699.514	-200.000	0.011	0.361
-698.499	-3.029	-0.220	0.156
-697.485	256.166	0.184	-0.322
-696.470	800.000	-0.020	0.056
-695.456	-159.561	-0.115	0.006
-694.441	-200.000	-0.017	0.075
-693.426	205.409	0.069	-0.109
-692.412	-17.436	-0.146	-0.093
-691.397	39.984	0.101	0.093
-690.383	448.752	-0.082	-0.185
-689.368	737.803	0.051	-0.140
-688.354	466.791	-0.022	0.050
-687.339	15.583	-0.058	-0.046
-686.324	-158.021	0.551	0.033
-685.310	-71.119	-0.098	-0.038
-684.295	28.629	-0.083	-0.072
-683.281	-200.000	0.013	-0.228
-682.266	-200.000	0.064	0.461
-681.251	123.399	-0.191	-0.244
-680.237	142.198	-0.100	0.135
-679.222	20.111	-0.190	0.156
-678.208	7.819	0.050	-0.038
-677.193	291.708	0.053	0.099
-676.178	109.065	-0.143	-0.174
-675.164	-168.548	-0.420	0.016
-674.149	631.479	0.084	-0.216
-673.135	-27.758	-0.077	0.045
-672.120	-64.529	-0.160	0.066
-671.105	-200.000	-0.040	-0.498
-670.091	-145.265	0.426	0.039
-669.076	256.809	-0.118	-0.207
-668.062	116.312	-0.139	-0.174
-667.047	800.000	-0.078	-0.280
-666.032	-110.148	0.362	-0.077
-665.018	122.408	0.232	-0.296
-664.003	-50.906	0.086	-0.041
-662.989	-45.678	0.061	0.031
-661.974	145.889	0.096	0.131
-660.959	-128.566	-0.093	-0.013
-659.945	-90.469	0.295	0.087
-658.930	205.312	-0.159	0.252
-657.916	-200.000	-0.067	-0.308
-656.901	185.333	-0.154	-0.232
-655.886	-200.000	0.096	-0.476
-654.872	224.184	0.151	-0.248
-653.857	392.372	-0.060	-0.127
-652.843	800.000	0.033	0.105
-651.828	2.477	0.254	0.187
-650.814	486.601	0.048	-0.111
-649.799	-200.000	0.115	0.588
-648.784	-200.000	-0.011	0.053
-647.770	-200.000	0.018	0.104
-646.755	-112.970	-0.334	0.067
-645.741	-162.767	0.245	0.012
-644.726	37.633	0.104	-0.094
-643.711	-49.340	0.336	0.163
-642.697	293.767	-0.185	0.344
-641.682	16.766	0.243	0.196
-640.668	-200.000	-0.004	0.217
-639.653	-125.621	0.219	-0.034
-638.638	80.380	-0.094	0.103
-637.624	-76.682	0.323	-0.115
-636.609	-138.749	-0.220	-0.024
-635.595	251.841	0.251	-0.434
-634.580	-9.980	0.147	-0.099
-633.565	103.132	-0.172	-0.205
-632.551	-56.332	-0.169	-0.076
-631.536	13.505	-0.224	-0.176
-630.522	-33.823	-0.223	0.125
-629.507	-36.745	0.103	-0.056
-628.492	248.153	-0.072	-0.124
-627.478	38.616	-0.026	0.023
-626.463	126.218	0.139	-0.178
-625.449	-112.403	-0.271	-0.055
-624.434	36.561	-0.125	-0.112
-623.419	26.721	0.229	0.195
-622.405	-81.560	0.326	-0.109
-621.390	-143.167	-0.290	-0.028
-620.376	74.175	0.075	-0.080
-619.361	800.000	-0.040	-0.135
-618.346	26.398	0.172	0.146
-617.332	-31.847	0.212	-0.121
-616.317	-107.389	0.270	0.060
-615.303	800.000	-0.027	-0.077
-614.288	238.188	0.154	0.260
-613.273	-111.470	-0.342	0.071
-612.259	-200.000	0.005	0.308
-611.244	347.843	-0.078	0.156
-610.230	57.938	0.221	-0.220
-609.215	-74.971	0.087	0.032
-608.201	-32.615	-0.386	0.218
-607.186	191.666	-0.109	-0.166
-606.171	-63.501	-0.183	0.076
-605.157	-43.305	-0.069	-0.036
-604.142	4.657	0.109	-0.081
-603.128	-29.998	-0.142	-0.082
-602.113	-73.469	-0.356	-0.132
-601.098	671.054	0.068	-0.178
-600.084	37.250	-0.168	0.151
-599.069	-133.240	0.119	-0.015
-598.055	-124.377	0.324	0.051
-597.040	46.453	0.082	-0.077
-596.025	-33.916	0.290	0.162
-595.011	-200.000	0.054	0.310
-593.996	-135.998	0.313	0.037
-592.982	-162.935	-0.036	0.002
-591.967	-130.911	0.350	0.047
-590.952	-82.718	0.188	0.062
-589.938	158.341	-0.111	0.157
-588.923	58.884	0.235	-0.234
-587.909	-136.664	0.178	-0.021
-586.894	-88.404	-0.230	0.070
-585.879	-143.226	0.198	0.019
-584.865	-170.051	0.259	0.009
-583.850	134.135	-0.343	0.451
-582.836	-19.779	-0.274	0.172
-581.821	57.491	-0.118	0.117
-580.806	-200.000	-0.021	0.492
-579.792	-200.000	-0.019	-0.369
-578.777	-32.086	-0.220	0.125
-577.763	-200.000	0.043	0.349
-576.748	208.494	0.149	0.236
-575.733	209.200	0.244	0.387
-574.719	-84.757	-0.323	0.103
-573.704	-143.865	-0.265	-0.025
-572.690	-54.068	-0.280	-0.129
-571.675	74.294	0.149	0.159
-570.661	-38.332	-0.066	0.036
-569.646	-200.000	-0.032	-0.432
-568.631	274.572	-0.234	0.420
-567.617	358.841	-0.085	0.172
-566.602	24.447	0.140	0.117
-565.588	50.556	-0.321	0.308
-564.573	24.256	-0.423	0.354
-563.558	-165.860	-0.139	0.006
-562.544	-0.859	0.269	-0.193
-561.529	-155.696	0.147	-0.010
-560.515	-33.662	-0.193	-0.108
-559.500	212.504	-0.231	-0.369
-558.485	-93.646	-0.196	0.055
-557.471	-23.308	0.217	-0.132
-556.456	95.138	-0.240	0.277
-555.442	-65.025	0.151	0.062
-554.427	-7.239	-0.325	-0.223
-553.412	-200.000	-0.023	0.258
-552.398	241.845	0.079	0.134
-551.383	123.121	-0.007	-0.009
-550.369	-148.066	-0.378	-0.032
-549.354	800.000	0.053	-0.152
-548.339	64.697	0.156	0.159
-547.325	-200.000	-0.037	0.291
-546.310	800.000	-0.018	0.069
-545.296	-137.313	-0.090	-0.010
-544.281	-200.000	-0.050	0.324
-543.266	-143.887	0.309	-0.029
-542.252	-70.344	0.222	-0.085
-541.237	-200.000	-0.002	-0.117
-540.223	584.097	-0.092	0.229
-539.208	62.439	-0.182	0.184
-538.193	-81.104	-0.333	0.112
-537.179	88.406	-0.025	-0.028
-536.164	614.925	0.139	0.353
-535.150	29.869	0.085	-0.073
-534.135	-85.970	-0.510	-0.160
-533.121	20.793	-0.091	0.075
-532.106	381.945	0.101	-0.211
-531.091	378.144	-0.115	-0.238
-530.077	-67.252	0.122	-0.049
-529.062	90.587	-0.122	0.138
-528.048	-31.225	0.216	-0.123
-527.033	-13.507	-0.174	0.114
-526.018	-200.000	-0.013	0.093
-525.004	-200.000	0.008	-0.142
-523.989	-52.074	0.374	0.176
-522.975	-87.192	0.212	-0.065
-521.960	-200.000	-0.004	0.118
-520.945	-200.000	-0.046	0.253
-519.931	-110.379	0.167	-0.035
-518.916	-81.813	0.143	-0.047
-517.902	-200.000	0.040	-0.294
-516.887	56.278	0.257	0.253
-515.872	-126.256	-0.074	0.011
-514.858	-200.000	-0.007	-0.055
-513.843	120.550	0.066	0.083
-512.829	195.517	-0.100	0.154
-511.814	49.983	0.167	-0.159
-510.799	-2.318	0.281	0.200
-509.785	-200.000	-0.003	0.036
-508.770	17.685	0.084	0.067
-507.756	335.463	-0.022	0.042
-506.741	18.118	0.149	-0.120
-505.726	2.940	-0.143	0.105
-504.712	-11.768	0.136	0.090
-503.697	-94.749	0.319	-0.087
-502.683	800.000	0.160	-0.516
-501.668	526.997	-0.110	-0.261
-500.653	800.000	-0.070	-0.304
-499.639	-38.367	-0.326	-0.174
-498.624	-51.024	-0.242	0.115
-497.610	29.012	0.055	0.047
-496.595	-78.039	-0.211	-0.073
-495.581	800.000	0.072	0.223
-494.566	-99.531	0.170	-0.043
-493.551	280.387	0.104	-0.187
-492.537	-78.162	0.200	0.070
-491.522	-76.717	0.205	0.073
-490.508	-85.932	0.212	0.066
-489.493	229.591	-0.088	0.145
-488.478	104.179	0.107	-0.127
-487.464	130.424	0.016	-0.020
-486.449	-200.000	-0.003	-0.205
-485.435	145.026	0.237	0.320
-484.420	-12.219	0.140	-0.093
-483.405	-39.167	0.273	-0.145
-482.391	354.753	0.095	0.191
-481.376	800.000	-0.021	0.078
-480.362	563.704	0.031	0.076
-479.347	800.000	0.042	0.141
-478.332	800.000	-0.036	-0.132
-477.318	56.057	-0.078	-0.076
-476.303	-48.132	0.055	-0.027
-475.289	-96.249	-0.243	-0.065
-474.274	43.498	0.087	0.080
-473.259	-16.521	0.166	-0.107
-472.245	194.209	-0.032	0.048
-471.230	-43.326	0.214	0.109
-470.216	-123.094	-0.055	0.009
-469.201	-200.000	0.012	0.110
-468.186	69.073	0.051	0.053
-467.172	-64.741	-0.156	-0.064
-466.157	404.632	-0.075	-0.159
-465.143	169.225	-0.242	0.349
-464.128	83.933	-0.050	0.055
-463.113	-200.000	0.000	0.029
-462.099	-93.848	-0.206	-0.057
-461.084	-0.964	0.085	-0.061
-460.070	800.000	-0.080	0.230
-459.055	87.822	0.119	0.133
-458.040	-12.179	-0.128	-0.085
-457.026	99.986	-0.253	0.296
-456.011	99.764	0.240	-0.281
-454.997	73.388	-0.113	-0.119
-453.982	-120.181	-0.294	0.051
-452.968	-200.000	-0.034	0.447
-451.953	-51.915	0.215	-0.101
-450.938	-104.844	-0.359	-0.083
-449.924	-200.000	0.016	-0.171
-448.909	151.991	0.103	-0.141
-447.895	-59.395	-0.227	-0.098
-446.880	-200.000	-0.027	-0.129
-445.865	-182.871	0.260	0.005
-444.851	138.924	-0.155	-0.205
-443.836	-200.000	0.020	0.154
-442.822	-37.284	0.332	0.179
-441.807	800.000	-0.140	-0.430
-440.792	-200.000	-0.025	-0.142
-439.778	318.392	-0.062	0.118
-438.763	-200.000	0.028	0.386
-437.749	374.839	-0.119	0.244
-436.734	-75.299	-0.486	0.175
-435.719	-97.091	-0.136	-0.036
-434.705	800.000	0.050	0.142
-433.690	24.384	0.090	-0.075
-432.676	-108.077	0.153	0.033
-431.661	168.404	0.137	-0.197
-430.646	800.000	0.110	-0.365
-429.632	-144.543	-0.154	0.014
-428.617	449.988	0.128	0.284
-427.603	-98.265	0.221	-0.057
-426.588	800.000	-0.074	0.295
-425.573	14.099	-0.208	0.163
-424.559	-200.000	0.015	-0.298
-423.544	5.727	0.098	-0.073
-422.530	800.000	-0.061	0.199
-421.515	66.126	-0.121	0.124
-420.500	231.627	-0.185	-0.305
-419.486	198.109	0.087	0.133
-418.471	246.377	0.210	-0.357
-417.457	-89.926	-0.185	0.054
-416.442	12.455	-0.181	-0.141
-415.428	-49.356	-0.210	-0.101
-414.413	-90.015	0.142	0.042
-413.398	-200.000	0.001	0.107
-412.384	800.000	0.077	0.265
-411.369	-43.365	0.056	-0.028
-410.355	44.089	-0.135	0.124
-409.340	0.998	-0.058	-0.042
-408.325	-50.797	-0.035	0.016
-407.311	-74.457	-0.285	0.104
-406.296	118.910	0.028	-0.034
-405.282	800.000	0.088	-0.249
-404.267	-200.000	0.013	-0.174
-403.252	259.769	-0.108	0.188
-402.238	162.572	0.058	-0.083
-401.223	800.000	-0.144	-0.444
-400.209	482.752	-0.191	-0.438
-399.194	227.011	-0.112	0.183
-398.179	800.000	0.028	-0.112
-397.165	-4.289	0.213	-0.148
-396.150	-95.286	0.070	0.019
-395.136	8.716	0.295	-0.224
-394.121	-200.000	-0.019	0.152
-393.106	800.000	0.038	-0.107
-392.092	-50.481	0.191	0.091
-391.077	596.154	-0.111	-0.276
-390.063	-97.891	0.236	0.061
-389.048	-93.202	-0.021	-0.006
-388.033	-34.724	0.035	-0.019
-387.019	800.000	0.118	-0.421
-386.004	204.663	0.059	0.092
-384.990	302.322	-0.136	-0.253
-383.975	-104.468	0.205	-0.048
-382.960	25.766	-0.082	0.069
-381.946	-84.940	0.338	-0.107
-380.931	119.111	0.054	-0.067
-379.917	-113.193	-0.131	0.026
-378.902	-41.702	-0.290	-0.150
-377.888	800.000	0.113	-0.363
-376.873	-31.489	-0.228	0.129
-375.858	-96.231	-0.156	-0.042
-374.844	608.846	-0.176	0.441
-373.829	-200.000	-0.013	-0.106
-372.815	-14.886	0.176	0.114
-371.800	-68.861	0.153	-0.060
-370.785	2.602	0.113	0.082
-369.771	118.140	-0.029	-0.037
-368.756	-200.000	0.043	0.294
-367.742	-24.769	-0.175	-0.104
-366.727	-200.000	0.030	0.302
-365.712	-200.000	0.057	0.353
-364.698	41.282	-0.184	0.167
-363.683	65.020	-0.217	0.220
-362.669	7.686	0.273	-0.205
-361.654	-178.600	0.097	0.002
-360.639	-101.452	0.202	-0.049
-359.625	68.239	0.219	0.226
-358.610	-18.312	-0.179	0.112
-357.596	-7.432	0.190	0.129
-356.581	-200.000	-0.004	-0.020
-355.566	-65.800	-0.026	-0.011
-354.552	443.262	0.122	0.270
-353.537	37.998	0.093	0.083
-352.523	-18.760	-0.218	0.136
-351.508	296.618	-0.086	-0.158
-350.493	-41.834	-0.167	-0.086
-349.479	11.743	0.014	-0.011
-348.464	152.223	0.038	-0.052
-347.450	-92.877	0.162	-0.046
-346.435	-130.422	0.088	0.012
-345.420	-94.603	-0.264	0.072
-344.406	-108.942	0.130	-0.028
-343.391	23.168	0.112	0.092
-342.377	615.421	0.019	-0.049
-341.362	800.000	-0.054	-0.222
-340.348	127.355	-0.018	-0.024
-339.333	-69.313	0.129	0.050
-338.318	-63.650	0.029	0.012
-337.304	-97.664	-0.291	-0.076
-336.289	37.437	0.238	0.212
-335.275	-95.638	0.145	0.039
-334.260	31.991	-0.081	0.070
-333.245	-35.094	0.131	-0.072
-332.231	-139.652	0.224	-0.024
-331.216	800.000	0.039	-0.134
-330.202	50.752	-0.265	-0.252
-329.187	-73.787	-0.121	-0.044
-328.172	41.059	0.178	-0.161
-327.158	-200.000	0.055	-0.395
-326.143	37.854	-0.241	-0.215
-325.129	163.115	-0.069	-0.097
-324.114	-200.000	0.036	-0.195
-323.099	-167.713	-0.247	-0.010
-322.085	-12.581	-0.305	-0.200
-321.070	161.810	0.193	0.271
-320.056	156.560	-0.019	0.026
-319.041	243.438	0.108	-0.181
-318.026	-130.317	-0.269	0.037
-317.012	205.132	0.023	-0.036
-315.997	800.000	0.060	-0.192
-314.983	-94.860	0.131	-0.036
-313.968	-56.990	-0.036	-0.016
-312.953	-200.000	0.031	-0.214
-311.939	-200.000	0.002	0.177
-310.924	-200.000	-0.047	-0.355
-309.910	-189.567	0.273	-0.003
-308.895	800.000	-0.039	-0.170
-307.880	-92.520	-0.080	0.023
-306.866	-115.551	0.100	0.019
-305.851	1.856	-0.088	-0.064
-304.837	800.000	-0.018	0.078
-303.822	501.796	0.158	0.365
-302.807	-200.000	0.081	-0.413
-301.793	26.888	-0.185	0.156
-300.778	-7.205	-0.145	-0.098
-299.764	164.415	-0.048	0.067
-298.749	-132.380	0.442	0.057
-297.735	800.000	0.066	0.233
-296.720	-200.000	-0.043	-0.357
-295.705	-30.760	0.043	0.024
-294.691	-200.000	-0.073	-0.514
-293.676	800.000	0.045	0.135
-292.662	-200.000	0.049	0.283
-291.647	-108.168	0.116	0.025
-290.632	-136.518	-0.148	-0.017
-289.618	800.000	-0.059	0.173
-288.603	-120.175	-0.055	-0.009
-287.589	-56.607	-0.210	0.093
-286.574	-47.704	0.094	0.045
-285.559	800.000	-0.080	-0.294
-284.545	-200.000	-0.040	0.293
-283.530	39.556	0.222	0.200
-282.516	-71.036	0.062	0.023
-281.501	288.083	0.122	0.221
-280.486	57.508	-0.137	0.134
-279.472	117.092	-0.054	0.066
-278.457	62.684	0.200	0.201
-277.443	-103.784	-0.338	0.079
-276.428	-28.492	0.158	0.092
-275.413	-200.000	0.021	-0.118
-274.399	28.558	-0.050	-0.042
-273.384	-29.314	0.140	-0.080
-272.370	-200.000	-0.004	-0.088
-271.355	-200.000	0.029	-0.195
-270.340	-30.456	0.145	0.082
-269.326	191.164	0.064	-0.096
-268.311	-4.365	-0.196	-0.136
-267.297	-21.791	-0.231	0.141
-266.282	271.645	0.312	0.551
-265.267	-11.009	-0.342	0.226
-264.253	800.000	-0.014	-0.047
-263.238	-38.108	-0.176	0.093
-262.224	-110.016	0.260	-0.055
-261.209	-200.000	0.062	0.352
-260.195	-133.848	0.253	-0.031
-259.180	-139.185	0.425	-0.046
-258.165	181.109	0.220	0.324
-257.151	-10.343	0.227	-0.151
-256.136	-200.000	0.065	0.313
-255.122	800.000	-0.071	0.215
-254.107	800.000	0.038	-0.147
-253.092	-67.097	0.439	0.173
-252.078	-88.777	-0.191	0.057
-251.063	77.849	-0.112	0.120
-250.049	-48.510	-0.135	-0.065
-249.034	113.612	0.184	0.224
-248.019	-57.290	0.304	-0.134
-247.005	558.497	0.024	0.058
-245.990	61.125	-0.340	-0.338
-244.976	-79.616	-0.160	0.054
-243.961	43.371	-0.112	-0.102
-242.946	-146.102	-0.123	-0.011
-241.932	-176.261	0.301	0.008
-240.917	-116.347	-0.511	-0.095
-239.903	65.126	-0.169	-0.171
-238.888	13.948	-0.241	-0.187
-237.873	-93.105	-0.208	0.058
-236.859	-120.258	0.252	0.043
-235.844	-200.000	-0.005	0.116
-234.830	-86.695	-0.055	-0.017
-233.815	-200.000	-0.006	0.230
-232.800	310.554	-0.029	-0.055
-231.786	-25.082	-0.296	0.176
-230.771	-200.000	-0.029	-0.156
-229.757	-62.349	-0.224	0.093
-228.742	409.719	0.149	-0.315
-227.727	-100.555	0.076	-0.019
-226.713	61.181	0.249	-0.248
-225.698	800.000	0.029	0.104
-224.684	-200.000	0.011	0.135
-223.669	-200.000	0.012	-0.076
-222.655	178.367	-0.131	-0.191
-221.640	65.742	-0.189	-0.191
-220.625	453.864	0.055	-0.121
-219.611	-84.046	0.046	-0.015
-218.596	-65.711	-0.140	-0.056
-217.582	-133.327	-0.293	0.037
-216.567	30.800	0.208	0.178
-215.552	280.375	-0.076	0.135
-214.538	-100.138	0.277	0.069
-213.523	59.473	0.066	-0.065
-212.509	56.192	-0.043	0.042
-211.494	-23.655	-0.286	-0.171
-210.479	62.525	-0.053	0.053
-209.465	258.055	-0.077	0.133
-208.450	189.447	0.223	-0.334
-207.436	-132.362	-0.055	0.007
-206.421	800.000	-0.047	-0.198
-205.406	-200.000	0.005	-0.169
-204.392	350.810	0.114	-0.226
-203.377	209.825	0.086	-0.134
-202.363	-200.000	-0.012	-0.076
-201.348	-133.112	-0.250	0.032
-200.333	-62.409	0.104	-0.043
-199.319	183.666	-0.069	-0.102
-198.304	-62.763	0.139	0.058
-197.290	-80.240	0.148	0.049
-196.275	-48.615	0.147	0.071
-195.260	-24.950	-0.022	-0.013
-194.246	-28.050	0.101	0.058
-193.231	-40.322	-0.129	-0.067
-192.217	-158.790	-0.116	0.007
-191.202	-200.000	0.078	-0.617
-190.187	192.419	-0.246	-0.370
-189.173	-200.000	-0.024	-0.121
-188.158	43.359	0.256	0.233
-187.144	-160.607	0.128	-0.007
-186.129	71.314	0.363	-0.376
-185.114	260.332	0.095	-0.164
-184.100	79.818	-0.181	-0.194
-183.085	-21.040	-0.139	-0.085
-182.071	-136.063	-0.261	0.031
-181.056	434.746	-0.055	0.120
-180.042	157.924	-0.331	-0.457
-179.027	240.869	0.077	0.129
-178.012	449.615	0.166	0.366
-176.998	57.109	-0.075	-0.073
-175.983	297.951	0.044	0.080
-174.969	0.418	0.162	-0.115
-173.954	-156.358	0.229	-0.014
-172.939	307.056	-0.039	-0.072
-171.925	-200.000	0.001	-0.177
-170.910	-74.542	-0.157	0.056
-169.896	-132.258	-0.119	-0.015
-168.881	-9.357	-0.243	0.162
-167.866	84.325	-0.125	-0.136
-166.852	-101.006	0.401	-0.098
-165.837	-200.000	0.016	-0.152
-164.823	106.932	-0.103	-0.123
-163.808	-36.048	0.174	0.094
-162.793	800.000	0.025	-0.092
-161.779	217.477	0.046	0.072
-160.764	694.473	0.099	-0.260
-159.750	-47.283	-0.179	-0.087
-158.735	87.292	-0.044	0.049
-157.720	-200.000	-0.013	-0.084
-156.706	-200.000	0.040	-0.182
-155.691	79.455	-0.276	-0.295
-154.677	166.209	-0.219	-0.310
-153.662	-59.488	0.061	0.026
-152.647	-200.000	0.032	0.364
-151.633	-151.253	-0.157	0.012
-150.618	-114.765	-0.180	0.034
-149.604	-200.000	0.003	0.063
-148.589	-200.000	-0.017	-0.153
-147.574	-200.000	-0.066	0.304
-146.560	57.660	-0.300	0.292
-145.545	800.000	-0.077	0.318
-144.531	50.115	0.140	0.131
-143.516	-200.000	-0.050	-0.363
-142.502	316.549	0.101	-0.191
-141.487	-200.000	-0.015	-0.166
-140.472	-65.492	0.177	-0.071
-139.458	310.052	-0.084	-0.156
-138.443	-21.122	-0.303	-0.185
-137.429	-13.479	-0.046	0.030
-136.414	331.416	0.021	0.040
-135.399	-90.331	0.323	-0.093
-134.385	-154.248	-0.157	-0.011
-133.370	800.000	0.066	-0.186
-132.356	-159.716	0.232	-0.013
-131.341	-95.065	-0.516	-0.139
-130.326	3.329	0.198	-0.144
-129.312	490.871	0.048	-0.109
-128.297	-34.110	0.204	-0.112
-127.283	-174.550	0.033	-0.001
-126.268	-136.798	0.264	0.030
-125.253	757.808	-0.079	0.214
-124.239	-200.000	0.028	-0.141
-123.224	138.890	0.103	-0.135
-122.210	-97.095	-0.363	-0.095
-121.195	303.468	0.122	0.225
-120.180	-145.696	0.211	0.019
-119.166	12.471	0.185	-0.142
-118.151	-200.000	0.014	-0.237
-117.137	53.100	0.268	-0.256
-116.122	-200.000	0.009	0.214
-115.107	-66.623	-0.479	-0.189
-114.093	81.261	-0.119	0.128
-113.078	519.651	-0.030	-0.070
-112.064	195.349	-0.106	-0.160
-111.049	-122.703	0.246	0.040
-110.034	-101.300	0.029	0.007
-109.020	145.808	0.158	-0.211
-108.005	-163.198	0.115	0.006
-106.991	800.000	-0.087	0.303
-105.976	-79.775	0.130	0.044
-104.962	-200.000	-0.019	-0.231
-103.947	-200.000	0.035	-0.359
-102.932	-98.609	0.101	0.026
-101.918	8.635	-0.085	-0.064
-100.903	73.864	0.166	-0.173
-99.889	-200.000	0.019	-0.168
-98.874	50.548	0.026	-0.025
-97.859	-115.487	0.114	-0.021
-96.845	437.089	-0.064	-0.138
-95.830	72.353	-0.197	-0.204
-94.816	-74.177	-0.124	0.045
-93.801	132.030	-0.148	0.190
-92.786	-43.682	0.153	-0.077
-91.772	1.231	-0.111	0.080
-90.757	-200.000	0.004	0.232
-89.743	106.682	0.118	0.140
-88.728	88.623	0.077	-0.085
-87.713	-200.000	0.064	-0.501
-86.699	-87.176	-0.342	0.103
-85.684	339.802	-0.117	0.227
-84.670	-142.966	-0.243	-0.023
-83.655	-184.373	-0.238	0.004
-82.640	102.259	0.158	-0.184
-81.626	-157.372	0.223	-0.013
-80.611	-86.203	-0.271	-0.083
-79.597	-4.619	0.261	0.179
-78.582	99.039	-0.178	0.204
-77.567	-200.000	-0.015	0.079
-76.553	-9.227	-0.148	-0.098
-75.538	158.475	0.221	0.305
-74.524	194.051	-0.164	0.247
-73.509	800.000	0.120	0.331
-72.494	-88.635	0.142	-0.042
-71.480	-200.000	0.037	-0.172
-70.465	405.178	0.071	-0.149
-69.451	112.456	-0.125	-0.150
-68.436	-172.846	-0.133	0.004
-67.422	800.000	-0.054	0.172
-66.407	-33.001	-0.041	0.022
-65.392	104.609	0.180	0.211
-64.378	-165.384	-0.127	-0.006
-63.363	-16.894	-0.128	-0.080
-62.349	6.712	0.224	-0.166
-61.334	28.170	-0.563	-0.472
-60.319	-200.000	0.021	0.316
-59.305	-200.000	0.009	-0.759
-58.290	800.000	0.270	0.816
-57.276	329.479	0.713	1.362
-56.261	-200.000	85.718	504.464
-55.246	552.623	1374.662	3280.352
-54.232	180.942	2622.917	3827.198
-53.217	119.177	2252.526	2767.154
-52.203	48.573	1700.871	1582.959
-51.188	40.897	1430.325	1281.869
-50.173	37.734	1385.955	1222.250
-49.159	56.713	1427.032	1379.469
-48.144	61.215	1445.701	1426.049
-47.130	41.444	1405.089	1262.515
-46.115	37.783	1388.270	1224.403
-45.100	37.562	1383.163	1218.469
-44.086	37.450	1380.856	1215.687
-43.071	37.382	1379.008	1213.585
-42.057	37.239	1376.544	1210.481
-41.042	37.594	1373.926	1210.337
-40.027	37.435	1372.899	1208.397
-39.013	37.639	1370.791	1207.761
-37.998	37.567	1368.818	1205.526
-36.984	37.576	1367.236	1204.142
-35.969	37.728	1365.466	1203.473
-34.954	37.576	1363.810	1201.031
-33.940	37.709	1362.150	1200.338
-32.925	37.653	1360.535	1198.522
-31.911	37.724	1359.055	1197.607
-30.896	37.625	1357.750	1195.802
-29.881	37.814	1356.394	1195.719
-28.867	37.815	1354.180	1193.730
-27.852	37.715	1353.256	1192.251
-26.838	37.719	1351.919	1191.055
-25.823	37.697	1350.402	1189.534
-24.809	37.703	1349.519	1188.749
-23.794	37.624	1348.338	1187.178
-22.779	37.807	1346.346	1186.488
-21.765	37.768	1345.136	1185.138
-20.750	37.719	1344.012	1183.808
-19.736	37.604	1342.301	1181.550
-18.721	37.585	1341.412	1180.610
-17.706	37.509	1339.855	1178.730
-16.692	37.580	1338.156	1177.621
-15.677	37.671	1337.030	1177.133
-14.663	37.566	1336.641	1176.107
-13.648	37.520	1335.063	1174.392
-12.633	37.503	1333.892	1173.215
-11.619	37.506	1333.043	1172.439
-10.604	37.583	1332.540	1172.413
-9.590	37.603	1331.094	1171.215
-8.575	37.508	1330.073	1169.698
-7.560	37.508	1329.454	1169.109
-6.546	37.537	1328.224	1168.155
-5.531	37.535	1327.473	1167.437
-4.517	37.584	1326.256	1166.611
-3.502	37.508	1325.930	1165.824
-2.487	37.603	1324.252	1164.870
-1.473	37.627	1320.623	1161.779
-0.458	36.408	1305.695	1141.399
0.556	30.391	1286.258	1099.229
1.571	26.376	1290.160	1078.570
2.586	24.999	1306.055	1083.436
3.600	24.034	1294.363	1067.855
4.615	16.794	1216.461	962.521
5.629	5.400	1132.020	835.073
6.644	-0.051	1107.918	788.672
7.659	-0.445	1105.203	784.610
8.673	-0.468	1103.861	783.465
9.688	-0.535	1102.320	781.953
10.702	-0.233	1100.513	782.176
11.717	5.941	1110.358	821.490
12.731	15.113	1123.675	879.649
13.746	17.225	1125.132	891.809
14.761	15.815	1122.836	882.521
15.775	15.526	1121.559	879.923
16.790	15.017	1121.106	876.825
17.804	14.918	1120.333	875.623
18.819	15.006	1119.498	875.358
19.834	14.972	1118.594	874.393
20.848	14.850	1118.254	873.415
21.863	14.694	1117.924	872.262
22.877	14.764	1117.246	872.020
23.892	14.818	1116.158	871.377
24.907	14.754	1115.811	870.695
25.921	14.882	1114.103	869.950
26.936	14.835	1113.204	868.930
27.950	14.829	1111.168	867.233
28.965	14.782	1109.227	865.394
29.980	14.811	1107.223	863.907
30.994	15.035	1105.782	863.862
32.009	14.899	1104.939	862.423
33.023	14.694	1103.787	860.395
34.038	14.922	1102.368	860.383
35.053	14.995	1101.707	860.168
36.067	14.893	1100.976	858.997
37.082	14.910	1100.247	858.440
38.096	15.045	1099.045	858.120
39.111	15.140	1097.811	857.567
40.126	14.964	1096.744	855.756
41.140	14.851	1094.783	853.571
42.155	14.849	1093.233	852.277
43.169	14.812	1092.079	851.114
44.184	14.758	1091.417	850.248
45.199	14.698	1089.746	848.566
46.213	14.718	1088.775	847.837
47.228	14.674	1087.568	846.599
48.242	14.623	1086.329	845.305
49.257	14.786	1085.663	845.535
50.271	14.861	1084.595	845.008
51.286	14.827	1083.634	844.011
52.301	14.765	1082.436	842.693
53.315	14.845	1081.247	842.095
54.330	14.823	1080.418	841.262
55.344	14.802	1079.907	840.685
56.359	14.931	1078.164	839.899
57.374	14.719	1077.712	838.413
58.388	14.680	1077.096	837.663
59.403	14.869	1075.628	837.393
60.417	14.712	1074.888	835.954
61.432	14.764	1074.211	835.618
62.447	14.815	1073.200	835.011
63.461	14.811	1072.171	834.117
64.476	14.767	1071.577	833.361
65.490	14.724	1070.214	832.012
66.505	14.776	1069.764	831.848
67.520	14.871	1068.558	831.312
68.534	14.726	1067.731	829.872
69.549	14.584	1066.741	828.326
70.563	14.553	1066.312	827.765
71.578	14.696	1064.957	827.348
72.593	14.698	1064.141	826.653
73.607	14.629	1063.722	825.912
74.622	14.890	1063.149	826.682
75.636	14.842	1062.021	825.494
76.651	14.636	1061.093	823.684
77.666	14.667	1059.965	822.889
78.680	14.684	1059.946	822.888
79.695	14.798	1059.175	822.776
80.709	14.819	1057.695	821.655
81.724	14.700	1056.864	820.355
82.739	14.764	1056.255	820.120
83.753	14.888	1055.436	820.023
84.768	14.914	1054.587	819.417
85.782	14.948	1053.468	818.640
86.797	14.985	1052.089	817.676
87.812	14.725	1051.340	815.754
88.826	14.956	1050.060	815.817
89.841	14.890	1049.270	814.809
90.855	14.876	1048.448	814.030
91.870	14.876	1047.228	813.009
92.884	14.984	1046.010	812.519
93.899	14.832	1045.196	811.075
94.914	14.898	1044.224	810.572
95.928	14.861	1043.277	809.586
96.943	14.774	1042.074	808.159
97.957	14.582	1040.948	806.284
98.972	14.547	1039.374	804.827
99.987	14.573	1038.841	804.469
101.001	14.766	1038.206	804.833
102.016	14.702	1037.015	803.532
103.030	14.665	1035.983	802.485
104.045	14.597	1034.851	801.210
105.060	14.414	1033.804	799.451
106.074	14.651	1032.950	799.856
107.089	14.959	1032.729	801.089
108.103	14.925	1031.749	800.094
109.118	14.779	1030.651	798.474
110.133	14.945	1029.428	798.250
111.147	14.910	1027.880	796.812
112.162	14.776	1027.113	795.507
113.176	14.904	1026.081	795.247
114.191	14.788	1025.450	794.136
115.206	14.609	1024.324	792.342
116.220	14.730	1023.186	791.966
117.235	14.715	1022.166	791.038
118.249	14.780	1021.703	790.914
119.264	14.792	1020.481	789.955
120.279	14.789	1019.993	789.495
121.293	14.837	1018.981	788.867
122.308	14.863	1017.951	788.123
123.322	14.818	1016.833	786.975
124.337	14.641	1015.611	785.130
125.352	14.363	1013.829	782.379
126.366	14.347	1012.335	781.080
127.381	14.699	1012.098	782.479
128.395	14.944	1010.990	782.698
129.410	15.189	1009.919	782.943
130.424	14.945	1008.970	780.998
131.439	14.965	1007.613	779.972
132.454	15.035	1006.666	779.499
133.468	14.949	1006.183	778.655
134.483	14.909	1005.661	777.994
135.497	15.136	1004.439	778.035
136.512	15.213	1003.366	777.494
137.527	15.107	1002.151	775.994
138.541	15.158	1001.164	775.397
139.556	15.169	1000.454	774.828
140.570	15.174	999.399	773.963
141.585	14.967	998.338	772.119
142.600	15.031	997.156	771.432
143.614	15.159	996.251	771.253
144.629	15.141	995.948	770.868
145.643	15.099	994.572	769.541
146.658	14.982	993.281	767.937
147.673	15.010	992.056	767.052
148.687	15.025	991.627	766.719
149.702	14.929	990.641	765.452
150.716	14.978	989.790	764.951
151.731	15.075	988.983	764.699
152.746	15.242	988.197	764.789
153.760	15.243	987.355	764.073
154.775	15.225	986.765	763.465
155.789	15.141	986.206	762.584
156.804	15.129	985.370	761.814
157.819	15.184	984.556	761.367
158.833	15.272	983.079	760.558
159.848	15.223	982.514	759.833
160.862	15.114	981.524	758.505
161.877	15.225	980.537	758.176
162.892	15.414	979.440	758.116
163.906	15.253	978.840	756.857
164.921	15.110	978.104	755.579
165.935	15.284	976.496	755.051
166.950	15.160	975.732	753.837
167.964	15.189	974.463	752.919
168.979	15.041	973.599	751.522
169.994	15.084	972.601	750.875
171.008	15.225	972.033	751.003
172.023	15.006	971.168	749.288
173.037	14.926	970.095	748.036
174.052	14.840	969.223	746.914
175.067	15.113	967.953	747.087
176.081	15.117	967.791	746.914
177.096	15.110	967.409	746.523
178.110	15.012	966.000	744.933
179.125	14.958	965.640	744.348
180.140	15.070	964.753	744.097
181.154	14.897	964.763	743.268
182.169	15.305	963.736	744.223
183.183	15.241	963.408	743.621
184.198	15.217	962.621	742.840
185.213	15.187	961.742	741.966
186.227	15.312	961.117	741.971
187.242	15.196	960.693	741.062
188.256	15.223	959.656	740.315
189.271	15.193	958.603	739.309
190.286	15.160	957.636	738.349
191.300	14.977	956.229	736.393
192.315	14.474	955.425	733.500
193.329	14.345	955.264	732.741
194.344	14.958	954.555	734.828
195.359	15.140	954.306	735.369
196.373	15.311	953.125	735.143
197.388	14.998	952.613	733.313
198.402	14.880	952.112	732.345
199.417	14.970	950.786	731.655
200.432	14.820	950.054	730.370
201.446	14.545	949.743	728.868
202.461	14.691	949.018	728.882
203.475	14.381	947.143	726.028
204.490	13.844	946.482	723.115
205.504	14.415	946.227	725.346
206.519	14.946	945.797	727.262
207.534	15.014	945.065	726.927
208.548	15.265	944.664	727.644
209.563	14.944	944.312	725.918
210.577	15.106	943.280	725.763
211.592	15.330	942.397	725.988
212.607	15.327	941.232	725.013
213.621	15.304	940.724	724.457
214.636	15.235	940.621	724.016
215.650	15.199	939.509	722.942
216.665	15.434	938.675	723.250
217.680	15.336	937.469	721.831
218.694	14.995	936.567	719.609
219.709	14.930	936.032	718.854
220.723	15.176	935.559	719.482
221.738	15.325	934.855	719.516
222.753	15.264	934.264	718.736
223.767	15.257	933.568	718.107
224.782	15.466	932.748	718.307
225.796	15.374	932.283	717.493
226.811	14.990	931.012	714.813
227.826	14.598	930.115	712.388
228.840	14.995	928.945	713.120
229.855	14.908	928.328	712.215
230.869	14.595	927.101	709.876
231.884	14.858	927.100	710.931
232.899	15.337	926.883	712.739
233.913	15.373	926.307	712.385
234.928	15.521	925.376	712.236
235.942	15.542	924.381	711.495
236.957	15.230	923.791	709.657
237.972	15.225	923.662	709.474
238.986	15.346	922.576	709.089
240.001	15.366	921.734	708.465
241.015	15.408	921.116	708.102
242.030	15.324	920.495	707.209
243.045	15.447	919.757	707.098
244.059	15.525	919.330	707.034
245.074	15.328	918.375	705.407
246.088	15.009	916.972	702.927
247.103	15.339	916.087	703.573
248.117	15.523	916.138	704.322
249.132	15.530	915.428	703.741
250.147	15.564	914.608	703.193
251.161	15.568	914.228	702.856
252.176	15.699	913.059	702.442
253.190	15.745	912.873	702.430
254.205	15.830	912.371	702.335
255.220	15.871	911.253	701.584
256.234	15.794	910.728	700.795
257.249	15.732	909.988	699.906
258.263	15.804	909.036	699.413
259.278	15.903	908.189	699.111
260.293	15.724	907.892	698.074
261.307	15.808	906.935	697.628
262.322	15.603	905.790	695.836
263.336	15.114	904.197	692.528
264.351	14.474	902.446	688.482
265.366	14.508	901.914	688.158
266.380	15.143	902.552	691.203
267.395	15.545	901.529	692.015
268.409	15.521	901.165	691.576
269.424	15.786	900.512	692.103
270.439	15.706	900.070	691.377
271.453	15.875	898.937	691.136
272.468	15.966	898.485	691.100
273.482	15.823	897.981	690.066
274.497	15.663	896.988	688.589
275.512	15.409	896.142	686.836
276.526	15.684	895.813	687.648
277.541	15.842	895.020	687.623
278.555	15.474	894.156	685.398
279.570	15.455	892.806	684.224
280.585	15.539	892.450	684.234
281.599	15.669	891.647	684.087
282.614	15.446	890.406	682.169
283.628	15.381	889.997	681.530
284.643	15.751	889.689	682.737
285.657	15.286	888.972	680.239
286.672	15.183	887.807	678.870
287.687	15.487	887.791	680.030
288.701	15.474	886.889	679.228
289.716	15.160	886.339	677.477
290.730	15.212	885.429	676.928
291.745	15.108	884.322	675.602
292.760	15.394	883.904	676.378
293.774	15.927	883.991	678.533
294.789	16.107	883.584	678.884
295.803	16.253	882.829	678.833
296.818	16.420	881.910	678.735
297.833	16.046	880.800	676.322
298.847	16.052	880.112	675.756
299.862	16.172	879.557	675.753
300.876	16.131	879.469	675.462
301.891	15.934	878.427	673.814
302.906	15.691	877.345	671.951
303.920	15.783	877.113	672.082
304.935	15.947	876.479	672.190
305.949	16.142	875.795	672.384
306.964	16.170	875.194	671.977
307.979	16.154	874.690	671.467
308.993	16.316	874.391	671.820
310.008	16.214	873.517	670.687
311.022	16.062	872.900	669.548
312.037	16.055	872.665	669.282
313.052	15.996	871.836	668.352
314.066	15.555	870.450	665.483
315.081	15.214	869.963	663.703
316.095	15.765	869.811	665.708
317.110	16.125	869.501	666.835
318.125	15.698	868.634	664.426
319.139	15.360	867.061	661.831
320.154	15.259	866.969	661.302
321.168	15.772	866.493	662.902
322.183	15.908	866.874	663.673
323.197	16.007	866.171	663.464
324.212	16.219	865.521	663.741
325.227	16.270	865.135	663.587
326.241	16.221	864.086	662.533
327.256	16.170	863.971	662.184
328.270	16.062	863.328	661.209
329.285	16.152	862.476	660.851
330.300	16.027	861.825	659.804
331.314	16.115	861.219	659.626
332.329	16.282	860.305	659.521
333.343	16.320	860.123	659.473
334.358	16.429	859.410	659.291
335.373	16.347	859.453	658.945
336.387	16.501	859.135	659.246
337.402	16.498	859.018	659.084
338.416	16.320	858.135	657.658
339.431	16.388	857.658	657.497
340.446	16.399	857.270	657.184
341.460	16.351	856.576	656.409
342.475	16.146	856.310	655.349
343.489	16.337	855.595	655.486
344.504	16.448	855.190	655.547
345.519	16.525	854.582	655.322
346.533	16.581	854.334	655.291
347.548	16.641	853.911	655.141
348.562	16.635	853.409	654.672
349.577	16.695	852.832	654.405
350.592	16.873	851.953	654.361
351.606	16.944	851.046	653.879
352.621	16.631	850.860	652.471
353.635	16.573	850.008	651.539
354.650	16.290	848.664	649.363
355.665	15.842	847.491	646.687
356.679	16.105	846.829	647.134
357.694	16.126	846.694	647.054
358.708	16.108	846.307	646.631
359.723	16.379	846.082	647.439
360.738	16.788	845.124	648.214
361.752	16.780	844.436	647.601
362.767	16.929	843.851	647.665
363.781	16.987	843.400	647.480
364.796	16.997	843.174	647.288
365.810	16.937	842.676	646.619
366.825	17.081	842.014	646.604
367.840	16.807	841.652	645.225
368.854	16.578	840.851	643.683
369.869	16.753	840.376	643.928
370.883	16.728	839.455	643.069
371.898	16.628	839.063	642.332
372.913	16.671	838.887	642.303
373.927	16.874	838.633	642.825
374.942	16.834	838.120	642.220
375.956	16.897	837.545	641.963
376.971	16.961	837.416	642.049
377.986	16.932	837.083	641.629
379.000	17.098	835.959	641.338
380.015	16.982	835.346	640.370
381.029	16.929	835.111	639.933
382.044	16.868	834.191	638.943
383.059	17.020	833.402	638.853
384.073	16.984	833.195	638.502
385.088	17.132	832.852	638.741
386.102	17.120	832.377	638.276
387.117	17.233	831.338	637.847
388.132	16.953	830.762	636.297
389.146	16.640	830.137	634.590
390.161	16.603	829.371	633.807
391.175	16.710	829.453	634.217
392.190	16.662	828.550	633.288
393.205	16.231	826.956	630.404
394.219	15.541	826.338	627.301
395.234	15.701	826.082	627.649
396.248	16.234	826.495	629.899
397.263	17.131	826.976	633.556
398.278	17.314	826.280	633.648
399.292	17.203	825.809	632.818
400.307	17.065	825.326	631.879
401.321	17.078	825.056	631.665
402.336	17.145	824.632	631.533
403.350	17.256	824.181	631.545
404.365	17.289	823.709	631.250
405.380	17.560	822.810	631.509
406.394	17.522	822.252	630.885
407.409	17.486	821.600	630.195
408.423	17.272	821.583	629.336
409.438	17.368	821.324	629.435
410.453	17.598	820.773	629.810
411.467	17.585	820.421	629.435
412.482	17.402	820.209	628.542
413.496	17.632	819.719	628.960
414.511	17.597	819.338	628.481
415.526	17.537	818.950	627.906
416.540	17.602	818.135	627.466
417.555	17.335	817.313	625.797
418.569	17.319	816.610	625.147
419.584	17.286	816.426	624.825
420.599	17.093	816.059	623.781
421.613	150.672	1358.587	1779.834
422.628	131.189	1437.645	1779.931
