DTS Sentinel unit serial number:	SN413079Multiplexer serial number:	ORYXHardware model number:	OX4-SRSoftware version number:	ORYX F/W v4.00 Oryx Data Collector v3.7.2.0data status	okinstallation	princeton_trtdifferential loss correction	single-endedforward channel	channel 1reverse channel	N/Adate	2019/09/17time	23:34:35forward acquisition time	60.00reverse acquisition time	0.00gamma	496.2192k internal	0.2340k external	0.2340temperature offset calibration	0.9974default loss term (dB/km)	0.3790temperature slope calibration	1.0000multiplexer offset coefficient	1.0000multiplexer slope coefficient	1.0000fibre end	0.00T internal ref (°C)	24.19T ext. ref 1 (°C)	0.17T ext. ref 2 (°C)	17.53length (m)	temperature (°C)	Stokes	anti-Stokes-747.200	59.851	0.236	0.234
-746.185	-7.294	-0.337	-0.229
-745.171	-15.729	0.266	-0.170
-744.156	-200.000	-0.062	0.335
-743.142	138.181	0.165	0.217
-742.127	-48.619	-0.085	-0.041
-741.112	-200.000	-0.021	0.342
-740.098	-179.531	-0.273	-0.006
-739.083	-30.587	0.307	-0.175
-738.069	-200.000	0.011	0.076
-737.054	207.184	-0.177	-0.277
-736.039	-126.104	-0.229	-0.034
-735.025	-0.329	0.021	0.015
-734.010	-40.304	-0.228	-0.119
-732.996	-58.506	-0.368	0.160
-731.981	273.083	0.121	0.214
-730.966	-24.812	0.183	-0.109
-729.952	-200.000	0.014	0.109
-728.937	-200.000	0.059	0.338
-727.923	133.604	0.115	-0.149
-726.908	-41.327	0.370	-0.191
-725.894	-150.071	-0.173	0.013
-724.879	492.826	0.046	0.106
-723.864	-175.290	0.190	-0.005
-722.850	94.661	-0.107	-0.122
-721.835	41.583	-0.232	-0.210
-720.821	-70.714	-0.437	-0.165
-719.806	2.062	-0.352	-0.255
-718.791	3.412	-0.151	0.110
-717.777	800.000	0.057	0.182
-716.762	-200.000	-0.033	-0.207
-715.748	-200.000	-0.006	-0.074
-714.733	54.941	-0.090	-0.087
-713.718	11.727	-0.382	0.294
-712.704	800.000	-0.035	-0.117
-711.689	-200.000	0.006	-0.127
-710.675	-17.995	-0.107	-0.067
-709.660	24.924	0.168	-0.140
-708.645	-70.348	-0.190	-0.072
-707.631	648.086	0.126	-0.323
-706.616	13.068	-0.336	-0.260
-705.602	-200.000	0.025	0.111
-704.587	62.632	0.358	-0.359
-703.572	24.774	-0.120	-0.100
-702.558	38.533	0.126	0.112
-701.543	-200.000	0.060	0.375
-700.529	31.530	0.036	-0.031
-699.514	83.774	-0.103	-0.113
-698.499	-183.971	-0.532	-0.009
-697.485	168.720	0.015	0.021
-696.470	-61.380	0.117	0.049
-695.456	4.309	-0.114	-0.084
-694.441	-96.188	-0.286	-0.076
-693.426	742.706	0.114	-0.306
-692.412	-92.039	-0.434	0.123
-691.397	31.567	0.184	-0.159
-690.383	28.753	-0.267	0.226
-689.368	-70.605	0.195	-0.074
-688.354	717.899	0.060	0.160
-687.339	-93.190	0.085	0.024
-686.324	90.528	-0.134	0.150
-685.310	319.384	0.054	0.103
-684.295	-106.798	0.439	0.097
-683.281	277.688	-0.078	-0.139
-682.266	-113.127	-0.228	-0.045
-681.251	-74.557	-0.165	-0.059
-680.237	574.205	-0.063	-0.154
-679.222	20.185	0.071	-0.057
-678.208	-200.000	-0.021	-0.097
-677.193	60.199	-0.119	-0.118
-676.178	442.134	-0.129	-0.283
-675.164	800.000	0.083	-0.289
-674.149	800.000	0.110	0.368
-673.135	-200.000	-0.004	0.134
-672.120	16.562	0.289	-0.228
-671.105	800.000	-0.020	0.062
-670.091	20.518	0.033	-0.027
-669.076	-64.951	0.280	-0.113
-668.062	-46.924	0.318	-0.155
-667.047	-181.196	-0.125	0.002
-666.032	-29.380	-0.166	0.095
-665.018	142.668	-0.131	0.174
-664.003	43.688	-0.142	0.130
-662.989	-106.205	-0.185	0.042
-661.974	-69.968	-0.050	-0.019
-660.959	-200.000	-0.038	0.181
-659.945	-200.000	0.013	0.179
-658.930	-86.007	-0.287	0.089
-657.916	338.479	-0.242	-0.471
-656.901	87.262	0.067	0.074
-655.886	25.205	0.186	-0.155
-654.872	800.000	0.099	-0.358
-653.857	800.000	-0.066	-0.261
-652.843	-46.585	-0.253	-0.124
-651.828	-51.751	-0.199	-0.093
-650.814	-44.780	-0.164	-0.082
-649.799	20.485	0.347	-0.280
-648.784	800.000	0.061	0.195
-647.770	-86.394	-0.077	-0.024
-646.755	30.285	-0.260	-0.222
-645.741	800.000	-0.115	-0.319
-644.726	114.240	-0.153	-0.186
-643.711	37.246	0.132	0.117
-642.697	-47.600	0.309	-0.150
-641.682	800.000	0.016	-0.046
-640.668	-93.167	-0.256	0.071
-639.653	565.437	0.109	0.264
-638.638	-200.000	0.020	-0.185
-637.624	-96.197	0.083	0.022
-636.609	-143.274	0.108	0.010
-635.595	-99.808	-0.281	0.070
-634.580	500.901	0.118	-0.271
-633.565	-169.758	0.199	-0.007
-632.551	144.552	-0.135	-0.180
-631.536	-19.132	-0.030	-0.018
-630.522	321.135	0.104	0.198
-629.507	209.100	0.112	0.175
-628.492	-133.836	0.143	0.018
-627.478	-64.282	0.284	0.116
-626.463	-190.320	-0.391	0.004
-625.449	372.675	-0.136	-0.276
-624.434	385.345	-0.144	0.297
-623.419	743.411	0.151	-0.404
-622.405	15.927	0.020	-0.016
-621.390	-197.449	-0.090	0.001
-620.376	340.922	0.141	0.274
-619.361	-154.879	0.149	-0.010
-618.346	-119.281	0.034	-0.006
-617.332	384.505	-0.077	-0.157
-616.317	-121.206	-0.193	-0.032
-615.303	-59.757	-0.134	-0.057
-614.288	263.245	-0.075	0.130
-613.273	-101.426	0.294	0.071
-612.259	173.803	0.194	-0.279
-611.244	800.000	-0.106	-0.362
-610.230	-62.667	0.729	0.301
-609.215	-155.946	-0.243	0.015
-608.201	800.000	0.047	-0.143
-607.186	-66.803	-0.203	-0.080
-606.171	-135.853	-0.270	-0.032
-605.157	-49.174	-0.171	0.082
-604.142	-54.125	-0.235	0.107
-603.128	549.607	-0.042	0.100
-602.113	-200.000	0.003	-0.030
-601.098	-141.229	0.157	-0.016
-600.084	128.104	0.035	-0.044
-599.069	-182.611	0.361	-0.007
-598.055	154.515	-0.052	0.071
-597.040	53.697	-0.225	-0.215
-596.025	800.000	-0.054	-0.232
-595.011	100.172	0.241	0.279
-593.996	800.000	0.013	-0.048
-592.982	-120.454	0.216	-0.037
-591.967	-200.000	-0.144	0.000
-590.952	-74.097	-0.489	-0.177
-589.938	-200.000	-0.061	0.284
-588.923	-95.785	-0.027	0.007
-587.909	124.906	0.202	-0.253
-586.894	-74.105	0.434	0.157
-585.879	81.808	0.180	-0.194
-584.865	522.090	-0.098	-0.229
-583.850	-101.225	-0.099	-0.024
-582.836	-73.598	0.329	-0.119
-581.821	-88.445	-0.378	0.112
-580.806	-101.798	-0.023	-0.006
-579.792	800.000	0.040	0.163
-578.777	-48.480	-0.107	0.052
-577.763	-10.812	-0.206	-0.136
-576.748	119.080	0.179	-0.220
-575.733	-17.307	0.223	-0.140
-574.719	-82.605	-0.148	-0.048
-573.704	800.000	-0.031	0.091
-572.690	3.890	-0.250	-0.182
-571.675	-117.748	-0.178	0.032
-570.661	-200.000	0.050	-0.282
-569.646	-200.000	-0.004	-0.025
-568.631	84.483	0.163	0.178
-567.617	38.192	0.076	-0.068
-566.602	-7.598	-0.178	0.120
-565.588	74.879	0.157	0.164
-564.573	84.756	-0.152	0.166
-563.558	60.139	0.122	0.120
-562.544	146.903	0.102	0.136
-561.529	384.809	0.124	0.255
-560.515	135.417	0.240	0.311
-559.500	-3.773	0.155	0.107
-558.485	-165.183	0.283	0.012
-557.471	-188.455	0.444	-0.006
-556.456	-152.072	-0.163	-0.012
-555.442	-200.000	0.024	-0.193
-554.427	13.464	-0.247	0.190
-553.412	-111.735	-0.316	0.064
-552.398	101.085	0.158	-0.183
-551.383	-162.117	0.310	-0.015
-550.369	-3.596	-0.282	-0.195
-549.354	-67.368	0.100	-0.039
-548.339	-146.680	0.204	-0.018
-547.325	-100.794	-0.053	0.013
-546.310	-82.782	0.306	0.098
-545.296	-65.895	-0.215	0.086
-544.281	800.000	0.027	-0.089
-543.266	174.564	-0.090	0.129
-542.252	800.000	0.034	-0.106
-541.237	-200.000	-0.036	0.259
-540.223	231.397	0.028	0.046
-539.208	89.634	-0.123	-0.137
-538.193	-139.863	0.464	-0.049
-537.179	800.000	-0.053	0.220
-536.164	800.000	-0.072	-0.263
-535.150	-127.640	-0.384	-0.055
-534.135	60.889	0.038	-0.037
-533.121	-133.016	-0.275	0.035
-532.106	-88.285	0.292	0.087
-531.091	-95.000	-0.165	-0.044
-530.077	514.227	-0.086	0.200
-529.062	21.638	0.127	-0.102
-528.048	131.459	-0.143	0.182
-527.033	302.398	0.080	0.147
-526.018	-41.855	-0.354	0.181
-525.004	-70.278	0.154	-0.058
-523.989	54.571	0.110	0.105
-522.975	-104.400	-0.202	0.046
-521.960	-40.760	0.120	0.062
-520.945	-119.825	-0.123	0.021
-519.931	-109.398	0.303	0.064
-518.916	-200.000	-0.009	0.555
-517.902	-18.842	-0.140	0.086
-516.887	-93.467	-0.164	-0.045
-515.872	800.000	-0.128	-0.376
-514.858	-130.563	0.343	0.046
-513.843	-45.080	-0.100	0.049
-512.829	108.525	0.198	-0.235
-511.814	-15.901	0.184	-0.116
-510.799	537.333	-0.112	0.263
-509.785	-146.505	-0.277	-0.024
-508.770	800.000	0.090	0.321
-507.756	-98.589	0.115	-0.029
-506.741	-50.959	0.096	0.045
-505.726	-83.064	-0.142	-0.045
-504.712	72.712	-0.214	0.221
-503.697	604.463	-0.030	0.073
-502.683	371.056	-0.108	0.217
-501.668	-200.000	0.001	0.180
-500.653	-69.305	-0.125	-0.048
-499.639	800.000	0.085	-0.267
-498.624	145.767	0.130	-0.173
-497.610	282.664	0.187	-0.332
-496.595	-4.025	-0.288	0.198
-495.581	168.554	0.239	0.338
-494.566	-45.378	-0.155	-0.076
-493.551	-94.203	0.202	0.055
-492.537	-132.044	0.258	-0.033
-491.522	-7.747	0.151	0.101
-490.508	-113.704	-0.229	0.044
-489.493	-46.706	0.262	0.128
-488.478	-82.448	0.417	0.135
-487.464	-200.000	0.005	0.188
-486.449	-119.739	0.139	0.024
-485.435	-13.340	-0.188	0.121
-484.420	190.999	-0.075	0.111
-483.405	715.246	0.059	0.154
-482.391	-158.515	0.454	-0.026
-481.376	593.790	0.062	-0.151
-480.362	-115.742	-0.412	-0.077
-479.347	-200.000	0.018	-0.161
-478.332	-200.000	0.024	-0.137
-477.318	800.000	-0.145	0.418
-476.303	-93.743	-0.102	-0.028
-475.289	800.000	-0.035	0.133
-474.274	94.171	-0.182	-0.205
-473.259	466.206	0.071	-0.158
-472.245	358.262	0.060	0.119
-471.230	-69.809	-0.404	0.153
-470.216	-98.778	0.168	-0.043
-469.201	72.297	0.116	0.120
-468.186	800.000	-0.028	-0.096
-467.172	756.108	0.039	0.104
-466.157	800.000	0.033	0.093
-465.143	800.000	-0.059	0.192
-464.128	-140.150	-0.090	-0.009
-463.113	-200.000	0.015	-0.298
-462.099	-55.782	0.104	0.046
-461.084	207.979	-0.219	-0.340
-460.070	-132.099	-0.216	-0.028
-459.055	-163.230	0.174	0.008
-458.040	66.596	-0.108	-0.109
-457.026	-67.005	-0.118	0.046
-456.011	-36.467	-0.188	0.100
-454.997	-16.036	-0.253	0.160
-453.982	284.247	0.063	-0.113
-452.968	-200.000	-0.036	-0.201
-451.953	800.000	0.035	-0.153
-450.938	275.168	-0.128	-0.225
-449.924	146.580	-0.246	0.327
-448.909	-200.000	0.008	0.095
-447.895	-150.187	-0.298	0.023
-446.880	-138.249	-0.156	-0.017
-445.865	474.301	0.079	0.177
-444.851	-49.981	0.304	0.143
-443.836	474.151	0.072	0.160
-442.822	-148.806	-0.229	0.018
-441.807	-200.000	-0.011	0.141
-440.792	0.379	0.165	-0.117
-439.778	76.225	-0.164	-0.172
-438.763	-200.000	-0.041	-0.308
-437.749	-121.465	0.480	-0.079
-436.734	-126.256	0.122	-0.018
-435.719	42.477	-0.070	0.063
-434.705	161.929	-0.195	0.270
-433.690	650.043	-0.066	-0.167
-432.676	-82.960	0.071	-0.023
-431.661	281.960	0.035	0.062
-430.646	-200.000	0.007	0.049
-429.632	6.880	0.211	-0.156
-428.617	800.000	0.015	0.062
-427.603	171.366	-0.012	-0.018
-426.588	-191.610	0.304	-0.003
-425.573	-79.123	0.170	-0.057
-424.559	-200.000	-0.051	0.281
-423.544	-67.937	-0.199	0.077
-422.530	218.459	-0.065	-0.102
-421.515	-70.271	-0.114	-0.043
-420.500	-200.000	-0.058	-0.333
-419.486	800.000	0.031	-0.128
-418.471	241.805	0.162	0.267
-417.457	-200.000	0.030	-0.408
-416.442	159.185	0.155	0.214
-415.428	-200.000	-0.031	0.142
-414.413	-6.893	0.250	0.168
-413.398	66.082	0.155	-0.155
-412.384	-118.975	-0.193	0.034
-411.369	-43.829	0.327	0.163
-410.355	-122.597	-0.339	0.054
-409.340	153.976	-0.073	0.099
-408.325	576.464	0.138	0.333
-407.311	-200.000	0.002	-0.192
-406.296	-61.495	0.077	-0.032
-405.282	-96.201	-0.226	0.059
-404.267	147.178	-0.135	-0.180
-403.252	-85.859	0.269	-0.082
-402.238	-118.894	-0.294	-0.051
-401.223	369.963	0.109	-0.218
-400.209	34.741	-0.259	0.224
-399.194	-58.270	-0.165	-0.071
-398.179	-189.310	-0.150	0.002
-397.165	112.395	-0.129	0.154
-396.150	4.798	-0.075	0.055
-395.136	-71.231	0.055	-0.020
-394.121	800.000	-0.064	0.189
-393.106	310.208	-0.054	-0.100
-392.092	117.344	-0.245	0.298
-391.077	6.615	0.165	-0.121
-390.063	31.762	-0.165	0.141
-389.048	-105.674	-0.066	0.015
-388.033	197.784	-0.161	-0.243
-387.019	522.852	-0.065	0.150
-386.004	-200.000	0.043	-0.452
-384.990	0.179	0.116	0.082
-383.975	317.687	0.040	-0.075
-382.960	265.985	0.061	0.105
-381.946	-16.523	0.086	-0.054
-380.931	-143.932	-0.109	-0.010
-379.917	-200.000	-0.022	0.155
-378.902	689.328	0.082	0.211
-377.888	131.206	0.165	0.209
-376.873	-135.450	0.122	0.014
-375.858	-46.094	-0.556	0.271
-374.844	-200.000	-0.019	0.330
-373.829	-71.194	0.080	-0.030
-372.815	-130.082	0.142	-0.019
-371.800	451.333	-0.013	-0.028
-370.785	-165.614	0.113	0.005
-369.771	39.271	0.332	-0.293
-368.756	-68.693	0.087	0.033
-367.742	93.571	0.368	0.412
-366.727	552.986	-0.090	0.213
-365.712	800.000	0.113	0.366
-364.698	8.219	-0.253	-0.188
-363.683	-53.138	0.108	0.049
-362.669	-14.722	-0.033	-0.021
-361.654	-86.187	-0.116	-0.035
-360.639	800.000	0.020	0.076
-359.625	241.847	-0.102	0.169
-358.610	54.520	-0.226	0.215
-357.596	-57.400	0.362	0.157
-356.581	295.971	0.020	-0.036
-355.566	-200.000	0.074	-0.364
-354.552	13.045	-0.160	0.122
-353.537	186.105	-0.206	-0.303
-352.523	-83.501	0.146	-0.046
-351.508	-200.000	0.059	0.304
-350.493	150.830	0.132	0.177
-349.479	135.660	0.073	-0.093
-348.464	-61.521	-0.449	-0.186
-347.450	-200.000	-0.008	-0.073
-346.435	41.069	0.103	0.092
-345.420	142.624	0.203	-0.266
-344.406	-133.731	-0.343	-0.042
-343.391	800.000	-0.072	0.281
-342.377	-40.707	0.167	0.086
-341.362	-120.610	-0.221	0.037
-340.348	11.479	-0.212	0.160
-339.333	-45.624	-0.189	0.092
-338.318	91.540	0.286	0.317
-337.304	-65.048	-0.207	-0.083
-336.289	-56.037	-0.211	-0.093
-335.275	-106.422	0.324	-0.071
-334.260	-55.164	0.344	-0.153
-333.245	144.761	-0.200	-0.263
-332.231	57.355	-0.331	-0.318
-331.216	-106.405	-0.350	0.077
-330.202	-114.311	0.185	-0.035
-329.187	-200.000	-0.003	-0.254
-328.172	-67.618	0.274	-0.106
-327.158	-200.000	-0.005	0.176
-326.143	270.990	-0.103	0.180
-325.129	-14.139	-0.134	0.085
-324.114	-37.121	-0.280	0.148
-323.099	800.000	-0.124	0.348
-322.085	558.803	0.063	0.149
-321.070	88.691	0.214	0.235
-320.056	-200.000	0.045	0.270
-319.041	-179.738	0.243	0.005
-318.026	-60.348	-0.148	-0.062
-317.012	-11.989	0.192	-0.124
-315.997	800.000	0.068	-0.278
-314.983	-109.425	-0.427	0.089
-313.968	51.690	-0.057	-0.054
-312.953	-28.904	-0.095	0.054
-311.939	800.000	-0.124	-0.359
-310.924	-86.148	-0.095	0.029
-309.910	76.835	0.061	0.064
-308.895	85.230	0.109	-0.117
-307.880	-108.483	-0.213	-0.045
-306.866	-32.999	-0.158	-0.087
-305.851	-29.885	0.154	-0.086
-304.837	70.745	-0.199	-0.203
-303.822	-49.899	0.408	-0.191
-302.807	238.971	-0.115	0.188
-301.793	688.391	-0.098	0.252
-300.778	42.461	-0.178	-0.159
-299.764	103.518	-0.179	-0.207
-298.749	53.509	-0.184	-0.174
-297.735	22.160	0.084	-0.067
-296.720	-114.963	-0.152	0.028
-295.705	-80.337	0.204	-0.067
-294.691	10.100	0.225	-0.168
-293.676	800.000	0.050	-0.138
-292.662	-132.133	0.280	0.036
-291.647	302.944	0.089	-0.162
-290.632	-200.000	0.031	0.321
-289.618	-200.000	-0.014	-0.195
-288.603	174.229	0.130	0.185
-287.589	-22.440	0.224	0.134
-286.574	-58.408	-0.124	0.053
-285.559	244.106	0.126	-0.208
-284.545	-69.504	-0.051	0.019
-283.530	-200.000	-0.010	-0.502
-282.516	-82.898	0.054	-0.017
-281.501	28.439	0.167	-0.139
-280.486	-3.552	0.063	0.043
-279.472	800.000	-0.094	-0.289
-278.457	-170.961	0.123	0.004
-277.443	-39.833	-0.262	-0.135
-276.428	800.000	-0.096	0.281
-275.413	-60.040	0.089	-0.037
-274.399	800.000	0.103	-0.362
-273.384	800.000	-0.008	-0.030
-272.370	122.217	0.162	-0.200
-271.355	-200.000	-0.047	0.300
-270.340	376.134	-0.113	0.227
-269.326	-37.823	-0.361	0.189
-268.311	71.616	-0.219	-0.224
-267.297	340.298	0.078	0.149
-266.282	-8.864	-0.131	-0.086
-265.267	-200.000	-0.043	0.294
-264.253	77.501	-0.037	-0.039
-263.238	39.274	-0.031	-0.027
-262.224	-134.612	-0.392	-0.047
-261.209	-200.000	-0.008	-0.331
-260.195	-200.000	0.016	0.152
-259.180	-147.308	-0.416	-0.035
-258.165	87.776	-0.182	0.199
-257.151	-89.989	0.084	-0.024
-256.136	800.000	-0.095	-0.260
-255.122	-200.000	-0.086	-0.442
-254.107	-147.775	-0.119	-0.010
-253.092	-200.000	-0.025	0.135
-252.078	133.509	-0.093	0.118
-251.063	-132.129	0.160	0.020
-250.049	-31.863	-0.057	0.031
-249.034	9.782	0.272	-0.203
-248.019	-16.601	-0.387	0.241
-247.005	-98.679	0.120	-0.030
-245.990	8.041	0.161	-0.118
-244.976	800.000	0.042	-0.121
-243.961	152.861	-0.108	0.145
-242.946	-61.466	-0.166	-0.069
-241.932	800.000	-0.006	0.026
-240.917	-41.998	-0.050	-0.025
-239.903	-113.809	-0.114	0.022
-238.888	800.000	-0.037	0.131
-237.873	114.748	0.056	0.067
-236.859	800.000	0.010	-0.038
-235.844	432.828	-0.049	-0.104
-234.830	-200.000	-0.034	0.255
-233.815	235.226	0.127	0.205
-232.800	247.434	0.200	-0.332
-231.786	526.701	0.061	-0.141
-230.771	0.829	0.328	-0.231
-229.757	-128.594	-0.077	-0.011
-228.742	-9.945	-0.173	0.113
-227.727	448.517	-0.055	-0.118
-226.713	-56.785	0.156	0.068
-225.698	1.963	0.110	-0.078
-224.684	-18.891	0.208	-0.127
-223.669	-104.839	0.522	-0.118
-222.655	425.732	0.073	0.155
-221.640	36.149	-0.218	0.188
-220.625	471.914	0.106	-0.234
-219.611	53.008	-0.052	-0.049
-218.596	-200.000	0.002	-0.131
-217.582	-72.534	0.090	0.033
-216.567	101.454	0.167	-0.192
-215.552	-125.414	-0.220	-0.033
-214.538	62.319	0.060	0.059
-213.523	23.545	-0.186	-0.151
-212.509	-114.701	0.295	-0.055
-211.494	249.070	-0.203	-0.337
-210.479	54.812	-0.038	0.036
-209.465	-46.051	0.328	-0.159
-208.450	-140.628	-0.190	-0.019
-207.436	-200.000	0.028	-0.183
-206.421	426.473	-0.108	-0.229
-205.406	209.797	0.003	-0.004
-204.392	800.000	-0.007	0.027
-203.377	-127.288	-0.063	0.009
-202.363	-85.710	0.084	0.026
-201.348	-179.458	0.295	0.006
-200.333	652.524	0.059	0.148
-199.319	-184.476	-0.160	-0.003
-198.304	82.428	0.154	-0.164
-197.290	-58.832	-0.129	0.055
-196.275	169.819	-0.099	-0.139
-195.260	-148.948	-0.252	-0.020
-194.246	1.558	0.195	0.138
-193.231	-59.723	0.123	0.052
-192.217	-140.033	0.258	0.027
-191.202	-200.000	-0.026	-0.223
-190.187	-50.795	-0.211	0.098
-189.173	111.399	0.217	-0.257
-188.158	-36.805	0.105	-0.055
-187.144	-200.000	0.070	-0.350
-186.129	15.461	0.165	0.127
-185.114	-77.264	0.204	0.070
-184.100	-53.749	0.267	0.120
-183.085	-200.000	0.014	-0.122
-182.071	19.149	0.162	0.127
-181.056	-27.395	-0.111	-0.063
-180.042	26.125	-0.023	-0.019
-179.027	-104.301	-0.125	0.028
-178.012	-53.926	-0.293	-0.131
-176.998	-200.000	-0.048	-0.228
-175.983	129.873	0.178	0.223
-174.969	-142.500	0.176	0.017
-173.954	-145.527	0.112	-0.010
-172.939	800.000	0.029	0.107
-171.925	-86.556	-0.044	0.013
-170.910	-200.000	0.034	0.299
-169.896	-51.247	-0.164	0.075
-168.881	-123.069	0.405	-0.064
-167.866	-200.000	-0.043	0.254
-166.852	301.496	0.086	0.156
-165.837	-145.685	-0.375	-0.033
-164.823	-53.275	0.480	0.216
-163.808	-59.376	-0.085	0.036
-162.793	-119.588	-0.095	0.016
-161.779	-68.377	-0.051	0.020
-160.764	227.700	0.157	0.251
-159.750	203.801	-0.100	0.152
-158.735	5.427	0.226	0.164
-157.720	-55.921	-0.130	-0.057
-156.706	800.000	-0.061	-0.237
-155.691	304.085	-0.083	0.150
-154.677	193.288	-0.183	-0.271
-153.662	-138.895	0.195	0.021
-152.647	207.766	-0.059	-0.090
-151.633	-36.650	-0.233	-0.123
-150.618	404.743	0.082	0.169
-149.604	-126.653	0.216	0.031
-148.589	-200.000	-0.014	0.071
-147.574	29.093	0.268	-0.222
-146.560	283.010	-0.203	-0.357
-145.545	800.000	0.067	0.238
-144.531	-39.268	-0.247	-0.127
-143.516	-65.356	0.273	0.108
-142.502	-10.962	0.113	0.073
-141.487	-127.563	-0.291	0.041
-140.472	159.110	-0.052	0.070
-139.458	170.582	-0.050	-0.070
-138.443	-93.988	0.232	-0.062
-137.429	-200.000	0.076	-0.000
-136.414	226.722	0.127	-0.202
-135.399	-86.927	0.307	-0.092
-134.385	-153.817	0.279	0.019
-133.370	-57.106	-0.468	-0.202
-132.356	-90.369	-0.125	-0.036
-131.341	67.354	-0.052	0.052
-130.326	50.406	0.108	-0.100
-129.312	-200.000	-0.049	-0.226
-128.297	800.000	0.057	-0.245
-127.283	-65.261	0.352	0.139
-126.268	320.732	-0.098	-0.182
-125.253	-177.720	-0.190	-0.004
-124.239	-67.796	0.262	-0.100
-123.224	97.246	0.064	0.072
-122.210	32.058	0.192	-0.162
-121.195	468.194	-0.056	-0.123
-120.180	800.000	0.031	0.124
-119.166	-60.785	0.344	-0.142
-118.151	-111.880	-0.428	0.084
-117.137	246.520	-0.259	0.426
-116.122	-200.000	-0.033	0.156
-115.107	536.959	0.137	-0.318
-114.093	37.202	0.113	-0.098
-113.078	615.224	0.011	-0.028
-112.064	-200.000	0.009	-0.043
-111.049	-200.000	-0.024	-0.125
-110.034	287.230	-0.106	-0.188
-109.020	-45.509	0.336	0.163
-108.005	-44.677	0.434	-0.212
-106.991	169.296	-0.134	0.187
-105.976	116.877	-0.239	0.287
-104.962	-200.000	0.033	0.244
-103.947	18.622	-0.122	0.095
-102.932	148.472	0.071	-0.093
-101.918	389.073	-0.102	0.207
-100.903	800.000	-0.054	-0.172
-99.889	-101.969	0.046	0.011
-98.874	-200.000	0.063	0.290
-97.859	-100.130	0.122	-0.030
-96.845	800.000	-0.116	0.384
-95.830	23.999	0.214	0.172
-94.816	513.275	-0.130	0.296
-93.801	262.057	0.041	-0.070
-92.786	174.831	-0.279	-0.395
-91.772	74.532	0.044	0.045
-90.757	-82.697	-0.126	-0.040
-89.743	-51.863	-0.149	0.068
-88.728	-76.009	-0.196	0.068
-87.713	-22.142	0.160	-0.095
-86.699	-153.127	0.219	-0.015
-85.684	401.414	-0.070	0.143
-84.670	800.000	-0.065	-0.184
-83.655	-200.000	0.083	-0.459
-82.640	48.982	-0.110	-0.100
-81.626	-86.408	-0.454	-0.136
-80.611	261.027	-0.130	-0.219
-79.597	-200.000	0.039	-0.309
-78.582	-151.618	0.439	-0.032
-77.567	229.030	-0.147	-0.234
-76.553	277.123	0.151	0.263
-75.538	474.375	0.127	0.279
-74.524	-200.000	0.038	-0.236
-73.509	-107.011	0.540	-0.117
-72.494	-30.920	0.161	0.089
-71.480	-92.915	0.336	-0.092
-70.465	800.000	-0.050	-0.162
-69.451	-104.725	-0.423	0.095
-68.436	-143.208	0.219	-0.021
-67.422	239.288	0.035	-0.057
-66.407	-6.883	0.322	0.214
-65.392	-116.764	0.166	-0.030
-64.378	-86.029	0.074	0.022
-63.363	279.217	0.095	0.165
-62.349	132.202	-0.282	-0.354
-61.334	37.847	-1.253	-1.087
-60.319	61.972	0.860	0.837
-59.305	800.000	-0.458	-1.255
-58.290	327.501	0.745	1.394
-57.276	220.387	1.002	1.568
-56.261	-200.000	122.377	646.289
-55.246	434.708	1533.008	3251.888
-54.232	149.472	2673.798	3533.669
-53.217	98.464	2128.866	2394.609
-52.203	35.524	1575.438	1349.658
-51.188	27.474	1322.220	1084.957
-50.173	24.907	1285.473	1039.877
-49.159	51.651	1353.346	1255.581
-48.144	49.170	1365.432	1251.934
-47.130	27.565	1313.592	1078.244
-46.115	24.321	1294.800	1043.826
-45.100	24.115	1289.763	1038.520
-44.086	24.063	1287.643	1036.470
-43.071	24.022	1285.336	1034.337
-42.057	24.056	1283.274	1032.830
-41.042	24.169	1281.033	1031.644
-40.027	23.973	1280.270	1029.851
-39.013	24.073	1278.320	1028.820
-37.998	24.100	1276.563	1027.519
-36.984	24.152	1274.551	1026.159
-35.969	24.127	1273.296	1024.967
-34.954	24.118	1271.575	1023.486
-33.940	24.167	1270.241	1022.655
-32.925	24.188	1269.104	1021.822
-31.911	24.288	1267.119	1020.752
-30.896	24.308	1265.729	1019.706
-29.881	24.220	1264.954	1018.537
-28.867	24.361	1263.552	1018.173
-27.852	24.325	1262.393	1016.993
-26.838	24.267	1260.850	1015.383
-25.823	24.296	1259.452	1014.382
-24.809	24.234	1258.259	1013.027
-23.794	24.159	1257.206	1011.712
-22.779	24.194	1255.815	1010.753
-21.765	24.308	1254.495	1010.298
-20.750	24.319	1253.254	1009.317
-19.736	24.245	1252.158	1007.979
-18.721	24.245	1251.120	1007.100
-17.706	24.115	1250.248	1005.627
-16.692	24.175	1248.784	1004.743
-15.677	24.176	1247.746	1003.874
-14.663	24.202	1246.589	1003.051
-13.648	24.094	1245.803	1001.771
-12.633	24.198	1244.687	1001.419
-11.619	24.174	1244.233	1000.883
-10.604	24.232	1242.697	999.930
-9.590	24.101	1242.117	998.688
-8.575	24.026	1240.933	997.277
-7.560	24.157	1239.720	996.996
-6.546	24.074	1239.134	996.020
-5.531	24.175	1238.163	995.764
-4.517	24.055	1237.819	994.777
-3.502	24.124	1236.864	994.360
-2.487	24.177	1236.196	994.077
-1.473	24.131	1231.058	989.650
-0.458	22.445	1216.445	968.598
0.556	17.149	1201.010	931.231
1.571	13.566	1207.862	916.670
2.586	12.740	1223.479	923.810
3.600	12.875	1210.862	914.952
4.615	9.318	1140.158	842.835
5.629	3.196	1070.023	760.729
6.644	0.452	1052.859	735.102
7.659	0.126	1051.447	732.464
8.673	0.133	1050.446	731.737
9.688	-0.030	1049.230	730.034
10.702	0.205	1046.767	729.392
11.717	4.017	1051.135	750.889
12.731	11.122	1060.670	792.305
13.746	15.701	1066.165	818.680
14.761	16.793	1066.684	824.323
15.775	16.002	1065.312	819.345
16.790	14.950	1063.231	812.566
17.804	14.313	1062.145	808.573
18.819	14.011	1060.509	805.788
19.834	13.677	1059.988	803.706
20.848	13.548	1058.680	802.018
21.863	13.340	1058.039	800.455
22.877	13.098	1057.316	798.663
23.892	13.104	1056.408	797.939
24.907	13.123	1056.065	797.702
25.921	13.099	1054.823	796.577
26.936	13.166	1054.447	796.543
27.950	13.148	1053.255	795.487
28.965	13.267	1051.959	795.007
29.980	13.330	1050.116	793.848
30.994	13.316	1050.002	793.623
32.009	13.426	1048.504	792.951
33.023	13.322	1048.092	792.070
34.038	13.280	1047.102	791.052
35.053	13.278	1045.811	789.998
36.067	13.222	1045.308	789.279
37.082	13.235	1044.410	788.591
38.096	13.388	1043.125	788.281
39.111	13.314	1042.512	787.395
40.126	13.110	1041.559	785.637
41.140	13.204	1040.491	785.207
42.155	12.998	1039.669	783.541
43.169	12.984	1038.283	782.362
44.184	12.998	1037.051	781.430
45.199	12.976	1036.164	780.587
46.213	13.073	1035.402	780.402
47.228	13.247	1034.088	780.165
48.242	13.098	1033.447	778.907
49.257	13.039	1032.364	777.744
50.271	13.320	1031.482	778.336
51.286	13.170	1030.719	776.987
52.301	13.206	1029.330	776.037
53.315	13.057	1028.869	774.923
54.330	13.105	1027.722	774.216
55.344	13.194	1026.507	773.647
56.359	13.075	1025.950	772.603
57.374	13.072	1025.297	772.030
58.388	13.103	1024.107	771.210
59.403	13.027	1023.715	770.493
60.417	13.052	1022.726	769.796
61.432	13.144	1021.491	769.224
62.447	12.955	1021.235	768.084
63.461	12.937	1020.529	767.404
64.476	12.907	1019.918	766.734
65.490	13.012	1018.666	766.217
66.505	12.975	1018.139	765.581
67.520	12.974	1017.690	765.170
68.534	13.029	1017.200	764.987
69.549	12.912	1016.361	763.745
70.563	13.047	1015.131	763.379
71.578	12.959	1014.401	762.357
72.593	12.978	1013.513	761.710
73.607	12.898	1013.135	760.988
74.622	12.983	1012.157	760.580
75.636	12.856	1011.701	759.584
76.651	12.943	1010.812	759.250
77.666	12.972	1010.484	759.071
78.680	13.007	1009.840	758.681
79.695	13.035	1008.686	757.876
80.709	13.063	1008.681	757.929
81.724	13.057	1007.712	757.111
82.739	13.048	1007.259	756.661
83.753	13.049	1006.775	756.232
84.768	13.302	1005.391	756.285
85.782	13.312	1004.383	755.506
86.797	13.278	1003.671	754.746
87.812	13.156	1002.462	753.216
88.826	13.140	1001.897	752.653
89.841	13.161	1000.682	751.769
90.855	13.310	999.939	751.821
91.870	13.325	998.860	751.009
92.884	13.265	998.651	750.517
93.899	13.359	997.521	750.026
94.914	13.334	996.820	749.319
95.928	13.276	996.281	748.585
96.943	13.297	995.360	747.922
97.957	13.247	994.420	746.924
98.972	13.138	994.052	746.090
99.987	13.342	992.330	745.650
101.001	13.283	991.511	744.701
102.016	13.298	990.959	744.291
103.030	13.290	990.280	743.677
104.045	13.199	989.493	742.612
105.060	13.378	988.214	742.390
106.074	13.127	987.850	740.923
107.089	13.026	986.897	739.690
108.103	13.230	985.673	739.621
109.118	13.110	985.111	738.598
110.133	13.052	984.302	737.667
111.147	13.028	983.650	737.007
112.162	13.249	982.613	737.149
113.176	13.184	981.952	736.300
114.191	13.259	981.228	736.023
115.206	13.176	980.471	735.023
116.220	13.273	979.317	734.523
117.235	13.249	978.338	733.615
118.249	13.251	977.379	732.841
119.264	13.216	976.709	732.119
120.279	13.291	975.839	731.737
121.293	13.169	975.198	730.652
122.308	13.395	974.170	730.815
123.322	13.230	972.813	729.004
124.337	13.148	972.152	728.083
125.352	13.126	971.455	727.400
126.366	12.996	970.701	726.196
127.381	13.173	969.018	725.653
128.395	13.239	968.051	725.155
129.410	13.179	967.255	724.228
130.424	13.232	966.688	723.972
131.439	13.192	965.825	723.089
132.454	13.393	964.592	722.980
133.468	13.188	964.199	721.726
134.483	13.315	963.308	721.548
135.497	13.108	962.429	719.923
136.512	13.312	961.285	719.891
137.527	13.192	960.786	718.934
138.541	13.154	960.175	718.248
139.556	13.185	959.602	717.889
140.570	13.340	958.710	717.831
141.585	13.352	957.800	717.139
142.600	13.396	956.799	716.514
143.614	13.434	956.187	716.158
144.629	13.432	955.449	715.537
145.643	13.438	954.333	714.662
146.658	13.430	953.552	713.980
147.673	13.340	952.390	712.659
148.687	13.308	951.693	711.934
149.702	13.334	950.947	711.427
150.716	13.283	950.393	710.731
151.731	13.414	949.355	710.453
152.746	13.383	949.024	710.007
153.760	13.328	948.191	709.087
154.775	13.418	947.997	709.265
155.789	13.569	946.695	708.875
156.804	13.552	946.378	708.500
157.819	13.622	945.317	707.945
158.833	13.553	945.518	707.739
159.848	13.636	944.039	706.919
160.862	13.582	943.059	705.893
161.877	13.510	942.345	704.992
162.892	13.361	941.872	703.941
163.906	13.487	940.421	703.328
164.921	13.455	939.737	702.622
165.935	13.462	938.814	701.896
166.950	13.528	937.856	701.400
167.964	13.640	936.964	701.145
168.979	13.531	936.446	700.230
169.994	13.596	935.210	699.520
171.008	13.594	934.929	699.240
172.023	13.495	934.479	698.423
173.037	13.689	933.294	698.294
174.052	13.596	932.861	697.517
175.067	13.628	932.170	697.075
176.081	13.630	931.542	696.551
177.096	13.551	930.858	695.646
178.110	13.604	930.586	695.605
179.125	13.629	930.047	695.245
180.140	13.647	929.137	694.575
181.154	13.593	929.024	694.207
182.169	13.752	928.428	694.366
183.183	13.722	927.767	693.681
184.198	13.743	927.059	693.182
185.213	13.885	925.814	692.781
186.227	13.791	925.278	691.926
187.242	13.828	924.948	691.772
188.256	13.888	924.050	691.288
189.271	13.858	923.158	690.434
190.286	13.637	922.997	689.335
191.300	13.682	921.654	688.458
192.315	13.599	921.136	687.666
193.329	13.630	920.919	687.570
194.344	13.707	920.414	687.452
195.359	13.816	919.614	687.247
196.373	13.936	918.470	686.825
197.388	13.868	918.357	686.400
198.402	13.969	917.691	686.257
199.417	14.137	917.150	686.487
200.432	14.141	916.260	685.777
201.446	13.934	916.405	684.972
202.461	14.002	915.885	684.803
203.475	14.102	915.054	684.531
204.490	13.927	914.650	683.448
205.504	13.972	913.708	682.870
206.519	14.003	913.052	682.444
207.534	13.854	912.629	681.457
208.548	14.006	911.651	681.292
209.563	14.128	911.379	681.526
210.577	14.037	910.426	680.380
211.592	14.130	909.818	680.248
212.607	14.063	909.268	679.503
213.621	14.103	908.395	678.951
214.636	14.207	907.160	678.392
215.650	14.108	907.017	677.824
216.665	14.337	905.798	677.785
217.680	14.494	905.375	678.047
218.694	14.263	904.689	676.533
219.709	14.299	903.988	676.097
220.723	14.354	903.346	675.781
221.738	14.313	902.728	675.089
222.753	14.381	902.182	674.898
223.767	14.377	901.343	674.195
224.782	14.435	900.690	673.882
225.796	14.409	900.411	673.508
226.811	14.420	899.885	673.098
227.826	14.451	898.942	672.458
228.840	14.327	898.202	671.347
229.855	14.464	897.417	671.251
230.869	14.477	896.959	670.902
231.884	14.359	896.563	670.071
232.899	14.447	895.613	669.657
233.913	14.383	894.598	668.580
234.928	14.365	894.242	668.182
235.942	14.303	893.535	667.348
236.957	14.545	892.966	667.835
237.972	14.285	892.742	666.566
238.986	14.330	891.931	666.081
240.001	14.280	891.687	665.642
241.015	14.418	890.730	665.417
242.030	14.571	889.953	665.387
243.045	14.534	889.818	665.081
244.059	14.542	888.582	664.132
245.074	14.568	888.336	663.990
246.088	14.534	887.659	663.290
247.103	14.700	886.669	663.151
248.117	14.559	886.394	662.328
249.132	14.644	886.270	662.513
250.147	14.752	885.407	662.238
251.161	14.773	884.376	661.494
252.176	14.863	883.940	661.464
253.190	14.970	882.933	661.076
254.205	14.887	882.537	660.391
255.220	14.839	881.921	659.683
256.234	14.976	881.290	659.693
257.249	14.933	880.961	659.217
258.263	14.995	879.615	658.398
259.278	15.006	878.862	657.817
260.293	14.954	878.701	657.437
261.307	15.032	878.072	657.212
262.322	15.018	877.574	656.726
263.336	14.969	877.148	656.158
264.351	14.941	875.931	655.079
265.366	15.123	875.202	655.187
266.380	15.127	874.778	654.830
267.395	15.162	874.093	654.397
268.409	15.091	873.274	653.446
269.424	15.133	872.720	653.139
270.439	15.077	872.069	652.374
271.453	15.031	871.628	651.810
272.468	15.084	870.633	651.215
273.482	15.203	870.102	651.222
274.497	14.933	869.808	649.893
275.512	15.112	869.225	650.094
276.526	15.190	868.380	649.708
277.541	15.221	868.168	649.615
278.555	15.297	867.470	649.326
279.570	15.377	866.717	649.015
280.585	15.340	865.711	648.063
281.599	15.396	864.942	647.647
282.614	15.372	864.319	647.028
283.628	15.327	863.727	646.354
284.643	15.377	863.691	646.463
285.657	15.441	862.664	645.884
286.672	15.381	862.080	645.158
287.687	15.424	861.300	644.682
288.701	15.300	861.340	644.181
289.716	15.384	860.799	644.042
290.730	15.430	859.700	643.338
291.745	15.447	859.177	642.954
292.760	15.565	858.582	642.903
293.774	15.492	858.296	642.355
294.789	15.665	856.793	641.834
295.803	15.449	856.458	640.699
296.818	15.542	856.059	640.700
297.833	15.585	855.152	640.130
298.847	15.407	855.027	639.301
299.862	15.506	854.054	638.892
300.876	15.602	853.555	638.826
301.891	15.624	852.892	638.358
302.906	15.540	852.680	637.824
303.920	15.632	851.998	637.607
304.935	15.799	851.521	637.826
305.949	15.762	850.757	637.056
306.964	15.589	850.414	636.090
307.979	15.747	849.795	636.167
308.993	15.799	849.058	635.757
310.008	15.759	848.588	635.196
311.022	15.479	848.606	634.097
312.037	15.786	847.390	634.290
313.052	15.830	846.420	633.675
314.066	15.742	846.223	633.138
315.081	15.777	845.665	632.796
316.095	15.761	845.149	632.293
317.110	15.777	844.585	631.878
318.125	15.756	844.044	631.337
319.139	15.793	843.634	631.112
320.154	15.774	842.833	630.386
321.168	15.911	842.455	630.562
322.183	15.958	841.784	630.179
323.197	15.818	841.654	629.504
324.212	15.813	841.125	629.034
325.227	15.916	840.164	628.643
326.241	15.849	839.729	628.013
327.256	16.041	839.010	628.137
328.270	15.803	838.593	626.881
329.285	15.859	838.210	626.748
330.300	15.795	837.615	626.008
331.314	15.854	837.347	625.973
332.329	15.910	836.514	625.504
333.343	15.966	836.251	625.459
334.358	15.959	835.586	624.878
335.373	15.993	835.505	624.889
336.387	16.106	834.952	624.838
337.402	16.080	834.639	624.455
338.416	16.183	834.165	624.425
339.431	16.145	833.818	623.968
340.446	16.133	833.252	623.447
341.460	16.131	833.520	623.584
342.475	16.124	832.831	622.986
343.489	16.252	832.278	622.993
344.504	16.226	832.093	622.701
345.519	16.311	831.451	622.479
346.533	16.230	830.661	621.534
347.548	16.185	830.328	621.066
348.562	16.259	829.998	621.036
349.577	16.140	829.260	619.992
350.592	16.259	828.282	619.642
351.606	16.183	827.744	618.905
352.621	16.229	827.313	618.697
353.635	16.238	826.568	618.119
354.650	16.346	825.774	617.864
355.665	16.435	825.105	617.635
356.679	16.293	824.934	616.932
357.694	16.447	823.972	616.722
358.708	16.354	823.310	615.834
359.723	16.246	823.065	615.203
360.738	16.566	821.737	615.317
361.752	16.538	821.325	614.853
362.767	16.494	820.809	614.254
363.781	16.483	820.581	613.988
364.796	16.465	820.271	613.636
365.810	16.594	819.975	613.828
366.825	16.554	819.752	613.464
367.840	16.663	818.644	612.973
368.854	16.730	818.832	613.303
369.869	16.700	818.140	612.620
370.883	16.568	817.773	611.817
371.898	16.657	817.492	611.874
372.913	16.683	816.913	611.478
373.927	16.763	816.154	611.147
374.942	16.853	815.916	611.237
375.956	16.899	815.308	610.894
376.971	16.927	814.962	610.682
377.986	16.834	814.822	610.188
379.000	16.902	814.265	609.963
380.015	17.013	813.513	609.742
381.029	16.942	812.990	609.044
382.044	16.988	812.589	608.852
383.059	16.949	812.202	608.369
384.073	16.861	811.648	607.587
385.088	16.871	810.794	606.926
386.102	16.895	810.266	606.564
387.117	16.909	809.617	606.076
388.132	16.961	809.157	605.862
389.146	17.067	808.309	605.553
390.161	17.138	808.292	605.740
391.175	16.992	807.849	604.834
392.190	16.902	807.454	604.163
393.205	17.114	806.594	604.222
394.219	17.112	806.355	603.982
395.234	16.963	806.083	603.194
396.248	16.957	805.379	602.593
397.263	16.961	805.386	602.560
398.278	17.098	805.112	602.786
399.292	16.916	804.449	601.591
400.307	16.947	804.069	601.366
401.321	16.932	803.761	601.028
402.336	17.128	802.785	600.939
403.350	17.070	802.412	600.399
404.365	17.078	802.253	600.257
405.380	17.256	801.563	600.318
406.394	17.174	801.462	599.896
407.409	17.192	801.154	599.679
408.423	17.315	800.619	599.659
409.438	17.299	800.310	599.316
410.453	17.340	799.751	598.990
411.467	17.362	799.395	598.747
412.482	17.426	798.630	598.347
413.496	17.398	798.311	597.955
414.511	17.554	797.897	598.142
415.526	17.446	797.597	597.485
416.540	17.483	797.350	597.378
417.555	17.353	797.194	596.752
418.569	17.425	796.399	596.357
419.584	17.484	795.724	596.005
420.599	17.661	795.121	596.117
421.613	113.861	1297.471	1486.489
422.628	98.025	1370.616	1486.567
