DTS Sentinel unit serial number:	SN413079Multiplexer serial number:	ORYXHardware model number:	OX4-SRSoftware version number:	ORYX F/W v4.00 Oryx Data Collector v3.7.2.0data status	okinstallation	princeton_trtdifferential loss correction	single-endedforward channel	channel 1reverse channel	N/Adate	2019/09/11time	19:44:11forward acquisition time	60.00reverse acquisition time	0.00gamma	496.2192k internal	0.2300k external	0.2300temperature offset calibration	1.0028default loss term (dB/km)	0.3790temperature slope calibration	1.0000multiplexer offset coefficient	1.0000multiplexer slope coefficient	1.0000fibre end	0.00T internal ref (°C)	39.62T ext. ref 1 (°C)	1.35T ext. ref 2 (°C)	32.49length (m)	temperature (°C)	Stokes	anti-Stokes-747.200	-104.779	0.046	0.011
-746.185	-200.000	0.005	0.294
-745.171	259.412	0.122	-0.215
-744.156	362.583	0.025	-0.052
-743.142	61.761	0.060	0.061
-742.127	-200.000	-0.052	0.391
-741.112	-25.469	0.312	0.188
-740.098	-53.054	-0.246	0.115
-739.083	-83.209	-0.289	-0.095
-738.069	-60.752	0.156	-0.067
-737.054	-161.215	0.217	-0.012
-736.039	447.048	-0.161	-0.361
-735.025	23.050	0.033	0.028
-734.010	-30.666	-0.215	0.124
-732.996	-23.581	-0.173	-0.106
-731.981	-200.000	0.004	-0.203
-730.966	10.569	0.109	0.085
-729.952	-200.000	0.068	0.334
-728.937	-73.559	-0.293	-0.109
-727.923	797.217	-0.040	0.112
-726.908	-200.000	0.038	0.187
-725.894	12.457	-0.035	-0.028
-724.879	-46.545	-0.315	0.157
-723.864	-42.426	-0.186	0.097
-722.850	-200.000	-0.087	-0.576
-721.835	800.000	0.066	-0.263
-720.821	-48.282	0.132	0.065
-719.806	67.570	-0.225	-0.234
-718.791	697.416	-0.151	-0.404
-717.777	-142.220	-0.476	-0.048
-716.762	-200.000	0.013	-0.093
-715.748	-103.955	-0.136	-0.032
-714.733	-200.000	0.012	-0.171
-713.718	135.133	-0.092	-0.122
-712.704	782.351	-0.092	0.257
-711.689	61.084	-0.317	0.320
-710.675	-49.001	-0.349	0.170
-709.660	-71.919	-0.382	-0.145
-708.645	-18.535	-0.041	0.026
-707.631	-60.816	0.259	-0.112
-706.616	537.510	0.109	-0.263
-705.602	20.905	-0.153	0.126
-704.587	315.616	0.140	-0.270
-703.572	-95.786	-0.534	-0.145
-702.558	-118.733	-0.229	0.041
-701.543	-129.003	0.286	-0.041
-700.529	358.063	-0.106	0.215
-699.514	116.864	0.068	-0.085
-698.499	732.159	-0.049	0.134
-697.485	64.255	-0.111	-0.114
-696.470	-200.000	-0.015	-0.490
-695.456	-9.899	-0.223	-0.151
-694.441	48.714	0.011	-0.011
-693.426	800.000	0.029	-0.085
-692.412	-196.667	-0.316	0.002
-691.397	-60.141	0.135	-0.059
-690.383	168.198	-0.083	-0.120
-689.368	-200.000	0.050	-0.243
-688.354	61.517	0.160	-0.162
-687.339	-200.000	-0.015	-0.085
-686.324	57.749	0.217	0.216
-685.310	-58.444	-0.202	-0.089
-684.295	417.066	0.137	-0.297
-683.281	155.660	-0.066	-0.092
-682.266	-200.000	-0.029	0.353
-681.251	74.175	-0.336	-0.359
-680.237	487.724	0.064	0.149
-679.222	-121.424	-0.176	0.030
-678.208	-121.364	-0.426	-0.072
-677.193	-163.167	-0.246	0.012
-676.178	730.872	-0.130	-0.353
-675.164	-200.000	-0.012	-0.156
-674.149	-200.000	-0.037	0.201
-673.135	-25.076	0.451	0.272
-672.120	-172.253	-0.198	0.006
-671.105	800.000	-0.077	-0.305
-670.091	155.359	-0.047	-0.065
-669.076	12.195	-0.209	-0.164
-668.062	397.470	0.052	0.111
-667.047	-92.455	0.223	0.064
-666.032	6.559	-0.136	0.103
-665.018	87.474	-0.269	0.303
-664.003	-124.330	-0.065	-0.010
-662.989	60.083	0.206	0.207
-661.974	-44.706	0.261	0.133
-660.959	-29.654	-0.094	-0.055
-659.945	258.291	-0.214	-0.374
-658.930	-200.000	0.016	0.154
-657.916	-152.311	-0.051	0.004
-656.901	-200.000	-0.028	0.219
-655.886	800.000	0.049	-0.195
-654.872	-125.649	-0.288	0.044
-653.857	-74.857	-0.336	0.123
-652.843	67.345	0.177	-0.184
-651.828	-200.000	0.013	0.062
-650.814	-75.481	-0.179	0.065
-649.799	-103.870	0.168	-0.040
-648.784	-80.192	0.148	0.050
-647.770	-64.163	-0.097	0.040
-646.755	-5.624	-0.119	0.083
-645.741	-45.328	-0.171	0.086
-644.726	223.276	0.103	-0.169
-643.711	-142.000	0.349	-0.035
-642.697	208.472	-0.100	0.159
-641.682	-128.203	0.308	0.045
-640.668	-92.039	-0.109	-0.031
-639.653	800.000	-0.059	0.230
-638.638	-52.675	0.244	0.115
-637.624	-151.019	0.158	0.012
-636.609	93.836	0.043	-0.050
-635.595	-53.222	0.217	0.101
-634.580	-200.000	0.022	0.259
-633.565	-200.000	0.029	0.141
-632.551	-200.000	0.025	-0.246
-631.536	800.000	0.076	-0.234
-630.522	-74.869	-0.179	-0.065
-629.507	-95.831	-0.102	0.028
-628.492	800.000	0.012	0.045
-627.478	-200.000	-0.023	0.162
-626.463	-9.616	-0.190	-0.129
-625.449	-135.561	0.196	-0.024
-624.434	-21.985	-0.069	0.043
-623.419	-117.353	-0.167	0.031
-622.405	-200.000	-0.015	-0.131
-621.390	-100.211	-0.199	0.050
-620.376	61.464	-0.210	0.212
-619.361	3.219	-0.205	0.151
-618.346	-76.173	0.276	-0.099
-617.332	7.933	-0.151	-0.115
-616.317	35.624	-0.114	0.102
-615.303	-82.662	0.323	-0.106
-614.288	199.290	-0.223	0.346
-613.273	-16.686	-0.266	0.171
-612.259	-200.000	0.015	-0.325
-611.244	-63.590	-0.377	0.157
-610.230	-29.509	0.290	-0.168
-609.215	383.319	0.132	-0.276
-608.201	-108.559	-0.342	-0.075
-607.186	83.169	0.063	-0.070
-606.171	81.127	-0.128	0.140
-605.157	-200.000	-0.065	0.473
-604.142	113.896	-0.095	0.117
-603.128	-124.483	-0.153	0.024
-602.113	-40.697	-0.129	0.068
-601.098	-13.171	-0.399	-0.263
-600.084	505.585	0.103	-0.242
-599.069	800.000	0.138	-0.475
-598.055	-139.252	0.352	0.038
-597.040	230.002	0.244	-0.404
-596.025	-195.673	-0.175	-0.001
-595.011	112.956	0.117	-0.144
-593.996	800.000	0.077	-0.277
-592.982	23.621	-0.233	-0.194
-591.967	-59.184	-0.194	-0.085
-590.952	-94.464	-0.282	-0.078
-589.938	-144.312	0.208	-0.020
-588.923	-200.000	-0.070	-0.466
-587.909	-147.092	-0.191	-0.017
-586.894	-167.348	0.071	-0.003
-585.879	341.591	0.210	-0.416
-584.865	138.348	0.099	-0.132
-583.850	-125.435	-0.064	-0.010
-582.836	-23.737	0.088	0.054
-581.821	192.642	-0.185	0.283
-580.806	-200.000	-0.054	-0.451
-579.792	-200.000	-0.028	0.327
-578.777	195.412	-0.153	0.236
-577.763	-148.404	-0.270	-0.022
-576.748	64.010	0.234	0.239
-575.733	-34.786	0.234	0.129
-574.719	441.839	-0.184	-0.408
-573.704	399.954	0.111	0.235
-572.690	-169.438	0.294	-0.011
-571.675	232.342	0.020	0.033
-570.661	156.333	-0.183	-0.255
-569.646	-57.572	-0.105	0.047
-568.631	800.000	0.003	-0.009
-567.617	24.397	0.313	-0.262
-566.602	163.248	-0.142	-0.202
-565.588	800.000	-0.047	0.161
-564.573	194.997	0.198	0.304
-563.558	176.648	0.188	0.276
-562.544	800.000	-0.089	-0.304
-561.529	-200.000	-0.033	-0.218
-560.515	-126.655	-0.136	-0.020
-559.500	51.316	0.119	0.115
-558.485	392.756	0.125	0.263
-557.471	-200.000	0.005	-0.083
-556.456	-63.459	-0.522	0.217
-555.442	-99.088	0.162	0.041
-554.427	-200.000	-0.011	0.054
-553.412	-200.000	-0.008	-0.288
-552.398	-40.363	-0.149	-0.079
-551.383	117.741	-0.343	-0.428
-550.369	-66.532	-0.063	-0.025
-549.354	-200.000	0.058	0.427
-548.339	-200.000	0.001	0.275
-547.325	1.113	-0.420	0.305
-546.310	-200.000	0.031	-0.321
-545.296	46.931	0.087	-0.082
-544.281	-114.217	-0.383	-0.075
-543.266	-100.919	0.388	0.097
-542.252	-200.000	0.035	-0.375
-541.237	148.000	-0.111	0.151
-540.223	-200.000	0.021	0.133
-539.208	176.989	0.065	0.096
-538.193	192.590	-0.078	-0.119
-537.179	-74.106	0.152	-0.056
-536.164	-166.580	0.269	-0.011
-535.150	-48.781	0.179	-0.087
-534.135	800.000	-0.035	-0.148
-533.121	-173.948	0.046	0.001
-532.106	-77.185	-0.315	0.111
-531.091	-61.213	-0.273	-0.116
-530.077	-126.774	0.152	0.023
-529.062	774.339	-0.065	-0.178
-528.048	759.670	0.015	0.042
-527.033	-54.300	-0.172	0.079
-526.018	-72.467	-0.456	-0.170
-525.004	177.689	0.165	-0.244
-523.989	378.741	-0.132	0.274
-522.975	-59.121	0.085	0.037
-521.960	-112.377	-0.332	0.067
-520.945	-200.000	0.004	0.135
-519.931	203.376	0.129	0.202
-518.916	-166.427	-0.226	-0.010
-517.902	49.801	-0.039	-0.037
-516.887	43.660	-0.141	0.131
-515.872	-95.886	-0.081	0.022
-514.858	-119.052	-0.156	-0.028
-513.843	2.433	0.155	-0.113
-512.829	-142.743	0.219	0.022
-511.814	-27.610	0.467	0.274
-510.799	800.000	0.021	0.083
-509.785	-11.979	-0.086	-0.057
-508.770	263.161	0.049	0.085
-507.756	52.913	0.231	0.223
-506.741	800.000	0.048	-0.150
-505.726	77.718	0.146	0.157
-504.712	-97.909	0.195	-0.051
-503.697	-180.356	-0.271	-0.006
-502.683	364.330	-0.100	-0.203
-501.668	33.469	-0.255	0.224
-500.653	-95.022	0.106	0.029
-499.639	800.000	0.125	-0.372
-498.624	498.300	0.075	0.174
-497.610	-62.110	0.252	-0.106
-496.595	52.968	0.097	0.094
-495.581	800.000	-0.174	-0.519
-494.566	99.651	0.196	-0.230
-493.551	1.279	0.241	0.175
-492.537	3.495	0.160	0.118
-491.522	-114.957	0.176	-0.034
-490.508	-84.994	-0.311	0.099
-489.493	399.950	0.030	-0.063
-488.478	64.952	0.249	-0.254
-487.464	-114.945	0.326	0.063
-486.449	-96.145	-0.355	-0.095
-485.435	-200.000	0.022	0.116
-484.420	215.516	0.081	0.131
-483.405	-45.519	-0.050	-0.025
-482.391	-88.858	-0.121	-0.036
-481.376	-200.000	0.057	0.445
-480.362	76.781	-0.241	-0.258
-479.347	183.967	-0.124	0.185
-478.332	97.519	-0.066	-0.076
-477.318	800.000	-0.092	-0.373
-476.303	-120.062	-0.173	-0.030
-475.289	-156.357	-0.196	0.012
-474.274	-84.884	-0.020	-0.006
-473.259	-200.000	0.011	0.184
-472.245	100.503	-0.069	0.080
-471.230	64.208	-0.135	0.137
-470.216	5.024	0.168	-0.125
-469.201	-29.906	-0.126	0.073
-468.186	98.455	-0.081	0.095
-467.172	-149.590	0.529	0.042
-466.157	129.561	-0.182	-0.234
-465.143	-92.580	-0.133	0.038
-464.128	-82.097	-0.131	-0.043
-463.113	800.000	0.071	-0.235
-462.099	31.673	-0.017	0.015
-461.084	-200.000	-0.002	-0.446
-460.070	56.752	-0.305	0.299
-459.055	74.581	0.276	0.293
-458.040	-51.886	-0.148	-0.070
-457.026	260.809	0.235	-0.410
-456.011	-14.528	-0.159	-0.103
-454.997	-23.693	0.184	-0.111
-453.982	-17.061	0.200	0.127
-452.968	450.767	-0.084	0.187
-451.953	376.629	-0.120	0.247
-450.938	-99.195	-0.141	0.036
-449.924	668.926	-0.107	0.279
-448.909	585.714	0.177	-0.440
-447.895	-125.236	0.182	0.028
-446.880	-200.000	-0.017	0.147
-445.865	6.413	0.260	0.194
-444.851	800.000	0.134	-0.491
-443.836	-107.317	0.073	-0.016
-442.822	-200.000	-0.038	-0.255
-441.807	-200.000	-0.008	0.203
-440.792	-200.000	0.020	0.500
-439.778	-36.829	-0.319	-0.173
-438.763	-119.408	-0.145	0.025
-437.749	800.000	0.068	0.271
-436.734	-200.000	-0.048	0.243
-435.719	-80.043	-0.188	-0.064
-434.705	-200.000	0.039	0.196
-433.690	800.000	0.028	0.096
-432.676	-200.000	0.032	0.147
-431.661	425.963	-0.107	-0.231
-430.646	43.133	-0.075	0.069
-429.632	509.648	-0.147	0.344
-428.617	-159.574	-0.306	0.017
-427.603	-175.437	0.153	0.004
-426.588	-31.237	0.134	0.076
-425.573	134.804	0.160	0.210
-424.559	-91.205	0.079	0.023
-423.544	-200.000	-0.009	-0.217
-422.530	-42.209	-0.195	0.100
-421.515	-9.323	0.067	-0.045
-420.500	-200.000	0.020	-0.123
-419.486	-86.411	0.100	0.031
-418.471	645.940	-0.056	0.143
-417.457	-54.077	0.420	-0.192
-416.442	-132.312	-0.162	-0.021
-415.428	-200.000	0.008	0.127
-414.413	239.495	-0.160	-0.269
-413.398	205.522	0.077	-0.121
-412.384	-61.574	-0.123	0.052
-411.369	61.504	-0.087	-0.087
-410.355	-99.557	-0.344	-0.087
-409.340	6.834	0.189	0.142
-408.325	104.898	-0.061	-0.072
-407.311	-200.000	0.028	0.416
-406.296	800.000	0.105	0.437
-405.282	210.043	0.203	-0.320
-404.267	16.551	-0.139	-0.110
-403.252	147.773	-0.063	-0.086
-402.238	800.000	0.042	-0.123
-401.223	800.000	-0.122	-0.352
-400.209	86.095	0.127	-0.141
-399.194	61.477	0.216	-0.217
-398.179	-200.000	-0.019	0.204
-397.165	606.787	0.175	-0.438
-396.150	21.638	-0.213	-0.174
-395.136	83.783	0.126	-0.139
-394.121	-97.459	-0.293	-0.077
-393.106	-30.862	0.190	0.108
-392.092	-72.336	0.326	0.121
-391.077	261.001	0.115	0.201
-390.063	437.244	0.084	-0.185
-389.048	-200.000	-0.035	-0.202
-388.033	251.554	0.044	-0.075
-387.019	83.749	0.079	0.087
-386.004	-127.479	-0.162	0.024
-384.990	147.587	-0.175	-0.236
-383.975	-47.362	-0.493	0.241
-382.960	-99.114	0.330	0.084
-381.946	-127.392	0.137	0.020
-380.931	-200.000	-0.045	-0.232
-379.917	-123.248	0.284	-0.046
-378.902	-55.036	-0.004	-0.002
-377.888	-112.085	0.314	-0.064
-376.873	530.862	-0.001	-0.002
-375.858	38.699	-0.212	0.190
-374.844	50.121	0.075	-0.071
-373.829	427.679	-0.040	-0.086
-372.815	649.488	0.032	-0.081
-371.800	-200.000	0.006	0.041
-370.785	-87.117	-0.160	0.049
-369.771	-128.391	-0.386	-0.055
-368.756	-59.386	0.262	-0.113
-367.742	800.000	-0.109	-0.323
-366.727	-123.726	-0.185	-0.029
-365.712	162.552	0.134	-0.188
-364.698	52.860	-0.058	-0.055
-363.683	800.000	-0.046	0.160
-362.669	-120.653	0.223	-0.038
-361.654	227.352	0.225	-0.368
-360.639	81.963	-0.088	0.096
-359.625	54.702	-0.205	0.199
-358.610	8.843	-0.273	0.207
-357.596	171.092	0.181	0.260
-356.581	-5.648	0.106	-0.073
-355.566	93.361	-0.137	-0.156
-354.552	-149.985	-0.096	-0.008
-353.537	95.197	-0.094	-0.108
-352.523	800.000	0.044	0.152
-351.508	-48.017	0.089	0.043
-350.493	-140.761	0.090	-0.009
-349.479	800.000	-0.120	0.334
-348.464	116.125	-0.221	0.272
-347.450	-170.643	-0.109	0.004
-346.435	-168.134	0.275	0.011
-345.420	3.792	0.137	0.101
-344.406	57.333	-0.319	-0.313
-343.391	53.811	-0.262	-0.253
-342.377	-200.000	-0.038	-0.399
-341.362	291.906	0.105	-0.192
-340.348	294.300	-0.068	0.124
-339.333	201.703	-0.133	0.206
-338.318	-129.292	-0.253	-0.035
-337.304	-124.591	0.283	-0.044
-336.289	-4.985	-0.145	0.100
-335.275	800.000	0.151	0.538
-334.260	553.444	-0.128	0.310
-333.245	-75.757	0.336	-0.120
-332.231	-109.976	-0.125	0.026
-331.216	-78.473	-0.096	0.033
-330.202	42.088	0.036	-0.033
-329.187	64.265	0.161	0.162
-328.172	-200.000	-0.023	-0.172
-327.158	109.656	-0.346	0.416
-326.143	-121.203	0.310	-0.052
-325.129	-4.848	0.239	0.165
-324.114	196.434	0.159	0.243
-323.099	40.242	-0.068	0.061
-322.085	11.952	-0.261	0.201
-321.070	10.922	0.137	0.105
-320.056	800.000	-0.032	-0.102
-319.041	113.158	-0.050	0.061
-318.026	-108.242	0.212	0.046
-317.012	38.206	0.334	0.298
-315.997	-130.217	0.097	0.013
-314.983	565.635	-0.087	0.211
-313.968	-125.661	-0.247	0.038
-312.953	-200.000	0.007	0.329
-311.939	114.446	-0.094	-0.115
-310.924	199.388	0.145	-0.224
-309.910	12.913	-0.173	0.134
-308.895	87.943	-0.027	0.030
-307.880	-200.000	0.019	-0.366
-306.866	107.248	-0.163	-0.195
-305.851	-120.369	-0.203	0.035
-304.837	-122.969	-0.111	-0.018
-303.822	-200.000	0.069	-0.312
-302.807	31.647	-0.307	0.265
-301.793	33.853	0.181	-0.158
-300.778	-200.000	-0.003	0.149
-299.764	255.643	0.213	-0.367
-298.749	-170.721	0.328	0.011
-297.735	234.496	-0.041	0.069
-296.720	10.341	-0.284	-0.216
-295.705	-200.000	-0.042	-0.291
-294.691	-6.240	-0.080	0.054
-293.676	133.942	0.187	-0.243
-292.662	-51.717	-0.392	-0.183
-291.647	-87.494	-0.347	-0.105
-290.632	66.771	0.292	0.298
-289.618	199.606	0.104	0.159
-288.603	800.000	-0.025	-0.093
-287.589	800.000	0.081	-0.269
-286.574	-17.733	-0.246	-0.155
-285.559	46.845	-0.242	0.226
-284.545	57.589	-0.068	0.067
-283.530	126.034	0.277	0.350
-282.516	-65.847	-0.110	-0.044
-281.501	-61.123	-0.173	0.073
-280.486	-200.000	-0.034	0.279
-279.472	149.543	0.057	0.077
-278.457	36.088	0.090	-0.079
-277.443	341.883	-0.078	-0.154
-276.428	-35.081	0.199	-0.108
-275.413	95.478	0.158	-0.180
-274.399	103.638	-0.146	-0.172
-273.384	36.369	-0.141	-0.125
-272.370	-114.829	0.379	0.072
-271.355	800.000	0.108	-0.339
-270.340	-38.567	-0.066	0.035
-269.326	577.762	0.147	0.361
-268.311	174.529	-0.046	-0.066
-267.297	230.005	0.102	0.166
-266.282	214.807	0.088	0.139
-265.267	41.680	0.120	0.108
-264.253	800.000	0.081	0.225
-263.238	-81.618	0.244	-0.080
-262.224	800.000	0.061	-0.174
-261.209	-56.154	-0.156	0.069
-260.195	-85.613	-0.263	-0.082
-259.180	-122.051	0.153	-0.025
-258.165	800.000	-0.037	-0.144
-257.151	193.380	0.083	-0.126
-256.136	477.141	-0.149	0.337
-255.122	800.000	-0.073	0.289
-254.107	-16.781	-0.200	-0.126
-253.092	-105.723	-0.193	0.044
-252.078	-55.647	0.053	-0.024
-251.063	-115.647	0.186	0.035
-250.049	237.511	-0.109	0.180
-249.034	-37.195	-0.166	0.089
-248.019	592.477	0.057	-0.140
-247.005	-119.023	-0.148	-0.026
-245.990	-200.000	0.019	-0.095
-244.976	74.402	0.137	-0.144
-243.961	194.434	-0.134	-0.203
-242.946	-49.173	0.347	-0.166
-241.932	-106.375	-0.161	-0.036
-240.917	27.379	-0.305	0.256
-239.903	-200.000	-0.004	0.191
-238.888	24.814	0.034	-0.028
-237.873	298.084	0.149	0.274
-236.859	-10.106	-0.139	-0.092
-235.844	106.300	0.202	0.239
-234.830	123.798	-0.138	0.173
-233.815	37.696	0.195	-0.173
-232.800	-200.000	0.013	0.232
-231.786	800.000	0.039	-0.132
-230.771	455.743	-0.084	0.187
-229.757	-100.374	-0.108	0.027
-228.742	158.388	-0.083	-0.116
-227.727	224.828	0.147	0.237
-226.713	58.780	0.181	-0.178
-225.698	-32.956	-0.221	0.123
-224.684	414.896	-0.067	0.144
-223.669	59.575	0.349	0.344
-222.655	-119.085	0.214	0.037
-221.640	119.589	0.135	-0.167
-220.625	57.026	0.073	-0.071
-219.611	-134.152	0.245	0.030
-218.596	313.576	-0.054	0.102
-217.582	-134.085	0.549	0.068
-216.567	106.585	-0.065	-0.077
-215.552	-182.746	0.177	-0.003
-214.538	376.172	0.125	0.255
-213.523	-198.503	0.145	-0.001
-212.509	6.367	-0.288	0.214
-211.494	75.497	-0.213	0.224
-210.479	-134.420	0.076	0.009
-209.465	-73.040	0.186	-0.068
-208.450	-200.000	0.017	0.159
-207.436	-65.319	0.179	0.072
-206.421	-200.000	-0.028	-0.272
-205.406	499.201	0.214	-0.493
-204.392	-31.821	-0.250	0.140
-203.377	203.310	0.158	0.244
-202.363	-164.800	-0.144	-0.006
-201.348	800.000	-0.036	0.106
-200.333	-71.874	-0.117	-0.044
-199.319	99.540	0.256	-0.296
-198.304	300.092	0.080	-0.148
-197.290	800.000	0.090	-0.277
-196.275	-200.000	-0.035	0.203
-195.260	-47.101	0.143	-0.070
-194.246	-40.296	-0.057	0.030
-193.231	130.019	-0.194	-0.247
-192.217	-62.597	-0.068	0.028
-191.202	-200.000	0.009	-0.070
-190.187	-200.000	-0.037	0.257
-189.173	-200.000	0.004	0.111
-188.158	-118.641	0.196	-0.035
-187.144	12.982	-0.046	-0.035
-186.129	117.338	0.037	-0.045
-185.114	-126.129	0.254	0.038
-184.100	21.698	-0.081	-0.066
-183.085	-42.963	0.173	-0.088
-182.071	-131.434	0.156	0.021
-181.056	-112.857	-0.119	0.023
-180.042	-145.629	0.187	0.017
-179.027	-139.471	-0.226	-0.024
-178.012	-200.000	-0.031	-0.170
-176.998	123.861	-0.102	-0.128
-175.983	34.462	0.100	0.087
-174.969	-121.576	0.166	-0.028
-173.954	-160.613	0.180	-0.010
-172.939	-200.000	0.005	-0.402
-171.925	-200.000	0.012	-0.138
-170.910	-200.000	-0.008	-0.131
-169.896	213.462	-0.098	0.155
-168.881	-42.056	-0.276	0.141
-167.866	800.000	-0.091	0.309
-166.852	78.154	-0.301	0.321
-165.837	334.268	0.128	0.248
-164.823	-96.732	0.163	-0.043
-163.808	-200.000	0.006	-0.125
-162.793	-154.535	-0.139	-0.009
-161.779	-167.282	-0.231	-0.009
-160.764	800.000	0.083	-0.242
-159.750	-200.000	0.006	0.184
-158.735	-200.000	0.026	0.167
-157.720	-148.630	0.200	-0.016
-156.706	378.559	0.127	0.260
-155.691	-200.000	-0.004	-0.053
-154.677	-127.984	0.374	-0.053
-153.662	-200.000	-0.009	-0.169
-152.647	-102.893	-0.047	-0.011
-151.633	-174.481	0.209	0.006
-150.618	339.822	-0.046	-0.089
-149.604	-200.000	-0.020	0.192
-148.589	-41.050	0.139	0.072
-147.574	-40.730	-0.172	0.089
-146.560	-200.000	-0.036	-0.273
-145.545	174.737	-0.079	-0.114
-144.531	564.352	0.028	-0.067
-143.516	-78.248	-0.184	0.063
-142.502	-108.213	-0.369	-0.079
-141.487	69.088	0.095	-0.097
-140.472	-26.170	0.096	-0.056
-139.458	183.072	0.201	0.295
-138.443	573.959	-0.081	-0.197
-137.429	-82.997	0.147	-0.047
-136.414	-174.547	0.326	-0.009
-135.399	514.565	-0.179	0.416
-134.385	-87.588	-0.113	0.034
-133.370	800.000	0.012	0.035
-132.356	-100.796	0.269	-0.066
-131.341	800.000	-0.058	0.231
-130.326	-184.614	-0.281	0.005
-129.312	240.904	-0.039	-0.065
-128.297	91.846	0.151	-0.169
-127.283	131.109	-0.081	0.104
-126.268	-200.000	-0.020	0.108
-125.253	-13.297	0.135	-0.087
-124.239	-200.000	0.070	-0.357
-123.224	227.482	-0.066	0.107
-122.210	245.878	0.097	0.163
-121.195	-159.957	-0.203	0.011
-120.180	-128.271	-0.139	0.020
-119.166	391.583	0.011	-0.023
-118.151	30.723	0.183	0.156
-117.137	-151.388	-0.153	-0.011
-116.122	800.000	0.023	0.102
-115.107	800.000	0.032	0.131
-114.093	-166.133	0.103	0.004
-113.078	-134.676	-0.132	-0.016
-112.064	213.331	0.082	0.128
-111.049	-200.000	0.004	-0.067
-110.034	122.151	0.434	-0.540
-109.020	-192.633	-0.167	0.002
-108.005	189.242	-0.185	0.276
-106.991	149.565	-0.149	0.201
-105.976	-200.000	0.017	0.406
-104.962	280.519	0.062	0.110
-103.947	-124.123	0.307	-0.048
-102.932	-40.208	0.176	0.091
-101.918	800.000	0.078	0.299
-100.903	-100.119	-0.114	-0.028
-99.889	67.686	0.285	-0.290
-98.874	54.701	0.226	0.217
-97.859	113.512	0.312	0.376
-96.845	-20.062	0.217	-0.133
-95.830	-29.479	-0.170	-0.096
-94.816	-3.069	0.035	0.025
-93.801	800.000	-0.027	0.081
-92.786	-38.200	-0.105	-0.055
-91.772	-44.440	-0.161	0.080
-90.757	8.042	0.333	-0.249
-89.743	-40.218	0.198	0.102
-88.728	800.000	-0.070	0.292
-87.713	645.458	0.128	-0.324
-86.699	-58.633	0.125	0.054
-85.684	-28.430	0.144	-0.083
-84.670	-125.604	-0.103	0.015
-83.655	-200.000	-0.040	-0.411
-82.640	120.130	-0.083	-0.102
-81.626	127.996	-0.280	-0.355
-80.611	-16.812	0.050	0.031
-79.597	-200.000	0.056	-0.334
-78.582	397.740	-0.134	0.278
-77.567	489.267	0.160	0.363
-76.553	-142.833	-0.033	0.003
-75.538	-200.000	-0.008	-0.087
-74.524	130.364	-0.161	-0.205
-73.509	-78.208	-0.262	0.089
-72.494	-2.411	-0.275	-0.191
-71.480	-200.000	-0.019	-0.143
-70.465	-97.202	-0.338	-0.088
-69.451	-71.442	0.129	0.048
-68.436	-17.399	-0.111	-0.069
-67.422	-68.410	-0.133	-0.051
-66.407	-43.322	0.255	0.128
-65.392	-152.337	-0.101	-0.007
-64.378	-200.000	-0.012	-0.075
-63.363	28.142	-0.145	0.122
-62.349	-72.079	0.122	0.045
-61.334	42.047	-0.787	-0.709
-60.319	54.138	0.503	0.480
-59.305	800.000	-0.262	-0.902
-58.290	422.619	0.454	0.968
-57.276	800.000	0.525	1.775
-56.261	-200.000	81.674	498.280
-55.246	517.612	1334.047	3099.069
-54.232	151.335	2550.210	3447.155
-53.217	114.140	2204.434	2663.217
-52.203	50.662	1668.616	1568.077
-51.188	43.095	1403.588	1271.479
-50.173	39.764	1359.231	1210.855
-49.159	57.659	1399.169	1358.020
-48.144	63.509	1418.329	1412.913
-47.130	43.478	1377.806	1250.295
-46.115	39.797	1360.881	1212.334
-45.100	39.577	1356.005	1206.595
-44.086	39.426	1353.833	1203.691
-43.071	39.434	1351.446	1201.567
-42.057	39.349	1349.606	1199.366
-41.042	39.508	1347.634	1198.537
-40.027	39.532	1346.286	1197.432
-39.013	39.492	1343.950	1195.068
-37.998	39.563	1342.334	1194.011
-36.984	39.663	1340.059	1192.546
-35.969	39.690	1338.575	1191.341
-34.954	39.594	1336.856	1189.185
-33.940	39.676	1335.522	1188.444
-32.925	39.616	1335.001	1187.576
-31.911	39.709	1333.284	1186.558
-30.896	39.830	1331.232	1185.412
-29.881	39.680	1330.089	1183.449
-28.867	39.749	1328.728	1182.605
-27.852	39.673	1326.803	1180.386
-26.838	39.708	1325.641	1179.519
-25.823	39.633	1324.498	1178.004
-24.809	39.693	1322.897	1176.892
-23.794	39.822	1321.075	1175.992
-22.779	39.775	1319.666	1174.413
-21.765	39.697	1318.305	1172.691
-20.750	39.730	1317.143	1171.805
-19.736	39.590	1315.619	1169.576
-18.721	39.539	1314.714	1168.420
-17.706	39.610	1313.197	1167.449
-16.692	39.452	1312.587	1165.921
-15.677	39.614	1311.109	1165.522
-14.663	39.529	1310.320	1164.272
-13.648	39.577	1309.043	1163.376
-12.633	39.574	1308.109	1162.477
-11.619	39.564	1307.231	1161.597
-10.604	39.525	1306.574	1160.736
-9.590	39.553	1305.459	1159.862
-8.575	39.536	1304.714	1159.053
-7.560	39.712	1303.250	1158.743
-6.546	39.405	1303.252	1156.896
-5.531	39.728	1301.632	1157.304
-4.517	39.497	1301.064	1155.401
-3.502	39.588	1300.056	1154.990
-2.487	39.488	1299.096	1153.507
-1.473	39.556	1294.454	1149.737
-0.458	37.694	1278.900	1125.129
0.556	32.915	1258.324	1078.395
1.571	28.292	1261.503	1054.476
2.586	26.977	1276.204	1059.004
3.600	25.803	1265.483	1043.220
4.615	18.555	1189.235	940.670
5.629	7.032	1106.123	815.738
6.644	1.721	1082.974	771.733
7.659	1.256	1080.004	767.198
8.673	1.197	1078.425	765.711
9.688	1.216	1076.911	764.663
10.702	1.561	1076.194	765.824
11.717	8.455	1086.644	808.149
12.731	18.823	1101.829	872.280
13.746	23.516	1106.953	900.133
14.761	23.988	1107.749	903.101
15.775	24.034	1107.055	902.684
16.790	23.792	1106.315	900.779
17.804	23.732	1105.408	899.653
18.819	23.770	1105.568	899.897
19.834	23.945	1104.698	899.994
20.848	23.954	1103.991	899.383
21.863	23.962	1103.400	898.866
22.877	23.843	1103.015	897.869
23.892	23.676	1102.555	896.572
24.907	23.863	1101.672	896.719
25.921	23.927	1100.394	895.923
26.936	23.833	1099.074	894.293
27.950	23.685	1097.766	892.410
28.965	23.587	1095.910	890.330
29.980	23.826	1094.220	890.075
30.994	23.857	1093.707	889.735
32.009	23.944	1092.143	888.820
33.023	23.670	1090.992	886.435
34.038	23.741	1090.240	886.099
35.053	23.772	1089.563	885.623
36.067	23.908	1088.672	885.501
37.082	23.956	1087.754	884.915
38.096	24.127	1087.229	885.257
39.111	24.045	1086.973	884.563
40.126	23.915	1085.530	882.666
41.140	23.670	1082.998	879.314
42.155	23.506	1081.760	877.422
43.169	23.559	1080.890	876.898
44.184	23.510	1080.222	876.038
45.199	23.296	1079.675	874.463
46.213	23.523	1078.363	874.441
47.228	23.599	1077.678	874.184
48.242	23.754	1076.588	873.981
49.257	23.755	1076.221	873.612
50.271	23.930	1075.197	873.562
51.286	24.006	1074.184	873.035
52.301	23.923	1073.452	871.955
53.315	23.681	1073.125	870.428
54.330	23.856	1071.350	869.769
55.344	23.850	1070.659	869.099
56.359	23.805	1069.953	868.230
57.374	23.725	1068.628	866.690
58.388	23.674	1067.646	865.566
59.403	23.486	1067.229	864.233
60.417	23.362	1066.043	862.597
61.432	23.426	1066.157	862.920
62.447	23.582	1064.682	862.409
63.461	23.633	1064.331	862.297
64.476	23.600	1063.503	861.392
65.490	23.474	1061.947	859.443
66.505	23.622	1061.321	859.575
67.520	23.678	1060.550	859.149
68.534	23.387	1059.804	857.059
69.549	23.107	1058.599	854.658
70.563	23.088	1057.734	853.793
71.578	23.070	1056.867	852.930
72.593	23.003	1055.897	851.747
73.607	22.931	1055.791	851.239
74.622	23.313	1055.061	852.416
75.636	23.350	1054.151	851.781
76.651	23.277	1053.339	850.703
77.666	23.207	1052.576	849.673
78.680	23.200	1052.202	849.263
79.695	23.332	1051.349	849.132
80.709	23.443	1050.761	849.111
81.724	23.535	1049.763	848.672
82.739	23.551	1049.004	848.058
83.753	23.862	1048.683	849.213
84.768	24.148	1047.701	849.705
85.782	24.131	1047.454	849.349
86.797	24.058	1046.201	847.912
87.812	23.952	1044.960	846.326
88.826	23.987	1044.299	845.880
89.841	24.096	1042.960	845.239
90.855	24.104	1041.972	844.403
91.870	24.128	1040.924	843.593
92.884	23.973	1040.116	842.128
93.899	23.930	1039.106	841.031
94.914	24.021	1038.374	840.797
95.928	23.873	1036.946	838.869
96.943	23.678	1035.646	836.821
97.957	23.506	1034.625	835.114
98.972	23.244	1033.601	832.982
99.987	23.551	1032.896	833.782
101.001	23.746	1032.290	834.134
102.016	23.850	1031.107	833.593
103.030	23.721	1030.183	832.168
104.045	23.566	1029.359	830.704
105.060	23.485	1028.070	829.208
106.074	23.566	1027.560	829.105
107.089	23.868	1027.165	830.124
108.103	23.747	1026.212	828.714
109.118	23.623	1024.706	826.849
110.133	23.494	1023.524	825.222
111.147	23.371	1022.752	823.953
112.162	23.361	1021.561	822.873
113.176	23.521	1020.881	822.996
114.191	23.402	1020.216	821.833
115.206	23.170	1018.723	819.483
116.220	23.088	1018.298	818.691
117.235	23.356	1016.850	818.693
118.249	23.205	1016.377	817.541
119.264	23.098	1015.501	816.273
120.279	23.221	1014.876	816.264
121.293	23.324	1013.843	815.837
122.308	23.354	1013.250	815.426
123.322	23.300	1011.839	813.967
124.337	23.083	1010.814	812.075
125.352	22.607	1009.114	808.454
126.366	22.558	1008.301	807.508
127.381	23.238	1008.252	810.512
128.395	23.614	1007.984	811.945
129.410	23.876	1006.824	812.136
130.424	23.755	1005.890	810.759
131.439	23.683	1005.105	809.726
132.454	23.644	1004.226	808.769
133.468	23.631	1003.328	807.912
134.483	23.942	1002.500	808.592
135.497	24.015	1001.772	808.265
136.512	24.064	1000.955	807.756
137.527	24.085	1000.041	807.043
138.541	24.154	998.788	806.269
139.556	24.122	998.140	805.533
140.570	24.169	997.451	805.115
141.585	24.078	996.813	804.121
142.600	24.194	995.184	803.255
143.614	24.332	994.716	803.429
144.629	24.378	993.810	802.832
145.643	24.248	992.925	801.463
146.658	24.106	991.233	799.391
147.673	23.906	990.442	797.784
148.687	23.828	989.306	796.449
149.702	23.889	988.352	795.883
150.716	23.794	987.418	794.635
151.731	23.840	986.704	794.196
152.746	24.048	986.142	794.604
153.760	24.176	985.466	794.557
154.775	24.236	985.176	794.522
155.789	24.116	984.177	793.112
156.804	23.947	983.573	791.801
157.819	24.234	982.436	792.092
158.833	24.290	981.515	791.528
159.848	24.341	980.411	790.797
160.862	24.169	979.476	789.209
161.877	24.259	978.630	788.854
162.892	24.171	977.676	787.627
163.906	24.148	976.457	786.474
164.921	24.107	975.345	785.328
165.935	24.237	974.465	785.122
166.950	24.138	974.007	784.247
167.964	24.185	972.852	783.458
168.979	24.000	971.596	781.562
169.994	23.877	971.071	780.532
171.008	24.263	970.213	781.465
172.023	24.264	969.357	780.712
173.037	23.944	968.297	778.389
174.052	23.859	967.767	777.522
175.067	23.879	966.661	776.650
176.081	24.010	966.099	776.705
177.096	23.921	965.566	775.818
178.110	23.658	964.583	773.813
179.125	23.569	963.946	772.848
180.140	23.648	963.192	772.515
181.154	23.742	962.828	772.566
182.169	24.011	962.875	773.703
183.183	24.291	962.495	774.548
184.198	23.997	961.478	772.382
185.213	24.135	960.706	772.296
186.227	24.183	960.351	772.150
187.242	24.055	959.511	770.850
188.256	24.092	958.753	770.336
189.271	24.201	957.777	769.952
190.286	23.966	956.842	768.118
191.300	23.450	955.245	764.546
192.315	22.695	953.365	759.719
193.329	22.542	953.139	758.816
194.344	23.608	953.399	763.543
195.359	23.927	953.705	765.093
196.373	24.169	952.837	765.370
197.388	24.087	952.474	764.657
198.402	24.029	951.846	763.837
199.417	24.107	950.828	763.288
200.432	23.851	949.667	761.193
201.446	23.658	949.512	760.175
202.461	23.532	948.936	759.105
203.475	22.736	947.114	754.182
204.490	22.112	945.336	750.035
205.504	22.992	945.613	753.944
206.519	23.704	945.713	756.993
207.534	23.677	945.602	756.721
208.548	24.167	945.496	758.656
209.563	23.812	944.030	755.906
210.577	23.835	943.020	755.127
211.592	24.367	942.846	757.177
212.607	24.036	942.480	755.416
213.621	24.221	941.831	755.610
214.636	24.415	940.412	755.226
215.650	24.194	940.109	753.980
216.665	24.288	939.309	753.670
217.680	24.127	939.126	752.775
218.694	23.788	937.584	750.042
219.709	23.636	937.120	748.966
220.723	24.045	936.532	750.153
221.738	24.124	935.645	749.707
222.753	24.007	935.187	748.784
223.767	24.121	935.045	749.081
224.782	24.301	934.588	749.407
225.796	24.201	933.894	748.363
226.811	23.691	932.439	744.991
227.826	23.068	930.919	741.104
228.840	23.281	930.625	741.694
229.855	23.324	929.689	741.065
230.869	23.005	928.472	738.693
231.884	23.455	928.650	740.651
232.899	24.077	928.833	743.328
233.913	24.020	927.724	742.139
234.928	24.019	927.493	741.885
235.942	24.001	926.942	741.301
236.957	23.633	925.741	738.745
237.972	23.546	925.454	738.089
238.986	23.713	924.955	738.318
240.001	23.856	924.218	738.259
241.015	23.756	923.845	737.480
242.030	24.050	923.114	738.050
243.045	24.055	922.956	737.880
244.059	24.101	922.978	738.024
245.074	24.006	921.223	736.163
246.088	23.682	920.721	734.356
247.103	24.092	919.931	735.357
248.117	24.372	920.108	736.587
249.132	24.684	919.767	737.539
250.147	24.868	919.241	737.810
251.161	24.945	918.370	737.363
252.176	24.925	918.060	736.965
253.190	25.047	917.406	736.877
254.205	25.118	916.836	736.646
255.220	25.104	916.178	735.995
256.234	24.859	915.510	734.386
257.249	24.749	914.825	733.320
258.263	24.928	913.894	733.245
259.278	24.921	913.545	732.868
260.293	25.009	912.859	732.612
261.307	24.880	912.275	731.553
262.322	24.765	910.992	729.992
263.336	24.036	909.207	725.527
264.351	22.874	907.595	719.444
265.366	22.989	907.098	719.455
266.380	24.114	907.908	724.613
267.395	24.392	907.879	725.656
268.409	24.431	907.271	725.265
269.424	24.593	906.803	725.485
270.439	24.639	905.914	724.896
271.453	24.781	905.366	724.970
272.468	24.952	905.009	725.312
273.482	25.064	904.337	725.162
274.497	24.612	903.107	722.284
275.512	24.166	902.383	719.840
276.526	24.669	901.865	721.396
277.541	24.873	901.835	722.131
278.555	24.634	900.629	720.139
279.570	24.559	899.614	718.962
280.585	24.679	899.372	719.185
281.599	24.519	898.234	717.570
282.614	23.901	897.396	714.353
283.628	23.919	896.951	714.009
284.643	24.329	896.970	715.606
285.657	23.935	895.216	712.566
286.672	23.734	894.281	710.955
287.687	24.209	894.340	712.837
288.701	24.343	893.753	712.844
289.716	24.121	892.738	711.085
290.730	23.882	892.638	709.990
291.745	23.752	891.139	708.213
292.760	24.072	891.002	709.321
293.774	25.065	891.416	713.542
294.789	25.174	891.398	713.899
295.803	25.449	890.300	714.049
296.818	25.275	890.252	713.256
297.833	25.010	888.542	710.770
298.847	24.662	888.254	709.098
299.862	24.981	888.276	710.316
300.876	25.302	887.644	711.021
301.891	25.199	886.974	710.013
302.906	24.837	885.816	707.593
303.920	24.783	885.776	707.284
304.935	25.224	885.216	708.517
305.949	25.115	884.768	707.664
306.964	24.852	884.120	706.046
307.979	25.068	883.709	706.506
308.993	25.424	883.439	707.633
310.008	25.531	882.605	707.323
311.022	25.121	881.659	704.890
312.037	24.967	881.278	703.918
313.052	24.861	879.962	702.386
314.066	23.916	878.847	697.729
315.081	23.438	878.088	695.191
316.095	24.478	878.199	699.294
317.110	24.920	878.006	700.808
318.125	24.141	876.291	696.333
319.139	23.189	874.857	691.416
320.154	23.085	874.688	690.814
321.168	23.911	874.959	694.194
322.183	24.737	875.154	697.508
323.197	24.842	874.804	697.580
324.212	25.010	874.412	697.859
325.227	25.017	873.759	697.305
326.241	24.846	873.248	696.169
327.256	24.727	872.509	695.055
328.270	24.765	871.700	694.498
329.285	24.515	870.902	692.831
330.300	24.378	869.766	691.334
331.314	24.589	869.909	692.204
332.329	24.953	869.715	693.400
333.343	25.324	869.418	694.536
334.358	25.097	868.893	693.175
335.373	25.102	868.770	693.035
336.387	25.482	868.483	694.213
337.402	25.567	868.305	694.339
338.416	25.482	867.858	693.594
339.431	25.587	867.813	693.902
340.446	25.844	867.245	694.374
341.460	25.505	866.555	692.456
342.475	25.363	866.134	691.511
343.489	25.499	865.726	691.648
344.504	25.806	865.738	692.776
345.519	25.913	865.232	692.723
346.533	25.942	864.730	692.370
347.548	25.919	864.301	691.878
348.562	25.995	863.670	691.604
349.577	25.915	862.886	690.606
350.592	25.742	862.514	689.587
351.606	25.743	861.457	688.685
352.621	25.848	860.514	688.272
353.635	25.609	860.052	686.927
354.650	25.053	858.388	683.417
355.665	24.207	856.815	678.885
356.679	24.472	856.739	679.771
357.694	25.010	856.037	681.200
358.708	24.886	855.403	680.164
359.723	25.315	855.449	681.770
360.738	25.428	855.176	681.921
361.752	25.705	854.437	682.323
362.767	26.076	854.273	683.535
363.781	26.182	854.137	683.770
364.796	26.162	853.705	683.288
365.810	26.371	852.935	683.403
366.825	26.166	852.953	682.580
367.840	25.863	852.247	680.809
368.854	25.560	850.799	678.451
369.869	25.625	850.709	678.563
370.883	25.843	850.142	678.872
371.898	25.431	850.013	677.158
372.913	25.714	849.386	677.665
373.927	25.779	849.047	677.575
374.942	25.963	848.632	677.876
375.956	25.929	848.244	677.381
376.971	26.206	847.803	678.010
377.986	26.266	847.675	678.071
379.000	26.231	846.867	677.233
380.015	26.089	845.976	675.931
381.029	26.190	845.456	675.833
382.044	26.229	845.022	675.570
383.059	26.192	844.270	674.772
384.073	26.365	844.129	675.244
385.088	26.264	843.318	674.160
386.102	25.970	842.565	672.401
387.117	26.119	841.625	672.148
388.132	25.602	840.512	669.275
389.146	25.194	839.653	667.015
390.161	25.459	839.825	668.080
391.175	25.950	839.608	669.672
392.190	25.813	838.396	668.139
393.205	24.211	836.521	660.649
394.219	22.934	834.415	654.203
395.234	22.795	834.115	653.398
396.248	24.400	835.964	660.735
397.263	25.867	836.605	666.615
398.278	25.726	836.544	665.985
399.292	25.609	835.289	664.495
400.307	25.685	834.871	664.386
401.321	25.708	834.507	664.123
402.336	26.071	834.635	665.503
403.350	26.426	834.559	666.694
404.365	26.684	834.222	667.316
405.380	26.969	833.845	668.005
406.394	27.209	833.077	668.212
407.409	26.944	832.805	666.962
408.423	26.819	832.392	666.112
409.438	26.991	832.437	666.719
410.453	27.052	831.609	666.222
411.467	27.050	830.628	665.369
412.482	26.883	830.574	664.654
413.496	27.104	830.430	665.290
414.511	26.967	829.961	664.353
415.526	26.861	829.216	663.311
416.540	26.798	828.399	662.371
417.555	26.742	827.582	661.455
418.569	26.628	827.856	661.200
419.584	26.724	826.756	660.610
420.599	26.404	826.527	659.205
421.613	98.573	1271.916	1399.123
422.628	85.258	1336.820	1399.247
