DTS Sentinel unit serial number:	SN413079Multiplexer serial number:	ORYXHardware model number:	OX4-SRSoftware version number:	ORYX F/W v4.00 Oryx Data Collector v3.7.2.0data status	okinstallation	princeton_trtdifferential loss correction	single-endedforward channel	channel 1reverse channel	N/Adate	2019/09/11time	18:40:11forward acquisition time	60.00reverse acquisition time	0.00gamma	496.2192k internal	0.2290k external	0.2290temperature offset calibration	1.0009default loss term (dB/km)	0.3790temperature slope calibration	1.0000multiplexer offset coefficient	1.0000multiplexer slope coefficient	1.0000fibre end	0.00T internal ref (°C)	43.47T ext. ref 1 (°C)	1.21T ext. ref 2 (°C)	35.96length (m)	temperature (°C)	Stokes	anti-Stokes-747.200	-111.265	-0.188	-0.039
-746.185	646.285	-0.169	0.443
-745.171	-49.432	-0.302	0.148
-744.156	-200.000	0.002	0.217
-743.142	-6.654	-0.363	0.253
-742.127	-200.000	-0.038	0.188
-741.112	-200.000	0.049	0.452
-740.098	199.749	-0.108	0.169
-739.083	90.480	-0.056	0.064
-738.069	364.789	-0.172	0.355
-737.054	7.861	0.057	0.044
-736.039	-200.000	-0.029	-0.396
-735.025	366.658	0.099	0.205
-734.010	180.434	0.152	-0.228
-732.996	758.800	0.082	-0.227
-731.981	800.000	-0.082	0.317
-730.966	-33.200	0.097	-0.055
-729.952	261.288	0.110	-0.195
-728.937	-200.000	0.012	0.107
-727.923	-112.663	-0.187	-0.038
-726.908	617.969	-0.056	0.143
-725.894	-120.353	-0.077	0.014
-724.879	-200.000	-0.039	-0.589
-723.864	-53.801	-0.301	0.141
-722.850	-200.000	-0.009	-0.090
-721.835	800.000	-0.082	0.258
-720.821	142.282	-0.061	-0.083
-719.806	-65.468	-0.257	0.106
-718.791	79.855	-0.247	-0.271
-717.777	800.000	-0.059	0.226
-716.762	-170.002	0.422	-0.015
-715.748	-200.000	-0.066	-0.336
-714.733	209.915	0.172	-0.277
-713.718	-189.432	0.198	0.002
-712.704	482.918	-0.154	-0.358
-711.689	-200.000	0.013	-0.226
-710.675	-29.063	0.132	-0.077
-709.660	-200.000	-0.051	-0.396
-708.645	41.289	-0.369	0.341
-707.631	-40.994	-0.166	-0.088
-706.616	191.146	0.031	-0.048
-705.602	-123.829	0.117	-0.019
-704.587	-200.000	0.025	0.350
-703.572	-52.936	-0.050	0.024
-702.558	-200.000	-0.024	-0.202
-701.543	-161.698	-0.185	-0.010
-700.529	-200.000	0.036	-0.319
-699.514	-27.691	-0.143	0.085
-698.499	549.581	0.093	-0.227
-697.485	-86.808	-0.222	-0.070
-696.470	-200.000	0.007	-0.067
-695.456	-78.568	0.167	-0.059
-694.441	-68.472	0.166	0.066
-693.426	253.563	-0.215	-0.376
-692.412	-71.324	-0.243	0.093
-691.397	-107.622	0.356	0.080
-690.383	-86.849	-0.045	0.014
-689.368	-72.600	-0.054	-0.020
-688.354	16.250	0.137	-0.111
-687.339	800.000	0.014	0.045
-686.324	-49.966	-0.386	-0.187
-685.310	2.367	0.303	0.224
-684.295	-90.890	0.243	-0.072
-683.281	-136.494	-0.283	-0.034
-682.266	9.647	-0.147	-0.114
-681.251	-200.000	-0.042	-0.208
-680.237	261.382	-0.079	-0.140
-679.222	-178.660	-0.159	-0.004
-678.208	-58.577	0.019	0.008
-677.193	148.736	0.020	-0.028
-676.178	-186.254	-0.358	-0.005
-675.164	-137.693	0.239	-0.027
-674.149	21.147	-0.179	0.149
-673.135	241.666	-0.097	-0.166
-672.120	-57.847	0.289	-0.129
-671.105	-200.000	-0.020	0.304
-670.091	-200.000	0.027	-0.194
-669.076	48.901	0.142	-0.136
-668.062	247.945	-0.117	-0.202
-667.047	92.666	-0.247	-0.285
-666.032	89.588	-0.051	0.058
-665.018	222.620	0.265	-0.436
-664.003	-60.731	0.125	0.054
-662.989	26.243	0.144	-0.123
-661.974	75.982	0.097	0.105
-660.959	-200.000	0.007	-0.110
-659.945	-42.343	-0.378	-0.197
-658.930	-200.000	-0.007	-0.034
-657.916	279.925	-0.192	0.350
-656.901	191.137	-0.061	0.094
-655.886	-200.000	0.036	-0.291
-654.872	800.000	0.093	-0.325
-653.857	20.022	0.064	0.053
-652.843	290.862	-0.157	-0.291
-651.828	-134.802	0.257	0.032
-650.814	-5.917	0.227	0.158
-649.799	-27.411	0.274	0.163
-648.784	-74.702	-0.398	0.146
-647.770	39.637	-0.215	-0.196
-646.755	22.252	-0.226	-0.188
-645.741	-104.716	-0.200	0.047
-644.726	800.000	-0.078	-0.273
-643.711	-140.810	-0.041	-0.004
-642.697	-142.923	-0.135	-0.013
-641.682	-107.157	0.183	-0.041
-640.668	96.512	-0.201	-0.235
-639.653	69.420	-0.337	0.354
-638.638	-113.874	-0.112	-0.022
-637.624	97.126	-0.084	0.098
-636.609	66.250	0.229	-0.237
-635.595	-200.000	0.010	-0.378
-634.580	800.000	0.074	0.240
-633.565	-200.000	0.011	-0.257
-632.551	-32.953	-0.310	-0.176
-631.536	-108.308	0.095	-0.021
-630.522	467.280	0.100	0.229
-629.507	11.061	-0.079	0.062
-628.492	-54.294	0.161	-0.075
-627.478	389.565	0.078	0.164
-626.463	2.245	0.250	-0.184
-625.449	800.000	0.086	0.295
-624.434	-114.628	-0.233	0.045
-623.419	-94.095	0.059	0.017
-622.405	-4.921	0.124	0.087
-621.390	-200.000	0.076	0.477
-620.376	-200.000	-0.038	0.300
-619.361	81.807	0.156	0.172
-618.346	-139.716	0.358	-0.039
-617.332	-80.189	0.316	-0.108
-616.317	-90.929	0.093	-0.027
-615.303	-45.035	0.168	-0.085
-614.288	-103.573	-0.140	0.033
-613.273	63.819	0.033	0.033
-612.259	-200.000	-0.047	-0.230
-611.244	-4.891	-0.183	-0.128
-610.230	-200.000	0.002	0.144
-609.215	800.000	-0.130	-0.538
-608.201	48.751	-0.308	-0.295
-607.186	159.091	0.151	-0.214
-606.171	-200.000	-0.034	-0.271
-605.157	99.633	-0.080	0.095
-604.142	-126.848	-0.069	0.010
-603.128	-200.000	-0.072	-0.397
-602.113	-164.578	0.337	0.016
-601.098	86.290	0.016	0.018
-600.084	800.000	0.081	-0.235
-599.069	40.464	0.084	0.077
-598.055	18.496	0.175	-0.143
-597.040	-74.582	0.130	0.048
-596.025	160.255	-0.195	0.277
-595.011	-131.563	0.304	-0.041
-593.996	-154.520	-0.131	0.009
-592.982	427.015	0.085	-0.187
-591.967	-200.000	0.067	-0.381
-590.952	-140.913	0.392	0.041
-589.938	333.144	-0.048	0.095
-588.923	513.592	-0.109	-0.259
-587.909	800.000	0.094	-0.333
-586.894	-200.000	0.009	-0.136
-585.879	-200.000	0.023	0.451
-584.865	-85.518	-0.296	0.094
-583.850	17.031	-0.228	-0.184
-582.836	578.321	-0.064	0.161
-581.821	117.626	-0.212	-0.266
-580.806	-200.000	0.089	0.430
-579.792	20.644	0.110	-0.091
-578.777	-46.742	0.199	0.099
-577.763	-200.000	-0.025	-0.119
-576.748	109.582	0.207	-0.253
-575.733	-114.673	-0.342	-0.067
-574.719	-195.762	0.289	0.002
-573.704	-200.000	-0.015	0.182
-572.690	800.000	0.101	0.438
-571.675	2.557	0.146	-0.108
-570.661	21.202	-0.167	0.138
-569.646	24.240	-0.094	-0.079
-568.631	-148.230	0.322	0.027
-567.617	-115.767	-0.211	-0.040
-566.602	-148.237	-0.261	-0.022
-565.588	-66.769	-0.084	0.034
-564.573	522.098	0.093	-0.222
-563.558	-200.000	-0.068	0.348
-562.544	424.471	-0.054	0.119
-561.529	-8.057	0.397	0.272
-560.515	-200.000	0.001	-0.005
-559.500	-25.165	-0.393	-0.237
-558.485	-78.278	-0.081	-0.028
-557.471	800.000	-0.054	-0.218
-556.456	800.000	0.045	0.140
-555.442	42.040	0.111	-0.102
-554.427	28.406	0.215	-0.185
-553.412	-50.801	0.170	0.081
-552.398	276.006	0.095	-0.171
-551.383	8.536	-0.128	0.098
-550.369	87.311	0.165	-0.186
-549.354	-44.302	-0.158	0.080
-548.339	800.000	-0.029	0.083
-547.325	4.906	0.122	-0.091
-546.310	108.816	-0.076	0.092
-545.296	200.119	-0.103	0.161
-544.281	800.000	0.082	0.251
-543.266	63.318	0.105	-0.107
-542.252	-200.000	-0.003	0.178
-541.237	-58.730	0.013	-0.006
-540.223	-194.555	0.134	0.001
-539.208	0.547	0.198	0.144
-538.193	-44.709	0.177	0.090
-537.179	287.214	-0.166	0.305
-536.164	-51.163	-0.421	-0.201
-535.150	117.294	0.180	-0.225
-534.135	800.000	0.072	-0.275
-533.121	800.000	-0.034	0.138
-532.106	762.831	0.079	-0.218
-531.091	-16.662	-0.404	0.260
-530.077	104.128	0.066	0.079
-529.062	128.519	0.111	0.144
-528.048	800.000	-0.079	-0.222
-527.033	527.783	-0.152	-0.363
-526.018	-66.851	0.116	0.047
-525.004	-200.000	-0.034	0.154
-523.989	608.400	0.139	-0.353
-522.975	-200.000	-0.048	-0.218
-521.960	-19.540	-0.264	-0.166
-520.945	142.354	-0.075	0.101
-519.931	77.650	0.133	0.144
-518.916	505.240	-0.062	0.146
-517.902	-10.452	-0.350	0.236
-516.887	-35.436	0.252	0.139
-515.872	-119.529	-0.139	0.025
-514.858	800.000	0.082	0.297
-513.843	-73.369	-0.195	0.072
-512.829	69.771	-0.240	-0.251
-511.814	-22.522	0.286	-0.176
-510.799	-162.219	0.366	-0.019
-509.785	-11.311	-0.322	0.215
-508.770	103.213	-0.029	0.035
-507.756	800.000	-0.076	-0.221
-506.741	-28.068	-0.409	0.240
-505.726	-116.395	-0.088	-0.016
-504.712	62.957	0.043	-0.043
-503.697	-155.557	-0.317	-0.021
-502.683	198.094	0.090	-0.140
-501.668	-200.000	-0.006	0.255
-500.653	-3.754	0.060	0.042
-499.639	68.457	0.246	-0.256
-498.624	381.149	-0.202	-0.421
-497.610	200.161	-0.054	-0.084
-496.595	-105.021	0.290	0.067
-495.581	102.531	-0.136	-0.161
-494.566	136.931	-0.139	0.184
-493.551	39.691	-0.029	0.027
-492.537	-68.847	0.309	0.121
-491.522	-94.510	0.269	0.074
-490.508	-139.505	0.250	0.027
-489.493	-1.609	0.090	-0.064
-488.478	-105.602	0.078	-0.018
-487.464	414.407	-0.016	0.034
-486.449	20.529	0.072	-0.059
-485.435	-50.574	-0.046	0.022
-484.420	-100.532	0.036	-0.009
-483.405	90.796	0.087	0.099
-482.391	800.000	0.159	0.586
-481.376	-200.000	0.048	0.407
-480.362	36.155	-0.264	-0.236
-479.347	-200.000	-0.007	-0.085
-478.332	-71.155	0.268	-0.102
-477.318	-18.453	0.126	0.080
-476.303	-125.790	0.060	0.009
-475.289	756.823	0.033	-0.089
-474.274	-85.704	-0.068	0.022
-473.259	-124.148	-0.330	-0.052
-472.245	-3.855	-0.184	-0.129
-471.230	-79.099	-0.297	-0.102
-470.216	-200.000	-0.018	-0.222
-469.201	-200.000	-0.021	-0.100
-468.186	-200.000	0.023	-0.312
-467.172	800.000	0.100	-0.409
-466.157	-90.238	-0.056	0.016
-465.143	-200.000	-0.001	-0.124
-464.128	-130.278	0.170	-0.023
-463.113	-156.424	-0.402	0.025
-462.099	105.366	-0.089	-0.106
-461.084	32.261	0.164	0.143
-460.070	14.929	-0.150	-0.119
-459.055	183.637	0.095	-0.142
-458.040	800.000	0.051	0.153
-457.026	22.645	-0.126	-0.104
-456.011	50.131	0.083	-0.080
-454.997	79.283	0.082	0.089
-453.982	-200.000	-0.009	0.267
-452.968	63.716	0.148	0.150
-451.953	-122.477	-0.382	0.063
-450.938	-64.076	-0.162	-0.067
-449.924	140.521	-0.319	-0.427
-448.909	-200.000	-0.026	0.353
-447.895	308.012	-0.129	0.244
-446.880	-53.284	0.139	-0.065
-445.865	-200.000	-0.027	-0.200
-444.851	142.884	0.254	0.342
-443.836	141.420	0.176	-0.235
-442.822	-190.099	0.128	-0.001
-441.807	-200.000	0.013	0.431
-440.792	-200.000	0.003	0.143
-439.778	199.607	0.127	0.197
-438.763	358.894	0.191	-0.387
-437.749	45.962	-0.279	-0.261
-436.734	-101.125	-0.072	-0.018
-435.719	-140.730	-0.097	-0.010
-434.705	139.272	-0.186	-0.247
-433.690	800.000	-0.088	-0.376
-432.676	800.000	0.064	0.198
-431.661	-200.000	-0.046	-0.386
-430.646	225.515	0.093	0.152
-429.632	21.079	0.076	0.062
-428.617	-62.143	0.229	0.097
-427.603	-200.000	0.009	-0.193
-426.588	116.168	0.130	-0.161
-425.573	551.860	0.105	-0.255
-424.559	-13.651	0.231	0.151
-423.544	-151.315	0.222	-0.017
-422.530	-168.895	-0.241	-0.009
-421.515	-95.332	-0.096	0.026
-420.500	-31.863	-0.314	-0.178
-419.486	-54.741	0.276	-0.126
-418.471	-117.532	-0.145	-0.027
-417.457	461.280	-0.111	-0.250
-416.442	-134.956	0.222	-0.027
-415.428	-139.560	0.149	-0.016
-414.413	-65.527	0.170	-0.069
-413.398	-200.000	0.079	0.391
-412.384	238.618	-0.083	0.140
-411.369	-161.508	-0.394	0.020
-410.355	256.599	0.021	-0.036
-409.340	111.348	-0.166	0.202
-408.325	12.872	0.038	0.030
-407.311	-14.347	0.112	-0.073
-406.296	165.624	-0.037	-0.053
-405.282	-200.000	-0.069	-0.324
-404.267	-54.848	-0.167	0.076
-403.252	-78.959	-0.089	0.031
-402.238	-143.759	-0.211	0.020
-401.223	-127.747	-0.101	-0.015
-400.209	-200.000	0.009	0.262
-399.194	37.726	0.175	-0.157
-398.179	-72.000	0.258	-0.097
-397.165	-16.406	-0.389	-0.249
-396.150	-111.875	0.105	-0.021
-395.136	149.065	0.082	-0.113
-394.121	216.513	0.117	-0.187
-393.106	586.160	0.057	-0.142
-392.092	-19.077	0.074	-0.046
-391.077	-33.624	0.054	-0.030
-390.063	-137.443	-0.294	0.034
-389.048	119.549	0.029	-0.036
-388.033	222.508	-0.066	-0.108
-387.019	43.506	-0.358	-0.330
-386.004	33.261	-0.121	-0.106
-384.990	800.000	-0.051	-0.195
-383.975	-18.105	0.133	-0.084
-382.960	-187.515	-0.463	-0.006
-381.946	-200.000	-0.068	0.367
-380.931	-200.000	-0.013	0.178
-379.917	166.923	0.164	0.235
-378.902	287.395	0.100	0.182
-377.888	253.715	0.020	0.035
-376.873	-118.324	-0.421	0.076
-375.858	-137.546	0.294	0.033
-374.844	256.400	-0.100	0.174
-373.829	-57.643	0.070	0.031
-372.815	-11.482	-0.228	0.151
-371.800	621.271	-0.086	0.219
-370.785	-145.162	-0.018	-0.002
-369.771	-92.882	-0.257	-0.072
-368.756	800.000	0.052	-0.216
-367.742	335.413	-0.076	0.149
-366.727	13.595	-0.176	0.138
-365.712	122.877	-0.059	0.075
-364.698	800.000	0.051	0.199
-363.683	-48.823	0.072	0.035
-362.669	-200.000	0.009	-0.220
-361.654	85.650	-0.089	0.098
-360.639	-123.696	-0.145	0.023
-359.625	800.000	0.112	-0.414
-358.610	168.997	-0.184	-0.265
-357.596	-147.686	-0.475	0.040
-356.581	-71.067	-0.331	0.125
-355.566	-200.000	-0.016	0.283
-354.552	-6.100	0.270	-0.187
-353.537	51.564	-0.310	-0.298
-352.523	-192.703	0.144	0.001
-351.508	-41.627	-0.211	-0.109
-350.493	800.000	0.093	0.268
-349.479	-92.195	-0.213	-0.061
-348.464	542.851	-0.078	0.187
-347.450	-200.000	0.021	-0.280
-346.435	253.559	-0.033	-0.056
-345.420	-200.000	-0.025	0.152
-344.406	-200.000	-0.007	0.195
-343.391	226.020	0.043	0.070
-342.377	-200.000	-0.134	-0.000
-341.362	-200.000	-0.008	0.055
-340.348	800.000	0.088	-0.380
-339.333	-147.149	-0.250	-0.021
-338.318	-48.908	0.221	0.107
-337.304	13.139	0.154	0.120
-336.289	800.000	0.053	0.161
-335.275	-12.293	-0.189	-0.125
-334.260	800.000	0.065	0.212
-333.245	-200.000	-0.026	0.119
-332.231	800.000	0.051	-0.149
-331.216	93.450	-0.129	-0.147
-330.202	40.376	0.160	0.145
-329.187	101.762	-0.132	-0.156
-328.172	-63.300	0.239	0.099
-327.158	800.000	0.044	0.177
-326.143	-104.514	0.231	0.054
-325.129	-193.121	-0.087	0.001
-324.114	197.634	0.106	-0.163
-323.099	88.632	0.179	-0.200
-322.085	61.103	-0.084	0.084
-321.070	39.934	-0.167	0.151
-320.056	-200.000	-0.028	-0.169
-319.041	212.166	0.205	0.326
-318.026	-109.937	0.030	0.006
-317.012	-72.716	0.180	0.067
-315.997	-200.000	-0.025	0.204
-314.983	-115.983	0.226	0.042
-313.968	536.830	-0.051	0.122
-312.953	-49.078	0.163	0.079
-311.939	162.801	-0.164	0.232
-310.924	-148.718	0.199	-0.016
-309.910	-29.243	0.170	-0.098
-308.895	-200.000	0.044	0.297
-307.880	-200.000	0.001	-0.060
-306.866	1.675	-0.139	0.101
-305.851	99.666	-0.354	0.412
-304.837	-9.468	-0.133	0.089
-303.822	430.108	-0.186	0.404
-302.807	-79.438	0.248	-0.085
-301.793	-126.103	0.492	-0.074
-300.778	-102.363	0.173	0.042
-299.764	-200.000	0.015	0.184
-298.749	0.306	-0.359	-0.258
-297.735	-200.000	0.017	-0.109
-296.720	38.613	-0.041	0.036
-295.705	-80.225	-0.128	0.043
-294.691	35.707	-0.210	-0.186
-293.676	-24.879	0.212	-0.127
-292.662	-200.000	-0.004	-0.270
-291.647	537.552	-0.032	0.077
-290.632	-200.000	-0.011	-0.053
-289.618	-40.514	0.120	0.063
-288.603	-200.000	0.003	-0.056
-287.589	-109.028	0.177	0.038
-286.574	70.531	0.148	-0.155
-285.559	110.512	0.276	-0.334
-284.545	39.990	0.203	-0.184
-283.530	-200.000	-0.044	0.232
-282.516	-200.000	0.045	-0.235
-281.501	-156.844	0.286	-0.018
-280.486	800.000	0.080	-0.224
-279.472	-75.370	0.435	0.156
-278.457	282.561	-0.141	-0.255
-277.443	408.165	0.078	0.166
-276.428	42.268	0.205	0.188
-275.413	83.316	-0.098	0.108
-274.399	125.960	-0.201	-0.256
-273.384	204.465	0.236	-0.367
-272.370	800.000	-0.019	-0.058
-271.355	-91.012	-0.029	0.008
-270.340	92.502	-0.115	-0.130
-269.326	120.324	0.079	-0.099
-268.311	10.760	-0.297	-0.228
-267.297	-47.697	0.184	-0.090
-266.282	214.339	0.050	0.079
-265.267	-55.534	0.237	0.107
-264.253	-12.694	-0.127	0.083
-263.238	-117.695	0.262	0.048
-262.224	-23.700	0.309	-0.186
-261.209	87.531	-0.156	0.173
-260.195	-111.527	0.163	0.033
-259.180	-106.444	0.149	0.034
-258.165	-13.608	0.218	-0.142
-257.151	94.889	-0.213	0.244
-256.136	30.163	0.134	0.115
-255.122	-140.747	-0.253	0.026
-254.107	-89.932	0.017	-0.005
-253.092	-158.413	-0.171	0.010
-252.078	517.735	-0.067	-0.158
-251.063	13.757	0.078	-0.061
-250.049	-160.145	0.123	0.007
-249.034	-161.447	-0.393	-0.020
-248.019	-28.110	-0.184	0.107
-247.005	-200.000	-0.011	-0.093
-245.990	51.275	0.124	0.119
-244.976	-170.536	-0.161	0.006
-243.961	-61.441	-0.367	-0.155
-242.946	-156.941	0.236	0.015
-241.932	96.650	0.195	0.224
-240.917	-35.227	0.193	-0.105
-239.903	-128.685	-0.154	0.022
-238.888	-130.202	-0.164	0.022
-237.873	106.610	0.119	-0.142
-236.859	552.884	-0.177	0.428
-235.844	-9.945	0.160	-0.107
-234.830	80.787	0.099	-0.108
-233.815	-185.675	-0.321	-0.005
-232.800	-93.376	0.208	0.058
-231.786	-162.161	-0.262	-0.013
-230.771	309.487	0.022	-0.041
-229.757	800.000	-0.014	-0.053
-228.742	-104.033	0.477	-0.112
-227.727	800.000	-0.141	-0.498
-226.713	-57.230	0.066	0.029
-225.698	-200.000	-0.012	0.138
-224.684	110.046	-0.103	0.124
-223.669	-82.847	0.372	0.121
-222.655	-118.044	-0.191	-0.034
-221.640	47.042	-0.018	0.016
-220.625	418.084	-0.117	-0.252
-219.611	-76.514	0.113	0.040
-218.596	58.723	-0.103	0.101
-217.582	-88.930	-0.126	0.037
-216.567	61.998	-0.141	-0.141
-215.552	-83.662	-0.186	-0.060
-214.538	152.123	-0.129	0.177
-213.523	313.092	0.056	0.105
-212.509	-200.000	0.099	0.513
-211.494	-164.795	0.055	-0.002
-210.479	-97.364	-0.106	0.028
-209.465	-200.000	0.002	0.092
-208.450	-7.800	0.311	-0.210
-207.436	-37.823	-0.113	0.060
-206.421	35.078	0.193	-0.169
-205.406	-200.000	0.018	0.078
-204.392	21.682	0.341	0.278
-203.377	-35.579	0.105	-0.057
-202.363	-144.951	-0.305	-0.028
-201.348	19.694	0.145	-0.117
-200.333	238.988	0.206	-0.344
-199.319	415.176	0.121	0.258
-198.304	50.732	0.281	0.267
-197.290	-198.793	-0.340	-0.002
-196.275	107.429	-0.081	-0.097
-195.260	34.524	0.080	0.070
-194.246	-200.000	0.045	-0.240
-193.231	284.983	0.055	0.099
-192.217	32.002	-0.115	0.100
-191.202	56.754	-0.099	0.097
-190.187	-123.029	0.373	-0.060
-189.173	30.551	-0.217	0.186
-188.158	-200.000	0.028	0.253
-187.144	411.823	-0.044	0.094
-186.129	81.361	0.072	0.078
-185.114	-50.773	0.480	0.226
-184.100	-101.900	0.121	-0.029
-183.085	-102.123	-0.248	0.060
-182.071	-200.000	0.049	0.217
-181.056	38.440	-0.220	0.196
-180.042	-200.000	-0.004	0.084
-179.027	-32.785	-0.169	0.094
-178.012	-48.308	0.130	0.063
-176.998	-80.921	-0.196	0.065
-175.983	-115.047	0.254	0.048
-174.969	298.951	0.059	-0.109
-173.954	213.203	-0.070	0.111
-172.939	-23.291	-0.212	0.128
-171.925	800.000	-0.067	-0.274
-170.910	161.037	0.063	0.088
-169.896	-200.000	0.006	0.046
-168.881	152.777	-0.190	0.260
-167.866	-200.000	-0.044	0.265
-166.852	-43.763	0.320	0.161
-165.837	-200.000	-0.010	-0.116
-164.823	-166.589	0.206	-0.009
-163.808	-83.080	0.202	-0.065
-162.793	-125.841	-0.146	-0.022
-161.779	31.974	0.332	-0.287
-160.764	-78.212	-0.115	-0.039
-159.750	380.259	-0.091	0.188
-158.735	-200.000	0.029	0.154
-157.720	-200.000	0.046	0.217
-156.706	280.722	0.046	-0.082
-155.691	784.931	0.043	0.117
-154.677	-14.077	-0.232	-0.150
-153.662	-152.049	-0.334	0.024
-152.647	-28.200	0.330	0.191
-151.633	800.000	-0.111	0.338
-150.618	27.780	0.250	-0.211
-149.604	34.267	0.053	0.046
-148.589	-200.000	-0.080	0.599
-147.574	-200.000	0.052	0.259
-146.560	-75.963	0.029	-0.010
-145.545	-37.772	0.017	0.009
-144.531	-116.215	0.223	0.041
-143.516	17.086	-0.164	0.130
-142.502	26.562	0.116	0.097
-141.487	-128.496	0.285	-0.040
-140.472	244.154	-0.076	-0.128
-139.458	800.000	0.058	0.236
-138.443	-200.000	-0.083	0.417
-137.429	-172.001	-0.215	-0.007
-136.414	-15.273	-0.184	-0.118
-135.399	29.443	0.217	-0.184
-134.385	-57.386	-0.304	-0.134
-133.370	16.846	0.180	0.143
-132.356	-70.026	-0.099	-0.038
-131.341	176.854	-0.160	-0.232
-130.326	733.907	-0.050	0.133
-129.312	-181.430	0.432	-0.008
-128.297	-167.754	-0.318	-0.013
-127.283	-200.000	0.044	-0.211
-126.268	71.117	-0.118	0.122
-125.253	-200.000	0.056	-0.253
-124.239	-118.885	-0.182	-0.032
-123.224	-200.000	-0.083	-0.406
-122.210	3.642	-0.086	-0.063
-121.195	800.000	0.057	-0.174
-120.180	800.000	0.081	-0.291
-119.166	-200.000	0.016	0.077
-118.151	757.708	0.087	0.237
-117.137	-125.046	-0.076	-0.012
-116.122	7.238	0.312	-0.233
-115.107	-139.664	-0.226	-0.024
-114.093	486.637	-0.087	-0.198
-113.078	83.802	0.062	-0.067
-112.064	-200.000	-0.040	0.269
-111.049	-42.324	-0.191	-0.098
-110.034	36.269	0.099	0.088
-109.020	-164.609	-0.099	-0.004
-108.005	-21.801	0.360	0.219
-106.991	-200.000	0.005	0.317
-105.976	71.382	0.163	-0.169
-104.962	-83.092	-0.325	-0.105
-103.947	-61.596	-0.103	0.043
-102.932	58.178	-0.197	-0.192
-101.918	-165.129	-0.289	0.013
-100.903	-82.357	0.483	-0.157
-99.889	-114.879	0.227	0.043
-98.874	800.000	-0.064	-0.222
-97.859	345.733	0.148	0.291
-96.845	800.000	0.071	0.304
-95.830	-70.232	0.080	-0.030
-94.816	-200.000	0.020	-0.100
-93.801	-200.000	-0.006	-0.192
-92.786	-200.000	-0.016	0.265
-91.772	-109.744	-0.161	0.034
-90.757	-139.115	0.314	0.034
-89.743	-200.000	0.064	-0.344
-88.728	-170.199	-0.131	-0.005
-87.713	-90.548	-0.324	0.094
-86.699	302.294	0.085	0.158
-85.684	88.431	0.039	-0.043
-84.670	800.000	-0.070	0.258
-83.655	-61.519	0.195	0.082
-82.640	179.388	-0.124	0.182
-81.626	-132.241	0.190	-0.025
-80.611	-109.348	-0.250	-0.053
-79.597	800.000	0.046	0.134
-78.582	-200.000	0.003	-0.023
-77.567	428.401	0.072	-0.156
-76.553	800.000	-0.123	-0.380
-75.538	-59.128	-0.053	0.023
-74.524	-2.163	0.131	0.092
-73.509	-87.161	0.346	-0.105
-72.494	289.500	0.133	-0.241
-71.480	14.730	-0.111	0.086
-70.465	-45.191	0.240	-0.119
-69.451	-171.030	-0.135	-0.005
-68.436	-200.000	0.011	-0.110
-67.422	15.712	-0.278	0.218
-66.407	-200.000	-0.001	0.217
-65.392	17.311	-0.247	-0.196
-64.378	-158.569	-0.439	0.025
-63.363	-200.000	-0.038	0.192
-62.349	-101.381	-0.199	-0.048
-61.334	-38.082	-0.874	-0.463
-60.319	688.428	0.237	0.618
-59.305	-200.000	0.090	-0.629
-58.290	526.829	0.254	0.597
-57.276	800.000	0.360	1.498
-56.261	-200.000	74.804	565.269
-55.246	596.405	1294.692	3197.595
-54.232	146.415	2517.124	3370.846
-53.217	123.974	2219.236	2779.683
-52.203	56.630	1659.942	1610.834
-51.188	47.705	1379.916	1284.146
-50.173	43.754	1332.216	1216.035
-49.159	62.389	1366.185	1360.289
-48.144	71.034	1384.694	1430.839
-47.130	47.956	1347.260	1255.079
-46.115	43.612	1330.742	1213.647
-45.100	43.289	1326.374	1207.681
-44.086	43.323	1323.798	1205.488
-43.071	43.285	1321.629	1203.241
-42.057	43.170	1319.517	1200.582
-41.042	43.264	1317.589	1199.344
-40.027	43.392	1315.995	1198.602
-39.013	43.433	1314.177	1197.142
-37.998	43.312	1312.188	1194.566
-36.984	43.469	1310.058	1193.511
-35.969	43.484	1308.843	1192.440
-34.954	43.569	1307.097	1191.305
-33.940	43.539	1305.479	1189.610
-32.925	43.531	1304.204	1188.354
-31.911	43.620	1302.693	1187.452
-30.896	43.582	1301.150	1185.774
-29.881	43.525	1299.799	1184.161
-28.867	43.669	1297.836	1183.171
-27.852	43.524	1297.066	1181.573
-26.838	43.495	1295.783	1180.187
-25.823	43.637	1293.968	1179.317
-24.809	43.509	1292.627	1177.298
-23.794	43.568	1291.190	1176.290
-22.779	43.457	1290.685	1175.136
-21.765	43.514	1288.389	1173.328
-20.750	43.417	1287.349	1171.775
-19.736	43.550	1285.661	1170.958
-18.721	43.384	1285.008	1169.357
-17.706	43.432	1283.438	1168.162
-16.692	43.529	1282.205	1167.552
-15.677	43.438	1281.514	1166.353
-14.663	43.308	1280.605	1164.729
-13.648	43.301	1279.106	1163.275
-12.633	43.416	1278.026	1162.911
-11.619	43.431	1277.017	1162.037
-10.604	43.489	1276.091	1161.476
-9.590	43.377	1275.126	1159.910
-8.575	43.398	1273.961	1158.924
-7.560	43.472	1273.065	1158.487
-6.546	43.412	1272.295	1157.397
-5.531	43.396	1271.322	1156.374
-4.517	43.289	1271.017	1155.443
-3.502	43.398	1269.714	1154.833
-2.487	43.406	1268.988	1154.172
-1.473	43.251	1265.347	1149.934
-0.458	41.669	1248.217	1125.416
0.556	36.196	1226.253	1075.884
1.571	31.477	1228.126	1050.987
2.586	29.985	1242.890	1055.033
3.600	28.704	1232.900	1039.221
4.615	20.506	1156.469	930.988
5.629	7.725	1072.642	799.522
6.644	1.633	1047.872	750.992
7.659	1.219	1045.032	746.855
8.673	1.038	1043.952	745.127
9.688	0.952	1042.334	743.481
10.702	1.402	1041.742	745.203
11.717	8.644	1052.318	788.489
12.731	19.507	1066.801	853.257
13.746	23.599	1071.695	877.371
14.761	23.818	1071.503	878.216
15.775	23.818	1071.070	877.784
16.790	23.558	1070.459	875.924
17.804	23.459	1069.840	874.851
18.819	23.578	1069.353	874.963
19.834	23.692	1068.718	874.929
20.848	23.793	1068.306	875.012
21.863	23.826	1067.573	874.495
22.877	23.624	1067.331	873.224
23.892	23.545	1066.874	872.385
24.907	23.556	1066.156	871.776
25.921	23.617	1064.788	870.880
26.936	23.567	1063.450	869.465
27.950	23.421	1062.048	867.525
28.965	23.414	1059.995	865.736
29.980	23.489	1058.834	865.078
30.994	23.651	1057.669	864.839
32.009	23.690	1056.330	863.859
33.023	23.480	1055.393	861.994
34.038	23.552	1054.830	861.809
35.053	23.636	1053.994	861.457
36.067	23.607	1053.313	860.685
37.082	23.795	1052.537	860.883
38.096	23.925	1051.445	860.543
39.111	24.004	1050.879	860.386
40.126	23.765	1049.317	857.877
41.140	23.396	1048.206	855.113
42.155	23.221	1046.602	852.887
43.169	23.256	1045.818	852.339
44.184	23.238	1045.024	851.530
45.199	23.157	1043.937	850.180
46.213	23.209	1042.862	849.478
47.228	23.461	1042.050	849.950
48.242	23.495	1041.356	849.474
49.257	23.608	1040.496	849.238
50.271	23.616	1040.008	848.801
51.286	23.712	1039.195	848.520
52.301	23.696	1037.688	847.141
53.315	23.716	1037.086	846.668
54.330	23.635	1036.252	845.526
55.344	23.445	1036.008	844.351
56.359	23.540	1034.845	843.778
57.374	23.376	1033.757	842.038
58.388	23.306	1033.092	841.089
59.403	23.417	1031.915	840.584
60.417	23.271	1031.009	839.078
61.432	23.171	1030.934	838.468
62.447	23.394	1029.857	838.574
63.461	23.460	1029.187	838.265
64.476	23.377	1028.065	836.886
65.490	23.309	1027.141	835.740
66.505	23.388	1026.507	835.524
67.520	23.428	1025.871	835.120
68.534	23.207	1024.681	833.035
69.549	22.898	1023.905	830.877
70.563	23.043	1022.612	830.437
71.578	23.054	1021.799	829.756
72.593	22.726	1020.878	827.397
73.607	22.894	1020.090	827.471
74.622	23.190	1019.970	828.684
75.636	23.148	1019.546	828.071
76.651	23.085	1018.509	826.860
77.666	23.019	1017.419	825.598
78.680	23.071	1017.097	825.506
79.695	23.197	1016.576	825.594
80.709	23.266	1015.670	825.111
81.724	23.198	1014.840	824.043
82.739	23.178	1014.788	823.835
83.753	23.614	1013.839	825.022
84.768	23.844	1013.248	825.534
85.782	23.903	1012.308	824.970
86.797	23.805	1011.397	823.701
87.812	23.810	1009.705	822.271
88.826	23.967	1008.924	822.289
89.841	23.896	1008.238	821.330
90.855	23.889	1007.417	820.554
91.870	23.897	1006.462	819.744
92.884	23.806	1005.427	818.409
93.899	23.648	1004.428	816.796
94.914	23.940	1003.662	817.441
95.928	23.685	1002.689	815.409
96.943	23.471	1001.892	813.706
97.957	23.164	1000.537	811.125
98.972	23.123	998.820	809.473
99.987	23.449	998.212	810.401
101.001	23.536	997.961	810.520
102.016	23.559	997.177	809.916
103.030	23.420	995.787	808.082
104.045	23.386	995.046	807.258
105.060	23.175	994.016	805.387
106.074	23.375	993.112	805.497
107.089	23.666	992.682	806.398
108.103	23.698	991.570	805.570
109.118	23.393	990.143	802.953
110.133	23.334	989.248	801.892
111.147	23.061	987.863	799.464
112.162	23.043	986.930	798.555
113.176	23.280	986.305	799.049
114.191	23.247	985.842	798.455
115.206	22.996	984.519	796.184
116.220	22.908	984.036	795.325
117.235	23.070	982.956	795.109
118.249	23.120	981.972	794.467
119.264	22.913	981.459	793.055
120.279	22.967	980.636	792.560
121.293	23.118	979.849	792.530
122.308	23.074	978.902	791.496
123.322	23.133	977.638	790.671
124.337	22.867	976.783	788.723
125.352	22.354	975.031	784.951
126.366	22.375	974.188	784.295
127.381	23.041	974.352	787.324
128.395	23.632	973.517	789.207
129.410	23.575	973.096	788.543
130.424	23.698	971.598	787.805
131.439	23.485	971.145	786.423
132.454	23.661	970.187	786.356
133.468	23.612	969.330	785.375
134.483	23.503	968.732	784.339
135.497	23.882	967.768	785.164
136.512	23.910	966.922	784.532
137.527	23.844	966.218	783.604
138.541	24.000	965.164	783.363
139.556	23.831	964.831	782.280
140.570	24.033	964.059	782.473
141.585	23.949	963.230	781.363
142.600	23.870	961.956	779.914
143.614	24.042	961.476	780.209
144.629	24.231	960.516	780.188
145.643	23.969	959.435	778.096
146.658	23.835	958.126	776.378
147.673	23.754	956.891	774.958
148.687	23.752	955.731	773.940
149.702	23.594	954.913	772.524
150.716	23.469	954.318	771.428
151.731	23.791	953.132	771.803
152.746	23.930	952.512	771.834
153.760	23.932	952.264	771.576
154.775	24.051	951.554	771.447
155.789	23.939	950.357	769.922
156.804	23.823	949.651	768.782
157.819	23.974	948.941	768.788
158.833	23.951	948.529	768.291
159.848	23.942	947.545	767.386
160.862	23.909	946.131	766.028
161.877	24.060	944.973	765.676
162.892	24.050	944.164	764.906
163.906	24.004	942.965	763.671
164.921	23.901	942.489	762.776
165.935	23.977	941.388	762.144
166.950	23.994	940.267	761.242
167.964	23.879	939.772	760.281
168.979	23.905	938.299	759.134
169.994	23.753	937.515	757.784
171.008	23.955	937.152	758.283
172.023	23.866	936.892	757.629
173.037	23.764	935.387	755.910
174.052	23.721	934.107	754.625
175.067	23.673	933.640	753.980
176.081	23.747	933.024	753.727
177.096	23.697	932.871	753.324
178.110	23.375	931.694	750.946
179.125	23.205	930.767	749.409
180.140	23.346	930.578	749.787
181.154	23.401	930.400	749.813
182.169	23.915	929.834	751.460
183.183	24.099	929.099	751.578
184.198	23.908	928.630	750.325
185.213	23.832	927.614	749.121
186.227	23.917	927.015	748.926
187.242	23.985	926.484	748.718
188.256	23.988	925.815	748.123
189.271	24.015	925.265	747.728
190.286	23.782	923.803	745.501
191.300	23.039	922.759	741.477
192.315	22.354	921.258	737.337
193.329	22.351	920.392	736.564
194.344	23.246	921.223	740.914
195.359	23.827	920.855	742.983
196.373	23.908	920.151	742.686
197.388	23.686	919.993	741.566
198.402	23.742	919.615	741.430
199.417	23.908	918.227	740.938
200.432	23.650	917.245	739.006
201.446	23.400	916.814	737.553
202.461	23.429	916.165	737.085
203.475	22.742	914.436	732.778
204.490	21.949	913.051	728.314
205.504	22.798	913.517	732.141
206.519	23.445	913.582	734.813
207.534	23.633	913.026	735.077
208.548	23.903	912.949	736.068
209.563	23.668	911.921	734.203
210.577	23.656	911.289	733.583
211.592	23.966	910.855	734.446
212.607	23.964	909.854	733.567
213.621	24.149	909.287	733.805
214.636	24.040	908.773	732.878
215.650	23.796	907.848	731.063
216.665	24.178	907.294	732.123
217.680	24.032	906.679	730.960
218.694	23.643	905.288	728.181
219.709	23.431	904.803	726.857
220.723	23.827	904.207	727.938
221.738	23.891	903.552	727.606
222.753	23.852	903.466	727.313
223.767	23.979	902.635	727.100
224.782	24.079	902.584	727.400
225.796	24.122	901.813	726.890
226.811	23.524	900.277	723.152
227.826	22.947	899.059	719.761
228.840	22.987	898.607	719.495
229.855	23.195	897.751	719.595
230.869	22.657	896.928	716.683
231.884	23.042	896.842	718.118
232.899	23.906	897.399	722.007
233.913	23.848	896.353	720.866
234.928	23.831	895.625	720.150
235.942	23.667	895.116	719.013
236.957	23.459	893.994	717.207
237.972	23.439	893.757	716.874
238.986	23.520	893.000	716.531
240.001	23.614	892.439	716.396
241.015	23.615	891.858	715.870
242.030	23.799	891.499	716.260
243.045	23.860	891.258	716.247
244.059	24.020	890.837	716.492
245.074	23.970	889.661	715.282
246.088	23.408	888.983	712.415
247.103	23.676	888.676	713.182
248.117	24.321	888.453	715.528
249.132	24.513	887.964	715.840
250.147	24.703	887.570	716.220
251.161	24.844	886.978	716.245
252.176	24.701	886.290	715.055
253.190	24.804	885.746	714.964
254.205	25.073	885.350	715.656
255.220	24.898	884.947	714.566
256.234	24.696	884.364	713.229
257.249	24.561	883.453	711.893
258.263	24.613	882.677	711.410
259.278	24.881	881.865	711.758
260.293	24.896	881.600	711.543
261.307	24.706	881.237	710.432
262.322	24.437	880.232	708.489
263.336	23.832	877.893	704.148
264.351	22.762	876.357	698.619
265.366	22.900	875.889	698.731
266.380	23.881	876.591	703.110
267.395	24.422	876.366	705.008
268.409	24.282	875.780	703.920
269.424	24.406	875.264	703.931
270.439	24.500	874.564	703.679
271.453	24.604	874.038	703.602
272.468	24.760	873.851	704.003
273.482	24.756	873.509	703.650
274.497	24.429	872.078	701.148
275.512	23.950	871.253	698.543
276.526	24.470	871.062	700.370
277.541	24.675	871.060	701.109
278.555	24.476	869.879	699.318
279.570	24.308	869.079	697.955
280.585	24.472	868.587	698.139
281.599	24.376	867.881	697.138
282.614	23.753	866.808	693.780
283.628	23.860	866.021	693.505
284.643	24.119	865.699	694.197
285.657	23.711	864.797	691.824
286.672	23.453	864.010	690.128
287.687	23.987	863.998	692.134
288.701	24.282	862.824	692.280
289.716	23.815	862.300	689.985
290.730	23.737	861.693	689.135
291.745	23.656	860.669	687.942
292.760	23.725	860.700	688.171
293.774	24.682	861.445	692.418
294.789	25.188	860.703	693.715
295.803	25.248	860.244	693.515
296.818	25.312	859.634	693.213
297.833	24.754	858.199	689.840
298.847	24.565	857.460	688.458
299.862	25.038	857.562	690.302
300.876	25.084	857.563	690.417
301.891	25.151	856.606	689.846
302.906	24.781	855.623	687.571
303.920	24.829	855.321	687.452
304.935	25.186	855.055	688.546
305.949	25.013	854.594	687.452
306.964	24.708	853.868	685.638
307.979	24.936	853.361	686.041
308.993	25.085	853.444	686.618
310.008	25.148	852.757	686.248
311.022	25.022	851.420	684.628
312.037	24.868	850.736	683.429
313.052	24.766	849.886	682.299
314.066	23.781	848.587	677.442
315.081	23.357	847.730	675.083
316.095	24.210	848.104	678.571
317.110	24.675	848.137	680.308
318.125	24.032	846.482	676.475
319.139	22.901	845.190	671.088
320.154	22.785	844.786	670.268
321.168	23.688	844.845	673.682
322.183	24.361	845.364	676.593
323.197	24.730	844.473	677.216
324.212	24.784	844.578	677.446
325.227	24.920	844.000	677.435
326.241	24.817	842.837	676.055
327.256	24.668	842.541	675.195
328.270	24.635	841.943	674.530
329.285	24.449	840.851	672.893
330.300	24.117	840.450	671.261
331.314	24.443	840.060	672.119
332.329	24.825	840.114	673.541
333.343	24.910	840.008	673.717
334.358	24.972	839.289	673.313
335.373	24.923	838.900	672.759
336.387	25.229	838.822	673.785
337.402	25.506	838.671	674.645
338.416	25.337	838.164	673.544
339.431	25.292	838.203	673.344
340.446	25.593	837.807	674.096
341.460	25.432	837.093	672.857
342.475	25.341	836.225	671.762
343.489	25.451	835.767	671.745
344.504	25.726	835.785	672.726
345.519	25.853	835.373	672.813
346.533	25.730	834.773	671.809
347.548	25.731	834.392	671.447
348.562	25.770	834.001	671.216
349.577	25.714	833.274	670.366
350.592	25.587	832.679	669.356
351.606	25.593	831.902	668.694
352.621	25.542	830.973	667.697
353.635	25.427	830.441	666.784
354.650	24.782	828.920	663.115
355.665	23.974	827.346	658.805
356.679	24.268	827.281	659.785
357.694	24.750	826.466	660.858
358.708	24.765	825.846	660.357
359.723	25.118	826.128	661.830
360.738	25.477	825.894	662.908
361.752	25.565	824.921	662.391
362.767	25.671	825.168	662.923
363.781	26.130	824.459	663.983
364.796	26.018	824.407	663.468
365.810	26.176	823.881	663.568
366.825	26.052	823.573	662.805
367.840	26.022	822.215	661.543
368.854	25.558	821.493	659.205
369.869	25.550	821.148	658.841
370.883	25.490	820.943	658.399
371.898	25.587	820.173	658.077
372.913	25.526	820.390	657.971
373.927	25.634	819.551	657.635
374.942	25.827	819.244	658.033
375.956	25.960	819.061	658.314
376.971	25.871	818.786	657.710
377.986	26.056	818.386	658.006
379.000	26.005	817.593	657.125
380.015	25.958	817.088	656.489
381.029	26.021	816.400	656.107
382.044	26.140	815.822	656.016
383.059	26.085	815.486	655.490
384.073	25.941	815.337	654.788
385.088	26.082	814.535	654.596
386.102	25.847	813.700	653.019
387.117	25.772	812.966	652.099
388.132	25.427	812.140	650.131
389.146	25.032	811.016	647.745
390.161	25.387	810.930	648.903
391.175	25.811	810.846	650.309
392.190	25.742	809.208	648.689
393.205	24.287	807.781	642.248
394.219	22.838	805.887	635.476
395.234	22.613	805.510	634.315
396.248	24.138	807.209	641.089
397.263	25.616	808.092	647.053
398.278	25.598	807.819	646.712
399.292	25.339	807.156	645.196
400.307	25.303	806.464	644.455
401.321	25.555	806.104	645.015
402.336	26.001	805.905	646.399
403.350	26.055	806.512	647.021
404.365	26.646	805.816	648.522
405.380	26.717	805.563	648.515
406.394	26.883	804.711	648.364
407.409	26.772	804.451	647.700
408.423	26.747	803.876	647.090
409.438	26.786	803.417	646.806
410.453	26.853	803.127	646.753
411.467	26.807	802.484	646.015
412.482	26.762	802.193	645.564
413.496	26.904	801.869	645.749
414.511	26.786	801.707	645.144
415.526	26.923	800.837	644.873
416.540	26.689	800.264	643.524
417.555	26.482	799.749	642.317
418.569	26.590	798.991	642.033
419.584	26.560	798.716	641.648
420.599	26.388	798.278	640.632
421.613	87.162	1246.572	1322.773
422.628	74.319	1311.903	1322.891
