DTS Sentinel unit serial number:	SN413079Multiplexer serial number:	ORYXHardware model number:	OX4-SRSoftware version number:	ORYX F/W v4.00 Oryx Data Collector v3.7.2.0data status	okinstallation	princeton_trtdifferential loss correction	single-endedforward channel	channel 1reverse channel	N/Adate	2019/09/19time	02:34:35forward acquisition time	60.00reverse acquisition time	0.00gamma	496.2192k internal	0.2344k external	0.2344temperature offset calibration	1.0020default loss term (dB/km)	0.3790temperature slope calibration	1.0000multiplexer offset coefficient	1.0000multiplexer slope coefficient	1.0000fibre end	0.00T internal ref (°C)	21.00T ext. ref 1 (°C)	0.67T ext. ref 2 (°C)	14.77length (m)	temperature (°C)	Stokes	anti-Stokes-747.200	-174.092	0.143	-0.004
-746.185	-6.195	-0.274	-0.188
-745.171	-116.100	-0.155	0.029
-744.156	266.747	0.194	0.339
-743.142	130.053	0.142	-0.182
-742.127	-94.132	-0.333	0.091
-741.112	800.000	0.080	0.296
-740.098	118.127	-0.085	0.105
-739.083	23.999	-0.301	-0.248
-738.069	153.234	-0.119	0.163
-737.054	-109.854	-0.074	-0.016
-736.039	230.663	-0.059	-0.096
-735.025	800.000	-0.038	0.148
-734.010	46.872	-0.225	-0.209
-732.996	800.000	0.126	-0.390
-731.981	-164.432	-0.146	-0.007
-730.966	-88.948	0.135	0.040
-729.952	-164.381	0.079	0.004
-728.937	-141.572	-0.265	-0.027
-727.923	68.409	0.246	-0.252
-726.908	447.220	-0.132	-0.290
-725.894	-126.216	-0.309	0.046
-724.879	-30.871	-0.054	-0.030
-723.864	-94.065	-0.293	-0.080
-722.850	0.304	-0.122	-0.087
-721.835	-87.783	-0.226	-0.068
-720.821	800.000	0.131	0.422
-719.806	-165.939	-0.191	0.008
-718.791	800.000	-0.089	-0.254
-717.777	341.747	0.049	0.096
-716.762	-145.198	0.313	-0.028
-715.748	253.044	0.089	-0.152
-714.733	217.385	-0.133	0.212
-713.718	-128.795	0.151	0.021
-712.704	-138.908	-0.217	-0.024
-711.689	800.000	0.064	-0.273
-710.675	-129.919	0.206	0.028
-709.660	-200.000	0.001	-0.124
-708.645	-149.321	0.385	0.031
-707.631	-135.872	-0.190	-0.022
-706.616	293.480	0.164	-0.299
-705.602	-50.312	0.111	-0.053
-704.587	18.059	0.294	0.234
-703.572	149.510	0.118	0.160
-702.558	-200.000	0.037	-0.201
-701.543	800.000	-0.057	0.195
-700.529	308.038	0.085	0.159
-699.514	29.378	-0.394	-0.335
-698.499	800.000	0.039	-0.129
-697.485	109.981	-0.292	-0.350
-696.470	112.429	-0.132	0.160
-695.456	-86.376	0.373	0.115
-694.441	15.655	0.209	-0.164
-693.426	35.793	0.237	0.209
-692.412	87.209	-0.117	-0.129
-691.397	-77.677	0.175	0.060
-690.383	-17.015	-0.276	0.174
-689.368	-60.318	-0.142	-0.060
-688.354	-200.000	0.016	0.423
-687.339	800.000	0.008	0.029
-686.324	73.590	-0.146	-0.152
-685.310	-86.110	-0.109	-0.034
-684.295	-19.875	-0.375	-0.231
-683.281	229.485	-0.054	-0.088
-682.266	-200.000	-0.038	0.233
-681.251	-200.000	-0.080	-0.552
-680.237	800.000	-0.048	-0.136
-679.222	132.087	0.103	-0.132
-678.208	-199.038	0.198	-0.001
-677.193	-53.842	0.178	0.081
-676.178	-175.096	-0.306	-0.008
-675.164	-126.974	0.243	-0.036
-674.149	236.494	0.090	0.149
-673.135	-200.000	0.015	0.068
-672.120	147.491	-0.137	0.184
-671.105	800.000	0.052	-0.178
-670.091	-118.957	0.194	-0.034
-669.076	-200.000	-0.035	-0.224
-668.062	-13.229	-0.402	-0.261
-667.047	-138.348	-0.342	-0.038
-666.032	239.136	-0.169	0.281
-665.018	-107.131	0.080	0.018
-664.003	800.000	0.059	-0.234
-662.989	325.232	0.132	-0.253
-661.974	-158.743	0.177	-0.010
-660.959	269.100	-0.127	0.222
-659.945	-200.000	0.047	-0.315
-658.930	363.962	-0.113	0.226
-657.916	-122.623	-0.027	0.004
-656.901	522.192	-0.164	-0.383
-655.886	221.097	-0.163	-0.262
-654.872	20.082	-0.160	0.129
-653.857	124.995	0.216	-0.271
-652.843	570.673	0.061	0.148
-651.828	30.468	-0.094	-0.080
-650.814	-64.798	-0.345	0.139
-649.799	-73.145	-0.122	-0.045
-648.784	-105.595	-0.087	0.020
-647.770	-70.042	-0.368	-0.140
-646.755	508.549	0.137	0.318
-645.741	134.799	-0.216	0.280
-644.726	-24.292	0.126	0.075
-643.711	-191.737	0.229	-0.002
-642.697	570.309	-0.115	0.280
-641.682	179.667	0.108	0.157
-640.668	162.251	-0.024	-0.033
-639.653	-61.177	0.031	-0.013
-638.638	48.258	0.069	-0.064
-637.624	-200.000	0.007	-0.258
-636.609	11.787	-0.195	-0.149
-635.595	164.851	0.182	-0.256
-634.580	-200.000	-0.026	-0.212
-633.565	324.867	-0.071	-0.136
-632.551	800.000	-0.076	0.286
-631.536	119.694	0.114	0.141
-630.522	-163.052	0.163	-0.008
-629.507	155.565	0.302	0.415
-628.492	46.350	0.197	-0.182
-627.478	123.686	0.155	0.194
-626.463	-200.000	-0.024	-0.251
-625.449	33.179	-0.134	-0.116
-624.434	-65.537	-0.251	-0.100
-623.419	-72.809	0.164	-0.060
-622.405	-200.000	-0.019	-0.139
-621.390	269.040	-0.103	0.180
-620.376	-64.876	-0.188	0.076
-619.361	94.342	-0.015	-0.017
-618.346	100.109	0.244	-0.282
-617.332	-168.157	0.166	-0.006
-616.317	-147.446	-0.285	-0.024
-615.303	-29.362	-0.142	0.081
-614.288	98.711	-0.087	-0.100
-613.273	-90.150	0.436	-0.126
-612.259	-66.422	-0.155	0.061
-611.244	179.893	-0.090	0.131
-610.230	397.494	-0.148	0.309
-609.215	154.154	0.160	0.218
-608.201	418.302	0.098	-0.208
-607.186	1.487	0.128	-0.092
-606.171	-102.212	-0.194	0.046
-605.157	-167.985	-0.256	-0.010
-604.142	-55.721	-0.433	-0.193
-603.128	-123.473	0.241	0.038
-602.113	800.000	0.044	0.159
-601.098	467.691	0.019	-0.042
-600.084	388.178	0.058	0.119
-599.069	20.089	0.173	-0.139
-598.055	-200.000	-0.019	0.173
-597.040	53.056	-0.093	-0.089
-596.025	800.000	-0.138	0.402
-595.011	184.517	0.038	-0.056
-593.996	20.264	0.183	0.147
-592.982	5.183	0.193	-0.141
-591.967	800.000	-0.040	0.129
-590.952	479.902	0.054	-0.121
-589.938	127.825	-0.096	-0.122
-588.923	-200.000	-0.061	-0.375
-587.909	-142.539	-0.141	-0.014
-586.894	338.559	-0.166	-0.322
-585.879	8.944	-0.249	-0.187
-584.865	268.073	0.093	-0.162
-583.850	800.000	0.067	-0.227
-582.836	800.000	-0.068	0.192
-581.821	357.775	0.270	0.537
-580.806	-55.837	-0.086	-0.038
-579.792	152.232	-0.190	0.258
-578.777	-70.370	-0.209	-0.079
-577.763	-200.000	-0.312	0.001
-576.748	-91.864	-0.110	-0.031
-575.733	-200.000	0.027	0.228
-574.719	-92.888	-0.235	-0.065
-573.704	36.885	-0.281	-0.247
-572.690	-119.895	-0.113	0.019
-571.675	-93.084	-0.149	0.041
-570.661	109.513	0.099	-0.118
-569.646	213.091	-0.027	-0.042
-568.631	800.000	0.070	-0.288
-567.617	191.057	-0.181	0.271
-566.602	-200.000	-0.011	-0.075
-565.588	53.525	-0.077	-0.073
-564.573	-200.000	-0.006	-0.083
-563.558	94.729	-0.077	-0.088
-562.544	-87.947	-0.160	0.048
-561.529	83.634	-0.257	-0.279
-560.515	616.720	-0.115	0.286
-559.500	33.595	0.134	0.115
-558.485	18.138	0.189	-0.149
-557.471	-127.772	0.016	-0.002
-556.456	-85.412	0.210	0.065
-555.442	16.828	-0.221	0.174
-554.427	209.092	-0.178	-0.276
-553.412	-79.738	0.214	0.072
-552.398	-52.596	-0.174	0.080
-551.383	-81.596	-0.181	-0.059
-550.369	70.729	-0.257	0.265
-549.354	-114.579	-0.336	0.064
-548.339	241.969	0.192	-0.319
-547.325	-200.000	-0.058	-0.258
-546.310	19.196	-0.144	-0.115
-545.296	90.321	0.056	0.063
-544.281	-126.274	-0.282	-0.042
-543.266	-72.462	0.301	0.111
-542.252	-83.737	-0.049	-0.016
-541.237	32.633	-0.062	0.053
-540.223	-32.723	-0.161	0.089
-539.208	43.815	0.245	-0.223
-538.193	-58.960	-0.326	0.140
-537.179	154.399	0.225	0.307
-536.164	573.495	-0.076	0.183
-535.150	-38.818	0.198	-0.104
-534.135	800.000	-0.042	-0.127
-533.121	-160.582	0.232	-0.012
-532.106	346.230	0.094	-0.184
-531.091	-75.986	-0.072	0.025
-530.077	800.000	-0.062	0.208
-529.062	293.676	0.129	0.233
-528.048	178.779	0.035	0.050
-527.033	217.463	-0.093	0.147
-526.018	-84.103	0.155	-0.049
-525.004	800.000	0.075	-0.229
-523.989	-200.000	0.038	0.173
-522.975	39.845	-0.223	-0.198
-521.960	728.853	-0.029	-0.077
-520.945	-78.884	0.229	0.077
-519.931	100.085	0.290	0.334
-518.916	-69.323	0.364	-0.139
-517.902	-200.000	-0.003	0.075
-516.887	800.000	-0.026	0.108
-515.872	13.825	0.294	-0.227
-514.858	6.246	-0.196	0.144
-513.843	400.677	0.115	0.240
-512.829	38.741	-0.130	-0.115
-511.814	-23.250	0.182	0.108
-510.799	800.000	0.075	0.240
-509.785	109.381	-0.080	0.096
-508.770	-200.000	-0.032	0.174
-507.756	-114.173	0.124	0.024
-506.741	165.637	0.055	0.077
-505.726	-200.000	0.030	0.149
-504.712	-84.469	0.053	0.017
-503.697	-126.380	0.274	-0.041
-502.683	26.647	0.242	-0.201
-501.668	-88.343	-0.212	0.063
-500.653	216.474	-0.147	0.232
-499.639	-138.792	-0.221	0.024
-498.624	-42.180	0.135	0.069
-497.610	800.000	-0.070	-0.205
-496.595	-80.252	0.078	-0.026
-495.581	331.320	0.112	0.214
-494.566	-42.507	-0.109	0.055
-493.551	167.371	-0.199	0.280
-492.537	245.992	0.080	-0.134
-491.522	-134.705	0.187	-0.023
-490.508	195.325	0.082	0.123
-489.493	-64.558	-0.323	-0.130
-488.478	21.396	0.350	0.282
-487.464	102.233	-0.060	0.069
-486.449	-29.436	-0.166	-0.094
-485.435	800.000	0.044	-0.150
-484.420	-86.991	0.367	-0.111
-483.405	-71.816	-0.351	0.130
-482.391	-132.444	-0.236	-0.030
-481.376	-146.039	0.253	-0.022
-480.362	57.384	-0.073	-0.070
-479.347	-63.610	-0.296	0.120
-478.332	-195.219	0.295	-0.002
-477.318	139.016	0.120	0.157
-476.303	-200.000	-0.008	0.038
-475.289	-183.510	-0.215	0.004
-474.274	-19.746	0.153	0.094
-473.259	800.000	-0.078	-0.255
-472.245	456.026	0.023	0.051
-471.230	-200.000	-0.009	-0.188
-470.216	-117.073	0.285	0.052
-469.201	390.824	0.084	0.173
-468.186	361.326	-0.072	0.143
-467.172	64.815	-0.239	0.239
-466.157	-76.449	0.072	0.025
-465.143	269.103	-0.085	0.149
-464.128	503.944	0.158	0.363
-463.113	-145.883	0.065	-0.006
-462.099	-200.000	-0.036	0.219
-461.084	-200.000	0.032	0.288
-460.070	-39.432	-0.265	0.137
-459.055	-61.632	0.287	-0.119
-458.040	137.485	0.187	0.242
-457.026	157.127	0.185	-0.254
-456.011	692.683	0.058	-0.151
-454.997	-44.504	-0.140	0.069
-453.982	-102.372	0.222	0.053
-452.968	-69.711	-0.239	-0.090
-451.953	455.394	0.106	-0.233
-450.938	175.811	-0.169	-0.243
-449.924	-23.765	0.185	0.110
-448.909	471.430	-0.054	0.121
-447.895	800.000	0.051	-0.153
-446.880	-155.863	0.397	0.025
-445.865	20.466	0.072	-0.058
-444.851	477.656	0.072	0.160
-443.836	635.464	-0.103	-0.258
-442.822	-78.048	-0.042	0.014
-441.807	315.543	-0.064	-0.119
-440.792	-200.000	0.031	-0.178
-439.778	-34.923	-0.197	0.106
-438.763	765.170	0.121	-0.324
-437.749	-33.699	-0.115	-0.063
-436.734	-81.007	0.239	-0.078
-435.719	90.769	0.105	-0.117
-434.705	-49.664	-0.092	-0.043
-433.690	-173.950	-0.241	0.007
-432.676	76.296	0.078	0.082
-431.661	224.212	-0.112	-0.179
-430.646	345.624	-0.198	0.384
-429.632	-71.503	-0.230	0.085
-428.617	-137.250	-0.036	-0.004
-427.603	79.402	0.131	0.139
-426.588	311.981	0.093	-0.172
-425.573	14.458	-0.335	0.258
-424.559	-200.000	0.007	0.375
-423.544	15.001	-0.123	0.095
-422.530	119.677	-0.095	-0.117
-421.515	-200.000	-0.049	0.306
-420.500	-26.352	-0.139	0.081
-419.486	800.000	0.049	0.188
-418.471	-172.092	0.168	-0.005
-417.457	164.910	-0.148	-0.207
-416.442	40.083	0.196	0.174
-415.428	-200.000	0.005	0.087
-414.413	-163.148	-0.066	-0.003
-413.398	-65.427	-0.235	-0.093
-412.384	216.606	-0.049	-0.077
-411.369	-190.974	-0.270	-0.003
-410.355	800.000	-0.054	0.186
-409.340	645.464	0.111	0.281
-408.325	14.636	0.368	0.284
-407.311	800.000	0.034	-0.113
-406.296	-110.102	-0.108	-0.022
-405.282	-32.741	-0.176	-0.096
-404.267	800.000	0.094	-0.259
-403.252	-60.650	0.299	0.125
-402.238	-200.000	0.067	-0.351
-401.223	-141.502	-0.160	-0.016
-400.209	-95.416	-0.077	-0.021
-399.194	-98.630	-0.325	0.082
-398.179	-166.348	-0.258	-0.011
-397.165	-26.950	-0.097	0.056
-396.150	-81.793	-0.194	-0.063
-395.136	109.147	0.182	-0.215
-394.121	-81.181	0.250	-0.082
-393.106	188.967	0.149	0.220
-392.092	75.911	0.170	-0.178
-391.077	-200.000	-0.034	-0.332
-390.063	-25.646	0.238	-0.139
-389.048	-77.569	0.132	-0.045
-388.033	108.433	-0.283	0.333
-387.019	-200.000	0.023	0.168
-386.004	-37.152	0.205	0.108
-384.990	-51.177	-0.168	-0.078
-383.975	260.328	-0.101	-0.173
-382.960	229.103	0.069	-0.111
-381.946	-116.811	0.309	-0.056
-380.931	-136.219	-0.020	0.002
-379.917	-146.018	0.144	0.013
-378.902	-200.000	-0.018	-0.133
-377.888	634.944	-0.072	-0.179
-376.873	-144.298	0.449	-0.041
-375.858	-200.000	0.001	-0.272
-374.844	-200.000	0.003	-0.084
-373.829	-93.033	-0.057	0.016
-372.815	-34.224	-0.169	-0.091
-371.800	19.070	0.102	0.080
-370.785	800.000	-0.104	-0.283
-369.771	37.024	-0.151	-0.132
-368.756	465.955	0.128	-0.283
-367.742	218.656	-0.054	-0.085
-366.727	541.917	0.090	-0.211
-365.712	800.000	0.064	0.262
-364.698	-12.470	0.027	0.018
-363.683	10.934	-0.237	0.179
-362.669	-200.000	0.030	-0.216
-361.654	-112.567	0.412	-0.081
-360.639	176.920	0.067	0.096
-359.625	-56.857	0.093	-0.040
-358.610	-93.666	-0.117	0.032
-357.596	-200.000	0.005	-0.259
-356.581	-93.959	0.267	-0.072
-355.566	43.133	-0.161	-0.145
-354.552	-76.231	0.307	-0.107
-353.537	133.164	-0.134	-0.170
-352.523	-126.349	0.380	0.056
-351.508	172.492	0.009	0.013
-350.493	734.299	-0.084	0.222
-349.479	-20.128	-0.231	0.140
-348.464	282.974	-0.054	0.095
-347.450	-65.267	0.204	0.081
-346.435	-13.340	-0.269	-0.172
-345.420	12.958	0.179	-0.136
-344.406	-25.352	0.056	0.033
-343.391	104.608	0.103	-0.119
-342.377	-200.000	0.019	0.179
-341.362	544.899	-0.134	0.315
-340.348	254.534	-0.215	0.363
-339.333	-4.307	-0.257	-0.175
-338.318	153.780	-0.152	0.205
-337.304	608.430	-0.210	-0.517
-336.289	-157.611	-0.361	0.021
-335.275	800.000	0.091	-0.368
-334.260	-72.799	-0.163	-0.059
-333.245	-85.759	-0.365	-0.111
-332.231	-94.635	0.306	0.082
-331.216	188.546	0.182	-0.269
-330.202	59.477	-0.259	-0.251
-329.187	512.643	0.087	0.199
-328.172	700.982	0.069	0.179
-327.158	-200.000	-0.012	0.128
-326.143	-9.589	-0.064	0.042
-325.129	-31.223	-0.255	0.142
-324.114	-130.243	0.127	-0.017
-323.099	800.000	-0.059	0.164
-322.085	100.760	-0.109	-0.125
-321.070	-149.276	-0.153	-0.012
-320.056	-140.584	0.207	-0.021
-319.041	-193.615	-0.067	0.001
-318.026	442.617	-0.049	-0.105
-317.012	-200.000	-0.021	0.193
-315.997	-200.000	-0.003	0.329
-314.983	-167.415	0.181	-0.007
-313.968	-200.000	-0.010	-0.059
-312.953	431.938	-0.051	0.108
-311.939	314.690	0.176	-0.326
-310.924	58.729	-0.222	-0.215
-309.910	-158.357	0.132	-0.008
-308.895	-10.466	0.121	-0.079
-307.880	-78.371	0.112	-0.038
-306.866	154.716	0.255	-0.345
-305.851	-146.063	0.278	-0.024
-304.837	-162.816	0.135	0.006
-303.822	-20.423	-0.061	-0.037
-302.807	197.800	0.076	0.114
-301.793	-73.333	-0.348	-0.125
-300.778	800.000	0.102	0.320
-299.764	-200.000	0.008	-0.051
-298.749	800.000	0.107	0.411
-297.735	-200.000	-0.340	0.000
-296.720	451.597	-0.088	0.191
-295.705	30.303	-0.212	0.178
-294.691	-53.954	0.149	-0.067
-293.676	-134.059	0.426	-0.052
-292.662	233.910	-0.125	-0.203
-291.647	22.431	-0.178	0.143
-290.632	800.000	0.049	-0.213
-289.618	-57.614	-0.169	-0.073
-288.603	169.171	-0.254	-0.356
-287.589	-122.688	0.285	0.045
-286.574	-125.831	0.267	-0.040
-285.559	-200.000	-0.003	-0.017
-284.545	800.000	0.046	0.137
-283.530	-59.397	0.157	0.066
-282.516	-200.000	-0.031	0.401
-281.501	-129.260	0.312	0.043
-280.486	6.572	0.070	0.051
-279.472	-49.234	-0.169	0.079
-278.457	54.926	-0.309	0.293
-277.443	-29.211	-0.067	-0.038
-276.428	49.690	-0.036	-0.033
-275.413	-119.170	-0.150	-0.026
-274.399	9.764	-0.227	0.169
-273.384	358.481	0.129	-0.252
-272.370	-200.000	0.002	0.063
-271.355	800.000	0.089	-0.280
-270.340	132.943	-0.060	0.076
-269.326	-200.000	0.009	-0.139
-268.311	800.000	-0.153	-0.436
-267.297	152.805	-0.031	-0.042
-266.282	20.738	-0.107	0.085
-265.267	-72.715	-0.139	0.050
-264.253	-175.504	0.207	-0.006
-263.238	-200.000	-0.011	0.103
-262.224	209.769	0.164	-0.253
-261.209	105.607	-0.099	0.115
-260.195	196.196	0.192	0.286
-259.180	131.146	-0.230	0.291
-258.165	-10.632	0.116	0.076
-257.151	-200.000	-0.021	-0.124
-256.136	32.822	0.079	-0.067
-255.122	234.855	0.091	-0.148
-254.107	147.699	0.106	-0.141
-253.092	12.490	0.113	-0.085
-252.078	432.950	0.111	-0.236
-251.063	20.155	0.221	0.175
-250.049	-95.290	-0.180	0.048
-249.034	106.205	0.270	-0.313
-248.019	7.971	-0.074	-0.054
-247.005	-51.629	0.180	-0.083
-245.990	181.260	-0.052	0.075
-244.976	-200.000	0.070	-0.382
-243.961	61.037	-0.264	-0.257
-242.946	800.000	0.103	0.323
-241.932	-48.174	0.270	0.128
-240.917	-166.702	-0.259	-0.011
-239.903	-200.000	-0.001	0.173
-238.888	-200.000	-0.067	0.426
-237.873	-72.771	-0.287	0.104
-236.859	-186.565	0.349	-0.005
-235.844	800.000	-0.008	0.025
-234.830	-66.467	-0.166	-0.065
-233.815	-68.961	-0.160	0.060
-232.800	-200.000	0.014	0.075
-231.786	161.195	-0.060	0.082
-230.771	-87.395	0.131	0.039
-229.757	51.227	-0.205	0.191
-228.742	173.087	-0.053	0.074
-227.727	-177.582	0.275	-0.007
-226.713	294.546	0.052	0.093
-225.698	800.000	-0.061	-0.172
-224.684	108.455	0.113	0.132
-223.669	-200.000	0.029	-0.184
-222.655	153.508	-0.072	-0.096
-221.640	95.155	0.178	-0.199
-220.625	292.362	0.047	-0.084
-219.611	181.212	0.204	-0.294
-218.596	71.982	0.273	0.279
-217.582	800.000	-0.009	0.025
-216.567	-9.286	0.106	-0.070
-215.552	-80.888	0.319	0.104
-214.538	-52.986	-0.052	-0.023
-213.523	-110.713	-0.253	0.051
-212.509	-200.000	0.034	-0.199
-211.494	-133.618	0.275	0.034
-210.479	146.853	0.092	0.121
-209.465	114.373	-0.139	0.166
-208.450	-200.000	-0.020	0.214
-207.436	749.396	0.027	0.071
-206.421	681.760	-0.093	-0.237
-205.406	-75.516	-0.130	0.045
-204.392	-126.698	-0.405	0.059
-203.377	132.855	0.212	0.269
-202.363	-117.388	-0.032	-0.006
-201.348	328.228	-0.100	-0.188
-200.333	-200.000	-0.015	-0.072
-199.319	67.257	-0.062	0.062
-198.304	-10.106	0.093	-0.061
-197.290	705.764	0.156	0.404
-196.275	583.617	-0.088	-0.211
-195.260	800.000	0.081	-0.271
-194.246	-200.000	-0.099	-0.534
-193.231	111.759	0.048	0.057
-192.217	-16.084	-0.217	0.135
-191.202	-200.000	-0.051	0.653
-190.187	-54.127	0.419	-0.186
-189.173	800.000	-0.137	0.449
-188.158	569.513	0.156	-0.372
-187.144	800.000	-0.099	-0.324
-186.129	127.942	0.067	0.084
-185.114	591.274	-0.048	-0.116
-184.100	800.000	0.126	-0.348
-183.085	206.197	-0.126	-0.192
-182.071	155.174	0.076	-0.103
-181.056	-200.000	-0.017	-0.187
-180.042	-98.636	-0.317	0.079
-179.027	-38.257	0.252	0.131
-178.012	-200.000	-0.013	-0.238
-176.998	349.863	-0.158	0.306
-175.983	-200.000	0.014	-0.347
-174.969	-71.478	-0.094	-0.034
-173.954	162.976	-0.108	-0.148
-172.939	62.577	0.201	-0.197
-171.925	-200.000	0.048	0.337
-170.910	-183.715	0.189	-0.003
-169.896	66.971	-0.125	0.125
-168.881	201.786	-0.100	-0.151
-167.866	-153.040	0.104	0.007
-166.852	97.636	0.033	0.037
-165.837	191.451	0.217	-0.320
-164.823	179.692	0.121	-0.174
-163.808	95.598	0.236	-0.263
-162.793	-15.326	-0.160	0.100
-161.779	163.672	-0.073	-0.101
-160.764	119.746	0.043	0.052
-159.750	-114.022	-0.204	0.039
-158.735	103.603	-0.120	0.138
-157.720	-35.802	0.138	-0.073
-156.706	126.364	-0.152	0.188
-155.691	608.067	0.048	0.116
-154.677	800.000	-0.036	-0.138
-153.662	553.082	0.025	0.060
-152.647	16.652	0.219	0.170
-151.633	-200.000	-0.063	0.353
-150.618	92.494	-0.152	0.168
-149.604	47.225	0.114	0.104
-148.589	23.970	-0.099	0.080
-147.574	-200.000	-0.034	0.241
-146.560	359.529	0.248	-0.485
-145.545	181.816	0.085	-0.123
-144.531	43.298	0.119	-0.106
-143.516	-60.191	-0.283	-0.118
-142.502	-70.569	0.245	0.090
-141.487	-80.130	-0.139	0.045
-140.472	-200.000	0.001	-0.108
-139.458	103.384	-0.274	0.314
-138.443	173.539	-0.095	-0.134
-137.429	201.953	0.088	-0.132
-136.414	-45.186	-0.168	0.082
-135.399	-122.224	-0.100	0.016
-134.385	-200.000	-0.012	-0.131
-133.370	132.596	-0.116	0.147
-132.356	-79.131	0.146	0.048
-131.341	47.982	-0.142	-0.130
-130.326	-36.599	0.092	0.048
-129.312	36.245	-0.023	0.020
-128.297	252.420	0.078	0.129
-127.283	-66.044	-0.208	0.081
-126.268	-200.000	0.016	-0.265
-125.253	-78.502	0.289	0.097
-124.239	-19.082	0.202	0.123
-123.224	-96.678	0.196	-0.050
-122.210	-200.000	-0.053	0.306
-121.195	-200.000	-0.005	-0.107
-120.180	-61.301	0.090	0.037
-119.166	800.000	-0.094	-0.260
-118.151	-200.000	-0.017	-0.301
-117.137	-128.555	-0.185	0.026
-116.122	108.883	-0.096	0.112
-115.107	-78.438	0.255	0.085
-114.093	800.000	-0.101	0.339
-113.078	572.150	0.154	0.365
-112.064	-77.965	-0.173	-0.058
-111.049	-65.784	-0.382	-0.149
-110.034	70.543	0.258	0.261
-109.020	-90.597	0.259	-0.073
-108.005	263.232	-0.145	-0.247
-106.991	-51.951	-0.176	0.080
-105.976	-87.310	-0.392	0.116
-104.962	-118.103	0.324	-0.057
-103.947	-198.925	0.133	0.001
-102.932	6.572	0.188	0.136
-101.918	203.627	-0.144	-0.217
-100.903	-101.559	0.082	0.019
-99.889	98.752	0.095	-0.106
-98.874	35.807	-0.123	0.106
-97.859	-72.518	-0.129	-0.046
-96.845	-88.511	0.086	0.025
-95.830	-103.249	0.125	0.029
-94.816	800.000	-0.078	-0.250
-93.801	800.000	-0.109	0.300
-92.786	800.000	0.064	0.240
-91.772	68.059	-0.369	-0.369
-90.757	-20.741	0.050	-0.030
-89.743	-151.749	0.110	-0.008
-88.728	123.684	0.085	0.105
-87.713	429.417	0.118	-0.248
-86.699	-178.304	-0.164	0.004
-85.684	82.800	0.118	0.125
-84.670	-200.000	0.010	0.231
-83.655	-200.000	0.083	0.415
-82.640	-200.000	0.014	0.257
-81.626	-63.592	-0.286	0.115
-80.611	800.000	0.057	-0.235
-79.597	-200.000	-0.029	-0.201
-78.582	-155.388	-0.277	-0.017
-77.567	-200.000	-0.010	-0.293
-76.553	800.000	-0.037	-0.151
-75.538	-44.629	0.307	-0.149
-74.524	-56.099	0.172	-0.075
-73.509	77.633	0.075	-0.078
-72.494	-52.597	0.262	-0.118
-71.480	714.740	0.085	-0.219
-70.465	800.000	-0.145	-0.474
-69.451	51.770	0.273	-0.254
-68.436	-200.000	-0.012	0.225
-67.422	-159.180	0.101	-0.006
-66.407	-200.000	-0.004	0.256
-65.392	54.220	0.278	0.260
-64.378	112.553	-0.099	-0.117
-63.363	800.000	0.053	-0.187
-62.349	-45.202	0.279	-0.135
-61.334	39.238	-1.132	-0.987
-60.319	133.087	0.475	0.598
-59.305	305.204	-0.907	-1.643
-58.290	800.000	0.419	1.350
-57.276	386.061	0.728	1.463
-56.261	-200.000	135.174	679.717
-55.246	337.242	1676.430	3174.090
-54.232	134.092	2802.516	3537.059
-53.217	87.752	2171.684	2343.836
-52.203	32.085	1602.378	1345.789
-51.188	24.128	1351.388	1086.616
-50.173	22.041	1314.530	1044.537
-49.159	49.714	1388.777	1274.512
-48.144	46.126	1397.706	1260.689
-47.130	24.438	1344.800	1083.032
-46.115	21.302	1325.308	1048.503
-45.100	20.957	1320.195	1042.355
-44.086	20.841	1318.258	1040.092
-43.071	20.775	1315.289	1037.316
-42.057	20.860	1313.126	1036.073
-41.042	20.841	1312.080	1035.095
-40.027	20.926	1310.906	1034.631
-39.013	20.884	1308.771	1032.658
-37.998	21.001	1306.727	1031.693
-36.984	20.922	1305.238	1030.009
-35.969	21.077	1303.022	1029.137
-34.954	21.039	1301.679	1027.810
-33.940	21.022	1300.248	1026.540
-32.925	21.054	1299.353	1025.980
-31.911	21.107	1297.060	1024.441
-30.896	20.978	1296.443	1023.153
-29.881	21.126	1294.610	1022.536
-28.867	21.133	1293.209	1021.428
-27.852	21.114	1291.737	1020.114
-26.838	21.128	1291.174	1019.712
-25.823	21.095	1289.232	1017.945
-24.809	21.010	1288.148	1016.550
-23.794	21.026	1286.706	1015.467
-22.779	21.039	1285.583	1014.616
-21.765	21.042	1284.379	1013.643
-20.750	21.020	1283.329	1012.648
-19.736	20.963	1281.676	1010.974
-18.721	20.893	1280.715	1009.766
-17.706	20.954	1279.834	1009.390
-16.692	20.997	1278.596	1008.620
-15.677	21.008	1277.356	1007.667
-14.663	21.011	1275.888	1006.486
-13.648	20.919	1275.408	1005.536
-12.633	20.884	1274.407	1004.506
-11.619	20.852	1273.487	1003.558
-10.604	20.935	1272.839	1003.480
-9.590	21.018	1271.477	1002.846
-8.575	20.973	1270.812	1002.022
-7.560	21.024	1269.409	1001.167
-6.546	20.982	1269.110	1000.654
-5.531	20.993	1268.194	999.955
-4.517	21.009	1267.237	999.249
-3.502	21.052	1266.711	999.041
-2.487	20.945	1265.554	997.478
-1.473	20.844	1261.226	993.454
-0.458	19.347	1245.692	972.736
0.556	14.852	1230.626	935.355
1.571	11.304	1239.263	921.812
2.586	10.775	1255.054	930.446
3.600	11.027	1242.547	922.520
4.615	8.299	1171.112	854.818
5.629	3.146	1101.882	778.197
6.644	0.714	1085.481	754.420
7.659	0.607	1083.558	752.483
8.673	0.716	1082.983	752.557
9.688	0.623	1081.916	751.290
10.702	0.814	1079.204	750.286
11.717	3.973	1082.327	768.085
12.731	10.589	1090.508	806.817
13.746	15.512	1098.172	837.011
14.761	17.269	1099.501	846.711
15.775	16.577	1098.051	842.075
16.790	15.673	1095.898	835.855
17.804	14.826	1094.422	830.450
18.819	14.510	1093.190	827.876
19.834	14.358	1092.237	826.323
20.848	14.172	1091.623	824.865
21.863	13.851	1090.556	822.396
22.877	13.826	1089.539	821.430
23.892	13.650	1089.157	820.201
24.907	13.740	1088.432	820.025
25.921	13.822	1087.576	819.715
26.936	13.820	1086.716	818.985
27.950	13.776	1085.691	817.922
28.965	13.905	1084.372	817.493
29.980	13.938	1082.743	816.352
30.994	13.896	1082.151	815.629
32.009	13.980	1080.877	815.010
33.023	14.027	1079.768	814.329
34.038	13.885	1079.217	813.147
35.053	13.879	1078.334	812.382
36.067	13.893	1077.235	811.548
37.082	13.895	1076.537	810.963
38.096	13.805	1075.958	810.014
39.111	13.871	1075.271	809.749
40.126	13.844	1073.901	808.512
41.140	13.773	1072.823	807.282
42.155	13.744	1072.109	806.536
43.169	13.688	1070.762	805.175
44.184	13.882	1069.380	805.008
45.199	13.698	1068.810	803.615
46.213	13.816	1067.757	803.324
47.228	13.880	1066.280	802.450
48.242	13.754	1065.704	801.338
49.257	13.783	1064.281	800.338
50.271	13.826	1063.560	799.931
51.286	13.879	1062.713	799.477
52.301	13.874	1061.336	798.349
53.315	13.810	1060.567	797.393
54.330	13.780	1059.797	796.600
55.344	13.823	1058.930	796.082
56.359	13.700	1058.306	794.952
57.374	13.753	1057.369	794.434
58.388	13.733	1056.416	793.549
59.403	13.708	1055.364	792.572
60.417	13.744	1054.209	791.807
61.432	13.521	1053.685	790.276
62.447	13.701	1052.843	790.433
63.461	13.682	1051.450	789.226
64.476	13.662	1050.879	788.632
65.490	13.547	1050.497	787.730
66.505	13.698	1049.471	787.610
67.520	13.728	1048.816	787.188
68.534	13.834	1047.872	786.913
69.549	13.609	1047.818	785.739
70.563	13.496	1047.104	784.595
71.578	13.523	1046.172	783.955
72.593	13.645	1045.084	783.648
73.607	13.675	1044.362	783.182
74.622	13.632	1043.913	782.570
75.636	13.745	1042.681	782.111
76.651	13.555	1042.687	781.149
77.666	13.637	1041.796	780.801
78.680	13.600	1041.320	780.200
79.695	13.730	1040.334	780.002
80.709	13.557	1040.081	778.934
81.724	13.745	1038.900	778.861
82.739	13.848	1038.140	778.708
83.753	13.819	1037.715	778.184
84.768	13.911	1036.285	777.473
85.782	13.992	1035.097	776.893
86.797	13.901	1034.529	775.968
87.812	13.794	1033.394	774.552
88.826	13.677	1032.666	773.390
89.841	13.845	1031.614	773.318
90.855	13.841	1030.723	772.564
91.870	13.972	1030.284	772.777
92.884	13.987	1028.916	771.752
93.899	13.861	1027.839	770.287
94.914	13.942	1027.377	770.249
95.928	14.065	1025.780	769.554
96.943	13.967	1025.351	768.710
97.957	13.852	1024.683	767.610
98.972	13.881	1023.814	767.026
99.987	14.013	1022.721	766.747
101.001	13.974	1021.783	765.799
102.016	13.853	1021.174	764.714
103.030	13.848	1020.661	764.242
104.045	13.871	1019.955	763.752
105.060	13.885	1018.656	762.774
106.074	13.871	1017.757	761.968
107.089	13.824	1016.817	760.982
108.103	13.833	1015.860	760.239
109.118	13.782	1014.927	759.243
110.133	13.988	1013.927	759.369
111.147	13.859	1013.180	758.152
112.162	13.884	1012.016	757.329
113.176	13.909	1011.534	757.014
114.191	13.866	1011.178	756.484
115.206	13.838	1010.053	755.448
116.220	13.814	1009.476	754.841
117.235	13.817	1008.079	753.742
118.249	13.804	1007.706	753.337
119.264	13.882	1006.917	753.037
120.279	13.699	1006.279	751.662
121.293	13.800	1005.304	751.328
122.308	13.898	1004.026	750.748
123.322	13.848	1003.246	749.870
124.337	13.926	1002.073	749.280
125.352	13.762	1001.458	748.013
126.366	13.788	1000.122	747.070
127.381	13.702	999.338	746.031
128.395	13.858	997.876	745.574
129.410	13.736	997.174	744.436
130.424	13.910	996.409	744.576
131.439	13.786	996.028	743.670
132.454	13.990	994.683	743.516
133.468	13.952	993.907	742.700
134.483	13.967	992.769	741.852
135.497	13.833	992.035	740.637
136.512	13.780	991.577	739.994
137.527	13.937	990.223	739.617
138.541	13.865	989.880	738.977
139.556	14.044	988.901	738.974
140.570	13.929	988.342	737.980
141.585	14.062	987.409	737.810
142.600	14.040	986.221	736.760
143.614	14.092	985.510	736.394
144.629	13.945	985.049	735.331
145.643	14.102	983.641	734.912
146.658	14.056	982.676	733.923
147.673	14.017	981.783	733.016
148.687	13.886	981.138	731.893
149.702	14.000	979.951	731.445
150.716	14.029	978.953	730.762
151.731	14.078	978.376	730.482
152.746	13.966	977.796	729.494
153.760	14.047	977.044	729.222
154.775	14.127	976.522	729.120
155.789	14.099	975.859	728.438
156.804	14.142	974.899	727.844
157.819	14.180	974.509	727.656
158.833	14.257	973.661	727.293
159.848	14.285	972.586	726.550
160.862	14.200	972.329	725.923
161.877	14.074	971.164	724.439
162.892	14.212	970.114	724.194
163.906	14.140	969.383	723.270
164.921	14.223	968.485	722.894
165.935	14.162	967.871	722.109
166.950	14.226	966.709	721.455
167.964	14.343	965.709	721.150
168.979	14.254	964.873	720.079
169.994	14.111	964.477	719.103
171.008	14.263	963.595	719.036
172.023	14.325	963.068	718.847
173.037	14.418	961.921	718.330
174.052	14.292	961.385	717.324
175.067	14.292	961.047	717.007
176.081	14.301	960.183	716.337
177.096	14.166	959.904	715.484
178.110	14.259	959.421	715.460
179.125	14.237	958.972	714.968
180.140	14.319	957.907	714.464
181.154	14.384	957.503	714.379
182.169	14.438	956.943	714.128
183.183	14.468	956.247	713.675
184.198	14.432	955.347	712.786
185.213	14.443	954.438	712.089
186.227	14.575	953.721	712.055
187.242	14.576	953.218	711.624
188.256	14.525	952.670	710.933
189.271	14.486	952.066	710.252
190.286	14.568	950.980	709.728
191.300	14.378	950.524	708.518
192.315	14.435	950.088	708.373
193.329	14.542	949.060	707.996
194.344	14.447	948.598	707.188
195.359	14.537	947.988	707.051
196.373	14.625	947.275	706.830
197.388	14.517	947.204	706.255
198.402	14.633	946.425	706.104
199.417	14.675	945.897	705.826
200.432	14.694	945.100	705.247
201.446	14.704	944.913	705.087
202.461	14.646	944.411	704.409
203.475	14.839	943.301	704.329
204.490	14.746	942.597	703.350
205.504	14.725	941.671	702.510
206.519	14.599	941.131	701.516
207.534	14.617	940.932	701.378
208.548	14.639	939.854	700.605
209.563	14.891	938.755	700.781
210.577	14.726	938.419	699.778
211.592	14.945	937.847	700.205
212.607	14.878	936.864	699.127
213.621	14.940	935.995	698.680
214.636	14.824	935.619	697.850
215.650	14.932	934.928	697.723
216.665	14.901	934.318	697.077
217.680	15.025	933.608	697.004
218.694	14.901	932.698	695.745
219.709	15.102	931.725	695.796
220.723	14.920	931.425	694.755
221.738	15.107	930.518	694.793
222.753	14.944	930.014	693.678
223.767	15.039	929.319	693.490
224.782	15.126	928.876	693.459
225.796	14.992	928.391	692.482
226.811	15.028	927.331	691.779
227.826	15.050	927.025	691.579
228.840	15.146	926.092	691.220
229.855	15.093	925.214	690.283
230.869	15.083	924.547	689.684
231.884	15.017	924.152	689.058
232.899	15.122	923.129	688.664
233.913	15.045	922.614	687.903
234.928	15.149	921.655	687.554
235.942	15.048	921.353	686.852
236.957	15.034	920.804	686.324
237.972	15.046	920.124	685.807
238.986	15.193	919.432	685.833
240.001	15.164	918.788	685.174
241.015	15.240	917.817	684.699
242.030	15.143	917.346	683.892
243.045	15.119	917.382	683.759
244.059	15.203	916.613	683.470
245.074	15.207	915.613	682.678
246.088	15.274	915.311	682.666
247.103	15.265	914.151	681.704
248.117	15.221	913.865	681.251
249.132	15.415	913.214	681.491
250.147	15.462	912.501	681.093
251.161	15.581	911.728	680.938
252.176	15.488	911.211	680.114
253.190	15.571	910.179	679.620
254.205	15.566	909.363	678.930
255.220	15.427	909.486	678.401
256.234	15.599	908.751	678.486
257.249	15.475	907.997	677.361
258.263	15.607	906.905	677.021
259.278	15.556	906.722	676.617
260.293	15.653	905.657	676.152
261.307	15.618	905.297	675.684
262.322	15.743	904.546	675.565
263.336	15.587	904.153	674.588
264.351	15.762	903.222	674.534
265.366	15.649	902.788	673.699
266.380	15.778	901.885	673.481
267.395	15.648	901.430	672.559
268.409	15.777	900.688	672.464
269.424	15.679	899.864	671.397
270.439	15.718	899.357	671.113
271.453	15.744	898.600	670.593
272.468	15.754	897.847	670.012
273.482	15.860	897.073	669.796
274.497	15.816	896.333	669.010
275.512	15.878	896.074	669.005
276.526	15.958	895.428	668.783
277.541	15.826	895.277	668.087
278.555	15.943	894.562	667.957
279.570	16.046	893.901	667.811
280.585	16.007	893.146	667.033
281.599	15.906	892.139	665.824
282.614	15.908	891.650	665.409
283.628	16.074	890.654	665.260
284.643	15.939	890.392	664.474
285.657	15.957	889.945	664.152
286.672	15.988	889.234	663.686
287.687	15.995	888.436	663.060
288.701	16.147	887.851	663.163
289.716	16.092	887.624	662.718
290.730	16.066	887.132	662.188
291.745	16.198	886.374	662.082
292.760	16.146	885.450	661.129
293.774	16.208	884.821	660.844
294.789	16.354	884.162	660.866
295.803	16.235	883.366	659.747
296.818	16.153	882.533	658.744
297.833	16.291	882.104	658.904
298.847	16.093	881.796	657.846
299.862	16.270	880.690	657.651
300.876	16.306	880.163	657.341
301.891	16.306	880.165	657.283
302.906	16.343	879.000	656.499
303.920	16.246	878.577	655.747
304.935	16.466	877.944	656.070
305.949	16.493	877.011	655.420
306.964	16.476	876.412	654.848
307.979	16.419	875.906	654.193
308.993	16.382	875.596	653.761
310.008	16.474	874.845	653.495
311.022	16.410	874.631	653.032
312.037	16.512	873.503	652.524
313.052	16.343	873.315	651.675
314.066	16.426	872.720	651.492
315.081	16.445	872.360	651.239
316.095	16.390	871.734	650.503
317.110	16.409	871.130	650.071
318.125	16.455	870.260	649.538
319.139	16.455	869.983	649.276
320.154	16.450	869.384	648.750
321.168	16.506	868.922	648.562
322.183	16.649	868.097	648.439
323.197	16.655	867.502	647.961
324.212	16.512	867.372	647.259
325.227	16.545	866.480	646.659
326.241	16.553	865.499	645.901
327.256	16.537	865.521	645.799
328.270	16.521	864.821	645.160
329.285	16.523	864.417	644.809
330.300	16.698	863.124	644.454
331.314	16.573	862.833	643.704
332.329	16.660	862.510	643.735
333.343	16.704	862.069	643.519
334.358	16.617	861.797	642.926
335.373	16.603	861.478	642.580
336.387	16.805	860.994	642.929
337.402	16.823	860.709	642.727
338.416	16.879	860.150	642.463
339.431	16.880	859.733	642.099
340.446	16.887	859.342	641.777
341.460	16.878	859.144	641.541
342.475	16.872	858.613	641.064
343.489	16.954	858.170	640.984
344.504	16.938	857.658	640.485
345.519	16.804	857.276	639.639
346.533	16.978	856.721	639.823
347.548	16.957	856.207	639.305
348.562	17.019	855.439	638.906
349.577	16.911	854.818	637.980
350.592	17.026	854.502	638.122
351.606	17.052	853.310	637.273
352.621	17.078	852.507	636.714
353.635	16.994	852.051	636.001
354.650	16.948	851.793	635.580
355.665	16.932	851.177	635.006
356.679	17.076	850.612	635.064
357.694	16.947	849.714	633.855
358.708	17.006	849.328	633.734
359.723	17.102	848.424	633.361
360.738	17.123	848.151	633.179
361.752	17.181	847.454	632.821
362.767	17.233	846.561	632.289
363.781	17.367	846.159	632.431
364.796	17.326	845.841	631.984
365.810	17.313	845.053	631.291
366.825	17.292	844.964	631.094
367.840	17.259	844.437	630.519
368.854	17.289	844.044	630.283
369.869	17.365	843.365	630.002
370.883	17.239	843.310	629.436
371.898	17.422	842.853	629.717
372.913	17.374	842.764	629.417
373.927	17.427	842.215	629.148
374.942	17.446	841.648	628.741
375.956	17.445	841.129	628.291
376.971	17.449	840.933	628.106
377.986	17.620	840.574	628.412
379.000	17.604	839.476	627.476
380.015	17.626	839.143	627.252
381.029	17.721	838.214	626.854
382.044	17.594	837.756	625.987
383.059	17.482	837.366	625.229
384.073	17.669	836.876	625.495
385.088	17.563	836.240	624.576
386.102	17.633	835.512	624.232
387.117	17.652	834.834	623.740
388.132	17.529	834.703	623.136
389.146	17.758	834.029	623.417
390.161	17.832	833.622	623.327
391.175	17.589	832.958	621.888
392.190	17.723	832.548	622.016
393.205	17.622	832.090	621.252
394.219	17.693	831.721	621.179
395.234	17.719	831.144	620.790
396.248	17.633	830.872	620.216
397.263	17.769	830.498	620.378
398.278	17.721	829.926	619.720
399.292	17.696	829.596	619.331
400.307	17.728	829.024	618.962
401.321	17.771	828.507	618.678
402.336	17.684	827.981	617.918
403.350	17.847	827.672	618.222
404.365	17.903	827.231	618.040
405.380	17.804	826.745	617.265
406.394	17.824	826.029	616.747
407.409	17.900	825.473	616.553
408.423	17.949	825.387	616.611
409.438	18.070	824.751	616.518
410.453	17.974	824.588	615.993
411.467	17.976	824.179	615.640
412.482	18.015	823.946	615.554
413.496	18.146	823.367	615.537
414.511	18.131	822.850	615.045
415.526	18.078	822.261	614.359
416.540	18.117	821.936	614.200
417.555	18.252	821.388	614.221
418.569	18.170	820.768	613.410
419.584	18.228	820.476	613.345
420.599	18.222	819.825	612.781
421.613	115.884	1301.136	1491.221
422.628	100.555	1371.197	1491.275
