DTS Sentinel unit serial number:	SN413079Multiplexer serial number:	ORYXHardware model number:	OX4-SRSoftware version number:	ORYX F/W v4.00 Oryx Data Collector v3.7.2.0data status	okinstallation	princeton_trtdifferential loss correction	single-endedforward channel	channel 1reverse channel	N/Adate	2019/09/12time	13:00:11forward acquisition time	60.00reverse acquisition time	0.00gamma	496.2192k internal	0.2292k external	0.2292temperature offset calibration	1.0042default loss term (dB/km)	0.3790temperature slope calibration	1.0000multiplexer offset coefficient	1.0000multiplexer slope coefficient	1.0000fibre end	0.00T internal ref (°C)	40.91T ext. ref 1 (°C)	2.09T ext. ref 2 (°C)	37.65length (m)	temperature (°C)	Stokes	anti-Stokes-747.200	39.006	0.104	-0.095
-746.185	-25.274	-0.463	0.280
-745.171	-200.000	-0.256	0.001
-744.156	800.000	-0.073	0.320
-743.142	800.000	0.031	-0.125
-742.127	125.839	-0.153	0.198
-741.112	169.651	-0.135	-0.198
-740.098	-200.000	0.050	0.331
-739.083	-69.021	-0.060	-0.024
-738.069	61.707	-0.257	0.262
-737.054	-84.488	0.215	0.070
-736.039	-65.736	0.140	0.057
-735.025	104.099	0.246	0.296
-734.010	-21.668	0.107	0.067
-732.996	-3.789	-0.178	0.127
-731.981	287.663	0.067	0.124
-730.966	-200.000	-0.007	0.263
-729.952	-8.066	0.114	0.079
-728.937	750.912	0.051	0.141
-727.923	-125.852	0.334	-0.051
-726.908	-80.878	-0.313	-0.106
-725.894	254.985	-0.262	-0.459
-724.879	409.536	-0.074	0.161
-723.864	-19.424	0.312	-0.198
-722.850	-200.000	-0.016	0.158
-721.835	-200.000	-0.012	-0.086
-720.821	-30.029	0.204	0.119
-719.806	-25.626	-0.178	0.108
-718.791	8.003	-0.191	0.147
-717.777	107.310	0.310	0.377
-716.762	46.921	-0.132	0.125
-715.748	-187.570	-0.226	-0.003
-714.733	-153.324	-0.380	0.027
-713.718	-58.950	-0.073	0.032
-712.704	178.866	0.105	-0.157
-711.689	-56.604	0.145	0.066
-710.675	-3.748	-0.215	-0.152
-709.660	-18.852	0.162	0.103
-708.645	-138.982	-0.195	-0.022
-707.631	-200.000	-0.020	0.302
-706.616	-13.475	-0.487	-0.322
-705.602	127.750	-0.268	-0.349
-704.587	-2.660	0.299	0.214
-703.572	-139.003	-0.123	-0.014
-702.558	-200.000	0.025	0.309
-701.543	-88.554	0.286	0.087
-700.529	800.000	0.098	-0.408
-699.514	800.000	0.094	-0.286
-698.499	192.188	-0.161	-0.248
-697.485	268.964	0.114	0.205
-696.470	298.683	-0.163	0.306
-695.456	-108.363	0.102	0.022
-694.441	800.000	0.128	0.372
-693.426	-200.000	-0.006	-0.327
-692.412	55.931	-0.152	-0.150
-691.397	-33.667	0.122	-0.069
-690.383	-71.250	-0.113	0.043
-689.368	-114.204	0.324	-0.064
-688.354	-86.542	-0.250	0.078
-687.339	-19.340	0.270	0.171
-686.324	800.000	0.086	0.351
-685.310	-65.916	0.222	0.091
-684.295	-34.769	0.211	-0.118
-683.281	28.953	-0.295	0.255
-682.266	81.687	0.313	-0.346
-681.251	-171.552	-0.161	-0.005
-680.237	-200.000	-0.003	0.083
-679.222	302.189	-0.182	0.345
-678.208	-200.000	0.013	0.072
-677.193	-108.289	-0.124	-0.027
-676.178	-200.000	-0.185	0.001
-675.164	55.485	-0.366	-0.362
-674.149	93.283	0.020	0.024
-673.135	-200.000	0.007	0.303
-672.120	256.674	0.087	-0.152
-671.105	-117.398	0.110	-0.020
-670.091	-200.000	0.013	-0.263
-669.076	-200.000	-0.034	-0.224
-668.062	-20.507	-0.295	0.185
-667.047	800.000	0.044	0.126
-666.032	116.459	0.224	-0.280
-665.018	715.329	-0.071	0.191
-664.003	-136.113	-0.179	0.021
-662.989	-195.496	0.184	0.001
-661.974	-200.000	0.022	0.234
-660.959	24.620	0.130	-0.110
-659.945	-86.981	-0.259	-0.081
-658.930	-77.480	0.061	0.022
-657.916	-37.021	-0.257	0.141
-656.901	-34.101	0.111	0.062
-655.886	-200.000	-0.072	0.512
-654.872	800.000	0.061	0.190
-653.857	30.833	0.100	0.087
-652.843	-18.458	-0.218	-0.139
-651.828	-200.000	0.008	-0.060
-650.814	-86.879	0.334	-0.104
-649.799	-200.000	-0.067	0.300
-648.784	13.957	-0.105	-0.083
-647.770	-200.000	-0.015	0.130
-646.755	111.811	-0.033	0.041
-645.741	242.599	0.026	0.045
-644.726	-46.766	-0.083	0.041
-643.711	-78.721	-0.181	0.063
-642.697	6.495	0.112	0.085
-641.682	73.785	-0.138	-0.147
-640.668	-96.416	0.360	0.097
-639.653	-131.848	0.089	-0.012
-638.638	61.868	-0.153	-0.155
-637.624	-36.546	-0.068	-0.037
-636.609	-95.245	-0.209	0.058
-635.595	800.000	0.044	-0.194
-634.580	800.000	0.065	-0.194
-633.565	-81.207	0.280	0.094
-632.551	-120.091	-0.113	0.020
-631.536	84.168	0.081	0.090
-630.522	-42.440	0.076	0.039
-629.507	-200.000	0.101	-0.000
-628.492	-200.000	0.051	-0.335
-627.478	-60.338	-0.137	0.059
-626.463	-191.257	-0.252	-0.003
-625.449	84.631	-0.186	-0.208
-624.434	-85.763	0.359	0.114
-623.419	-89.702	-0.465	-0.139
-622.405	-134.537	-0.215	0.027
-621.390	-63.794	0.340	0.142
-620.376	162.142	0.098	0.140
-619.361	26.860	-0.252	-0.215
-618.346	-200.000	0.033	0.204
-617.332	-47.927	0.343	-0.169
-616.317	11.230	-0.164	-0.128
-615.303	-101.279	-0.173	0.043
-614.288	-66.497	-0.349	0.141
-613.273	32.491	0.031	-0.028
-612.259	-200.000	0.013	-0.092
-611.244	-199.656	0.049	-0.000
-610.230	-119.802	-0.084	-0.015
-609.215	800.000	-0.014	-0.050
-608.201	12.936	0.163	-0.129
-607.186	437.756	0.228	-0.506
-606.171	-200.000	-0.004	0.345
-605.157	-45.004	0.027	0.014
-604.142	800.000	-0.064	-0.284
-603.128	-200.000	0.047	0.268
-602.113	800.000	-0.133	0.451
-601.098	-129.063	0.338	0.048
-600.084	-85.758	0.018	0.006
-599.069	24.944	0.051	-0.043
-598.055	-106.487	-0.075	0.017
-597.040	-200.000	-0.378	0.001
-596.025	-200.000	-0.000	0.068
-595.011	33.303	0.321	-0.283
-593.996	-140.895	0.251	-0.026
-592.982	800.000	0.070	-0.270
-591.967	-200.000	0.052	0.234
-590.952	303.202	0.098	0.184
-589.938	-62.357	0.251	0.106
-588.923	478.533	0.129	0.297
-587.909	14.173	0.127	-0.100
-586.894	99.053	0.193	0.227
-585.879	246.877	0.103	0.176
-584.865	302.718	0.033	0.062
-583.850	-64.958	-0.244	0.100
-582.836	28.815	0.044	0.038
-581.821	800.000	0.100	-0.304
-580.806	-200.000	0.006	-0.167
-579.792	195.701	0.120	0.186
-578.777	-200.000	0.001	0.351
-577.763	-200.000	-0.023	-0.126
-576.748	6.682	-0.114	0.087
-575.733	167.005	0.162	0.234
-574.719	37.948	-0.287	-0.259
-573.704	-36.407	0.361	0.198
-572.690	-200.000	0.035	0.162
-571.675	-85.714	-0.311	-0.098
-570.661	-100.335	-0.247	-0.062
-569.646	-200.000	-0.018	-0.235
-568.631	31.984	0.041	-0.036
-567.617	-75.534	-0.132	-0.048
-566.602	112.824	-0.078	-0.096
-565.588	-200.000	0.068	-0.414
-564.573	713.330	-0.109	-0.292
-563.558	-56.102	0.189	-0.085
-562.544	-78.681	-0.332	0.115
-561.529	-122.668	-0.425	-0.070
-560.515	-200.000	-0.014	0.105
-559.500	298.779	0.029	-0.054
-558.485	90.485	0.357	-0.406
-557.471	395.404	0.066	-0.139
-556.456	-74.901	0.154	0.056
-555.442	151.817	0.069	0.096
-554.427	755.207	-0.028	-0.078
-553.412	-87.165	-0.167	-0.052
-552.398	800.000	-0.124	-0.349
-551.383	-182.556	0.361	0.007
-550.369	-96.133	-0.433	0.117
-549.354	-200.000	-0.010	-0.085
-548.339	22.389	-0.162	0.134
-547.325	29.136	-0.320	0.276
-546.310	162.049	0.057	-0.081
-545.296	-82.322	-0.076	-0.025
-544.281	274.239	-0.054	0.097
-543.266	-52.341	0.127	0.060
-542.252	-137.443	0.062	0.007
-541.237	800.000	0.096	-0.314
-540.223	48.022	-0.151	0.143
-539.208	26.465	-0.215	-0.182
-538.193	324.690	0.046	-0.088
-537.179	-200.000	-0.021	-0.137
-536.164	99.643	0.122	-0.143
-535.150	800.000	0.188	0.607
-534.135	-78.154	0.037	0.013
-533.121	35.231	-0.175	0.155
-532.106	-111.163	-0.251	-0.052
-531.091	-40.223	0.186	0.098
-530.077	-82.022	-0.194	-0.064
-529.062	800.000	0.116	0.386
-528.048	-200.000	-0.064	-0.285
-527.033	-56.067	-0.205	0.093
-526.018	130.357	0.249	0.324
-525.004	-62.250	0.147	0.062
-523.989	-3.178	0.168	0.119
-522.975	-37.991	0.112	0.061
-521.960	79.697	-0.097	-0.106
-520.945	-194.582	-0.124	-0.001
-519.931	-11.235	-0.308	-0.206
-518.916	-200.000	0.022	-0.187
-517.902	-200.000	0.001	-0.054
-516.887	-77.976	-0.312	-0.109
-515.872	-200.000	0.035	-0.237
-514.858	103.189	0.061	0.073
-513.843	-39.447	-0.167	0.089
-512.829	-36.466	-0.114	-0.062
-511.814	-200.000	-0.021	-0.265
-510.799	9.716	0.161	-0.124
-509.785	89.634	-0.068	-0.077
-508.770	-200.000	-0.014	0.239
-507.756	-200.000	-0.004	-0.274
-506.741	800.000	0.066	-0.225
-505.726	-40.170	-0.104	0.055
-504.712	510.868	-0.157	0.370
-503.697	-200.000	0.034	0.232
-502.683	377.313	-0.178	-0.370
-501.668	81.148	-0.195	-0.214
-500.653	28.061	0.185	0.158
-499.639	800.000	-0.048	0.180
-498.624	-81.579	-0.269	0.090
-497.610	190.814	-0.172	0.262
-496.595	-26.401	0.130	-0.077
-495.581	-200.000	0.032	-0.148
-494.566	-200.000	0.053	-0.244
-493.551	-9.678	0.085	-0.057
-492.537	-78.522	0.183	0.064
-491.522	253.173	0.150	0.259
-490.508	12.027	-0.379	-0.296
-489.493	224.561	0.089	-0.145
-488.478	-81.442	0.103	-0.034
-487.464	-23.758	-0.041	-0.025
-486.449	59.009	-0.276	-0.276
-485.435	476.280	-0.042	0.097
-484.420	259.659	0.066	0.115
-483.405	-200.000	-0.017	-0.114
-482.391	111.819	0.127	0.155
-481.376	-44.460	0.303	0.153
-480.362	-41.871	0.203	0.105
-479.347	-192.972	-0.191	-0.002
-478.332	-200.000	0.028	0.377
-477.318	-200.000	-0.040	-0.185
-476.303	147.997	-0.157	-0.215
-475.289	-134.145	-0.421	-0.053
-474.274	89.227	-0.178	0.200
-473.259	155.920	-0.117	-0.163
-472.245	-72.133	0.227	-0.086
-471.230	-35.763	0.040	-0.022
-470.216	-130.971	-0.363	-0.049
-469.201	84.439	-0.277	-0.306
-468.186	-17.535	0.277	-0.176
-467.172	-112.920	-0.023	0.005
-466.157	-103.959	0.088	-0.021
-465.143	800.000	0.153	-0.451
-464.128	-159.908	-0.152	-0.008
-463.113	-200.000	-0.025	0.356
-462.099	-200.000	-0.024	0.374
-461.084	800.000	-0.125	-0.367
-460.070	127.082	-0.096	-0.124
-459.055	800.000	-0.004	-0.017
-458.040	163.493	-0.145	-0.207
-457.026	800.000	0.021	-0.087
-456.011	800.000	-0.063	-0.205
-454.997	-149.285	-0.241	0.019
-453.982	-190.662	0.416	0.004
-452.968	-154.257	0.240	0.016
-451.953	-123.622	-0.279	0.045
-450.938	177.903	0.048	-0.071
-449.924	800.000	0.036	0.105
-448.909	-31.015	0.178	-0.102
-447.895	-116.959	0.075	0.014
-446.880	572.844	-0.158	0.391
-445.865	-133.842	-0.105	0.013
-444.851	-34.651	0.087	-0.048
-443.836	-159.820	-0.047	-0.003
-442.822	-124.417	0.285	-0.045
-441.807	800.000	0.039	0.124
-440.792	-36.354	-0.211	0.115
-439.778	-165.010	-0.143	0.006
-438.763	118.314	0.164	0.205
-437.749	-39.857	-0.299	0.158
-436.734	800.000	0.059	-0.176
-435.719	640.062	0.092	-0.236
-434.705	-6.074	-0.286	0.197
-433.690	310.824	0.056	-0.107
-432.676	-27.629	-0.173	0.101
-431.661	-200.000	0.001	-0.030
-430.646	331.699	-0.059	0.115
-429.632	-200.000	-0.043	0.199
-428.617	-200.000	-0.050	-0.247
-427.603	461.568	0.108	-0.244
-426.588	-200.000	-0.007	0.130
-425.573	54.669	0.179	0.175
-424.559	-200.000	-0.007	0.300
-423.544	-139.591	-0.440	0.047
-422.530	74.794	0.245	-0.261
-421.515	194.585	-0.089	-0.136
-420.500	-105.367	0.144	-0.033
-419.486	-97.181	-0.043	-0.011
-418.471	800.000	0.131	0.470
-417.457	800.000	0.042	-0.131
-416.442	-200.000	-0.051	-0.576
-415.428	-50.276	-0.231	0.111
-414.413	26.542	0.214	-0.181
-413.398	-200.000	0.019	-0.087
-412.384	-31.160	-0.071	0.040
-411.369	-40.858	-0.175	-0.091
-410.355	-101.104	0.103	0.025
-409.340	344.650	-0.134	-0.266
-408.325	269.021	-0.056	-0.100
-407.311	639.608	0.010	-0.025
-406.296	-89.834	-0.157	0.046
-405.282	-147.027	-0.110	0.010
-404.267	246.586	-0.115	0.196
-403.252	687.694	0.058	0.154
-402.238	-39.043	0.207	0.110
-401.223	800.000	-0.083	-0.277
-400.209	-200.000	-0.016	-0.111
-399.194	800.000	-0.182	0.566
-398.179	-60.006	-0.235	0.101
-397.165	7.674	-0.164	0.124
-396.150	-141.876	0.175	0.018
-395.136	89.631	-0.136	0.153
-394.121	-29.174	-0.176	-0.102
-393.106	-0.452	-0.250	-0.180
-392.092	-174.948	0.290	0.008
-391.077	-192.647	-0.148	0.001
-390.063	-200.000	-0.009	-0.216
-389.048	-76.734	0.198	0.070
-388.033	-86.683	0.112	-0.035
-387.019	-128.996	0.368	-0.052
-386.004	-165.258	-0.211	0.009
-384.990	-110.712	0.155	-0.032
-383.975	144.767	0.286	0.385
-382.960	-200.000	0.034	-0.261
-381.946	5.790	0.174	0.130
-380.931	-72.971	0.140	0.052
-379.917	22.230	-0.172	-0.141
-378.902	605.083	-0.116	-0.291
-377.888	-37.180	-0.237	-0.128
-376.873	-200.000	-0.021	0.125
-375.858	-134.418	0.248	-0.031
-374.844	-6.182	-0.223	-0.153
-373.829	65.090	-0.204	-0.208
-372.815	65.264	-0.079	0.080
-371.800	-87.343	-0.336	-0.103
-370.785	109.795	-0.134	-0.162
-369.771	-96.068	-0.304	-0.081
-368.756	318.955	0.288	-0.552
-367.742	192.617	0.059	0.090
-366.727	647.317	-0.100	0.257
-365.712	231.645	0.058	-0.095
-364.698	181.585	0.246	-0.365
-363.683	-187.423	-0.195	-0.003
-362.669	-55.069	0.145	0.066
-361.654	-196.786	-0.162	0.001
-360.639	83.274	0.110	0.121
-359.625	800.000	-0.109	0.322
-358.610	521.192	-0.125	0.296
-357.596	-200.000	0.010	0.543
-356.581	-126.778	-0.184	0.027
-355.566	-200.000	-0.028	0.424
-354.552	2.737	0.183	-0.134
-353.537	107.867	0.177	-0.213
-352.523	125.606	0.139	0.177
-351.508	-200.000	0.025	-0.268
-350.493	-35.767	0.280	0.153
-349.479	-200.000	0.035	0.396
-348.464	174.727	-0.047	0.068
-347.450	-78.894	-0.019	0.007
-346.435	404.305	-0.051	0.108
-345.420	-200.000	0.137	0.000
-344.406	0.525	0.327	-0.235
-343.391	-125.433	0.150	-0.023
-342.377	-41.390	0.110	-0.057
-341.362	-84.376	0.104	-0.033
-340.348	731.635	-0.114	0.308
-339.333	-200.000	-0.101	0.472
-338.318	-54.218	0.207	0.095
-337.304	-136.790	0.375	0.044
-336.289	-13.681	0.160	0.104
-335.275	800.000	0.004	-0.014
-334.260	372.471	0.105	-0.214
-333.245	-200.000	-0.045	0.275
-332.231	-30.062	-0.302	-0.173
-331.216	800.000	0.030	0.128
-330.202	27.461	0.028	0.024
-329.187	-40.982	-0.286	0.149
-328.172	-136.442	-0.092	0.011
-327.158	-134.393	-0.218	0.027
-326.143	-158.450	-0.344	0.020
-325.129	-200.000	0.036	-0.179
-324.114	-93.469	-0.139	0.039
-323.099	-200.000	0.014	-0.100
-322.085	-200.000	0.056	-0.386
-321.070	-200.000	-0.070	0.373
-320.056	614.596	-0.074	0.188
-319.041	209.961	0.221	-0.349
-318.026	800.000	0.069	0.198
-317.012	800.000	0.121	0.401
-315.997	-200.000	0.031	-0.154
-314.983	-24.533	-0.200	-0.120
-313.968	6.606	0.412	0.308
-312.953	-200.000	0.033	-0.214
-311.939	-70.278	-0.197	0.075
-310.924	-200.000	-0.094	-0.495
-309.910	89.677	0.105	-0.118
-308.895	-56.177	0.187	0.084
-307.880	-68.563	0.084	-0.033
-306.866	3.771	-0.107	0.078
-305.851	-200.000	-0.070	-0.315
-304.837	-83.740	0.182	0.059
-303.822	152.279	-0.084	-0.115
-302.807	-93.683	0.361	0.100
-301.793	5.233	0.183	-0.135
-300.778	-189.244	-0.278	0.003
-299.764	-3.124	0.129	0.090
-298.749	-7.222	0.073	0.050
-297.735	153.259	-0.110	0.152
-296.720	-48.552	0.370	0.179
-295.705	-138.210	0.187	-0.021
-294.691	-200.000	0.010	0.254
-293.676	-200.000	0.009	-0.083
-292.662	-70.123	-0.155	-0.059
-291.647	-50.607	0.159	0.075
-290.632	-139.238	0.081	0.009
-289.618	150.107	0.087	-0.119
-288.603	199.487	0.163	-0.251
-287.589	-153.632	0.174	0.012
-286.574	-200.000	0.002	-0.055
-285.559	41.325	0.193	-0.175
-284.545	32.415	0.284	-0.246
-283.530	-106.381	-0.113	0.025
-282.516	-160.153	-0.359	-0.020
-281.501	-42.541	-0.054	-0.028
-280.486	76.618	-0.071	-0.076
-279.472	-200.000	0.013	0.178
-278.457	800.000	0.061	-0.244
-277.443	-80.484	0.255	-0.085
-276.428	800.000	0.073	0.205
-275.413	-200.000	-0.063	-0.335
-274.399	-185.159	-0.249	0.004
-273.384	800.000	0.118	-0.365
-272.370	-200.000	-0.022	0.197
-271.355	45.278	-0.173	0.160
-270.340	-58.899	-0.081	-0.035
-269.326	-146.221	0.338	-0.030
-268.311	-200.000	-0.033	0.232
-267.297	-113.194	0.324	0.064
-266.282	-200.000	0.012	0.173
-265.267	-200.000	0.007	-0.420
-264.253	800.000	-0.035	-0.129
-263.238	-85.791	-0.380	0.118
-262.224	702.182	-0.058	0.154
-261.209	-35.961	-0.343	0.186
-260.195	260.677	-0.075	0.130
-259.180	-112.938	0.346	-0.069
-258.165	150.816	-0.086	-0.117
-257.151	-8.572	0.184	-0.124
-256.136	117.553	0.139	-0.172
-255.122	-20.595	-0.005	-0.003
-254.107	-88.346	-0.138	-0.042
-253.092	427.149	0.094	-0.203
-252.078	-200.000	0.011	-0.066
-251.063	-94.728	-0.398	0.108
-250.049	-91.261	0.254	-0.073
-249.034	61.265	-0.117	-0.117
-248.019	-19.622	-0.238	0.148
-247.005	-200.000	0.066	0.367
-245.990	240.449	-0.095	0.160
-244.976	43.167	-0.228	0.209
-243.961	159.340	-0.194	0.271
-242.946	800.000	0.036	0.124
-241.932	514.075	-0.120	0.281
-240.917	42.833	0.109	-0.100
-239.903	4.823	0.119	0.088
-238.888	-112.212	-0.349	-0.070
-237.873	63.060	0.122	0.123
-236.859	800.000	-0.117	0.325
-235.844	800.000	0.036	0.127
-234.830	-200.000	-0.015	0.478
-233.815	800.000	-0.040	0.148
-232.800	-200.000	0.014	-0.231
-231.786	-151.552	0.115	0.009
-230.771	-200.000	-0.003	0.147
-229.757	217.570	0.104	-0.167
-228.742	-32.412	-0.142	0.079
-227.727	18.920	0.173	-0.139
-226.713	-56.569	-0.107	-0.048
-225.698	135.957	0.184	0.240
-224.684	-133.169	-0.261	0.033
-223.669	168.304	0.082	-0.118
-222.655	800.000	0.043	-0.186
-221.640	-200.000	0.023	0.192
-220.625	297.492	0.041	0.075
-219.611	-200.000	-0.022	0.126
-218.596	-55.897	-0.234	0.105
-217.582	-74.244	-0.088	0.032
-216.567	427.896	0.010	0.022
-215.552	-82.163	0.115	-0.038
-214.538	-200.000	-0.015	-0.340
-213.523	-140.028	0.035	-0.004
-212.509	-91.290	-0.137	0.039
-211.494	-99.073	-0.095	0.024
-210.479	244.182	0.213	0.359
-209.465	-41.993	0.203	0.104
-208.450	118.833	0.075	0.092
-207.436	465.989	0.105	0.235
-206.421	340.261	-0.101	0.197
-205.406	333.777	-0.043	0.083
-204.392	257.478	0.155	-0.267
-203.377	13.206	0.303	-0.235
-202.363	112.944	0.163	0.197
-201.348	-146.648	-0.188	0.016
-200.333	-143.918	-0.221	-0.021
-199.319	-173.646	0.479	-0.014
-198.304	-50.026	0.148	0.070
-197.290	-200.000	0.021	0.100
-196.275	-49.458	-0.030	-0.015
-195.260	-89.623	0.269	-0.079
-194.246	-15.899	-0.212	-0.135
-193.231	800.000	0.020	0.068
-192.217	-82.216	0.261	0.085
-191.202	37.936	0.297	0.264
-190.187	-144.080	0.047	-0.004
-189.173	-105.577	-0.112	0.025
-188.158	285.025	0.105	0.190
-187.144	52.886	0.190	0.182
-186.129	82.795	0.208	-0.227
-185.114	528.404	-0.143	-0.338
-184.100	17.287	0.231	-0.184
-183.085	-85.392	0.380	-0.119
-182.071	-137.788	0.406	-0.046
-181.056	538.651	0.055	0.132
-180.042	79.673	-0.189	0.204
-179.027	-105.296	0.012	0.003
-178.012	800.000	-0.167	0.464
-176.998	800.000	-0.101	-0.347
-175.983	46.321	-0.034	0.031
-174.969	-54.252	0.379	0.172
-173.954	-25.958	0.068	-0.040
-172.939	1.753	-0.159	-0.115
-171.925	527.816	-0.006	-0.013
-170.910	709.977	-0.057	0.150
-169.896	678.226	0.108	-0.281
-168.881	-106.745	0.263	-0.058
-167.866	-158.953	-0.204	0.012
-166.852	-200.000	0.030	0.220
-165.837	231.429	0.155	-0.254
-164.823	44.316	-0.187	-0.171
-163.808	800.000	0.078	-0.289
-162.793	-200.000	0.008	-0.241
-161.779	11.445	0.234	-0.179
-160.764	94.077	-0.207	-0.236
-159.750	-195.096	-0.170	-0.001
-158.735	145.547	-0.213	-0.286
-157.720	370.637	-0.148	0.301
-156.706	125.847	0.135	-0.171
-155.691	800.000	0.020	0.073
-154.677	-143.684	-0.275	-0.026
-153.662	34.673	0.271	0.237
-152.647	60.290	-0.117	-0.116
-151.633	800.000	0.040	-0.136
-150.618	713.747	0.109	-0.289
-149.604	-200.000	0.025	0.114
-148.589	-48.741	0.264	0.127
-147.574	-200.000	-0.196	0.001
-146.560	88.624	-0.155	0.172
-145.545	-32.071	-0.351	0.197
-144.531	800.000	0.090	0.252
-143.516	-200.000	-0.012	-0.199
-142.502	21.556	-0.196	0.159
-141.487	800.000	0.076	0.233
-140.472	-34.916	-0.124	0.068
-139.458	-79.444	-0.194	-0.066
-138.443	95.194	0.223	0.254
-137.429	-112.713	0.280	0.056
-136.414	-58.041	0.579	0.252
-135.399	245.850	-0.076	0.128
-134.385	-152.879	-0.232	0.016
-133.370	-157.419	0.277	0.017
-132.356	89.545	0.357	0.398
-131.341	-52.722	-0.107	0.049
-130.326	86.277	-0.134	0.148
-129.312	134.230	0.076	-0.099
-128.297	-91.939	0.069	0.020
-127.283	39.400	-0.016	0.014
-126.268	-130.306	-0.229	0.031
-125.253	-145.840	-0.108	-0.010
-124.239	-82.341	0.114	0.037
-123.224	800.000	-0.048	-0.155
-122.210	-109.371	-0.171	0.036
-121.195	-173.194	-0.052	-0.002
-120.180	303.355	0.122	0.227
-119.166	-109.079	-0.103	-0.022
-118.151	800.000	-0.082	-0.244
-117.137	-116.138	-0.031	-0.006
-116.122	170.431	0.054	0.077
-115.107	-83.631	0.058	0.018
-114.093	47.955	-0.270	0.252
-113.078	-22.289	-0.164	0.099
-112.064	-30.352	0.358	-0.203
-111.049	556.995	0.158	-0.381
-110.034	235.241	-0.043	-0.071
-109.020	-141.501	0.324	0.033
-108.005	188.214	0.085	-0.127
-106.991	-18.045	0.125	0.078
-105.976	-200.000	0.028	0.265
-104.962	-200.000	0.025	0.204
-103.947	22.340	-0.050	0.041
-102.932	-123.135	0.151	-0.024
-101.918	-22.954	-0.319	-0.192
-100.903	-200.000	-0.038	0.251
-99.889	-109.097	0.269	-0.057
-98.874	-52.824	0.154	-0.071
-97.859	-190.785	-0.172	0.002
-96.845	-28.554	0.227	-0.131
-95.830	70.890	-0.197	-0.204
-94.816	8.364	-0.126	-0.095
-93.801	63.605	0.176	0.177
-92.786	253.123	-0.104	0.178
-91.772	-200.000	-0.061	0.297
-90.757	-121.918	0.187	0.031
-89.743	800.000	0.022	0.085
-88.728	402.426	0.101	0.213
-87.713	16.673	0.263	-0.208
-86.699	-26.542	-0.069	0.041
-85.684	-141.608	-0.215	0.022
-84.670	-52.345	-0.088	0.041
-83.655	-2.120	0.243	0.171
-82.640	-200.000	-0.028	0.296
-81.626	-200.000	0.022	-0.106
-80.611	800.000	0.021	0.075
-79.597	179.837	-0.043	-0.063
-78.582	-83.880	0.043	0.014
-77.567	-118.098	0.314	0.056
-76.553	106.485	-0.171	0.203
-75.538	-69.114	-0.151	0.058
-74.524	105.788	0.199	0.235
-73.509	800.000	-0.008	0.023
-72.494	-200.000	-0.003	0.166
-71.480	-102.625	0.139	0.033
-70.465	-58.470	0.337	0.146
-69.451	133.318	-0.173	0.223
-68.436	-67.789	0.241	-0.094
-67.422	-56.499	-0.191	-0.084
-66.407	800.000	-0.033	-0.138
-65.392	20.165	-0.176	-0.141
-64.378	-8.279	-0.303	0.204
-63.363	-28.401	-0.251	0.144
-62.349	2.595	0.248	0.179
-61.334	33.401	-0.947	-0.819
-60.319	154.737	0.317	0.434
-59.305	-200.000	-0.187	-0.859
-58.290	800.000	0.232	0.808
-57.276	800.000	0.459	1.702
-56.261	-200.000	76.098	508.683
-55.246	519.064	1328.547	3100.619
-54.232	145.586	2561.339	3418.956
-53.217	117.713	2228.332	2733.311
-52.203	52.799	1669.712	1590.478
-51.188	44.600	1392.340	1275.128
-50.173	41.070	1346.058	1211.254
-49.159	59.725	1380.852	1357.494
-48.144	66.364	1399.785	1416.756
-47.130	45.246	1362.650	1251.702
-46.115	41.014	1346.717	1211.316
-45.100	40.844	1341.607	1205.640
-44.086	40.644	1339.364	1202.368
-43.071	40.712	1336.749	1200.382
-42.057	40.680	1334.375	1198.007
-41.042	40.706	1332.949	1196.836
-40.027	40.703	1331.311	1195.299
-39.013	40.812	1329.069	1193.898
-37.998	40.668	1327.685	1191.741
-36.984	40.776	1326.234	1191.040
-35.969	40.896	1323.907	1189.620
-34.954	40.922	1322.646	1188.598
-33.940	40.914	1321.169	1187.171
-32.925	41.067	1319.282	1186.343
-31.911	41.001	1318.447	1185.153
-30.896	41.053	1316.151	1183.349
-29.881	40.969	1315.472	1182.191
-28.867	41.057	1313.726	1181.098
-27.852	41.015	1312.734	1179.910
-26.838	40.997	1311.067	1178.262
-25.823	40.978	1309.797	1176.962
-24.809	40.959	1308.117	1175.294
-23.794	40.924	1307.245	1174.254
-22.779	40.995	1305.605	1173.152
-21.765	41.045	1304.188	1172.129
-20.750	41.050	1302.842	1170.900
-19.736	40.933	1301.263	1168.746
-18.721	40.799	1300.438	1167.176
-17.706	40.982	1299.140	1167.038
-16.692	40.934	1297.830	1165.531
-15.677	40.868	1296.714	1164.095
-14.663	40.787	1296.031	1162.961
-13.648	40.889	1294.442	1162.088
-12.633	40.872	1293.640	1161.224
-11.619	40.791	1293.041	1160.164
-10.604	40.940	1291.917	1159.982
-9.590	40.886	1290.835	1158.650
-8.575	40.879	1289.767	1157.603
-7.560	40.799	1288.989	1156.390
-6.546	40.831	1288.135	1155.765
-5.531	40.775	1287.177	1154.534
-4.517	40.809	1286.606	1154.176
-3.502	40.891	1285.083	1153.237
-2.487	40.786	1284.646	1152.193
-1.473	40.828	1281.222	1149.315
-0.458	40.001	1266.478	1131.316
0.556	36.552	1247.113	1091.610
1.571	32.801	1250.457	1073.151
2.586	31.375	1265.435	1077.692
3.600	29.795	1254.189	1058.980
4.615	21.592	1176.096	948.707
5.629	8.735	1091.376	815.222
6.644	2.606	1066.564	766.050
7.659	2.206	1063.332	761.667
8.673	1.826	1062.627	759.204
9.688	1.706	1061.301	757.589
10.702	2.176	1059.806	758.790
11.717	9.346	1071.049	802.665
12.731	20.855	1086.988	872.514
13.746	25.475	1092.410	899.986
14.761	25.439	1091.961	899.355
15.775	25.378	1091.600	898.676
16.790	25.159	1090.695	896.754
17.804	25.172	1089.934	896.113
18.819	25.268	1089.388	896.067
19.834	25.355	1088.971	896.077
20.848	25.368	1088.412	895.603
21.863	25.216	1087.941	894.379
22.877	25.229	1087.499	893.999
23.892	25.155	1086.795	892.973
24.907	25.271	1085.946	892.773
25.921	25.242	1084.515	891.373
26.936	25.291	1083.397	890.619
27.950	25.124	1082.287	888.802
28.965	25.002	1080.322	886.504
29.980	25.067	1078.892	885.574
30.994	25.247	1078.270	885.874
32.009	25.310	1076.561	884.705
33.023	25.105	1075.595	882.824
34.038	25.126	1075.260	882.571
35.053	25.160	1074.591	882.112
36.067	25.211	1073.843	881.673
37.082	25.342	1072.699	881.298
38.096	25.483	1072.274	881.559
39.111	25.562	1071.322	881.088
40.126	25.415	1069.765	879.009
41.140	24.984	1068.521	875.802
42.155	24.873	1066.928	873.877
43.169	24.827	1066.043	872.853
44.184	24.843	1065.667	872.544
45.199	24.708	1064.343	870.725
46.213	24.933	1063.317	870.903
47.228	24.997	1062.993	870.872
48.242	25.148	1061.655	870.433
49.257	25.256	1060.936	870.287
50.271	25.371	1060.263	870.220
51.286	25.404	1059.449	869.631
52.301	25.427	1058.072	868.535
53.315	25.231	1057.524	867.061
54.330	25.213	1056.574	866.119
55.344	25.129	1056.137	865.280
56.359	25.263	1055.113	865.009
57.374	25.104	1053.763	863.064
58.388	24.924	1053.877	862.211
59.403	24.922	1052.429	860.940
60.417	24.656	1052.086	859.308
61.432	24.875	1051.202	859.560
62.447	24.958	1050.597	859.387
63.461	25.081	1049.463	858.973
64.476	24.963	1048.473	857.522
65.490	24.886	1047.495	856.277
66.505	24.950	1046.875	855.999
67.520	24.884	1046.652	855.430
68.534	24.640	1045.412	853.172
69.549	24.529	1044.178	851.561
70.563	24.408	1043.675	850.500
71.578	24.566	1042.717	850.394
72.593	24.326	1041.259	847.990
73.607	24.508	1041.097	848.649
74.622	24.805	1040.954	849.870
75.636	24.777	1040.122	848.981
76.651	24.638	1039.299	847.577
77.666	24.469	1038.693	846.203
78.680	24.716	1037.861	846.622
79.695	24.730	1037.204	846.075
80.709	24.918	1036.609	846.403
81.724	24.856	1035.511	845.142
82.739	24.865	1034.704	844.451
83.753	25.360	1034.629	846.651
84.768	25.552	1033.947	846.919
85.782	25.667	1032.981	846.595
86.797	25.479	1032.312	845.088
87.812	25.354	1031.278	843.579
88.826	25.420	1030.188	842.923
89.841	25.506	1029.290	842.517
90.855	25.509	1028.124	841.503
91.870	25.479	1027.808	841.028
92.884	25.386	1026.399	839.367
93.899	25.361	1025.494	838.436
94.914	25.478	1024.759	838.308
95.928	25.260	1023.957	836.560
96.943	25.096	1022.428	834.472
97.957	24.903	1021.145	832.457
98.972	24.735	1020.418	831.009
99.987	24.969	1019.658	831.403
101.001	25.383	1018.476	832.285
102.016	25.213	1017.911	830.961
103.030	25.123	1017.018	829.744
104.045	24.987	1016.152	828.335
105.060	24.761	1015.213	826.452
106.074	24.943	1015.032	827.070
107.089	25.333	1014.147	828.076
108.103	25.200	1012.838	826.321
109.118	24.959	1011.703	824.214
110.133	25.003	1010.663	823.494
111.147	24.824	1009.297	821.485
112.162	24.673	1008.482	820.058
113.176	24.870	1008.249	820.698
114.191	24.841	1007.479	819.869
115.206	24.502	1006.006	817.046
116.220	24.537	1005.573	816.781
117.235	24.763	1004.513	816.879
118.249	24.714	1003.693	815.918
119.264	24.520	1003.259	814.610
120.279	24.653	1002.331	814.389
121.293	24.697	1001.445	813.798
122.308	24.697	1000.853	813.246
123.322	24.646	999.321	811.695
124.337	24.589	998.057	810.339
125.352	23.942	996.699	806.233
126.366	23.799	995.979	804.930
127.381	24.585	996.200	808.596
128.395	25.134	995.526	810.460
129.410	25.180	995.103	810.254
130.424	25.252	993.702	809.366
131.439	25.192	992.815	808.299
132.454	25.173	991.787	807.309
133.468	25.129	991.072	806.456
134.483	25.279	990.417	806.527
135.497	25.313	990.038	806.300
136.512	25.525	988.986	806.320
137.527	25.508	987.807	805.211
138.541	25.610	986.779	804.758
139.556	25.521	986.092	803.732
140.570	25.653	985.718	803.944
141.585	25.632	984.691	802.942
142.600	25.530	983.601	801.527
143.614	25.688	982.888	801.578
144.629	25.869	982.113	801.683
145.643	25.672	980.980	799.812
146.658	25.454	979.794	797.804
147.673	25.316	978.463	796.037
148.687	25.305	977.448	795.093
149.702	25.205	976.695	793.969
150.716	25.281	975.388	793.172
151.731	25.350	975.001	793.092
152.746	25.518	974.699	793.519
153.760	25.715	974.027	793.769
154.775	25.550	973.740	792.740
155.789	25.514	972.910	791.834
156.804	25.463	971.766	790.607
157.819	25.598	970.829	790.367
158.833	25.815	970.342	790.855
159.848	25.750	968.915	789.336
160.862	25.464	968.377	787.575
161.877	25.636	967.008	787.146
162.892	25.607	966.039	786.158
163.906	25.647	964.693	785.170
164.921	25.596	964.184	784.464
165.935	25.707	963.126	784.015
166.950	25.577	962.481	782.856
167.964	25.549	961.555	781.912
168.979	25.400	960.400	780.259
169.994	25.426	959.683	779.716
171.008	25.506	959.260	779.651
172.023	25.648	958.513	779.592
173.037	25.406	957.309	777.494
174.052	25.384	956.021	776.288
175.067	25.308	956.066	775.925
176.081	25.480	954.915	775.665
177.096	25.275	954.791	774.612
178.110	24.958	953.783	772.357
179.125	24.846	952.790	771.005
180.140	24.980	952.571	771.334
181.154	25.077	952.222	771.401
182.169	25.347	952.294	772.551
183.183	25.692	951.427	773.264
184.198	25.442	950.865	771.667
185.213	25.435	950.452	771.233
186.227	25.517	949.409	770.668
187.242	25.683	948.628	770.676
188.256	25.660	948.163	770.135
189.271	25.767	947.173	769.717
190.286	25.326	946.129	766.919
191.300	24.703	944.780	763.099
192.315	23.898	943.293	758.398
193.329	23.752	943.035	757.500
194.344	24.843	943.313	762.307
195.359	25.434	943.239	764.696
196.373	25.474	942.850	764.484
197.388	25.420	942.018	763.512
198.402	25.480	941.520	763.295
199.417	25.535	940.758	762.843
200.432	25.341	940.000	761.340
201.446	25.131	939.277	759.799
202.461	25.077	938.788	759.104
203.475	24.459	936.726	754.757
204.490	23.468	935.131	749.220
205.504	24.515	935.830	754.138
206.519	25.123	935.726	756.556
207.534	25.193	934.850	756.077
208.548	25.486	935.143	757.482
209.563	25.248	934.407	755.815
210.577	25.399	933.427	755.593
211.592	25.693	933.408	756.744
212.607	25.760	932.329	756.085
213.621	25.582	931.989	754.993
214.636	25.694	931.036	754.627
215.650	25.637	930.425	753.826
216.665	25.667	929.867	753.430
217.680	25.629	929.634	753.015
218.694	25.278	928.061	750.209
219.709	25.088	927.611	748.986
220.723	25.292	927.254	749.482
221.738	25.629	926.282	750.036
222.753	25.395	925.569	748.419
223.767	25.560	925.560	749.031
224.782	25.772	925.508	749.804
225.796	25.833	924.111	748.861
226.811	25.172	922.881	745.054
227.826	24.476	921.532	741.009
228.840	24.658	921.133	741.380
229.855	24.725	920.501	741.083
230.869	24.520	919.034	738.989
231.884	24.779	919.137	740.076
232.899	25.504	919.345	743.178
233.913	25.477	918.569	742.372
234.928	25.311	918.218	741.337
235.942	25.296	918.044	741.070
236.957	24.907	916.994	738.553
237.972	24.910	916.468	738.075
238.986	25.173	915.889	738.627
240.001	25.263	915.068	738.269
241.015	25.124	914.466	737.149
242.030	25.399	914.042	737.873
243.045	25.551	913.571	738.049
244.059	25.653	913.434	738.293
245.074	25.453	912.332	736.517
246.088	25.139	911.389	734.405
247.103	25.266	911.137	734.655
248.117	26.032	911.129	737.721
249.132	26.143	910.505	737.602
250.147	26.120	910.517	737.454
251.161	26.525	909.565	738.266
252.176	26.394	908.810	737.057
253.190	26.412	908.732	737.002
254.205	26.574	908.526	737.429
255.220	26.467	907.529	736.119
256.234	26.286	906.947	734.846
257.249	26.274	905.953	733.928
258.263	26.312	905.166	733.377
259.278	26.371	904.610	733.101
260.293	26.453	904.051	732.917
261.307	26.418	903.378	732.166
262.322	26.184	902.618	730.538
263.336	25.477	900.498	725.904
264.351	24.422	898.764	720.183
265.366	24.321	898.901	719.824
266.380	25.613	899.283	725.278
267.395	26.115	898.846	726.884
268.409	25.973	898.489	725.961
269.424	26.236	897.270	725.968
270.439	26.263	897.050	725.834
271.453	26.084	896.986	724.997
272.468	26.382	896.065	725.385
273.482	26.537	895.674	725.627
274.497	26.056	894.470	722.660
275.512	25.646	893.753	720.377
276.526	26.040	894.165	722.222
277.541	26.181	893.874	722.487
278.555	25.988	892.455	720.504
279.570	25.833	891.898	719.375
280.585	25.979	891.722	719.752
281.599	26.015	890.135	718.548
282.614	25.392	889.016	715.105
283.628	25.389	888.629	714.715
284.643	25.788	888.228	715.919
285.657	25.442	886.854	713.373
286.672	25.219	886.542	712.174
287.687	25.683	886.506	713.923
288.701	25.759	885.751	713.554
289.716	25.334	885.285	711.433
290.730	25.342	884.181	710.513
291.745	25.053	883.564	708.810
292.760	25.371	883.461	709.922
293.774	26.437	883.502	714.106
294.789	26.775	883.435	715.322
295.803	26.768	882.785	714.703
296.818	26.779	882.166	714.183
297.833	26.391	880.929	711.591
298.847	26.174	880.290	710.161
299.862	26.467	880.020	711.031
300.876	26.811	879.401	711.816
301.891	26.666	878.959	710.830
302.906	26.237	878.043	708.344
303.920	26.431	877.762	708.812
304.935	26.682	877.309	709.368
305.949	26.577	876.877	708.545
306.964	26.387	875.875	706.931
307.979	26.305	875.706	706.411
308.993	26.837	875.595	708.335
310.008	26.895	874.711	707.787
311.022	26.721	873.636	706.173
312.037	26.464	873.417	704.935
313.052	26.153	872.361	702.808
314.066	25.231	870.895	697.981
315.081	24.892	870.201	696.047
316.095	25.765	870.595	699.694
317.110	26.387	869.987	701.558
318.125	25.454	868.886	696.989
319.139	24.472	867.221	691.787
320.154	24.433	867.191	691.551
321.168	25.269	867.363	694.868
322.183	25.986	867.589	697.760
323.197	26.137	867.469	698.186
324.212	26.483	866.835	698.954
325.227	26.507	866.236	698.499
326.241	26.295	865.640	697.140
327.256	26.061	865.073	695.719
328.270	25.988	864.366	694.809
329.285	25.999	863.447	694.050
330.300	25.758	862.612	692.390
331.314	25.870	862.716	692.845
332.329	26.494	862.329	694.868
333.343	26.577	861.883	694.768
334.358	26.538	861.660	694.378
335.373	26.577	861.290	694.165
336.387	26.875	861.206	695.180
337.402	27.076	860.845	695.594
338.416	26.993	860.463	694.908
339.431	27.083	860.030	694.840
340.446	27.061	860.063	694.723
341.460	27.053	859.636	694.285
342.475	26.864	858.994	692.982
343.489	26.903	858.754	692.878
344.504	27.353	857.883	693.830
345.519	27.415	857.590	693.768
346.533	27.296	857.591	693.253
347.548	27.303	857.166	692.875
348.562	27.323	856.413	692.279
349.577	27.308	855.798	691.664
350.592	27.239	854.862	690.585
351.606	27.318	854.405	690.455
352.621	27.013	853.387	688.415
353.635	27.075	852.495	687.870
354.650	26.499	850.838	684.295
355.665	25.441	849.792	679.396
356.679	25.829	849.359	680.455
357.694	26.402	849.197	682.425
358.708	26.215	848.491	681.095
359.723	26.664	848.214	682.505
360.738	27.003	848.083	683.615
361.752	27.209	847.273	683.677
362.767	27.424	847.262	684.416
363.781	27.716	846.805	685.080
364.796	27.735	846.721	685.023
365.810	27.900	845.993	684.994
366.825	27.654	845.898	683.935
367.840	27.384	845.309	682.386
368.854	27.102	843.736	679.998
369.869	27.089	843.446	679.658
370.883	27.222	843.139	679.846
371.898	26.942	842.597	678.303
372.913	27.143	842.258	678.721
373.927	27.086	842.065	678.291
374.942	27.473	841.339	679.090
375.956	27.519	841.239	679.123
376.971	27.516	840.850	678.735
377.986	27.683	840.408	678.941
379.000	27.752	839.587	678.475
380.015	27.582	838.995	677.305
381.029	27.533	838.607	676.750
382.044	27.615	838.468	676.882
383.059	27.756	837.338	676.433
384.073	27.915	836.690	676.439
385.088	27.788	835.950	675.309
386.102	27.235	835.668	672.978
387.117	27.354	835.082	672.884
388.132	27.097	833.977	670.985
389.146	26.685	832.488	668.209
390.161	26.989	832.757	669.488
391.175	27.372	833.008	671.043
392.190	27.016	831.822	668.718
393.205	25.745	829.559	662.169
394.219	24.392	827.529	655.521
395.234	24.115	827.338	654.295
396.248	25.724	828.611	661.156
397.263	27.354	829.610	667.883
398.278	27.096	829.488	666.778
399.292	27.088	828.689	666.049
400.307	27.045	828.034	665.307
401.321	27.023	827.843	665.014
402.336	27.382	827.720	666.171
403.350	27.813	827.692	667.665
404.365	28.101	827.323	668.363
405.380	28.265	827.297	668.880
406.394	28.419	826.773	668.960
407.409	28.527	825.847	668.544
408.423	28.303	825.777	667.614
409.438	28.346	825.560	667.536
410.453	28.588	824.705	667.664
411.467	28.365	824.176	666.367
412.482	28.394	823.822	666.126
413.496	28.556	823.526	666.417
414.511	28.338	823.373	665.443
415.526	28.491	822.947	665.596
416.540	28.260	821.977	663.914
417.555	27.965	821.299	662.238
418.569	28.009	821.304	662.345
419.584	28.158	820.456	662.142
420.599	27.918	819.680	660.587
421.613	94.104	1264.038	1370.911
422.628	81.049	1328.819	1371.031
