DTS Sentinel unit serial number:	SN413079Multiplexer serial number:	ORYXHardware model number:	OX4-SRSoftware version number:	ORYX F/W v4.00 Oryx Data Collector v3.7.2.0data status	okinstallation	princeton_trtdifferential loss correction	single-endedforward channel	channel 1reverse channel	N/Adate	2019/09/12time	17:40:11forward acquisition time	60.00reverse acquisition time	0.00gamma	496.2192k internal	0.2317k external	0.2317temperature offset calibration	1.0106default loss term (dB/km)	0.3790temperature slope calibration	1.0000multiplexer offset coefficient	1.0000multiplexer slope coefficient	1.0000fibre end	0.00T internal ref (°C)	34.31T ext. ref 1 (°C)	2.89T ext. ref 2 (°C)	28.38length (m)	temperature (°C)	Stokes	anti-Stokes-747.200	-38.092	0.258	-0.139
-746.185	-23.180	-0.269	0.164
-745.171	-18.458	-0.256	0.162
-744.156	-176.619	-0.279	0.007
-743.142	800.000	0.057	-0.183
-742.127	-14.582	-0.125	-0.081
-741.112	355.708	-0.080	0.161
-740.098	-200.000	-0.025	0.326
-739.083	-93.624	-0.294	0.082
-738.069	378.666	-0.076	0.158
-737.054	-61.014	-0.047	-0.020
-736.039	56.202	-0.197	-0.194
-735.025	121.148	0.212	0.267
-734.010	-200.000	-0.034	-0.269
-732.996	-174.604	-0.202	0.006
-731.981	-34.054	-0.275	0.153
-730.966	-119.094	0.185	0.033
-729.952	262.630	0.121	-0.213
-728.937	143.557	-0.135	-0.182
-727.923	-200.000	0.016	-0.097
-726.908	-34.033	-0.293	-0.163
-725.894	-113.789	0.551	0.109
-724.879	-200.000	-0.005	-0.025
-723.864	-147.219	-0.146	0.013
-722.850	138.216	-0.109	-0.144
-721.835	-200.000	-0.061	-0.372
-720.821	365.135	0.125	-0.255
-719.806	-200.000	0.021	-0.097
-718.791	-200.000	0.049	0.346
-717.777	-66.802	0.204	-0.082
-716.762	-60.229	-0.265	-0.114
-715.748	21.705	-0.241	0.199
-714.733	191.960	0.167	-0.254
-713.718	292.620	0.247	-0.455
-712.704	103.859	0.107	0.127
-711.689	268.630	-0.096	-0.170
-710.675	96.701	-0.056	-0.065
-709.660	800.000	0.028	0.119
-708.645	-40.767	0.120	0.063
-707.631	433.467	-0.022	0.048
-706.616	-105.300	-0.169	-0.039
-705.602	-86.922	-0.257	0.079
-704.587	13.953	0.158	-0.124
-703.572	-147.598	0.533	0.045
-702.558	406.381	-0.118	-0.251
-701.543	-29.863	0.100	-0.058
-700.529	43.527	-0.258	-0.238
-699.514	-19.977	0.139	-0.087
-698.499	36.527	0.251	0.224
-697.485	-157.920	0.223	0.013
-696.470	-200.000	-0.015	0.138
-695.456	800.000	0.066	-0.282
-694.441	800.000	0.015	-0.052
-693.426	230.083	-0.040	-0.065
-692.412	-156.835	-0.118	0.007
-691.397	-200.000	0.009	0.087
-690.383	-46.290	-0.061	-0.030
-689.368	-19.864	-0.124	-0.077
-688.354	185.336	0.178	0.267
-687.339	155.075	0.145	-0.201
-686.324	-26.207	0.375	-0.223
-685.310	-200.000	0.023	0.110
-684.295	-124.760	0.127	0.020
-683.281	-200.000	0.000	0.165
-682.266	-200.000	-0.014	-0.362
-681.251	-98.294	-0.065	-0.017
-680.237	56.513	-0.108	0.106
-679.222	286.490	-0.127	0.232
-678.208	205.315	0.079	0.124
-677.193	-108.189	-0.227	0.050
-676.178	800.000	-0.084	-0.323
-675.164	-41.470	0.290	0.151
-674.149	-119.922	-0.103	0.018
-673.135	211.247	0.115	-0.183
-672.120	49.504	-0.196	-0.186
-671.105	-79.490	-0.162	-0.055
-670.091	612.807	-0.027	0.067
-669.076	29.674	-0.218	0.187
-668.062	800.000	-0.100	0.316
-667.047	800.000	0.196	-0.560
-666.032	622.559	0.187	-0.475
-665.018	-102.548	0.145	-0.035
-664.003	-74.780	0.105	-0.038
-662.989	71.473	-0.187	-0.196
-661.974	800.000	0.051	-0.197
-660.959	571.138	-0.163	0.399
-659.945	42.675	-0.256	0.235
-658.930	379.240	0.117	0.241
-657.916	637.290	-0.076	-0.194
-656.901	86.386	0.226	-0.252
-655.886	-200.000	-0.017	-0.269
-654.872	172.738	-0.116	0.169
-653.857	29.952	-0.098	-0.084
-652.843	-103.223	-0.105	-0.025
-651.828	75.121	-0.284	-0.302
-650.814	800.000	-0.075	-0.240
-649.799	-12.461	0.104	0.068
-648.784	-65.671	0.195	0.079
-647.770	-79.648	-0.322	0.109
-646.755	69.611	-0.037	-0.038
-645.741	-9.707	0.292	-0.197
-644.726	295.893	0.058	-0.107
-643.711	-72.342	0.334	0.125
-642.697	-200.000	0.012	-0.294
-641.682	-70.150	-0.064	0.025
-640.668	-200.000	0.026	-0.235
-639.653	-200.000	-0.045	-0.276
-638.638	-200.000	0.039	-0.363
-637.624	98.402	-0.062	0.073
-636.609	3.853	0.115	-0.085
-635.595	-200.000	-0.008	0.177
-634.580	496.633	-0.095	-0.221
-633.565	164.926	0.103	-0.147
-632.551	757.775	0.169	0.461
-631.536	-1.929	-0.180	0.127
-630.522	-67.579	-0.316	0.125
-629.507	800.000	0.095	-0.301
-628.492	-200.000	0.041	-0.381
-627.478	-80.815	0.279	0.094
-626.463	126.637	0.066	-0.085
-625.449	51.991	0.202	-0.194
-624.434	-200.000	-0.032	-0.200
-623.419	-63.215	0.215	0.090
-622.405	-109.150	0.221	0.047
-621.390	68.704	0.206	-0.213
-620.376	-117.360	-0.119	-0.022
-619.361	-22.203	0.346	-0.211
-618.346	94.329	0.048	0.054
-617.332	222.107	0.231	0.375
-616.317	-94.511	-0.405	0.111
-615.303	-19.878	0.223	-0.139
-614.288	-118.819	-0.277	-0.049
-613.273	1.331	0.147	0.107
-612.259	-6.968	0.093	0.064
-611.244	-5.657	0.117	0.081
-610.230	160.213	0.287	0.403
-609.215	-50.082	-0.109	0.052
-608.201	337.688	-0.039	-0.076
-607.186	-156.665	-0.090	-0.006
-606.171	706.773	0.111	0.295
-605.157	-137.124	0.162	0.019
-604.142	122.045	-0.119	-0.150
-603.128	-103.544	-0.098	-0.023
-602.113	374.333	0.167	-0.342
-601.098	800.000	0.077	0.229
-600.084	-117.282	-0.195	-0.036
-599.069	800.000	-0.141	-0.449
-598.055	-67.813	0.140	0.055
-597.040	-200.000	-0.011	-0.300
-596.025	6.030	-0.188	-0.140
-595.011	-163.840	-0.264	-0.012
-593.996	138.428	-0.041	0.055
-592.982	-138.730	-0.404	-0.044
-591.967	55.730	-0.154	-0.150
-590.952	800.000	-0.066	-0.191
-589.938	-97.479	0.248	-0.065
-588.923	-71.291	0.338	0.128
-587.909	-31.485	0.211	-0.120
-586.894	-200.000	0.069	0.318
-585.879	-200.000	0.050	-0.368
-584.865	-200.000	0.008	-0.066
-583.850	19.283	0.239	-0.193
-582.836	88.517	0.207	-0.231
-581.821	-75.749	-0.148	-0.053
-580.806	196.997	-0.049	0.075
-579.792	5.484	0.006	-0.004
-578.777	-26.330	0.319	-0.189
-577.763	-200.000	-0.038	-0.399
-576.748	-95.125	0.250	0.068
-575.733	65.039	0.048	0.049
-574.719	278.158	-0.121	0.217
-573.704	86.604	0.227	-0.252
-572.690	92.766	-0.276	0.313
-571.675	138.319	0.165	0.218
-570.661	800.000	-0.097	-0.279
-569.646	-18.815	-0.278	0.174
-568.631	-40.589	-0.097	-0.051
-567.617	800.000	-0.052	0.166
-566.602	-65.351	-0.217	-0.088
-565.588	-152.012	0.263	0.019
-564.573	800.000	-0.062	0.245
-563.558	81.228	-0.135	-0.147
-562.544	-97.149	-0.424	0.111
-561.529	53.101	-0.287	-0.277
-560.515	-136.183	-0.190	-0.022
-559.500	-140.879	-0.357	-0.037
-558.485	-70.888	-0.303	0.115
-557.471	800.000	-0.005	-0.020
-556.456	-116.354	0.196	-0.036
-555.442	-33.910	-0.047	-0.026
-554.427	-200.000	-0.021	-0.273
-553.412	-26.940	-0.093	0.055
-552.398	-123.580	0.208	0.033
-551.383	-88.075	-0.196	-0.059
-550.369	-16.671	-0.250	-0.159
-549.354	173.492	-0.061	-0.088
-548.339	-131.320	0.201	0.027
-547.325	12.565	-0.233	-0.180
-546.310	15.811	0.141	-0.112
-545.296	193.022	0.101	-0.154
-544.281	75.542	0.019	-0.020
-543.266	-67.498	0.199	-0.079
-542.252	114.757	0.159	-0.195
-541.237	383.353	-0.111	-0.229
-540.223	109.572	-0.143	-0.172
-539.208	-31.049	-0.153	-0.087
-538.193	78.345	-0.057	-0.061
-537.179	-85.569	-0.056	0.018
-536.164	419.510	-0.085	0.183
-535.150	249.907	-0.140	0.238
-534.135	-200.000	-0.025	-0.247
-533.121	35.331	0.193	0.170
-532.106	25.975	-0.150	-0.126
-531.091	-122.655	-0.128	0.021
-530.077	800.000	0.051	0.163
-529.062	-200.000	0.049	0.261
-528.048	-200.000	0.050	0.261
-527.033	2.714	-0.151	-0.110
-526.018	54.056	0.180	0.174
-525.004	-100.502	0.285	0.071
-523.989	800.000	-0.045	0.135
-522.975	-120.781	-0.531	-0.090
-521.960	265.459	-0.091	-0.160
-520.945	-2.531	0.113	0.080
-519.931	526.293	-0.084	0.199
-518.916	54.098	0.243	-0.235
-517.902	800.000	0.069	0.291
-516.887	737.559	0.086	-0.231
-515.872	90.245	-0.239	-0.269
-514.858	193.241	0.092	0.140
-513.843	800.000	0.090	-0.301
-512.829	800.000	-0.034	0.131
-511.814	350.124	-0.131	0.261
-510.799	-200.000	-0.035	0.377
-509.785	-41.365	-0.042	-0.021
-508.770	64.264	-0.136	0.138
-507.756	261.598	0.196	0.341
-506.741	123.451	-0.111	0.140
-505.726	320.667	-0.045	-0.085
-504.712	-62.614	0.124	-0.052
-503.697	-142.320	0.204	0.020
-502.683	-52.397	0.097	0.045
-501.668	93.871	-0.168	0.191
-500.653	520.543	-0.062	0.146
-499.639	-71.990	-0.206	0.077
-498.624	-200.000	0.074	0.358
-497.610	-200.000	0.005	-0.267
-496.595	-95.413	-0.244	0.066
-495.581	800.000	-0.095	-0.278
-494.566	-200.000	-0.010	-0.283
-493.551	-118.720	0.085	0.015
-492.537	38.638	-0.118	0.105
-491.522	30.501	-0.169	0.145
-490.508	800.000	-0.039	-0.113
-489.493	-31.697	0.209	0.118
-488.478	-200.000	-0.059	0.295
-487.464	82.827	-0.090	-0.098
-486.449	6.755	0.089	-0.066
-485.435	60.954	0.191	0.190
-484.420	-200.000	-0.021	-0.162
-483.405	-74.021	-0.084	-0.031
-482.391	-200.000	0.028	0.155
-481.376	-200.000	-0.026	0.166
-480.362	4.523	-0.182	-0.134
-479.347	486.990	-0.095	0.216
-478.332	108.031	-0.130	0.155
-477.318	-200.000	0.030	-0.312
-476.303	400.576	-0.098	-0.205
-475.289	-45.480	0.057	-0.028
-474.274	-85.733	0.128	-0.040
-473.259	-76.651	0.177	0.062
-472.245	-110.845	0.098	-0.020
-471.230	118.417	-0.117	-0.144
-470.216	139.529	0.121	0.159
-469.201	-116.350	0.159	0.030
-468.186	-3.349	0.050	-0.035
-467.172	800.000	0.117	-0.365
-466.157	-200.000	0.028	-0.154
-465.143	-124.201	-0.317	-0.050
-464.128	-200.000	0.026	-0.220
-463.113	-200.000	-0.005	0.171
-462.099	-142.905	0.149	0.015
-461.084	317.923	-0.107	0.204
-460.070	-200.000	0.028	0.210
-459.055	387.561	0.144	-0.298
-458.040	-179.145	-0.171	0.004
-457.026	-65.745	0.152	0.061
-456.011	-93.975	-0.235	0.065
-454.997	112.741	-0.368	0.446
-453.982	-26.913	-0.352	-0.206
-452.968	-78.504	0.297	0.102
-451.953	-200.000	-0.002	0.255
-450.938	652.256	-0.022	-0.056
-449.924	97.154	-0.099	-0.113
-448.909	-64.822	-0.346	-0.140
-447.895	-21.372	-0.384	-0.234
-446.880	244.502	-0.057	-0.095
-445.865	523.620	-0.105	-0.248
-444.851	-200.000	-0.022	0.213
-443.836	-174.744	-0.193	0.005
-442.822	-200.000	0.056	-0.361
-441.807	-17.865	-0.084	0.053
-440.792	71.119	0.038	-0.040
-439.778	-51.563	-0.327	-0.153
-438.763	667.861	-0.093	-0.240
-437.749	-200.000	0.002	-0.031
-436.734	532.050	0.074	0.174
-435.719	-200.000	0.031	-0.220
-434.705	136.869	-0.187	-0.245
-433.690	-38.517	-0.143	-0.076
-432.676	-200.000	-0.041	-0.233
-431.661	-117.145	0.295	0.054
-430.646	800.000	-0.086	-0.279
-429.632	-100.066	0.208	-0.052
-428.617	133.989	-0.143	0.185
-427.603	-105.437	-0.167	-0.038
-426.588	-37.236	-0.203	0.109
-425.573	101.362	0.280	0.326
-424.559	437.275	-0.067	-0.146
-423.544	-164.515	0.118	-0.005
-422.530	-45.134	0.278	0.138
-421.515	527.681	0.033	0.078
-420.500	-178.375	0.072	0.002
-419.486	543.350	0.103	-0.245
-418.471	-200.000	-0.044	-0.250
-417.457	-63.248	0.287	0.118
-416.442	-115.577	0.408	-0.077
-415.428	21.441	0.083	0.067
-414.413	-71.049	-0.179	-0.067
-413.398	-45.279	0.188	-0.093
-412.384	197.297	0.307	0.468
-411.369	104.903	-0.165	0.195
-410.355	-116.653	0.193	-0.036
-409.340	232.012	0.138	0.226
-408.325	-98.995	0.188	-0.048
-407.311	800.000	0.071	0.223
-406.296	9.232	-0.365	-0.276
-405.282	-176.145	0.326	0.009
-404.267	-187.059	0.046	0.001
-403.252	203.415	0.024	0.038
-402.238	-103.297	-0.175	-0.041
-401.223	-104.363	0.226	-0.052
-400.209	800.000	-0.056	-0.193
-399.194	638.477	0.083	0.210
-398.179	-87.574	0.128	-0.039
-397.165	-87.860	0.180	0.054
-396.150	-41.792	0.026	-0.013
-395.136	-16.822	0.187	0.118
-394.121	16.570	0.050	-0.039
-393.106	183.659	-0.214	-0.315
-392.092	-135.004	-0.219	0.026
-391.077	40.074	-0.166	0.149
-390.063	726.921	0.120	-0.320
-389.048	13.355	0.279	-0.216
-388.033	-166.301	0.147	-0.006
-387.019	-126.279	-0.473	-0.071
-386.004	-185.686	0.273	-0.004
-384.990	-129.819	-0.262	-0.036
-383.975	-45.245	-0.281	0.139
-382.960	-200.000	0.028	-0.143
-381.946	-178.892	-0.349	0.008
-380.931	70.457	-0.168	0.173
-379.917	-143.206	0.199	-0.019
-378.902	-159.787	-0.454	-0.025
-377.888	630.398	-0.094	0.238
-376.873	371.629	0.061	0.123
-375.858	-200.000	-0.013	0.270
-374.844	481.994	-0.056	0.126
-373.829	-40.902	-0.406	-0.210
-372.815	16.647	0.191	-0.151
-371.800	371.605	0.053	0.108
-370.785	-37.852	-0.114	0.061
-369.771	-107.176	0.289	-0.064
-368.756	-77.926	0.430	0.148
-367.742	-65.041	0.188	0.076
-366.727	-122.231	-0.232	0.038
-365.712	-111.115	-0.129	-0.026
-364.698	800.000	-0.056	-0.175
-363.683	-200.000	0.313	-0.001
-362.669	252.672	-0.046	-0.078
-361.654	-144.598	-0.344	0.032
-360.639	800.000	-0.037	0.148
-359.625	-176.668	-0.089	0.002
-358.610	-50.485	0.158	-0.074
-357.596	-200.000	0.011	-0.112
-356.581	353.483	-0.123	-0.244
-355.566	791.236	-0.067	0.184
-354.552	23.768	-0.172	0.141
-353.537	202.262	-0.070	0.108
-352.523	-19.453	0.306	-0.189
-351.508	208.627	0.047	-0.074
-350.493	166.520	0.043	-0.061
-349.479	-200.000	0.063	0.416
-348.464	647.516	0.090	-0.230
-347.450	800.000	0.025	-0.093
-346.435	800.000	0.086	0.292
-345.420	15.386	0.219	0.172
-344.406	-200.000	0.003	0.113
-343.391	83.711	-0.121	0.131
-342.377	639.163	0.097	0.247
-341.362	-30.900	0.316	-0.178
-340.348	82.966	0.205	0.222
-339.333	7.675	-0.401	-0.299
-338.318	-137.401	-0.085	0.010
-337.304	-83.383	-0.258	-0.083
-336.289	-15.981	0.097	0.061
-335.275	-200.000	0.061	-0.470
-334.260	732.889	0.060	0.159
-333.245	-103.568	0.128	-0.030
-332.231	-98.536	-0.151	0.039
-331.216	-200.000	0.025	-0.143
-330.202	48.488	0.207	0.193
-329.187	-200.000	-0.059	0.368
-328.172	-129.496	-0.356	0.049
-327.158	156.473	-0.208	0.286
-326.143	-129.389	0.139	0.019
-325.129	-200.000	-0.049	-0.263
-324.114	99.775	0.117	-0.135
-323.099	-93.968	0.164	-0.045
-322.085	-200.000	-0.042	-0.237
-321.070	-44.681	-0.039	0.020
-320.056	800.000	0.067	-0.202
-319.041	162.269	-0.098	-0.136
-318.026	-200.000	0.048	-0.221
-317.012	-8.980	-0.207	-0.138
-315.997	165.045	-0.032	-0.046
-314.983	650.339	-0.080	0.205
-313.968	425.158	0.122	0.262
-312.953	-8.738	-0.296	0.198
-311.939	-107.883	0.218	0.047
-310.924	-81.005	-0.250	0.083
-309.910	-9.228	0.125	-0.083
-308.895	330.492	0.091	-0.174
-307.880	-81.509	0.196	-0.064
-306.866	-200.000	0.046	0.262
-305.851	-200.000	0.012	-0.279
-304.837	-66.898	0.245	0.096
-303.822	-43.045	0.313	0.158
-302.807	110.852	-0.103	-0.124
-301.793	-200.000	-0.027	-0.280
-300.778	-200.000	-0.023	-0.312
-299.764	3.624	-0.180	-0.131
-298.749	39.450	0.172	-0.153
-297.735	42.808	-0.169	-0.153
-296.720	-13.680	0.040	0.026
-295.705	186.439	-0.031	-0.046
-294.691	-67.395	-0.247	0.097
-293.676	-22.130	0.248	0.150
-292.662	-22.402	0.027	0.016
-291.647	-136.168	-0.321	0.037
-290.632	-200.000	0.025	0.201
-289.618	-34.447	0.135	0.073
-288.603	800.000	-0.033	-0.098
-287.589	-10.985	0.196	0.129
-286.574	349.607	-0.131	-0.258
-285.559	-200.000	-0.045	-0.388
-284.545	-186.870	-0.132	0.002
-283.530	291.396	-0.202	-0.365
-282.516	67.132	0.078	0.079
-281.501	-200.000	-0.010	0.266
-280.486	169.767	0.077	-0.109
-279.472	-188.613	-0.279	-0.003
-278.457	-146.880	0.160	0.014
-277.443	-142.398	-0.180	0.018
-276.428	228.213	-0.110	0.178
-275.413	2.070	0.279	-0.200
-274.399	-46.129	0.191	-0.093
-273.384	409.945	-0.044	0.094
-272.370	-80.968	-0.162	-0.054
-271.355	88.589	-0.176	0.194
-270.340	800.000	-0.096	-0.268
-269.326	245.021	0.132	-0.221
-268.311	-113.142	0.543	0.106
-267.297	53.910	0.142	0.135
-266.282	-6.564	-0.096	-0.065
-265.267	-200.000	0.045	0.212
-264.253	-49.473	-0.213	0.101
-263.238	800.000	0.079	0.258
-262.224	-120.957	0.158	0.026
-261.209	-139.612	-0.242	0.026
-260.195	1.373	-0.099	0.070
-259.180	569.139	-0.090	-0.218
-258.165	-89.480	0.222	-0.065
-257.151	-200.000	-0.056	0.416
-256.136	86.312	0.171	0.187
-255.122	-87.837	0.391	0.117
-254.107	124.406	0.071	0.089
-253.092	-200.000	0.031	0.140
-252.078	-64.211	-0.094	0.038
-251.063	-148.895	-0.071	-0.006
-250.049	365.115	0.116	0.233
-249.034	-200.000	0.032	0.208
-248.019	-200.000	0.062	-0.298
-247.005	128.898	0.144	-0.182
-245.990	127.984	-0.251	0.317
-244.976	5.982	0.085	-0.062
-243.961	188.552	0.141	0.209
-242.946	225.474	-0.064	-0.103
-241.932	-26.074	-0.313	0.183
-240.917	-200.000	0.060	0.377
-239.903	61.846	0.141	-0.139
-238.888	-200.000	-0.061	-0.341
-237.873	-155.432	-0.195	0.013
-236.859	72.454	-0.218	0.225
-235.844	800.000	0.085	0.323
-234.830	-17.872	-0.115	0.072
-233.815	-98.103	-0.062	0.016
-232.800	-114.532	-0.327	0.062
-231.786	158.459	0.117	-0.162
-230.771	-33.546	-0.135	-0.074
-229.757	-29.137	0.112	0.064
-228.742	-62.861	0.388	-0.160
-227.727	471.033	-0.145	0.323
-226.713	-89.583	-0.402	0.117
-225.698	531.213	-0.167	0.391
-224.684	395.705	0.106	0.220
-223.669	258.403	0.107	0.183
-222.655	634.495	0.088	0.221
-221.640	129.562	0.229	0.290
-220.625	379.423	0.159	0.323
-219.611	-77.470	0.239	0.082
-218.596	309.028	-0.106	0.197
-217.582	800.000	0.061	-0.177
-216.567	-200.000	-0.012	-0.132
-215.552	6.374	0.091	-0.067
-214.538	107.772	0.247	0.292
-213.523	150.892	0.184	-0.248
-212.509	-9.544	0.162	-0.107
-211.494	-200.000	0.019	0.193
-210.479	-200.000	-0.029	0.356
-209.465	627.283	0.021	-0.054
-208.450	107.788	-0.179	-0.212
-207.436	80.573	0.138	-0.147
-206.421	246.208	-0.025	-0.042
-205.406	-200.000	0.017	0.198
-204.392	-200.000	0.020	-0.096
-203.377	28.800	-0.270	0.227
-202.363	-69.781	0.276	-0.104
-201.348	-200.000	0.023	0.231
-200.333	276.928	0.031	0.054
-199.319	738.773	-0.043	-0.114
-198.304	11.419	0.174	-0.132
-197.290	-68.405	-0.320	-0.123
-196.275	152.589	0.239	0.324
-195.260	56.287	0.254	-0.245
-194.246	-200.000	-0.056	0.389
-193.231	-9.668	-0.134	-0.089
-192.217	3.177	0.087	0.063
-191.202	-26.377	-0.365	0.212
-190.187	-30.611	0.090	-0.051
-189.173	-93.980	0.137	-0.037
-188.158	-26.676	0.253	0.147
-187.144	-110.999	0.248	-0.051
-186.129	511.559	-0.104	-0.239
-185.114	-200.000	0.016	-0.349
-184.100	145.132	-0.211	0.279
-183.085	-200.000	0.065	0.282
-182.071	-200.000	-0.011	0.052
-181.056	104.282	0.177	-0.206
-180.042	83.329	0.144	-0.155
-179.027	18.827	0.069	0.055
-178.012	103.993	-0.261	-0.303
-176.998	271.211	-0.096	-0.168
-175.983	-74.202	-0.246	-0.088
-174.969	774.975	0.010	0.028
-173.954	84.216	0.116	0.125
-172.939	254.622	-0.052	-0.087
-171.925	800.000	-0.039	0.117
-170.910	-14.050	-0.371	0.237
-169.896	213.729	-0.222	0.348
-168.881	211.279	-0.097	-0.151
-167.866	-29.035	-0.111	0.063
-166.852	91.816	-0.201	0.224
-165.837	-174.060	0.338	-0.010
-164.823	274.149	-0.139	0.243
-163.808	170.827	-0.160	-0.228
-162.793	308.534	0.228	-0.422
-161.779	197.626	0.219	-0.331
-160.764	130.266	-0.088	-0.112
-159.750	800.000	-0.028	0.091
-158.735	138.238	0.100	-0.130
-157.720	66.859	-0.124	0.124
-156.706	-200.000	-0.009	0.215
-155.691	111.505	0.190	-0.227
-154.677	-85.193	0.153	-0.047
-153.662	70.901	-0.020	0.021
-152.647	265.442	0.128	0.221
-151.633	-200.000	0.015	0.260
-150.618	-107.809	-0.113	-0.024
-149.604	124.865	0.044	0.054
-148.589	800.000	0.035	-0.149
-147.574	130.614	-0.263	0.333
-146.560	-183.509	0.480	0.008
-145.545	193.109	-0.080	-0.120
-144.531	-111.901	0.399	-0.080
-143.516	33.396	0.256	-0.220
-142.502	-200.000	0.038	-0.337
-141.487	4.416	-0.265	0.192
-140.472	140.291	-0.057	-0.075
-139.458	-107.131	-0.144	-0.031
-138.443	-122.342	0.219	-0.035
-137.429	18.713	-0.254	-0.201
-136.414	59.037	0.097	0.094
-135.399	275.630	-0.074	0.130
-134.385	-45.527	0.251	-0.123
-133.370	-46.646	-0.053	-0.026
-132.356	-0.457	0.154	0.108
-131.341	493.294	0.049	0.112
-130.326	-26.290	-0.211	0.122
-129.312	-28.423	0.135	-0.077
-128.297	326.724	0.223	0.422
-127.283	181.297	-0.070	-0.102
-126.268	187.310	0.086	-0.127
-125.253	0.080	0.047	-0.033
-124.239	-2.334	-0.140	-0.097
-123.224	-200.000	0.003	0.149
-122.210	436.870	0.041	0.088
-121.195	-141.302	0.216	-0.022
-120.180	441.427	0.092	0.198
-119.166	-4.371	-0.302	-0.206
-118.151	-200.000	0.081	-0.595
-117.137	-200.000	-0.063	-0.458
-116.122	-96.170	0.283	-0.074
-115.107	-52.194	-0.176	-0.081
-114.093	-127.009	0.278	0.040
-113.078	770.850	-0.060	0.162
-112.064	-200.000	0.000	-0.055
-111.049	58.626	-0.137	0.133
-110.034	398.375	0.093	0.192
-109.020	419.317	0.112	-0.236
-108.005	-200.000	0.013	0.105
-106.991	-200.000	0.038	-0.223
-105.976	459.858	-0.091	-0.201
-104.962	-61.492	-0.212	0.088
-103.947	-10.521	-0.272	-0.178
-102.932	142.017	0.164	0.215
-101.918	129.985	-0.074	0.093
-100.903	-200.000	0.025	-0.115
-99.889	115.350	0.165	0.199
-98.874	-107.525	0.065	0.014
-97.859	215.748	0.077	-0.120
-96.845	186.660	0.124	-0.183
-95.830	-80.737	-0.308	0.101
-94.816	531.676	0.062	-0.144
-93.801	-34.776	-0.202	0.109
-92.786	21.004	0.158	-0.127
-91.772	79.996	-0.100	0.106
-90.757	46.901	-0.356	0.327
-89.743	199.642	0.293	-0.444
-88.728	-200.000	0.035	-0.195
-87.713	-106.604	0.241	0.053
-86.699	287.987	0.174	-0.311
-85.684	460.946	0.112	0.245
-84.670	-200.000	0.039	0.549
-83.655	-63.531	-0.130	0.053
-82.640	281.798	0.117	-0.206
-81.626	651.878	0.030	0.075
-80.611	800.000	-0.071	-0.306
-79.597	-135.942	-0.011	-0.001
-78.582	416.116	0.056	0.119
-77.567	-39.042	0.196	0.102
-76.553	753.151	0.158	-0.421
-75.538	-61.801	-0.058	0.024
-74.524	-80.159	0.173	-0.057
-73.509	17.093	-0.184	0.144
-72.494	254.338	0.064	0.108
-71.480	185.619	0.220	0.322
-70.465	800.000	0.034	-0.127
-69.451	-177.661	0.473	0.011
-68.436	345.331	-0.078	0.151
-67.422	3.056	0.159	-0.114
-66.407	-200.000	0.008	0.041
-65.392	-93.855	-0.286	0.078
-64.378	-5.250	-0.162	0.110
-63.363	-137.262	-0.290	0.033
-62.349	592.413	-0.034	0.082
-61.334	90.017	-0.812	-0.895
-60.319	453.104	0.223	0.486
-59.305	-200.000	-0.124	-0.992
-58.290	408.710	0.547	1.140
-57.276	800.000	0.568	1.662
-56.261	-200.000	96.362	574.930
-55.246	547.565	1383.189	3263.805
-54.232	155.809	2573.243	3495.402
-53.217	113.116	2152.589	2572.956
-52.203	45.635	1611.854	1467.837
-51.188	37.778	1349.479	1181.459
-50.173	34.556	1307.030	1125.287
-49.159	56.822	1355.712	1301.329
-48.144	60.572	1373.267	1340.592
-47.130	37.921	1329.653	1164.772
-46.115	34.542	1311.393	1128.784
-45.100	34.179	1307.280	1123.056
-44.086	34.155	1304.932	1120.853
-43.071	34.063	1302.754	1118.395
-42.057	34.000	1300.808	1116.313
-41.042	34.140	1299.070	1115.596
-40.027	34.252	1297.115	1114.529
-39.013	34.239	1295.222	1112.780
-37.998	34.170	1293.411	1110.780
-36.984	34.302	1291.868	1110.180
-35.969	34.305	1290.036	1108.576
-34.954	34.354	1288.168	1107.211
-33.940	34.395	1287.009	1106.413
-32.925	34.416	1285.808	1105.455
-31.911	34.353	1284.168	1103.636
-30.896	34.482	1282.965	1103.305
-29.881	34.448	1281.741	1102.013
-28.867	34.395	1280.328	1100.447
-27.852	34.421	1278.901	1099.328
-26.838	34.461	1277.299	1098.139
-25.823	34.379	1276.252	1096.726
-24.809	34.415	1274.715	1095.567
-23.794	34.367	1273.345	1094.069
-22.779	34.364	1272.304	1093.115
-21.765	34.562	1270.636	1092.771
-20.750	34.382	1269.531	1090.751
-19.736	34.368	1268.115	1089.411
-18.721	34.295	1266.837	1087.850
-17.706	34.204	1266.403	1086.915
-16.692	34.276	1264.973	1086.054
-15.677	34.278	1263.730	1084.954
-14.663	34.276	1262.706	1084.024
-13.648	34.240	1261.782	1082.985
-12.633	34.262	1260.503	1081.964
-11.619	34.194	1260.168	1081.252
-10.604	34.186	1259.163	1080.300
-9.590	34.166	1257.711	1078.898
-8.575	34.228	1256.979	1078.578
-7.560	34.239	1256.402	1078.103
-6.546	34.191	1255.227	1076.780
-5.531	34.237	1254.535	1076.400
-4.517	34.224	1253.596	1075.481
-3.502	34.189	1252.995	1074.724
-2.487	34.318	1251.355	1074.002
-1.473	34.198	1247.902	1070.321
-0.458	32.606	1232.341	1048.088
0.556	29.506	1214.308	1006.532
1.571	25.298	1219.508	987.651
2.586	24.049	1235.161	993.277
3.600	23.503	1223.624	980.893
4.615	17.351	1151.690	891.017
5.629	7.436	1075.397	783.192
6.644	3.338	1054.323	747.909
7.659	2.854	1051.723	743.657
8.673	2.695	1050.329	741.837
9.688	2.665	1048.678	740.457
10.702	3.115	1047.647	741.834
11.717	9.044	1055.494	776.068
12.731	18.994	1070.689	835.754
13.746	24.993	1077.873	870.539
14.761	26.236	1079.773	878.042
15.775	26.430	1079.163	878.408
16.790	26.123	1078.187	876.049
17.804	26.263	1077.362	875.980
18.819	26.241	1077.082	875.568
19.834	26.291	1076.997	875.665
20.848	26.593	1075.913	876.165
21.863	26.495	1075.611	875.368
22.877	26.395	1074.922	874.244
23.892	26.401	1074.012	873.457
24.907	26.466	1073.242	873.066
25.921	26.344	1072.201	871.555
26.936	26.254	1071.496	870.470
27.950	26.259	1069.485	868.786
28.965	26.067	1067.995	866.575
29.980	26.166	1066.536	865.792
30.994	26.438	1065.505	866.182
32.009	26.429	1064.966	865.623
33.023	26.269	1063.452	863.549
34.038	26.348	1063.008	863.490
35.053	26.497	1061.847	863.183
36.067	26.420	1061.524	862.476
37.082	26.479	1060.871	862.147
38.096	26.588	1060.011	861.893
39.111	26.702	1059.524	861.963
40.126	26.458	1058.032	859.515
41.140	26.219	1055.939	856.604
42.155	26.047	1054.404	854.469
43.169	26.007	1054.238	854.068
44.184	26.107	1053.412	853.800
45.199	26.014	1052.265	852.355
46.213	26.036	1051.541	851.794
47.228	26.152	1051.033	851.854
48.242	26.327	1049.828	851.630
49.257	26.365	1049.464	851.436
50.271	26.409	1048.645	850.905
51.286	26.516	1047.977	850.788
52.301	26.509	1046.862	849.774
53.315	26.462	1046.013	848.792
54.330	26.411	1044.720	847.428
55.344	26.293	1044.719	846.802
56.359	26.239	1043.591	845.556
57.374	26.168	1042.605	844.352
58.388	26.120	1041.995	843.558
59.403	26.171	1040.673	842.653
60.417	25.909	1040.454	841.176
61.432	26.040	1039.791	841.177
62.447	26.110	1039.220	840.965
63.461	26.222	1038.395	840.747
64.476	26.062	1037.576	839.266
65.490	26.063	1036.560	838.372
66.505	26.112	1036.224	838.257
67.520	26.104	1035.086	837.225
68.534	25.951	1034.043	835.597
69.549	25.628	1032.754	832.988
70.563	25.640	1032.017	832.374
71.578	25.587	1031.356	831.522
72.593	25.357	1030.539	829.727
73.607	25.540	1029.885	829.971
74.622	25.908	1029.562	831.334
75.636	26.008	1028.624	830.968
76.651	25.857	1027.454	829.252
77.666	25.688	1027.157	828.163
78.680	25.910	1026.201	828.340
79.695	25.767	1025.895	827.359
80.709	26.026	1025.316	828.009
81.724	26.109	1023.939	827.205
82.739	26.050	1023.729	826.692
83.753	26.365	1023.164	827.603
84.768	26.648	1023.013	828.702
85.782	26.877	1020.939	827.998
86.797	26.591	1020.404	826.184
87.812	26.590	1019.545	825.412
88.826	26.673	1018.669	825.008
89.841	26.615	1017.633	823.831
90.855	26.752	1016.688	823.616
91.870	26.534	1016.256	822.204
92.884	26.560	1015.005	821.235
93.899	26.425	1014.249	819.940
94.914	26.533	1013.240	819.540
95.928	26.559	1012.095	818.658
96.943	26.398	1010.720	816.749
97.957	26.063	1009.754	814.383
98.972	25.907	1008.917	812.931
99.987	26.117	1008.517	813.484
101.001	26.386	1007.271	813.619
102.016	26.316	1006.810	812.858
103.030	26.315	1005.881	812.032
104.045	26.158	1004.514	810.154
105.060	25.926	1003.643	808.337
106.074	26.060	1003.124	808.449
107.089	26.471	1002.827	809.980
108.103	26.280	1001.609	808.070
109.118	26.081	1000.125	805.910
110.133	26.065	999.037	804.891
111.147	25.894	998.141	803.336
112.162	25.756	997.538	802.164
113.176	26.091	996.686	802.903
114.191	26.014	995.782	801.759
115.206	25.654	994.761	799.268
116.220	25.602	994.371	798.650
117.235	25.857	993.202	798.771
118.249	25.817	992.586	798.031
119.264	25.654	991.898	796.683
120.279	25.714	991.124	796.257
121.293	25.749	990.713	796.011
122.308	25.808	989.503	795.229
123.322	25.763	988.200	793.915
124.337	25.625	987.176	792.415
125.352	25.191	985.352	788.972
126.366	25.173	984.358	788.024
127.381	25.891	984.304	791.064
128.395	26.164	984.417	792.285
129.410	26.287	983.287	791.843
130.424	26.327	982.189	791.064
131.439	26.293	981.379	790.194
132.454	26.260	980.578	789.335
133.468	26.155	979.576	788.002
134.483	26.395	978.894	788.427
135.497	26.453	978.340	788.167
136.512	26.703	977.295	788.341
137.527	26.648	976.824	787.651
138.541	26.633	975.585	786.518
139.556	26.630	974.950	785.923
140.570	26.588	974.359	785.196
141.585	26.631	973.410	784.550
142.600	26.675	972.069	783.589
143.614	26.821	971.663	783.825
144.629	26.945	970.986	783.744
145.643	26.807	969.446	781.835
146.658	26.677	967.756	779.846
147.673	26.407	966.930	777.950
148.687	26.258	966.251	776.692
149.702	26.335	964.917	775.881
150.716	26.205	964.685	775.069
151.731	26.489	963.649	775.386
152.746	26.581	963.833	775.858
153.760	26.680	962.493	775.134
154.775	26.817	961.919	775.192
155.789	26.798	961.148	774.417
156.804	26.602	960.454	772.955
157.819	26.705	959.520	772.575
158.833	26.739	959.012	772.240
159.848	26.918	957.676	771.858
160.862	26.779	956.229	770.035
161.877	26.724	955.656	769.270
162.892	26.827	954.488	768.699
163.906	26.700	953.289	767.127
164.921	26.758	952.601	766.750
165.935	26.784	951.755	766.113
166.950	26.758	951.103	765.412
167.964	26.772	950.020	764.532
168.979	26.570	948.936	762.740
169.994	26.531	948.417	762.089
171.008	26.796	947.481	762.387
172.023	26.840	946.462	761.685
173.037	26.599	945.774	760.049
174.052	26.344	945.183	758.439
175.067	26.478	944.192	758.139
176.081	26.416	944.318	757.913
177.096	26.510	943.324	757.440
178.110	26.208	941.931	754.995
179.125	26.120	941.343	754.085
180.140	26.103	941.397	753.993
181.154	26.299	941.020	754.444
182.169	26.539	940.741	755.154
183.183	26.610	940.749	755.388
184.198	26.658	939.261	754.326
185.213	26.686	938.525	753.789
186.227	26.690	937.716	753.086
187.242	26.682	937.680	752.956
188.256	26.735	936.777	752.387
189.271	26.903	935.835	752.262
190.286	26.451	934.830	749.515
191.300	25.780	933.500	745.603
192.315	24.998	931.611	740.796
193.329	25.028	931.642	740.877
194.344	26.024	932.044	745.251
195.359	26.627	932.029	747.660
196.373	26.626	931.630	747.272
197.388	26.502	931.263	746.402
198.402	26.599	930.378	746.026
199.417	26.616	929.592	745.400
200.432	26.417	928.266	743.450
201.446	26.225	927.894	742.301
202.461	26.333	927.151	742.080
203.475	25.361	925.856	736.994
204.490	24.681	924.164	732.795
205.504	25.656	924.352	736.873
206.519	26.015	924.486	738.383
207.534	26.140	924.231	738.627
208.548	26.684	923.995	740.599
209.563	26.520	922.470	738.641
210.577	26.389	922.398	737.982
211.592	26.820	921.629	739.059
212.607	26.833	921.372	738.843
213.621	26.758	920.740	737.964
214.636	26.761	919.986	737.306
215.650	26.669	919.244	736.272
216.665	26.746	918.977	736.307
217.680	26.946	917.836	736.138
218.694	26.332	916.479	732.497
219.709	26.220	916.104	731.681
220.723	26.501	915.788	732.501
221.738	26.520	915.643	732.398
222.753	26.674	914.687	732.188
223.767	26.821	914.267	732.382
224.782	27.049	913.985	733.010
225.796	27.019	913.298	732.277
226.811	26.151	912.013	727.682
227.826	25.687	910.256	724.349
228.840	25.802	909.829	724.408
229.855	25.772	909.602	724.043
230.869	25.411	908.688	721.800
231.884	25.807	908.577	723.240
232.899	26.578	908.518	726.222
233.913	26.455	908.184	725.398
234.928	26.549	907.074	724.825
235.942	26.472	906.431	723.938
236.957	26.178	905.859	722.242
237.972	26.080	905.430	721.442
238.986	26.246	904.726	721.480
240.001	26.212	903.848	720.582
241.015	26.534	903.360	721.412
242.030	26.519	903.710	721.569
243.045	26.728	902.605	721.453
244.059	26.815	902.379	721.556
245.074	26.542	901.531	719.730
246.088	26.339	900.500	718.038
247.103	26.618	900.225	718.861
248.117	27.123	900.343	720.896
249.132	27.417	899.981	721.708
250.147	27.409	899.672	721.364
251.161	27.679	898.888	721.741
252.176	27.505	898.483	720.661
253.190	27.637	897.836	720.602
254.205	27.770	897.110	720.479
255.220	27.665	896.385	719.419
256.234	27.459	895.780	718.059
257.249	27.326	895.333	717.113
258.263	27.484	894.378	716.907
259.278	27.540	893.563	716.408
260.293	27.593	893.149	716.223
261.307	27.387	892.618	714.926
262.322	27.333	891.497	713.752
263.336	26.367	889.996	708.701
264.351	25.590	887.518	703.628
265.366	25.661	887.879	704.132
266.380	26.688	888.367	708.472
267.395	27.257	887.962	710.309
268.409	27.135	887.454	709.366
269.424	27.175	886.888	709.006
270.439	27.313	886.233	708.957
271.453	27.335	885.617	708.488
272.468	27.659	885.532	709.620
273.482	27.771	884.708	709.329
274.497	27.079	883.890	705.921
275.512	26.690	882.818	703.494
276.526	27.269	882.771	705.641
277.541	27.465	882.491	706.114
278.555	27.051	882.130	704.160
279.570	27.023	881.152	703.207
280.585	27.302	880.413	703.635
281.599	27.057	879.331	701.762
282.614	26.499	878.275	698.703
283.628	26.459	878.149	698.386
284.643	26.835	877.946	699.613
285.657	26.761	876.051	697.757
286.672	26.223	875.909	695.512
287.687	26.805	875.991	697.755
288.701	26.917	875.245	697.530
289.716	26.397	874.325	694.737
290.730	26.593	873.455	694.739
291.745	26.287	872.534	692.771
292.760	26.513	872.644	693.663
293.774	27.667	872.804	698.149
294.789	27.924	872.367	698.722
295.803	27.916	872.246	698.531
296.818	27.975	871.198	697.857
297.833	27.429	870.016	694.766
298.847	27.319	869.576	693.933
299.862	27.764	869.221	695.283
300.876	27.777	869.657	695.620
301.891	27.727	868.330	694.307
302.906	27.453	867.361	692.428
303.920	27.473	867.346	692.431
304.935	27.937	866.927	693.798
305.949	27.789	866.133	692.540
306.964	27.671	865.432	691.473
307.979	27.563	865.201	690.816
308.993	28.006	864.923	692.213
310.008	28.043	864.040	691.583
311.022	27.609	863.600	689.530
312.037	27.775	862.580	689.281
313.052	27.308	861.821	686.850
314.066	26.375	860.515	682.229
315.081	25.879	860.127	679.993
316.095	26.883	860.215	683.788
317.110	27.353	860.118	685.420
318.125	26.563	858.655	681.222
319.139	25.528	857.046	675.994
320.154	25.497	856.598	675.466
321.168	26.510	856.832	679.397
322.183	27.177	857.112	682.062
323.197	27.288	856.999	682.326
324.212	27.520	856.492	682.732
325.227	27.597	855.946	682.525
326.241	27.427	854.942	681.028
327.256	27.330	854.163	679.984
328.270	27.380	853.579	679.648
329.285	27.064	853.046	677.986
330.300	26.944	852.212	676.813
331.314	27.215	851.637	677.306
332.329	27.520	851.885	678.581
333.343	27.660	851.506	678.740
334.358	27.818	850.793	678.699
335.373	27.799	850.672	678.472
336.387	28.199	850.513	679.770
337.402	28.194	850.471	679.658
338.416	28.027	850.023	678.622
339.431	28.184	849.768	678.939
340.446	28.345	849.650	679.380
341.460	28.179	848.995	678.184
342.475	28.050	848.565	677.302
343.489	28.116	848.095	677.111
344.504	28.451	847.858	678.102
345.519	28.494	847.357	677.800
346.533	28.635	847.152	678.097
347.548	28.655	846.337	677.458
348.562	28.605	845.961	676.911
349.577	28.491	845.228	675.847
350.592	28.586	844.451	675.516
351.606	28.395	843.715	674.163
352.621	28.407	842.849	673.455
353.635	28.256	842.368	672.457
354.650	27.576	840.603	668.497
355.665	26.705	838.897	663.891
356.679	27.101	839.172	665.500
357.694	27.505	838.986	666.774
358.708	27.393	838.199	665.677
359.723	27.847	838.329	667.385
360.738	28.171	837.807	668.093
361.752	28.244	837.166	667.788
362.767	28.530	837.107	668.724
363.781	28.867	836.629	669.512
364.796	28.922	836.316	669.400
365.810	28.909	835.647	668.761
366.825	28.989	835.055	668.519
367.840	28.563	834.426	666.407
368.854	28.081	833.712	664.029
369.869	28.117	833.377	663.834
370.883	28.181	833.047	663.744
371.898	28.224	832.244	663.200
372.913	28.224	832.481	663.333
373.927	28.357	831.786	663.200
374.942	28.554	831.112	663.318
375.956	28.547	831.134	663.249
376.971	28.717	830.467	663.274
377.986	28.910	830.255	663.744
379.000	28.825	829.651	662.893
380.015	28.794	828.962	662.173
381.029	28.849	828.334	661.813
382.044	28.914	827.803	661.561
383.059	28.740	827.362	660.524
384.073	28.986	826.798	660.902
385.088	28.921	825.800	659.813
386.102	28.604	825.718	658.552
387.117	28.648	824.431	657.623
388.132	28.181	823.280	654.975
389.146	27.753	822.709	652.934
390.161	28.048	823.040	654.193
391.175	28.585	822.877	655.927
392.190	28.373	821.279	653.836
393.205	26.698	819.757	646.597
394.219	25.425	817.394	640.144
395.234	25.305	817.520	639.757
396.248	26.865	818.941	646.378
397.263	28.363	819.895	652.413
398.278	28.333	819.406	651.857
399.292	28.002	818.979	650.283
400.307	28.134	818.274	650.134
401.321	28.149	817.760	649.723
402.336	28.684	817.920	651.691
403.350	28.890	817.655	652.152
404.365	29.184	817.699	653.174
405.380	29.660	817.149	654.362
406.394	29.619	816.483	653.626
407.409	29.393	816.490	652.773
408.423	29.504	815.811	652.566
409.438	29.797	815.155	653.019
410.453	29.629	814.895	652.160
411.467	29.513	814.352	651.259
412.482	29.465	814.155	650.873
413.496	29.679	813.930	651.392
414.511	29.643	813.253	650.663
415.526	29.739	812.821	650.598
416.540	29.422	812.116	648.862
417.555	29.133	811.494	647.294
418.569	29.492	810.758	647.906
419.584	29.349	810.467	647.115
420.599	29.070	809.941	645.661
421.613	109.612	1285.392	1447.422
422.628	94.763	1354.655	1447.525
