DTS Sentinel unit serial number:	SN413079Multiplexer serial number:	ORYXHardware model number:	OX4-SRSoftware version number:	ORYX F/W v4.00 Oryx Data Collector v3.7.2.0data status	okinstallation	princeton_trtdifferential loss correction	single-endedforward channel	channel 1reverse channel	N/Adate	2019/09/17time	14:38:35forward acquisition time	60.00reverse acquisition time	0.00gamma	496.2192k internal	0.2297k external	0.2297temperature offset calibration	0.9963default loss term (dB/km)	0.3790temperature slope calibration	1.0000multiplexer offset coefficient	1.0000multiplexer slope coefficient	1.0000fibre end	0.00T internal ref (°C)	36.72T ext. ref 1 (°C)	0.38T ext. ref 2 (°C)	33.83length (m)	temperature (°C)	Stokes	anti-Stokes-747.200	-161.466	0.452	-0.024
-746.185	75.965	-0.076	-0.082
-745.171	800.000	-0.090	0.256
-744.156	-91.976	-0.357	0.103
-743.142	-54.617	0.227	0.105
-742.127	106.177	0.138	0.167
-741.112	149.582	-0.089	-0.123
-740.098	-130.686	-0.110	0.015
-739.083	-105.643	-0.364	-0.084
-738.069	168.465	0.049	-0.071
-737.054	560.183	-0.028	0.070
-736.039	332.583	-0.077	0.151
-735.025	61.237	-0.083	-0.084
-734.010	147.216	0.243	0.334
-732.996	-162.395	-0.416	0.021
-731.981	800.000	0.084	0.300
-730.966	800.000	0.031	0.110
-729.952	-200.000	0.014	-0.146
-728.937	-9.271	0.146	-0.099
-727.923	-65.709	0.199	0.082
-726.908	-171.806	-0.174	-0.006
-725.894	293.412	-0.161	-0.300
-724.879	84.147	-0.092	0.103
-723.864	137.233	-0.062	-0.083
-722.850	24.110	-0.175	-0.148
-721.835	14.394	0.321	0.256
-720.821	55.298	-0.187	0.184
-719.806	473.644	0.048	-0.111
-718.791	170.830	0.126	0.185
-717.777	322.940	-0.184	-0.359
-716.762	112.149	-0.058	-0.072
-715.748	636.447	0.133	-0.343
-714.733	-85.189	0.527	-0.168
-713.718	703.877	-0.028	-0.075
-712.704	134.924	0.128	-0.169
-711.689	14.355	0.146	-0.116
-710.675	263.276	-0.024	-0.042
-709.660	21.387	0.138	-0.114
-708.645	31.567	-0.257	-0.225
-707.631	-200.000	-0.006	0.284
-706.616	43.124	0.256	-0.238
-705.602	800.000	0.057	0.196
-704.587	265.602	0.080	0.143
-703.572	-44.068	-0.156	-0.080
-702.558	-106.243	-0.318	0.073
-701.543	116.773	-0.301	-0.377
-700.529	205.100	-0.321	-0.508
-699.514	-200.000	0.051	0.277
-698.499	-59.254	0.209	-0.092
-697.485	-200.000	0.006	0.063
-696.470	-200.000	-0.007	-0.062
-695.456	-89.944	-0.239	0.071
-694.441	1.656	-0.172	0.126
-693.426	13.248	0.331	0.261
-692.412	68.050	-0.218	-0.227
-691.397	479.616	-0.074	0.170
-690.383	148.238	-0.167	0.230
-689.368	69.566	-0.165	-0.173
-688.354	-15.917	0.225	-0.146
-687.339	45.119	-0.095	-0.089
-686.324	-22.066	0.111	-0.069
-685.310	10.972	-0.410	-0.319
-684.295	-160.465	0.090	-0.005
-683.281	-139.808	-0.179	-0.019
-682.266	83.957	-0.237	0.264
-681.251	38.930	-0.309	0.281
-680.237	365.281	0.060	-0.122
-679.222	386.682	0.134	-0.281
-678.208	613.403	0.101	0.256
-677.193	103.154	0.167	-0.200
-676.178	-78.015	-0.190	-0.067
-675.164	-67.081	0.069	0.028
-674.149	272.917	-0.058	0.105
-673.135	-151.106	-0.232	-0.018
-672.120	114.331	0.219	0.271
-671.105	-27.387	-0.157	0.093
-670.091	-20.510	-0.076	0.047
-669.076	-13.867	-0.018	0.012
-668.062	267.330	-0.123	-0.220
-667.047	-76.877	0.153	-0.054
-666.032	170.527	-0.117	0.171
-665.018	53.160	-0.011	-0.011
-664.003	-96.320	-0.350	0.094
-662.989	-28.365	0.224	0.131
-661.974	409.734	-0.095	0.205
-660.959	96.229	-0.019	-0.022
-659.945	152.674	-0.028	-0.039
-658.930	19.634	-0.384	0.314
-657.916	105.346	0.235	0.282
-656.901	-1.205	0.073	-0.052
-655.886	800.000	-0.152	-0.459
-654.872	305.099	0.030	-0.058
-653.857	-200.000	-0.013	0.129
-652.843	62.335	0.191	-0.194
-651.828	282.477	0.051	0.093
-650.814	-200.000	-0.033	-0.277
-649.799	28.984	-0.279	-0.241
-648.784	543.351	0.047	-0.114
-647.770	337.506	-0.144	-0.285
-646.755	-10.880	0.296	0.199
-645.741	800.000	0.026	0.113
-644.726	738.066	0.100	-0.274
-643.711	447.080	0.032	-0.072
-642.697	-38.401	-0.141	-0.076
-641.682	-200.000	-0.025	0.466
-640.668	-138.231	-0.249	0.028
-639.653	-46.614	0.315	-0.157
-638.638	-2.171	0.166	-0.118
-637.624	-67.816	-0.120	0.048
-636.609	299.037	0.096	0.181
-635.595	522.892	-0.072	0.171
-634.580	-55.168	0.212	0.097
-633.565	-116.241	-0.160	0.030
-632.551	-74.326	-0.261	0.096
-631.536	-200.000	-0.000	0.059
-630.522	2.655	-0.348	0.256
-629.507	347.939	0.092	0.184
-628.492	-20.784	-0.080	-0.050
-627.478	-4.388	-0.182	-0.128
-626.463	215.541	-0.080	0.129
-625.449	-52.781	-0.153	0.072
-624.434	-97.625	0.068	0.018
-623.419	531.447	-0.120	-0.287
-622.405	-73.858	0.088	-0.033
-621.390	-147.736	0.291	0.025
-620.376	-112.099	-0.358	-0.073
-619.361	-10.026	-0.189	0.128
-618.346	-135.560	-0.129	-0.016
-617.332	800.000	0.079	0.338
-616.317	126.505	0.096	0.124
-615.303	59.126	0.218	0.218
-614.288	-162.588	-0.449	-0.022
-613.273	-158.311	0.243	0.014
-612.259	215.818	0.156	-0.252
-611.244	125.453	-0.167	-0.214
-610.230	6.838	0.198	-0.150
-609.215	515.062	0.050	-0.118
-608.201	-200.000	0.041	-0.272
-607.186	184.722	-0.250	-0.376
-606.171	-56.086	-0.259	-0.117
-605.157	242.248	-0.071	0.121
-604.142	-76.121	0.325	-0.117
-603.128	70.863	-0.140	-0.148
-602.113	-200.000	0.007	-0.242
-601.098	-200.000	0.026	0.159
-600.084	-93.752	-0.397	-0.111
-599.069	13.759	0.167	-0.132
-598.055	265.407	0.158	-0.280
-597.040	60.777	-0.066	-0.066
-596.025	-200.000	-0.007	0.150
-595.011	-153.189	0.221	0.016
-593.996	-91.003	0.291	-0.085
-592.982	68.678	0.321	0.334
-591.967	147.500	0.078	-0.106
-590.952	368.590	-0.173	-0.356
-589.938	505.849	-0.099	0.234
-588.923	39.074	0.082	0.074
-587.909	532.367	-0.101	-0.242
-586.894	14.195	0.038	-0.030
-585.879	-122.403	-0.076	0.013
-584.865	-130.615	0.356	0.049
-583.850	-73.152	-0.029	0.011
-582.836	65.686	-0.209	0.215
-581.821	-12.613	-0.118	0.078
-580.806	-200.000	0.005	-0.208
-579.792	-18.851	-0.165	-0.104
-578.777	-132.254	0.159	-0.021
-577.763	-148.576	-0.381	-0.032
-576.748	-130.311	0.063	-0.009
-575.733	94.176	0.074	0.086
-574.719	-143.017	-0.231	-0.023
-573.704	79.243	-0.328	0.357
-572.690	-70.136	0.243	-0.094
-571.675	649.180	0.094	-0.243
-570.661	-200.000	-0.017	0.350
-569.646	-79.976	-0.061	0.021
-568.631	-200.000	0.005	-0.316
-567.617	-177.918	0.329	0.008
-566.602	-200.000	0.022	0.105
-565.588	44.135	-0.123	-0.114
-564.573	-74.427	0.215	-0.079
-563.558	6.394	-0.135	-0.101
-562.544	-132.968	-0.221	0.028
-561.529	78.443	-0.495	0.537
-560.515	-124.825	-0.262	-0.041
-559.500	-25.276	-0.343	-0.206
-558.485	657.692	0.033	0.085
-557.471	800.000	-0.062	0.201
-556.456	395.929	-0.095	0.201
-555.442	-93.948	0.232	0.065
-554.427	-54.839	-0.173	0.079
-553.412	-51.516	0.121	-0.057
-552.398	800.000	0.096	-0.278
-551.383	-141.031	-0.162	-0.017
-550.369	-142.570	0.119	-0.012
-549.354	-200.000	-0.028	-0.176
-548.339	-40.298	0.336	0.177
-547.325	91.793	0.075	0.086
-546.310	423.555	0.100	0.217
-545.296	14.646	0.111	0.088
-544.281	89.588	-0.140	-0.158
-543.266	-177.646	-0.074	-0.002
-542.252	-67.881	-0.568	-0.225
-541.237	438.629	0.110	-0.242
-540.223	-21.128	-0.054	0.034
-539.208	-112.363	0.136	0.028
-538.193	-38.107	0.205	-0.110
-537.179	800.000	-0.042	-0.170
-536.164	69.518	-0.110	-0.115
-535.150	-6.529	-0.212	-0.147
-534.135	96.153	0.125	0.145
-533.121	-129.306	0.118	-0.017
-532.106	-41.896	-0.079	-0.041
-531.091	-200.000	-0.048	0.256
-530.077	-200.000	-0.021	-0.138
-529.062	-16.429	-0.102	0.065
-528.048	77.237	0.078	0.084
-527.033	800.000	-0.059	0.247
-526.018	-36.103	-0.100	-0.055
-525.004	30.091	-0.149	0.128
-523.989	-120.291	-0.195	0.034
-522.975	-200.000	-0.039	0.192
-521.960	-200.000	0.046	-0.349
-520.945	800.000	-0.024	-0.094
-519.931	34.913	-0.085	-0.075
-518.916	-200.000	0.010	-0.186
-517.902	-131.689	0.093	0.012
-516.887	-4.770	0.119	0.083
-515.872	800.000	-0.108	0.474
-514.858	-77.007	0.092	-0.032
-513.843	-71.078	-0.468	0.178
-512.829	-49.033	0.226	-0.110
-511.814	-45.090	-0.204	-0.103
-510.799	-153.533	-0.122	0.009
-509.785	-92.447	0.170	0.048
-508.770	-160.713	-0.442	0.024
-507.756	-11.039	-0.205	-0.137
-506.741	-137.624	-0.174	-0.020
-505.726	9.975	-0.231	0.178
-504.712	-90.734	0.232	0.068
-503.697	-200.000	-0.070	-0.370
-502.683	124.880	-0.096	-0.122
-501.668	148.789	-0.218	0.298
-500.653	2.007	0.157	0.115
-499.639	800.000	0.046	0.156
-498.624	-200.000	0.001	0.207
-497.610	-200.000	-0.012	-0.074
-496.595	-117.221	0.152	0.028
-495.581	-86.109	-0.226	-0.070
-494.566	-76.016	-0.082	0.029
-493.551	40.187	0.024	-0.022
-492.537	-97.310	-0.158	0.042
-491.522	-108.998	0.271	0.058
-490.508	35.850	-0.097	0.086
-489.493	-151.562	0.516	0.039
-488.478	393.826	-0.132	0.278
-487.464	-71.989	-0.345	0.130
-486.449	163.592	0.262	0.372
-485.435	17.680	-0.117	0.094
-484.420	-49.436	0.101	0.049
-483.405	398.051	-0.116	-0.246
-482.391	800.000	-0.084	-0.312
-481.376	221.091	-0.117	0.189
-480.362	13.496	-0.250	0.196
-479.347	55.675	-0.136	-0.133
-478.332	13.052	0.181	-0.142
-477.318	800.000	-0.084	0.255
-476.303	-200.000	-0.014	0.118
-475.289	800.000	-0.048	0.197
-474.274	-153.803	0.270	0.019
-473.259	95.393	0.281	-0.324
-472.245	800.000	-0.005	0.017
-471.230	-61.962	-0.240	-0.101
-470.216	-12.937	-0.236	-0.155
-469.201	291.627	0.044	0.081
-468.186	-94.430	-0.219	0.060
-467.172	-30.648	-0.157	0.090
-466.157	48.165	0.281	0.265
-465.143	-200.000	-0.058	0.304
-464.128	800.000	-0.044	0.126
-463.113	-200.000	-0.013	0.173
-462.099	-33.967	0.389	-0.216
-461.084	-200.000	-0.038	0.471
-460.070	26.429	-0.199	0.168
-459.055	183.399	-0.141	0.210
-458.040	-200.000	-0.012	0.362
-457.026	543.244	0.135	0.326
-456.011	-153.616	-0.180	-0.013
-454.997	494.318	-0.094	0.218
-453.982	-88.626	0.272	0.082
-452.968	-119.125	0.088	-0.015
-451.953	-104.640	0.089	0.021
-450.938	1.423	-0.130	-0.094
-449.924	20.562	-0.194	-0.159
-448.909	-200.000	0.017	0.152
-447.895	-3.567	-0.150	-0.105
-446.880	569.309	0.075	-0.184
-445.865	71.533	-0.102	-0.107
-444.851	-59.403	0.156	-0.068
-443.836	-46.027	-0.383	0.191
-442.822	-53.810	0.135	0.062
-441.807	-200.000	0.048	0.234
-440.792	-34.615	-0.150	0.083
-439.778	-146.692	-0.255	0.022
-438.763	270.847	-0.238	-0.422
-437.749	-98.770	-0.330	-0.085
-436.734	800.000	-0.014	-0.053
-435.719	-107.060	-0.382	-0.085
-434.705	375.384	0.139	0.286
-433.690	48.657	-0.114	0.108
-432.676	-200.000	0.031	-0.330
-431.661	15.418	0.069	0.055
-430.646	120.194	0.048	0.060
-429.632	233.551	-0.109	0.180
-428.617	-137.462	0.302	0.034
-427.603	-2.489	0.079	0.056
-426.588	800.000	-0.079	0.240
-425.573	21.772	0.058	-0.048
-424.559	85.766	-0.012	-0.014
-423.544	-66.425	0.235	0.094
-422.530	-154.682	0.278	-0.019
-421.515	-119.089	0.255	-0.045
-420.500	-200.000	0.001	-0.036
-419.486	104.406	0.054	-0.065
-418.471	800.000	-0.070	0.213
-417.457	150.280	-0.119	-0.162
-416.442	-200.000	0.028	0.165
-415.428	-63.152	-0.206	0.086
-414.413	131.332	-0.042	0.054
-413.398	800.000	-0.080	-0.306
-412.384	-82.411	0.621	0.204
-411.369	-96.459	0.309	0.082
-410.355	417.211	0.066	-0.142
-409.340	-200.000	-0.033	0.259
-408.325	-119.563	-0.117	-0.020
-407.311	65.368	0.109	-0.111
-406.296	121.299	-0.237	0.297
-405.282	-112.820	0.159	-0.032
-404.267	-95.798	-0.455	-0.122
-403.252	-82.168	0.101	0.033
-402.238	-31.913	0.160	0.090
-401.223	35.172	0.026	-0.023
-400.209	-144.709	-0.177	-0.016
-399.194	-200.000	0.012	-0.076
-398.179	-39.242	-0.360	-0.191
-397.165	-200.000	0.054	0.271
-396.150	116.383	-0.256	-0.316
-395.136	800.000	-0.107	0.321
-394.121	54.104	0.208	-0.202
-393.106	-200.000	-0.048	-0.290
-392.092	-94.336	0.250	0.069
-391.077	800.000	0.066	-0.282
-390.063	189.851	0.189	-0.286
-389.048	540.412	-0.060	0.144
-388.033	372.416	0.067	-0.138
-387.019	-200.000	0.020	0.396
-386.004	-106.631	-0.282	-0.063
-384.990	-200.000	0.038	-0.216
-383.975	90.959	0.059	-0.067
-382.960	800.000	-0.021	0.087
-381.946	96.058	-0.144	-0.166
-380.931	43.152	0.171	-0.158
-379.917	800.000	-0.091	-0.300
-378.902	-159.146	0.146	0.008
-377.888	24.296	-0.244	-0.203
-376.873	-7.304	0.148	-0.101
-375.858	325.223	0.164	-0.316
-374.844	-200.000	0.064	0.358
-373.829	-80.062	0.093	-0.032
-372.815	-134.405	0.222	-0.027
-371.800	800.000	0.056	0.214
-370.785	-107.433	-0.122	-0.027
-369.771	-200.000	0.028	-0.191
-368.756	-185.405	0.138	-0.002
-367.742	-200.000	0.027	0.339
-366.727	321.456	0.079	0.152
-365.712	-28.029	0.148	-0.086
-364.698	-50.896	0.184	0.087
-363.683	70.751	-0.114	-0.119
-362.669	658.430	0.103	0.267
-361.654	-65.013	0.154	-0.063
-360.639	-200.000	0.005	-0.065
-359.625	-39.732	0.085	-0.045
-358.610	100.923	-0.026	0.030
-357.596	800.000	-0.027	0.096
-356.581	-91.329	0.292	0.084
-355.566	-200.000	0.034	0.204
-354.552	-165.860	-0.029	-0.001
-353.537	-73.140	0.271	0.100
-352.523	238.259	0.055	0.093
-351.508	212.957	0.137	-0.217
-350.493	302.515	0.139	0.259
-349.479	611.775	0.074	0.186
-348.464	216.127	0.068	0.109
-347.450	-122.181	0.407	-0.067
-346.435	-140.972	0.150	-0.015
-345.420	-38.362	0.262	0.139
-344.406	800.000	-0.067	-0.190
-343.391	-26.569	-0.050	-0.029
-342.377	661.370	-0.040	0.104
-341.362	800.000	0.047	0.179
-340.348	27.207	-0.110	-0.093
-339.333	800.000	-0.040	0.137
-338.318	-26.519	0.261	-0.154
-337.304	685.590	-0.056	-0.147
-336.289	-153.411	0.184	-0.013
-335.275	-78.860	0.268	0.092
-334.260	800.000	0.022	0.064
-333.245	-174.763	0.161	0.005
-332.231	-138.252	-0.299	0.033
-331.216	358.251	-0.050	0.101
-330.202	800.000	-0.051	-0.191
-329.187	136.497	-0.115	-0.150
-328.172	-200.000	-0.014	-0.210
-327.158	32.075	-0.248	-0.215
-326.143	19.884	-0.034	-0.028
-325.129	195.013	-0.161	0.246
-324.114	219.655	-0.082	0.131
-323.099	194.645	0.098	-0.149
-322.085	180.067	-0.097	-0.143
-321.070	-91.581	-0.180	-0.052
-320.056	607.200	-0.105	0.263
-319.041	-200.000	-0.010	-0.076
-318.026	-88.526	0.090	-0.027
-317.012	476.774	0.100	0.227
-315.997	-58.678	-0.284	0.124
-314.983	245.823	-0.177	0.299
-313.968	-122.623	0.169	-0.028
-312.953	346.794	-0.145	-0.287
-311.939	-161.133	-0.302	0.016
-310.924	-149.651	0.170	0.013
-309.910	-200.000	0.038	-0.391
-308.895	45.208	0.072	0.067
-307.880	247.537	-0.047	-0.080
-306.866	-200.000	-0.005	0.030
-305.851	-9.242	-0.124	0.083
-304.837	75.851	-0.243	-0.257
-303.822	800.000	-0.010	-0.043
-302.807	378.247	0.230	0.472
-301.793	281.751	-0.105	-0.190
-300.778	361.370	0.073	-0.146
-299.764	-200.000	-0.014	0.160
-298.749	-146.603	-0.133	0.012
-297.735	-200.000	-0.006	0.098
-296.720	134.149	-0.082	0.107
-295.705	-40.243	0.359	0.188
-294.691	207.870	-0.133	0.209
-293.676	718.833	0.166	-0.443
-292.662	-125.502	0.132	0.020
-291.647	-200.000	0.007	0.125
-290.632	-53.567	-0.153	-0.070
-289.618	-200.000	-0.119	-0.542
-288.603	41.395	0.317	0.288
-287.589	-183.282	0.150	0.003
-286.574	-26.145	-0.140	0.082
-285.559	675.663	-0.039	0.101
-284.545	-10.051	0.107	0.071
-283.530	-200.000	-0.022	-0.136
-282.516	-35.660	0.133	-0.073
-281.501	20.412	-0.280	0.227
-280.486	-74.977	-0.234	-0.084
-279.472	14.838	-0.185	-0.145
-278.457	-55.586	-0.341	0.153
-277.443	156.995	0.144	-0.199
-276.428	-94.273	0.134	-0.037
-275.413	-200.000	-0.002	0.154
-274.399	-106.013	0.176	0.040
-273.384	158.503	-0.150	0.209
-272.370	59.129	0.061	-0.060
-271.355	-93.423	0.413	-0.115
-270.340	-1.549	0.118	-0.083
-269.326	309.349	0.137	0.256
-268.311	800.000	-0.042	0.146
-267.297	493.480	-0.067	-0.153
-266.282	45.867	0.193	-0.179
-265.267	22.757	0.205	0.168
-264.253	108.167	-0.068	0.081
-263.238	-200.000	-0.114	0.000
-262.224	-115.653	0.271	0.051
-261.209	158.014	-0.214	-0.298
-260.195	152.372	0.184	-0.252
-259.180	228.666	0.127	-0.207
-258.165	53.412	-0.119	0.115
-257.151	800.000	0.040	0.169
-256.136	-163.011	0.417	-0.020
-255.122	-12.187	0.294	0.193
-254.107	-110.968	0.068	-0.014
-253.092	73.774	-0.146	-0.153
-252.078	-43.994	0.188	0.095
-251.063	23.953	0.122	-0.101
-250.049	48.676	0.162	-0.152
-249.034	40.371	-0.114	0.103
-248.019	-50.025	-0.185	0.088
-247.005	-148.844	0.362	-0.029
-245.990	482.541	-0.090	0.205
-244.976	-200.000	0.035	-0.203
-243.961	-4.786	0.286	-0.198
-242.946	-10.047	-0.015	-0.010
-241.932	680.386	-0.091	0.238
-240.917	-27.875	0.201	0.117
-239.903	-105.402	-0.174	-0.040
-238.888	-119.555	-0.193	-0.033
-237.873	-147.920	-0.089	-0.007
-236.859	131.997	0.074	-0.096
-235.844	418.395	-0.075	-0.160
-234.830	-157.436	0.403	-0.024
-233.815	-40.925	0.259	-0.134
-232.800	-3.326	-0.281	0.196
-231.786	-31.954	0.378	0.212
-230.771	108.354	-0.215	0.257
-229.757	-200.000	0.017	-0.166
-228.742	270.972	0.084	0.148
-227.727	-187.361	0.141	0.002
-226.713	-108.690	0.236	-0.051
-225.698	253.263	-0.160	-0.273
-224.684	-114.428	-0.077	-0.015
-223.669	39.241	-0.212	-0.190
-222.655	-112.643	0.159	-0.032
-221.640	-155.718	-0.344	-0.022
-220.625	264.787	-0.237	-0.414
-219.611	293.520	0.152	-0.277
-218.596	-200.000	-0.004	0.058
-217.582	-45.606	0.248	-0.123
-216.567	-167.589	-0.094	-0.004
-215.552	-200.000	-0.012	0.148
-214.538	-99.596	-0.326	0.082
-213.523	-21.546	-0.070	-0.043
-212.509	-200.000	0.039	-0.435
-211.494	344.925	-0.203	0.399
-210.479	-22.200	0.209	0.127
-209.465	298.235	-0.062	0.113
-208.450	-21.046	0.147	0.090
-207.436	38.703	0.259	-0.231
-206.421	225.994	-0.027	-0.044
-205.406	-155.242	-0.091	0.006
-204.392	-78.863	0.134	-0.046
-203.377	16.080	0.148	0.116
-202.363	-200.000	0.048	-0.218
-201.348	-200.000	0.033	-0.236
-200.333	-131.603	0.315	0.041
-199.319	-42.612	-0.258	-0.131
-198.304	29.449	-0.435	-0.370
-197.290	-200.000	0.000	-0.193
-196.275	-64.104	0.304	-0.124
-195.260	-174.521	0.105	-0.003
-194.246	-154.950	0.243	0.016
-193.231	-200.000	0.036	-0.223
-192.217	-200.000	-0.002	0.301
-191.202	-10.944	-0.248	-0.163
-190.187	800.000	-0.052	-0.185
-189.173	-147.557	-0.067	0.006
-188.158	-85.693	0.150	-0.047
-187.144	-41.718	-0.121	0.062
-186.129	-92.602	0.169	0.047
-185.114	18.269	0.155	-0.123
-184.100	403.336	0.077	0.162
-183.085	126.861	0.137	-0.173
-182.071	-200.000	0.213	-0.001
-181.056	-200.000	0.152	0.000
-180.042	320.788	0.104	0.197
-179.027	462.797	0.033	-0.073
-178.012	-200.000	-0.052	-0.370
-176.998	216.017	0.052	-0.082
-175.983	470.673	-0.108	-0.243
-174.969	-200.000	0.036	0.272
-173.954	118.798	0.101	-0.125
-172.939	22.540	-0.140	-0.114
-171.925	199.067	-0.224	-0.342
-170.910	215.980	0.087	-0.138
-169.896	63.331	-0.139	-0.139
-168.881	-200.000	-0.041	0.342
-167.866	-147.837	-0.345	0.029
-166.852	17.695	0.040	-0.032
-165.837	-38.277	0.220	0.116
-164.823	35.220	0.144	0.126
-163.808	186.739	-0.063	0.093
-162.793	29.165	0.108	0.092
-161.779	39.274	-0.153	-0.137
-160.764	-60.136	-0.125	0.053
-159.750	-44.372	0.149	-0.074
-158.735	800.000	0.046	-0.134
-157.720	44.640	-0.064	0.059
-156.706	-200.000	0.001	0.200
-155.691	50.376	0.213	0.201
-154.677	-100.802	-0.354	-0.087
-153.662	-200.000	0.058	0.340
-152.647	-200.000	-0.086	-0.418
-151.633	-109.668	0.289	-0.061
-150.618	-39.544	-0.323	0.169
-149.604	214.718	-0.182	0.289
-148.589	493.878	0.029	0.066
-147.574	-28.355	-0.133	0.076
-146.560	800.000	-0.057	-0.166
-145.545	-200.000	-0.003	-0.369
-144.531	-21.156	-0.069	-0.042
-143.516	-11.626	0.083	-0.054
-142.502	554.460	0.037	-0.089
-141.487	-200.000	-0.000	0.012
-140.472	-80.909	-0.125	-0.041
-139.458	-135.565	-0.107	-0.013
-138.443	397.409	0.061	-0.127
-137.429	131.525	-0.154	0.198
-136.414	28.699	-0.418	0.353
-135.399	-200.000	-0.000	-0.032
-134.385	62.054	-0.208	-0.207
-133.370	254.193	-0.097	-0.166
-132.356	-142.612	-0.240	0.023
-131.341	674.170	0.023	-0.060
-130.326	136.540	-0.012	0.016
-129.312	389.487	-0.151	-0.313
-128.297	580.372	0.045	-0.111
-127.283	-29.248	-0.091	-0.052
-126.268	-200.000	0.008	0.080
-125.253	369.651	0.016	0.032
-124.239	-140.134	-0.359	0.038
-123.224	-122.648	0.092	-0.015
-122.210	-94.678	0.099	0.027
-121.195	800.000	-0.069	0.206
-120.180	-30.309	-0.141	0.080
-119.166	15.253	-0.257	0.201
-118.151	105.761	-0.065	0.077
-117.137	-128.824	-0.458	-0.064
-116.122	286.486	0.091	-0.164
-115.107	-65.145	-0.168	0.067
-114.093	-157.983	-0.301	0.018
-113.078	214.321	-0.048	-0.076
-112.064	199.358	0.096	-0.147
-111.049	71.888	0.146	-0.151
-110.034	-38.649	0.171	-0.090
-109.020	-200.000	0.017	0.165
-108.005	-22.459	0.209	-0.126
-106.991	-123.084	0.065	0.010
-105.976	-200.000	0.001	-0.242
-104.962	-91.052	0.210	-0.060
-103.947	31.042	0.238	-0.203
-102.932	-200.000	-0.019	-0.127
-101.918	-149.292	0.300	-0.024
-100.903	-42.729	0.040	0.020
-99.889	71.393	0.257	0.266
-98.874	177.703	-0.193	-0.280
-97.859	-108.351	0.551	0.118
-96.845	800.000	0.149	0.461
-95.830	-79.653	-0.030	-0.010
-94.816	-133.597	-0.205	0.026
-93.801	436.592	-0.102	0.221
-92.786	36.218	0.314	-0.276
-91.772	-200.000	0.061	-0.298
-90.757	0.360	0.252	0.179
-89.743	-65.124	0.193	-0.077
-88.728	800.000	0.165	-0.478
-87.713	52.185	0.129	-0.123
-86.699	219.906	-0.088	0.141
-85.684	596.490	0.061	-0.151
-84.670	-157.706	-0.054	0.003
-83.655	338.263	0.092	-0.178
-82.640	233.000	0.125	-0.204
-81.626	-136.258	-0.191	-0.022
-80.611	202.998	-0.177	-0.273
-79.597	215.471	-0.176	0.278
-78.582	800.000	-0.030	0.088
-77.567	-60.093	0.026	0.011
-76.553	235.614	-0.073	-0.120
-75.538	505.576	-0.018	-0.041
-74.524	57.207	0.074	-0.072
-73.509	114.913	0.116	0.140
-72.494	-137.627	0.102	0.011
-71.480	25.339	-0.045	-0.037
-70.465	-187.490	0.153	0.002
-69.451	-28.581	0.074	0.042
-68.436	-106.651	-0.281	0.062
-67.422	800.000	-0.071	0.290
-66.407	124.521	0.056	-0.071
-65.392	13.254	0.097	-0.075
-64.378	658.969	0.133	0.340
-63.363	-200.000	-0.028	0.178
-62.349	98.167	-0.120	-0.137
-61.334	21.713	-0.979	-0.793
-60.319	143.231	0.267	0.353
-59.305	-200.000	-0.063	-0.851
-58.290	296.356	0.477	0.869
-57.276	800.000	0.452	1.686
-56.261	-200.000	88.877	497.536
-55.246	419.223	1430.631	3043.224
-54.232	141.218	2639.969	3471.859
-53.217	107.774	2244.339	2656.887
-52.203	47.226	1677.983	1552.867
-51.188	39.994	1405.584	1255.021
-50.173	36.805	1361.667	1196.102
-49.159	55.599	1405.849	1353.215
-48.144	59.778	1425.102	1397.926
-47.130	40.543	1382.846	1237.956
-46.115	36.904	1364.725	1199.210
-45.100	36.715	1359.640	1193.527
-44.086	36.602	1357.424	1190.841
-43.071	36.555	1354.660	1188.082
-42.057	36.538	1352.355	1185.904
-41.042	36.651	1350.784	1185.175
-40.027	36.634	1349.294	1183.717
-39.013	36.626	1347.570	1182.107
-37.998	36.632	1345.415	1180.208
-36.984	36.616	1343.610	1178.480
-35.969	36.687	1341.567	1177.073
-34.954	36.770	1339.615	1175.819
-33.940	36.782	1338.238	1174.632
-32.925	36.770	1337.253	1173.649
-31.911	36.803	1335.305	1172.097
-30.896	36.855	1333.804	1171.046
-29.881	36.824	1332.669	1169.814
-28.867	36.875	1331.204	1168.790
-27.852	36.775	1329.768	1166.883
-26.838	36.780	1328.242	1165.523
-25.823	36.883	1326.279	1164.375
-24.809	36.761	1325.572	1162.974
-23.794	36.841	1323.632	1161.710
-22.779	36.733	1322.532	1160.049
-21.765	36.849	1320.894	1159.263
-20.750	36.771	1319.671	1157.674
-19.736	36.734	1318.359	1156.259
-18.721	36.589	1317.216	1154.344
-17.706	36.684	1315.401	1153.275
-16.692	36.711	1314.650	1152.727
-15.677	36.695	1313.360	1151.455
-14.663	36.789	1311.997	1150.777
-13.648	36.592	1311.285	1148.935
-12.633	36.716	1309.675	1148.217
-11.619	36.695	1309.521	1147.905
-10.604	36.649	1308.149	1146.390
-9.590	36.740	1307.147	1146.004
-8.575	36.677	1306.169	1144.725
-7.560	36.573	1305.870	1143.807
-6.546	36.607	1305.068	1143.256
-5.531	36.590	1303.814	1142.014
-4.517	36.670	1302.600	1141.376
-3.502	36.696	1301.622	1140.629
-2.487	36.733	1300.207	1139.560
-1.473	36.692	1297.404	1136.819
-0.458	35.835	1282.637	1118.853
0.556	30.812	1263.604	1079.031
1.571	26.513	1267.553	1057.254
2.586	24.781	1281.725	1058.738
3.600	23.566	1269.402	1041.339
4.615	17.155	1191.814	942.157
5.629	6.126	1108.939	819.348
6.644	0.822	1085.023	774.500
7.659	0.352	1082.514	770.243
8.673	0.179	1081.664	768.688
9.688	0.179	1079.796	767.287
10.702	0.388	1078.471	767.342
11.717	6.279	1086.993	803.487
12.731	15.349	1098.774	858.758
13.746	18.254	1101.692	875.850
14.761	17.131	1099.681	868.435
15.775	16.076	1097.761	861.451
16.790	15.108	1095.273	854.484
17.804	14.363	1094.053	849.658
18.819	14.088	1092.411	846.911
19.834	13.773	1091.396	844.446
20.848	13.457	1090.558	842.115
21.863	13.235	1090.012	840.491
22.877	13.045	1089.146	838.784
23.892	13.114	1088.288	838.398
24.907	13.071	1087.697	837.649
25.921	13.034	1087.166	836.978
26.936	13.142	1085.898	836.476
27.950	13.063	1085.191	835.454
28.965	13.363	1083.462	835.568
29.980	13.340	1082.285	834.469
30.994	13.236	1081.728	833.443
32.009	13.298	1080.667	832.863
33.023	13.272	1079.463	831.730
34.038	13.248	1078.697	830.944
35.053	13.247	1077.463	829.918
36.067	13.195	1076.887	829.138
37.082	13.195	1076.045	828.420
38.096	13.238	1075.678	828.278
39.111	13.294	1074.734	827.757
40.126	13.268	1073.073	826.277
41.140	13.169	1071.975	824.863
42.155	13.064	1071.155	823.632
43.169	13.041	1070.041	822.593
44.184	13.128	1068.947	822.110
45.199	13.083	1067.735	820.879
46.213	12.964	1067.105	819.733
47.228	13.115	1065.529	819.198
48.242	13.135	1064.795	818.659
49.257	13.180	1063.619	817.905
50.271	13.128	1063.095	817.173
51.286	13.230	1062.266	816.967
52.301	13.231	1060.752	815.738
53.315	13.229	1059.913	815.013
54.330	13.064	1058.922	813.363
55.344	13.139	1058.336	813.212
56.359	13.037	1057.882	812.288
57.374	13.103	1056.420	811.416
58.388	13.068	1055.614	810.556
59.403	13.024	1054.442	809.368
60.417	13.067	1053.717	808.952
61.432	13.017	1052.712	807.865
62.447	12.986	1051.936	807.044
63.461	13.088	1050.896	806.674
64.476	12.951	1050.727	805.801
65.490	13.071	1049.088	805.059
66.505	13.047	1048.753	804.616
67.520	13.112	1047.970	804.260
68.534	12.949	1047.423	802.974
69.549	13.169	1046.490	803.257
70.563	12.979	1045.967	801.860
71.578	13.076	1044.698	801.292
72.593	12.963	1044.223	800.304
73.607	12.932	1043.573	799.587
74.622	12.846	1042.829	798.530
75.636	12.931	1042.184	798.379
76.651	13.099	1040.835	798.083
77.666	13.054	1040.343	797.418
78.680	12.937	1040.354	796.793
79.695	12.990	1039.545	796.356
80.709	13.026	1038.667	795.786
81.724	13.111	1037.799	795.462
82.739	13.087	1037.393	794.964
83.753	13.233	1036.488	794.905
84.768	13.288	1035.265	794.160
85.782	13.424	1034.157	793.890
86.797	13.133	1033.940	792.258
87.812	13.216	1032.985	791.857
88.826	13.193	1031.914	790.853
89.841	13.127	1030.927	789.711
90.855	13.304	1029.965	789.748
91.870	13.255	1028.419	788.260
92.884	13.274	1028.526	788.364
93.899	13.209	1027.404	787.124
94.914	13.350	1026.359	786.924
95.928	13.242	1026.045	786.099
96.943	13.263	1025.295	785.557
97.957	13.211	1024.226	784.422
98.972	13.184	1023.178	783.419
99.987	13.254	1022.165	782.909
101.001	13.205	1021.436	782.048
102.016	13.283	1020.029	781.270
103.030	13.310	1019.810	781.162
104.045	13.225	1019.008	780.078
105.060	13.299	1017.836	779.459
106.074	13.137	1017.137	778.092
107.089	13.116	1016.199	777.208
108.103	13.121	1015.217	776.410
109.118	13.158	1014.153	775.703
110.133	13.148	1013.478	775.072
111.147	13.006	1012.705	773.746
112.162	13.187	1011.456	773.569
113.176	13.249	1010.836	773.319
114.191	13.247	1009.901	772.523
115.206	13.192	1008.965	771.483
116.220	13.212	1008.434	771.102
117.235	13.161	1007.749	770.271
118.249	13.233	1006.869	769.865
119.264	13.192	1005.627	768.659
120.279	13.222	1004.845	768.133
121.293	13.135	1004.167	767.141
122.308	13.148	1003.302	766.474
123.322	12.997	1002.573	765.146
124.337	13.108	1001.329	764.644
125.352	13.124	1000.293	763.863
126.366	13.229	998.995	763.285
127.381	13.176	997.790	762.056
128.395	13.184	997.118	761.509
129.410	13.299	996.256	761.313
130.424	13.274	995.399	760.474
131.439	13.130	994.607	759.144
132.454	13.361	993.277	759.121
133.468	13.326	992.818	758.540
134.483	13.216	992.018	757.358
135.497	13.317	991.178	757.112
136.512	13.250	990.520	756.239
137.527	13.333	989.287	755.610
138.541	13.332	988.500	754.936
139.556	13.395	987.698	754.543
140.570	13.313	987.363	753.849
141.585	13.453	986.265	753.579
142.600	13.479	984.946	752.623
143.614	13.440	984.550	752.078
144.629	13.322	983.985	751.042
145.643	13.442	982.949	750.729
146.658	13.482	981.629	749.838
147.673	13.341	980.825	748.519
148.687	13.294	980.032	747.635
149.702	13.224	979.700	746.998
150.716	13.273	978.741	746.424
151.731	13.275	977.617	745.508
152.746	13.260	976.790	744.745
153.760	13.375	976.279	744.806
154.775	13.381	975.817	744.415
155.789	13.450	974.875	743.943
156.804	13.466	974.360	743.555
157.819	13.494	973.788	743.178
158.833	13.387	973.305	742.264
159.848	13.592	972.418	742.440
160.862	13.486	971.075	740.873
161.877	13.471	969.977	739.905
162.892	13.387	969.035	738.747
163.906	13.419	968.347	738.299
164.921	13.443	967.193	737.462
165.935	13.457	966.795	737.151
166.950	13.551	965.264	736.339
167.964	13.410	964.918	735.385
168.979	13.353	963.857	734.257
169.994	13.493	962.921	734.100
171.008	13.530	962.436	733.826
172.023	13.594	961.342	733.214
173.037	13.664	960.911	733.131
174.052	13.537	960.161	731.928
175.067	13.518	959.715	731.441
176.081	13.506	959.247	730.968
177.096	13.491	958.543	730.299
178.110	13.461	958.273	729.897
179.125	13.454	957.654	729.331
180.140	13.533	956.592	728.806
181.154	13.652	956.122	728.905
182.169	13.673	956.082	728.904
183.183	13.756	955.079	728.437
184.198	13.784	953.897	727.594
185.213	13.715	953.490	726.916
186.227	13.708	952.792	726.290
187.242	13.778	952.317	726.170
188.256	13.705	952.064	725.594
189.271	13.834	950.639	725.008
190.286	13.675	950.099	723.836
191.300	13.559	949.235	722.607
192.315	13.589	948.822	722.360
193.329	13.605	948.204	721.895
194.344	13.702	947.558	721.762
195.359	13.650	947.001	721.049
196.373	13.726	946.223	720.721
197.388	13.931	945.709	721.160
198.402	13.896	945.040	720.431
199.417	13.808	944.503	719.580
200.432	14.002	943.748	719.778
201.446	13.982	943.729	719.614
202.461	14.071	942.890	719.296
203.475	14.086	942.536	719.028
204.490	13.942	941.554	717.594
205.504	13.960	941.164	717.310
206.519	14.030	939.728	716.451
207.534	13.838	939.435	715.338
208.548	14.049	938.948	715.812
209.563	14.044	938.060	715.050
210.577	13.961	937.365	714.102
211.592	14.098	936.590	714.036
212.607	14.083	936.007	713.463
213.621	14.185	935.045	713.107
214.636	14.211	934.201	712.511
215.650	14.218	933.384	711.851
216.665	14.250	932.964	711.607
217.680	14.098	932.556	710.585
218.694	14.331	931.427	710.654
219.709	14.267	930.729	709.788
220.723	14.317	929.710	709.160
221.738	14.266	929.603	708.797
222.753	14.266	928.928	708.220
223.767	14.227	928.337	707.543
224.782	14.407	927.803	707.837
225.796	14.265	927.451	706.903
226.811	14.346	926.649	706.573
227.826	14.254	925.807	705.479
228.840	14.450	924.869	705.529
229.855	14.303	923.922	704.122
230.869	14.337	923.451	703.849
231.884	14.286	922.957	703.192
232.899	14.244	922.443	702.561
233.913	14.350	921.361	702.123
234.928	14.442	920.561	701.835
235.942	14.326	920.172	700.990
236.957	14.202	919.851	700.162
237.972	14.306	918.871	699.791
238.986	14.464	918.206	699.885
240.001	14.360	917.535	698.877
241.015	14.313	917.154	698.328
242.030	14.287	916.519	697.674
243.045	14.455	916.008	697.925
244.059	14.473	915.161	697.295
245.074	14.501	914.375	696.751
246.088	14.526	913.722	696.297
247.103	14.500	913.008	695.580
248.117	14.516	912.967	695.557
249.132	14.621	912.207	695.354
250.147	14.629	911.481	694.772
251.161	14.853	910.097	694.585
252.176	14.885	909.929	694.527
253.190	14.773	909.306	693.525
254.205	14.867	908.445	693.197
255.220	14.805	908.195	692.687
256.234	14.884	907.411	692.355
257.249	14.871	906.605	691.628
258.263	14.794	905.840	690.663
259.278	14.893	905.232	690.549
260.293	14.867	904.923	690.146
261.307	14.930	903.993	689.633
262.322	14.851	904.032	689.276
263.336	14.963	902.846	688.774
264.351	15.019	902.022	688.315
265.366	14.981	901.355	687.587
266.380	15.008	900.885	687.277
267.395	14.965	900.238	686.549
268.409	14.993	898.974	685.637
269.424	15.009	898.568	685.335
270.439	15.111	897.604	684.956
271.453	15.069	896.842	684.142
272.468	15.138	896.259	683.917
273.482	15.165	896.015	683.781
274.497	15.031	895.495	682.776
275.512	15.019	894.807	682.145
276.526	15.118	894.373	682.156
277.541	15.125	893.701	681.613
278.555	15.235	893.145	681.575
279.570	15.185	892.373	680.722
280.585	15.257	891.526	680.309
281.599	15.338	890.679	679.930
282.614	15.249	890.220	679.160
283.628	15.167	889.574	678.274
284.643	15.261	888.961	678.127
285.657	15.226	888.451	677.534
286.672	15.377	887.525	677.381
287.687	15.329	887.124	676.819
288.701	15.387	886.407	676.448
289.716	15.289	886.163	675.805
290.730	15.309	885.577	675.380
291.745	15.260	884.934	674.632
292.760	15.461	883.931	674.616
293.774	15.428	883.334	673.969
294.789	15.235	882.897	672.798
295.803	15.373	882.083	672.674
296.818	15.396	881.439	672.213
297.833	15.390	880.736	671.594
298.847	15.475	880.301	671.546
299.862	15.497	879.486	670.949
300.876	15.513	879.118	670.674
301.891	15.466	878.437	669.908
302.906	15.553	877.981	669.849
303.920	15.717	877.514	670.084
304.935	15.573	877.030	669.085
305.949	15.616	875.917	668.347
306.964	15.611	875.396	667.870
307.979	15.567	875.269	667.537
308.993	15.699	874.394	667.336
310.008	15.689	873.749	666.744
311.022	15.795	873.309	666.770
312.037	15.504	872.404	664.867
313.052	15.739	871.596	665.122
314.066	15.627	871.732	664.726
315.081	15.714	870.997	664.449
316.095	15.646	870.498	663.744
317.110	15.739	869.903	663.598
318.125	15.648	869.270	662.695
319.139	15.836	868.552	662.832
320.154	15.836	868.249	662.540
321.168	15.793	867.814	661.980
322.183	15.908	867.136	661.857
323.197	15.683	866.908	660.741
324.212	15.692	866.016	660.040
325.227	15.806	865.507	660.039
326.241	15.896	864.479	659.548
327.256	15.732	864.529	658.887
328.270	15.708	863.831	658.200
329.285	15.831	862.808	657.847
330.300	16.091	861.959	658.153
331.314	16.053	861.803	657.828
332.329	15.890	861.603	656.983
333.343	16.112	860.882	657.239
334.358	15.841	860.472	655.813
335.373	15.952	860.298	656.053
336.387	15.926	860.015	655.678
337.402	16.013	859.591	655.637
338.416	16.025	859.217	655.340
339.431	16.153	858.870	655.516
340.446	16.221	858.051	655.095
341.460	16.097	857.906	654.446
342.475	16.251	857.391	654.592
343.489	16.224	856.820	653.993
344.504	16.014	856.441	652.833
345.519	16.237	856.369	653.582
346.533	16.231	855.623	652.935
347.548	16.202	854.962	652.259
348.562	16.174	854.188	651.503
349.577	16.152	853.470	650.815
350.592	16.190	853.247	650.731
351.606	16.211	852.524	650.203
352.621	16.213	851.627	649.469
353.635	16.340	850.994	649.419
354.650	16.197	850.690	648.578
355.665	16.257	850.094	648.299
356.679	16.451	848.996	648.147
357.694	16.271	848.557	647.064
358.708	16.310	847.682	646.488
359.723	16.393	847.124	646.324
360.738	16.406	846.963	646.195
361.752	16.405	846.290	645.620
362.767	16.397	845.493	644.923
363.781	16.533	845.148	645.122
364.796	16.521	844.806	644.758
365.810	16.552	844.023	644.221
366.825	16.624	843.580	644.099
367.840	16.418	843.455	643.164
368.854	16.510	842.759	642.925
369.869	16.653	842.383	643.128
370.883	16.539	842.265	642.547
371.898	16.624	841.601	642.305
372.913	16.636	841.302	642.068
373.927	16.684	840.379	641.487
374.942	16.573	840.004	640.724
375.956	16.739	839.808	641.145
376.971	16.737	839.256	640.659
377.986	16.764	839.039	640.538
379.000	16.797	838.565	640.246
380.015	16.821	837.967	639.822
381.029	16.836	837.523	639.484
382.044	16.913	836.742	639.121
383.059	16.831	836.046	638.225
384.073	16.824	835.538	637.753
385.088	16.911	834.915	637.548
386.102	16.850	834.413	636.879
387.117	16.775	833.788	636.063
388.132	16.947	833.218	636.217
389.146	16.809	832.605	635.177
390.161	16.913	832.274	635.260
391.175	16.993	831.885	635.203
392.190	16.946	831.306	634.532
393.205	16.849	830.834	633.753
394.219	16.898	830.373	633.527
395.234	16.764	830.242	632.871
396.248	16.880	829.388	632.597
397.263	16.868	829.290	632.419
398.278	16.877	829.101	632.254
399.292	16.855	828.675	631.792
400.307	16.893	827.760	631.181
401.321	16.921	827.238	630.829
402.336	16.973	826.546	630.439
403.350	17.029	826.394	630.476
404.365	17.010	826.104	630.128
405.380	17.017	825.276	629.466
406.394	17.138	824.533	629.293
407.409	17.274	824.287	629.552
408.423	17.249	824.126	629.282
409.438	17.287	823.805	629.121
410.453	17.296	823.004	628.489
411.467	17.202	823.017	628.092
412.482	17.319	822.622	628.171
413.496	17.353	822.181	627.903
414.511	17.266	821.707	627.164
415.526	17.363	821.114	627.012
416.540	17.438	820.554	626.806
417.555	17.503	819.693	626.332
418.569	17.489	819.341	625.957
419.584	17.458	818.916	625.464
420.599	17.463	818.788	625.327
421.613	99.442	1280.620	1423.896
422.628	85.692	1347.896	1424.006
