DTS Sentinel unit serial number:	SN413079Multiplexer serial number:	ORYXHardware model number:	OX4-SRSoftware version number:	ORYX F/W v4.00 Oryx Data Collector v3.7.2.0data status	okinstallation	princeton_trtdifferential loss correction	single-endedforward channel	channel 1reverse channel	N/Adate	2019/09/12time	18:09:34forward acquisition time	15.00reverse acquisition time	0.00gamma	496.2192k internal	0.2316k external	0.2316temperature offset calibration	1.0110default loss term (dB/km)	0.3790temperature slope calibration	1.0000multiplexer offset coefficient	1.0000multiplexer slope coefficient	1.0000fibre end	0.00T internal ref (°C)	33.62T ext. ref 1 (°C)	3.02T ext. ref 2 (°C)	28.18length (m)	temperature (°C)	Stokes	anti-Stokes-747.200	-90.799	-0.475	-0.139
-746.185	-111.756	0.590	0.121
-745.171	399.224	0.358	0.759
-744.156	47.794	-0.597	0.564
-743.142	25.846	0.413	-0.349
-742.127	-55.684	0.769	0.349
-741.112	156.646	0.201	-0.281
-740.098	-51.294	0.387	0.184
-739.083	-148.505	-0.280	-0.023
-738.069	-200.000	0.021	-0.287
-737.054	-21.522	0.106	0.066
-736.039	87.548	-0.338	0.379
-735.025	-119.735	-0.221	-0.039
-734.010	800.000	0.143	0.595
-732.996	472.527	-0.106	-0.242
-731.981	110.607	-0.380	-0.463
-730.966	574.936	0.148	-0.366
-729.952	63.159	-0.190	-0.192
-728.937	41.620	0.714	-0.654
-727.923	-156.116	-0.960	-0.061
-726.908	415.626	-0.053	-0.115
-725.894	-178.457	0.572	-0.013
-724.879	800.000	0.161	0.567
-723.864	-200.000	0.006	-0.436
-722.850	-81.320	-0.987	-0.329
-721.835	-140.813	-0.163	0.017
-720.821	531.275	0.307	0.735
-719.806	14.557	0.374	0.296
-718.791	-122.332	-0.398	0.066
-717.777	-96.832	-0.784	-0.208
-716.762	60.206	-0.393	-0.393
-715.748	-77.079	-0.256	-0.090
-714.733	51.560	-0.243	-0.233
-713.718	137.676	-0.041	-0.054
-712.704	-75.608	-0.182	-0.065
-711.689	800.000	0.034	0.144
-710.675	-137.192	-0.438	-0.050
-709.660	-122.075	0.749	-0.124
-708.645	-47.230	0.526	-0.259
-707.631	109.139	0.149	-0.180
-706.616	-106.388	0.630	0.142
-705.602	431.778	-0.250	-0.548
-704.587	-55.271	-0.906	-0.412
-703.572	115.989	0.395	-0.489
-702.558	23.069	0.151	-0.125
-701.543	800.000	-0.050	0.206
-700.529	67.665	0.213	-0.220
-699.514	800.000	-0.266	0.849
-698.499	-84.706	-0.552	-0.176
-697.485	-8.834	0.795	0.539
-696.470	-0.948	0.271	-0.194
-695.456	546.492	0.059	0.142
-694.441	125.210	0.395	-0.503
-693.426	-74.432	-0.579	-0.211
-692.412	-7.759	-0.383	0.262
-691.397	-200.000	0.038	-0.254
-690.383	-109.676	-0.987	0.210
-689.368	-128.152	-0.760	-0.110
-688.354	-60.752	0.421	0.180
-687.339	800.000	0.142	-0.496
-686.324	109.314	0.121	-0.147
-685.310	17.304	-0.673	0.540
-684.295	92.785	-0.264	0.301
-683.281	33.226	-0.316	-0.277
-682.266	-102.747	-0.667	-0.161
-681.251	-137.286	0.151	-0.017
-680.237	-119.240	-1.142	0.201
-679.222	350.185	-0.113	0.226
-678.208	248.741	-0.156	0.267
-677.193	94.376	-0.477	-0.547
-676.178	800.000	-0.122	-0.419
-675.164	800.000	-0.091	-0.255
-674.149	-102.381	0.391	-0.095
-673.135	51.298	-0.518	-0.496
-672.120	268.828	-0.170	-0.302
-671.105	240.513	0.218	0.367
-670.091	-173.727	-0.339	-0.010
-669.076	-132.154	0.456	-0.060
-668.062	14.925	0.112	0.089
-667.047	188.375	-0.225	-0.340
-666.032	-200.000	-0.038	0.692
-665.018	408.035	-0.315	0.672
-664.003	-54.616	-0.981	-0.448
-662.989	-72.229	-0.244	0.091
-661.974	-150.147	-0.897	0.070
-660.959	227.494	0.158	-0.259
-659.945	-200.000	-0.156	1.013
-658.930	20.663	1.069	0.874
-657.916	572.225	-0.298	0.733
-656.901	800.000	-0.262	0.831
-655.886	-200.000	-0.066	-1.285
-654.872	151.039	-0.534	-0.734
-653.857	-81.263	0.265	-0.088
-652.843	-85.337	-0.317	-0.100
-651.828	719.032	0.056	-0.149
-650.814	-132.793	0.264	-0.034
-649.799	156.717	0.470	0.655
-648.784	-76.027	-0.409	-0.146
-647.770	800.000	-0.275	0.854
-646.755	-200.000	-0.027	-0.163
-645.741	557.303	-0.039	0.094
-644.726	-200.000	-0.062	0.661
-643.711	-57.563	0.474	-0.210
-642.697	190.452	0.138	0.209
-641.682	-200.000	-0.014	-0.452
-640.668	800.000	0.249	-0.838
-639.653	-200.000	-0.199	-1.308
-638.638	409.617	-0.311	-0.665
-637.624	56.053	0.214	-0.210
-636.609	-122.018	0.794	-0.132
-635.595	148.097	0.226	-0.307
-634.580	-17.143	0.580	-0.369
-633.565	-111.893	-0.541	-0.110
-632.551	-200.000	0.056	-0.409
-631.536	-200.000	-0.105	0.924
-630.522	-53.472	-0.424	0.196
-629.507	-200.000	-0.017	0.631
-628.492	-40.589	-0.447	0.234
-627.478	800.000	-0.259	-0.976
-626.463	-200.000	-0.061	-0.593
-625.449	75.127	0.210	0.223
-624.434	94.573	0.062	0.071
-623.419	800.000	-0.133	-0.404
-622.405	800.000	-0.151	-0.471
-621.390	161.404	-0.461	0.650
-620.376	-116.907	-0.414	0.076
-619.361	-200.000	-0.076	0.620
-618.346	594.389	-0.216	0.539
-617.332	46.209	0.410	-0.383
-616.317	-155.008	-0.469	-0.031
-615.303	79.604	-0.321	0.347
-614.288	707.000	-0.143	-0.379
-613.273	800.000	-0.404	1.476
-612.259	22.525	0.496	0.409
-611.244	-200.000	-0.022	-0.232
-610.230	-188.957	-0.837	-0.010
-609.215	-28.625	-0.976	-0.566
-608.201	-158.750	0.227	-0.013
-607.186	37.835	1.067	-0.956
-606.171	321.875	0.499	0.956
-605.157	800.000	0.182	0.698
-604.142	111.881	0.300	0.364
-603.128	-200.000	-0.017	-0.132
-602.113	-7.104	0.164	-0.112
-601.098	35.764	-0.549	0.486
-600.084	-98.683	-0.554	0.142
-599.069	103.214	0.346	0.408
-598.055	-61.933	0.666	0.280
-597.040	-103.930	0.940	-0.221
-596.025	-200.000	-0.046	-0.637
-595.011	-100.431	0.350	0.087
-593.996	800.000	0.416	1.169
-592.982	-200.000	0.052	-0.411
-591.967	108.806	0.171	-0.205
-590.952	-163.966	-0.557	-0.026
-589.938	-96.973	-0.341	0.090
-588.923	157.281	-0.339	-0.473
-587.909	0.150	1.101	0.790
-586.894	-58.606	0.942	-0.411
-585.879	85.995	-0.546	0.605
-584.865	56.745	0.212	0.208
-583.850	17.298	-0.336	-0.269
-582.836	100.506	0.261	-0.305
-581.821	424.694	0.304	0.658
-580.806	153.249	-0.566	0.780
-579.792	219.742	-0.684	-1.102
-578.777	37.763	0.480	-0.429
-577.763	-200.000	-0.093	0.859
-576.748	-200.000	0.084	-0.497
-575.733	798.916	0.282	-0.784
-574.719	-85.131	0.465	-0.146
-573.704	800.000	-0.112	-0.446
-572.690	-200.000	0.025	0.476
-571.675	-200.000	0.019	0.484
-570.661	-63.761	-0.406	-0.167
-569.646	-200.000	0.078	1.029
-568.631	20.815	0.397	-0.324
-567.617	151.212	-0.306	0.418
-566.602	357.337	0.341	-0.684
-565.588	112.048	-0.462	0.562
-564.573	254.959	0.405	-0.697
-563.558	435.598	0.359	-0.785
-562.544	-126.427	-0.277	0.041
-561.529	-145.206	0.366	-0.033
-560.515	-141.727	0.907	0.092
-559.500	-173.757	-0.884	-0.026
-558.485	-87.554	0.623	0.189
-557.471	-70.874	0.574	-0.217
-556.456	29.107	0.290	-0.248
-555.442	-200.000	0.058	-0.562
-554.427	32.190	0.290	-0.252
-553.412	-75.262	-0.290	0.104
-552.398	800.000	-0.253	0.704
-551.383	-131.331	-0.982	-0.131
-550.369	-200.000	0.001	0.181
-549.354	108.074	-0.121	0.145
-548.339	-2.431	-0.871	0.613
-547.325	137.211	0.550	-0.722
-546.310	-159.984	0.447	-0.025
-545.296	662.992	0.404	-1.047
-544.281	-142.630	0.316	-0.031
-543.266	216.069	0.529	0.844
-542.252	-106.062	-0.784	0.177
-541.237	-54.245	-0.312	-0.142
-540.223	800.000	0.130	0.528
-539.208	800.000	0.055	-0.189
-538.193	-200.000	0.033	0.420
-537.179	-200.000	-0.006	0.339
-536.164	-200.000	-0.044	-0.649
-535.150	24.945	-0.300	0.250
-534.135	168.726	-0.160	0.229
-533.121	186.299	-0.164	0.245
-532.106	-86.036	0.489	0.152
-531.091	36.645	0.244	0.217
-530.077	-174.725	-0.470	0.013
-529.062	-92.335	0.345	-0.098
-528.048	-83.540	-0.788	0.253
-527.033	-122.651	-0.407	-0.066
-526.018	-57.258	-0.488	-0.216
-525.004	716.680	-0.102	0.273
-523.989	-60.044	0.542	-0.232
-522.975	-108.168	-0.557	-0.121
-521.960	-95.609	-0.231	-0.062
-520.945	800.000	-0.228	-0.794
-519.931	227.100	0.422	0.689
-518.916	-48.043	0.312	0.151
-517.902	2.544	-0.313	0.228
-516.887	-200.000	-0.097	0.436
-515.872	-77.741	0.604	-0.210
-514.858	-57.614	0.872	-0.384
-513.843	800.000	-0.101	0.381
-512.829	-159.229	0.679	-0.038
-511.814	-84.846	-0.431	-0.136
-510.799	-200.000	0.081	-0.639
-509.785	246.168	-0.207	-0.350
-508.770	-50.984	0.839	-0.395
-507.756	-200.000	0.014	0.306
-506.741	-200.000	0.035	0.212
-505.726	-72.934	-0.286	-0.106
-504.712	-74.657	0.915	-0.330
-503.697	-158.354	0.427	-0.025
-502.683	-200.000	-0.088	-0.395
-501.668	287.322	-0.104	-0.189
-500.653	-21.120	0.813	-0.499
-499.639	-200.000	-0.003	-0.737
-498.624	-200.000	-0.026	0.165
-497.610	-76.073	0.167	-0.059
-496.595	524.391	-0.107	0.252
-495.581	-109.142	-0.414	0.088
-494.566	-55.522	-0.266	-0.120
-493.551	108.835	0.275	0.329
-492.537	-59.291	0.421	0.182
-491.522	177.942	0.354	-0.518
-490.508	-122.934	-0.274	0.044
-489.493	68.734	-0.397	0.409
-488.478	-200.000	-0.055	-0.575
-487.464	108.155	0.662	-0.792
-486.449	-49.792	0.534	0.254
-485.435	-6.220	-0.538	0.368
-484.420	-99.140	-0.269	-0.068
-483.405	5.729	-0.729	-0.540
-482.391	299.626	0.239	0.441
-481.376	37.189	-0.085	-0.075
-480.362	-200.000	0.071	-0.505
-479.347	-6.951	0.357	0.243
-478.332	141.365	0.352	-0.467
-477.318	294.021	0.198	0.362
-476.303	351.338	-0.235	-0.467
-475.289	398.132	-0.061	-0.129
-474.274	124.047	0.579	-0.729
-473.259	86.335	-0.074	-0.082
-472.245	285.831	0.252	0.455
-471.230	-200.000	0.062	0.573
-470.216	-117.894	-0.335	-0.060
-469.201	-49.304	0.720	-0.344
-468.186	564.880	0.324	-0.786
-467.172	-126.964	-0.400	-0.059
-466.157	-2.394	0.679	0.477
-465.143	-94.384	0.598	0.164
-464.128	-37.206	-0.601	-0.322
-463.113	-107.744	-0.316	-0.069
-462.099	-17.165	-0.776	0.490
-461.084	38.395	0.710	0.634
-460.070	-152.643	-0.765	0.055
-459.055	-66.624	-0.646	-0.257
-458.040	34.577	0.646	-0.565
-457.026	89.493	-0.310	0.346
-456.011	195.638	-0.123	0.187
-454.997	387.026	-0.094	-0.194
-453.982	645.798	0.045	-0.116
-452.968	-153.806	-0.779	-0.053
-451.953	13.996	0.189	0.147
-450.938	-136.668	1.060	-0.123
-449.924	-200.000	-0.007	0.385
-448.909	800.000	-0.160	0.536
-447.895	236.892	-0.250	-0.415
-446.880	112.393	0.263	0.318
-445.865	-140.880	-1.027	0.106
-444.851	-5.114	0.586	0.404
-443.836	136.466	-0.413	0.539
-442.822	348.771	0.420	0.829
-441.807	97.237	0.226	0.260
-440.792	-31.668	-0.257	-0.144
-439.778	156.483	-0.287	-0.397
-438.763	-200.000	-0.184	-1.003
-437.749	198.358	0.068	0.105
-436.734	180.146	0.244	0.358
-435.719	289.006	-0.234	-0.425
-434.705	-200.000	0.035	-0.645
-433.690	316.531	-0.111	0.210
-432.676	-132.553	-0.684	-0.088
-431.661	-100.652	0.729	-0.180
-430.646	800.000	-0.103	0.311
-429.632	-127.222	0.310	0.045
-428.617	685.131	-0.366	0.955
-427.603	-88.467	-0.392	-0.117
-426.588	-200.000	0.208	-1.061
-425.573	-200.000	-0.020	0.193
-424.559	32.698	-0.167	-0.145
-423.544	263.900	-0.410	0.714
-422.530	255.626	-0.184	-0.316
-421.515	320.675	-0.625	1.187
-420.500	269.603	0.098	-0.172
-419.486	-200.000	0.013	-0.306
-418.471	32.688	-0.494	0.427
-417.457	800.000	-0.141	-0.431
-416.442	279.289	-0.355	-0.633
-415.428	-153.683	-0.656	0.045
-414.413	79.528	0.135	-0.145
-413.398	-154.185	-0.438	0.030
-412.384	-91.132	0.660	0.189
-411.369	-200.000	-0.007	0.409
-410.355	-29.295	-0.260	0.149
-409.340	79.052	0.347	0.371
-408.325	-84.893	0.420	-0.132
-407.311	141.202	-0.290	0.384
-406.296	-26.510	-0.441	0.259
-405.282	-127.684	-0.334	-0.048
-404.267	-99.487	0.676	-0.170
-403.252	25.833	0.202	-0.168
-402.238	107.988	-0.573	0.683
-401.223	-200.000	0.112	0.576
-400.209	-108.777	-1.310	-0.280
-399.194	-200.000	0.141	-0.717
-398.179	-115.819	-0.203	0.038
-397.165	318.415	-0.525	0.993
-396.150	800.000	0.079	0.328
-395.136	208.471	0.265	0.414
-394.121	372.600	-0.329	-0.668
-393.106	2.768	-0.147	-0.107
-392.092	-64.477	-0.493	-0.200
-391.077	800.000	0.305	-0.881
-390.063	117.016	-0.384	-0.471
-389.048	-13.202	-0.663	-0.430
-388.033	37.109	0.534	0.472
-387.019	401.696	0.130	-0.272
-386.004	138.327	-0.294	0.386
-384.990	-97.439	-0.735	0.191
-383.975	-36.216	0.383	0.206
-382.960	800.000	0.051	-0.172
-381.946	-200.000	0.041	-0.367
-380.931	300.061	-0.195	0.360
-379.917	115.676	-0.308	0.376
-378.902	71.626	0.195	0.202
-377.888	-178.038	-0.337	0.008
-376.873	-69.742	0.434	-0.166
-375.858	667.197	-0.254	-0.655
-374.844	800.000	0.078	-0.266
-373.829	800.000	-0.040	0.128
-372.815	681.212	-0.079	-0.206
-371.800	-200.000	0.582	0.003
-370.785	-81.846	0.276	-0.090
-369.771	800.000	-0.165	0.527
-368.756	-90.259	-0.751	-0.218
-367.742	42.813	-0.266	-0.242
-366.727	4.651	0.562	-0.412
-365.712	101.156	-0.326	-0.379
-364.698	300.966	0.230	0.424
-363.683	-95.185	0.471	-0.127
-362.669	623.895	-0.116	-0.292
-361.654	171.536	-0.288	-0.412
-360.639	186.089	-0.099	-0.147
-359.625	222.554	0.209	-0.335
-358.610	183.232	0.503	0.741
-357.596	-91.956	-0.331	0.093
-356.581	-200.000	-0.050	0.277
-355.566	-120.625	0.930	-0.157
-354.552	-70.745	-0.753	0.284
-353.537	-8.622	0.625	-0.418
-352.523	-121.569	0.476	-0.079
-351.508	-199.185	1.069	-0.006
-350.493	-200.000	-0.024	0.532
-349.479	-200.000	-0.024	-0.219
-348.464	-64.159	0.664	0.270
-347.450	-6.373	-0.614	0.418
-346.435	-200.000	-0.006	0.721
-345.420	-96.777	-0.441	0.116
-344.406	6.551	-0.484	-0.359
-343.391	363.972	0.213	-0.428
-342.377	-15.658	-0.316	0.201
-341.362	-159.501	-1.277	-0.071
-340.348	-11.333	0.493	0.324
-339.333	48.865	0.331	-0.310
-338.318	248.421	-0.127	-0.214
-337.304	16.899	0.313	0.247
-336.289	635.151	-0.065	-0.165
-335.275	688.981	0.143	0.372
-334.260	800.000	-0.020	-0.069
-333.245	180.553	0.303	0.444
-332.231	108.667	0.292	-0.348
-331.216	6.013	0.372	-0.275
-330.202	-121.231	0.547	0.091
-329.187	-137.444	-0.641	0.072
-328.172	-200.000	0.030	-0.194
-327.158	-67.460	0.751	-0.294
-326.143	157.990	0.316	-0.436
-325.129	-140.107	0.540	-0.057
-324.114	34.780	0.949	0.827
-323.099	-200.000	-0.180	0.960
-322.085	30.699	-0.678	0.578
-321.070	-159.525	0.350	-0.019
-320.056	144.953	0.045	0.060
-319.041	20.192	-0.411	-0.330
-318.026	-157.651	-0.731	0.043
-317.012	-123.905	-0.796	-0.125
-315.997	66.611	-0.233	-0.236
-314.983	388.284	0.283	-0.582
-313.968	-93.659	-0.479	0.132
-312.953	-93.321	-0.153	-0.042
-311.939	-94.141	0.049	-0.013
-310.924	-200.000	-0.035	-0.473
-309.910	35.188	-0.399	0.348
-308.895	-200.000	0.123	0.689
-307.880	-103.597	-0.177	-0.041
-306.866	800.000	-0.073	0.285
-305.851	-200.000	-0.030	-0.255
-304.837	-176.925	0.370	-0.009
-303.822	-100.015	0.726	-0.180
-302.807	-16.958	-0.634	0.399
-301.793	-52.757	0.301	-0.138
-300.778	1.525	0.294	0.210
-299.764	-41.221	-0.494	-0.254
-298.749	451.963	0.121	-0.267
-297.735	69.940	0.396	-0.407
-296.720	445.952	-0.162	-0.354
-295.705	-159.605	-0.260	-0.014
-294.691	293.054	-0.415	0.754
-293.676	-200.000	0.119	0.774
-292.662	-200.000	-0.076	0.773
-291.647	-69.285	-0.778	-0.297
-290.632	800.000	-0.075	-0.289
-289.618	-200.000	0.051	-0.975
-288.603	-105.627	0.659	0.149
-287.589	-200.000	0.057	0.738
-286.574	-200.000	-0.032	-0.328
-285.559	800.000	-0.269	-0.806
-284.545	6.728	-0.340	-0.252
-283.530	140.056	0.582	0.764
-282.516	95.207	0.591	0.670
-281.501	-61.118	0.463	-0.194
-280.486	376.784	-0.067	0.136
-279.472	-48.706	0.611	-0.292
-278.457	-200.000	0.005	0.893
-277.443	60.109	0.229	-0.225
-276.428	80.866	0.927	-0.994
-275.413	55.882	0.247	-0.238
-274.399	-7.751	-0.540	0.363
-273.384	-82.246	0.476	-0.154
-272.370	-200.000	0.120	-0.745
-271.355	54.589	0.711	0.681
-270.340	-170.825	0.517	0.018
-269.326	-13.035	-0.353	0.228
-268.311	800.000	-0.091	0.368
-267.297	233.218	-0.137	0.225
-266.282	458.929	-0.195	0.431
-265.267	800.000	0.065	-0.190
-264.253	22.404	0.681	-0.553
-263.238	800.000	-0.231	-0.720
-262.224	-78.264	-0.647	-0.221
-261.209	2.522	-0.255	-0.183
-260.195	-17.395	-0.095	0.059
-259.180	166.366	-0.526	-0.740
-258.165	-184.381	0.743	-0.012
-257.151	529.661	-0.373	-0.875
-256.136	35.584	0.263	-0.229
-255.122	-200.000	0.112	0.564
-254.107	-75.410	-0.463	0.164
-253.092	-200.000	-0.003	-0.146
-252.078	241.482	-0.680	-1.129
-251.063	160.729	0.393	-0.544
-250.049	227.415	0.060	-0.097
-249.034	173.997	-0.126	-0.181
-248.019	800.000	-0.119	0.410
-247.005	532.883	-0.288	0.678
-245.990	237.236	-0.156	0.257
-244.976	211.050	-0.249	0.389
-243.961	-200.000	0.105	0.459
-242.946	-198.646	-0.700	-0.004
-241.932	335.348	-0.301	-0.580
-240.917	-5.989	0.478	-0.325
-239.903	35.146	-1.297	-1.129
-238.888	-200.000	-0.003	-0.314
-237.873	86.899	0.654	-0.717
-236.859	-133.326	0.189	0.024
-235.844	-60.750	0.865	-0.364
-234.830	800.000	0.261	-0.717
-233.815	800.000	0.182	-0.777
-232.800	-24.297	0.282	0.167
-231.786	-84.133	0.151	-0.047
-230.771	619.674	0.203	0.506
-229.757	-22.408	-0.570	0.343
-228.742	-73.588	0.892	-0.323
-227.727	-127.803	-0.650	-0.093
-226.713	108.377	-0.402	0.476
-225.698	9.316	0.260	-0.195
-224.684	-73.901	-0.214	-0.077
-223.669	443.661	0.089	-0.193
-222.655	434.868	0.138	-0.297
-221.640	-200.000	-0.028	0.165
-220.625	-21.225	-0.378	-0.229
-219.611	-59.489	-0.239	0.102
-218.596	114.922	-0.211	-0.256
-217.582	800.000	-0.177	-0.562
-216.567	-146.319	-0.760	-0.066
-215.552	-25.738	0.661	-0.387
-214.538	29.597	1.045	0.882
-213.523	-57.303	-0.600	0.262
-212.509	-0.186	-0.371	0.262
-211.494	57.070	0.318	0.307
-210.479	800.000	-0.095	0.407
-209.465	-187.963	-0.290	0.004
-208.450	800.000	0.115	-0.479
-207.436	84.347	-0.557	0.604
-206.421	-200.000	-0.022	-0.356
-205.406	-38.374	0.431	-0.226
-204.392	87.093	-0.110	-0.121
-203.377	-16.230	-0.480	0.303
-202.363	-200.000	0.018	-0.902
-201.348	800.000	-0.198	-0.588
-200.333	252.107	0.478	0.807
-199.319	23.461	-0.532	0.434
-198.304	271.037	-0.313	-0.546
-197.290	-14.895	-0.318	-0.202
-196.275	-79.366	-0.452	0.152
-195.260	800.000	-0.061	0.254
-194.246	800.000	0.080	0.234
-193.231	-200.000	0.119	0.765
-192.217	306.768	0.115	-0.212
-191.202	232.629	-0.341	-0.554
-190.187	800.000	0.268	0.885
-189.173	48.883	-0.242	-0.226
-188.158	-36.274	-0.668	-0.357
-187.144	-43.804	1.095	-0.546
-186.129	179.755	0.493	-0.716
-185.114	96.362	-0.414	0.470
-184.100	15.833	-0.523	0.408
-183.085	-200.000	0.010	0.062
-182.071	-63.775	0.306	0.124
-181.056	236.058	-0.430	0.705
-180.042	72.880	-0.882	0.913
-179.027	800.000	-0.237	-0.678
-178.012	-99.769	0.371	0.092
-176.998	-105.012	0.392	-0.089
-175.983	23.013	-0.250	0.203
-174.969	-200.000	-0.149	1.023
-173.954	-84.200	0.562	0.177
-172.939	-176.511	0.400	0.010
-171.925	156.791	0.045	0.062
-170.910	129.892	0.088	0.112
-169.896	176.851	0.800	1.152
-168.881	94.525	-0.231	0.260
-167.866	-106.175	-0.678	-0.151
-166.852	-100.218	0.515	-0.127
-165.837	7.081	-0.415	-0.307
-164.823	-200.000	-0.049	-0.215
-163.808	160.688	-0.377	-0.521
-162.793	-200.000	0.017	0.518
-161.779	-109.054	0.603	-0.127
-160.764	-54.130	0.402	0.181
-159.750	-111.608	0.647	0.130
-158.735	-142.188	0.885	0.087
-157.720	63.287	-0.606	0.602
-156.706	93.890	0.253	0.283
-155.691	-173.060	-0.319	-0.010
-154.677	-90.262	-0.218	-0.063
-153.662	27.858	0.057	-0.048
-152.647	443.013	-0.345	0.749
-151.633	-51.810	0.457	0.211
-150.618	-61.656	-0.169	0.070
-149.604	-150.290	-0.492	0.038
-148.589	44.128	-0.721	0.654
-147.574	295.424	0.291	0.527
-146.560	-200.000	-0.022	0.348
-145.545	-200.000	0.036	-0.346
-144.531	23.194	0.171	0.139
-143.516	-102.784	0.333	-0.078
-142.502	274.446	0.292	-0.511
-141.487	-126.094	-0.874	0.130
-140.472	97.408	-0.250	-0.284
-139.458	-11.082	0.557	-0.363
-138.443	-124.920	-0.229	0.035
-137.429	324.475	0.542	1.023
-136.414	-200.000	-0.087	0.650
-135.399	-16.017	-0.401	0.252
-134.385	-200.000	0.036	0.200
-133.370	-29.734	-0.333	-0.188
-132.356	800.000	0.225	0.761
-131.341	-13.647	-0.591	0.378
-130.326	-200.000	0.437	0.001
-129.312	-200.000	0.062	0.346
-128.297	-135.310	0.048	0.006
-127.283	-0.822	-0.331	-0.232
-126.268	18.829	-0.265	0.210
-125.253	774.979	-0.167	-0.449
-124.239	800.000	-0.029	0.100
-123.224	84.651	-0.386	-0.418
-122.210	511.313	0.079	0.181
-121.195	-17.531	0.432	0.269
-120.180	-128.088	0.094	-0.013
-119.166	-200.000	-0.200	-0.905
-118.151	800.000	-0.162	-0.540
-117.137	-200.000	0.121	0.650
-116.122	-200.000	-0.005	0.494
-115.107	173.222	-0.050	0.072
-114.093	-200.000	0.012	-0.533
-113.078	-200.000	0.151	-0.806
-112.064	158.757	0.036	0.050
-111.049	-28.843	0.519	-0.295
-110.034	584.115	-0.203	0.493
-109.020	-45.757	0.477	-0.233
-108.005	208.195	-0.259	-0.400
-106.991	-18.691	-0.611	0.376
-105.976	-189.024	1.056	-0.013
-104.962	-55.178	0.391	-0.174
-103.947	82.506	0.214	0.229
-102.932	440.985	0.222	-0.480
-101.918	-159.291	0.358	-0.020
-100.903	28.744	-0.763	0.638
-99.889	-151.410	0.232	0.017
-98.874	800.000	-0.169	-0.494
-97.859	378.813	-0.428	0.865
-96.845	-10.996	-0.570	0.372
-95.830	-56.213	0.840	-0.369
-94.816	130.837	-0.629	-0.796
-93.801	-200.000	-0.028	0.268
-92.786	-112.478	-0.511	0.101
-91.772	-132.247	0.769	-0.098
-90.757	514.120	-0.154	0.355
-89.743	30.298	-0.637	0.537
-88.728	-35.598	-0.329	0.176
-87.713	-93.021	0.549	-0.151
-86.699	136.234	0.244	0.314
-85.684	-149.409	0.729	-0.057
-84.670	115.207	0.096	-0.116
-83.655	-168.914	-0.145	-0.005
-82.640	800.000	-0.068	-0.274
-81.626	800.000	0.089	0.380
-80.611	-28.180	-0.422	0.241
-79.597	-200.000	-0.943	-0.001
-78.582	-200.000	-0.073	0.444
-77.567	639.981	-0.077	0.194
-76.553	800.000	0.125	-0.390
-75.538	-200.000	0.077	0.367
-74.524	-74.297	-0.416	-0.148
-73.509	65.995	-0.277	-0.277
-72.494	39.145	0.303	0.267
-71.480	-67.667	-0.343	0.132
-70.465	-187.751	-0.322	0.004
-69.451	140.995	0.518	0.676
-68.436	-103.651	-0.711	0.164
-67.422	226.803	0.484	-0.775
-66.407	-116.623	-0.403	-0.073
-65.392	480.039	0.159	-0.355
-64.378	406.687	-0.093	-0.193
-63.363	176.529	-0.400	-0.573
-62.349	-200.000	0.016	-0.583
-61.334	74.021	-0.497	-0.515
-60.319	26.601	0.715	-0.590
-59.305	211.617	-0.785	-1.218
-58.290	-200.000	-0.128	0.998
-57.276	588.005	0.781	1.896
-56.261	-200.000	96.937	575.474
-55.246	637.621	1374.111	3442.457
-54.232	197.572	2550.259	3838.959
-53.217	118.320	2137.206	2598.811
-52.203	45.131	1600.908	1454.418
-51.188	37.187	1341.795	1171.276
-50.173	33.797	1300.497	1115.313
-49.159	56.773	1349.889	1295.572
-48.144	58.664	1365.264	1321.552
-47.130	37.198	1323.928	1155.563
-46.115	33.820	1304.844	1118.995
-45.100	33.412	1300.764	1113.058
-44.086	33.524	1298.210	1111.483
-43.071	33.504	1295.409	1108.926
-42.057	33.374	1294.647	1107.469
-41.042	33.309	1292.911	1105.556
-40.027	33.579	1290.711	1105.210
-39.013	33.573	1289.411	1104.016
-37.998	33.644	1286.587	1101.965
-36.984	33.614	1285.115	1100.490
-35.969	33.405	1285.263	1099.359
-34.954	33.521	1282.718	1097.807
-33.940	33.705	1281.586	1097.863
-32.925	33.807	1279.036	1096.225
-31.911	34.004	1277.330	1095.853
-30.896	33.737	1276.018	1093.143
-29.881	33.742	1275.558	1092.739
-28.867	33.892	1273.837	1092.080
-27.852	33.749	1272.161	1089.780
-26.838	33.883	1270.724	1089.273
-25.823	33.627	1270.870	1087.891
-24.809	33.660	1268.193	1085.741
-23.794	33.797	1266.992	1085.455
-22.779	33.935	1264.955	1084.453
-21.765	33.837	1264.623	1083.565
-20.750	33.628	1263.907	1081.718
-19.736	33.413	1262.928	1079.616
-18.721	33.512	1260.951	1078.443
-17.706	33.858	1258.210	1078.022
-16.692	33.722	1258.324	1077.302
-15.677	33.422	1257.217	1074.613
-14.663	33.454	1256.555	1074.184
-13.648	33.415	1256.550	1073.918
-12.633	33.503	1253.931	1072.134
-11.619	33.723	1254.014	1073.406
-10.604	33.627	1252.861	1071.832
-9.590	33.472	1252.245	1070.387
-8.575	33.385	1250.370	1068.250
-7.560	33.471	1250.724	1068.997
-6.546	33.438	1248.337	1066.728
-5.531	33.310	1248.998	1066.533
-4.517	33.526	1247.473	1066.403
-3.502	33.295	1247.608	1065.172
-2.487	33.510	1245.839	1064.828
-1.473	33.239	1242.093	1060.066
-0.458	31.910	1227.278	1040.015
0.556	28.976	1209.986	999.831
1.571	25.410	1213.283	982.992
2.586	23.988	1228.908	987.674
3.600	23.382	1217.638	975.199
4.615	17.528	1145.552	886.979
5.629	7.506	1067.966	777.937
6.644	3.521	1047.839	744.017
7.659	2.959	1046.182	740.067
8.673	2.983	1045.340	739.524
9.688	2.620	1043.605	736.485
10.702	3.204	1042.435	738.399
11.717	9.233	1050.417	773.059
12.731	19.181	1064.143	831.350
13.746	24.710	1071.626	863.920
14.761	26.096	1073.160	871.778
15.775	26.277	1072.481	872.025
16.790	25.994	1071.359	869.671
17.804	25.767	1071.662	868.747
18.819	26.113	1070.954	869.761
19.834	26.246	1070.101	869.630
20.848	26.305	1070.521	870.182
21.863	26.406	1068.799	869.190
22.877	26.274	1068.959	868.607
23.892	26.356	1067.595	867.819
24.907	26.303	1067.245	867.203
25.921	26.128	1066.504	865.685
26.936	26.186	1065.665	865.201
27.950	26.326	1064.237	864.635
28.965	25.817	1062.531	860.746
29.980	26.188	1060.383	860.694
30.994	26.389	1059.042	860.489
32.009	26.372	1058.991	860.287
33.023	25.939	1057.935	857.298
34.038	26.319	1056.511	857.869
35.053	26.406	1056.323	858.054
36.067	26.535	1054.956	857.479
37.082	26.330	1055.729	857.060
38.096	26.418	1054.463	856.372
39.111	26.593	1054.085	856.818
40.126	26.595	1051.274	854.468
41.140	26.035	1050.826	851.387
42.155	25.802	1048.732	848.519
43.169	26.013	1048.332	849.110
44.184	25.950	1047.672	848.205
45.199	25.829	1046.310	846.459
46.213	26.111	1045.392	846.967
47.228	26.206	1045.050	847.059
48.242	26.179	1043.125	845.297
49.257	26.436	1042.754	846.123
50.271	26.391	1042.497	845.630
51.286	26.376	1042.119	845.177
52.301	26.344	1041.217	844.224
53.315	26.710	1039.149	844.177
54.330	26.368	1038.043	841.613
55.344	26.395	1037.499	841.222
56.359	26.170	1037.154	839.823
57.374	26.129	1036.576	839.088
58.388	26.224	1035.857	838.872
59.403	26.053	1033.912	836.432
60.417	26.030	1033.463	835.888
61.432	26.208	1032.658	835.988
62.447	25.972	1032.711	834.864
63.461	26.318	1031.700	835.571
64.476	26.384	1030.469	834.807
65.490	25.736	1030.033	831.387
66.505	25.877	1029.446	831.489
67.520	26.084	1029.021	832.027
68.534	25.777	1027.984	829.702
69.549	25.476	1026.148	826.760
70.563	25.873	1025.496	827.990
71.578	25.572	1025.156	826.258
72.593	25.439	1023.716	824.413
73.607	25.408	1023.411	823.954
74.622	25.927	1023.334	826.198
75.636	25.759	1022.763	824.894
76.651	25.757	1021.130	823.497
77.666	25.871	1020.842	823.709
78.680	26.088	1019.411	823.476
79.695	25.977	1020.042	823.404
80.709	25.810	1019.316	821.982
81.724	26.102	1018.471	822.562
82.739	26.087	1017.681	821.783
83.753	26.413	1017.883	823.354
84.768	26.568	1016.335	822.738
85.782	26.641	1015.818	822.574
86.797	26.523	1014.960	821.271
87.812	26.424	1014.327	820.239
88.826	26.727	1012.362	819.949
89.841	26.609	1012.538	819.487
90.855	26.751	1010.787	818.634
91.870	26.602	1010.516	817.670
92.884	26.449	1007.552	814.510
93.899	26.144	1008.684	813.982
94.914	26.713	1007.034	815.134
95.928	26.684	1005.735	813.883
96.943	26.382	1005.152	811.984
97.957	25.819	1004.092	808.531
98.972	26.061	1002.313	808.107
99.987	26.061	1003.199	808.751
101.001	26.522	1001.102	809.053
102.016	26.364	1000.396	807.701
103.030	26.361	999.743	807.092
104.045	26.406	998.035	805.839
105.060	25.822	998.891	803.856
106.074	26.062	997.812	803.984
107.089	26.781	995.913	805.583
108.103	26.385	995.520	803.431
109.118	25.952	994.873	800.914
110.133	25.907	993.826	799.802
111.147	25.573	993.731	798.176
112.162	25.592	991.761	796.603
113.176	25.863	991.680	797.669
114.191	25.869	991.130	797.181
115.206	25.594	990.009	794.994
116.220	25.488	988.606	793.331
117.235	25.975	987.420	794.454
118.249	25.460	987.583	792.245
119.264	25.675	986.877	792.557
120.279	25.380	986.670	791.021
121.293	25.673	984.247	790.296
122.308	25.866	983.260	790.281
123.322	25.352	984.187	788.698
124.337	25.272	981.825	786.385
125.352	25.434	979.734	785.349
126.366	25.040	978.387	782.477
127.381	25.995	978.433	786.615
128.395	26.249	978.394	787.623
129.410	26.397	977.902	787.801
130.424	26.176	976.537	785.670
131.439	26.196	976.000	785.253
132.454	26.553	974.419	785.462
133.468	26.071	974.326	783.227
134.483	25.979	973.734	782.283
135.497	26.297	973.934	783.752
136.512	26.313	971.794	782.031
137.527	26.289	972.008	782.031
138.541	26.443	970.084	781.077
139.556	26.521	970.190	781.430
140.570	26.857	968.265	781.260
141.585	26.797	968.508	781.130
142.600	26.369	967.524	778.422
143.614	26.344	967.312	778.077
144.629	27.005	965.737	779.580
145.643	26.876	963.872	777.452
146.658	26.648	962.140	775.011
147.673	26.497	961.750	773.985
148.687	26.549	959.834	772.592
149.702	26.289	960.514	771.962
150.716	26.315	959.446	771.147
151.731	26.508	958.912	771.473
152.746	26.699	957.810	771.330
153.760	26.902	957.099	771.551
154.775	26.512	957.661	770.280
155.789	26.618	956.894	770.042
156.804	26.741	955.262	769.183
157.819	26.536	954.861	767.922
158.833	26.833	954.397	768.742
159.848	26.672	953.914	767.604
160.862	26.535	951.552	765.057
161.877	26.538	951.010	764.562
162.892	26.450	949.948	763.273
163.906	26.532	948.208	762.149
164.921	26.534	947.790	761.758
165.935	26.634	946.469	761.047
166.950	26.794	946.098	761.353
167.964	26.608	945.180	759.765
168.979	26.701	943.981	759.124
169.994	26.704	942.458	757.846
171.008	27.043	942.310	759.076
172.023	27.079	941.398	758.428
173.037	26.303	941.013	754.811
174.052	26.297	940.588	754.377
175.067	26.399	938.838	753.330
176.081	26.334	939.331	753.389
177.096	26.480	937.958	752.831
178.110	25.931	937.566	750.164
179.125	26.225	935.957	750.032
180.140	26.206	935.778	749.742
181.154	26.240	935.719	749.770
182.169	26.498	935.973	750.977
183.183	26.745	935.717	751.729
184.198	26.400	935.298	749.899
185.213	26.587	934.725	750.146
186.227	26.335	933.221	747.829
187.242	26.220	933.629	747.616
188.256	26.775	932.171	748.675
189.271	26.788	931.464	748.095
190.286	26.447	929.657	745.172
191.300	25.613	928.770	740.962
192.315	24.932	927.710	737.249
193.329	24.958	926.343	736.202
194.344	25.856	927.679	740.895
195.359	26.531	927.040	743.091
196.373	26.505	927.147	743.002
197.388	26.625	926.167	742.643
198.402	26.717	925.117	742.115
199.417	26.652	924.309	741.132
200.432	26.523	923.620	739.990
201.446	26.334	923.588	739.125
202.461	26.433	922.810	738.841
203.475	25.603	920.439	733.493
204.490	24.591	920.327	729.212
205.504	25.396	920.632	732.673
206.519	26.036	920.623	735.212
207.534	26.264	919.432	735.125
208.548	26.630	918.766	736.012
209.563	25.967	918.912	733.370
210.577	26.315	917.902	733.911
211.592	26.489	917.376	734.130
212.607	26.574	916.432	733.655
213.621	26.684	916.359	733.978
214.636	26.866	914.563	733.209
215.650	26.566	913.703	731.245
216.665	27.075	914.080	733.540
217.680	26.945	912.775	731.902
218.694	26.395	912.658	729.527
219.709	26.205	911.976	728.151
220.723	26.389	910.829	727.911
221.738	26.344	910.959	727.770
222.753	26.250	909.843	726.433
223.767	26.427	910.344	727.481
224.782	26.197	911.072	727.072
225.796	26.518	909.303	726.889
226.811	26.046	907.749	723.687
227.826	25.525	906.334	720.407
228.840	25.526	905.623	719.783
229.855	25.706	905.155	720.067
230.869	25.534	904.147	718.517
231.884	26.108	904.065	720.679
232.899	26.386	903.711	721.440
233.913	26.356	903.085	720.759
234.928	26.807	902.127	721.728
235.942	26.582	901.043	719.901
236.957	26.125	900.812	717.836
237.972	26.087	899.841	716.850
238.986	26.294	900.025	717.752
240.001	26.317	899.082	717.029
241.015	26.013	899.619	716.186
242.030	26.465	898.603	717.106
243.045	26.387	897.570	715.910
244.059	26.637	897.809	717.028
245.074	26.444	896.452	715.115
246.088	26.224	895.784	713.651
247.103	26.530	895.716	714.742
248.117	26.960	895.935	716.551
249.132	27.283	895.112	717.104
250.147	27.164	894.647	716.201
251.161	27.421	894.820	717.288
252.176	27.744	892.629	716.737
253.190	27.569	892.265	715.694
254.205	27.835	892.654	716.986
255.220	27.829	891.432	715.920
256.234	27.131	891.645	713.286
257.249	27.364	890.686	713.369
258.263	27.612	889.095	713.005
259.278	27.373	889.041	711.961
260.293	27.755	888.320	712.817
261.307	27.381	888.157	711.159
262.322	26.831	887.545	708.460
263.336	26.246	885.517	704.495
264.351	25.630	883.432	700.380
265.366	25.722	882.966	700.306
266.380	26.740	884.558	705.471
267.395	27.251	883.889	706.860
268.409	27.016	882.619	704.870
269.424	27.459	881.666	705.765
270.439	27.282	881.561	704.932
271.453	27.388	881.261	705.040
272.468	27.554	881.467	705.784
273.482	27.351	879.923	703.703
274.497	26.943	879.393	701.639
275.512	26.716	879.138	700.498
276.526	27.286	877.884	701.633
277.541	27.442	877.775	702.086
278.555	27.520	876.132	701.010
279.570	26.997	877.097	699.705
280.585	27.102	876.013	699.185
281.599	27.150	874.646	698.214
282.614	26.419	873.221	694.210
283.628	26.397	873.771	694.504
284.643	27.031	873.492	696.651
285.657	26.431	872.122	693.198
286.672	26.151	870.832	691.041
287.687	27.194	871.095	695.181
288.701	26.908	870.120	693.246
289.716	26.717	869.678	692.103
290.730	26.757	868.464	691.230
291.745	26.262	867.864	688.802
292.760	26.591	868.865	690.793
293.774	27.610	868.823	694.582
294.789	28.008	867.769	695.194
295.803	27.692	867.872	694.012
296.818	27.750	867.556	693.919
297.833	27.123	866.857	690.916
298.847	27.288	864.832	689.866
299.862	27.585	865.416	691.396
300.876	27.648	864.888	691.152
301.891	27.781	863.662	690.615
302.906	27.636	863.469	689.850
303.920	27.584	863.797	689.857
304.935	27.887	863.266	690.515
305.949	27.524	862.129	688.174
306.964	27.523	861.122	687.305
307.979	27.561	860.107	686.579
308.993	27.956	860.176	688.061
310.008	27.738	860.494	687.432
311.022	27.526	858.744	685.176
312.037	27.447	858.711	684.792
313.052	27.597	857.173	684.069
314.066	26.543	855.453	678.685
315.081	26.247	855.186	677.305
316.095	26.861	856.391	680.505
317.110	27.212	854.963	680.623
318.125	26.694	853.272	677.279
319.139	25.778	852.249	672.986
320.154	25.802	851.941	672.773
321.168	26.503	852.821	676.028
322.183	27.051	852.749	677.959
323.197	27.409	852.339	678.908
324.212	27.428	852.195	678.803
325.227	27.215	852.039	677.826
326.241	27.503	850.598	677.691
327.256	27.199	849.393	675.541
328.270	27.346	849.226	675.894
329.285	27.163	848.479	674.561
330.300	26.691	847.872	672.268
331.314	26.778	848.678	673.171
332.329	27.601	847.350	675.109
333.343	27.931	846.691	675.742
334.358	27.414	847.106	674.103
335.373	27.653	846.970	674.817
336.387	28.050	845.952	675.417
337.402	28.201	845.906	675.876
338.416	28.304	844.910	675.402
339.431	27.777	846.095	674.339
340.446	28.317	844.955	675.366
341.460	28.299	843.868	674.368
342.475	28.066	843.209	672.927
343.489	28.039	843.205	672.763
344.504	28.121	844.074	673.701
345.519	28.431	843.623	674.421
346.533	28.243	843.362	673.462
347.548	28.568	842.124	673.606
348.562	28.413	842.493	673.271
349.577	28.140	841.537	671.446
350.592	28.265	839.760	670.429
351.606	28.314	839.560	670.389
352.621	28.280	838.623	669.457
353.635	27.978	838.091	667.868
354.650	27.953	835.125	665.354
355.665	26.792	835.722	661.537
356.679	26.964	835.369	661.828
357.694	27.032	835.322	661.981
358.708	27.361	834.049	662.110
359.723	28.112	833.132	664.053
360.738	28.409	832.857	664.851
361.752	28.246	832.906	664.238
362.767	29.027	831.785	666.114
363.781	28.739	832.252	665.387
364.796	28.679	832.666	665.443
365.810	28.800	831.572	664.944
366.825	28.890	832.230	665.738
367.840	28.612	829.973	662.870
368.854	28.137	829.825	660.980
369.869	28.285	828.446	660.355
370.883	28.328	828.158	660.222
371.898	27.986	827.903	658.729
372.913	28.571	828.325	661.114
373.927	28.338	827.342	659.432
374.942	28.622	826.855	660.007
375.956	28.619	826.299	659.493
376.971	28.411	826.552	658.892
377.986	28.687	826.658	659.909
379.000	28.811	826.186	659.917
380.015	28.350	824.981	657.244
381.029	28.403	824.605	657.078
382.044	28.573	823.264	656.560
383.059	28.879	822.867	657.280
384.073	29.072	822.365	657.509
385.088	28.653	821.470	655.239
386.102	28.712	821.527	655.438
387.117	28.145	821.298	653.172
388.132	28.299	819.684	652.382
389.146	27.871	818.195	649.617
390.161	28.274	817.791	650.668
391.175	28.312	818.495	651.308
392.190	27.760	817.786	648.723
393.205	26.679	815.494	643.015
394.219	25.628	813.960	638.022
395.234	25.040	813.516	635.535
396.248	26.856	814.923	643.019
397.263	28.453	816.375	649.777
398.278	28.354	815.407	648.597
399.292	28.040	814.622	646.804
400.307	27.997	813.485	645.694
401.321	27.890	814.385	645.969
402.336	28.370	814.771	647.918
403.350	28.919	813.259	648.595
404.365	29.222	814.055	650.244
405.380	29.249	813.266	649.649
406.394	29.535	812.049	649.628
407.409	29.264	812.855	649.258
408.423	29.042	813.143	648.650
409.438	29.685	811.898	649.861
410.453	29.995	809.745	649.166
411.467	29.563	809.943	647.753
412.482	29.549	809.663	647.424
413.496	29.777	809.189	647.784
414.511	29.369	809.517	646.560
415.526	29.762	808.030	646.690
416.540	29.571	807.651	645.661
417.555	28.841	807.937	643.282
418.569	29.380	806.324	643.821
419.584	29.382	806.393	643.827
420.599	29.226	805.544	642.546
421.613	159.613	1371.094	1792.982
422.628	138.685	1453.515	1793.016
