DTS Sentinel unit serial number:	SN413079Multiplexer serial number:	ORYXHardware model number:	OX4-SRSoftware version number:	ORYX F/W v4.00 Oryx Data Collector v3.7.2.0data status	okinstallation	princeton_trtdifferential loss correction	single-endedforward channel	channel 1reverse channel	N/Adate	2019/09/15time	12:18:35forward acquisition time	60.00reverse acquisition time	0.00gamma	496.2192k internal	0.2304k external	0.2304temperature offset calibration	0.9983default loss term (dB/km)	0.3790temperature slope calibration	1.0000multiplexer offset coefficient	1.0000multiplexer slope coefficient	1.0000fibre end	0.00T internal ref (°C)	34.75T ext. ref 1 (°C)	5.05T ext. ref 2 (°C)	31.84length (m)	temperature (°C)	Stokes	anti-Stokes-747.200	-102.683	-0.125	0.030
-746.185	-200.000	-0.048	0.260
-745.171	-38.309	-0.171	0.092
-744.156	-16.073	-0.116	0.075
-743.142	8.899	-0.091	0.070
-742.127	-200.000	-0.008	-0.132
-741.112	-200.000	-0.019	0.172
-740.098	-123.113	0.353	0.058
-739.083	144.185	0.022	0.030
-738.069	-200.000	-0.011	0.253
-737.054	-120.955	0.109	-0.019
-736.039	-132.492	0.218	-0.029
-735.025	-92.909	-0.120	-0.034
-734.010	97.443	-0.078	0.091
-732.996	-3.098	-0.100	-0.071
-731.981	120.525	0.175	0.221
-730.966	-24.654	0.301	-0.182
-729.952	315.543	-0.087	-0.167
-728.937	-59.808	-0.095	-0.041
-727.923	140.056	0.272	0.365
-726.908	-12.674	-0.221	0.147
-725.894	-146.873	0.089	0.008
-724.879	-138.326	0.458	-0.052
-723.864	800.000	-0.159	-0.466
-722.850	-200.000	-0.015	-0.504
-721.835	-95.881	0.340	-0.092
-720.821	279.391	-0.036	0.065
-719.806	-105.967	0.212	0.049
-718.791	63.476	-0.145	-0.148
-717.777	-200.000	-0.062	-0.315
-716.762	34.396	0.220	-0.196
-715.748	-200.000	-0.005	-0.102
-714.733	134.560	-0.135	-0.178
-713.718	-96.517	0.180	0.048
-712.704	-200.000	-0.011	0.094
-711.689	21.884	-0.188	0.156
-710.675	-104.994	0.188	-0.044
-709.660	311.581	0.106	0.202
-708.645	-168.710	-0.133	0.005
-707.631	-56.770	0.067	0.030
-706.616	207.403	-0.042	-0.066
-705.602	-200.000	-0.013	-0.425
-704.587	120.373	0.169	-0.214
-703.572	-200.000	0.005	0.143
-702.558	-91.035	-0.193	-0.056
-701.543	-36.892	0.027	-0.015
-700.529	800.000	-0.042	-0.179
-699.514	166.755	-0.141	-0.203
-698.499	-129.336	-0.294	-0.042
-697.485	-1.565	-0.138	0.099
-696.470	800.000	0.090	-0.354
-695.456	-27.720	-0.011	-0.006
-694.441	-200.000	0.014	0.105
-693.426	-85.881	-0.234	-0.074
-692.412	-192.554	-0.101	-0.001
-691.397	15.833	-0.245	0.196
-690.383	-200.000	-0.008	-0.060
-689.368	-167.617	0.193	0.008
-688.354	-144.408	0.441	-0.042
-687.339	-36.083	-0.158	0.087
-686.324	-200.000	-0.013	-0.115
-685.310	-43.211	0.091	-0.047
-684.295	188.955	0.051	0.077
-683.281	-198.801	0.145	0.001
-682.266	-10.458	0.050	-0.034
-681.251	-200.000	-0.019	-0.276
-680.237	41.449	-0.220	-0.202
-679.222	-51.999	-0.246	-0.116
-678.208	-64.103	-0.093	0.038
-677.193	-151.726	0.152	-0.011
-676.178	-18.916	0.088	-0.055
-675.164	-94.864	0.421	0.116
-674.149	41.534	-0.259	-0.238
-673.135	-116.840	0.216	0.040
-672.120	-200.000	0.008	0.129
-671.105	182.966	-0.195	-0.293
-670.091	-56.576	-0.238	-0.107
-669.076	800.000	-0.082	-0.238
-668.062	-29.401	0.113	-0.065
-667.047	-74.550	0.145	-0.053
-666.032	70.213	-0.129	-0.135
-665.018	-89.405	-0.287	-0.086
-664.003	217.173	-0.062	-0.100
-662.989	105.844	-0.116	0.140
-661.974	388.589	-0.053	-0.111
-660.959	-98.094	0.230	0.060
-659.945	-62.542	-0.246	-0.104
-658.930	271.708	0.051	-0.091
-657.916	-149.556	-0.247	0.020
-656.901	-62.903	0.257	0.108
-655.886	-18.359	0.064	0.041
-654.872	-86.912	0.102	0.032
-653.857	29.793	0.243	-0.210
-652.843	-200.000	0.026	0.306
-651.828	-130.514	-0.253	0.035
-650.814	800.000	-0.082	0.273
-649.799	434.517	-0.046	-0.101
-648.784	106.834	-0.099	-0.119
-647.770	112.178	0.087	0.107
-646.755	-100.283	0.228	0.057
-645.741	800.000	-0.019	-0.056
-644.726	800.000	-0.095	-0.324
-643.711	-200.000	0.031	0.149
-642.697	-92.113	0.340	0.098
-641.682	337.158	-0.025	-0.049
-640.668	-91.806	0.238	-0.068
-639.653	557.754	-0.097	0.236
-638.638	74.901	0.343	-0.366
-637.624	63.649	0.086	0.088
-636.609	-178.304	0.209	-0.005
-635.595	-164.193	0.125	-0.006
-634.580	-135.413	-0.066	-0.008
-633.565	-200.000	0.006	0.130
-632.551	-102.262	-0.085	-0.021
-631.536	-44.942	-0.071	-0.036
-630.522	-81.770	0.188	-0.062
-629.507	800.000	0.040	-0.129
-628.492	43.131	0.120	-0.111
-627.478	707.665	0.099	-0.266
-626.463	-17.775	0.238	-0.152
-625.449	304.201	-0.129	0.242
-624.434	55.093	0.056	0.055
-623.419	-16.750	0.163	0.105
-622.405	-40.996	-0.480	-0.251
-621.390	-76.199	0.120	-0.043
-620.376	184.843	-0.021	0.031
-619.361	-155.774	-0.287	0.019
-618.346	-51.267	0.392	0.186
-617.332	-63.508	0.219	-0.091
-616.317	-200.000	0.003	-0.153
-615.303	-136.414	-0.222	0.026
-614.288	330.992	0.129	-0.252
-613.273	104.840	0.289	-0.345
-612.259	-33.371	-0.231	0.129
-611.244	-52.785	0.097	-0.045
-610.230	87.731	-0.214	-0.241
-609.215	-200.000	-0.012	0.172
-608.201	44.672	0.067	-0.062
-607.186	295.616	-0.102	-0.189
-606.171	-27.326	-0.359	-0.211
-605.157	-132.251	0.157	-0.021
-604.142	146.587	-0.171	0.233
-603.128	-188.782	-0.233	-0.003
-602.113	-129.557	-0.062	0.009
-601.098	-47.092	0.477	-0.236
-600.084	-26.432	0.097	-0.058
-599.069	-9.067	0.303	-0.205
-598.055	-164.638	-0.358	0.016
-597.040	70.609	0.174	0.182
-596.025	-76.633	-0.323	0.115
-595.011	264.037	0.234	0.413
-593.996	-104.974	0.032	-0.007
-592.982	194.884	-0.194	0.298
-591.967	-200.000	0.011	-0.059
-590.952	-200.000	0.012	0.097
-589.938	-59.424	-0.250	0.109
-588.923	-200.000	0.013	0.205
-587.909	-128.246	-0.197	-0.028
-586.894	-63.239	-0.426	0.178
-585.879	39.593	0.293	0.266
-584.865	-200.000	0.027	-0.396
-583.850	-200.000	-0.023	-0.161
-582.836	-86.107	-0.353	-0.110
-581.821	290.832	-0.036	0.066
-580.806	-106.966	0.153	-0.034
-579.792	227.987	0.157	-0.258
-578.777	12.697	0.087	0.068
-577.763	-172.536	-0.100	0.003
-576.748	145.353	-0.047	0.064
-575.733	-109.842	-0.314	0.067
-574.719	-164.127	0.170	-0.008
-573.704	26.983	0.052	-0.044
-572.690	-76.804	0.102	0.036
-571.675	-124.283	-0.361	0.057
-570.661	-49.124	0.219	-0.106
-569.646	-136.206	-0.135	-0.016
-568.631	-19.867	-0.199	0.124
-567.617	225.506	-0.133	-0.218
-566.602	-200.000	-0.004	0.039
-565.588	800.000	-0.106	0.442
-564.573	-159.123	-0.256	0.015
-563.558	536.073	-0.087	-0.209
-562.544	-200.000	-0.013	0.328
-561.529	194.641	-0.067	-0.103
-560.515	-75.359	-0.028	-0.010
-559.500	-85.230	-0.450	-0.142
-558.485	800.000	-0.089	-0.334
-557.471	-29.949	0.118	-0.068
-556.456	-200.000	0.078	-0.377
-555.442	-153.823	-0.256	-0.018
-554.427	105.656	0.117	-0.140
-553.412	-123.378	0.260	0.042
-552.398	-200.000	0.006	-0.032
-551.383	668.470	-0.080	-0.210
-550.369	422.473	-0.066	-0.144
-549.354	68.611	0.275	0.285
-548.339	-74.741	-0.041	0.015
-547.325	800.000	-0.064	-0.198
-546.310	-126.086	-0.337	0.051
-545.296	-8.596	-0.246	0.167
-544.281	32.260	0.231	0.202
-543.266	139.495	-0.084	0.112
-542.252	-83.744	-0.263	0.085
-541.237	7.602	0.342	-0.258
-540.223	-47.503	0.246	-0.121
-539.208	512.731	0.054	0.126
-538.193	441.735	-0.028	0.061
-537.179	145.060	-0.150	-0.203
-536.164	36.271	0.116	-0.103
-535.150	266.857	-0.075	-0.132
-534.135	-31.185	0.227	0.129
-533.121	61.787	-0.094	-0.095
-532.106	-200.000	0.044	-0.203
-531.091	-169.989	0.237	0.009
-530.077	-200.000	-0.042	-0.266
-529.062	-200.000	-0.013	0.077
-528.048	142.804	-0.162	-0.218
-527.033	-111.072	0.371	-0.077
-526.018	-200.000	0.027	0.137
-525.004	143.464	-0.126	0.170
-523.989	564.111	0.102	0.249
-522.975	723.918	-0.071	-0.190
-521.960	40.736	0.077	-0.070
-520.945	-86.836	0.388	0.120
-519.931	-133.853	-0.119	0.015
-518.916	134.798	0.099	0.130
-517.902	-110.121	-0.147	0.031
-516.887	-12.145	-0.125	-0.083
-515.872	-162.726	-0.149	0.007
-514.858	800.000	-0.015	0.042
-513.843	340.717	-0.130	-0.256
-512.829	-61.036	-0.196	0.083
-511.814	82.383	-0.094	-0.103
-510.799	-108.278	-0.145	0.032
-509.785	-30.334	0.172	-0.099
-508.770	-28.712	0.083	-0.048
-507.756	2.270	-0.104	0.076
-506.741	280.968	-0.159	-0.287
-505.726	-200.000	0.048	-0.369
-504.712	4.736	0.131	0.097
-503.697	7.393	-0.290	-0.219
-502.683	121.253	0.227	0.285
-501.668	69.539	0.105	-0.109
-500.653	-55.313	-0.181	-0.082
-499.639	-122.455	-0.363	-0.060
-498.624	330.919	-0.047	-0.092
-497.610	-200.000	-0.022	0.167
-496.595	-26.596	0.130	0.077
-495.581	16.240	0.277	0.220
-494.566	800.000	-0.041	0.164
-493.551	-132.426	-0.157	0.020
-492.537	488.498	0.142	0.327
-491.522	-45.246	0.020	0.010
-490.508	-123.275	-0.143	0.023
-489.493	-62.176	-0.219	0.092
-488.478	800.000	-0.090	0.387
-487.464	-95.363	0.093	-0.025
-486.449	-52.531	0.160	0.074
-485.435	-59.425	0.087	-0.038
-484.420	-43.170	-0.184	0.094
-483.405	670.082	0.092	0.240
-482.391	2.729	-0.063	0.046
-481.376	-68.453	0.345	-0.135
-480.362	247.494	0.125	-0.212
-479.347	-200.000	-0.012	0.083
-478.332	800.000	-0.061	0.228
-477.318	-47.238	-0.563	-0.276
-476.303	-54.769	0.130	-0.059
-475.289	68.072	-0.044	-0.045
-474.274	19.097	-0.074	0.060
-473.259	-52.897	0.286	-0.133
-472.245	-72.756	0.080	0.030
-471.230	-200.000	0.007	-0.231
-470.216	762.551	0.075	-0.205
-469.201	293.746	-0.151	0.279
-468.186	-116.223	-0.204	-0.038
-467.172	-190.852	0.216	-0.002
-466.157	800.000	0.080	-0.231
-465.143	-37.563	0.086	-0.046
-464.128	-200.000	-0.018	-0.138
-463.113	800.000	-0.037	-0.164
-462.099	96.662	-0.134	-0.155
-461.084	135.816	0.207	-0.272
-460.070	-74.049	-0.237	0.086
-459.055	-200.000	-0.015	0.214
-458.040	800.000	0.106	0.396
-457.026	225.603	0.080	-0.131
-456.011	362.973	-0.079	-0.160
-454.997	-200.000	0.038	0.269
-453.982	-70.376	-0.184	-0.070
-452.968	-200.000	-0.009	0.055
-451.953	-200.000	0.030	0.350
-450.938	258.436	0.029	0.050
-449.924	-32.861	-0.193	-0.108
-448.909	-200.000	0.015	-0.105
-447.895	-61.899	-0.051	-0.021
-446.880	-57.771	0.210	0.093
-445.865	-200.000	0.110	0.578
-444.851	-88.772	-0.041	-0.012
-443.836	47.900	-0.132	0.124
-442.822	-200.000	0.069	-0.367
-441.807	-74.667	0.175	-0.063
-440.792	-59.932	0.240	-0.103
-439.778	-12.854	-0.174	0.114
-438.763	-65.222	0.196	0.079
-437.749	-25.852	0.166	0.098
-436.734	-79.548	-0.165	0.056
-435.719	104.101	-0.095	0.113
-434.705	800.000	0.039	0.141
-433.690	-38.541	0.210	0.111
-432.676	-200.000	0.014	0.268
-431.661	83.933	0.025	0.027
-430.646	-110.688	-0.072	-0.015
-429.632	800.000	-0.085	0.279
-428.617	-93.213	-0.150	0.042
-427.603	-100.867	0.478	0.118
-426.588	-200.000	-0.030	-0.145
-425.573	-200.000	0.000	0.131
-424.559	-43.997	0.084	0.043
-423.544	343.026	0.097	0.192
-422.530	259.620	0.038	-0.067
-421.515	161.952	0.224	0.315
-420.500	41.160	0.230	0.209
-419.486	-74.688	0.218	-0.079
-418.471	177.786	0.076	-0.111
-417.457	-200.000	0.014	-0.135
-416.442	-146.411	0.288	-0.025
-415.428	-128.600	-0.222	0.032
-414.413	-200.000	-0.181	0.001
-413.398	754.385	-0.052	0.141
-412.384	-178.044	-0.463	0.011
-411.369	800.000	-0.048	-0.154
-410.355	55.563	0.080	-0.078
-409.340	582.231	-0.099	-0.243
-408.325	-26.469	0.249	0.147
-407.311	-27.552	-0.116	-0.068
-406.296	300.756	-0.130	0.240
-405.282	-200.000	-0.041	0.292
-404.267	-200.000	-0.016	0.203
-403.252	259.289	-0.189	0.328
-402.238	209.359	0.115	0.181
-401.223	-167.492	-0.268	-0.011
-400.209	-200.000	0.021	-0.275
-399.194	-6.574	0.209	-0.143
-398.179	-200.000	-0.038	0.436
-397.165	-38.148	-0.005	0.003
-396.150	123.687	-0.119	-0.150
-395.136	328.089	-0.050	0.096
-394.121	-200.000	0.032	0.359
-393.106	158.998	-0.240	0.335
-392.092	-134.318	0.211	-0.026
-391.077	-76.745	0.316	0.111
-390.063	-96.936	0.119	-0.031
-389.048	409.293	0.085	0.181
-388.033	800.000	0.010	0.037
-387.019	-200.000	0.017	-0.311
-386.004	481.515	-0.081	0.184
-384.990	55.283	0.313	-0.304
-383.975	-71.527	-0.163	-0.061
-382.960	53.666	0.130	-0.126
-381.946	151.681	-0.144	0.196
-380.931	131.304	-0.064	-0.083
-379.917	-200.000	0.037	-0.254
-378.902	-85.066	0.316	0.099
-377.888	33.239	0.189	0.164
-376.873	-153.638	-0.160	0.011
-375.858	-200.000	-0.011	0.271
-374.844	-94.179	0.111	0.031
-373.829	-104.153	-0.081	-0.019
-372.815	320.632	0.089	0.170
-371.800	108.140	-0.117	-0.140
-370.785	-200.000	-0.017	-0.159
-369.771	-147.445	-0.211	0.018
-368.756	-106.259	0.219	-0.049
-367.742	-200.000	0.005	0.149
-366.727	771.289	-0.031	0.083
-365.712	9.500	0.214	0.163
-364.698	-164.537	0.301	-0.014
-363.683	-114.740	0.051	0.010
-362.669	221.033	0.082	-0.132
-361.654	-183.485	-0.175	-0.003
-360.639	692.365	-0.113	-0.297
-359.625	-200.000	0.014	-0.306
-358.610	161.738	0.114	-0.160
-357.596	49.571	-0.149	0.140
-356.581	-139.808	0.186	0.020
-355.566	-31.370	0.262	-0.148
-354.552	800.000	0.047	-0.174
-353.537	-200.000	0.001	-0.144
-352.523	85.332	0.380	-0.418
-351.508	-200.000	-0.036	-0.288
-350.493	-200.000	-0.006	-0.034
-349.479	-50.143	0.347	-0.165
-348.464	-36.427	-0.296	0.160
-347.450	62.416	-0.150	0.151
-346.435	-189.975	-0.099	0.001
-345.420	639.672	0.036	-0.091
-344.406	336.428	0.069	-0.135
-343.391	103.180	0.045	-0.053
-342.377	637.118	-0.145	0.369
-341.362	263.370	0.143	0.250
-340.348	-36.929	0.063	0.034
-339.333	329.893	0.057	0.110
-338.318	529.554	-0.014	0.033
-337.304	339.621	-0.025	0.049
-336.289	-126.012	0.107	0.016
-335.275	-102.042	-0.040	0.010
-334.260	-26.486	0.064	-0.038
-333.245	-26.731	-0.259	0.152
-332.231	154.903	0.045	0.062
-331.216	-200.000	-0.097	-0.776
-330.202	215.688	0.127	0.203
-329.187	28.714	0.263	0.223
-328.172	-46.411	-0.278	0.137
-327.158	-99.708	0.264	0.066
-326.143	370.066	0.050	0.102
-325.129	-200.000	-0.064	0.307
-324.114	-200.000	0.040	0.277
-323.099	800.000	0.060	0.226
-322.085	800.000	-0.077	0.258
-321.070	-200.000	-0.002	0.020
-320.056	-200.000	0.018	-0.091
-319.041	454.520	0.082	-0.181
-318.026	-109.310	-0.086	0.018
-317.012	-36.869	-0.318	0.171
-315.997	-133.797	-0.109	-0.014
-314.983	-59.659	0.173	-0.074
-313.968	506.391	-0.071	0.164
-312.953	26.488	-0.214	0.179
-311.939	-90.743	0.259	0.075
-310.924	73.621	0.172	-0.180
-309.910	-78.755	-0.236	-0.081
-308.895	-165.373	0.083	-0.004
-307.880	-200.000	0.025	-0.173
-306.866	30.093	-0.236	0.202
-305.851	204.896	-0.198	0.308
-304.837	376.087	-0.134	0.273
-303.822	-200.000	-0.013	-0.318
-302.807	800.000	-0.086	-0.256
-301.793	275.067	0.167	-0.297
-300.778	281.779	0.104	0.187
-299.764	349.993	0.060	-0.119
-298.749	-79.322	0.083	-0.028
-297.735	32.870	-0.016	-0.014
-296.720	256.418	0.056	-0.096
-295.705	102.957	-0.164	-0.192
-294.691	-73.448	0.215	0.079
-293.676	-200.000	-0.017	-0.216
-292.662	-47.056	0.210	-0.102
-291.647	-97.601	-0.191	-0.049
-290.632	800.000	0.071	-0.264
-289.618	800.000	-0.142	-0.433
-288.603	-30.541	0.187	0.106
-287.589	-200.000	-0.042	-0.217
-286.574	227.341	0.162	-0.263
-285.559	-200.000	0.049	0.239
-284.545	322.433	-0.123	-0.235
-283.530	28.552	0.222	-0.187
-282.516	-54.233	-0.355	-0.161
-281.501	800.000	-0.051	-0.217
-280.486	543.424	0.041	0.099
-279.472	-17.516	0.134	0.084
-278.457	-8.355	0.162	-0.109
-277.443	27.112	-0.064	0.054
-276.428	-130.243	0.328	-0.045
-275.413	-80.725	0.143	0.048
-274.399	17.974	-0.327	0.261
-273.384	271.055	0.099	0.174
-272.370	-200.000	-0.058	-0.329
-271.355	-115.998	0.162	-0.030
-270.340	-24.771	-0.104	0.062
-269.326	154.020	0.126	-0.172
-268.311	-200.000	0.011	-0.103
-267.297	65.155	0.263	0.266
-266.282	800.000	-0.106	0.413
-265.267	800.000	-0.111	0.346
-264.253	-80.685	-0.315	-0.105
-263.238	123.859	0.060	0.075
-262.224	385.885	0.099	0.205
-261.209	510.291	-0.123	0.286
-260.195	-98.838	-0.325	0.083
-259.180	-55.453	0.325	-0.146
-258.165	577.276	-0.089	-0.218
-257.151	369.660	0.141	0.285
-256.136	3.598	-0.278	-0.203
-255.122	800.000	-0.093	-0.259
-254.107	800.000	0.032	-0.103
-253.092	-200.000	0.024	-0.243
-252.078	6.302	0.149	-0.111
-251.063	800.000	0.043	0.159
-250.049	33.832	-0.153	-0.133
-249.034	369.775	-0.117	-0.237
-248.019	107.899	-0.255	-0.304
-247.005	422.052	-0.049	0.104
-245.990	313.653	0.159	0.299
-244.976	6.773	-0.147	-0.109
-243.961	-162.858	0.059	-0.003
-242.946	81.612	-0.225	0.243
-241.932	24.002	0.165	0.136
-240.917	-131.722	0.216	-0.028
-239.903	793.950	-0.044	0.121
-238.888	-21.387	-0.291	0.177
-237.873	156.727	-0.062	-0.086
-236.859	-13.827	0.105	-0.068
-235.844	-97.261	-0.209	-0.054
-234.830	130.210	-0.124	-0.158
-233.815	74.253	-0.197	-0.206
-232.800	-11.638	0.124	-0.081
-231.786	54.067	0.238	0.229
-230.771	-1.166	-0.048	0.034
-229.757	-61.080	0.104	-0.044
-228.742	-200.000	-0.053	-0.325
-227.727	800.000	-0.045	-0.178
-226.713	470.210	-0.134	0.300
-225.698	-200.000	-0.040	0.277
-224.684	-47.824	-0.303	-0.146
-223.669	-54.536	-0.057	0.026
-222.655	-30.092	-0.030	0.017
-221.640	800.000	0.102	-0.402
-220.625	-26.593	-0.209	-0.122
-219.611	15.702	-0.042	-0.033
-218.596	239.602	-0.044	0.073
-217.582	127.366	0.100	0.126
-216.567	-200.000	-0.013	-0.390
-215.552	-106.022	0.328	-0.074
-214.538	-200.000	-0.075	-0.352
-213.523	-200.000	-0.026	0.254
-212.509	-164.099	0.085	0.004
-211.494	-88.971	-0.271	-0.080
-210.479	800.000	0.024	0.077
-209.465	342.814	0.060	-0.118
-208.450	292.626	-0.046	0.084
-207.436	382.828	-0.162	0.331
-206.421	-95.491	0.217	-0.058
-205.406	375.083	-0.084	-0.171
-204.392	-200.000	-0.018	-0.205
-203.377	314.218	0.057	0.107
-202.363	196.636	0.147	0.224
-201.348	86.457	-0.104	0.114
-200.333	27.856	0.093	-0.078
-199.319	-107.054	0.023	0.005
-198.304	416.045	-0.056	0.120
-197.290	-49.487	-0.315	0.150
-196.275	-200.000	0.023	0.238
-195.260	800.000	0.042	0.134
-194.246	79.433	0.183	-0.196
-193.231	281.650	-0.092	-0.164
-192.217	236.267	-0.168	-0.278
-191.202	76.353	0.111	-0.117
-190.187	16.308	-0.143	0.112
-189.173	-164.255	-0.342	0.016
-188.158	-24.829	-0.131	0.078
-187.144	493.606	-0.051	-0.118
-186.129	-11.857	-0.163	-0.106
-185.114	-200.000	0.035	0.227
-184.100	264.185	0.072	0.126
-183.085	-200.000	-0.057	-0.362
-182.071	-19.089	0.042	0.026
-181.056	-77.078	0.041	0.014
-180.042	-51.265	-0.291	-0.136
-179.027	-44.788	-0.049	0.024
-178.012	87.796	-0.094	0.104
-176.998	-92.943	0.162	0.045
-175.983	-8.314	0.114	0.076
-174.969	682.399	-0.011	-0.029
-173.954	553.362	0.113	-0.270
-172.939	625.622	0.137	0.343
-171.925	-97.407	-0.021	0.006
-170.910	105.840	-0.046	0.054
-169.896	5.227	0.262	0.193
-168.881	111.264	-0.117	0.140
-167.866	-200.000	-0.014	-0.181
-166.852	-29.503	0.101	0.057
-165.837	-200.000	0.052	0.276
-164.823	412.451	0.106	-0.225
-163.808	-39.000	-0.291	0.153
-162.793	22.370	-0.301	-0.245
-161.779	-4.748	0.252	0.173
-160.764	-200.000	-0.015	0.255
-159.750	66.440	0.207	0.210
-158.735	800.000	0.028	0.098
-157.720	-124.785	0.209	-0.032
-156.706	-35.687	-0.167	0.090
-155.691	198.964	0.086	-0.131
-154.677	-122.975	0.198	-0.032
-153.662	-190.086	-0.248	0.003
-152.647	22.835	-0.041	0.033
-151.633	-128.583	0.115	-0.016
-150.618	60.379	-0.308	0.303
-149.604	-143.151	0.296	-0.028
-148.589	-200.000	0.051	-0.235
-147.574	175.976	0.090	-0.130
-146.560	-108.923	-0.034	-0.007
-145.545	-15.117	0.047	-0.030
-144.531	-42.236	-0.286	0.146
-143.516	70.704	-0.215	-0.221
-142.502	-151.391	0.055	-0.004
-141.487	-45.421	0.426	0.210
-140.472	800.000	-0.088	0.323
-139.458	693.324	-0.092	-0.241
-138.443	119.862	-0.112	-0.138
-137.429	-29.650	-0.373	0.212
-136.414	-13.484	0.251	0.162
-135.399	25.637	0.038	-0.031
-134.385	1.588	-0.253	0.181
-133.370	408.931	0.235	-0.494
-132.356	-112.244	-0.456	0.091
-131.341	-120.269	0.098	0.017
-130.326	615.825	0.087	0.217
-129.312	-53.775	-0.188	0.086
-128.297	411.768	0.087	-0.183
-127.283	800.000	0.103	0.287
-126.268	30.975	0.081	0.069
-125.253	-98.447	0.142	0.036
-124.239	-79.974	-0.058	0.020
-123.224	-200.000	0.003	0.020
-122.210	-200.000	0.076	0.405
-121.195	800.000	-0.051	0.204
-120.180	741.812	0.041	-0.110
-119.166	-54.942	0.207	-0.093
-118.151	331.907	0.143	-0.274
-117.137	195.298	-0.276	-0.416
-116.122	283.618	0.112	-0.199
-115.107	-137.763	0.102	-0.011
-114.093	-107.804	0.213	0.046
-113.078	-51.527	0.058	0.027
-112.064	89.120	0.123	-0.137
-111.049	-34.009	-0.182	-0.099
-110.034	-58.689	0.188	-0.081
-109.020	136.193	0.201	-0.261
-108.005	500.663	-0.092	-0.211
-106.991	109.340	0.117	0.139
-105.976	223.542	0.132	0.211
-104.962	667.673	-0.167	-0.428
-103.947	-59.996	-0.388	0.165
-102.932	6.540	0.190	0.140
-101.918	-148.461	0.158	-0.013
-100.903	-33.973	-0.292	-0.160
-99.889	-167.145	0.152	-0.006
-98.874	800.000	-0.036	0.106
-97.859	-200.000	-0.014	0.191
-96.845	-200.000	0.005	-0.282
-95.830	656.542	-0.048	-0.123
-94.816	-40.648	0.129	-0.066
-93.801	172.782	0.172	0.247
-92.786	340.431	-0.105	0.203
-91.772	-55.801	0.330	0.146
-90.757	-200.000	-0.002	-0.012
-89.743	290.171	0.022	0.040
-88.728	457.061	-0.009	-0.019
-87.713	-80.859	-0.184	-0.061
-86.699	800.000	-0.032	0.096
-85.684	181.428	-0.120	0.176
-84.670	332.109	0.146	0.279
-83.655	57.136	0.220	-0.212
-82.640	800.000	-0.025	0.097
-81.626	584.811	-0.126	-0.308
-80.611	-200.000	0.012	-0.134
-79.597	800.000	0.040	0.170
-78.582	347.957	0.201	-0.392
-77.567	-186.758	0.261	0.004
-76.553	-200.000	0.002	-0.009
-75.538	-200.000	0.000	0.006
-74.524	800.000	-0.073	-0.302
-73.509	-53.425	-0.223	-0.101
-72.494	16.187	0.184	-0.144
-71.480	279.204	0.089	0.158
-70.465	557.218	-0.179	0.429
-69.451	253.477	0.146	0.247
-68.436	151.858	0.228	0.308
-67.422	-102.899	-0.182	-0.043
-66.407	-200.000	-0.009	-0.367
-65.392	-8.352	0.106	0.071
-64.378	-159.347	-0.250	0.014
-63.363	-61.743	-0.274	0.114
-62.349	145.170	0.223	0.296
-61.334	-13.405	-0.849	-0.546
-60.319	52.948	0.472	0.448
-59.305	560.524	-0.438	-1.048
-58.290	430.869	0.579	1.243
-57.276	800.000	0.571	1.789
-56.261	-200.000	94.614	554.609
-55.246	621.914	1381.528	3447.014
-54.232	187.600	2592.322	3835.298
-53.217	121.222	2187.622	2699.853
-52.203	46.327	1639.975	1506.897
-51.188	38.224	1374.884	1213.225
-50.173	34.883	1331.767	1154.990
-49.159	55.520	1379.941	1324.104
-48.144	59.396	1398.215	1365.406
-47.130	38.658	1352.824	1196.215
-46.115	34.856	1335.326	1157.730
-45.100	34.640	1330.451	1152.156
-44.086	34.648	1327.808	1149.869
-43.071	34.590	1325.766	1147.708
-42.057	34.627	1323.546	1145.961
-41.042	34.480	1321.860	1143.575
-40.027	34.655	1320.175	1143.117
-39.013	34.617	1318.259	1141.188
-37.998	34.506	1316.670	1139.106
-36.984	34.707	1314.444	1138.331
-35.969	34.777	1312.667	1137.165
-34.954	34.771	1311.213	1135.825
-33.940	34.948	1309.270	1135.145
-32.925	34.759	1308.616	1133.410
-31.911	34.972	1306.671	1132.941
-30.896	34.809	1305.651	1131.048
-29.881	34.879	1304.025	1130.012
-28.867	34.837	1302.964	1128.798
-27.852	34.885	1301.319	1127.614
-26.838	34.814	1299.892	1125.912
-25.823	34.916	1298.470	1125.235
-24.809	34.781	1297.627	1123.664
-23.794	34.793	1295.953	1122.245
-22.779	34.837	1294.251	1120.980
-21.765	34.838	1293.233	1120.065
-20.750	34.909	1291.417	1118.860
-19.736	34.713	1291.082	1117.378
-18.721	34.776	1289.182	1116.060
-17.706	34.621	1288.276	1114.324
-16.692	34.721	1286.879	1113.658
-15.677	34.748	1285.817	1112.851
-14.663	34.697	1284.747	1111.581
-13.648	34.744	1283.423	1110.665
-12.633	34.593	1283.061	1109.431
-11.619	34.663	1281.885	1108.776
-10.604	34.702	1280.883	1108.095
-9.590	34.636	1279.844	1106.768
-8.575	34.699	1279.040	1106.391
-7.560	34.723	1278.324	1105.870
-6.546	34.716	1277.142	1104.760
-5.531	34.637	1276.681	1103.860
-4.517	34.617	1275.620	1102.787
-3.502	34.701	1274.597	1102.341
-2.487	34.776	1273.427	1101.720
-1.473	34.763	1269.836	1098.495
-0.458	33.787	1255.483	1080.483
0.556	29.473	1238.459	1044.888
1.571	25.852	1242.733	1027.782
2.586	24.584	1257.449	1032.540
3.600	23.616	1245.849	1017.378
4.615	18.115	1172.974	928.009
5.629	9.291	1095.827	821.961
6.644	5.384	1074.378	786.184
7.659	4.988	1071.389	781.942
8.673	4.985	1070.133	780.940
9.688	4.835	1068.883	779.212
10.702	5.124	1067.286	779.423
11.717	10.325	1075.071	811.147
12.731	17.632	1085.368	855.667
13.746	19.365	1086.170	864.921
14.761	17.942	1084.298	856.226
15.775	16.918	1081.895	849.127
16.790	15.839	1079.612	841.865
17.804	15.055	1078.225	836.790
18.819	14.741	1076.963	834.169
19.834	14.358	1075.917	831.375
20.848	14.138	1075.199	829.647
21.863	13.957	1074.533	828.161
22.877	13.925	1073.717	827.298
23.892	13.754	1073.120	825.912
24.907	13.905	1072.091	825.799
25.921	13.779	1071.263	824.463
26.936	13.905	1069.696	823.810
27.950	14.012	1068.163	823.086
28.965	14.056	1066.451	821.910
29.980	14.102	1064.889	820.862
30.994	14.106	1064.041	820.155
32.009	14.310	1062.613	819.987
33.023	14.209	1061.640	818.668
34.038	14.046	1060.723	817.085
35.053	14.051	1059.389	816.009
36.067	14.044	1058.812	815.461
37.082	14.062	1057.692	814.615
38.096	14.030	1057.483	814.222
39.111	14.154	1056.540	814.031
40.126	14.027	1055.317	812.396
41.140	13.929	1054.017	810.846
42.155	13.843	1052.939	809.524
43.169	13.825	1051.794	808.485
44.184	13.738	1050.973	807.359
45.199	13.717	1049.550	806.092
46.213	13.773	1048.390	805.402
47.228	13.938	1047.437	805.400
48.242	13.918	1046.278	804.339
49.257	13.895	1045.718	803.726
50.271	13.988	1044.929	803.500
51.286	14.020	1043.794	802.710
52.301	13.967	1042.556	801.430
53.315	13.930	1041.726	800.546
54.330	13.925	1040.440	799.461
55.344	13.891	1039.588	798.574
56.359	13.907	1038.370	797.643
57.374	13.756	1038.071	796.619
58.388	13.786	1037.090	795.936
59.403	13.827	1036.536	795.636
60.417	13.742	1035.628	794.467
61.432	13.641	1035.094	793.501
62.447	13.664	1034.119	792.791
63.461	13.606	1033.575	792.030
64.476	13.777	1032.172	791.702
65.490	13.712	1031.569	790.855
66.505	13.712	1030.576	790.024
67.520	13.747	1030.106	789.763
68.534	13.629	1029.590	788.734
69.549	13.665	1028.735	788.180
70.563	13.661	1027.526	787.164
71.578	13.593	1026.930	786.317
72.593	13.608	1026.081	785.667
73.607	13.643	1025.725	785.491
74.622	13.562	1024.957	784.451
75.636	13.624	1023.889	783.857
76.651	13.614	1023.260	783.259
77.666	13.667	1022.893	783.161
78.680	13.590	1022.392	782.344
79.695	13.659	1021.497	781.914
80.709	13.759	1020.939	781.891
81.724	13.761	1020.173	781.244
82.739	13.813	1019.573	780.959
83.753	13.881	1018.868	780.670
84.768	14.004	1017.562	780.178
85.782	14.070	1017.273	780.196
86.797	14.056	1015.923	779.026
87.812	13.897	1015.088	777.574
88.826	13.938	1014.203	777.021
89.841	14.038	1013.004	776.498
90.855	14.089	1012.204	776.055
91.870	14.063	1011.691	775.470
92.884	14.138	1010.628	774.939
93.899	13.966	1010.045	773.623
94.914	14.153	1008.940	773.574
95.928	14.151	1008.070	772.830
96.943	14.074	1007.367	771.867
97.957	14.050	1006.281	770.856
98.972	14.036	1005.329	769.993
99.987	14.175	1004.280	769.766
101.001	14.006	1003.660	768.441
102.016	14.099	1002.806	768.145
103.030	14.065	1002.376	767.594
104.045	13.997	1001.630	766.639
105.060	13.997	1000.592	765.777
106.074	13.887	999.671	764.498
107.089	13.817	998.644	763.322
108.103	13.809	997.568	762.394
109.118	13.840	996.528	761.679
110.133	13.789	996.057	761.017
111.147	13.849	995.245	760.601
112.162	13.850	994.461	759.940
113.176	14.035	993.446	759.943
114.191	14.048	992.980	759.579
115.206	13.933	992.003	758.239
116.220	13.841	991.407	757.298
117.235	13.929	990.271	756.764
118.249	13.826	989.616	755.725
119.264	13.918	988.569	755.278
120.279	13.673	987.982	753.651
121.293	13.785	987.044	753.376
122.308	13.818	986.137	752.765
123.322	13.795	985.340	751.989
124.337	13.801	984.102	751.005
125.352	13.900	983.231	750.718
126.366	13.739	982.333	749.241
127.381	13.841	981.093	748.690
128.395	13.836	980.423	748.090
129.410	13.824	979.221	747.054
130.424	13.841	978.412	746.447
131.439	13.792	977.809	745.698
132.454	13.866	977.575	745.786
133.468	14.036	976.082	745.345
134.483	13.985	975.522	744.624
135.497	14.068	974.177	743.900
136.512	14.026	973.473	743.112
137.527	14.032	972.644	742.439
138.541	14.026	972.017	741.868
139.556	14.035	971.355	741.339
140.570	14.226	970.516	741.482
141.585	14.255	969.298	740.615
142.600	14.212	968.646	739.859
143.614	14.286	967.938	739.581
144.629	14.320	967.374	739.237
145.643	14.333	965.983	738.167
146.658	14.227	965.036	736.909
147.673	14.018	964.155	735.247
148.687	14.050	963.860	735.097
149.702	14.095	962.647	734.308
150.716	14.035	961.963	733.454
151.731	14.052	961.341	732.992
152.746	14.123	960.539	732.626
153.760	14.014	960.075	731.728
154.775	14.103	959.382	731.528
155.789	14.252	958.730	731.621
156.804	14.202	957.673	730.527
157.819	14.237	957.537	730.514
158.833	14.128	957.029	729.583
159.848	14.155	955.896	728.774
160.862	14.322	954.390	728.292
161.877	14.139	953.660	726.869
162.892	14.188	952.595	726.207
163.906	14.003	952.124	724.977
164.921	14.163	950.990	724.748
165.935	14.206	949.855	724.004
166.950	14.167	949.301	723.351
167.964	14.207	948.555	722.892
168.979	14.264	947.377	722.175
169.994	14.172	946.334	720.917
171.008	14.252	946.185	721.089
172.023	14.314	945.530	720.792
173.037	14.387	944.430	720.207
174.052	14.397	943.743	719.661
175.067	14.187	943.107	718.209
176.081	14.156	942.590	717.614
177.096	14.180	942.577	717.647
178.110	14.221	941.386	716.854
179.125	14.287	940.692	716.543
180.140	14.387	940.640	716.870
181.154	14.281	940.241	716.048
182.169	14.472	938.892	715.778
183.183	14.496	939.080	715.962
184.198	14.457	938.176	715.043
185.213	14.436	937.484	714.361
186.227	14.478	936.768	713.933
187.242	14.627	936.122	714.014
188.256	14.691	935.489	713.739
189.271	14.532	934.735	712.424
190.286	14.312	934.044	710.895
191.300	14.227	933.397	709.976
192.315	14.251	932.558	709.379
193.329	14.238	932.110	708.919
194.344	14.345	931.366	708.745
195.359	14.427	930.873	708.656
196.373	14.581	930.159	708.706
197.388	14.596	929.839	708.463
198.402	14.716	929.356	708.541
199.417	14.518	928.815	707.227
200.432	14.696	928.351	707.564
201.446	14.790	927.374	707.153
202.461	14.937	926.869	707.328
203.475	14.777	926.706	706.466
204.490	14.684	925.482	705.076
205.504	14.648	925.103	704.574
206.519	14.662	924.099	703.807
207.534	14.656	923.649	703.375
208.548	14.722	922.900	703.022
209.563	14.755	921.855	702.301
210.577	14.715	921.700	701.952
211.592	14.814	920.730	701.569
212.607	14.820	920.203	701.131
213.621	14.860	919.351	700.584
214.636	14.879	918.266	699.778
215.650	14.887	918.015	699.556
216.665	15.002	917.000	699.201
217.680	14.922	916.738	698.605
218.694	15.036	915.616	698.163
219.709	14.944	915.233	697.426
220.723	14.902	914.778	696.843
221.738	14.792	914.143	695.841
222.753	14.960	913.409	695.920
223.767	14.990	912.579	695.350
224.782	15.090	912.262	695.460
225.796	15.125	911.698	695.115
226.811	15.005	911.179	694.163
227.826	15.061	910.085	693.498
228.840	15.206	909.218	693.375
229.855	15.072	908.420	692.154
230.869	14.990	908.072	691.486
231.884	14.983	907.536	690.989
232.899	15.029	906.294	690.173
233.913	14.887	906.048	689.337
234.928	14.941	904.963	688.675
235.942	15.005	904.539	688.556
236.957	14.880	904.297	687.795
237.972	14.960	903.452	687.419
238.986	14.960	903.119	687.107
240.001	14.978	902.280	686.482
241.015	14.905	901.711	685.685
242.030	14.984	901.080	685.471
243.045	15.125	900.262	685.366
244.059	15.110	900.141	685.150
245.074	15.148	899.448	684.719
246.088	15.333	898.303	684.542
247.103	15.210	898.099	683.823
248.117	15.292	897.514	683.650
249.132	15.419	897.309	683.950
250.147	15.494	896.443	683.538
251.161	15.598	895.772	683.389
252.176	15.557	895.104	682.652
253.190	15.678	894.654	682.737
254.205	15.664	893.654	681.859
255.220	15.600	893.279	681.252
256.234	15.657	892.364	680.725
257.249	15.682	891.798	680.336
258.263	15.610	891.144	679.483
259.278	15.622	890.238	678.783
260.293	15.670	889.895	678.655
261.307	15.790	889.368	678.674
262.322	15.570	888.809	677.303
263.336	15.659	887.999	676.983
264.351	15.757	887.125	676.653
265.366	15.882	886.541	676.650
266.380	15.892	886.068	676.268
267.395	15.782	885.644	675.442
268.409	15.797	884.604	674.651
269.424	15.749	884.100	674.012
270.439	15.721	883.235	673.182
271.453	15.768	882.433	672.699
272.468	15.800	881.830	672.308
273.482	15.808	881.232	671.827
274.497	15.773	880.743	671.252
275.512	15.905	880.438	671.489
276.526	15.910	879.823	670.980
277.541	15.868	879.096	670.199
278.555	15.957	878.527	670.057
279.570	16.084	877.800	669.951
280.585	16.067	876.889	669.126
281.599	15.929	876.368	668.124
282.614	15.946	875.878	667.757
283.628	15.961	875.221	667.258
284.643	15.902	874.767	666.618
285.657	15.937	874.421	666.434
286.672	16.096	873.152	666.037
287.687	16.018	872.804	665.406
288.701	15.992	872.220	664.799
289.716	16.076	871.485	664.508
290.730	16.225	870.718	664.454
291.745	16.141	870.406	663.826
292.760	16.075	869.775	663.026
293.774	16.122	869.521	662.960
294.789	16.188	868.673	662.515
295.803	16.069	868.079	661.535
296.818	16.047	867.262	660.767
297.833	16.306	866.200	660.913
298.847	16.076	866.080	659.864
299.862	16.082	865.321	659.249
300.876	16.258	864.510	659.261
301.891	16.374	863.792	659.109
302.906	16.343	863.704	658.862
303.920	16.341	863.142	658.367
304.935	16.431	862.938	658.505
305.949	16.432	862.027	657.753
306.964	16.462	861.058	657.073
307.979	16.417	860.766	656.618
308.993	16.469	860.506	656.561
310.008	16.460	859.602	655.778
311.022	16.308	859.313	654.912
312.037	16.446	858.409	654.699
313.052	16.244	858.004	653.551
314.066	16.243	857.308	652.958
315.081	16.212	856.952	652.508
316.095	16.412	855.903	652.427
317.110	16.293	855.734	651.779
318.125	16.372	854.829	651.337
319.139	16.353	854.591	651.025
320.154	16.420	853.945	650.732
321.168	16.522	853.165	650.473
322.183	16.419	852.933	649.843
323.197	16.380	852.343	649.186
324.212	16.432	852.204	649.224
325.227	16.470	851.421	648.715
326.241	16.301	850.711	647.468
327.256	16.433	850.036	647.405
328.270	16.506	849.668	647.344
329.285	16.436	848.775	646.341
330.300	16.433	848.301	645.911
331.314	16.509	847.612	645.620
332.329	16.603	847.420	645.775
333.343	16.662	846.872	645.525
334.358	16.680	846.566	645.303
335.373	16.676	845.871	644.703
336.387	16.506	846.040	644.125
337.402	16.644	845.739	644.366
338.416	16.759	845.252	644.372
339.431	16.861	844.849	644.396
340.446	16.824	844.222	643.720
341.460	16.824	844.107	643.576
342.475	16.821	843.629	643.143
343.489	16.982	842.953	643.182
344.504	17.061	842.309	642.932
345.519	16.966	842.644	642.773
346.533	16.961	841.785	642.040
347.548	16.900	841.001	641.156
348.562	16.797	840.545	640.360
349.577	16.753	839.843	639.603
350.592	16.849	839.425	639.592
351.606	16.716	838.728	638.503
352.621	16.964	837.790	638.667
353.635	16.870	837.173	637.784
354.650	16.993	836.389	637.594
355.665	16.963	836.117	637.217
356.679	16.918	835.549	636.560
357.694	16.989	834.927	636.296
358.708	17.001	834.423	635.901
359.723	17.008	833.589	635.234
360.738	16.995	833.273	634.889
361.752	17.027	832.410	634.294
362.767	16.990	832.086	633.855
363.781	17.089	831.550	633.757
364.796	17.207	831.054	633.764
365.810	17.323	830.476	633.701
366.825	17.240	830.506	633.357
367.840	17.442	829.856	633.556
368.854	17.173	829.127	631.944
369.869	17.420	828.647	632.441
370.883	17.337	828.325	631.831
371.898	17.481	828.017	632.075
372.913	17.339	827.638	631.204
373.927	17.302	826.915	630.460
374.942	17.450	826.698	630.786
375.956	17.428	826.378	630.403
376.971	17.420	825.540	629.681
377.986	17.673	824.760	629.963
379.000	17.632	824.393	629.475
380.015	17.582	824.123	629.029
381.029	17.680	823.424	628.803
382.044	17.683	822.701	628.208
383.059	17.601	822.510	627.701
384.073	17.620	821.831	627.199
385.088	17.456	821.272	626.114
386.102	17.351	820.716	625.248
387.117	17.540	819.913	625.272
388.132	17.413	819.469	624.416
389.146	17.569	819.110	624.658
390.161	17.630	818.510	624.368
391.175	17.742	818.040	624.367
392.190	17.607	817.757	623.598
393.205	17.610	817.046	623.015
394.219	17.511	816.834	622.433
395.234	17.474	816.572	622.045
396.248	17.355	815.964	621.091
397.263	17.482	815.538	621.176
398.278	17.519	815.063	620.895
399.292	17.510	814.657	620.497
400.307	17.513	814.588	620.402
401.321	17.611	813.629	619.971
402.336	17.619	813.099	619.544
403.350	17.568	812.773	619.055
404.365	17.817	812.343	619.578
405.380	17.769	812.061	619.133
406.394	17.844	811.400	618.844
407.409	17.923	810.935	618.723
408.423	17.869	810.824	618.388
409.438	17.754	810.346	617.551
410.453	17.939	810.003	617.905
411.467	18.116	809.264	617.925
412.482	17.999	808.755	617.058
413.496	18.065	808.817	617.291
414.511	17.842	808.755	616.383
415.526	18.059	807.951	616.500
416.540	18.074	807.193	615.922
417.555	18.095	806.861	615.690
418.569	18.022	806.573	615.152
419.584	18.142	805.718	614.877
420.599	18.159	805.434	614.668
421.613	152.069	1370.160	1787.780
422.628	131.869	1452.476	1787.873
