DTS Sentinel unit serial number:	SN413079Multiplexer serial number:	ORYXHardware model number:	OX4-SRSoftware version number:	ORYX F/W v4.00 Oryx Data Collector v3.7.2.0data status	okinstallation	princeton_trtdifferential loss correction	single-endedforward channel	channel 1reverse channel	N/Adate	2019/09/12time	20:42:35forward acquisition time	60.00reverse acquisition time	0.00gamma	496.2192k internal	0.2324k external	0.2324temperature offset calibration	1.0143default loss term (dB/km)	0.3790temperature slope calibration	1.0000multiplexer offset coefficient	1.0000multiplexer slope coefficient	1.0000fibre end	0.00T internal ref (°C)	31.09T ext. ref 1 (°C)	3.55T ext. ref 2 (°C)	25.64length (m)	temperature (°C)	Stokes	anti-Stokes-747.200	-52.955	0.369	0.171
-746.185	369.098	-0.130	-0.265
-745.171	800.000	0.084	0.245
-744.156	132.160	-0.181	0.235
-743.142	-121.224	0.205	-0.035
-742.127	10.513	-0.059	-0.046
-741.112	-138.637	0.489	0.054
-740.098	-63.811	-0.117	0.048
-739.083	-137.311	0.318	-0.036
-738.069	763.624	-0.050	-0.137
-737.054	174.906	0.241	0.352
-736.039	22.788	-0.173	-0.143
-735.025	-46.377	0.106	0.052
-734.010	-200.000	0.025	0.229
-732.996	693.031	-0.106	-0.281
-731.981	800.000	-0.081	0.272
-730.966	342.982	0.133	-0.263
-729.952	-32.588	-0.309	0.173
-728.937	-200.000	-0.025	0.168
-727.923	12.542	-0.229	-0.178
-726.908	113.145	-0.151	-0.185
-725.894	-33.672	-0.141	-0.079
-724.879	-31.915	0.266	-0.151
-723.864	182.371	-0.151	0.225
-722.850	-102.223	0.208	0.050
-721.835	0.876	-0.055	-0.040
-720.821	4.920	-0.140	-0.104
-719.806	56.402	0.237	0.232
-718.791	-27.501	0.387	0.227
-717.777	-200.000	0.050	-0.230
-716.762	-166.946	-0.085	0.004
-715.748	-135.180	-0.097	-0.012
-714.733	-200.000	0.042	-0.345
-713.718	183.831	-0.072	-0.107
-712.704	75.935	-0.129	0.137
-711.689	-106.526	-0.278	0.063
-710.675	71.831	0.147	-0.154
-709.660	800.000	0.063	0.267
-708.645	113.988	-0.191	-0.235
-707.631	73.671	-0.062	-0.066
-706.616	-114.390	0.314	-0.061
-705.602	-185.873	-0.219	0.003
-704.587	-121.450	0.120	0.020
-703.572	-9.006	-0.166	-0.112
-702.558	800.000	0.049	0.173
-701.543	337.109	-0.094	0.185
-700.529	33.223	-0.152	0.133
-699.514	-79.939	0.074	0.025
-698.499	-91.866	0.283	-0.081
-697.485	-25.566	-0.097	-0.058
-696.470	741.836	0.056	-0.152
-695.456	148.703	-0.189	-0.257
-694.441	-85.387	0.096	0.030
-693.426	-200.000	-0.056	-0.329
-692.412	155.437	0.128	0.177
-691.397	800.000	0.018	0.054
-690.383	800.000	-0.037	-0.126
-689.368	-200.000	0.041	-0.190
-688.354	300.077	-0.156	-0.290
-687.339	-200.000	0.010	-0.142
-686.324	369.939	-0.131	0.266
-685.310	183.631	0.061	-0.090
-684.295	800.000	0.048	-0.184
-683.281	146.783	-0.110	0.149
-682.266	161.369	0.033	-0.047
-681.251	800.000	-0.076	0.244
-680.237	-200.000	0.060	-0.336
-679.222	-81.072	-0.165	-0.055
-678.208	-157.037	0.328	0.020
-677.193	121.563	0.113	0.142
-676.178	-133.920	-0.062	-0.008
-675.164	-200.000	0.041	0.725
-674.149	-89.552	0.105	-0.031
-673.135	-200.000	0.450	0.000
-672.120	-86.072	-0.058	-0.018
-671.105	33.380	-0.220	0.193
-670.091	-144.373	0.229	-0.021
-669.076	-15.631	-0.201	-0.129
-668.062	650.900	-0.035	-0.091
-667.047	-48.388	0.136	-0.066
-666.032	7.699	-0.010	-0.007
-665.018	151.966	-0.130	-0.179
-664.003	230.999	0.129	0.213
-662.989	-35.263	-0.149	-0.082
-661.974	-14.639	-0.095	0.062
-660.959	-59.423	0.386	-0.167
-659.945	124.422	-0.175	-0.222
-658.930	101.368	-0.004	0.005
-657.916	-134.115	0.058	-0.007
-656.901	-61.910	0.257	0.108
-655.886	210.229	0.084	0.133
-654.872	473.280	0.039	0.089
-653.857	-107.998	0.236	0.052
-652.843	-172.591	-0.159	-0.005
-651.828	36.901	0.239	-0.213
-650.814	101.382	-0.147	0.172
-649.799	6.201	-0.188	0.140
-648.784	163.058	0.178	0.252
-647.770	-200.000	-0.001	-0.017
-646.755	-177.300	-0.293	0.007
-645.741	-200.000	-0.018	-0.177
-644.726	543.531	-0.112	-0.270
-643.711	269.678	0.140	-0.248
-642.697	800.000	0.014	0.049
-641.682	519.382	-0.148	-0.348
-640.668	682.173	-0.158	-0.414
-639.653	113.045	0.024	-0.029
-638.638	491.967	-0.016	-0.037
-637.624	800.000	-0.014	0.052
-636.609	180.420	0.061	0.089
-635.595	-52.489	-0.392	0.182
-634.580	79.062	-0.198	0.213
-633.565	102.122	-0.035	-0.041
-632.551	788.390	-0.070	0.192
-631.536	323.297	0.054	0.104
-630.522	-95.016	-0.366	-0.100
-629.507	192.517	0.114	-0.173
-628.492	92.799	0.321	0.364
-627.478	705.425	0.044	0.116
-626.463	473.761	0.084	0.191
-625.449	-200.000	0.073	0.372
-624.434	135.425	0.197	0.258
-623.419	164.400	-0.153	0.217
-622.405	81.145	0.181	-0.196
-621.390	800.000	0.044	0.185
-620.376	21.898	-0.058	0.048
-619.361	-164.391	0.206	0.009
-618.346	-200.000	0.001	-0.105
-617.332	-200.000	0.013	0.095
-616.317	446.508	0.075	-0.167
-615.303	-167.447	-0.034	-0.001
-614.288	285.165	0.160	0.289
-613.273	465.150	-0.086	-0.193
-612.259	19.329	0.169	-0.137
-611.244	-87.440	-0.082	-0.025
-610.230	-200.000	-0.027	0.159
-609.215	-110.253	0.299	-0.062
-608.201	-200.000	0.005	-0.126
-607.186	-4.132	0.401	0.279
-606.171	165.612	-0.094	-0.133
-605.157	-200.000	-0.019	-0.190
-604.142	800.000	0.038	0.166
-603.128	123.333	-0.109	0.137
-602.113	-31.873	0.247	0.139
-601.098	800.000	-0.118	0.354
-600.084	-29.782	0.179	0.103
-599.069	354.934	-0.156	-0.311
-598.055	-200.000	-0.002	-0.132
-597.040	10.844	-0.107	0.082
-596.025	800.000	0.069	0.231
-595.011	-53.777	0.355	0.162
-593.996	-24.806	0.102	0.061
-592.982	674.374	-0.015	-0.040
-591.967	107.742	0.029	-0.035
-590.952	-200.000	-0.049	0.226
-589.938	64.653	-0.122	0.124
-588.923	689.261	0.059	-0.155
-587.909	-171.509	0.286	0.010
-586.894	-107.429	0.244	0.054
-585.879	-200.000	0.053	0.251
-584.865	-63.595	0.095	0.039
-583.850	-200.000	0.017	-0.235
-582.836	-49.891	-0.173	-0.082
-581.821	-96.618	-0.207	0.055
-580.806	290.093	0.106	0.193
-579.792	27.029	-0.337	0.284
-578.777	-200.000	-0.029	-0.130
-577.763	-95.793	-0.289	0.077
-576.748	259.005	0.120	0.208
-575.733	196.316	-0.102	-0.155
-574.719	282.269	-0.122	-0.219
-573.704	-174.102	0.218	0.006
-572.690	-105.481	0.270	0.061
-571.675	-68.906	0.201	0.078
-570.661	29.131	-0.210	-0.179
-569.646	347.577	-0.081	0.159
-568.631	-0.816	-0.242	0.172
-567.617	3.844	0.128	0.094
-566.602	-94.411	-0.241	-0.066
-565.588	-80.430	0.088	-0.030
-564.573	544.370	-0.172	-0.413
-563.558	-200.000	-0.000	-0.175
-562.544	-17.657	0.179	0.113
-561.529	126.383	-0.079	-0.100
-560.515	253.251	-0.121	-0.208
-559.500	-149.473	0.198	0.016
-558.485	-200.000	-0.003	-0.069
-557.471	-110.950	-0.179	0.037
-556.456	688.094	-0.103	-0.270
-555.442	-132.549	-0.029	-0.004
-554.427	-180.489	-0.141	0.003
-553.412	-164.184	-0.061	0.003
-552.398	-107.258	-0.097	-0.021
-551.383	-25.085	0.170	-0.101
-550.369	-130.041	-0.141	0.019
-549.354	109.550	0.158	-0.190
-548.339	1.940	-0.230	-0.166
-547.325	65.931	-0.130	0.132
-546.310	-112.122	-0.086	-0.017
-545.296	800.000	-0.095	-0.391
-544.281	44.811	0.275	-0.253
-543.266	78.002	0.178	0.190
-542.252	508.068	-0.038	0.089
-541.237	-60.513	-0.268	-0.114
-540.223	-118.701	0.350	0.062
-539.208	-200.000	-0.039	-0.215
-538.193	-31.302	-0.146	-0.082
-537.179	-200.000	-0.036	-0.408
-536.164	-200.000	0.045	0.204
-535.150	-200.000	0.018	0.090
-534.135	32.811	0.181	0.157
-533.121	-200.000	0.051	0.267
-532.106	-11.706	-0.263	0.173
-531.091	214.621	-0.047	-0.075
-530.077	-93.689	-0.093	-0.026
-529.062	522.502	0.143	-0.335
-528.048	800.000	0.039	-0.134
-527.033	-200.000	-0.004	-0.124
-526.018	-2.733	0.118	0.082
-525.004	-106.122	-0.144	0.032
-523.989	76.313	-0.062	-0.065
-522.975	357.096	0.101	-0.201
-521.960	-169.779	-0.154	-0.006
-520.945	-164.072	-0.430	0.020
-519.931	52.302	-0.069	-0.066
-518.916	-10.056	-0.259	0.172
-517.902	39.795	0.127	-0.114
-516.887	322.287	-0.050	0.094
-515.872	-200.000	0.012	0.091
-514.858	-149.947	0.158	-0.012
-513.843	-46.694	-0.131	-0.064
-512.829	-147.653	-0.162	-0.014
-511.814	-34.732	0.095	0.052
-510.799	-2.065	0.298	0.209
-509.785	-83.729	-0.332	0.106
-508.770	-87.024	0.083	0.025
-507.756	-200.000	0.105	-0.000
-506.741	800.000	0.106	0.366
-505.726	-80.176	-0.220	0.074
-504.712	-17.054	-0.325	0.205
-503.697	-83.876	-0.293	0.093
-502.683	113.325	0.202	0.245
-501.668	-157.208	-0.131	-0.008
-500.653	800.000	-0.008	0.028
-499.639	-200.000	0.017	-0.115
-498.624	160.488	0.079	-0.110
-497.610	-74.752	0.127	-0.046
-496.595	82.250	-0.167	0.181
-495.581	-200.000	0.016	-0.101
-494.566	143.376	-0.095	0.127
-493.551	-113.100	0.407	-0.080
-492.537	-200.000	-0.070	-0.351
-491.522	111.763	0.180	-0.217
-490.508	-147.416	-0.247	-0.021
-489.493	25.198	0.176	0.146
-488.478	800.000	-0.055	0.174
-487.464	-200.000	-0.006	0.061
-486.449	-44.180	0.264	0.132
-485.435	-93.362	0.450	0.125
-484.420	-107.353	-0.265	-0.058
-483.405	395.303	-0.066	-0.139
-482.391	21.048	0.192	0.155
-481.376	800.000	0.111	-0.316
-480.362	-110.046	-0.141	-0.029
-479.347	-200.000	0.011	-0.090
-478.332	-100.877	0.052	0.013
-477.318	112.324	0.112	0.135
-476.303	-200.000	0.047	0.246
-475.289	-156.219	0.118	0.007
-474.274	-111.334	0.200	-0.041
-473.259	-27.986	0.135	0.078
-472.245	-200.000	-0.016	-0.279
-471.230	184.434	-0.006	0.009
-470.216	-200.000	-0.014	0.183
-469.201	159.502	0.105	0.145
-468.186	-200.000	-0.069	0.359
-467.172	-76.711	-0.293	0.102
-466.157	96.809	0.089	0.102
-465.143	166.660	-0.255	-0.361
-464.128	-19.958	0.138	0.085
-463.113	800.000	-0.089	0.254
-462.099	-158.800	0.174	-0.010
-461.084	-7.319	0.238	-0.161
-460.070	29.993	0.202	-0.172
-459.055	-89.170	0.140	0.041
-458.040	71.760	0.279	0.290
-457.026	508.367	0.063	0.146
-456.011	736.144	-0.038	0.103
-454.997	-53.878	-0.326	-0.148
-453.982	-200.000	0.000	0.111
-452.968	253.165	-0.072	0.123
-451.953	-200.000	-0.069	-0.328
-450.938	60.023	0.179	0.176
-449.924	-96.876	-0.116	-0.030
-448.909	92.716	-0.236	-0.266
-447.895	800.000	-0.044	0.127
-446.880	-200.000	-0.017	-0.117
-445.865	-65.533	-0.100	-0.040
-444.851	-127.019	-0.214	0.031
-443.836	15.719	0.146	0.115
-442.822	327.803	-0.068	0.129
-441.807	-18.211	0.112	-0.070
-440.792	800.000	0.086	0.309
-439.778	164.149	-0.016	-0.022
-438.763	-97.720	-0.218	0.056
-437.749	800.000	-0.059	-0.255
-436.734	-121.629	-0.124	0.020
-435.719	-36.555	-0.198	-0.106
-434.705	341.215	0.044	0.086
-433.690	-46.203	-0.180	-0.089
-432.676	71.167	0.215	0.223
-431.661	-3.004	0.176	-0.123
-430.646	6.808	0.095	-0.070
-429.632	-200.000	0.004	0.242
-428.617	-35.381	0.159	-0.086
-427.603	208.129	-0.011	-0.017
-426.588	268.671	-0.089	0.156
-425.573	-200.000	0.026	0.251
-424.559	145.850	0.163	0.218
-423.544	191.517	0.124	-0.186
-422.530	-100.702	-0.206	0.051
-421.515	-200.000	-0.013	-0.302
-420.500	-124.567	0.111	0.017
-419.486	-141.124	-0.070	-0.007
-418.471	-99.963	0.285	-0.071
-417.457	-58.508	0.162	0.070
-416.442	800.000	0.093	0.380
-415.428	-200.000	-0.015	-0.156
-414.413	148.799	-0.094	0.126
-413.398	-200.000	0.028	0.221
-412.384	184.000	-0.081	0.119
-411.369	52.163	0.235	-0.223
-410.355	-43.872	0.232	-0.116
-409.340	-200.000	0.086	-0.437
-408.325	-88.717	0.279	0.083
-407.311	-34.511	-0.062	0.034
-406.296	144.816	0.241	0.321
-405.282	421.711	0.131	0.281
-404.267	62.113	-0.092	-0.092
-403.252	-135.231	-0.194	0.023
-402.238	53.329	-0.271	-0.259
-401.223	-105.722	-0.202	-0.046
-400.209	-39.329	-0.125	-0.066
-399.194	-200.000	0.024	0.127
-398.179	-181.263	-0.047	-0.001
-397.165	-90.897	-0.150	-0.043
-396.150	293.517	0.121	-0.220
-395.136	-117.564	-0.302	0.054
-394.121	-66.863	-0.104	-0.041
-393.106	-94.659	0.265	0.072
-392.092	-82.265	0.104	0.034
-391.077	292.443	0.127	-0.231
-390.063	-82.750	0.386	-0.124
-389.048	800.000	-0.073	0.312
-388.033	272.912	0.052	-0.092
-387.019	-116.177	0.207	0.038
-386.004	515.706	0.043	-0.100
-384.990	-64.970	0.379	0.152
-383.975	-200.000	0.042	0.277
-382.960	-200.000	0.033	-0.317
-381.946	173.483	0.248	-0.356
-380.931	6.168	0.211	-0.156
-379.917	158.208	-0.240	-0.331
-378.902	800.000	-0.056	0.189
-377.888	175.936	0.088	-0.127
-376.873	28.235	-0.316	-0.265
-375.858	-16.327	-0.065	-0.041
-374.844	383.201	-0.156	-0.320
-373.829	58.018	0.086	0.083
-372.815	-148.186	0.020	-0.002
-371.800	174.922	0.166	0.240
-370.785	14.347	-0.022	-0.017
-369.771	386.190	-0.085	-0.174
-368.756	36.030	0.283	-0.247
-367.742	-191.096	0.235	-0.002
-366.727	493.445	0.097	-0.222
-365.712	304.179	0.068	0.126
-364.698	-130.349	-0.253	0.034
-363.683	332.834	-0.150	-0.288
-362.669	144.822	-0.027	0.036
-361.654	-44.491	-0.197	0.098
-360.639	-71.382	0.077	-0.029
-359.625	-35.438	-0.163	-0.088
-358.610	40.682	-0.157	-0.141
-357.596	-48.863	-0.044	0.021
-356.581	40.800	-0.183	0.164
-355.566	151.332	0.077	0.104
-354.552	156.179	-0.107	-0.147
-353.537	-50.798	-0.295	0.138
-352.523	800.000	-0.057	-0.162
-351.508	-105.227	-0.071	0.016
-350.493	-59.136	0.146	0.063
-349.479	104.261	-0.142	0.167
-348.464	192.796	0.125	-0.188
-347.450	-17.588	-0.051	-0.032
-346.435	-47.506	0.223	0.108
-345.420	288.431	-0.128	-0.230
-344.406	-131.728	-0.209	-0.027
-343.391	-92.364	-0.124	0.035
-342.377	-200.000	-0.016	0.105
-341.362	-16.276	-0.405	0.255
-340.348	-200.000	-0.008	-0.101
-339.333	45.123	-0.251	0.230
-338.318	128.320	0.074	0.094
-337.304	-200.000	-0.032	-0.150
-336.289	206.216	-0.132	-0.204
-335.275	-55.206	0.178	0.080
-334.260	2.043	-0.155	0.111
-333.245	-200.000	0.012	0.223
-332.231	-85.954	0.336	0.103
-331.216	189.971	-0.107	0.160
-330.202	-143.442	-0.097	-0.009
-329.187	319.072	-0.132	0.248
-328.172	176.479	0.072	-0.104
-327.158	312.607	-0.118	-0.221
-326.143	-145.281	-0.232	0.021
-325.129	-19.708	0.073	-0.045
-324.114	-198.942	-0.271	-0.001
-323.099	50.985	0.177	-0.167
-322.085	-59.433	0.256	-0.109
-321.070	-200.000	0.028	-0.353
-320.056	64.627	0.186	-0.186
-319.041	-139.715	-0.290	0.031
-318.026	-127.152	0.238	-0.035
-317.012	800.000	0.120	-0.460
-315.997	-200.000	0.078	0.350
-314.983	-48.943	0.155	-0.074
-313.968	648.801	0.042	-0.106
-312.953	378.062	-0.045	0.091
-311.939	-18.535	0.276	0.171
-310.924	449.741	0.072	-0.157
-309.910	-88.825	0.483	0.142
-308.895	-176.666	0.507	0.013
-307.880	800.000	-0.024	-0.086
-306.866	115.764	-0.056	-0.068
-305.851	-200.000	0.026	0.454
-304.837	231.523	-0.204	0.332
-303.822	-200.000	0.011	0.083
-302.807	49.977	0.037	0.034
-301.793	172.684	-0.218	0.312
-300.778	-145.903	-0.076	-0.007
-299.764	800.000	-0.116	-0.323
-298.749	-51.113	-0.166	-0.077
-297.735	-70.814	-0.208	-0.078
-296.720	-200.000	-0.015	-0.194
-295.705	800.000	-0.107	0.315
-294.691	177.692	0.165	0.239
-293.676	-120.920	-0.152	0.025
-292.662	800.000	0.049	-0.142
-291.647	-51.954	-0.044	0.020
-290.632	297.997	0.231	0.421
-289.618	-105.792	0.110	-0.025
-288.603	-118.304	0.052	-0.009
-287.589	-89.090	0.216	0.063
-286.574	637.546	-0.130	-0.328
-285.559	-55.837	0.134	0.059
-284.545	71.778	-0.179	-0.185
-283.530	280.386	0.206	-0.366
-282.516	-200.000	0.023	0.296
-281.501	60.264	0.021	-0.020
-280.486	-173.771	0.314	-0.009
-279.472	-109.432	0.108	-0.023
-278.457	515.595	-0.120	0.277
-277.443	800.000	0.050	-0.153
-276.428	-35.748	0.436	-0.234
-275.413	-66.267	0.397	0.156
-274.399	800.000	-0.093	0.256
-273.384	-200.000	-0.003	-0.083
-272.370	23.345	-0.041	-0.033
-271.355	51.690	-0.047	0.044
-270.340	-44.400	-0.260	-0.129
-269.326	-200.000	-0.019	-0.173
-268.311	575.321	-0.021	-0.052
-267.297	60.872	-0.235	-0.231
-266.282	-200.000	-0.026	-0.136
-265.267	-105.910	-0.289	-0.065
-264.253	84.169	0.204	0.221
-263.238	-200.000	-0.023	-0.156
-262.224	-140.592	0.310	-0.032
-261.209	-200.000	0.015	0.101
-260.195	-64.116	0.083	0.034
-259.180	-101.929	0.176	-0.042
-258.165	395.056	0.120	0.248
-257.151	-171.911	0.244	-0.008
-256.136	33.076	0.121	0.104
-255.122	-200.000	0.003	0.326
-254.107	-71.249	0.159	0.059
-253.092	299.939	-0.135	-0.246
-252.078	28.636	-0.201	0.169
-251.063	387.324	-0.074	-0.151
-250.049	361.285	0.131	-0.260
-249.034	800.000	-0.059	-0.197
-248.019	-200.000	0.037	-0.355
-247.005	-97.286	-0.065	-0.017
-245.990	-85.345	0.032	-0.010
-244.976	800.000	-0.044	-0.150
-243.961	-200.000	-0.002	-0.115
-242.946	188.515	-0.192	0.285
-241.932	588.666	0.039	-0.095
-240.917	-8.637	0.075	-0.050
-239.903	72.123	-0.198	0.204
-238.888	105.514	0.221	0.259
-237.873	-200.000	-0.013	-0.185
-236.859	-200.000	0.019	0.232
-235.844	-46.390	0.192	0.093
-234.830	482.623	-0.182	-0.409
-233.815	8.924	-0.189	-0.141
-232.800	-200.000	-0.027	-0.184
-231.786	48.407	-0.301	-0.279
-230.771	8.355	-0.193	0.144
-229.757	734.669	-0.014	0.038
-228.742	800.000	0.040	0.139
-227.727	420.897	0.027	-0.058
-226.713	119.954	0.064	-0.078
-225.698	-91.975	-0.300	-0.084
-224.684	800.000	0.040	-0.161
-223.669	69.463	-0.076	0.078
-222.655	-102.696	-0.165	0.039
-221.640	36.812	-0.107	-0.094
-220.625	-64.749	-0.347	0.139
-219.611	98.805	0.128	-0.146
-218.596	800.000	-0.059	-0.230
-217.582	-200.000	0.013	-0.226
-216.567	-37.267	-0.202	0.107
-215.552	776.326	-0.058	0.157
-214.538	249.467	-0.134	-0.225
-213.523	-14.677	0.047	0.030
-212.509	-5.532	-0.266	-0.180
-211.494	-59.546	-0.196	0.083
-210.479	-82.277	-0.112	0.036
-209.465	23.383	-0.080	-0.065
-208.450	800.000	-0.058	0.177
-207.436	-46.934	0.105	0.051
-206.421	144.695	0.094	0.124
-205.406	65.813	0.147	-0.147
-204.392	-126.196	0.288	-0.043
-203.377	313.108	0.042	0.078
-202.363	-70.510	0.297	-0.111
-201.348	162.177	-0.159	0.220
-200.333	-200.000	0.012	0.095
-199.319	800.000	-0.097	0.322
-198.304	-46.664	0.151	0.073
-197.290	800.000	-0.051	0.193
-196.275	800.000	0.083	-0.235
-195.260	94.588	-0.157	-0.176
-194.246	5.824	0.148	0.108
-193.231	-117.913	0.074	-0.013
-192.217	65.940	-0.147	0.147
-191.202	-104.627	-0.082	-0.019
-190.187	-200.000	-0.057	0.287
-189.173	-21.151	-0.164	-0.099
-188.158	-19.001	-0.091	0.056
-187.144	-200.000	0.000	0.168
-186.129	-200.000	-0.049	-0.307
-185.114	-85.169	-0.088	-0.027
-184.100	437.700	0.116	0.249
-183.085	800.000	-0.024	-0.066
-182.071	-4.004	-0.170	0.116
-181.056	38.472	-0.124	0.109
-180.042	15.150	0.134	-0.104
-179.027	-66.417	0.060	0.024
-178.012	-2.486	0.048	0.033
-176.998	58.350	0.365	-0.354
-175.983	647.331	0.022	-0.056
-174.969	164.987	0.090	0.126
-173.954	-73.461	-0.348	-0.126
-172.939	94.145	-0.210	-0.236
-171.925	104.033	0.104	0.121
-170.910	-200.000	0.040	0.288
-169.896	-200.000	-0.023	0.139
-168.881	88.204	-0.079	0.086
-167.866	274.719	-0.236	-0.413
-166.852	-87.856	-0.085	0.025
-165.837	359.218	-0.059	-0.117
-164.823	-57.944	0.190	0.082
-163.808	107.063	-0.039	0.046
-162.793	800.000	0.077	-0.283
-161.779	-148.057	-0.430	-0.035
-160.764	-200.000	0.020	0.128
-159.750	-27.748	0.222	0.127
-158.735	-187.776	0.273	0.004
-157.720	-120.710	-0.090	0.015
-156.706	180.205	0.148	-0.214
-155.691	533.561	-0.065	-0.153
-154.677	-70.978	-0.245	-0.091
-153.662	41.002	-0.090	-0.080
-152.647	115.421	0.294	0.355
-151.633	-200.000	0.011	0.094
-150.618	-200.000	0.002	-0.201
-149.604	-35.907	0.153	-0.082
-148.589	800.000	0.036	0.104
-147.574	505.039	0.028	0.063
-146.560	425.592	-0.186	0.395
-145.545	289.816	0.198	0.353
-144.531	-20.269	0.148	-0.090
-143.516	-61.503	-0.087	-0.036
-142.502	696.278	0.022	0.057
-141.487	-48.303	0.446	0.212
-140.472	-82.073	-0.436	-0.140
-139.458	-24.178	-0.205	-0.121
-138.443	174.842	0.088	0.126
-137.429	605.069	0.104	0.256
-136.414	-93.491	0.299	-0.082
-135.399	180.865	0.121	-0.175
-134.385	565.203	0.070	0.167
-133.370	-108.917	-0.040	-0.008
-132.356	-0.360	-0.268	-0.188
-131.341	-101.424	-0.224	0.054
-130.326	131.915	-0.096	-0.121
-129.312	244.085	-0.143	-0.237
-128.297	-118.527	0.229	-0.040
-127.283	14.156	0.224	-0.172
-126.268	53.178	-0.300	-0.284
-125.253	-188.548	0.256	0.003
-124.239	83.242	-0.170	0.183
-123.224	-18.710	-0.071	0.044
-122.210	-200.000	-0.002	0.262
-121.195	184.893	0.079	0.115
-120.180	800.000	-0.047	0.188
-119.166	17.682	0.117	0.092
-118.151	161.319	0.234	0.323
-117.137	800.000	-0.060	-0.212
-116.122	373.675	0.044	-0.088
-115.107	-107.358	0.205	0.044
-114.093	22.217	-0.093	0.075
-113.078	-200.000	-0.022	-0.134
-112.064	22.066	-0.149	0.119
-111.049	-200.000	0.036	-0.210
-110.034	-80.341	-0.235	-0.077
-109.020	800.000	-0.095	-0.341
-108.005	218.817	0.131	0.207
-106.991	800.000	0.070	0.268
-105.976	800.000	0.086	-0.299
-104.962	-119.953	0.183	-0.031
-103.947	800.000	0.014	0.041
-102.932	-84.366	0.345	0.107
-101.918	572.861	0.108	-0.260
-100.903	-74.126	-0.191	0.068
-99.889	-200.000	0.029	-0.143
-98.874	-200.000	0.002	0.014
-97.859	-200.000	0.004	-0.202
-96.845	800.000	0.051	0.190
-95.830	800.000	0.076	-0.320
-94.816	-200.000	-0.067	-0.359
-93.801	-100.047	0.171	0.042
-92.786	161.682	0.121	0.166
-91.772	-144.898	0.321	0.029
-90.757	800.000	-0.065	-0.266
-89.743	-38.212	-0.087	0.045
-88.728	800.000	0.036	0.151
-87.713	52.828	0.187	0.176
-86.699	219.853	-0.095	0.149
-85.684	-29.148	-0.113	0.064
-84.670	447.873	0.145	-0.314
-83.655	-200.000	0.023	0.130
-82.640	140.028	0.185	-0.240
-81.626	-179.943	0.136	-0.003
-80.611	121.068	0.217	0.265
-79.597	-99.548	-0.085	0.021
-78.582	303.947	-0.137	-0.250
-77.567	355.700	-0.047	-0.092
-76.553	289.557	0.102	0.183
-75.538	5.826	0.216	0.157
-74.524	-36.910	0.183	-0.096
-73.509	-62.365	-0.047	-0.019
-72.494	131.016	-0.154	0.194
-71.480	800.000	0.040	0.130
-70.465	-115.640	0.311	0.057
-69.451	-114.231	-0.202	0.038
-68.436	800.000	-0.077	-0.282
-67.422	-99.880	0.317	0.078
-66.407	-152.208	-0.194	-0.014
-65.392	-74.380	0.378	0.134
-64.378	-31.954	-0.323	0.178
-63.363	124.240	0.099	0.123
-62.349	-70.275	0.205	0.077
-61.334	294.724	-0.431	-0.774
-60.319	108.952	0.268	0.315
-59.305	800.000	-0.337	-0.956
-58.290	178.834	0.770	1.106
-57.276	279.555	0.895	1.570
-56.261	-200.000	100.741	602.324
-55.246	590.583	1406.531	3408.826
-54.232	193.777	2583.391	3842.318
-53.217	118.250	2129.448	2579.833
-52.203	42.983	1586.118	1420.860
-51.188	34.724	1322.389	1135.720
-50.173	31.447	1281.177	1081.369
-49.159	54.995	1331.555	1263.215
-48.144	56.669	1348.405	1289.003
-47.130	34.786	1305.254	1121.187
-46.115	31.262	1287.553	1085.501
-45.100	31.183	1282.703	1080.910
-44.086	31.007	1280.462	1077.964
-43.071	30.919	1277.901	1075.257
-42.057	30.994	1275.714	1073.807
-41.042	30.978	1273.938	1072.176
-40.027	31.044	1272.743	1071.508
-39.013	31.059	1270.870	1069.975
-37.998	31.010	1269.242	1068.281
-36.984	31.131	1267.506	1067.468
-35.969	31.165	1265.688	1066.092
-34.954	31.151	1264.258	1064.766
-33.940	31.225	1262.711	1063.838
-32.925	31.106	1261.439	1062.051
-31.911	31.248	1259.717	1061.367
-30.896	31.234	1258.622	1060.320
-29.881	31.298	1257.157	1059.407
-28.867	31.257	1255.923	1058.091
-27.852	31.158	1254.593	1056.371
-26.838	31.147	1253.238	1055.123
-25.823	31.164	1251.886	1054.041
-24.809	31.219	1250.396	1053.057
-23.794	31.067	1249.790	1051.645
-22.779	31.275	1247.746	1051.052
-21.765	31.164	1246.616	1049.439
-20.750	31.171	1245.411	1048.421
-19.736	30.944	1244.363	1046.222
-18.721	31.091	1243.209	1046.033
-17.706	31.019	1241.989	1044.564
-16.692	31.006	1240.846	1043.484
-15.677	30.957	1239.631	1042.152
-14.663	30.928	1239.040	1041.451
-13.648	31.045	1237.072	1040.407
-12.633	31.038	1236.458	1039.813
-11.619	31.034	1235.868	1039.252
-10.604	31.107	1234.696	1038.630
-9.590	31.013	1234.063	1037.531
-8.575	31.031	1232.470	1036.254
-7.560	30.982	1232.271	1035.770
-6.546	30.985	1231.382	1034.998
-5.531	30.979	1230.161	1033.900
-4.517	30.978	1229.248	1033.086
-3.502	31.074	1228.744	1033.151
-2.487	31.049	1227.588	1032.000
-1.473	30.942	1223.704	1028.106
-0.458	29.467	1208.886	1007.572
0.556	27.303	1190.667	968.386
1.571	23.427	1195.631	951.579
2.586	22.375	1210.269	957.424
3.600	21.762	1199.325	945.374
4.615	16.515	1128.888	863.066
5.629	7.631	1055.489	764.305
6.644	3.964	1036.006	732.795
7.659	3.576	1033.175	728.893
8.673	3.292	1032.526	727.031
9.688	3.360	1030.953	726.177
10.702	3.814	1029.429	727.177
11.717	9.156	1037.077	757.775
12.731	18.340	1049.300	810.294
13.746	23.151	1055.237	837.643
14.761	23.993	1055.971	842.137
15.775	23.498	1054.823	838.804
16.790	22.930	1053.140	834.709
17.804	22.602	1052.430	832.528
18.819	22.524	1051.608	831.433
19.834	22.525	1051.361	831.169
20.848	22.606	1051.031	831.215
21.863	22.549	1049.992	830.055
22.877	22.454	1049.445	829.099
23.892	22.282	1048.591	827.543
24.907	22.287	1047.542	826.664
25.921	22.152	1046.534	825.163
26.936	22.249	1044.623	824.039
27.950	22.117	1043.454	822.426
28.965	22.204	1042.167	821.744
29.980	22.374	1041.269	821.756
30.994	22.501	1040.379	821.574
32.009	22.567	1039.470	821.091
33.023	22.428	1038.562	819.656
34.038	22.474	1037.229	818.746
35.053	22.346	1036.561	817.551
36.067	22.085	1036.063	815.872
37.082	22.158	1034.967	815.278
38.096	22.285	1034.559	815.470
39.111	22.276	1034.366	815.206
40.126	22.182	1032.461	813.196
41.140	21.878	1030.789	810.402
42.155	21.543	1029.492	807.769
43.169	21.705	1027.973	807.249
44.184	21.579	1027.221	806.008
45.199	21.463	1026.587	804.904
46.213	21.777	1025.734	805.608
47.228	22.243	1025.652	807.614
48.242	22.304	1025.347	807.580
49.257	22.294	1023.608	806.096
50.271	22.355	1023.616	806.311
51.286	22.568	1022.500	806.332
52.301	22.472	1021.725	805.211
53.315	22.296	1020.588	803.441
54.330	22.231	1019.339	802.091
55.344	21.919	1019.310	800.575
56.359	22.071	1017.531	799.796
57.374	21.917	1016.912	798.540
58.388	21.741	1016.050	796.992
59.403	21.534	1015.472	795.525
60.417	21.673	1014.679	795.468
61.432	21.633	1013.826	794.547
62.447	21.607	1013.250	793.906
63.461	21.531	1012.251	792.711
64.476	21.509	1011.077	791.622
65.490	21.424	1010.394	790.631
66.505	21.443	1010.078	790.401
67.520	21.533	1009.278	790.109
68.534	21.503	1008.398	789.216
69.549	21.349	1007.250	787.553
70.563	21.169	1006.590	786.156
71.578	20.887	1005.754	784.164
72.593	20.761	1004.739	782.740
73.607	20.886	1004.193	782.808
74.622	21.158	1003.548	783.456
75.636	21.147	1003.115	782.997
76.651	21.134	1002.503	782.392
77.666	21.210	1002.403	782.584
78.680	21.071	1001.589	781.259
79.695	21.087	1000.548	780.450
80.709	21.393	1000.306	781.562
81.724	21.577	999.814	781.930
82.739	21.768	998.867	781.972
83.753	22.131	999.281	783.846
84.768	22.642	998.494	785.434
85.782	22.820	997.605	785.458
86.797	22.737	997.065	784.596
87.812	22.519	995.982	782.705
88.826	22.493	994.663	781.483
89.841	22.725	994.346	782.194
90.855	22.717	993.717	781.593
91.870	22.699	992.533	780.515
92.884	22.710	991.309	779.531
93.899	22.550	990.791	778.350
94.914	22.665	990.116	778.256
95.928	22.612	989.284	777.301
96.943	22.441	987.932	775.419
97.957	22.443	986.374	774.134
98.972	22.528	986.092	774.217
99.987	22.545	985.562	773.810
101.001	22.422	984.422	772.306
102.016	22.298	983.973	771.342
103.030	22.526	982.909	771.436
104.045	22.545	982.287	770.965
105.060	22.480	981.446	769.952
106.074	22.200	980.500	767.917
107.089	22.068	979.156	766.219
108.103	21.882	977.558	764.094
109.118	21.597	976.649	762.074
110.133	21.306	975.616	759.936
111.147	21.322	974.788	759.295
112.162	21.391	973.881	758.818
113.176	21.468	973.552	758.829
114.191	21.679	973.159	759.373
115.206	21.561	972.743	758.468
116.220	21.494	971.612	757.229
117.235	21.444	970.739	756.266
118.249	21.341	969.470	754.764
119.264	21.192	968.758	753.499
120.279	21.200	967.726	752.667
121.293	21.029	967.279	751.516
122.308	20.980	966.071	750.297
123.322	20.933	964.969	749.173
124.337	20.836	964.197	748.093
125.352	20.942	963.231	747.733
126.366	21.007	962.087	747.057
127.381	21.194	961.362	747.229
128.395	21.180	961.044	746.853
129.410	21.418	959.839	746.870
130.424	21.550	959.253	746.909
131.439	21.757	958.325	747.004
132.454	21.792	957.771	746.654
133.468	21.764	956.838	745.742
134.483	21.810	956.092	745.289
135.497	21.848	955.290	744.758
136.512	21.777	954.725	743.952
137.527	21.859	953.788	743.505
138.541	21.769	953.164	742.573
139.556	21.864	952.778	742.607
140.570	22.288	951.478	743.320
141.585	22.428	951.296	743.705
142.600	22.493	950.671	743.425
143.614	22.691	949.884	743.578
144.629	22.759	949.557	743.542
145.643	22.551	947.869	741.281
146.658	22.290	946.600	739.123
147.673	22.167	945.112	737.382
148.687	22.032	943.966	735.859
149.702	21.839	943.550	734.659
150.716	21.610	942.872	733.106
151.731	21.878	942.150	733.601
152.746	22.049	941.443	733.702
153.760	22.157	941.257	733.944
154.775	21.988	941.067	733.022
155.789	22.255	939.913	733.171
156.804	22.201	939.313	732.414
157.819	22.263	938.788	732.199
158.833	22.494	938.256	732.682
159.848	22.665	937.424	732.677
160.862	22.599	935.943	731.181
161.877	22.023	934.530	727.625
162.892	21.734	933.772	725.772
163.906	21.651	932.400	724.301
164.921	21.673	931.790	723.854
165.935	21.828	930.897	723.736
166.950	21.945	930.109	723.541
167.964	21.989	929.166	722.924
168.979	21.795	927.926	721.098
169.994	21.838	927.066	720.543
171.008	22.116	926.692	721.328
172.023	22.342	926.468	722.020
173.037	22.436	925.972	721.954
174.052	22.244	924.631	720.058
175.067	21.867	923.553	717.612
176.081	21.669	922.862	716.204
177.096	21.473	922.493	715.053
178.110	21.465	921.800	714.418
179.125	21.636	920.949	714.394
180.140	21.798	921.151	715.151
181.154	22.138	920.861	716.245
182.169	22.254	920.586	716.442
183.183	22.318	919.825	716.048
184.198	22.327	918.778	715.205
185.213	22.164	918.602	714.342
186.227	22.377	917.936	714.625
187.242	22.486	916.977	714.259
188.256	22.469	916.632	713.859
189.271	22.621	915.751	713.724
190.286	22.264	914.608	711.326
191.300	21.661	913.529	707.986
192.315	21.384	912.319	705.869
193.329	21.412	912.596	706.134
194.344	21.656	912.168	706.724
195.359	21.841	911.274	706.717
196.373	22.056	911.134	707.408
197.388	22.380	910.743	708.346
198.402	22.729	910.795	709.728
199.417	22.840	910.363	709.776
200.432	22.881	909.814	709.452
201.446	22.881	909.706	709.305
202.461	23.035	908.949	709.268
203.475	22.769	907.758	707.212
204.490	22.371	906.750	704.770
205.504	22.355	905.822	703.920
206.519	22.243	905.614	703.248
207.534	22.312	904.231	702.389
208.548	22.398	904.262	702.696
209.563	22.310	903.827	701.943
210.577	22.345	903.406	701.693
211.592	22.677	902.880	702.545
212.607	22.898	902.406	702.995
213.621	22.854	900.966	701.637
214.636	22.680	900.352	700.405
215.650	22.616	899.617	699.517
216.665	22.668	899.280	699.401
217.680	22.859	898.724	699.663
218.694	22.764	897.822	698.520
219.709	22.572	897.207	697.224
220.723	22.525	896.583	696.489
221.738	22.453	895.833	695.559
222.753	22.441	895.149	694.921
223.767	22.498	895.040	694.999
224.782	22.739	894.543	695.500
225.796	22.912	893.939	695.654
226.811	22.783	892.893	694.270
227.826	22.465	891.974	692.242
228.840	22.262	891.609	691.101
229.855	22.357	890.481	690.541
230.869	22.228	890.305	689.836
231.884	22.292	889.503	689.402
232.899	22.315	888.570	688.710
233.913	22.090	887.989	687.317
234.928	21.945	887.053	685.965
235.942	21.841	886.570	685.124
236.957	21.792	886.463	684.792
237.972	21.731	885.719	683.918
238.986	21.787	885.083	683.583
240.001	21.760	884.310	682.822
241.015	22.067	883.950	683.677
242.030	22.254	883.357	683.886
243.045	22.309	883.041	683.797
244.059	22.252	882.513	683.104
245.074	22.392	882.129	683.289
246.088	22.536	881.553	683.341
247.103	22.756	881.493	684.088
248.117	22.963	880.990	684.441
249.132	23.391	881.229	686.221
250.147	23.714	880.693	686.993
251.161	23.765	879.987	686.579
252.176	23.679	879.699	685.960
253.190	23.798	879.002	685.817
254.205	23.817	878.524	685.456
255.220	23.795	877.295	684.352
256.234	23.704	876.674	683.457
257.249	23.650	875.687	682.419
258.263	23.412	875.415	681.234
259.278	23.444	874.634	680.687
260.293	23.454	874.082	680.234
261.307	23.664	873.953	680.881
262.322	23.748	873.253	680.596
263.336	23.668	872.350	679.528
264.351	23.448	871.601	678.042
265.366	23.558	871.055	677.979
266.380	23.645	870.976	678.187
267.395	23.732	869.786	677.535
268.409	23.531	868.660	675.829
269.424	23.498	868.506	675.525
270.439	23.444	867.503	674.480
271.453	23.313	866.748	673.337
272.468	23.314	866.083	672.763
273.482	23.311	866.043	672.660
274.497	23.159	865.420	671.541
275.512	23.129	864.944	670.997
276.526	23.317	864.192	671.067
277.541	23.501	863.906	671.483
278.555	23.567	863.943	671.700
279.570	23.845	862.928	671.903
280.585	23.883	862.081	671.328
281.599	23.498	861.020	668.990
282.614	23.110	860.507	667.070
283.628	23.162	859.840	666.691
284.643	23.226	859.527	666.630
285.657	23.286	858.452	665.964
286.672	23.208	858.326	665.515
287.687	23.319	857.878	665.524
288.701	23.465	857.149	665.446
289.716	23.449	856.891	665.126
290.730	23.374	855.712	663.875
291.745	23.416	855.428	663.751
292.760	23.533	855.054	663.840
293.774	23.887	854.868	664.960
294.789	23.811	853.999	663.942
295.803	23.621	852.953	662.362
296.818	23.277	852.563	660.716
297.833	23.357	851.569	660.187
298.847	23.268	851.077	659.416
299.862	23.399	850.827	659.651
300.876	23.739	850.335	660.476
301.891	23.870	850.252	660.838
302.906	23.987	849.974	661.000
303.920	24.202	849.524	661.388
304.935	24.287	849.200	661.393
305.949	24.156	848.144	660.028
306.964	23.883	846.888	657.983
307.979	23.808	846.555	657.387
308.993	23.880	846.325	657.416
310.008	23.969	845.667	657.176
311.022	23.874	844.855	656.136
312.037	23.606	844.388	654.726
313.052	23.264	843.631	652.820
314.066	23.097	842.550	651.312
315.081	23.042	842.249	650.818
316.095	23.198	841.830	651.012
317.110	23.067	841.358	650.108
318.125	23.049	840.526	649.340
319.139	22.969	839.289	648.036
320.154	22.909	839.482	647.907
321.168	23.064	838.984	648.031
322.183	23.301	838.462	648.441
323.197	23.345	838.261	648.389
324.212	23.362	837.449	647.763
325.227	23.314	836.685	646.940
326.241	23.089	836.357	645.810
327.256	23.174	835.725	645.573
328.270	23.027	835.454	644.773
329.285	23.062	834.522	644.124
330.300	22.914	833.869	643.022
331.314	23.117	833.450	643.381
332.329	23.499	833.516	644.763
333.343	23.505	833.322	644.581
334.358	23.612	833.138	644.768
335.373	23.676	832.524	644.470
336.387	23.691	832.379	644.355
337.402	23.703	832.339	644.308
338.416	24.068	831.981	645.298
339.431	24.497	831.279	646.252
340.446	24.369	831.527	645.922
341.460	24.333	831.472	645.693
342.475	24.365	830.513	645.007
343.489	24.630	830.510	645.905
344.504	24.760	830.005	645.924
345.519	24.725	829.585	645.415
346.533	24.656	828.518	644.278
347.548	24.375	828.035	642.834
348.562	23.984	827.099	640.643
349.577	23.958	826.037	639.668
350.592	23.669	825.556	638.199
351.606	23.569	824.932	637.303
352.621	23.761	824.144	637.326
353.635	23.809	823.600	637.020
354.650	23.793	823.142	636.555
355.665	23.742	822.549	635.854
356.679	24.091	821.777	636.450
357.694	23.795	821.430	635.068
358.708	23.785	820.933	634.592
359.723	23.832	820.132	634.083
360.738	23.832	819.610	633.626
361.752	23.964	819.018	633.580
362.767	24.416	818.547	634.771
363.781	24.527	818.380	634.977
364.796	24.641	818.481	635.407
365.810	24.858	818.104	635.828
366.825	24.670	817.946	634.980
367.840	24.574	817.161	633.976
368.854	24.416	816.015	632.468
369.869	24.342	815.680	631.893
370.883	24.273	815.427	631.396
371.898	24.529	815.256	632.113
372.913	24.787	814.861	632.664
373.927	24.288	814.410	630.492
374.942	24.401	813.609	630.216
375.956	24.694	813.136	630.828
376.971	24.692	812.922	630.598
377.986	24.985	812.442	631.205
379.000	24.967	812.093	630.814
380.015	25.003	811.229	630.213
381.029	24.991	810.823	629.801
382.044	24.915	810.302	629.072
383.059	25.128	809.900	629.454
384.073	24.813	808.970	627.570
385.088	24.442	808.396	625.768
386.102	24.163	807.347	623.924
387.117	24.067	806.755	623.077
388.132	24.110	806.228	622.766
389.146	24.205	805.474	622.458
390.161	24.552	805.869	623.920
391.175	24.906	805.578	624.875
392.190	24.529	804.358	622.559
393.205	24.279	803.765	621.176
394.219	23.831	803.250	619.161
395.234	23.803	802.540	618.463
396.248	24.030	802.100	618.858
397.263	23.974	801.974	618.513
398.278	23.866	801.509	617.725
399.292	23.653	801.200	616.688
400.307	23.761	800.040	616.118
401.321	23.762	799.729	615.828
402.336	24.121	799.530	616.862
403.350	24.430	799.353	617.742
404.365	24.820	799.043	618.798
405.380	25.015	799.164	619.511
406.394	25.107	798.825	619.511
407.409	25.161	798.513	619.402
408.423	25.222	798.219	619.327
409.438	25.376	797.318	619.104
410.453	25.366	797.066	618.821
411.467	25.301	796.692	618.251
412.482	25.304	796.349	617.941
413.496	25.415	795.719	617.777
414.511	25.374	795.521	617.429
415.526	25.281	794.901	616.575
416.540	25.249	793.976	615.694
417.555	25.183	793.866	615.326
418.569	25.128	793.706	614.959
419.584	25.256	792.716	614.576
420.599	24.945	792.624	613.384
421.613	162.800	1370.568	1795.288
422.628	141.152	1454.758	1795.379
