DTS Sentinel unit serial number:	SN413079Multiplexer serial number:	ORYXHardware model number:	OX4-SRSoftware version number:	ORYX F/W v4.00 Oryx Data Collector v3.7.2.0data status	okinstallation	princeton_trtdifferential loss correction	single-endedforward channel	channel 1reverse channel	N/Adate	2019/09/10time	23:24:11forward acquisition time	60.00reverse acquisition time	0.00gamma	496.2192k internal	0.2331k external	0.2331temperature offset calibration	0.9938default loss term (dB/km)	0.3790temperature slope calibration	1.0000multiplexer offset coefficient	1.0000multiplexer slope coefficient	1.0000fibre end	0.00T internal ref (°C)	29.77T ext. ref 1 (°C)	-0.31T ext. ref 2 (°C)	23.22length (m)	temperature (°C)	Stokes	anti-Stokes-747.200	-122.784	0.208	-0.034
-746.185	-200.000	0.082	0.448
-745.171	16.555	0.330	0.263
-744.156	-197.603	-0.121	-0.001
-743.142	4.559	0.234	0.173
-742.127	82.456	0.124	0.135
-741.112	-36.981	0.165	-0.089
-740.098	-142.546	-0.199	-0.020
-739.083	-34.081	-0.166	0.092
-738.069	-200.000	0.024	0.163
-737.054	-128.930	-0.213	0.030
-736.039	363.676	0.081	-0.165
-735.025	613.997	0.064	0.161
-734.010	392.954	0.029	0.061
-732.996	-32.970	0.459	0.256
-731.981	-5.285	-0.102	-0.071
-730.966	450.506	-0.087	0.194
-729.952	-125.014	-0.133	-0.021
-728.937	-200.000	0.016	0.339
-727.923	-200.000	-0.012	-0.143
-726.908	-15.046	0.108	0.070
-725.894	-200.000	-0.019	-0.196
-724.879	-28.001	0.127	-0.074
-723.864	-10.436	-0.203	-0.135
-722.850	-48.217	-0.111	0.054
-721.835	184.053	-0.191	0.284
-720.821	553.346	0.065	-0.158
-719.806	43.737	-0.119	-0.110
-718.791	608.767	0.053	-0.133
-717.777	349.175	-0.127	0.252
-716.762	-146.910	0.100	-0.009
-715.748	3.780	0.344	0.252
-714.733	613.407	-0.189	-0.475
-713.718	-126.869	0.364	-0.054
-712.704	-133.797	-0.247	-0.031
-711.689	800.000	0.042	-0.138
-710.675	35.631	0.059	-0.052
-709.660	-51.243	-0.175	0.082
-708.645	-160.985	-0.306	-0.016
-707.631	147.488	-0.167	-0.226
-706.616	-77.988	-0.216	0.075
-705.602	-200.000	0.006	0.242
-704.587	-200.000	-0.046	-0.296
-703.572	800.000	-0.050	0.183
-702.558	-200.000	-0.002	-0.028
-701.543	266.421	-0.165	0.290
-700.529	-162.454	0.146	0.007
-699.514	-102.465	-0.118	0.028
-698.499	387.445	-0.113	0.235
-697.485	-87.701	-0.205	0.062
-696.470	800.000	-0.074	-0.302
-695.456	-20.330	0.242	-0.149
-694.441	-23.355	0.334	0.201
-693.426	25.350	0.330	0.275
-692.412	290.069	-0.149	-0.272
-691.397	-154.673	-0.173	-0.012
-690.383	800.000	-0.066	-0.239
-689.368	800.000	-0.061	-0.184
-688.354	-74.813	-0.191	-0.069
-687.339	190.830	0.069	0.104
-686.324	800.000	0.014	0.050
-685.310	-72.579	0.183	-0.068
-684.295	60.392	0.208	-0.207
-683.281	2.824	0.180	0.131
-682.266	-6.327	0.158	0.108
-681.251	-200.000	-0.066	-0.497
-680.237	171.079	-0.151	0.218
-679.222	-85.028	0.324	0.102
-678.208	-200.000	0.028	0.127
-677.193	-91.966	-0.362	0.103
-676.178	-65.025	-0.328	0.133
-675.164	489.002	-0.041	-0.095
-674.149	-123.243	0.040	-0.006
-673.135	123.678	0.177	0.223
-672.120	535.790	0.167	0.398
-671.105	800.000	-0.046	0.194
-670.091	-8.471	0.200	0.135
-669.076	-200.000	-0.008	0.181
-668.062	-200.000	-0.023	-0.172
-667.047	123.448	0.128	-0.161
-666.032	116.627	0.151	-0.185
-665.018	31.957	-0.160	-0.138
-664.003	431.338	0.082	-0.179
-662.989	37.163	-0.266	-0.236
-661.974	-70.307	-0.279	-0.106
-660.959	-124.746	-0.090	-0.014
-659.945	82.813	-0.067	-0.073
-658.930	131.232	0.084	-0.108
-657.916	800.000	-0.031	0.091
-656.901	117.746	-0.070	0.086
-655.886	303.908	-0.107	-0.199
-654.872	115.681	-0.061	0.075
-653.857	800.000	-0.047	-0.140
-652.843	-95.399	0.531	-0.143
-651.828	-200.000	-0.020	-0.162
-650.814	392.856	0.155	-0.323
-649.799	705.365	0.056	-0.148
-648.784	-51.517	-0.105	-0.049
-647.770	-200.000	0.007	-0.039
-646.755	-200.000	0.039	-0.312
-645.741	-97.170	-0.196	0.051
-644.726	-59.784	-0.397	-0.170
-643.711	103.996	0.104	-0.123
-642.697	-76.057	-0.190	-0.067
-641.682	554.240	-0.095	0.229
-640.668	165.677	0.186	-0.264
-639.653	-14.148	-0.118	0.077
-638.638	40.733	0.231	-0.209
-637.624	8.057	-0.138	0.104
-636.609	800.000	0.053	0.209
-635.595	-159.470	-0.271	-0.015
-634.580	-97.648	-0.128	0.033
-633.565	-200.000	0.063	0.293
-632.551	-200.000	-0.003	-0.120
-631.536	159.620	0.141	-0.197
-630.522	-200.000	0.057	-0.334
-629.507	800.000	-0.054	-0.238
-628.492	37.243	0.311	-0.276
-627.478	-119.046	0.179	-0.031
-626.463	394.467	0.133	-0.277
-625.449	-76.227	0.105	0.037
-624.434	-93.595	-0.210	0.058
-623.419	-43.882	0.362	-0.182
-622.405	-14.298	-0.272	0.176
-621.390	-104.017	0.192	-0.045
-620.376	800.000	0.062	-0.179
-619.361	800.000	-0.025	-0.092
-618.346	9.037	0.168	-0.127
-617.332	515.997	-0.124	-0.290
-616.317	-94.512	0.175	-0.048
-615.303	-200.000	0.019	0.124
-614.288	-143.166	-0.240	0.023
-613.273	-200.000	-0.012	-0.091
-612.259	-200.000	0.048	-0.327
-611.244	538.302	0.081	0.193
-610.230	258.124	-0.113	0.195
-609.215	-200.000	0.036	0.208
-608.201	-200.000	-0.067	-0.474
-607.186	-104.171	0.057	-0.013
-606.171	190.125	-0.044	0.066
-605.157	788.049	0.033	0.090
-604.142	-200.000	-0.018	-0.254
-603.128	-26.050	-0.427	-0.252
-602.113	-200.000	-0.026	-0.203
-601.098	-161.872	0.284	0.014
-600.084	-167.274	0.257	0.010
-599.069	-61.006	0.209	-0.088
-598.055	-41.034	0.385	0.199
-597.040	155.908	0.142	0.196
-596.025	-159.035	-0.427	-0.024
-595.011	-6.326	-0.194	-0.132
-593.996	259.361	0.089	0.153
-592.982	93.180	-0.273	-0.309
-591.967	-140.007	-0.272	-0.029
-590.952	348.089	0.040	0.080
-589.938	-200.000	0.005	0.352
-588.923	-200.000	-0.042	-0.000
-587.909	-102.767	0.364	0.087
-586.894	-200.000	0.034	0.256
-585.879	-200.000	0.032	0.318
-584.865	-98.092	0.211	-0.054
-583.850	-46.718	-0.317	-0.155
-582.836	27.612	-0.403	-0.339
-581.821	-169.875	0.235	0.008
-580.806	309.815	-0.108	-0.202
-579.792	-183.409	0.146	-0.003
-578.777	-200.000	0.019	-0.285
-577.763	32.853	0.267	0.231
-576.748	-200.000	0.001	-0.318
-575.733	-200.000	0.013	-0.126
-574.719	-40.176	-0.028	-0.015
-573.704	294.550	-0.090	-0.164
-572.690	-115.362	-0.116	-0.022
-571.675	-200.000	-0.030	0.136
-570.661	69.770	-0.224	-0.231
-569.646	-140.833	-0.277	-0.028
-568.631	-4.179	0.222	0.154
-567.617	692.887	-0.126	-0.330
-566.602	39.793	0.007	0.006
-565.588	6.623	0.405	0.301
-564.573	167.262	-0.214	0.304
-563.558	-71.979	-0.092	-0.034
-562.544	-12.731	0.163	0.106
-561.529	-200.000	0.055	0.318
-560.515	-78.669	0.143	0.049
-559.500	64.461	-0.262	-0.264
-558.485	123.128	0.073	0.092
-557.471	27.729	-0.186	0.157
-556.456	401.782	-0.122	0.255
-555.442	17.652	0.146	0.116
-554.427	432.378	0.113	-0.244
-553.412	233.020	0.135	-0.222
-552.398	-200.000	-0.015	-0.086
-551.383	-25.175	-0.064	-0.038
-550.369	-95.922	0.329	0.088
-549.354	-135.587	0.370	-0.044
-548.339	-13.664	0.198	0.128
-547.325	-200.000	0.031	0.178
-546.310	-79.977	-0.223	-0.075
-545.296	-200.000	0.036	0.176
-544.281	-84.682	0.081	-0.025
-543.266	-82.697	0.180	0.058
-542.252	800.000	0.036	-0.101
-541.237	-200.000	-0.020	-0.137
-540.223	178.797	0.032	0.046
-539.208	-161.871	0.205	0.010
-538.193	800.000	-0.065	-0.268
-537.179	6.448	-0.319	-0.236
-536.164	-200.000	-0.000	0.048
-535.150	-160.370	0.088	0.005
-534.135	800.000	-0.098	-0.408
-533.121	-200.000	-0.022	-0.283
-532.106	-200.000	0.025	-0.296
-531.091	128.720	-0.141	-0.179
-530.077	800.000	0.054	0.184
-529.062	-24.955	-0.207	0.122
-528.048	158.731	0.172	0.238
-527.033	-190.848	-0.154	0.002
-526.018	-35.480	0.076	0.041
-525.004	46.916	0.043	-0.040
-523.989	314.470	-0.196	-0.369
-522.975	13.678	-0.178	-0.138
-521.960	79.510	-0.065	-0.070
-520.945	-106.986	0.189	-0.042
-519.931	39.962	0.314	-0.281
-518.916	-49.019	0.172	0.082
-517.902	-200.000	0.009	-0.053
-516.887	352.579	-0.107	-0.211
-515.872	-200.000	-0.017	0.147
-514.858	-144.397	-0.468	0.043
-513.843	-112.262	-0.352	0.070
-512.829	-200.000	0.002	-0.041
-511.814	-143.560	-0.177	0.017
-510.799	-85.393	-0.115	-0.036
-509.785	-97.309	-0.373	0.097
-508.770	-61.938	-0.195	-0.081
-507.756	-189.077	-0.472	0.006
-506.741	-200.000	-0.070	-0.374
-505.726	-38.781	-0.149	-0.078
-504.712	-72.651	0.280	-0.103
-503.697	-77.169	0.043	0.015
-502.683	273.382	-0.122	0.215
-501.668	-200.000	0.074	-0.338
-500.653	-98.860	-0.045	-0.011
-499.639	-31.138	0.147	0.083
-498.624	111.105	-0.172	0.206
-497.610	29.978	-0.191	-0.162
-496.595	-89.750	-0.230	0.067
-495.581	-69.915	0.132	-0.050
-494.566	-145.550	0.241	-0.022
-493.551	-135.548	0.098	0.012
-492.537	-39.177	-0.226	-0.118
-491.522	-200.000	0.002	-0.124
-490.508	-160.547	0.117	-0.006
-489.493	216.792	0.136	-0.215
-488.478	-200.000	-0.005	-0.295
-487.464	246.167	0.188	0.316
-486.449	235.786	0.068	0.112
-485.435	291.567	-0.091	-0.164
-484.420	11.426	-0.236	0.180
-483.405	-21.250	0.161	-0.098
-482.391	300.567	-0.072	-0.133
-481.376	-47.033	0.296	0.144
-480.362	170.199	-0.050	0.071
-479.347	-200.000	0.033	0.269
-478.332	252.985	0.039	-0.066
-477.318	46.555	-0.079	0.073
-476.303	167.802	0.120	0.170
-475.289	24.108	-0.278	0.228
-474.274	108.180	0.084	-0.100
-473.259	243.849	0.256	-0.428
-472.245	193.821	0.033	-0.050
-471.230	-9.873	-0.135	-0.090
-470.216	-51.349	-0.327	0.152
-469.201	-200.000	0.079	0.500
-468.186	-9.955	0.200	-0.133
-467.172	-152.382	0.246	-0.018
-466.157	-200.000	0.038	-0.223
-465.143	-17.688	-0.083	-0.052
-464.128	-76.907	0.397	0.138
-463.113	72.113	0.124	0.128
-462.099	-80.958	-0.131	0.043
-461.084	800.000	-0.017	-0.073
-460.070	800.000	0.063	-0.189
-459.055	-200.000	0.014	-0.226
-458.040	-91.765	-0.112	0.032
-457.026	-103.588	0.367	-0.086
-456.011	88.746	-0.182	-0.202
-454.997	21.551	0.187	-0.151
-453.982	-200.000	-0.079	0.369
-452.968	349.989	0.042	-0.083
-451.953	-51.195	0.160	0.074
-450.938	-48.493	0.426	0.204
-449.924	-119.876	-0.235	0.040
-448.909	-70.517	-0.112	0.042
-447.895	91.170	0.107	0.120
-446.880	-84.111	0.334	0.105
-445.865	-140.196	-0.111	0.012
-444.851	92.804	-0.064	-0.072
-443.836	70.546	0.146	-0.150
-442.822	-102.221	-0.417	-0.100
-441.807	216.000	0.150	-0.238
-440.792	-150.036	0.075	0.006
-439.778	800.000	-0.081	0.231
-438.763	-162.385	-0.243	-0.012
-437.749	51.195	-0.166	0.157
-436.734	-74.567	0.242	-0.087
-435.719	179.858	0.122	-0.177
-434.705	11.405	0.192	0.146
-433.690	445.064	0.078	-0.170
-432.676	-117.071	0.092	0.017
-431.661	205.802	0.057	0.088
-430.646	-11.927	0.112	-0.073
-429.632	-114.550	-0.373	0.071
-428.617	800.000	-0.064	-0.179
-427.603	-60.615	-0.083	-0.035
-426.588	-200.000	-0.033	0.327
-425.573	192.946	0.131	0.197
-424.559	173.860	0.075	0.107
-423.544	-23.377	0.208	-0.124
-422.530	-66.016	-0.149	-0.059
-421.515	77.468	-0.044	-0.046
-420.500	231.405	-0.177	-0.288
-419.486	-200.000	-0.077	-0.691
-418.471	-59.123	-0.142	0.061
-417.457	-108.516	0.353	-0.076
-416.442	10.145	-0.193	-0.146
-415.428	35.750	0.181	-0.158
-414.413	-144.841	-0.302	0.027
-413.398	-100.180	0.307	0.076
-412.384	-12.828	0.195	0.126
-411.369	72.557	0.100	-0.103
-410.355	-171.251	0.080	0.003
-409.340	-98.587	0.281	-0.071
-408.325	-90.268	-0.232	0.067
-407.311	110.909	-0.251	-0.300
-406.296	85.678	-0.327	-0.357
-405.282	-200.000	-0.046	0.242
-404.267	-40.402	0.213	0.110
-403.252	-200.000	-0.054	0.300
-402.238	-61.750	0.248	0.103
-401.223	52.821	-0.070	-0.067
-400.209	-200.000	-0.032	0.333
-399.194	36.684	-0.064	-0.056
-398.179	743.795	0.056	0.150
-397.165	-67.749	-0.099	0.038
-396.150	-143.023	-0.683	0.066
-395.136	410.209	0.054	-0.115
-394.121	-119.425	0.113	0.019
-393.106	107.743	-0.313	-0.370
-392.092	800.000	0.101	-0.322
-391.077	324.154	0.186	-0.353
-390.063	334.003	-0.115	-0.220
-389.048	-95.585	0.383	0.102
-388.033	-133.270	0.342	0.043
-387.019	-167.378	0.550	0.022
-386.004	-63.209	-0.198	-0.081
-384.990	129.803	0.231	0.293
-383.975	20.539	-0.165	-0.133
-382.960	800.000	-0.033	0.112
-381.946	-86.944	-0.094	-0.028
-380.931	-160.808	-0.102	-0.005
-379.917	366.654	-0.062	0.125
-378.902	-111.414	-0.254	0.051
-377.888	-12.684	0.076	-0.049
-376.873	-200.000	0.041	0.258
-375.858	-80.552	0.155	0.051
-374.844	800.000	0.130	0.355
-373.829	-120.444	0.156	-0.026
-372.815	-165.666	0.114	0.005
-371.800	-200.000	-0.030	-0.219
-370.785	669.372	0.064	-0.164
-369.771	800.000	-0.023	0.092
-368.756	-200.000	-0.001	0.195
-367.742	214.141	0.086	-0.135
-366.727	3.957	0.158	0.115
-365.712	235.286	0.230	0.377
-364.698	800.000	0.074	0.208
-363.683	4.987	-0.198	-0.144
-362.669	-193.450	-0.243	-0.002
-361.654	167.524	-0.178	0.250
-360.639	-200.000	-0.017	0.236
-359.625	-38.486	-0.128	-0.067
-358.610	-70.961	-0.259	0.097
-357.596	100.986	-0.186	0.215
-356.581	122.676	-0.177	0.220
-355.566	-12.527	0.291	0.188
-354.552	800.000	-0.013	-0.054
-353.537	800.000	0.020	0.057
-352.523	178.130	0.038	0.055
-351.508	601.104	0.116	-0.286
-350.493	-135.806	0.389	0.046
-349.479	74.186	0.169	0.176
-348.464	-200.000	-0.074	-0.367
-347.450	-8.618	-0.290	0.193
-346.435	-200.000	-0.013	0.271
-345.420	-14.237	-0.175	-0.112
-344.406	-57.789	-0.102	0.044
-343.391	800.000	-0.082	0.340
-342.377	17.484	0.201	0.158
-341.362	-131.238	-0.273	0.036
-340.348	-200.000	0.020	0.121
-339.333	19.738	-0.090	0.072
-338.318	532.422	0.137	-0.322
-337.304	138.824	-0.253	-0.329
-336.289	-74.065	0.416	-0.149
-335.275	434.504	-0.230	0.494
-334.260	221.498	-0.066	-0.106
-333.245	140.536	-0.188	0.245
-332.231	-119.796	0.296	0.051
-331.216	-40.017	-0.094	0.049
-330.202	-200.000	-0.007	-0.060
-329.187	321.970	-0.080	0.151
-328.172	28.557	-0.344	0.288
-327.158	-46.238	0.165	0.080
-326.143	360.484	-0.204	0.404
-325.129	-142.378	0.213	0.021
-324.114	787.193	-0.046	0.124
-323.099	440.410	-0.011	-0.023
-322.085	223.620	0.191	-0.305
-321.070	174.384	0.100	-0.142
-320.056	-200.000	-0.041	0.233
-319.041	654.813	0.009	-0.023
-318.026	37.424	-0.212	-0.186
-317.012	233.598	-0.245	0.399
-315.997	116.362	-0.344	0.417
-314.983	108.710	-0.205	0.242
-313.968	96.787	-0.111	-0.126
-312.953	-200.000	-0.053	0.357
-311.939	-35.484	-0.301	0.162
-310.924	-110.259	0.323	0.067
-309.910	-141.945	0.440	-0.043
-308.895	230.789	-0.067	-0.108
-307.880	-200.000	0.003	0.025
-306.866	800.000	-0.040	0.157
-305.851	-13.939	0.075	0.048
-304.837	12.687	-0.098	0.075
-303.822	-200.000	0.000	-0.168
-302.807	-200.000	-0.040	-0.216
-301.793	-124.043	-0.201	0.031
-300.778	-65.078	0.265	-0.106
-299.764	-118.912	-0.161	-0.028
-298.749	74.852	0.249	0.259
-297.735	-123.306	0.026	0.004
-296.720	-200.000	0.022	0.137
-295.705	-39.874	-0.167	0.086
-294.691	800.000	0.165	-0.486
-293.676	-200.000	0.002	0.132
-292.662	-200.000	0.324	0.000
-291.647	800.000	0.056	0.208
-290.632	357.878	-0.030	-0.058
-289.618	-4.107	-0.124	-0.085
-288.603	800.000	-0.117	0.320
-287.589	-194.374	-0.076	-0.001
-286.574	800.000	-0.015	0.066
-285.559	98.619	-0.061	0.070
-284.545	571.977	0.067	-0.161
-283.530	137.132	0.074	-0.095
-282.516	163.573	-0.122	0.170
-281.501	-2.742	-0.158	-0.109
-280.486	-72.120	-0.461	0.169
-279.472	-113.820	-0.188	-0.036
-278.457	39.409	-0.097	-0.086
-277.443	-200.000	-0.007	0.122
-276.428	-71.228	-0.100	-0.037
-275.413	792.108	0.099	0.268
-274.399	295.074	0.071	-0.128
-273.384	-95.625	0.498	0.132
-272.370	159.194	0.152	0.209
-271.355	435.655	-0.026	-0.055
-270.340	-33.122	-0.338	0.185
-269.326	70.016	-0.175	0.178
-268.311	164.692	0.081	-0.113
-267.297	356.133	0.098	-0.193
-266.282	-75.651	0.091	0.032
-265.267	196.059	0.134	-0.201
-264.253	-94.387	0.019	0.005
-263.238	205.494	0.153	0.235
-262.224	141.848	-0.285	-0.373
-261.209	-13.009	-0.167	-0.107
-260.195	-24.473	-0.284	0.167
-259.180	-9.564	-0.087	0.057
-258.165	-200.000	0.007	-0.336
-257.151	27.671	0.339	0.282
-256.136	-97.069	-0.253	-0.065
-255.122	393.133	0.091	-0.187
-254.107	128.595	0.211	-0.266
-253.092	492.639	0.186	0.421
-252.078	41.037	-0.055	0.049
-251.063	-200.000	-0.046	0.211
-250.049	-141.900	-0.122	0.012
-249.034	800.000	0.061	-0.245
-248.019	328.337	0.106	0.200
-247.005	33.887	-0.126	-0.109
-245.990	-200.000	0.015	-0.138
-244.976	-81.458	-0.221	-0.072
-243.961	7.252	0.164	-0.121
-242.946	-112.918	0.159	-0.031
-241.932	-48.963	0.358	0.169
-240.917	-200.000	0.055	-0.381
-239.903	-90.027	-0.217	-0.062
-238.888	83.117	-0.092	-0.099
-237.873	211.074	-0.133	0.207
-236.859	-52.494	0.319	-0.146
-235.844	-200.000	-0.062	-0.324
-234.830	32.961	-0.083	-0.071
-233.815	170.809	0.126	-0.178
-232.800	-30.254	-0.082	-0.046
-231.786	-200.000	-0.040	0.207
-230.771	-45.929	-0.312	0.152
-229.757	320.157	0.254	0.476
-228.742	42.992	-0.134	-0.121
-227.727	-200.000	0.056	0.275
-226.713	-8.300	0.064	0.042
-225.698	178.100	-0.085	0.123
-224.684	-200.000	0.000	0.003
-223.669	141.096	-0.054	0.070
-222.655	-86.362	-0.115	0.035
-221.640	-200.000	-0.024	-0.166
-220.625	147.459	0.230	0.305
-219.611	14.713	0.220	0.170
-218.596	-200.000	0.010	-0.216
-217.582	-54.409	0.184	0.082
-216.567	-66.661	-0.130	-0.051
-215.552	135.014	-0.102	-0.131
-214.538	82.704	0.203	0.217
-213.523	1.458	0.115	-0.082
-212.509	-48.599	0.090	-0.043
-211.494	800.000	0.018	-0.071
-210.479	-86.088	0.100	-0.030
-209.465	261.847	-0.145	0.248
-208.450	24.149	0.137	-0.111
-207.436	-46.963	0.103	-0.050
-206.421	308.184	0.087	-0.160
-205.406	707.318	-0.051	0.134
-204.392	146.827	-0.127	0.169
-203.377	-104.209	0.194	0.045
-202.363	106.023	-0.179	-0.209
-201.348	800.000	-0.038	-0.121
-200.333	-200.000	-0.079	0.000
-199.319	-176.174	0.052	0.001
-198.304	-143.018	-0.118	-0.011
-197.290	20.967	-0.128	-0.103
-196.275	-25.586	-0.181	0.105
-195.260	107.934	-0.105	-0.123
-194.246	-119.795	-0.134	0.023
-193.231	277.178	0.145	0.254
-192.217	147.090	-0.225	-0.298
-191.202	404.462	-0.039	0.081
-190.187	300.993	0.139	0.252
-189.173	426.117	0.149	-0.315
-188.158	-33.954	-0.288	0.156
-187.144	728.568	0.007	0.019
-186.129	-60.542	0.389	-0.163
-185.114	-200.000	0.047	-0.215
-184.100	644.524	-0.095	0.238
-183.085	535.406	-0.075	-0.174
-182.071	6.192	0.079	-0.058
-181.056	-133.964	0.368	-0.045
-180.042	-200.000	0.034	0.206
-179.027	-84.865	0.327	-0.101
-178.012	297.208	0.033	0.059
-176.998	-200.000	-0.024	0.393
-175.983	94.039	-0.297	0.331
-174.969	257.237	0.189	-0.320
-173.954	-135.077	-0.125	0.015
-172.939	800.000	0.034	-0.141
-171.925	800.000	-0.114	0.352
-170.910	79.829	-0.298	0.315
-169.896	67.248	0.086	0.086
-168.881	399.170	0.105	-0.217
-167.866	-27.379	0.372	0.213
-166.852	800.000	-0.061	0.223
-165.837	258.495	-0.095	-0.161
-164.823	565.921	0.118	-0.282
-163.808	-84.472	0.107	-0.033
-162.793	432.923	0.125	0.267
-161.779	-63.286	-0.205	0.083
-160.764	50.369	-0.157	0.146
-159.750	-58.951	-0.070	-0.030
-158.735	-84.398	0.338	0.105
-157.720	800.000	0.104	0.391
-156.706	268.441	-0.009	-0.015
-155.691	-47.111	0.304	0.146
-154.677	-55.719	0.029	0.013
-153.662	184.583	-0.127	0.186
-152.647	-26.697	-0.280	-0.161
-151.633	261.636	-0.114	-0.194
-150.618	-135.388	-0.176	-0.021
-149.604	-44.197	0.076	0.038
-148.589	-200.000	-0.026	0.275
-147.574	-78.241	-0.435	0.147
-146.560	133.381	0.012	0.015
-145.545	13.887	-0.025	-0.019
-144.531	89.693	0.141	-0.154
-143.516	19.707	-0.117	0.093
-142.502	-200.000	-0.027	-0.157
-141.487	-5.517	0.096	0.065
-140.472	-91.685	-0.303	0.085
-139.458	800.000	0.112	0.387
-138.443	-43.044	-0.325	0.162
-137.429	-147.918	0.244	0.020
-136.414	-191.799	-0.123	-0.001
-135.399	-200.000	0.015	-0.105
-134.385	-123.584	0.197	-0.031
-133.370	66.111	0.211	0.210
-132.356	-31.583	-0.085	0.047
-131.341	388.744	-0.273	-0.555
-130.326	800.000	0.044	-0.186
-129.312	47.887	0.227	0.208
-128.297	389.116	-0.122	0.249
-127.283	-200.000	0.017	0.464
-126.268	-10.376	-0.207	0.135
-125.253	-175.331	0.121	-0.003
-124.239	58.714	0.139	0.134
-123.224	55.017	-0.110	0.105
-122.210	328.764	-0.125	-0.236
-121.195	196.590	0.097	0.145
-120.180	-200.000	-0.049	0.276
-119.166	-180.879	-0.268	0.005
-118.151	-200.000	0.043	0.252
-117.137	800.000	0.033	-0.103
-116.122	161.093	0.123	-0.169
-115.107	119.842	-0.044	0.053
-114.093	-200.000	0.073	0.356
-113.078	162.480	0.235	0.324
-112.064	718.692	-0.141	0.368
-111.049	199.741	-0.160	0.241
-110.034	31.278	-0.074	-0.062
-109.020	-121.272	-0.305	-0.050
-108.005	297.992	0.091	0.165
-106.991	800.000	-0.056	0.208
-105.976	-56.149	0.115	-0.050
-104.962	-30.953	0.194	0.108
-103.947	-200.000	0.066	0.316
-102.932	55.875	-0.022	0.021
-101.918	-156.816	-0.221	0.013
-100.903	-113.761	0.326	0.062
-99.889	-173.375	-0.279	-0.008
-98.874	-200.000	0.037	0.241
-97.859	26.543	-0.187	0.154
-96.845	-200.000	-0.001	0.007
-95.830	782.334	-0.061	-0.165
-94.816	109.648	-0.029	0.035
-93.801	-28.484	-0.174	-0.098
-92.786	-200.000	-0.027	-0.198
-91.772	-85.329	0.229	-0.070
-90.757	56.463	0.196	-0.187
-89.743	-124.546	-0.124	0.019
-88.728	-36.232	-0.086	-0.046
-87.713	-200.000	-0.018	-0.182
-86.699	265.580	0.104	0.177
-85.684	-32.004	0.267	0.147
-84.670	-200.000	-0.004	-0.033
-83.655	800.000	0.073	-0.226
-82.640	-90.235	0.251	-0.072
-81.626	-93.928	-0.212	-0.057
-80.611	-152.445	0.255	-0.018
-79.597	-200.000	-0.052	0.344
-78.582	800.000	0.102	0.363
-77.567	-200.000	-0.004	0.424
-76.553	-110.822	-0.133	-0.027
-75.538	-63.447	-0.338	-0.136
-74.524	-9.559	-0.178	0.116
-73.509	217.960	-0.077	-0.121
-72.494	800.000	-0.027	-0.078
-71.480	800.000	0.032	0.117
-70.465	-122.602	0.243	0.039
-69.451	-4.069	0.119	0.081
-68.436	-113.500	0.313	-0.060
-67.422	800.000	-0.021	-0.087
-66.407	33.824	0.122	-0.104
-65.392	25.160	-0.153	0.124
-64.378	-156.622	0.205	-0.012
-63.363	-200.000	-0.010	0.105
-62.349	58.047	-0.166	0.159
-61.334	29.127	-1.108	-0.922
-60.319	113.615	0.297	0.354
-59.305	800.000	-0.305	-0.848
-58.290	460.298	0.691	1.508
-57.276	383.032	0.613	1.236
-56.261	-200.000	105.871	617.775
-55.246	517.552	1498.532	3433.973
-54.232	178.187	2689.509	3844.625
-53.217	113.420	2154.230	2561.277
-52.203	41.748	1591.980	1413.192
-51.188	33.245	1327.280	1127.760
-50.173	30.111	1285.788	1074.326
-49.159	54.845	1339.663	1266.294
-48.144	55.152	1355.411	1282.938
-47.130	33.337	1310.274	1113.676
-46.115	29.990	1292.392	1078.971
-45.100	29.726	1287.575	1073.373
-44.086	29.675	1285.035	1070.915
-43.071	29.611	1282.724	1068.577
-42.057	29.695	1280.354	1067.049
-41.042	29.685	1279.059	1065.870
-40.027	29.641	1277.594	1064.353
-39.013	29.582	1276.281	1062.876
-37.998	29.713	1274.507	1062.110
-36.984	29.788	1272.508	1060.834
-35.969	29.836	1270.337	1059.253
-34.954	29.672	1269.035	1057.190
-33.940	29.691	1267.477	1055.956
-32.925	29.888	1266.168	1055.949
-31.911	29.782	1264.854	1054.206
-30.896	29.911	1263.031	1053.379
-29.881	29.885	1261.793	1052.155
-28.867	29.957	1260.000	1051.027
-27.852	29.949	1258.838	1049.971
-26.838	29.898	1257.518	1048.544
-25.823	29.871	1256.345	1047.366
-24.809	29.922	1254.997	1046.494
-23.794	29.818	1254.187	1045.187
-22.779	29.873	1251.997	1043.631
-21.765	30.015	1250.660	1043.275
-20.750	29.787	1249.898	1041.316
-19.736	29.835	1248.558	1040.425
-18.721	29.753	1247.527	1039.066
-17.706	29.678	1246.396	1037.662
-16.692	29.775	1244.969	1036.974
-15.677	29.719	1244.115	1035.909
-14.663	29.682	1242.772	1034.544
-13.648	29.571	1242.292	1033.482
-12.633	29.654	1241.223	1033.013
-11.619	29.678	1240.142	1032.206
-10.604	29.680	1239.527	1031.666
-9.590	29.746	1238.337	1031.004
-8.575	29.669	1237.605	1029.926
-7.560	29.640	1236.596	1028.883
-6.546	29.712	1235.832	1028.607
-5.531	29.632	1235.109	1027.518
-4.517	29.754	1233.977	1027.214
-3.502	29.634	1233.394	1026.023
-2.487	29.676	1232.118	1025.154
-1.473	29.661	1228.185	1021.759
-0.458	28.068	1213.509	1000.796
0.556	22.428	1195.624	962.915
1.571	18.688	1200.626	946.281
2.586	17.934	1215.265	953.526
3.600	17.752	1204.180	943.737
4.615	12.881	1133.980	863.197
5.629	4.074	1060.457	763.880
6.644	-0.033	1040.854	729.782
7.659	-0.350	1038.439	726.490
8.673	-0.441	1037.117	725.058
9.688	-0.416	1035.690	724.119
10.702	-0.051	1034.128	724.719
11.717	5.560	1041.852	757.270
12.731	14.561	1054.316	810.152
13.746	19.106	1059.453	836.158
14.761	19.742	1060.608	840.087
15.775	19.739	1060.211	839.682
16.790	19.426	1059.486	837.516
17.804	19.426	1058.777	836.881
18.819	19.568	1058.489	837.270
19.834	19.631	1057.755	836.917
20.848	19.641	1057.323	836.552
21.863	19.548	1056.823	835.634
22.877	19.441	1056.076	834.449
23.892	19.462	1055.535	834.048
24.907	19.583	1054.444	833.700
25.921	19.607	1053.209	832.765
26.936	19.650	1051.993	831.937
27.950	19.390	1050.792	829.663
28.965	19.344	1048.382	827.467
29.980	19.595	1046.453	827.071
30.994	19.609	1046.104	826.787
32.009	19.553	1045.085	825.642
33.023	19.390	1043.448	823.499
34.038	19.607	1042.693	823.865
35.053	19.607	1042.129	823.348
36.067	19.693	1041.080	822.856
37.082	19.728	1040.592	822.563
38.096	20.041	1039.408	823.043
39.111	19.983	1038.852	822.252
40.126	19.873	1037.249	820.392
41.140	19.418	1035.607	816.864
42.155	19.175	1034.598	814.849
43.169	19.233	1033.437	814.135
44.184	19.387	1031.943	813.610
45.199	19.143	1031.316	811.895
46.213	19.329	1030.273	811.876
47.228	19.464	1028.803	811.283
48.242	19.380	1028.080	810.245
49.257	19.665	1027.141	810.774
50.271	19.590	1026.754	810.044
51.286	19.683	1025.191	809.173
52.301	19.637	1024.875	808.639
53.315	19.515	1023.692	807.063
54.330	19.607	1022.668	806.612
55.344	19.543	1022.304	805.954
56.359	19.591	1021.113	805.169
57.374	19.389	1020.344	803.553
58.388	19.561	1019.548	803.655
59.403	19.467	1018.675	802.457
60.417	19.245	1017.501	800.428
61.432	19.484	1017.136	801.180
62.447	19.537	1016.337	800.727
63.461	19.525	1015.890	800.250
64.476	19.607	1014.365	799.354
65.490	19.407	1013.606	797.764
66.505	19.477	1013.057	797.584
67.520	19.651	1012.321	797.736
68.534	19.253	1011.442	795.136
69.549	18.995	1010.390	793.053
70.563	19.146	1009.536	793.005
71.578	19.076	1008.633	791.902
72.593	18.865	1007.768	790.186
73.607	19.093	1007.394	790.869
74.622	19.330	1006.824	791.440
75.636	19.336	1005.702	790.517
76.651	19.413	1004.354	789.737
77.666	19.183	1004.395	788.649
78.680	19.189	1003.647	788.019
79.695	19.267	1002.999	787.796
80.709	19.386	1002.347	787.759
81.724	19.360	1001.181	786.654
82.739	19.327	1001.070	786.346
83.753	19.582	1000.784	787.214
84.768	19.854	999.569	787.425
85.782	19.925	998.560	786.884
86.797	19.775	997.528	785.320
87.812	19.649	996.724	784.045
88.826	19.901	995.440	784.107
89.841	19.918	994.593	783.450
90.855	19.843	993.962	782.543
91.870	19.844	992.705	781.489
92.884	19.761	991.571	780.154
93.899	19.700	990.719	779.139
94.914	19.857	989.877	779.115
95.928	19.704	988.507	777.282
96.943	19.529	987.793	775.863
97.957	19.249	986.305	773.368
98.972	19.091	985.119	771.663
99.987	19.337	984.999	772.604
101.001	19.587	983.888	772.783
102.016	19.512	983.261	771.885
103.030	19.425	981.813	770.291
104.045	19.307	981.120	769.156
105.060	19.082	980.150	767.325
106.074	19.315	979.474	767.766
107.089	19.762	978.942	769.269
108.103	19.684	977.546	767.757
109.118	19.521	976.060	765.799
110.133	19.487	975.744	765.332
111.147	19.360	974.088	763.405
112.162	19.228	973.210	762.063
113.176	19.256	972.996	761.951
114.191	19.183	971.966	760.755
115.206	19.031	970.752	759.070
116.220	19.132	969.802	758.701
117.235	19.130	969.144	758.111
118.249	19.217	967.787	757.364
119.264	19.153	967.148	756.520
120.279	19.045	966.487	755.461
121.293	19.282	965.720	755.835
122.308	19.135	965.086	754.627
123.322	19.083	963.805	753.327
124.337	19.130	962.286	752.279
125.352	18.603	960.383	748.426
126.366	18.482	959.511	747.154
127.381	19.295	959.161	750.358
128.395	19.525	958.914	751.098
129.410	19.801	957.741	751.312
130.424	19.566	956.935	749.592
131.439	19.583	955.936	748.817
132.454	19.559	954.852	747.798
133.468	19.658	954.108	747.581
134.483	19.725	953.170	747.069
135.497	19.916	952.842	747.568
136.512	19.845	951.836	746.406
137.527	19.836	951.178	745.786
138.541	19.852	950.450	745.217
139.556	19.810	949.583	744.292
140.570	19.834	948.725	743.659
141.585	19.878	947.463	742.791
142.600	19.821	946.373	741.625
143.614	19.952	945.673	741.573
144.629	20.051	945.021	741.423
145.643	19.942	943.847	739.968
146.658	19.862	942.296	738.346
147.673	19.867	940.982	737.270
148.687	19.755	940.512	736.362
149.702	19.653	939.361	734.959
150.716	19.628	938.682	734.260
151.731	19.842	937.793	734.405
152.746	20.004	937.355	734.685
153.760	20.109	936.437	734.349
154.775	20.087	935.803	733.690
155.789	20.006	935.203	732.812
156.804	19.970	934.069	731.706
157.819	19.896	933.622	730.980
158.833	20.131	932.501	731.029
159.848	20.070	931.589	729.994
160.862	19.968	930.595	728.719
161.877	20.077	929.702	728.414
162.892	20.143	928.709	727.850
163.906	20.201	927.476	727.060
164.921	20.077	926.928	726.047
165.935	19.938	926.250	724.871
166.950	20.058	925.043	724.364
167.964	20.017	924.230	723.492
168.979	20.046	923.102	722.667
169.994	19.897	922.066	721.168
171.008	20.078	921.867	721.703
172.023	19.993	920.869	720.506
173.037	19.739	919.413	718.249
174.052	19.723	918.547	717.440
175.067	19.828	918.106	717.467
176.081	19.980	917.105	717.254
177.096	19.806	916.896	716.303
178.110	19.395	916.194	713.991
179.125	19.507	914.764	713.277
180.140	19.581	914.447	713.274
181.154	19.541	914.722	713.258
182.169	19.880	914.146	714.145
183.183	20.058	913.719	714.484
184.198	19.889	912.949	713.121
185.213	19.954	912.051	712.624
186.227	19.982	911.551	712.285
187.242	19.888	910.761	711.220
188.256	20.090	909.717	711.168
189.271	20.064	909.253	710.637
190.286	19.731	907.936	708.183
191.300	19.375	906.460	705.511
192.315	18.648	905.011	701.350
193.329	18.624	904.900	701.105
194.344	19.500	905.005	704.702
195.359	19.990	905.115	706.725
196.373	19.913	904.708	706.030
197.388	19.762	903.998	704.798
198.402	19.785	903.170	704.185
199.417	19.863	902.204	703.689
200.432	19.497	901.315	701.444
201.446	19.439	900.878	700.805
202.461	19.338	900.463	700.011
203.475	18.631	898.293	695.396
204.490	18.074	896.811	691.935
205.504	18.884	897.490	695.679
206.519	19.535	897.348	698.140
207.534	19.633	896.696	697.966
208.548	19.973	896.252	698.931
209.563	19.855	895.429	697.751
210.577	19.678	895.096	696.719
211.592	20.020	894.776	697.784
212.607	20.064	894.033	697.322
213.621	20.107	893.208	696.788
214.636	20.180	892.211	696.241
215.650	20.034	891.773	695.254
216.665	20.134	891.166	695.122
217.680	19.975	890.359	693.790
218.694	19.624	889.134	691.371
219.709	19.573	888.496	690.610
220.723	19.862	888.370	691.606
221.738	19.901	887.662	691.150
222.753	19.842	887.014	690.347
223.767	19.940	886.330	690.144
224.782	20.170	886.018	690.759
225.796	20.251	885.030	690.248
226.811	19.572	883.667	686.428
227.826	18.970	882.765	683.275
228.840	19.051	882.675	683.465
229.855	19.250	881.427	683.227
230.869	18.803	880.597	680.752
231.884	19.449	880.339	683.052
232.899	20.173	880.257	685.792
233.913	20.005	879.568	684.530
234.928	19.882	879.232	683.725
235.942	19.878	878.517	683.092
236.957	19.663	877.681	681.532
237.972	19.523	877.321	680.639
238.986	19.837	876.241	680.980
240.001	19.708	875.593	679.906
241.015	19.824	874.972	679.822
242.030	19.761	874.620	679.241
243.045	20.112	874.091	680.146
244.059	20.134	873.378	679.619
245.074	19.922	872.476	678.026
246.088	19.648	871.574	676.193
247.103	19.877	870.963	676.553
248.117	20.225	871.352	678.157
249.132	20.503	870.698	678.675
250.147	20.587	869.819	678.256
251.161	20.788	869.435	678.681
252.176	20.639	868.722	677.483
253.190	20.743	868.558	677.700
254.205	21.077	867.740	678.303
255.220	20.817	867.226	676.829
256.234	20.716	866.093	675.494
257.249	20.617	865.514	674.600
258.263	20.735	864.819	674.454
259.278	20.638	864.422	673.707
260.293	20.662	863.790	673.251
261.307	20.678	863.069	672.689
262.322	20.372	862.072	670.671
263.336	19.595	859.662	665.745
264.351	18.541	858.403	660.649
265.366	18.808	858.122	661.403
266.380	20.039	858.318	666.234
267.395	20.340	858.149	667.200
268.409	20.472	857.410	667.073
269.424	20.581	856.985	667.101
270.439	20.439	856.346	666.000
271.453	20.611	856.273	666.545
272.468	20.709	855.803	666.498
273.482	20.882	855.246	666.666
274.497	20.368	853.965	663.642
275.512	20.048	852.831	661.484
276.526	20.527	853.163	663.509
277.541	20.669	852.368	663.376
278.555	20.427	851.138	661.438
279.570	20.158	850.874	660.151
280.585	20.553	849.811	660.768
281.599	20.472	849.069	659.824
282.614	20.003	847.627	656.867
283.628	19.961	847.506	656.557
284.643	20.160	847.342	657.126
285.657	19.796	846.475	655.016
286.672	19.578	845.458	653.348
287.687	20.253	845.318	655.732
288.701	20.199	844.918	655.161
289.716	19.962	843.878	653.401
290.730	19.744	843.498	652.230
291.745	19.626	842.279	650.782
292.760	19.937	841.932	651.629
293.774	20.843	842.244	655.221
294.789	21.239	841.549	656.110
295.803	21.058	842.034	655.751
296.818	21.247	840.755	655.408
297.833	20.893	839.696	653.197
298.847	20.586	839.063	651.495
299.862	21.076	838.733	653.015
300.876	21.195	838.536	653.248
301.891	20.905	838.033	651.715
302.906	20.539	836.878	649.393
303.920	20.642	836.709	649.588
304.935	21.073	835.896	650.509
305.949	20.968	835.640	649.861
306.964	20.893	834.946	648.985
307.979	20.982	834.372	648.810
308.993	21.150	834.468	649.453
310.008	21.115	833.438	648.464
311.022	20.980	832.722	647.348
312.037	20.908	832.094	646.535
313.052	20.824	831.132	645.419
314.066	19.980	829.806	641.211
315.081	19.724	829.210	639.746
316.095	20.309	829.914	642.397
317.110	20.795	829.465	643.791
318.125	20.138	827.522	639.800
319.139	19.208	826.330	635.394
320.154	19.178	826.242	635.160
321.168	19.933	826.401	638.009
322.183	20.610	826.388	640.438
323.197	20.779	826.040	640.731
324.212	20.865	825.821	640.822
325.227	21.035	825.039	640.785
326.241	20.894	824.478	639.773
327.256	20.778	823.617	638.622
328.270	20.717	823.246	638.056
329.285	20.463	822.277	636.317
330.300	20.498	821.263	635.603
331.314	20.670	821.126	636.073
332.329	20.939	820.786	636.736
333.343	21.064	820.317	636.772
334.358	21.113	820.066	636.699
335.373	21.084	819.700	636.254
336.387	21.414	819.788	637.467
337.402	21.293	819.800	636.981
338.416	21.225	819.175	636.190
339.431	21.437	818.660	636.506
340.446	21.564	818.160	636.523
341.460	21.453	817.632	635.650
342.475	21.317	816.915	634.544
343.489	21.419	817.094	634.996
344.504	21.613	816.523	635.199
345.519	21.561	816.813	635.182
346.533	21.706	816.062	635.066
347.548	21.664	815.444	634.377
348.562	21.729	815.113	634.299
349.577	21.833	814.342	634.019
350.592	21.782	813.523	633.143
351.606	21.893	812.667	632.821
352.621	21.679	811.828	631.338
353.635	21.593	811.279	630.547
354.650	20.881	809.784	626.769
355.665	20.012	808.541	622.627
356.679	20.489	808.102	623.949
357.694	20.862	807.757	624.967
358.708	20.877	807.205	624.537
359.723	21.168	807.022	625.384
360.738	21.528	806.864	626.493
361.752	21.511	806.197	625.858
362.767	21.801	805.891	626.604
363.781	21.824	805.685	626.470
364.796	22.144	805.033	627.051
365.810	22.046	804.704	626.390
366.825	22.115	804.063	626.080
367.840	21.886	803.207	624.545
368.854	21.422	802.753	622.482
369.869	21.592	802.167	622.576
370.883	21.617	801.717	622.261
371.898	21.416	801.253	621.135
372.913	21.502	801.189	621.334
373.927	21.636	801.111	621.695
374.942	21.845	800.204	621.678
375.956	21.859	799.788	621.347
376.971	21.894	799.443	621.151
377.986	22.012	799.235	621.351
379.000	21.948	798.692	620.646
380.015	21.992	797.605	619.903
381.029	22.043	797.207	619.720
382.044	22.087	796.812	619.510
383.059	21.959	796.406	618.689
384.073	22.140	795.990	618.951
385.088	22.070	795.426	618.210
386.102	21.916	794.453	616.859
387.117	21.877	794.296	616.545
388.132	21.519	792.554	613.882
389.146	21.197	791.695	612.033
390.161	21.332	792.020	612.704
391.175	21.772	791.716	613.956
392.190	21.484	791.167	612.467
393.205	20.195	788.875	606.137
394.219	18.964	787.199	600.501
395.234	18.941	787.148	600.328
396.248	20.604	788.242	606.919
397.263	21.945	788.991	612.121
398.278	21.753	788.687	611.163
399.292	21.610	787.746	609.881
400.307	21.647	787.328	609.633
401.321	21.674	786.975	609.398
402.336	22.015	786.781	610.379
403.350	22.315	786.932	611.487
404.365	22.569	786.801	612.214
405.380	22.631	786.092	611.821
406.394	22.887	785.594	612.269
407.409	22.608	785.396	611.094
408.423	22.729	784.514	610.772
409.438	22.772	784.508	610.863
410.453	22.850	784.044	610.717
411.467	22.745	783.577	609.935
412.482	22.699	783.056	609.317
413.496	22.897	782.539	609.543
414.511	22.742	782.437	608.876
415.526	22.734	781.823	608.317
416.540	22.638	781.141	607.400
417.555	22.265	780.695	605.715
418.569	22.303	780.201	605.410
419.584	22.364	779.384	604.934
420.599	22.246	779.056	604.218
421.613	159.144	1362.131	1798.195
422.628	137.548	1447.076	1798.281
