DTS Sentinel unit serial number:	SN413079Multiplexer serial number:	ORYXHardware model number:	OX4-SRSoftware version number:	ORYX F/W v4.00 Oryx Data Collector v3.7.2.0data status	okinstallation	princeton_trtdifferential loss correction	single-endedforward channel	channel 1reverse channel	N/Adate	2019/09/17time	20:14:35forward acquisition time	60.00reverse acquisition time	0.00gamma	496.2192k internal	0.2328k external	0.2328temperature offset calibration	0.9978default loss term (dB/km)	0.3790temperature slope calibration	1.0000multiplexer offset coefficient	1.0000multiplexer slope coefficient	1.0000fibre end	0.00T internal ref (°C)	31.92T ext. ref 1 (°C)	0.23T ext. ref 2 (°C)	22.18length (m)	temperature (°C)	Stokes	anti-Stokes-747.200	125.404	0.251	0.319
-746.185	46.603	-0.210	-0.196
-745.171	-92.695	-0.165	0.047
-744.156	800.000	-0.057	0.247
-743.142	800.000	-0.039	-0.153
-742.127	-200.000	0.020	0.129
-741.112	329.915	0.058	0.112
-740.098	800.000	-0.104	0.455
-739.083	427.462	0.155	-0.337
-738.069	-83.052	-0.364	0.118
-737.054	-92.896	0.601	0.169
-736.039	-1.802	-0.234	-0.166
-735.025	-200.000	0.042	-0.232
-734.010	-23.316	-0.197	-0.120
-732.996	-200.000	-0.026	-0.217
-731.981	473.346	-0.123	-0.279
-730.966	34.442	0.062	-0.054
-729.952	-200.000	-0.056	0.482
-728.937	109.429	-0.113	-0.136
-727.923	-137.226	-0.157	0.018
-726.908	-174.301	-0.187	-0.005
-725.894	56.392	-0.166	0.162
-724.879	-8.502	-0.253	-0.171
-723.864	-68.334	0.183	-0.071
-722.850	567.113	-0.091	0.223
-721.835	90.669	0.171	0.193
-720.821	234.902	-0.141	-0.234
-719.806	-59.955	0.087	0.037
-718.791	-33.493	-0.063	-0.035
-717.777	-67.175	-0.082	0.033
-716.762	9.912	-0.097	0.074
-715.748	281.089	0.105	-0.189
-714.733	-195.969	-0.174	0.001
-713.718	2.884	-0.189	-0.138
-712.704	419.455	0.116	-0.251
-711.689	-56.934	-0.198	-0.088
-710.675	-136.984	0.138	0.016
-709.660	520.607	0.042	-0.099
-708.645	-42.058	0.127	0.065
-707.631	8.632	-0.072	0.055
-706.616	-173.597	-0.378	-0.011
-705.602	-172.994	-0.379	0.012
-704.587	-134.095	0.330	0.041
-703.572	-200.000	0.016	0.080
-702.558	-19.984	-0.178	-0.110
-701.543	800.000	-0.059	-0.175
-700.529	208.046	0.076	0.120
-699.514	57.660	0.212	0.208
-698.499	472.232	0.072	0.163
-697.485	-152.785	-0.099	-0.007
-696.470	45.483	-0.115	-0.106
-695.456	509.604	0.101	0.236
-694.441	23.420	-0.021	-0.017
-693.426	-136.666	-0.300	-0.035
-692.412	151.588	0.161	0.221
-691.397	43.585	0.217	-0.199
-690.383	210.049	0.085	-0.135
-689.368	-200.000	-0.007	0.207
-688.354	72.062	0.181	-0.190
-687.339	66.631	-0.117	-0.120
-686.324	-200.000	0.026	-0.131
-685.310	-36.517	0.207	0.112
-684.295	-95.127	-0.057	0.015
-683.281	-6.129	-0.158	-0.109
-682.266	448.640	0.111	-0.246
-681.251	193.971	-0.128	0.195
-680.237	-168.742	0.139	-0.005
-679.222	322.672	-0.075	-0.144
-678.208	-200.000	0.070	-0.420
-677.193	-188.696	-0.117	-0.001
-676.178	-200.000	-0.046	0.208
-675.164	-149.978	-0.254	-0.020
-674.149	37.926	0.312	-0.279
-673.135	800.000	-0.040	0.143
-672.120	-200.000	0.034	-0.227
-671.105	-159.615	-0.301	-0.017
-670.091	670.842	-0.135	-0.351
-669.076	39.144	-0.196	0.176
-668.062	-200.000	0.025	-0.146
-667.047	-122.537	0.140	0.023
-666.032	-80.811	-0.255	0.085
-665.018	3.828	-0.130	-0.095
-664.003	97.791	0.145	-0.168
-662.989	19.848	-0.173	0.140
-661.974	800.000	0.056	0.176
-660.959	280.141	0.146	0.262
-659.945	7.070	-0.135	-0.101
-658.930	-200.000	-0.021	-0.282
-657.916	-83.588	0.053	-0.017
-656.901	-51.979	-0.126	-0.059
-655.886	-37.696	0.103	-0.055
-654.872	-82.685	-0.061	0.020
-653.857	-53.192	0.244	0.112
-652.843	12.744	-0.464	0.359
-651.828	800.000	0.030	-0.128
-650.814	-83.499	-0.297	-0.095
-649.799	319.748	-0.129	0.245
-648.784	-67.279	-0.333	-0.132
-647.770	295.438	-0.080	0.147
-646.755	96.175	-0.181	-0.208
-645.741	800.000	-0.135	-0.461
-644.726	-66.547	0.339	-0.135
-643.711	-27.883	0.282	0.164
-642.697	-17.265	0.213	-0.135
-641.682	-55.196	0.094	0.042
-640.668	41.198	-0.116	0.105
-639.653	7.795	-0.204	0.154
-638.638	-200.000	0.097	0.715
-637.624	-200.000	0.013	-0.060
-636.609	550.238	-0.075	-0.180
-635.595	800.000	-0.103	-0.373
-634.580	-200.000	-0.014	0.154
-633.565	9.072	0.206	0.156
-632.551	-108.673	-0.161	0.035
-631.536	-151.149	-0.378	-0.028
-630.522	800.000	-0.070	-0.237
-629.507	521.908	-0.170	-0.399
-628.492	800.000	-0.040	0.129
-627.478	72.734	-0.104	-0.109
-626.463	435.154	-0.118	0.258
-625.449	-130.722	-0.220	-0.030
-624.434	-52.096	-0.335	0.156
-623.419	-0.988	-0.300	-0.213
-622.405	-148.134	-0.352	-0.029
-621.390	477.705	-0.068	-0.154
-620.376	-200.000	-0.054	0.277
-619.361	-29.961	0.219	-0.125
-618.346	67.749	0.302	0.309
-617.332	-200.000	-0.068	0.373
-616.317	96.002	0.064	0.073
-615.303	-37.447	-0.170	-0.091
-614.288	-174.418	-0.297	-0.009
-613.273	69.422	0.164	0.170
-612.259	-34.858	0.247	-0.135
-611.244	370.370	-0.128	-0.259
-610.230	-71.132	0.127	0.048
-609.215	-200.000	-0.002	0.020
-608.201	-110.126	-0.157	-0.033
-607.186	319.440	-0.114	-0.216
-606.171	-79.510	0.182	-0.062
-605.157	650.547	-0.012	0.032
-604.142	-200.000	0.009	-0.220
-603.128	323.828	-0.143	0.273
-602.113	214.008	-0.141	0.224
-601.098	-117.723	-0.082	0.015
-600.084	25.425	-0.130	-0.108
-599.069	-184.546	0.113	0.002
-598.055	17.839	-0.087	0.070
-597.040	-200.000	-0.046	-0.246
-596.025	104.818	0.194	-0.229
-595.011	63.848	0.072	0.072
-593.996	800.000	-0.088	-0.318
-592.982	-200.000	0.029	0.237
-591.967	800.000	-0.121	-0.375
-590.952	102.497	-0.085	0.100
-589.938	-56.997	0.127	0.056
-588.923	620.778	-0.212	-0.535
-587.909	-98.168	-0.070	-0.018
-586.894	-137.388	0.106	-0.012
-585.879	50.751	-0.127	-0.120
-584.865	800.000	-0.039	0.156
-583.850	800.000	-0.066	-0.260
-582.836	-200.000	-0.013	-0.070
-581.821	-40.245	0.122	-0.064
-580.806	800.000	0.025	0.089
-579.792	800.000	-0.194	0.550
-578.777	142.550	-0.151	0.200
-577.763	800.000	0.092	-0.401
-576.748	-164.314	-0.117	0.005
-575.733	40.309	0.062	-0.056
-574.719	594.304	0.131	0.324
-573.704	800.000	0.032	-0.120
-572.690	800.000	-0.048	-0.155
-571.675	-148.677	-0.191	-0.016
-570.661	105.619	0.093	0.110
-569.646	-13.980	-0.303	-0.196
-568.631	800.000	0.013	-0.039
-567.617	800.000	0.102	-0.332
-566.602	-200.000	-0.001	-0.103
-565.588	-200.000	0.017	-0.221
-564.573	283.247	0.256	-0.461
-563.558	-23.693	0.125	-0.075
-562.544	800.000	-0.152	-0.475
-561.529	-2.954	-0.321	0.224
-560.515	46.798	-0.079	0.074
-559.500	210.979	-0.060	-0.094
-558.485	800.000	0.053	0.186
-557.471	-167.539	0.431	-0.017
-556.456	-134.666	-0.313	-0.038
-555.442	-121.395	0.402	-0.067
-554.427	39.869	-0.191	-0.171
-553.412	800.000	0.076	-0.273
-552.398	15.973	-0.044	-0.034
-551.383	-8.323	-0.213	-0.143
-550.369	134.167	-0.144	-0.187
-549.354	-124.167	-0.207	-0.032
-548.339	199.498	-0.102	0.157
-547.325	225.587	0.204	-0.330
-546.310	-200.000	0.013	0.244
-545.296	800.000	0.111	0.343
-544.281	84.982	-0.178	-0.195
-543.266	-138.326	-0.166	0.018
-542.252	10.634	0.090	-0.068
-541.237	-79.318	0.201	-0.068
-540.223	800.000	-0.039	0.155
-539.208	-81.185	-0.259	0.085
-538.193	226.356	-0.064	-0.105
-537.179	-132.653	0.307	-0.039
-536.164	588.687	0.055	-0.136
-535.150	-65.559	0.224	0.090
-534.135	34.907	0.125	-0.109
-533.121	8.207	-0.075	-0.056
-532.106	800.000	0.040	0.110
-531.091	-34.309	-0.142	0.078
-530.077	88.087	-0.306	0.339
-529.062	-35.940	-0.179	0.097
-528.048	80.162	-0.117	-0.126
-527.033	-200.000	-0.012	0.054
-526.018	-200.000	0.052	-0.369
-525.004	136.686	0.096	0.125
-523.989	800.000	-0.078	0.219
-522.975	-107.180	0.236	0.052
-521.960	800.000	-0.131	-0.401
-520.945	800.000	0.043	-0.140
-519.931	123.863	0.134	-0.168
-518.916	-147.141	0.164	0.014
-517.902	243.864	-0.164	-0.275
-516.887	103.089	-0.124	-0.145
-515.872	91.787	-0.217	0.244
-514.858	51.325	-0.105	0.100
-513.843	-55.453	0.147	-0.066
-512.829	-200.000	0.006	0.159
-511.814	101.790	-0.152	0.177
-510.799	-66.621	0.157	-0.062
-509.785	-39.167	-0.216	0.113
-508.770	-12.576	0.293	0.191
-507.756	33.146	-0.165	0.143
-506.741	157.218	0.188	0.260
-505.726	-56.596	-0.189	0.084
-504.712	71.978	0.388	-0.403
-503.697	-200.000	0.042	0.194
-502.683	75.926	0.139	-0.146
-501.668	-13.228	-0.261	-0.169
-500.653	-111.855	0.296	-0.060
-499.639	206.053	-0.141	0.219
-498.624	-114.489	0.134	0.026
-497.610	-36.237	0.337	-0.182
-496.595	-57.268	0.211	0.093
-495.581	72.550	-0.134	-0.140
-494.566	187.653	0.087	0.130
-493.551	-42.853	0.299	0.151
-492.537	-43.552	-0.349	-0.176
-491.522	-74.818	0.274	-0.098
-490.508	7.458	-0.106	0.079
-489.493	-26.293	-0.153	-0.090
-488.478	12.656	-0.229	0.176
-487.464	-200.000	-0.000	0.249
-486.449	67.615	-0.014	-0.014
-485.435	353.351	-0.061	0.121
-484.420	108.365	-0.276	0.328
-483.405	441.667	0.068	-0.148
-482.391	-123.204	0.533	0.085
-481.376	-29.858	-0.217	-0.123
-480.362	800.000	0.019	-0.077
-479.347	-125.280	-0.262	-0.040
-478.332	36.277	-0.163	0.143
-477.318	253.067	0.114	0.195
-476.303	-138.842	-0.255	0.028
-475.289	800.000	-0.003	0.007
-474.274	-200.000	-0.026	-0.322
-473.259	-31.212	0.073	0.041
-472.245	800.000	-0.049	-0.165
-471.230	-24.237	0.098	0.058
-470.216	-60.154	0.108	-0.046
-469.201	226.674	0.136	0.220
-468.186	218.081	-0.013	-0.020
-467.172	118.009	0.147	0.180
-466.157	154.151	-0.108	0.147
-465.143	284.919	-0.078	-0.140
-464.128	358.457	-0.136	0.270
-463.113	-60.045	0.085	-0.036
-462.099	-89.185	0.083	-0.024
-461.084	-177.862	0.097	-0.002
-460.070	-141.992	0.094	-0.009
-459.055	14.927	-0.085	0.067
-458.040	800.000	0.033	-0.105
-457.026	109.225	0.074	0.089
-456.011	-22.697	0.064	0.038
-454.997	-21.246	-0.046	-0.028
-453.982	-200.000	-0.048	-0.210
-452.968	-146.612	0.251	0.022
-451.953	322.386	-0.101	-0.192
-450.938	53.886	-0.150	-0.143
-449.924	-200.000	0.022	-0.144
-448.909	-73.771	0.310	-0.112
-447.895	800.000	0.069	0.220
-446.880	-70.384	0.087	-0.033
-445.865	-200.000	-0.016	0.170
-444.851	44.797	-0.057	-0.052
-443.836	136.188	0.109	-0.142
-442.822	-106.875	0.242	-0.053
-441.807	521.203	-0.117	-0.274
-440.792	178.713	0.127	-0.184
-439.778	600.103	-0.085	0.209
-438.763	16.088	0.221	0.174
-437.749	-200.000	-0.001	-0.191
-436.734	-79.132	-0.266	-0.090
-435.719	-141.044	0.081	-0.008
-434.705	148.319	-0.096	0.129
-433.690	-5.346	0.268	0.183
-432.676	128.527	0.163	0.207
-431.661	37.490	-0.145	0.128
-430.646	-200.000	-0.036	0.205
-429.632	800.000	-0.094	-0.307
-428.617	-19.033	0.159	0.099
-427.603	-110.073	0.066	-0.014
-426.588	-200.000	0.020	0.128
-425.573	184.477	0.151	-0.223
-424.559	-63.733	-0.021	-0.009
-423.544	-200.000	0.076	0.345
-422.530	800.000	0.043	0.178
-421.515	-94.544	-0.092	0.025
-420.500	-86.698	-0.206	0.063
-419.486	-200.000	-0.005	-0.159
-418.471	-97.211	-0.173	0.045
-417.457	800.000	-0.108	-0.342
-416.442	330.431	0.091	0.175
-415.428	594.829	0.110	0.272
-414.413	-138.902	-0.428	-0.046
-413.398	800.000	0.051	-0.221
-412.384	789.836	0.122	-0.334
-411.369	-145.731	0.149	0.013
-410.355	-98.895	-0.278	-0.070
-409.340	-110.662	-0.389	-0.080
-408.325	-118.590	0.128	-0.023
-407.311	776.135	0.028	-0.075
-406.296	61.847	-0.041	0.040
-405.282	-83.003	-0.301	0.097
-404.267	800.000	-0.025	-0.100
-403.252	169.942	0.142	0.202
-402.238	31.178	0.241	-0.206
-401.223	-192.311	-0.044	-0.000
-400.209	114.858	0.141	0.171
-399.194	-169.746	0.080	0.003
-398.179	53.210	-0.393	0.374
-397.165	-22.281	0.108	0.065
-396.150	-200.000	0.020	0.420
-395.136	-50.039	0.094	0.044
-394.121	800.000	-0.040	-0.138
-393.106	800.000	0.059	0.222
-392.092	385.916	0.077	-0.159
-391.077	643.075	0.041	-0.104
-390.063	38.694	0.099	-0.088
-389.048	-30.950	-0.203	0.114
-388.033	511.984	0.076	-0.176
-387.019	43.610	-0.136	0.124
-386.004	-200.000	0.026	0.378
-384.990	318.469	-0.072	0.136
-383.975	141.708	0.209	0.275
-382.960	-200.000	-0.057	0.367
-381.946	-64.601	-0.198	-0.080
-380.931	257.214	-0.104	-0.178
-379.917	-67.751	0.304	-0.118
-378.902	-66.948	-0.258	-0.101
-377.888	-200.000	-0.026	0.318
-376.873	248.212	0.117	0.197
-375.858	-200.000	-0.002	-0.150
-374.844	800.000	-0.089	-0.347
-373.829	-135.275	0.175	0.021
-372.815	800.000	0.086	-0.301
-371.800	-93.564	0.303	0.083
-370.785	800.000	-0.048	0.201
-369.771	-132.985	0.208	-0.026
-368.756	347.412	-0.138	-0.269
-367.742	-200.000	-0.061	-0.391
-366.727	-18.774	-0.175	-0.108
-365.712	42.749	0.232	-0.210
-364.698	99.415	0.252	0.289
-363.683	8.916	-0.402	-0.301
-362.669	13.866	0.245	0.189
-361.654	800.000	-0.037	-0.107
-360.639	70.400	-0.053	0.054
-359.625	177.149	-0.124	-0.179
-358.610	207.802	-0.017	-0.027
-357.596	800.000	0.037	-0.123
-356.581	-200.000	0.033	0.379
-355.566	-200.000	-0.025	0.135
-354.552	-58.324	0.329	0.142
-353.537	-72.907	0.282	-0.103
-352.523	800.000	-0.006	0.018
-351.508	-200.000	0.026	0.302
-350.493	30.805	0.238	-0.202
-349.479	-117.259	0.208	0.037
-348.464	370.517	0.093	-0.186
-347.450	-118.814	0.182	0.032
-346.435	501.734	0.070	0.159
-345.420	-200.000	0.032	0.148
-344.406	-33.041	0.163	-0.090
-343.391	-44.818	0.341	-0.169
-342.377	-200.000	0.074	0.353
-341.362	-200.000	0.003	0.056
-340.348	-35.557	0.257	0.138
-339.333	-86.331	-0.235	-0.072
-338.318	-37.890	-0.075	0.040
-337.304	-200.000	0.006	-0.193
-336.289	17.608	-0.279	-0.220
-335.275	-200.000	-0.004	-0.162
-334.260	-19.715	0.178	0.109
-333.245	-99.317	0.295	0.074
-332.231	-171.844	-0.299	0.010
-331.216	-46.977	0.125	0.060
-330.202	-200.000	0.032	-0.227
-329.187	-127.065	0.133	0.019
-328.172	-151.796	0.265	-0.019
-327.158	41.224	-0.125	-0.112
-326.143	540.491	0.065	-0.154
-325.129	51.884	-0.158	-0.150
-324.114	-0.489	0.225	0.159
-323.099	11.877	0.407	0.310
-322.085	-102.659	0.076	-0.018
-321.070	-137.569	0.151	0.017
-320.056	35.005	0.160	0.139
-319.041	-172.936	-0.118	0.004
-318.026	-200.000	-0.035	0.180
-317.012	800.000	-0.093	-0.393
-315.997	36.640	0.064	0.056
-314.983	777.067	-0.100	-0.271
-313.968	4.766	-0.318	-0.232
-312.953	-120.448	0.300	0.051
-311.939	355.585	-0.077	0.152
-310.924	33.730	0.164	-0.141
-309.910	285.608	0.008	0.015
-308.895	404.279	-0.132	-0.276
-307.880	-200.000	0.018	0.280
-306.866	-33.650	-0.451	0.246
-305.851	150.081	-0.127	-0.171
-304.837	-200.000	-0.035	-0.179
-303.822	800.000	0.065	0.264
-302.807	-200.000	0.005	0.120
-301.793	767.096	0.033	0.090
-300.778	-50.631	0.147	0.069
-299.764	48.370	0.325	0.301
-298.749	-107.383	-0.196	0.043
-297.735	-19.225	-0.294	-0.181
-296.720	-54.311	-0.307	0.138
-295.705	473.973	-0.047	-0.105
-294.691	-43.411	-0.114	-0.057
-293.676	135.654	0.080	0.103
-292.662	656.948	0.039	-0.098
-291.647	-200.000	0.032	0.181
-290.632	225.426	0.229	0.368
-289.618	64.257	0.222	-0.221
-288.603	50.165	0.147	0.137
-287.589	-200.000	-0.062	-0.412
-286.574	-200.000	0.011	0.308
-285.559	-80.777	0.051	-0.017
-284.545	800.000	0.056	0.179
-283.530	143.558	-0.076	-0.101
-282.516	27.206	0.232	0.193
-281.501	-189.990	-0.077	-0.001
-280.486	-57.187	-0.159	-0.069
-279.472	73.423	0.041	-0.042
-278.457	267.163	0.104	-0.180
-277.443	34.330	0.118	0.102
-276.428	-200.000	0.057	-0.254
-275.413	800.000	0.152	-0.453
-274.399	55.067	-0.119	0.114
-273.384	-70.594	0.207	0.078
-272.370	97.769	-0.225	-0.256
-271.355	-117.279	-0.319	-0.057
-270.340	-88.126	0.247	0.073
-269.326	229.074	0.069	0.111
-268.311	45.558	0.157	0.144
-267.297	549.504	0.046	-0.108
-266.282	500.752	-0.132	-0.300
-265.267	73.826	-0.080	-0.083
-264.253	800.000	0.071	0.238
-263.238	-189.505	0.184	0.002
-262.224	-200.000	-0.018	0.125
-261.209	800.000	0.037	-0.107
-260.195	240.742	0.153	0.253
-259.180	671.011	0.048	0.123
-258.165	-200.000	-0.014	-0.076
-257.151	6.313	-0.359	0.263
-256.136	800.000	0.049	0.156
-255.122	6.547	-0.085	0.062
-254.107	-200.000	0.087	0.421
-253.092	-200.000	-0.041	0.204
-252.078	156.941	-0.076	0.104
-251.063	-75.053	-0.295	-0.104
-250.049	140.998	-0.374	-0.488
-249.034	800.000	-0.022	0.081
-248.019	-108.682	0.088	-0.019
-247.005	-132.193	-0.365	-0.047
-245.990	800.000	-0.058	-0.194
-244.976	135.171	0.167	-0.215
-243.961	-194.258	0.050	-0.000
-242.946	81.970	-0.154	-0.164
-241.932	-105.669	0.279	0.062
-240.917	800.000	0.077	0.234
-239.903	572.364	0.076	0.182
-238.888	137.011	0.039	0.050
-237.873	486.249	0.105	-0.237
-236.859	339.207	0.084	0.162
-235.844	-107.528	0.085	0.018
-234.830	576.255	0.113	0.273
-233.815	-113.620	-0.073	0.014
-232.800	-54.264	0.421	-0.189
-231.786	-200.000	0.038	0.371
-230.771	800.000	-0.037	0.123
-229.757	-200.000	-0.041	0.235
-228.742	-165.688	0.143	0.006
-227.727	-99.638	-0.037	-0.009
-226.713	209.204	-0.062	-0.095
-225.698	-92.360	-0.298	-0.083
-224.684	56.469	-0.097	-0.094
-223.669	245.957	0.185	-0.308
-222.655	-1.263	-0.206	0.144
-221.640	-200.000	-0.052	0.577
-220.625	114.477	-0.072	-0.087
-219.611	287.737	-0.211	-0.377
-218.596	-200.000	0.035	-0.289
-217.582	52.406	0.200	-0.189
-216.567	-92.906	-0.478	-0.132
-215.552	-200.000	-0.067	0.357
-214.538	227.656	0.154	0.247
-213.523	143.024	-0.191	0.250
-212.509	-48.653	0.303	-0.144
-211.494	-10.761	-0.139	0.090
-210.479	20.902	0.147	-0.118
-209.465	-61.768	0.170	0.070
-208.450	106.513	0.427	0.500
-207.436	13.643	-0.084	0.064
-206.421	53.271	-0.279	0.264
-205.406	-200.000	0.012	-0.087
-204.392	25.305	-0.137	0.113
-203.377	104.119	0.164	-0.190
-202.363	-171.753	-0.088	0.003
-201.348	117.815	-0.254	-0.309
-200.333	57.582	-0.172	0.166
-199.319	-3.992	-0.334	0.228
-198.304	174.908	0.150	-0.214
-197.290	-118.427	-0.106	-0.019
-196.275	-38.649	-0.160	-0.083
-195.260	-97.767	0.098	-0.025
-194.246	800.000	-0.105	-0.438
-193.231	800.000	0.084	-0.313
-192.217	84.567	-0.200	-0.216
-191.202	-46.144	-0.085	-0.041
-190.187	-200.000	0.006	0.278
-189.173	64.831	0.414	0.412
-188.158	194.697	0.179	-0.267
-187.144	-200.000	-0.003	-0.299
-186.129	213.514	-0.091	0.142
-185.114	106.196	0.063	-0.074
-184.100	-18.180	-0.150	0.093
-183.085	-158.589	0.286	0.016
-182.071	800.000	0.020	-0.083
-181.056	-127.463	0.252	-0.036
-180.042	75.111	-0.114	-0.118
-179.027	426.697	0.025	0.053
-178.012	-35.593	0.198	-0.106
-176.998	139.199	0.042	0.054
-175.983	-200.000	0.040	0.379
-174.969	800.000	0.101	0.392
-173.954	104.416	-0.275	0.319
-172.939	61.107	-0.022	-0.022
-171.925	299.325	0.085	0.154
-170.910	57.709	0.076	0.073
-169.896	229.193	-0.119	-0.191
-168.881	-95.576	0.075	0.020
-167.866	128.489	0.141	0.176
-166.852	-200.000	0.015	0.081
-165.837	-143.331	-0.059	-0.006
-164.823	-200.000	-0.038	-0.349
-163.808	-14.664	0.068	-0.043
-162.793	308.027	-0.059	0.108
-161.779	-200.000	-0.013	0.129
-160.764	-99.112	0.097	0.024
-159.750	21.168	-0.201	-0.161
-158.735	-69.858	0.232	-0.087
-157.720	-22.466	-0.316	-0.188
-156.706	262.362	0.162	0.277
-155.691	800.000	0.027	0.113
-154.677	57.294	-0.280	0.269
-153.662	-18.964	0.143	-0.088
-152.647	800.000	0.102	-0.374
-151.633	-72.886	-0.180	-0.065
-150.618	-108.016	-0.344	-0.073
-149.604	73.784	0.357	-0.369
-148.589	800.000	-0.051	0.216
-147.574	800.000	-0.032	-0.098
-146.560	-164.767	0.088	0.004
-145.545	-120.202	-0.206	0.035
-144.531	125.931	0.128	-0.159
-143.516	93.982	-0.112	-0.125
-142.502	-180.401	-0.266	-0.005
-141.487	-42.709	0.059	0.029
-140.472	-200.000	-0.028	-0.344
-139.458	800.000	0.115	-0.382
-138.443	155.819	-0.181	-0.245
-137.429	33.427	0.165	0.141
-136.414	-80.802	0.248	-0.081
-135.399	548.161	0.123	-0.290
-134.385	-101.380	0.210	-0.050
-133.370	-200.000	0.016	0.144
-132.356	355.935	-0.137	-0.268
-131.341	-9.329	0.237	-0.155
-130.326	-86.329	-0.126	0.038
-129.312	-100.755	-0.203	-0.049
-128.297	39.554	-0.214	0.189
-127.283	-104.492	0.246	0.056
-126.268	-200.000	0.085	0.479
-125.253	399.190	0.082	0.169
-124.239	-101.255	-0.174	0.042
-123.224	10.627	-0.356	0.267
-122.210	67.908	-0.124	-0.125
-121.195	293.687	0.096	-0.172
-120.180	800.000	-0.079	0.306
-119.166	-55.052	0.206	0.091
-118.151	-77.446	-0.050	0.017
-117.137	-159.605	-0.221	0.012
-116.122	-97.881	0.192	0.049
-115.107	-136.417	-0.236	-0.027
-114.093	220.647	0.143	0.226
-113.078	-51.933	0.157	0.072
-112.064	107.187	-0.268	0.313
-111.049	151.702	0.112	0.150
-110.034	-200.000	0.029	0.157
-109.020	-166.233	-0.165	0.007
-108.005	800.000	-0.047	0.150
-106.991	-200.000	0.068	0.347
-105.976	-132.850	-0.323	0.040
-104.962	-75.106	0.136	0.048
-103.947	-200.000	0.025	0.282
-102.932	760.744	0.048	0.127
-101.918	-83.232	0.284	0.090
-100.903	-200.000	-0.002	0.103
-99.889	104.918	0.304	0.352
-98.874	424.447	-0.042	0.089
-97.859	755.708	0.143	-0.380
-96.845	162.061	0.161	0.221
-95.830	40.231	0.174	0.154
-94.816	-18.469	0.051	-0.031
-93.801	800.000	-0.020	0.078
-92.786	550.983	0.045	0.107
-91.772	-105.820	-0.099	-0.022
-90.757	-141.728	0.256	0.025
-89.743	-31.176	-0.186	-0.103
-88.728	-144.545	0.164	0.015
-87.713	-200.000	-0.030	0.232
-86.699	27.428	0.267	-0.220
-85.684	-36.046	0.161	-0.085
-84.670	540.708	0.066	0.154
-83.655	-33.715	0.344	0.186
-82.640	-200.000	-0.037	0.378
-81.626	-167.347	-0.367	-0.015
-80.611	-20.359	0.337	-0.204
-79.597	-30.252	-0.004	-0.002
-78.582	773.603	0.079	-0.212
-77.567	-200.000	0.003	0.049
-76.553	293.006	0.082	0.147
-75.538	30.174	0.227	-0.190
-74.524	-126.332	0.287	0.042
-73.509	-8.182	-0.243	0.160
-72.494	499.309	0.129	0.291
-71.480	129.552	0.148	-0.186
-70.465	-14.910	-0.147	0.092
-69.451	800.000	-0.091	0.321
-68.436	-30.413	-0.061	0.034
-67.422	462.118	0.057	0.124
-66.407	52.033	-0.100	0.093
-65.392	800.000	0.018	-0.077
-64.378	5.302	0.388	0.280
-63.363	-100.575	0.391	0.095
-62.349	-196.248	-0.202	0.001
-61.334	43.676	-1.035	-0.929
-60.319	94.156	0.525	0.585
-59.305	-200.000	-0.195	-1.075
-58.290	393.913	0.618	1.262
-57.276	800.000	0.388	1.450
-56.261	-200.000	102.722	580.939
-55.246	479.506	1444.379	3210.364
-54.232	153.714	2614.731	3513.597
-53.217	111.037	2144.025	2531.957
-52.203	43.580	1600.643	1435.607
-51.188	35.558	1340.659	1154.413
-50.173	32.372	1299.802	1100.583
-49.159	55.240	1350.912	1280.783
-48.144	56.821	1367.232	1305.619
-47.130	35.490	1323.817	1139.325
-46.115	32.083	1306.332	1104.241
-45.100	31.899	1301.471	1099.004
-44.086	31.761	1299.414	1096.421
-43.071	31.846	1296.956	1094.796
-42.057	31.809	1294.894	1092.795
-41.042	31.897	1292.764	1091.467
-40.027	31.880	1291.591	1090.337
-39.013	31.775	1289.607	1088.009
-37.998	31.807	1287.987	1086.786
-36.984	31.968	1286.137	1086.113
-35.969	31.952	1284.083	1084.243
-34.954	31.951	1282.588	1082.931
-33.940	31.921	1281.398	1081.710
-32.925	31.970	1279.660	1080.482
-31.911	31.945	1278.645	1079.441
-30.896	32.088	1277.200	1078.997
-29.881	32.039	1275.785	1077.482
-28.867	31.979	1274.413	1075.935
-27.852	31.990	1272.867	1074.647
-26.838	32.038	1271.427	1073.666
-25.823	31.994	1269.995	1072.163
-24.809	32.101	1268.629	1071.576
-23.794	31.999	1267.790	1070.243
-22.779	31.934	1266.694	1068.906
-21.765	32.003	1265.116	1067.922
-20.750	31.942	1263.580	1066.240
-19.736	31.894	1262.360	1064.893
-18.721	32.026	1260.977	1064.433
-17.706	31.929	1259.956	1062.982
-16.692	31.793	1259.388	1061.687
-15.677	31.856	1258.326	1061.106
-14.663	31.892	1256.841	1060.014
-13.648	31.950	1255.374	1059.065
-12.633	31.898	1254.904	1058.334
-11.619	31.840	1254.189	1057.361
-10.604	31.858	1253.173	1056.565
-9.590	31.869	1251.773	1055.404
-8.575	31.821	1251.300	1054.693
-7.560	31.815	1250.282	1053.758
-6.546	31.870	1249.587	1053.441
-5.531	31.864	1248.530	1052.473
-4.517	31.870	1247.797	1051.850
-3.502	31.840	1246.757	1050.762
-2.487	31.936	1245.877	1050.512
-1.473	31.701	1241.283	1045.290
-0.458	29.252	1225.191	1018.183
0.556	22.500	1205.408	968.524
1.571	17.416	1208.743	943.016
2.586	16.020	1222.873	946.122
3.600	15.663	1211.607	935.334
4.615	11.627	1142.111	860.400
5.629	4.283	1068.570	768.642
6.644	0.488	1049.578	736.418
7.659	0.098	1047.641	733.096
8.673	0.229	1046.258	732.700
9.688	0.096	1045.578	731.513
10.702	0.403	1043.284	731.330
11.717	4.683	1048.429	755.698
12.731	12.254	1058.527	799.926
13.746	16.590	1063.271	824.617
14.761	16.910	1063.434	826.232
15.775	16.106	1061.727	820.917
16.790	15.177	1059.137	814.329
17.804	14.503	1057.626	809.824
18.819	14.163	1056.666	807.367
19.834	13.742	1056.186	804.885
20.848	13.553	1054.918	802.932
21.863	13.213	1054.495	800.893
22.877	13.177	1053.491	799.885
23.892	13.159	1052.677	799.109
24.907	13.142	1052.124	798.539
25.921	13.275	1050.961	798.225
26.936	13.322	1050.516	798.045
27.950	13.275	1049.436	796.927
28.965	13.208	1048.647	795.935
29.980	13.333	1047.056	795.259
30.994	13.425	1046.177	794.960
32.009	13.432	1045.130	794.127
33.023	13.384	1044.082	793.032
34.038	13.394	1043.347	792.450
35.053	13.119	1043.023	790.818
36.067	13.273	1041.519	790.343
37.082	13.292	1040.736	789.770
38.096	13.398	1039.795	789.494
39.111	13.393	1039.206	788.950
40.126	13.314	1037.743	787.394
41.140	13.049	1037.047	785.537
42.155	13.095	1035.804	784.747
43.169	13.123	1034.729	783.992
44.184	13.134	1033.688	783.186
45.199	13.114	1032.595	782.197
46.213	13.227	1031.458	781.799
47.228	13.242	1030.533	781.099
48.242	13.182	1029.619	780.053
49.257	13.273	1028.300	779.414
50.271	13.325	1027.863	779.263
51.286	13.349	1026.889	778.566
52.301	13.160	1025.989	776.926
53.315	13.193	1025.129	776.363
54.330	13.284	1024.107	775.946
55.344	13.049	1023.585	774.378
56.359	13.281	1021.563	773.866
57.374	13.145	1021.054	772.778
58.388	13.066	1020.833	772.171
59.403	13.141	1020.017	771.834
60.417	13.186	1018.725	771.003
61.432	13.187	1018.379	770.676
62.447	13.094	1017.742	769.691
63.461	13.092	1016.755	768.868
64.476	13.022	1015.959	767.871
65.490	13.002	1015.206	767.140
66.505	13.088	1014.547	766.975
67.520	13.040	1013.916	766.208
68.534	13.283	1012.222	765.984
69.549	13.156	1012.400	765.465
70.563	13.075	1011.408	764.271
71.578	12.982	1010.881	763.375
72.593	13.099	1009.786	763.024
73.607	12.969	1009.263	761.959
74.622	13.059	1008.638	761.834
75.636	13.081	1007.887	761.301
76.651	13.094	1006.885	760.540
77.666	13.068	1006.532	760.085
78.680	13.036	1006.028	759.486
79.695	13.150	1005.370	759.450
80.709	13.129	1004.513	758.639
81.724	13.119	1004.129	758.236
82.739	13.093	1003.355	757.462
83.753	13.308	1002.254	757.549
84.768	13.426	1001.119	757.164
85.782	13.311	1000.977	756.467
86.797	13.327	999.958	755.701
87.812	13.243	998.797	754.375
88.826	13.172	998.058	753.423
89.841	13.319	997.110	753.311
90.855	13.424	995.555	752.546
91.870	13.252	995.642	751.766
92.884	13.312	994.805	751.342
93.899	13.408	993.603	750.801
94.914	13.345	993.127	750.089
95.928	13.502	991.704	749.660
96.943	13.441	991.416	749.098
97.957	13.350	990.538	747.957
98.972	13.267	989.759	746.927
99.987	13.335	988.581	746.282
101.001	13.372	987.791	745.783
102.016	13.415	986.891	745.232
103.030	13.383	986.328	744.597
104.045	13.316	985.433	743.556
105.060	13.364	984.771	743.204
106.074	13.191	983.793	741.624
107.089	13.100	982.979	740.538
108.103	13.277	981.387	740.064
109.118	13.083	980.974	738.818
110.133	13.260	980.244	738.996
111.147	13.276	979.030	738.088
112.162	13.205	978.549	737.343
113.176	13.310	977.585	737.017
114.191	13.293	976.882	736.346
115.206	13.282	976.359	735.840
116.220	13.195	975.576	734.796
117.235	13.309	973.948	734.013
118.249	13.268	973.639	733.531
119.264	13.307	972.899	733.082
120.279	13.312	972.058	732.408
121.293	13.131	971.848	731.382
122.308	13.256	970.414	730.790
123.322	13.233	969.402	729.863
124.337	13.309	968.358	729.348
125.352	13.282	967.532	728.543
126.366	13.403	965.849	727.742
127.381	13.369	965.163	727.011
128.395	13.234	965.086	726.294
129.410	13.331	963.872	725.745
130.424	13.336	962.814	724.905
131.439	13.475	961.770	724.662
132.454	13.568	961.053	724.464
133.468	13.425	960.528	723.379
134.483	13.371	959.420	722.249
135.497	13.419	958.577	721.756
136.512	13.384	957.871	721.008
137.527	13.386	957.150	720.409
138.541	13.293	956.691	719.599
139.556	13.304	956.141	719.170
140.570	13.329	955.576	718.789
141.585	13.450	954.038	718.093
142.600	13.434	953.274	717.385
143.614	13.429	952.620	716.807
144.629	13.479	951.897	716.415
145.643	13.452	950.792	715.403
146.658	13.543	949.560	714.808
147.673	13.356	949.523	713.909
148.687	13.398	948.420	713.197
149.702	13.365	947.221	712.089
150.716	13.380	946.705	711.706
151.731	13.444	945.895	711.309
152.746	13.414	945.367	710.719
153.760	13.471	944.509	710.255
154.775	13.536	944.157	710.207
155.789	13.523	943.594	709.663
156.804	13.569	942.538	709.005
157.819	13.573	942.004	708.555
158.833	13.635	941.481	708.368
159.848	13.459	940.797	707.036
160.862	13.614	939.428	706.605
161.877	13.432	938.489	705.062
162.892	13.557	937.811	705.024
163.906	13.484	936.891	703.957
164.921	13.464	936.403	703.443
165.935	13.710	934.937	703.324
166.950	13.494	934.168	701.766
167.964	13.561	933.343	701.372
168.979	13.560	932.333	700.546
169.994	13.560	931.637	699.962
171.008	13.740	930.695	699.950
172.023	13.710	930.196	699.387
173.037	13.726	929.669	698.995
174.052	13.682	929.027	698.267
175.067	13.703	928.024	697.540
176.081	13.757	927.408	697.240
177.096	13.657	927.286	696.666
178.110	13.596	926.970	696.114
179.125	13.535	926.009	695.074
180.140	13.689	925.214	695.062
181.154	13.708	924.599	694.617
182.169	13.673	924.702	694.484
183.183	13.870	923.857	694.615
184.198	13.814	922.729	693.469
185.213	13.704	922.195	692.550
186.227	13.809	921.696	692.551
187.242	13.815	921.054	692.030
188.256	13.920	920.544	692.024
189.271	13.836	919.628	690.925
190.286	13.687	918.950	689.735
191.300	13.706	918.077	689.097
192.315	13.678	917.043	688.143
193.329	13.875	916.961	688.839
194.344	13.846	916.234	688.113
195.359	13.865	915.459	687.548
196.373	13.808	915.086	686.971
197.388	13.833	914.755	686.766
198.402	14.066	913.987	687.090
199.417	14.111	913.126	686.570
200.432	14.117	912.640	686.166
201.446	14.188	912.058	685.962
202.461	14.209	911.660	685.686
203.475	14.178	911.136	685.105
204.490	14.130	910.416	684.305
205.504	13.992	909.969	683.342
206.519	14.196	908.766	683.216
207.534	14.072	908.241	682.252
208.548	13.994	907.903	681.619
209.563	14.032	907.128	681.132
210.577	14.073	906.611	680.852
211.592	14.305	905.312	680.765
212.607	14.157	905.283	680.077
213.621	14.203	904.364	679.513
214.636	14.212	903.528	678.862
215.650	14.258	902.990	678.584
216.665	14.370	901.803	678.090
217.680	14.416	901.421	677.931
218.694	14.406	900.737	677.313
219.709	14.429	900.188	676.937
220.723	14.407	899.652	676.384
221.738	14.383	898.560	675.403
222.753	14.364	898.216	675.010
223.767	14.387	897.767	674.705
224.782	14.468	896.982	674.385
225.796	14.482	896.517	674.029
226.811	14.608	895.831	673.963
227.826	14.604	895.032	673.286
228.840	14.393	894.402	671.903
229.855	14.354	893.618	671.097
230.869	14.549	892.639	671.089
231.884	14.408	892.550	670.395
232.899	14.520	891.587	670.060
233.913	14.462	891.171	669.458
234.928	14.403	890.275	668.487
235.942	14.465	889.790	668.312
236.957	14.432	888.824	667.395
237.972	14.362	888.800	667.037
238.986	14.433	888.298	666.889
240.001	14.555	886.964	666.313
241.015	14.481	886.630	665.710
242.030	14.631	885.811	665.633
243.045	14.615	885.730	665.449
244.059	14.549	884.735	664.382
245.074	14.644	884.221	664.314
246.088	14.641	883.584	663.765
247.103	14.624	882.928	663.147
248.117	14.656	882.806	663.123
249.132	14.687	882.019	662.595
250.147	14.766	881.175	662.217
251.161	14.886	880.407	662.055
252.176	14.876	879.846	661.535
253.190	14.872	879.083	660.887
254.205	14.824	878.634	660.300
255.220	14.918	877.644	659.871
256.234	14.852	877.309	659.298
257.249	14.924	876.866	659.192
258.263	14.960	876.126	658.720
259.278	15.043	874.864	658.038
260.293	14.968	874.875	657.695
261.307	15.084	874.199	657.582
262.322	15.219	873.291	657.369
263.336	15.242	872.566	656.856
264.351	15.056	872.333	655.895
265.366	15.205	871.386	655.708
266.380	15.207	870.799	655.215
267.395	15.093	870.416	654.424
268.409	15.120	869.644	653.890
269.424	15.082	869.262	653.400
270.439	15.155	868.280	652.888
271.453	15.178	867.909	652.640
272.468	15.228	867.044	652.128
273.482	15.158	866.543	651.420
274.497	15.212	865.681	650.926
275.512	15.265	865.277	650.770
276.526	15.377	864.406	650.491
277.541	15.335	863.920	649.903
278.555	15.365	863.494	649.642
279.570	15.390	862.682	649.071
280.585	15.324	862.464	648.592
281.599	15.306	861.511	647.748
282.614	15.269	860.811	647.025
283.628	15.353	859.896	646.601
284.643	15.361	859.622	646.369
285.657	15.438	858.804	645.994
286.672	15.508	858.071	645.655
287.687	15.437	857.802	645.123
288.701	15.362	857.251	644.362
289.716	15.434	856.721	644.185
290.730	15.433	856.077	643.640
291.745	15.476	855.479	643.297
292.760	15.627	854.932	643.406
293.774	15.508	854.444	642.528
294.789	15.470	853.865	641.888
295.803	15.596	852.742	641.468
296.818	15.437	852.143	640.354
297.833	15.537	851.500	640.197
298.847	15.578	850.967	639.896
299.862	15.573	850.579	639.527
300.876	15.737	850.111	639.743
301.891	15.728	849.475	639.174
302.906	15.691	849.035	638.648
303.920	15.739	848.335	638.244
304.935	15.727	847.556	637.557
305.949	15.782	847.168	637.418
306.964	15.837	846.476	637.047
307.979	15.857	845.845	636.593
308.993	15.964	845.144	636.412
310.008	15.958	844.747	636.034
311.022	15.853	844.118	635.109
312.037	15.756	843.879	634.506
313.052	15.781	843.281	634.095
314.066	15.846	842.952	634.036
315.081	15.863	842.079	633.390
316.095	15.881	841.254	632.781
317.110	15.841	840.781	632.217
318.125	15.794	840.686	631.915
319.139	15.936	840.025	631.895
320.154	15.925	839.897	631.700
321.168	15.869	838.981	630.744
322.183	16.045	838.340	630.866
323.197	15.927	837.855	630.004
324.212	16.069	837.305	630.065
325.227	15.773	837.254	628.866
326.241	15.894	836.060	628.365
327.256	15.863	835.618	627.860
328.270	15.930	834.922	627.533
329.285	15.829	834.828	627.030
330.300	15.765	834.422	626.433
331.314	16.000	833.248	626.369
332.329	16.021	832.865	626.102
333.343	16.041	832.526	625.868
334.358	16.006	832.287	625.500
335.373	15.904	831.919	624.791
336.387	16.013	831.720	624.991
337.402	16.157	831.100	625.005
338.416	16.043	831.011	624.458
339.431	16.298	830.443	624.922
340.446	16.215	829.946	624.184
341.460	16.219	829.702	623.961
342.475	16.265	828.781	623.383
343.489	16.278	828.671	623.291
344.504	16.299	827.855	622.701
345.519	16.360	827.893	622.898
346.533	16.437	827.195	622.603
347.548	16.432	826.506	622.012
348.562	16.179	826.341	620.900
349.577	16.342	825.408	620.744
350.592	16.343	824.831	620.257
351.606	16.286	824.215	619.533
352.621	16.181	823.630	618.650
353.635	16.346	822.950	618.691
354.650	16.405	822.330	618.386
355.665	16.341	821.698	617.622
356.679	16.406	821.105	617.359
357.694	16.337	820.689	616.739
358.708	16.448	820.132	616.671
359.723	16.464	819.513	616.208
360.738	16.401	818.861	615.434
361.752	16.557	817.914	615.238
362.767	16.547	817.552	614.876
363.781	16.533	817.082	614.413
364.796	16.535	816.762	614.128
365.810	16.550	816.199	613.704
366.825	16.828	815.424	614.075
367.840	16.740	815.320	613.623
368.854	16.796	814.942	613.486
369.869	16.727	814.390	612.769
370.883	16.670	814.036	612.242
371.898	16.698	813.782	612.097
372.913	16.724	813.291	611.769
373.927	16.822	812.754	611.664
374.942	16.896	812.469	611.662
375.956	16.853	812.084	611.161
376.971	16.978	811.206	610.897
377.986	17.045	810.867	610.829
379.000	17.014	810.564	610.435
380.015	16.981	809.704	609.616
381.029	17.049	809.367	609.552
382.044	16.970	808.661	608.684
383.059	16.956	808.304	608.311
384.073	16.939	807.896	607.888
385.088	16.903	807.204	607.184
386.102	17.086	806.599	607.332
387.117	17.004	805.989	606.526
388.132	16.997	805.762	606.275
389.146	16.974	805.152	605.680
390.161	16.898	804.764	605.065
391.175	17.199	804.018	605.521
392.190	16.920	803.668	604.211
393.205	17.008	803.210	604.126
394.219	17.135	802.735	604.167
395.234	17.087	802.289	603.608
396.248	17.046	801.983	603.177
397.263	17.065	801.421	602.768
398.278	16.931	801.249	602.111
399.292	17.183	800.579	602.448
400.307	16.987	800.477	601.622
401.321	17.061	799.445	601.056
402.336	17.175	799.107	601.152
403.350	17.110	798.844	600.672
404.365	17.180	798.800	600.833
405.380	17.106	798.004	599.919
406.394	17.280	797.341	599.981
407.409	17.273	797.233	599.825
408.423	17.212	796.773	599.210
409.438	17.444	796.411	599.704
410.453	17.445	795.902	599.270
411.467	17.498	795.039	598.752
412.482	17.504	794.872	598.596
413.496	17.405	794.623	598.007
414.511	17.499	794.188	597.956
415.526	17.551	793.800	597.796
416.540	17.604	793.508	597.707
417.555	17.634	792.963	597.348
418.569	17.532	792.835	596.842
419.584	17.412	792.029	595.761
420.599	17.508	791.318	595.509
421.613	109.726	1291.056	1465.631
422.628	94.217	1363.865	1465.717
