DTS Sentinel unit serial number:	SN413079Multiplexer serial number:	ORYXHardware model number:	OX4-SRSoftware version number:	ORYX F/W v4.00 Oryx Data Collector v3.7.2.0data status	okinstallation	princeton_trtdifferential loss correction	single-endedforward channel	channel 1reverse channel	N/Adate	2019/09/18time	02:02:35forward acquisition time	60.00reverse acquisition time	0.00gamma	496.2192k internal	0.2341k external	0.2341temperature offset calibration	0.9975default loss term (dB/km)	0.3790temperature slope calibration	1.0000multiplexer offset coefficient	1.0000multiplexer slope coefficient	1.0000fibre end	0.00T internal ref (°C)	22.89T ext. ref 1 (°C)	0.16T ext. ref 2 (°C)	16.72length (m)	temperature (°C)	Stokes	anti-Stokes-747.200	-66.595	0.207	0.082
-746.185	-129.146	-0.158	-0.022
-745.171	-68.956	0.271	-0.105
-744.156	800.000	0.048	0.142
-743.142	142.111	0.210	-0.279
-742.127	800.000	0.082	-0.297
-741.112	101.069	-0.086	-0.100
-740.098	-200.000	0.006	0.510
-739.083	193.283	0.075	-0.114
-738.069	-74.261	-0.268	0.097
-737.054	112.131	0.121	-0.146
-736.039	44.236	-0.159	-0.146
-735.025	-200.000	-0.020	-0.139
-734.010	-152.957	-0.260	0.018
-732.996	-181.035	-0.214	0.004
-731.981	204.929	0.060	-0.093
-730.966	-11.360	-0.213	0.140
-729.952	-116.856	-0.151	-0.028
-728.937	49.790	0.147	-0.139
-727.923	677.986	-0.050	0.129
-726.908	-18.424	0.098	0.061
-725.894	286.305	0.055	-0.100
-724.879	-184.802	-0.186	-0.003
-723.864	-200.000	-0.028	0.142
-722.850	-26.917	0.160	0.094
-721.835	800.000	-0.121	-0.367
-720.821	221.517	0.205	-0.329
-719.806	-49.804	-0.120	-0.057
-718.791	-65.840	0.191	-0.077
-717.777	-78.913	0.152	-0.052
-716.762	-200.000	0.016	0.081
-715.748	-200.000	0.020	0.612
-714.733	15.871	0.177	-0.139
-713.718	277.967	0.155	-0.276
-712.704	-200.000	-0.021	-0.105
-711.689	543.248	0.157	-0.374
-710.675	198.953	-0.090	-0.138
-709.660	-133.422	-0.102	0.013
-708.645	21.006	0.294	-0.239
-707.631	-200.000	-0.003	0.132
-706.616	131.624	0.124	0.159
-705.602	-140.217	-0.183	0.019
-704.587	-2.689	0.139	-0.097
-703.572	-200.000	-0.021	0.148
-702.558	125.070	-0.079	-0.099
-701.543	25.700	0.148	-0.124
-700.529	-200.000	0.004	-0.027
-699.514	-178.792	0.293	0.007
-698.499	-81.253	-0.319	0.105
-697.485	-200.000	-0.044	0.000
-696.470	-122.889	-0.327	-0.053
-695.456	800.000	0.048	0.187
-694.441	800.000	0.063	-0.191
-693.426	-200.000	0.023	0.252
-692.412	215.204	-0.031	-0.049
-691.397	227.735	0.044	-0.072
-690.383	218.045	0.202	-0.322
-689.368	557.640	0.105	-0.254
-688.354	-181.374	0.295	0.006
-687.339	-78.287	-0.265	-0.091
-686.324	124.214	-0.147	-0.185
-685.310	-133.818	-0.039	-0.005
-684.295	800.000	-0.038	0.153
-683.281	-74.173	-0.055	-0.020
-682.266	800.000	-0.115	0.411
-681.251	-87.540	0.198	-0.060
-680.237	-42.454	-0.152	0.078
-679.222	800.000	-0.071	-0.203
-678.208	-52.035	-0.286	-0.133
-677.193	-169.920	0.295	0.011
-676.178	800.000	-0.087	0.247
-675.164	-2.299	-0.375	0.263
-674.149	59.466	-0.261	0.257
-673.135	-12.434	0.350	0.229
-672.120	195.973	0.034	-0.052
-671.105	-200.000	0.022	-0.176
-670.091	-120.870	-0.194	0.033
-669.076	-111.754	0.331	0.067
-668.062	-194.123	-0.145	0.001
-667.047	800.000	0.085	0.340
-666.032	469.555	-0.076	0.171
-665.018	-175.207	-0.135	-0.004
-664.003	-77.930	-0.508	-0.175
-662.989	-138.184	-0.168	-0.019
-661.974	187.927	0.187	-0.279
-660.959	-27.043	0.305	-0.178
-659.945	-23.727	-0.309	-0.185
-658.930	-43.087	-0.264	-0.134
-657.916	-157.878	0.214	0.013
-656.901	-135.207	0.105	0.013
-655.886	800.000	-0.177	-0.528
-654.872	-185.871	0.100	0.001
-653.857	162.836	-0.358	-0.501
-652.843	-121.159	-0.224	-0.037
-651.828	-106.054	-0.352	0.079
-650.814	800.000	0.068	0.251
-649.799	-184.694	-0.241	0.004
-648.784	-200.000	-0.001	-0.387
-647.770	800.000	-0.140	0.396
-646.755	24.694	-0.152	-0.126
-645.741	58.990	0.084	0.082
-644.726	-177.707	-0.080	0.002
-643.711	-11.045	0.121	0.079
-642.697	-200.000	-0.024	-0.177
-641.682	65.806	0.099	-0.100
-640.668	-169.908	-0.104	0.004
-639.653	299.662	-0.259	0.477
-638.638	-200.000	0.050	-0.317
-637.624	298.518	0.119	-0.218
-636.609	-147.809	-0.039	0.003
-635.595	800.000	0.025	-0.070
-634.580	543.284	-0.079	0.188
-633.565	-161.528	0.206	0.011
-632.551	-134.242	0.290	0.036
-631.536	-64.110	-0.071	-0.029
-630.522	39.325	-0.232	-0.207
-629.507	22.909	-0.323	0.264
-628.492	800.000	-0.025	-0.073
-627.478	208.020	0.078	0.121
-626.463	-200.000	0.057	0.360
-625.449	-200.000	-0.014	-0.091
-624.434	800.000	0.038	0.125
-623.419	-151.338	-0.332	-0.025
-622.405	-8.743	0.413	-0.276
-621.390	-145.432	0.194	0.017
-620.376	-200.000	-0.007	-0.178
-619.361	-56.698	-0.219	-0.097
-618.346	320.162	0.025	-0.048
-617.332	0.252	-0.099	-0.071
-616.317	-81.435	-0.134	0.044
-615.303	488.911	0.119	-0.272
-614.288	-57.494	0.240	0.105
-613.273	-34.423	0.094	-0.051
-612.259	-181.615	0.139	-0.003
-611.244	800.000	-0.139	-0.415
-610.230	-106.351	-0.104	0.023
-609.215	93.134	-0.103	0.116
-608.201	315.570	-0.085	0.161
-607.186	-200.000	0.043	-0.247
-606.171	-132.982	0.233	-0.030
-605.157	800.000	-0.027	0.078
-604.142	-73.545	-0.184	0.067
-603.128	-200.000	0.007	-0.179
-602.113	294.320	0.106	-0.193
-601.098	-8.637	0.320	0.214
-600.084	136.150	-0.242	0.314
-599.069	-200.000	-0.053	-0.443
-598.055	338.173	0.106	-0.205
-597.040	542.181	-0.108	-0.257
-596.025	184.588	0.028	-0.042
-595.011	71.627	0.189	0.196
-593.996	367.902	0.097	-0.195
-592.982	23.192	-0.113	0.093
-591.967	30.311	-0.260	-0.222
-590.952	-200.000	-0.005	0.127
-589.938	96.174	0.159	-0.181
-588.923	316.530	-0.080	-0.151
-587.909	47.876	-0.176	0.164
-586.894	-21.660	0.133	0.081
-585.879	-6.060	-0.119	-0.081
-584.865	-27.996	0.219	-0.126
-583.850	139.096	-0.185	-0.242
-582.836	800.000	-0.029	-0.123
-581.821	800.000	0.071	-0.212
-580.806	-67.058	-0.111	-0.044
-579.792	351.210	0.135	-0.265
-578.777	-48.845	0.103	-0.049
-577.763	-76.923	-0.212	-0.074
-576.748	61.364	0.119	0.118
-575.733	800.000	0.043	-0.151
-574.719	-103.717	-0.235	-0.055
-573.704	-115.763	-0.312	0.058
-572.690	50.875	-0.157	-0.148
-571.675	-200.000	0.014	0.172
-570.661	-200.000	0.002	0.042
-569.646	174.126	-0.055	-0.080
-568.631	165.069	-0.104	-0.146
-567.617	151.925	-0.160	0.218
-566.602	178.084	0.117	0.170
-565.588	439.222	0.093	0.203
-564.573	-76.027	-0.367	-0.129
-563.558	-111.081	0.256	-0.052
-562.544	48.052	-0.053	0.049
-561.529	49.903	-0.098	-0.092
-560.515	-200.000	-0.011	0.101
-559.500	574.655	0.090	-0.220
-558.485	-84.327	0.256	-0.081
-557.471	-87.738	-0.300	0.090
-556.456	-78.981	-0.135	0.046
-555.442	78.847	0.116	0.123
-554.427	118.250	0.152	-0.187
-553.412	-40.210	0.230	-0.119
-552.398	-77.702	0.073	-0.025
-551.383	-83.144	0.158	-0.051
-550.369	325.371	-0.059	-0.112
-549.354	462.372	0.116	0.257
-548.339	-18.150	0.182	-0.113
-547.325	800.000	-0.058	-0.175
-546.310	-27.464	0.290	0.168
-545.296	482.645	0.060	-0.135
-544.281	-121.651	-0.126	-0.021
-543.266	-148.489	-0.077	-0.006
-542.252	-120.358	-0.446	0.075
-541.237	800.000	-0.067	0.283
-540.223	-132.228	0.029	0.004
-539.208	22.239	-0.142	-0.115
-538.193	-95.619	0.146	-0.039
-537.179	-108.977	-0.214	-0.045
-536.164	-200.000	-0.023	-0.153
-535.150	-200.000	0.043	-0.417
-534.135	34.020	0.220	-0.190
-533.121	338.046	0.057	0.110
-532.106	155.075	0.130	-0.178
-531.091	-119.958	0.125	-0.021
-530.077	-29.060	0.259	-0.148
-529.062	433.066	-0.099	0.213
-528.048	-87.052	-0.108	-0.033
-527.033	-111.309	0.176	-0.036
-526.018	-86.112	0.499	0.153
-525.004	290.217	0.212	0.382
-523.989	377.240	-0.188	0.381
-522.975	-145.502	-0.143	0.013
-521.960	-200.000	0.001	-0.407
-520.945	-63.472	-0.140	-0.057
-519.931	166.784	-0.199	-0.281
-518.916	800.000	-0.068	0.278
-517.902	280.419	0.161	-0.287
-516.887	2.749	-0.389	-0.280
-515.872	626.872	0.125	0.312
-514.858	8.680	0.019	-0.014
-513.843	-141.490	-0.277	0.028
-512.829	-111.633	-0.235	0.047
-511.814	-200.000	-0.005	-0.034
-510.799	-133.323	-0.215	-0.027
-509.785	-139.360	-0.132	-0.014
-508.770	-24.379	0.153	-0.090
-507.756	-191.329	-0.279	-0.003
-506.741	-200.000	-0.009	-0.082
-505.726	800.000	-0.015	0.054
-504.712	5.332	0.044	0.032
-503.697	-23.511	-0.125	0.075
-502.683	800.000	-0.109	-0.312
-501.668	-138.253	0.042	0.005
-500.653	-200.000	-0.003	-0.149
-499.639	-74.926	-0.231	0.082
-498.624	55.418	0.165	0.158
-497.610	546.702	0.125	0.296
-496.595	130.545	-0.045	0.057
-495.581	-200.000	-0.025	0.263
-494.566	447.415	0.057	-0.124
-493.551	301.172	0.028	-0.051
-492.537	-25.498	-0.188	0.110
-491.522	135.046	0.112	-0.145
-490.508	-200.000	-0.065	-0.437
-489.493	800.000	0.024	0.089
-488.478	185.022	0.032	0.047
-487.464	92.232	-0.166	0.186
-486.449	-200.000	-0.032	-0.223
-485.435	-150.186	-0.315	-0.024
-484.420	210.200	0.167	0.260
-483.405	-200.000	0.039	0.233
-482.391	-29.059	-0.201	0.115
-481.376	-47.424	0.407	0.196
-480.362	-59.567	0.333	0.142
-479.347	-46.065	0.081	-0.039
-478.332	44.275	0.200	-0.182
-477.318	-125.477	-0.211	-0.032
-476.303	800.000	0.045	-0.145
-475.289	161.829	0.021	-0.029
-474.274	-200.000	0.027	-0.253
-473.259	-200.000	0.044	-0.193
-472.245	446.964	-0.085	0.186
-471.230	-200.000	-0.050	-0.250
-470.216	85.563	-0.114	-0.124
-469.201	-113.597	-0.205	-0.040
-468.186	-19.270	-0.140	-0.086
-467.172	97.627	-0.101	-0.115
-466.157	-200.000	-0.041	-0.411
-465.143	-34.817	0.196	-0.106
-464.128	800.000	-0.114	-0.341
-463.113	670.827	-0.023	-0.058
-462.099	-35.912	0.121	-0.065
-461.084	69.801	-0.197	0.201
-460.070	278.019	-0.013	0.023
-459.055	-38.942	0.121	0.063
-458.040	-100.021	-0.467	0.115
-457.026	-200.000	0.004	0.081
-456.011	54.072	-0.141	-0.134
-454.997	65.906	-0.095	0.095
-453.982	-55.534	-0.185	0.082
-452.968	222.935	-0.145	0.232
-451.953	-72.448	-0.145	0.053
-450.938	-200.000	0.002	0.206
-449.924	247.054	-0.204	0.340
-448.909	800.000	-0.111	-0.435
-447.895	7.452	-0.182	-0.135
-446.880	-200.000	0.032	-0.725
-445.865	-113.842	-0.184	-0.035
-444.851	800.000	-0.049	-0.172
-443.836	-200.000	-0.027	-0.171
-442.822	197.608	-0.143	-0.216
-441.807	-135.214	0.099	-0.012
-440.792	-200.000	0.004	-0.328
-439.778	233.719	-0.106	0.174
-438.763	-198.966	-0.110	-0.001
-437.749	276.907	0.044	-0.078
-436.734	45.048	-0.205	-0.187
-435.719	-37.719	0.260	-0.137
-434.705	651.017	-0.026	-0.066
-433.690	-200.000	0.009	-0.209
-432.676	-105.062	-0.205	-0.046
-431.661	800.000	-0.050	0.151
-430.646	-200.000	-0.010	0.107
-429.632	97.600	-0.033	0.038
-428.617	298.387	0.069	0.126
-427.603	91.819	-0.095	0.106
-426.588	-125.871	0.492	-0.073
-425.573	27.933	-0.106	-0.089
-424.559	-91.670	0.158	0.045
-423.544	-12.977	0.204	0.131
-422.530	800.000	0.021	0.074
-421.515	157.780	0.073	0.100
-420.500	800.000	0.050	0.169
-419.486	17.066	0.190	-0.149
-418.471	51.762	-0.023	-0.021
-417.457	-200.000	0.019	0.333
-416.442	800.000	-0.028	-0.108
-415.428	21.245	0.187	-0.150
-414.413	-85.223	0.048	-0.015
-413.398	-5.033	0.354	0.241
-412.384	-84.941	-0.227	0.070
-411.369	-80.341	-0.115	0.038
-410.355	316.302	-0.035	0.065
-409.340	-44.697	-0.163	0.081
-408.325	148.646	0.142	-0.189
-407.311	-116.797	-0.139	-0.025
-406.296	-200.000	-0.090	-0.401
-405.282	-0.478	0.336	-0.236
-404.267	788.137	0.036	0.097
-403.252	-52.187	0.070	0.032
-402.238	-200.000	0.001	-0.201
-401.223	-99.743	0.192	-0.048
-400.209	-102.183	-0.070	-0.017
-399.194	-200.000	0.006	0.119
-398.179	-55.163	0.123	0.055
-397.165	383.758	-0.085	0.172
-396.150	252.116	0.065	-0.110
-395.136	-200.000	0.037	0.170
-394.121	-96.232	-0.385	0.101
-393.106	-110.619	-0.235	-0.048
-392.092	-177.597	0.235	-0.006
-391.077	-200.000	0.015	-0.125
-390.063	-58.489	0.372	0.160
-389.048	622.644	-0.142	0.353
-388.033	-200.000	-0.033	0.456
-387.019	-200.000	0.028	-0.213
-386.004	403.325	-0.111	-0.230
-384.990	-42.559	-0.358	-0.180
-383.975	254.998	0.107	0.181
-382.960	605.549	0.115	-0.283
-381.946	-144.362	-0.142	-0.013
-380.931	-170.084	-0.186	0.007
-379.917	92.111	0.137	0.152
-378.902	130.485	-0.140	-0.177
-377.888	-68.645	0.269	-0.103
-376.873	-24.997	0.196	-0.115
-375.858	-33.776	0.274	-0.149
-374.844	1.179	-0.226	-0.160
-373.829	-30.408	0.078	0.044
-372.815	123.338	0.099	0.122
-371.800	235.662	-0.138	0.226
-370.785	130.835	0.161	-0.205
-369.771	-200.000	0.056	0.310
-368.756	-200.000	0.075	-0.375
-367.742	163.292	0.146	0.203
-366.727	-52.175	-0.192	0.088
-365.712	-200.000	-0.036	0.244
-364.698	-153.593	0.344	-0.023
-363.683	24.481	-0.164	0.134
-362.669	800.000	-0.050	0.145
-361.654	157.689	0.038	0.052
-360.639	39.291	0.168	0.149
-359.625	-96.789	0.070	0.018
-358.610	169.723	0.086	0.121
-357.596	-89.279	0.181	0.053
-356.581	87.991	-0.072	0.078
-355.566	63.699	-0.206	0.205
-354.552	-23.995	-0.341	0.201
-353.537	299.922	-0.146	-0.266
-352.523	-72.032	-0.175	0.064
-351.508	-200.000	-0.045	0.272
-350.493	-200.000	0.121	0.534
-349.479	-200.000	0.001	-0.053
-348.464	-157.798	-0.094	0.005
-347.450	-200.000	-0.007	0.107
-346.435	205.055	0.217	0.332
-345.420	-45.228	0.379	0.186
-344.406	5.858	-0.119	0.087
-343.391	-123.613	0.336	0.053
-342.377	513.301	-0.064	0.147
-341.362	-21.466	0.055	-0.033
-340.348	-51.059	0.121	0.056
-339.333	-65.176	-0.062	-0.025
-338.318	-41.567	0.221	-0.112
-337.304	542.519	-0.150	0.352
-336.289	-97.334	-0.448	-0.115
-335.275	-200.000	0.025	-0.227
-334.260	-94.853	0.441	0.118
-333.245	176.846	0.148	0.213
-332.231	-194.786	-0.406	0.003
-331.216	-200.000	-0.077	0.387
-330.202	-142.757	0.294	-0.028
-329.187	-104.577	-0.277	0.063
-328.172	554.351	0.126	-0.298
-327.158	520.609	-0.033	-0.077
-326.143	-151.342	0.327	0.024
-325.129	139.258	0.044	-0.058
-324.114	-23.405	-0.086	-0.051
-323.099	-138.307	-0.184	-0.020
-322.085	-88.860	0.504	0.147
-321.070	-114.913	0.388	0.073
-320.056	-200.000	0.017	0.075
-319.041	-143.511	0.359	-0.034
-318.026	-21.008	0.478	0.288
-317.012	20.105	-0.173	0.137
-315.997	-121.293	0.264	0.043
-314.983	24.162	-0.214	-0.175
-313.968	800.000	-0.067	0.200
-312.953	800.000	-0.084	-0.330
-311.939	-71.060	-0.204	0.076
-310.924	41.411	0.204	-0.182
-309.910	-37.890	-0.139	-0.073
-308.895	180.639	0.102	-0.148
-307.880	-103.120	-0.143	0.033
-306.866	-61.097	-0.293	0.122
-305.851	-81.288	-0.212	0.069
-304.837	114.226	0.127	-0.152
-303.822	-71.926	-0.498	0.183
-302.807	-177.209	-0.036	-0.001
-301.793	-139.902	-0.538	0.056
-300.778	-103.318	0.183	0.043
-299.764	-79.039	0.042	0.014
-298.749	20.961	0.140	0.112
-297.735	-168.843	-0.216	-0.008
-296.720	177.784	0.230	0.330
-295.705	358.040	0.054	0.106
-294.691	24.689	0.190	-0.155
-293.676	-200.000	-0.024	0.225
-292.662	800.000	-0.018	0.079
-291.647	429.993	-0.078	0.166
-290.632	-200.000	0.019	-0.148
-289.618	-14.943	0.130	0.082
-288.603	-200.000	0.025	-0.124
-287.589	100.575	-0.199	-0.228
-286.574	-103.681	-0.162	-0.037
-285.559	87.001	0.053	0.058
-284.545	-200.000	0.003	0.088
-283.530	-200.000	0.035	-0.230
-282.516	-200.000	0.028	0.142
-281.501	591.272	0.096	-0.233
-280.486	346.358	-0.074	0.143
-279.472	-59.972	-0.055	-0.023
-278.457	-200.000	0.027	0.160
-277.443	-200.000	0.005	-0.023
-276.428	-200.000	0.046	0.352
-275.413	397.457	-0.210	0.433
-274.399	51.243	-0.121	-0.113
-273.384	-27.146	-0.188	0.108
-272.370	61.646	0.166	-0.163
-271.355	-200.000	-0.016	0.142
-270.340	-82.905	0.342	0.109
-269.326	-49.364	-0.103	-0.048
-268.311	800.000	0.134	0.422
-267.297	-200.000	0.010	0.061
-266.282	-55.819	-0.297	-0.130
-265.267	-88.134	-0.211	-0.062
-264.253	-93.731	0.094	0.026
-263.238	-21.214	0.162	0.097
-262.224	483.383	0.112	0.250
-261.209	-134.929	0.281	0.033
-260.195	-64.623	-0.285	0.114
-259.180	447.372	-0.080	0.173
-258.165	-200.000	0.017	0.111
-257.151	-200.000	0.167	-0.001
-256.136	-82.149	-0.132	-0.042
-255.122	-120.781	0.087	-0.014
-254.107	333.275	-0.024	-0.045
-253.092	-75.781	0.118	-0.041
-252.078	21.444	0.119	0.095
-251.063	-200.000	0.053	0.319
-250.049	58.888	-0.075	0.072
-249.034	-145.038	0.451	-0.040
-248.019	-200.000	0.008	0.124
-247.005	333.831	-0.093	0.178
-245.990	139.809	0.069	0.090
-244.976	800.000	-0.104	0.370
-243.961	800.000	0.020	-0.071
-242.946	-200.000	0.010	0.074
-241.932	-91.514	0.284	-0.080
-240.917	236.652	0.110	0.179
-239.903	-13.156	-0.160	-0.102
-238.888	143.836	-0.122	0.159
-237.873	-172.455	0.262	0.008
-236.859	-102.005	-0.231	0.055
-235.844	-78.367	-0.178	0.060
-234.830	800.000	0.065	-0.207
-233.815	11.599	-0.210	0.158
-232.800	-159.395	-0.306	0.017
-231.786	357.582	-0.174	-0.341
-230.771	414.906	-0.074	-0.155
-229.757	-70.856	0.065	-0.024
-228.742	249.521	0.246	0.409
-227.727	147.185	0.088	0.116
-226.713	459.217	0.079	-0.173
-225.698	446.284	-0.074	-0.160
-224.684	201.272	0.129	0.196
-223.669	29.132	-0.144	-0.120
-222.655	800.000	0.030	0.099
-221.640	-76.539	0.364	-0.126
-220.625	110.646	-0.134	-0.159
-219.611	-57.621	0.148	-0.064
-218.596	-200.000	0.002	-0.213
-217.582	800.000	0.014	0.042
-216.567	-72.628	0.344	-0.124
-215.552	-66.379	0.133	-0.052
-214.538	-200.000	0.004	-0.171
-213.523	-17.842	-0.128	0.079
-212.509	-14.267	0.130	0.082
-211.494	-43.332	0.066	-0.033
-210.479	800.000	0.060	-0.183
-209.465	-3.179	-0.325	0.222
-208.450	500.310	-0.052	-0.118
-207.436	209.698	-0.068	-0.104
-206.421	52.020	-0.046	-0.043
-205.406	2.787	0.184	0.131
-204.392	-194.271	-0.223	0.002
-203.377	22.978	-0.199	0.160
-202.363	-45.983	0.280	-0.135
-201.348	-42.082	0.317	-0.159
-200.333	-51.451	0.053	0.024
-199.319	-7.486	-0.127	-0.085
-198.304	-134.750	0.217	0.026
-197.290	-200.000	-0.035	-0.200
-196.275	-98.406	-0.138	0.035
-195.260	34.405	-0.398	-0.341
-194.246	-200.000	-0.022	-0.265
-193.231	21.082	-0.206	-0.164
-192.217	-95.568	0.380	-0.100
-191.202	800.000	-0.137	-0.412
-190.187	44.678	-0.269	-0.242
-189.173	317.500	0.057	0.105
-188.158	-100.850	0.507	0.122
-187.144	-200.000	0.005	0.112
-186.129	-200.000	-0.142	0.000
-185.114	437.690	-0.077	-0.164
-184.100	-200.000	0.044	0.256
-183.085	199.621	-0.134	0.201
-182.071	800.000	0.086	0.278
-181.056	61.815	0.090	0.087
-180.042	-54.772	0.229	0.102
-179.027	-74.317	-0.012	-0.004
-178.012	474.913	0.030	0.066
-176.998	247.692	0.117	0.194
-175.983	-195.936	-0.107	-0.001
-174.969	800.000	-0.057	0.187
-173.954	4.992	0.122	0.088
-172.939	-200.000	0.030	0.155
-171.925	-95.504	-0.163	0.043
-170.910	-96.050	0.219	0.057
-169.896	-147.374	0.116	-0.010
-168.881	233.159	-0.034	-0.054
-167.866	9.758	0.190	-0.141
-166.852	259.433	-0.147	-0.248
-165.837	-143.342	0.347	-0.033
-164.823	-200.000	-0.001	0.142
-163.808	81.320	0.165	-0.175
-162.793	-74.408	-0.297	0.105
-161.779	-200.000	-0.010	0.071
-160.764	702.518	-0.045	-0.117
-159.750	265.410	-0.026	0.045
-158.735	296.667	-0.073	-0.131
-157.720	800.000	0.047	0.185
-156.706	-131.319	0.299	0.039
-155.691	-4.160	-0.187	0.127
-154.677	-56.064	-0.096	0.042
-153.662	59.015	0.092	-0.089
-152.647	135.255	0.080	-0.102
-151.633	-68.676	0.071	-0.027
-150.618	-199.474	-0.204	-0.001
-149.604	-52.626	0.352	-0.159
-148.589	52.441	-0.206	0.193
-147.574	482.061	0.199	-0.442
-146.560	-62.041	0.341	-0.139
-145.545	33.964	0.253	-0.215
-144.531	-200.000	0.050	0.267
-143.516	-200.000	0.011	0.051
-142.502	5.148	-0.067	0.048
-141.487	800.000	0.041	0.146
-140.472	91.408	-0.264	-0.290
-139.458	-200.000	-0.002	-0.286
-138.443	114.585	0.118	-0.141
-137.429	-136.700	0.588	0.066
-136.414	800.000	-0.020	-0.063
-135.399	-126.698	0.255	-0.037
-134.385	-91.042	0.117	-0.033
-133.370	30.796	-0.181	0.152
-132.356	-177.284	0.043	0.001
-131.341	108.478	0.053	0.062
-130.326	48.992	-0.042	-0.038
-129.312	102.043	0.089	-0.102
-128.297	-200.000	-0.010	0.130
-127.283	284.746	0.109	-0.191
-126.268	-62.702	0.305	-0.124
-125.253	-184.229	0.073	0.001
-124.239	339.424	-0.073	0.139
-123.224	322.605	-0.139	-0.259
-122.210	-86.950	-0.130	-0.039
-121.195	800.000	-0.083	-0.276
-120.180	-175.574	0.291	-0.008
-119.166	-130.081	0.262	0.035
-118.151	128.380	-0.051	0.063
-117.137	460.470	-0.146	0.319
-116.122	-200.000	-0.008	0.080
-115.107	-200.000	-0.018	0.109
-114.093	82.518	0.223	0.237
-113.078	144.736	0.246	-0.321
-112.064	719.153	0.093	0.242
-111.049	75.237	-0.118	0.121
-110.034	84.865	0.214	-0.230
-109.020	-200.000	-0.003	-0.076
-108.005	-200.000	0.003	0.261
-106.991	-119.257	-0.262	0.045
-105.976	800.000	0.082	-0.324
-104.962	-41.692	-0.133	0.067
-103.947	-128.573	-0.028	0.004
-102.932	38.379	0.354	0.308
-101.918	-94.958	-0.260	0.069
-100.903	746.265	-0.063	0.166
-99.889	-11.019	0.348	-0.225
-98.874	-108.273	-0.383	-0.081
-97.859	-105.780	-0.198	0.044
-96.845	800.000	-0.087	-0.351
-95.830	-97.931	0.322	0.081
-94.816	358.097	-0.069	-0.134
-93.801	800.000	-0.030	0.095
-92.786	-200.000	0.015	0.234
-91.772	-123.189	0.353	-0.055
-90.757	800.000	-0.050	0.156
-89.743	334.942	0.024	-0.045
-88.728	84.431	0.102	0.109
-87.713	157.193	-0.209	-0.283
-86.699	-50.715	-0.306	-0.141
-85.684	29.752	-0.130	0.108
-84.670	4.373	0.207	0.149
-83.655	-69.624	0.299	-0.112
-82.640	-101.950	0.162	0.038
-81.626	184.118	-0.258	0.373
-80.611	204.775	-0.054	-0.082
-79.597	-152.145	0.096	-0.007
-78.582	800.000	-0.086	0.329
-77.567	-156.611	-0.309	-0.019
-76.553	-130.989	0.515	-0.067
-75.538	-200.000	-0.043	-0.263
-74.524	791.920	-0.082	-0.220
-73.509	78.964	0.183	0.192
-72.494	-200.000	0.058	0.462
-71.480	24.043	-0.159	0.128
-70.465	65.623	0.284	-0.281
-69.451	-55.360	-0.144	-0.063
-68.436	86.513	-0.149	-0.160
-67.422	235.733	-0.082	-0.132
-66.407	-115.961	-0.135	0.025
-65.392	800.000	-0.020	0.078
-64.378	-200.000	-0.011	0.061
-63.363	713.558	-0.115	0.298
-62.349	1.210	-0.160	0.112
-61.334	185.841	-1.076	-1.560
-60.319	146.803	0.879	1.153
-59.305	296.316	-0.732	-1.310
-58.290	800.000	0.518	1.491
-57.276	-200.000	0.359	1.548
-56.261	-200.000	126.827	672.908
-55.246	411.782	1600.663	3315.891
-54.232	139.089	2756.213	3535.618
-53.217	95.674	2159.400	2403.987
-52.203	34.269	1589.817	1352.755
-51.188	26.225	1333.086	1086.118
-50.173	23.817	1295.188	1041.111
-49.159	52.178	1365.765	1269.950
-48.144	48.727	1376.934	1259.518
-47.130	26.268	1324.945	1079.570
-46.115	23.076	1305.821	1045.114
-45.100	22.853	1300.850	1039.778
-44.086	22.802	1297.807	1037.005
-43.071	22.821	1295.493	1035.226
-42.057	22.741	1293.712	1033.294
-41.042	22.822	1291.964	1032.332
-40.027	22.738	1290.850	1030.913
-39.013	22.778	1288.414	1029.159
-37.998	22.837	1286.620	1028.028
-36.984	22.818	1285.080	1026.645
-35.969	22.850	1283.126	1025.228
-34.954	22.876	1281.277	1023.862
-33.940	22.843	1280.622	1023.106
-32.925	22.952	1278.925	1022.343
-31.911	22.954	1277.293	1021.010
-30.896	23.036	1276.124	1020.505
-29.881	23.051	1274.983	1019.641
-28.867	23.017	1273.485	1018.207
-27.852	22.920	1272.332	1016.686
-26.838	22.958	1270.848	1015.676
-25.823	22.983	1269.441	1014.658
-24.809	22.969	1268.162	1013.516
-23.794	23.013	1267.047	1012.833
-22.779	22.918	1265.639	1011.125
-21.765	22.928	1264.638	1010.344
-20.750	22.929	1263.193	1009.154
-19.736	22.913	1261.586	1007.736
-18.721	22.885	1260.573	1006.731
-17.706	22.917	1259.328	1005.876
-16.692	22.901	1258.173	1004.826
-15.677	22.876	1256.952	1003.665
-14.663	22.783	1255.926	1002.279
-13.648	22.806	1254.925	1001.574
-12.633	22.882	1254.067	1001.278
-11.619	22.846	1253.447	1000.540
-10.604	22.815	1252.707	999.735
-9.590	22.882	1251.123	998.810
-8.575	22.850	1250.135	997.798
-7.560	22.804	1249.850	997.271
-6.546	22.870	1248.774	996.748
-5.531	22.844	1248.186	996.088
-4.517	22.720	1247.955	995.166
-3.502	22.878	1246.431	994.804
-2.487	22.845	1245.381	993.739
-1.473	22.790	1241.232	990.079
-0.458	21.214	1226.799	969.786
0.556	16.200	1211.663	933.985
1.571	12.646	1219.745	920.293
2.586	12.046	1235.191	928.467
3.600	12.196	1222.984	920.050
4.615	8.743	1152.098	848.381
5.629	2.977	1081.483	767.570
6.644	0.342	1065.023	742.851
7.659	0.154	1063.230	740.608
8.673	0.090	1062.455	739.689
9.688	0.054	1061.031	738.453
10.702	0.251	1058.848	737.836
11.717	3.691	1063.098	757.627
12.731	10.586	1071.855	797.805
13.746	15.475	1078.180	826.567
14.761	16.714	1078.812	833.077
15.775	15.954	1077.438	828.208
16.790	14.894	1075.939	821.774
17.804	14.211	1073.921	816.809
18.819	13.911	1073.140	814.673
19.834	13.671	1072.508	812.946
20.848	13.479	1071.278	811.001
21.863	13.358	1070.079	809.426
22.877	13.149	1069.204	807.673
23.892	13.146	1068.748	807.241
24.907	13.107	1068.304	806.643
25.921	13.198	1066.972	806.010
26.936	13.106	1066.668	805.263
27.950	13.224	1065.337	804.762
28.965	13.189	1064.125	803.602
29.980	13.196	1063.199	802.866
30.994	13.351	1061.765	802.462
32.009	13.315	1060.971	801.617
33.023	13.473	1059.672	801.333
34.038	13.318	1059.064	800.053
35.053	13.334	1057.820	799.121
36.067	13.169	1057.438	797.964
37.082	13.320	1056.098	797.609
38.096	13.361	1055.581	797.345
39.111	13.200	1055.385	796.353
40.126	13.156	1053.734	794.821
41.140	13.248	1052.222	794.053
42.155	12.968	1051.448	792.057
43.169	13.122	1050.081	791.696
44.184	13.091	1049.156	790.776
45.199	13.068	1048.526	790.121
46.213	13.097	1047.370	789.320
47.228	13.110	1046.450	788.621
48.242	13.183	1045.082	787.865
49.257	13.197	1044.225	787.217
50.271	13.220	1043.447	786.674
51.286	13.293	1042.309	786.092
52.301	13.207	1041.690	785.146
53.315	13.132	1040.785	784.039
54.330	13.117	1039.567	782.981
55.344	13.150	1038.539	782.294
56.359	13.250	1037.673	782.043
57.374	13.118	1036.829	780.717
58.388	13.040	1036.072	779.710
59.403	12.915	1035.618	778.706
60.417	13.082	1034.493	778.581
61.432	13.087	1033.297	777.634
62.447	13.072	1032.794	777.114
63.461	12.951	1032.117	775.969
64.476	13.132	1030.591	775.604
65.490	13.103	1029.849	774.838
66.505	12.916	1030.029	774.030
67.520	13.071	1029.361	774.185
68.534	13.026	1028.205	773.037
69.549	13.112	1027.123	772.559
70.563	13.157	1026.299	772.078
71.578	13.056	1025.631	771.038
72.593	12.981	1025.441	770.475
73.607	12.901	1024.476	769.308
74.622	12.875	1023.823	768.632
75.636	13.010	1022.751	768.384
76.651	13.068	1021.911	767.955
77.666	12.956	1021.968	767.412
78.680	12.990	1021.056	766.818
79.695	13.064	1020.220	766.464
80.709	12.948	1019.733	765.490
81.724	13.041	1018.671	765.058
82.739	13.188	1017.837	765.045
83.753	13.214	1017.236	764.645
84.768	13.257	1016.069	763.900
85.782	13.248	1015.163	763.110
86.797	13.285	1014.410	762.644
87.812	13.114	1013.477	761.092
88.826	13.152	1012.599	760.538
89.841	13.173	1011.859	760.012
90.855	13.308	1010.953	759.882
91.870	13.451	1009.902	759.681
92.884	13.307	1009.214	758.437
93.899	13.276	1008.402	757.619
94.914	13.308	1007.871	757.297
95.928	13.420	1006.574	756.768
96.943	13.294	1005.837	755.572
97.957	13.199	1005.272	754.648
98.972	13.326	1004.001	754.207
99.987	13.196	1003.140	752.899
101.001	13.280	1001.974	752.342
102.016	13.299	1001.675	752.137
103.030	13.241	1000.970	751.277
104.045	13.244	999.670	750.246
105.060	13.256	998.994	749.731
106.074	13.140	998.237	748.569
107.089	13.330	996.614	748.145
108.103	13.186	996.507	747.349
109.118	13.136	995.496	746.296
110.133	13.134	994.551	745.512
111.147	13.015	994.049	744.536
112.162	13.276	992.461	744.456
113.176	13.282	991.918	744.009
114.191	13.232	991.293	743.251
115.206	13.332	990.195	742.811
116.220	13.160	989.817	741.686
117.235	13.203	988.589	740.894
118.249	13.183	987.981	740.283
119.264	13.202	987.225	739.734
120.279	13.165	986.452	738.927
121.293	13.174	985.366	738.088
122.308	13.154	984.393	737.203
123.322	13.218	983.778	736.964
124.337	13.250	982.756	736.276
125.352	13.191	981.966	735.355
126.366	13.225	980.659	734.465
127.381	13.122	979.600	733.148
128.395	13.231	978.415	732.681
129.410	13.223	977.692	732.038
130.424	13.279	976.638	731.433
131.439	13.309	976.256	731.213
132.454	13.232	975.249	730.054
133.468	13.297	974.397	729.639
134.483	13.210	973.614	728.604
135.497	13.290	972.801	728.286
136.512	13.251	972.335	727.702
137.527	13.251	971.090	726.704
138.541	13.259	970.518	726.246
139.556	13.313	969.873	725.937
140.570	13.349	969.104	725.453
141.585	13.309	968.251	724.577
142.600	13.365	967.242	724.003
143.614	13.469	966.375	723.745
144.629	13.471	965.610	723.117
145.643	13.449	964.507	722.132
146.658	13.381	963.230	720.812
147.673	13.384	962.835	720.466
148.687	13.246	962.271	719.380
149.702	13.409	960.886	718.988
150.716	13.321	960.642	718.362
151.731	13.364	959.963	717.977
152.746	13.298	959.148	717.017
153.760	13.313	958.710	716.691
154.775	13.500	958.044	716.940
155.789	13.579	957.407	716.740
156.804	13.456	956.815	715.703
157.819	13.522	955.792	715.158
158.833	13.614	955.074	714.958
159.848	13.572	954.422	714.222
160.862	13.552	953.420	713.324
161.877	13.400	952.431	711.869
162.892	13.454	951.625	711.434
163.906	13.587	950.734	711.277
164.921	13.516	949.585	710.050
165.935	13.533	948.877	709.529
166.950	13.497	948.336	708.910
167.964	13.605	947.252	708.497
168.979	13.590	946.096	707.506
169.994	13.468	945.514	706.489
171.008	13.542	944.851	706.247
172.023	13.657	944.107	706.118
173.037	13.585	943.990	705.662
174.052	13.635	942.940	705.027
175.067	13.661	942.176	704.504
176.081	13.619	941.723	703.921
177.096	13.561	940.903	703.002
178.110	13.594	940.180	702.539
179.125	13.596	940.091	702.421
180.140	13.620	939.575	702.072
181.154	13.671	938.758	701.617
182.169	13.723	938.420	701.521
183.183	13.624	937.983	700.714
184.198	13.684	937.299	700.397
185.213	13.864	935.958	700.090
186.227	13.778	935.339	699.201
187.242	13.827	934.932	699.041
188.256	13.961	933.925	698.790
189.271	13.738	933.514	697.486
190.286	13.759	932.691	696.897
191.300	13.673	931.793	695.803
192.315	13.836	931.410	696.138
193.329	13.738	930.833	695.236
194.344	13.742	930.125	694.660
195.359	13.751	929.667	694.294
196.373	13.860	928.683	693.955
197.388	13.852	928.597	693.797
198.402	14.084	927.730	694.054
199.417	14.011	927.166	693.269
200.432	13.957	926.936	692.809
201.446	14.101	926.210	692.805
202.461	14.127	925.658	692.437
203.475	14.053	925.123	691.671
204.490	13.956	924.268	690.566
205.504	14.089	923.647	690.595
206.519	13.922	922.746	689.164
207.534	13.913	922.057	688.553
208.548	14.167	921.286	688.967
209.563	14.075	920.651	688.053
210.577	14.115	920.502	688.045
211.592	14.114	919.361	687.126
212.607	14.265	918.504	687.048
213.621	14.191	917.924	686.250
214.636	14.204	917.056	685.592
215.650	14.281	916.555	685.474
216.665	14.274	915.583	684.657
217.680	14.347	915.114	684.548
218.694	14.290	914.481	683.781
219.709	14.214	914.154	683.164
220.723	14.322	912.937	682.635
221.738	14.322	912.123	681.966
222.753	14.255	912.065	681.589
223.767	14.272	911.743	681.357
224.782	14.345	911.076	681.098
225.796	14.331	910.493	680.545
226.811	14.377	909.578	679.987
227.826	14.437	908.870	679.643
228.840	14.540	907.689	679.118
229.855	14.485	906.999	678.319
230.869	14.386	906.433	677.433
231.884	14.293	906.051	676.708
232.899	14.473	904.901	676.520
233.913	14.439	904.093	675.720
234.928	14.454	903.872	675.555
235.942	14.260	903.824	674.671
236.957	14.226	903.086	673.926
237.972	14.328	902.072	673.522
238.986	14.446	901.489	673.504
240.001	14.442	900.629	672.783
241.015	14.437	900.290	672.453
242.030	14.402	899.866	671.935
243.045	14.520	898.947	671.665
244.059	14.479	898.628	671.201
245.074	14.398	897.996	670.344
246.088	14.651	896.813	670.416
247.103	14.674	896.362	670.115
248.117	14.697	895.657	669.618
249.132	14.755	894.976	669.281
250.147	14.693	894.421	668.562
251.161	14.775	893.799	668.365
252.176	14.880	892.995	668.124
253.190	14.871	892.419	667.596
254.205	14.869	891.950	667.180
255.220	14.954	891.122	666.840
256.234	14.858	890.755	666.126
257.249	14.852	890.063	665.526
258.263	14.870	889.277	664.949
259.278	14.976	888.495	664.728
260.293	15.096	887.818	664.639
261.307	15.140	887.081	664.201
262.322	15.071	886.713	663.592
263.336	14.979	886.077	662.696
264.351	15.056	885.422	662.453
265.366	15.098	884.546	661.902
266.380	15.118	884.019	661.528
267.395	15.080	883.491	660.925
268.409	15.027	882.888	660.207
269.424	15.157	881.756	659.814
270.439	15.176	881.152	659.380
271.453	15.212	880.445	658.933
272.468	14.973	880.269	657.803
273.482	15.268	879.094	658.025
274.497	15.327	878.534	657.779
275.512	15.280	878.101	657.214
276.526	15.195	877.749	656.557
277.541	15.290	876.982	656.298
278.555	15.360	876.686	656.291
279.570	15.360	876.037	655.750
280.585	15.237	875.044	654.468
281.599	15.258	874.215	653.872
282.614	15.380	873.707	653.909
283.628	15.211	873.147	652.772
284.643	15.252	873.018	652.777
285.657	15.405	872.180	652.688
286.672	15.353	871.315	651.783
287.687	15.456	870.219	651.304
288.701	15.403	870.107	650.955
289.716	15.413	869.459	650.453
290.730	15.400	869.376	650.282
291.745	15.368	868.420	649.387
292.760	15.441	867.954	649.264
293.774	15.434	867.074	648.520
294.789	15.649	866.181	648.625
295.803	15.377	866.032	647.408
296.818	15.476	865.086	647.024
297.833	15.383	864.584	646.233
298.847	15.597	863.929	646.511
299.862	15.512	863.054	645.469
300.876	15.668	862.384	645.514
301.891	15.628	862.205	645.169
302.906	15.667	861.999	645.106
303.920	15.570	861.424	644.248
304.935	15.757	860.682	644.349
305.949	15.749	859.705	643.532
306.964	15.717	859.303	643.053
307.979	15.772	858.972	642.958
308.993	15.788	858.372	642.511
310.008	15.783	857.570	641.837
311.022	15.783	856.767	641.178
312.037	15.653	856.438	640.380
313.052	15.766	856.059	640.472
314.066	15.877	855.274	640.248
315.081	15.732	854.841	639.317
316.095	15.795	854.097	638.943
317.110	15.696	853.525	638.082
318.125	15.775	853.184	638.073
319.139	15.836	852.714	637.893
320.154	15.946	852.379	638.005
321.168	15.947	851.850	637.556
322.183	15.859	851.158	636.650
323.197	15.840	850.838	636.279
324.212	15.914	850.056	635.921
325.227	16.002	849.162	635.524
326.241	15.878	848.690	634.647
327.256	15.941	848.101	634.390
328.270	15.942	847.684	634.023
329.285	15.918	847.032	633.391
330.300	15.937	846.522	633.025
331.314	15.902	846.058	632.491
332.329	16.024	845.389	632.391
333.343	15.960	845.125	631.899
334.358	15.974	844.782	631.639
335.373	15.944	844.697	631.407
336.387	16.035	844.349	631.432
337.402	16.256	843.582	631.629
338.416	16.179	843.304	631.079
339.431	16.299	842.737	631.046
340.446	16.287	842.247	630.579
341.460	16.082	842.314	629.807
342.475	16.181	841.932	629.834
343.489	16.259	841.354	629.638
344.504	16.361	840.553	629.362
345.519	16.275	840.546	628.983
346.533	16.337	839.690	628.516
347.548	16.378	838.641	627.830
348.562	16.289	838.800	627.561
349.577	16.363	837.855	627.071
350.592	16.295	837.356	626.392
351.606	16.248	836.703	625.672
352.621	16.463	835.902	625.817
353.635	16.226	835.611	624.666
354.650	16.229	835.243	624.347
355.665	16.498	834.295	624.575
356.679	16.433	833.711	623.845
357.694	16.431	833.190	623.391
358.708	16.368	833.049	622.996
359.723	16.313	832.298	622.179
360.738	16.495	831.611	622.281
361.752	16.422	830.831	621.371
362.767	16.476	830.228	621.067
363.781	16.569	829.709	620.962
364.796	16.701	828.924	620.805
365.810	16.720	829.006	620.880
366.825	16.593	828.689	620.123
367.840	16.544	828.089	619.439
368.854	16.702	827.389	619.439
369.869	16.606	827.307	618.972
370.883	16.708	826.257	618.506
371.898	16.721	826.392	618.598
372.913	16.640	826.073	618.010
373.927	16.861	825.305	618.187
374.942	16.793	825.252	617.843
375.956	16.849	824.730	617.603
376.971	16.889	824.190	617.287
377.986	16.719	824.211	616.630
379.000	16.873	823.235	616.404
380.015	16.900	822.918	616.211
381.029	17.025	821.849	615.812
382.044	16.976	821.616	615.405
383.059	17.141	820.820	615.350
384.073	16.866	820.452	614.025
385.088	17.023	819.753	614.015
386.102	16.900	819.226	613.122
387.117	16.846	818.774	612.536
388.132	16.862	818.195	612.103
389.146	16.912	817.505	611.716
390.161	16.947	817.326	611.653
391.175	17.067	816.398	611.335
392.190	16.993	816.237	610.894
393.205	17.100	815.650	610.787
394.219	16.941	815.363	609.945
395.234	16.958	815.301	609.906
396.248	16.855	814.942	609.215
397.263	16.993	814.229	609.121
398.278	17.052	813.905	609.039
399.292	16.952	813.297	608.170
400.307	17.004	812.999	608.082
401.321	16.997	812.402	607.556
402.336	17.141	811.861	607.610
403.350	17.035	811.889	607.201
404.365	17.148	811.475	607.240
405.380	17.182	810.554	606.620
406.394	17.209	809.907	606.176
407.409	17.416	809.358	606.451
408.423	17.271	809.653	606.100
409.438	17.318	808.928	605.671
410.453	17.350	808.618	605.501
411.467	17.488	807.811	605.333
412.482	17.400	807.450	604.698
413.496	17.461	807.338	604.777
414.511	17.424	807.188	604.477
415.526	17.375	806.930	604.057
416.540	17.643	805.981	604.243
417.555	17.442	805.659	603.236
418.569	17.507	805.186	603.059
419.584	17.567	804.160	602.450
420.599	17.466	804.505	602.297
421.613	114.012	1298.912	1488.476
422.628	98.413	1370.896	1488.537
