DTS Sentinel unit serial number:	SN413079Multiplexer serial number:	ORYXHardware model number:	OX4-SRSoftware version number:	ORYX F/W v4.00 Oryx Data Collector v3.7.2.0data status	okinstallation	princeton_trtdifferential loss correction	single-endedforward channel	channel 1reverse channel	N/Adate	2019/09/14time	04:38:35forward acquisition time	60.00reverse acquisition time	0.00gamma	496.2192k internal	0.2334k external	0.2334temperature offset calibration	1.0077default loss term (dB/km)	0.3790temperature slope calibration	1.0000multiplexer offset coefficient	1.0000multiplexer slope coefficient	1.0000fibre end	0.00T internal ref (°C)	26.81T ext. ref 1 (°C)	3.35T ext. ref 2 (°C)	21.99length (m)	temperature (°C)	Stokes	anti-Stokes-747.200	-148.441	-0.145	0.012
-746.185	176.381	0.044	0.064
-745.171	166.953	-0.116	0.165
-744.156	214.630	0.119	0.189
-743.142	-174.893	-0.293	-0.008
-742.127	111.452	-0.070	0.084
-741.112	15.502	0.107	0.085
-740.098	-103.484	0.480	-0.113
-739.083	-78.554	-0.262	-0.090
-738.069	-58.394	0.058	0.025
-737.054	-164.200	0.201	-0.009
-736.039	-71.608	-0.291	0.109
-735.025	54.112	-0.079	-0.077
-734.010	-115.783	-0.236	-0.044
-732.996	-200.000	-0.049	-0.237
-731.981	148.390	0.200	0.272
-730.966	71.025	-0.167	-0.174
-729.952	-64.913	-0.067	-0.027
-728.937	-109.990	-0.092	-0.019
-727.923	59.728	0.122	0.121
-726.908	-44.245	-0.077	-0.039
-725.894	28.215	-0.100	0.085
-724.879	-119.189	0.130	-0.023
-723.864	398.621	0.100	0.210
-722.850	800.000	-0.066	0.262
-721.835	-81.708	-0.158	0.052
-720.821	800.000	-0.064	0.213
-719.806	-200.000	-0.002	0.162
-718.791	14.092	0.155	-0.121
-717.777	-137.122	-0.395	0.045
-716.762	317.635	-0.200	0.380
-715.748	112.012	0.179	0.217
-714.733	-60.158	0.341	0.146
-713.718	52.385	0.061	0.058
-712.704	-200.000	0.108	-0.489
-711.689	-200.000	-0.069	-0.310
-710.675	60.844	0.125	-0.124
-709.660	375.408	0.141	-0.288
-708.645	-14.127	0.139	-0.090
-707.631	-151.091	0.096	0.007
-706.616	-80.946	0.250	-0.083
-705.602	351.253	-0.041	0.081
-704.587	301.601	0.103	0.190
-703.572	84.833	-0.095	0.104
-702.558	153.371	0.183	-0.252
-701.543	-200.000	-0.008	-0.112
-700.529	-200.000	-0.053	0.288
-699.514	-200.000	-0.004	0.222
-698.499	52.528	-0.201	-0.193
-697.485	119.352	0.057	0.071
-696.470	97.800	-0.130	0.150
-695.456	226.779	-0.034	-0.055
-694.441	800.000	0.052	-0.161
-693.426	186.866	0.113	0.169
-692.412	35.226	0.363	-0.319
-691.397	-82.217	-0.263	-0.086
-690.383	107.359	-0.054	-0.064
-689.368	-19.983	0.229	0.142
-688.354	-200.000	0.042	0.223
-687.339	-114.600	0.075	-0.014
-686.324	77.037	-0.155	-0.165
-685.310	381.756	-0.038	0.078
-684.295	10.676	-0.163	0.125
-683.281	-176.269	-0.083	0.002
-682.266	-112.546	-0.259	-0.052
-681.251	-106.165	0.315	-0.071
-680.237	333.488	-0.057	-0.110
-679.222	-200.000	0.168	-0.001
-678.208	94.252	-0.026	0.029
-677.193	800.000	-0.073	-0.261
-676.178	-200.000	0.020	0.208
-675.164	299.376	-0.169	-0.312
-674.149	-5.446	-0.294	0.202
-673.135	-17.193	0.133	0.084
-672.120	-38.504	0.284	0.151
-671.105	104.250	-0.120	0.141
-670.091	-83.709	-0.307	0.098
-669.076	88.230	0.209	0.232
-668.062	-151.829	0.214	-0.016
-667.047	306.066	-0.049	0.091
-666.032	655.371	-0.133	0.341
-665.018	-43.550	-0.271	-0.137
-664.003	225.775	-0.093	-0.152
-662.989	226.823	-0.108	-0.176
-661.974	-200.000	0.030	-0.278
-660.959	-188.175	0.063	-0.001
-659.945	-117.374	0.234	0.043
-658.930	-109.677	-0.297	-0.063
-657.916	2.201	0.291	0.210
-656.901	-200.000	0.024	-0.129
-655.886	19.080	-0.063	-0.050
-654.872	-107.667	0.378	0.083
-653.857	-52.541	0.066	-0.031
-652.843	-187.032	-0.651	-0.009
-651.828	-28.403	0.234	-0.135
-650.814	273.555	0.127	0.225
-649.799	-200.000	0.081	-0.489
-648.784	800.000	-0.028	-0.112
-647.770	-144.752	-0.067	-0.006
-646.755	-200.000	0.016	-0.315
-645.741	501.334	-0.148	-0.341
-644.726	-19.292	-0.235	0.146
-643.711	800.000	-0.042	0.130
-642.697	800.000	-0.047	0.135
-641.682	18.132	0.125	-0.100
-640.668	-200.000	0.014	0.332
-639.653	-104.136	-0.054	-0.013
-638.638	16.950	-0.160	0.127
-637.624	-80.547	0.125	-0.042
-636.609	-200.000	0.016	0.166
-635.595	-200.000	-0.028	-0.141
-634.580	-200.000	0.022	0.398
-633.565	336.021	-0.150	0.291
-632.551	-13.875	-0.151	0.098
-631.536	800.000	-0.035	-0.105
-630.522	-98.174	0.266	0.068
-629.507	-200.000	0.002	-0.089
-628.492	117.925	-0.198	-0.244
-627.478	33.085	0.234	-0.203
-626.463	-41.323	0.125	-0.064
-625.449	-200.000	0.047	-0.258
-624.434	302.343	0.075	-0.139
-623.419	-200.000	-0.011	0.311
-622.405	-99.237	0.213	0.054
-621.390	-111.830	0.329	-0.067
-620.376	-140.150	-0.298	-0.031
-619.361	417.496	-0.052	-0.111
-618.346	-22.707	-0.221	0.134
-617.332	-143.783	-0.178	0.017
-616.317	-59.105	0.286	-0.123
-615.303	182.308	-0.112	-0.165
-614.288	-75.242	-0.076	0.027
-613.273	119.576	0.175	-0.217
-612.259	293.913	-0.019	0.034
-611.244	54.510	-0.371	0.358
-610.230	60.543	-0.148	-0.147
-609.215	-200.000	0.018	-0.097
-608.201	-52.546	0.166	-0.077
-607.186	1.227	-0.110	0.079
-606.171	-10.992	0.025	-0.016
-605.157	-78.997	0.220	0.075
-604.142	800.000	0.055	0.203
-603.128	-45.414	-0.106	-0.053
-602.113	800.000	-0.058	0.197
-601.098	-200.000	-0.038	0.273
-600.084	150.059	-0.097	-0.131
-599.069	-32.149	-0.289	0.161
-598.055	103.676	0.057	0.067
-597.040	-30.700	0.095	-0.054
-596.025	-200.000	-0.007	0.194
-595.011	11.396	0.221	0.169
-593.996	-155.115	0.110	0.007
-592.982	-200.000	-0.050	-0.559
-591.967	-23.522	-0.263	0.158
-590.952	31.904	0.154	-0.133
-589.938	727.942	0.111	-0.297
-588.923	48.439	-0.281	-0.263
-587.909	-17.798	0.283	0.177
-586.894	800.000	-0.039	0.139
-585.879	-200.000	-0.030	-0.237
-584.865	-200.000	0.028	-0.124
-583.850	102.587	0.178	-0.208
-582.836	27.857	-0.123	0.104
-581.821	564.971	0.144	-0.348
-580.806	800.000	0.060	-0.199
-579.792	162.948	0.050	0.070
-578.777	-200.000	0.020	0.149
-577.763	-200.000	-0.020	0.234
-576.748	162.711	0.059	0.083
-575.733	26.333	-0.063	-0.053
-574.719	-82.821	-0.026	-0.008
-573.704	137.015	-0.106	0.138
-572.690	-123.208	0.517	-0.083
-571.675	-94.198	-0.148	-0.040
-570.661	25.262	-0.199	0.165
-569.646	-200.000	0.030	-0.179
-568.631	-117.077	-0.229	0.042
-567.617	795.291	-0.146	-0.402
-566.602	-14.609	-0.194	0.124
-565.588	-159.547	-0.103	-0.006
-564.573	-13.721	-0.287	0.185
-563.558	-200.000	-0.029	0.127
-562.544	800.000	-0.048	-0.135
-561.529	221.243	-0.189	0.302
-560.515	-179.321	0.247	-0.005
-559.500	19.559	0.223	-0.179
-558.485	800.000	0.099	-0.328
-557.471	82.966	0.054	0.058
-556.456	-3.449	-0.051	-0.036
-555.442	-101.201	-0.325	0.079
-554.427	-112.779	-0.119	0.024
-553.412	-200.000	0.003	-0.068
-552.398	-136.117	-0.247	-0.029
-551.383	-161.531	0.250	-0.013
-550.369	-200.000	-0.026	-0.339
-549.354	-93.555	-0.110	0.030
-548.339	-43.930	-0.292	0.147
-547.325	-55.379	-0.179	-0.080
-546.310	800.000	-0.089	0.287
-545.296	800.000	0.108	0.452
-544.281	800.000	-0.115	0.404
-543.266	-62.470	-0.129	-0.053
-542.252	105.518	-0.189	0.223
-541.237	134.238	-0.177	-0.229
-540.223	-200.000	-0.044	0.227
-539.208	769.553	0.023	-0.064
-538.193	-63.384	0.412	0.169
-537.179	104.202	-0.159	0.187
-536.164	800.000	-0.026	0.089
-535.150	-56.936	-0.546	0.240
-534.135	-32.761	-0.088	0.049
-533.121	583.963	-0.091	0.223
-532.106	-200.000	-0.044	-0.218
-531.091	-93.319	-0.396	-0.110
-530.077	108.173	-0.089	-0.106
-529.062	-39.924	-0.401	0.209
-528.048	-174.508	-0.175	-0.005
-527.033	169.396	-0.029	-0.041
-526.018	-119.867	0.151	-0.026
-525.004	67.271	0.241	-0.245
-523.989	24.655	0.372	-0.307
-522.975	800.000	0.065	-0.265
-521.960	-200.000	-0.004	-0.195
-520.945	-200.000	0.000	-0.018
-519.931	-149.022	-0.168	0.013
-518.916	-200.000	-0.036	0.216
-517.902	-48.362	-0.212	0.102
-516.887	10.200	0.122	0.093
-515.872	23.883	-0.105	0.086
-514.858	-200.000	-0.009	-0.150
-513.843	-105.459	0.375	-0.085
-512.829	-200.000	0.008	-0.227
-511.814	-72.908	0.189	-0.069
-510.799	30.113	0.122	-0.104
-509.785	26.674	0.180	-0.150
-508.770	-55.969	-0.206	0.092
-507.756	5.797	-0.167	-0.123
-506.741	-200.000	0.021	0.282
-505.726	238.865	0.215	-0.356
-504.712	-78.901	-0.310	-0.105
-503.697	800.000	-0.022	-0.080
-502.683	-200.000	0.011	-0.116
-501.668	-93.215	-0.466	-0.129
-500.653	800.000	-0.186	-0.551
-499.639	-60.632	-0.180	0.076
-498.624	-200.000	-0.006	0.035
-497.610	-73.161	0.305	0.111
-496.595	-6.557	0.168	-0.114
-495.581	-49.026	-0.050	0.024
-494.566	-8.320	0.101	0.068
-493.551	800.000	0.015	-0.065
-492.537	74.033	-0.155	-0.162
-491.522	-200.000	0.033	0.292
-490.508	-173.331	0.194	-0.006
-489.493	182.239	-0.167	-0.245
-488.478	43.828	-0.187	-0.170
-487.464	-105.363	-0.261	-0.059
-486.449	-200.000	0.015	-0.259
-485.435	-200.000	0.033	0.515
-484.420	304.726	0.042	-0.078
-483.405	530.928	-0.073	-0.171
-482.391	-144.056	0.262	-0.024
-481.376	-14.530	-0.268	-0.172
-480.362	-2.664	-0.176	0.123
-479.347	94.746	0.104	0.118
-478.332	-82.303	-0.322	-0.104
-477.318	55.501	0.405	0.390
-476.303	800.000	-0.037	0.126
-475.289	-200.000	-0.021	0.310
-474.274	794.200	0.052	-0.141
-473.259	0.376	0.142	-0.101
-472.245	-145.913	0.125	-0.011
-471.230	-150.261	0.270	-0.021
-470.216	66.119	-0.150	-0.151
-469.201	129.647	-0.159	0.202
-468.186	455.552	-0.164	-0.361
-467.172	-200.000	0.044	0.209
-466.157	-200.000	0.009	-0.187
-465.143	-42.126	0.262	-0.133
-464.128	800.000	0.079	-0.336
-463.113	-64.714	0.072	0.029
-462.099	271.034	0.079	-0.138
-461.084	229.380	-0.133	-0.216
-460.070	154.728	-0.102	-0.139
-459.055	410.292	-0.077	0.162
-458.040	-200.000	0.069	0.302
-457.026	-200.000	-0.011	0.252
-456.011	51.559	0.135	-0.128
-454.997	-200.000	-0.015	0.080
-453.982	96.169	0.098	0.111
-452.968	232.250	-0.204	-0.333
-451.953	202.988	0.078	-0.120
-450.938	-72.421	-0.140	-0.051
-449.924	98.335	0.239	-0.273
-448.909	-65.888	-0.249	0.099
-447.895	210.682	-0.183	-0.286
-446.880	-200.000	0.027	0.269
-445.865	235.904	0.171	0.280
-444.851	-113.770	-0.485	0.094
-443.836	197.937	-0.130	-0.197
-442.822	-62.636	-0.142	0.058
-441.807	-161.954	-0.170	-0.009
-440.792	-200.000	-0.028	-0.125
-439.778	218.727	0.175	-0.277
-438.763	-57.662	-0.222	0.096
-437.749	-72.549	0.215	0.079
-436.734	314.933	0.085	0.159
-435.719	-63.330	-0.175	-0.072
-434.705	76.814	-0.154	0.162
-433.690	-200.000	0.009	0.074
-432.676	-200.000	-0.137	-0.000
-431.661	-102.026	0.276	0.066
-430.646	-59.379	0.142	0.061
-429.632	6.986	-0.307	0.227
-428.617	109.833	-0.146	-0.174
-427.603	-177.622	0.225	0.005
-426.588	-158.152	0.262	-0.015
-425.573	-36.808	-0.091	0.048
-424.559	800.000	0.108	0.323
-423.544	-111.486	-0.085	0.017
-422.530	82.568	-0.227	0.245
-421.515	-159.817	0.309	0.017
-420.500	90.727	-0.135	0.150
-419.486	-70.721	0.131	0.049
-418.471	319.530	0.162	-0.305
-417.457	-39.031	0.528	0.276
-416.442	123.302	-0.036	-0.045
-415.428	-102.816	0.161	0.038
-414.413	-41.225	-0.005	-0.002
-413.398	-200.000	0.080	-0.401
-412.384	392.624	0.082	-0.169
-411.369	81.903	0.119	0.128
-410.355	240.826	-0.129	0.213
-409.340	-92.812	0.194	-0.054
-408.325	-168.382	-0.368	0.014
-407.311	273.915	0.193	-0.339
-406.296	-20.784	-0.115	0.070
-405.282	127.773	0.224	-0.283
-404.267	-56.275	-0.190	-0.084
-403.252	800.000	0.088	0.274
-402.238	-24.577	-0.234	-0.138
-401.223	10.511	-0.079	0.060
-400.209	-54.129	0.176	0.080
-399.194	614.262	-0.063	0.156
-398.179	-77.933	-0.076	-0.026
-397.165	115.213	0.048	-0.058
-396.150	-76.091	-0.377	-0.132
-395.136	-104.028	0.185	0.043
-394.121	448.159	0.030	0.066
-393.106	-165.968	-0.156	-0.007
-392.092	244.537	0.141	0.234
-391.077	-120.335	0.252	0.043
-390.063	-67.311	0.274	0.107
-389.048	-200.000	0.058	0.410
-388.033	278.190	0.013	-0.023
-387.019	69.475	0.151	0.154
-386.004	271.961	-0.063	-0.109
-384.990	-108.050	0.278	0.060
-383.975	-73.350	-0.271	-0.098
-382.960	-1.657	0.152	-0.106
-381.946	-62.072	-0.517	0.214
-380.931	-69.065	-0.094	-0.036
-379.917	0.337	-0.065	-0.046
-378.902	6.623	-0.273	0.201
-377.888	-200.000	0.020	-0.378
-376.873	-200.000	0.020	0.114
-375.858	-24.883	0.212	-0.125
-374.844	-127.275	0.207	0.030
-373.829	-87.807	-0.297	0.089
-372.815	19.322	0.117	0.093
-371.800	70.509	0.185	-0.189
-370.785	-200.000	0.041	0.322
-369.771	323.069	0.084	0.159
-368.756	-86.978	0.172	0.052
-367.742	200.844	-0.120	-0.183
-366.727	169.118	0.122	-0.172
-365.712	66.350	0.072	0.072
-364.698	-122.650	-0.312	0.050
-363.683	-7.373	-0.047	-0.031
-362.669	-12.406	0.200	0.130
-361.654	-31.018	-0.313	0.175
-360.639	-92.042	-0.413	0.116
-359.625	91.659	0.171	-0.190
-358.610	361.811	0.073	0.145
-357.596	-200.000	-0.036	0.177
-356.581	254.818	0.136	0.230
-355.566	-76.263	-0.113	-0.039
-354.552	-200.000	0.024	0.201
-353.537	167.623	0.111	0.156
-352.523	800.000	-0.050	-0.153
-351.508	69.224	0.093	-0.094
-350.493	-200.000	-0.008	0.261
-349.479	216.282	0.133	-0.209
-348.464	315.878	-0.068	0.127
-347.450	582.000	0.127	-0.309
-346.435	282.598	-0.081	-0.144
-345.420	205.765	0.183	0.281
-344.406	-122.210	-0.227	-0.037
-343.391	800.000	0.111	0.343
-342.377	190.531	0.116	-0.172
-341.362	-10.403	0.205	-0.135
-340.348	800.000	-0.087	0.317
-339.333	-8.400	-0.210	-0.140
-338.318	-178.923	-0.169	-0.004
-337.304	-4.203	0.242	0.166
-336.289	-85.719	0.125	-0.038
-335.275	106.109	0.135	0.158
-334.260	-56.946	0.049	0.021
-333.245	-200.000	0.005	0.039
-332.231	-200.000	-0.058	0.369
-331.216	-106.955	0.315	0.069
-330.202	-157.103	-0.213	-0.013
-329.187	25.605	0.316	0.260
-328.172	119.540	0.280	0.343
-327.158	-200.000	0.054	-0.266
-326.143	-200.000	-0.020	0.456
-325.129	331.656	-0.137	-0.261
-324.114	-200.000	-0.040	-0.281
-323.099	-1.509	-0.081	-0.056
-322.085	108.966	0.071	-0.084
-321.070	29.459	-0.437	0.367
-320.056	-49.197	0.178	-0.084
-319.041	-64.319	-0.113	-0.045
-318.026	54.970	0.115	0.110
-317.012	56.804	0.107	0.103
-315.997	64.110	0.356	-0.354
-314.983	174.390	-0.188	-0.269
-313.968	377.347	0.167	-0.336
-312.953	800.000	-0.030	0.098
-311.939	-87.605	0.105	-0.031
-310.924	296.187	0.126	-0.228
-309.910	723.582	-0.064	-0.168
-308.895	-113.525	-0.140	-0.027
-307.880	-85.063	-0.108	-0.033
-306.866	-125.917	0.099	-0.015
-305.851	-17.545	-0.229	0.142
-304.837	54.734	-0.069	-0.066
-303.822	123.877	0.123	0.152
-302.807	-200.000	0.061	0.487
-301.793	-145.929	-0.323	0.028
-300.778	220.827	-0.135	-0.214
-299.764	-155.172	-0.063	-0.004
-298.749	143.257	-0.116	-0.152
-297.735	-148.080	0.304	-0.025
-296.720	-75.789	-0.327	-0.115
-295.705	150.456	-0.099	-0.133
-294.691	10.933	0.128	0.097
-293.676	-6.181	0.189	-0.127
-292.662	-2.155	0.251	0.174
-291.647	200.686	-0.414	-0.628
-290.632	253.670	0.140	0.236
-289.618	-144.296	0.203	-0.019
-288.603	535.858	-0.059	-0.138
-287.589	407.592	-0.045	0.094
-286.574	28.081	0.101	-0.084
-285.559	167.787	0.253	0.356
-284.545	-200.000	0.006	-0.029
-283.530	13.154	0.086	-0.066
-282.516	208.540	0.094	0.145
-281.501	-200.000	0.002	-0.275
-280.486	-134.003	0.306	0.037
-279.472	142.911	0.063	-0.083
-278.457	-174.480	0.381	-0.011
-277.443	398.123	-0.063	0.129
-276.428	800.000	-0.117	0.455
-275.413	-188.425	-0.293	-0.004
-274.399	800.000	0.083	-0.265
-273.384	-101.051	-0.194	-0.047
-272.370	587.876	-0.090	-0.219
-271.355	-44.202	0.199	0.098
-270.340	-131.531	0.175	0.023
-269.326	-21.369	-0.225	-0.135
-268.311	-200.000	-0.012	0.190
-267.297	149.935	-0.024	0.031
-266.282	-43.181	0.125	0.062
-265.267	-124.125	0.436	-0.068
-264.253	-3.506	-0.357	-0.245
-263.238	-200.000	-0.004	0.307
-262.224	-171.857	0.215	-0.007
-261.209	-76.858	-0.227	-0.078
-260.195	-141.019	0.101	0.010
-259.180	-3.902	-0.079	-0.054
-258.165	200.926	-0.083	0.126
-257.151	800.000	0.059	-0.209
-256.136	-44.480	-0.191	-0.094
-255.122	800.000	-0.045	0.163
-254.107	800.000	0.084	0.332
-253.092	-79.666	0.379	0.126
-252.078	683.770	-0.069	0.178
-251.063	212.091	0.178	0.277
-250.049	-200.000	-0.019	0.186
-249.034	273.661	0.136	0.237
-248.019	-87.033	-0.173	0.052
-247.005	-9.399	0.078	-0.051
-245.990	-177.217	-0.239	0.006
-244.976	268.509	0.011	0.019
-243.961	-200.000	0.001	0.062
-242.946	-4.083	-0.117	0.080
-241.932	800.000	0.068	-0.273
-240.917	-200.000	-0.063	-0.286
-239.903	165.112	0.060	-0.084
-238.888	-97.122	-0.441	-0.114
-237.873	-69.130	0.388	-0.147
-236.859	102.977	0.038	0.044
-235.844	-200.000	-0.023	0.262
-234.830	138.247	0.145	0.188
-233.815	-140.751	-0.293	0.030
-232.800	-106.094	0.068	0.015
-231.786	-159.433	0.359	-0.020
-230.771	141.327	0.030	-0.039
-229.757	-110.337	0.327	0.067
-228.742	-200.000	0.024	0.256
-227.727	-200.000	0.001	-0.149
-226.713	800.000	0.090	0.265
-225.698	-175.078	0.333	0.009
-224.684	-200.000	-0.030	-0.202
-223.669	712.199	0.153	0.398
-222.655	62.613	0.013	-0.013
-221.640	772.589	0.128	-0.345
-220.625	52.637	0.124	-0.116
-219.611	55.785	0.095	0.091
-218.596	-171.926	-0.164	-0.005
-217.582	-132.681	-0.329	0.042
-216.567	-200.000	-0.028	-0.205
-215.552	-145.296	0.206	0.018
-214.538	-134.155	-0.067	-0.008
-213.523	-200.000	-0.020	-0.175
-212.509	96.740	-0.126	-0.142
-211.494	148.015	0.296	-0.393
-210.479	800.000	-0.067	0.237
-209.465	-6.015	0.196	-0.132
-208.450	-200.000	-0.053	0.345
-207.436	-46.650	0.149	0.072
-206.421	334.572	-0.099	0.189
-205.406	338.006	-0.121	0.232
-204.392	-28.085	0.195	0.111
-203.377	-110.329	0.151	-0.031
-202.363	800.000	0.088	-0.331
-201.348	-163.055	-0.233	-0.011
-200.333	-120.315	-0.536	-0.090
-199.319	8.729	0.236	-0.175
-198.304	139.364	0.015	-0.020
-197.290	90.250	-0.080	0.088
-196.275	240.514	-0.070	0.115
-195.260	-200.000	-0.023	0.267
-194.246	-138.128	0.443	-0.048
-193.231	98.789	-0.278	0.316
-192.217	45.216	-0.159	0.144
-191.202	9.083	0.195	0.145
-190.187	-95.191	-0.097	-0.026
-189.173	-70.776	-0.447	-0.166
-188.158	196.776	-0.094	0.141
-187.144	75.232	0.242	-0.251
-186.129	180.766	-0.038	0.054
-185.114	-38.920	0.097	0.050
-184.100	96.811	-0.099	-0.111
-183.085	151.086	-0.067	-0.090
-182.071	-161.698	0.176	0.009
-181.056	379.691	-0.023	0.047
-180.042	730.412	0.041	0.109
-179.027	137.755	-0.099	-0.127
-178.012	112.390	-0.091	0.108
-176.998	-95.477	0.060	-0.016
-175.983	39.530	0.239	-0.210
-174.969	513.808	0.039	0.089
-173.954	-200.000	0.002	0.099
-172.939	-109.592	0.141	0.029
-171.925	188.854	0.123	-0.180
-170.910	-141.469	0.125	0.012
-169.896	85.691	-0.008	-0.009
-168.881	-25.441	0.286	-0.166
-167.866	-9.661	0.197	0.129
-166.852	-53.807	0.204	-0.091
-165.837	59.542	-0.051	-0.050
-164.823	-172.575	0.462	0.014
-163.808	-200.000	-0.029	-0.246
-162.793	-17.697	-0.098	0.060
-161.779	22.302	-0.126	0.101
-160.764	446.104	0.126	-0.272
-159.750	-89.511	0.097	0.028
-158.735	91.014	-0.069	-0.076
-157.720	-1.820	-0.123	-0.085
-156.706	-3.801	0.230	-0.157
-155.691	72.031	-0.197	-0.201
-154.677	-156.052	0.193	-0.012
-153.662	-25.470	-0.162	-0.094
-152.647	59.454	-0.185	-0.179
-151.633	-77.047	-0.365	0.125
-150.618	-95.689	0.350	0.092
-149.604	210.147	-0.213	0.328
-148.589	-104.389	0.054	-0.012
-147.574	-40.547	0.197	0.100
-146.560	74.092	0.438	0.451
-145.545	38.266	-0.063	0.055
-144.531	119.187	0.293	-0.355
-143.516	399.015	0.084	-0.173
-142.502	-5.408	-0.161	0.108
-141.487	-48.924	0.245	0.115
-140.472	-200.000	0.029	0.267
-139.458	-3.113	-0.360	-0.246
-138.443	-130.400	0.343	-0.046
-137.429	58.409	-0.170	0.164
-136.414	-200.000	0.046	0.235
-135.399	-200.000	0.066	0.375
-134.385	90.222	-0.157	-0.172
-133.370	-171.541	-0.532	-0.017
-132.356	-47.971	0.111	0.053
-131.341	-76.237	-0.087	-0.030
-130.326	432.750	-0.089	0.190
-129.312	187.817	0.120	0.176
-128.297	-200.000	0.007	-0.264
-127.283	-200.000	-0.012	0.293
-126.268	247.631	0.078	0.130
-125.253	99.565	0.372	0.422
-124.239	-200.000	0.007	-0.044
-123.224	186.103	-0.162	-0.236
-122.210	359.222	-0.135	-0.265
-121.195	-187.223	0.240	0.003
-120.180	-12.709	-0.314	0.201
-119.166	25.481	0.333	-0.272
-118.151	78.135	0.102	0.107
-117.137	-13.605	-0.091	-0.058
-116.122	66.670	-0.138	0.138
-115.107	312.161	-0.140	0.257
-114.093	-71.431	-0.069	-0.026
-113.078	-140.898	0.123	0.012
-112.064	319.704	0.059	0.110
-111.049	-6.597	-0.094	-0.063
-110.034	93.320	0.238	0.264
-109.020	324.392	-0.061	0.115
-108.005	591.816	-0.076	0.185
-106.991	800.000	-0.007	0.023
-105.976	276.738	-0.110	-0.191
-104.962	-141.746	-0.271	0.027
-103.947	-200.000	0.001	0.241
-102.932	163.951	-0.061	-0.084
-101.918	-134.033	0.247	-0.030
-100.903	-11.687	0.240	-0.154
-99.889	-200.000	0.009	0.180
-98.874	800.000	-0.051	0.190
-97.859	800.000	-0.070	0.218
-96.845	171.394	0.129	0.182
-95.830	-73.570	0.287	0.102
-94.816	-83.596	-0.129	0.041
-93.801	-200.000	-0.037	0.237
-92.786	-14.847	0.278	0.175
-91.772	-9.336	-0.191	-0.125
-90.757	102.499	0.103	0.118
-89.743	29.075	-0.164	-0.137
-88.728	59.064	0.244	-0.235
-87.713	800.000	-0.032	0.117
-86.699	405.828	0.214	0.442
-85.684	191.878	0.144	0.212
-84.670	663.961	-0.050	0.126
-83.655	-200.000	-0.010	-0.066
-82.640	257.278	0.123	0.207
-81.626	-95.562	-0.164	-0.043
-80.611	-25.583	0.235	0.136
-79.597	-58.079	-0.216	0.092
-78.582	35.389	-0.130	0.112
-77.567	269.216	0.161	0.277
-76.553	-25.055	0.276	0.160
-75.538	-69.472	0.270	0.101
-74.524	-96.075	-0.462	-0.120
-73.509	800.000	0.158	-0.531
-72.494	270.193	0.113	0.195
-71.480	318.932	-0.055	-0.102
-70.465	-36.220	-0.092	0.049
-69.451	-79.412	0.035	-0.012
-68.436	205.238	-0.146	-0.222
-67.422	298.177	-0.136	-0.245
-66.407	-13.418	-0.089	0.057
-65.392	-126.671	0.210	0.030
-64.378	55.286	0.062	-0.059
-63.363	-48.864	-0.305	-0.143
-62.349	-169.263	-0.191	-0.007
-61.334	30.585	-0.860	-0.720
-60.319	-24.506	0.659	0.384
-59.305	-200.000	-0.266	-1.161
-58.290	208.382	0.897	1.372
-57.276	800.000	0.646	1.778
-56.261	-200.000	116.149	658.117
-55.246	522.221	1536.169	3528.649
-54.232	175.486	2709.070	3842.067
-53.217	108.025	2160.493	2519.225
-52.203	38.674	1595.842	1392.981
-51.188	30.160	1339.588	1118.177
-50.173	27.296	1301.084	1069.186
-49.159	55.415	1359.110	1286.385
-48.144	53.141	1373.224	1286.088
-47.130	30.365	1327.535	1109.163
-46.115	27.033	1309.115	1074.062
-45.100	26.731	1304.615	1068.545
-44.086	26.686	1302.288	1066.329
-43.071	26.675	1299.171	1063.673
-42.057	26.637	1297.747	1062.243
-41.042	26.509	1296.508	1060.437
-40.027	26.690	1294.053	1059.442
-39.013	26.743	1292.364	1058.330
-37.998	26.672	1290.632	1056.455
-36.984	26.769	1288.631	1055.338
-35.969	26.988	1286.666	1054.962
-34.954	26.841	1285.191	1052.859
-33.940	26.807	1284.166	1051.781
-32.925	26.891	1282.523	1050.875
-31.911	26.789	1281.494	1049.400
-30.896	26.857	1279.920	1048.464
-29.881	26.900	1278.791	1047.749
-28.867	26.879	1276.993	1046.110
-27.852	26.931	1275.746	1045.348
-26.838	26.932	1273.978	1043.861
-25.823	26.868	1273.191	1042.810
-24.809	26.828	1271.543	1041.185
-23.794	26.885	1270.105	1040.296
-22.779	26.842	1269.361	1039.400
-21.765	26.903	1267.963	1038.560
-20.750	26.871	1266.400	1037.056
-19.736	26.771	1265.398	1035.626
-18.721	26.698	1264.400	1034.348
-17.706	26.811	1262.773	1033.621
-16.692	26.788	1261.771	1032.627
-15.677	26.801	1260.758	1031.832
-14.663	26.865	1259.284	1030.948
-13.648	26.853	1258.072	1029.847
-12.633	26.660	1258.126	1028.758
-11.619	26.769	1256.791	1028.240
-10.604	26.775	1256.009	1027.595
-9.590	26.817	1254.930	1026.908
-8.575	26.695	1254.226	1025.600
-7.560	26.774	1252.980	1024.991
-6.546	26.781	1252.224	1024.369
-5.531	26.790	1251.335	1023.653
-4.517	26.831	1250.047	1022.792
-3.502	26.694	1249.967	1021.910
-2.487	26.775	1248.513	1021.138
-1.473	26.795	1244.642	1018.044
-0.458	25.375	1229.592	997.813
0.556	22.228	1212.593	960.802
1.571	18.791	1219.269	947.087
2.586	17.973	1234.382	954.176
3.600	17.543	1222.133	942.243
4.615	13.019	1150.721	863.487
5.629	6.277	1079.371	776.692
6.644	3.532	1061.743	750.595
7.659	3.195	1059.390	747.233
8.673	3.344	1058.607	747.338
9.688	3.319	1057.545	746.399
10.702	3.524	1054.900	745.456
11.717	7.221	1060.821	767.511
12.731	14.575	1070.692	810.430
13.746	18.907	1075.669	835.219
14.761	19.492	1076.467	838.610
15.775	18.788	1074.446	833.543
16.790	17.661	1072.734	826.677
17.804	16.921	1071.453	822.034
18.819	16.839	1070.167	820.575
19.834	16.517	1069.194	818.198
20.848	16.416	1068.363	817.001
21.863	16.283	1067.644	815.738
22.877	16.019	1067.198	814.050
23.892	16.096	1066.149	813.549
24.907	16.132	1065.302	813.008
25.921	16.121	1064.102	811.966
26.936	16.035	1063.252	810.831
27.950	16.046	1061.878	809.762
28.965	16.296	1060.092	809.529
29.980	16.278	1058.781	808.370
30.994	16.256	1057.484	807.205
32.009	16.302	1056.874	806.887
33.023	16.380	1055.549	806.174
34.038	16.297	1054.711	805.066
35.053	16.276	1053.124	803.684
36.067	16.174	1052.456	802.618
37.082	16.244	1051.534	802.181
38.096	16.431	1051.010	802.598
39.111	16.242	1050.321	801.102
40.126	16.240	1048.727	799.803
41.140	16.024	1047.617	797.864
42.155	15.798	1046.542	795.907
43.169	15.843	1045.699	795.407
44.184	15.865	1044.417	794.467
45.199	15.857	1043.619	793.752
46.213	15.936	1042.520	793.217
47.228	16.190	1041.503	793.567
48.242	16.152	1040.755	792.752
49.257	16.130	1039.483	791.609
50.271	16.162	1038.963	791.290
51.286	16.269	1037.729	790.786
52.301	16.258	1036.979	790.090
53.315	16.025	1035.976	788.167
54.330	15.974	1034.799	786.963
55.344	16.042	1033.874	786.509
56.359	15.912	1033.230	785.343
57.374	15.846	1032.613	784.494
58.388	15.807	1031.442	783.356
59.403	15.740	1030.267	782.083
60.417	15.859	1029.720	782.149
61.432	15.834	1028.847	781.303
62.447	15.879	1027.920	780.738
63.461	15.726	1026.706	779.038
64.476	15.601	1026.251	778.045
65.490	15.659	1025.281	777.509
66.505	15.713	1024.676	777.232
67.520	15.718	1023.830	776.543
68.534	15.824	1023.044	776.367
69.549	15.755	1022.273	775.398
70.563	15.714	1021.456	774.519
71.578	15.654	1020.621	773.542
72.593	15.584	1019.574	772.357
73.607	15.542	1019.158	771.780
74.622	15.522	1018.736	771.301
75.636	15.608	1017.750	770.882
76.651	15.509	1017.218	769.954
77.666	15.680	1016.105	769.830
78.680	15.622	1015.685	769.175
79.695	15.698	1015.223	769.108
80.709	15.803	1014.473	768.952
81.724	15.882	1013.795	768.729
82.739	16.018	1013.088	768.743
83.753	16.078	1012.796	768.730
84.768	16.301	1011.718	768.857
85.782	16.437	1010.550	768.520
86.797	16.320	1009.703	767.277
87.812	16.175	1009.136	766.119
88.826	16.219	1008.143	765.497
89.841	16.214	1007.187	764.683
90.855	16.321	1006.239	764.379
91.870	16.249	1005.395	763.342
92.884	16.308	1004.393	762.782
93.899	16.306	1003.611	762.113
94.914	16.433	1002.826	762.020
95.928	16.472	1001.752	761.312
96.943	16.233	1001.508	759.983
97.957	16.258	1000.294	759.107
98.972	16.393	999.008	758.671
99.987	16.298	998.761	757.991
101.001	16.423	997.938	757.858
102.016	16.280	996.519	756.074
103.030	16.346	995.621	755.623
104.045	16.275	995.230	754.943
105.060	16.175	994.324	753.741
106.074	15.916	993.865	752.168
107.089	15.743	992.624	750.392
108.103	15.824	991.671	749.967
109.118	15.827	990.514	749.039
110.133	15.784	989.234	747.813
111.147	15.857	988.891	747.813
112.162	15.892	987.687	746.991
113.176	15.959	987.476	747.061
114.191	16.010	986.855	746.753
115.206	16.027	986.192	746.257
116.220	16.050	984.838	745.271
117.235	15.976	984.440	744.573
118.249	16.010	983.188	743.714
119.264	15.884	982.381	742.481
120.279	15.885	981.013	741.387
121.293	15.816	980.740	740.809
122.308	15.817	979.785	740.028
123.322	15.743	978.696	738.816
124.337	15.597	977.841	737.464
125.352	15.697	976.750	737.012
126.366	15.744	975.073	735.889
127.381	15.757	974.433	735.398
128.395	15.747	973.482	734.569
129.410	15.805	972.486	734.007
130.424	15.809	972.267	733.796
131.439	15.978	971.233	733.685
132.454	16.068	970.273	733.286
133.468	16.063	969.632	732.716
134.483	15.968	968.857	731.651
135.497	15.952	967.971	730.851
136.512	16.034	967.193	730.551
137.527	16.022	966.368	729.814
138.541	16.034	965.577	729.204
139.556	16.015	965.079	728.678
140.570	16.216	964.435	728.998
141.585	16.235	963.466	728.284
142.600	16.327	962.924	728.207
143.614	16.270	962.725	727.747
144.629	16.454	961.323	727.413
145.643	16.422	960.254	726.404
146.658	16.241	958.908	724.544
147.673	16.220	958.334	723.957
148.687	16.131	957.379	722.789
149.702	16.038	956.594	721.735
150.716	16.193	955.334	721.381
151.731	15.974	955.338	720.382
152.746	16.146	954.180	720.181
153.760	16.277	953.475	720.144
154.775	16.296	953.079	719.863
155.789	16.230	952.575	719.136
156.804	16.358	951.293	718.650
157.819	16.273	951.190	718.147
158.833	16.517	950.156	718.338
159.848	16.580	949.392	717.967
160.862	16.440	948.627	716.731
161.877	16.399	947.127	715.360
162.892	16.113	946.465	713.588
163.906	15.997	945.702	712.456
164.921	16.014	944.896	711.860
165.935	16.178	943.771	711.641
166.950	16.285	943.268	711.648
167.964	16.257	942.148	710.624
168.979	16.145	941.407	709.531
169.994	16.193	940.302	708.837
171.008	16.190	939.616	708.244
172.023	16.367	938.741	708.265
173.037	16.480	938.339	708.373
174.052	16.221	937.840	706.847
175.067	16.284	936.627	706.136
176.081	16.106	936.352	705.120
177.096	16.045	936.084	704.599
178.110	16.271	935.154	704.781
179.125	16.370	934.514	704.651
180.140	16.195	934.332	703.721
181.154	16.347	934.259	704.237
182.169	16.413	933.211	703.662
183.183	16.555	932.593	703.724
184.198	16.487	931.640	702.660
185.213	16.539	931.253	702.520
186.227	16.569	930.638	702.119
187.242	16.706	929.773	701.974
188.256	16.683	929.152	701.348
189.271	16.569	928.844	700.581
190.286	16.441	927.284	698.814
191.300	16.148	926.612	697.034
192.315	15.952	925.935	695.653
193.329	16.092	925.461	695.814
194.344	16.254	924.944	696.031
195.359	16.311	924.525	695.887
196.373	16.418	924.106	695.955
197.388	16.606	923.330	696.082
198.402	16.773	922.728	696.250
199.417	16.895	922.127	696.236
200.432	16.974	921.635	696.127
201.446	16.876	921.640	695.669
202.461	16.956	920.966	695.425
203.475	16.862	920.548	694.664
204.490	16.751	919.631	693.455
205.504	16.676	918.681	692.372
206.519	16.737	917.294	691.515
207.534	16.702	916.837	690.965
208.548	16.812	916.271	690.928
209.563	16.762	915.344	689.964
210.577	16.698	915.011	689.392
211.592	16.791	914.678	689.455
212.607	17.068	913.432	689.583
213.621	16.934	913.271	688.855
214.636	16.958	912.327	688.181
215.650	16.985	911.672	687.732
216.665	17.064	910.851	687.373
217.680	17.084	910.528	687.152
218.694	17.104	909.693	686.541
219.709	17.102	908.860	685.842
220.723	17.037	908.510	685.255
221.738	17.093	907.488	684.651
222.753	17.045	906.874	683.931
223.767	17.063	906.674	683.795
224.782	17.345	905.939	684.313
225.796	17.289	905.292	683.537
226.811	17.304	904.627	683.036
227.826	16.993	904.085	681.320
228.840	17.153	902.845	680.963
229.855	17.081	902.361	680.252
230.869	17.008	901.763	679.447
231.884	17.085	901.022	679.138
232.899	16.953	900.247	677.965
233.913	16.992	899.024	677.139
234.928	16.911	898.929	676.684
235.942	16.966	897.785	675.982
236.957	16.982	897.480	675.760
237.972	16.925	896.966	675.083
238.986	16.990	896.562	674.981
240.001	16.966	895.924	674.344
241.015	17.030	895.177	673.978
242.030	17.063	894.578	673.596
243.045	17.067	894.153	673.231
244.059	17.233	893.406	673.267
245.074	17.175	892.968	672.650
246.088	17.144	892.590	672.182
247.103	17.266	891.785	671.999
248.117	17.407	891.149	672.019
249.132	17.556	891.017	672.446
250.147	17.703	890.382	672.488
251.161	17.722	889.665	671.961
252.176	17.703	889.272	671.529
253.190	17.833	888.414	671.334
254.205	17.896	887.636	670.937
255.220	17.783	887.124	670.045
256.234	17.847	886.282	669.602
257.249	17.809	885.785	669.016
258.263	17.823	885.246	668.607
259.278	17.823	884.422	667.924
260.293	17.843	883.886	667.537
261.307	17.918	883.088	667.169
262.322	17.987	882.683	667.073
263.336	17.972	882.077	666.497
264.351	18.054	881.351	666.210
265.366	17.995	880.837	665.534
266.380	17.929	880.057	664.630
267.395	17.810	879.332	663.559
268.409	17.917	878.397	663.212
269.424	17.940	877.604	662.643
270.439	17.786	877.228	661.701
271.453	17.753	876.391	660.886
272.468	17.780	876.232	660.811
273.482	17.692	875.740	660.042
274.497	17.911	874.782	660.108
275.512	17.741	874.446	659.139
276.526	17.826	873.711	658.855
277.541	17.973	873.110	658.909
278.555	17.974	872.983	658.758
279.570	18.211	871.782	658.709
280.585	18.092	871.329	657.848
281.599	17.958	870.344	656.531
282.614	18.048	869.431	656.132
283.628	18.055	869.049	655.811
284.643	17.985	868.627	655.165
285.657	17.984	868.239	654.810
286.672	18.013	867.729	654.479
287.687	17.990	867.086	653.848
288.701	18.060	866.331	653.488
289.716	18.118	865.490	653.019
290.730	18.034	865.516	652.658
291.745	18.138	864.730	652.407
292.760	18.256	864.131	652.346
293.774	18.212	863.720	651.812
294.789	18.217	862.588	650.919
295.803	18.055	862.009	649.806
296.818	18.152	861.432	649.682
297.833	18.048	860.795	648.751
298.847	18.065	860.131	648.257
299.862	18.234	859.407	648.294
300.876	18.253	859.243	648.187
301.891	18.324	858.415	647.771
302.906	18.504	857.910	648.016
303.920	18.628	857.682	648.255
304.935	18.639	856.928	647.667
305.949	18.406	856.400	646.333
306.964	18.439	855.896	646.021
307.979	18.613	854.807	645.797
308.993	18.519	854.569	645.204
310.008	18.542	853.675	644.558
311.022	18.553	853.419	644.350
312.037	18.477	852.760	643.509
313.052	18.276	852.175	642.258
314.066	18.262	851.711	641.799
315.081	18.255	850.748	640.991
316.095	18.258	850.287	640.596
317.110	18.246	850.139	640.385
318.125	18.192	849.511	639.651
319.139	18.219	848.982	639.300
320.154	18.321	848.380	639.170
321.168	18.395	847.695	638.872
322.183	18.389	847.590	638.714
323.197	18.415	847.070	638.364
324.212	18.597	846.302	638.405
325.227	18.468	845.518	637.277
326.241	18.360	845.231	636.603
327.256	18.333	844.696	636.043
328.270	18.424	843.860	635.697
329.285	18.318	843.626	635.070
330.300	18.369	843.155	634.848
331.314	18.274	842.727	634.117
332.329	18.525	841.656	634.185
333.343	18.513	841.919	634.283
334.358	18.570	841.087	633.810
335.373	18.726	840.483	633.876
336.387	18.731	840.299	633.698
337.402	18.700	840.441	633.636
338.416	18.607	840.217	633.068
339.431	18.729	839.917	633.233
340.446	18.758	839.555	633.014
341.460	18.943	838.750	633.033
342.475	18.953	838.577	632.881
343.489	18.898	838.268	632.392
344.504	19.087	837.219	632.236
345.519	19.309	836.626	632.548
346.533	19.047	836.440	631.388
347.548	18.849	835.854	630.168
348.562	18.788	834.896	629.165
349.577	18.703	834.637	628.602
350.592	18.565	833.753	627.377
351.606	18.817	832.940	627.629
352.621	18.747	832.210	626.767
353.635	18.816	832.081	626.866
354.650	18.836	831.266	626.269
355.665	18.930	830.618	626.068
356.679	19.083	830.097	626.180
357.694	19.131	829.350	625.735
358.708	18.912	828.985	624.608
359.723	18.881	828.549	624.111
360.738	19.024	827.683	623.922
361.752	19.167	827.196	624.017
362.767	19.294	826.636	623.999
363.781	19.238	826.463	623.612
364.796	19.384	825.650	623.470
365.810	19.386	825.662	623.433
366.825	19.585	824.849	623.480
367.840	19.378	824.512	622.426
368.854	19.280	823.779	621.463
369.869	19.331	823.580	621.442
370.883	19.373	822.981	621.085
371.898	19.582	822.769	621.624
372.913	19.540	822.286	621.052
373.927	19.360	821.795	619.980
374.942	19.589	821.197	620.297
375.956	19.399	821.176	619.542
376.971	19.595	820.457	619.651
377.986	19.725	820.148	619.826
379.000	19.690	819.652	619.271
380.015	19.779	818.980	619.029
381.029	19.625	818.509	618.066
382.044	19.727	817.832	617.864
383.059	19.714	817.256	617.327
384.073	19.638	816.819	616.674
385.088	19.418	816.143	615.322
386.102	19.472	815.551	615.016
387.117	19.445	814.865	614.346
388.132	19.486	814.060	613.832
389.146	19.579	813.722	613.852
390.161	19.652	813.473	613.869
391.175	19.787	812.684	613.701
392.190	19.639	812.588	613.048
393.205	19.390	812.113	611.751
394.219	19.560	811.680	611.975
395.234	19.398	811.361	611.105
396.248	19.364	810.483	610.270
397.263	19.138	810.243	609.234
398.278	19.403	809.784	609.773
399.292	19.551	809.004	609.655
400.307	19.362	808.920	608.872
401.321	19.575	808.312	609.111
402.336	19.558	808.045	608.793
403.350	19.683	807.591	608.840
404.365	19.861	806.995	608.964
405.380	19.746	806.823	608.375
406.394	19.789	806.371	608.133
407.409	19.751	806.233	607.840
408.423	19.899	805.497	607.750
409.438	19.996	804.808	607.519
410.453	20.071	804.688	607.637
411.467	20.101	803.928	607.114
412.482	20.263	803.664	607.429
413.496	20.066	803.964	606.912
414.511	20.073	803.175	606.286
415.526	20.038	802.902	605.904
416.540	20.116	802.408	605.751
417.555	20.103	801.897	605.266
418.569	20.101	801.421	604.845
419.584	20.124	801.117	604.642
420.599	20.137	800.455	604.136
421.613	161.775	1371.825	1796.182
422.628	140.471	1455.077	1796.294
