DTS Sentinel unit serial number:	SN413079Multiplexer serial number:	ORYXHardware model number:	OX4-SRSoftware version number:	ORYX F/W v4.00 Oryx Data Collector v3.7.2.0data status	okinstallation	princeton_trtdifferential loss correction	single-endedforward channel	channel 1reverse channel	N/Adate	2019/09/19time	13:02:35forward acquisition time	60.00reverse acquisition time	0.00gamma	496.2192k internal	0.2328k external	0.2328temperature offset calibration	1.0014default loss term (dB/km)	0.3790temperature slope calibration	1.0000multiplexer offset coefficient	1.0000multiplexer slope coefficient	1.0000fibre end	0.00T internal ref (°C)	28.75T ext. ref 1 (°C)	0.92T ext. ref 2 (°C)	26.82length (m)	temperature (°C)	Stokes	anti-Stokes-747.200	800.000	-0.026	-0.097
-746.185	-107.433	0.174	0.038
-745.171	-140.128	0.067	-0.007
-744.156	-128.954	-0.214	0.030
-743.142	-200.000	0.021	-0.394
-742.127	800.000	-0.042	0.160
-741.112	-79.934	0.523	-0.177
-740.098	-108.274	-0.285	-0.062
-739.083	-200.000	0.159	0.001
-738.069	-136.726	-0.200	-0.023
-737.054	800.000	0.032	0.089
-736.039	-144.651	-0.303	-0.028
-735.025	-39.947	0.210	0.111
-734.010	-22.686	-0.203	0.123
-732.996	-113.276	-0.453	-0.090
-731.981	-78.850	0.064	-0.022
-730.966	-39.863	-0.079	0.042
-729.952	-200.000	0.004	0.389
-728.937	-125.931	0.058	-0.009
-727.923	-76.819	-0.240	0.084
-726.908	-47.862	-0.051	-0.025
-725.894	60.896	-0.274	0.274
-724.879	-110.739	-0.125	0.026
-723.864	-123.982	-0.397	0.063
-722.850	-200.000	-0.020	-0.336
-721.835	148.375	-0.085	-0.116
-720.821	-200.000	0.018	-0.104
-719.806	-123.621	-0.350	-0.056
-718.791	-200.000	-0.029	-0.288
-717.777	-200.000	0.007	-0.366
-716.762	221.249	-0.344	0.556
-715.748	-95.184	0.159	0.043
-714.733	131.113	0.212	-0.275
-713.718	-138.264	-0.241	-0.027
-712.704	-63.544	-0.162	0.067
-711.689	-22.713	0.256	0.155
-710.675	216.822	0.122	-0.196
-709.660	31.218	-0.303	-0.262
-708.645	-171.339	0.097	-0.003
-707.631	-3.933	-0.243	0.170
-706.616	-30.150	-0.465	-0.266
-705.602	469.432	0.114	-0.258
-704.587	50.405	-0.277	-0.264
-703.572	-166.531	0.294	0.012
-702.558	-200.000	-0.015	-0.170
-701.543	800.000	0.027	0.115
-700.529	39.601	-0.291	0.262
-699.514	-148.377	-0.437	0.036
-698.499	12.857	-0.110	0.085
-697.485	-200.000	-0.001	-0.085
-696.470	227.504	-0.082	-0.134
-695.456	182.084	-0.148	0.219
-694.441	-90.033	-0.137	0.040
-693.426	156.757	-0.118	0.165
-692.412	-49.376	0.101	-0.049
-691.397	-200.000	0.029	-0.326
-690.383	42.891	-0.052	-0.048
-689.368	141.653	-0.213	-0.284
-688.354	-100.648	0.236	-0.059
-687.339	667.207	0.174	-0.452
-686.324	-200.000	-0.014	0.132
-685.310	177.980	0.051	-0.075
-684.295	115.069	-0.225	-0.276
-683.281	800.000	-0.042	-0.141
-682.266	-173.416	0.322	-0.010
-681.251	-98.625	-0.295	0.076
-680.237	-132.968	0.100	0.013
-679.222	-40.619	-0.224	0.117
-678.208	-200.000	-0.046	0.234
-677.193	-200.000	-0.062	-0.298
-676.178	79.825	-0.061	-0.065
-675.164	-200.000	-0.005	0.127
-674.149	-8.037	0.238	-0.161
-673.135	-200.000	0.012	0.227
-672.120	-200.000	-0.072	-0.371
-671.105	-86.648	-0.328	0.101
-670.091	21.072	-0.162	0.132
-669.076	-200.000	0.007	-0.156
-668.062	417.057	-0.189	0.405
-667.047	-7.484	0.017	0.011
-666.032	-103.945	0.142	-0.033
-665.018	93.984	0.144	-0.164
-664.003	122.169	-0.098	-0.123
-662.989	297.174	-0.060	-0.110
-661.974	-86.854	0.225	0.069
-660.959	126.110	-0.198	-0.252
-659.945	-191.032	0.226	-0.002
-658.930	-200.000	-0.043	0.197
-657.916	38.024	0.067	0.060
-656.901	521.918	0.039	0.091
-655.886	114.991	0.075	0.092
-654.872	195.093	-0.160	-0.245
-653.857	33.972	0.068	0.059
-652.843	-76.852	-0.269	-0.094
-651.828	-200.000	-0.000	-0.348
-650.814	-105.584	0.210	-0.048
-649.799	181.210	0.262	0.386
-648.784	172.578	0.151	0.218
-647.770	2.457	-0.135	0.098
-646.755	800.000	0.049	0.166
-645.741	80.151	-0.129	-0.140
-644.726	306.314	0.201	0.375
-643.711	-63.153	-0.209	0.087
-642.697	-35.872	-0.115	0.063
-641.682	171.828	0.124	0.179
-640.668	-114.848	-0.145	0.028
-639.653	800.000	0.076	-0.318
-638.638	116.469	-0.100	0.123
-637.624	22.732	0.213	-0.175
-636.609	-200.000	0.038	-0.356
-635.595	800.000	0.039	-0.113
-634.580	-60.722	-0.205	-0.087
-633.565	268.093	0.189	-0.331
-632.551	12.523	0.033	-0.026
-631.536	800.000	0.028	-0.086
-630.522	-38.526	0.213	0.113
-629.507	800.000	0.021	0.080
-628.492	-121.982	-0.140	-0.023
-627.478	-39.942	-0.059	0.031
-626.463	800.000	0.101	-0.311
-625.449	-74.797	-0.217	-0.078
-624.434	-16.303	-0.104	-0.066
-623.419	-200.000	-0.007	0.069
-622.405	-200.000	0.004	-0.041
-621.390	-122.645	-0.101	-0.016
-620.376	-40.396	-0.134	-0.070
-619.361	52.761	-0.223	-0.214
-618.346	-200.000	0.030	-0.206
-617.332	800.000	-0.011	0.043
-616.317	800.000	0.082	-0.281
-615.303	-172.754	-0.389	0.012
-614.288	-128.091	0.351	-0.050
-613.273	-200.000	0.016	-0.092
-612.259	-200.000	0.001	0.148
-611.244	-71.098	0.260	0.098
-610.230	800.000	-0.068	-0.193
-609.215	800.000	-0.046	0.143
-608.201	143.455	-0.068	-0.091
-607.186	-80.639	0.157	0.052
-606.171	62.518	-0.156	-0.156
-605.157	-118.481	-0.151	0.027
-604.142	12.161	-0.200	-0.154
-603.128	432.886	0.080	-0.174
-602.113	42.860	-0.150	-0.137
-601.098	634.100	-0.118	-0.299
-600.084	185.865	-0.213	-0.317
-599.069	20.588	-0.181	0.147
-598.055	288.073	0.038	-0.068
-597.040	-8.365	-0.200	-0.135
-596.025	-200.000	0.010	0.045
-595.011	-4.738	-0.288	-0.199
-593.996	167.594	0.058	-0.082
-592.982	-42.184	0.256	0.131
-591.967	24.109	-0.099	-0.082
-590.952	172.332	-0.107	-0.154
-589.938	204.032	-0.038	-0.059
-588.923	-80.428	-0.126	-0.042
-587.909	-111.949	-0.257	-0.052
-586.894	59.585	0.103	-0.102
-585.879	-52.219	-0.216	0.100
-584.865	43.079	0.095	-0.087
-583.850	385.770	0.147	-0.305
-582.836	-120.193	-0.156	0.027
-581.821	668.172	0.101	0.261
-580.806	-95.050	-0.444	-0.120
-579.792	-200.000	0.062	-0.360
-578.777	800.000	-0.066	-0.283
-577.763	-200.000	0.003	-0.050
-576.748	204.316	0.148	0.229
-575.733	-132.517	-0.069	-0.009
-574.719	800.000	0.047	0.159
-573.704	449.578	-0.125	0.276
-572.690	316.345	-0.052	0.099
-571.675	156.191	-0.084	0.116
-570.661	-23.690	0.099	0.060
-569.646	-158.683	-0.273	-0.016
-568.631	-18.501	-0.048	-0.030
-567.617	-96.864	-0.324	-0.085
-566.602	447.500	0.020	-0.043
-565.588	632.085	0.171	0.433
-564.573	800.000	0.064	-0.259
-563.558	142.229	-0.171	0.227
-562.544	-38.167	0.227	-0.120
-561.529	77.663	0.193	-0.206
-560.515	712.930	-0.111	0.295
-559.500	-200.000	-0.026	0.372
-558.485	86.975	0.114	-0.126
-557.471	-13.742	0.153	0.099
-556.456	32.523	-0.291	0.252
-555.442	169.883	0.197	0.282
-554.427	-200.000	-0.019	0.419
-553.412	14.410	-0.216	0.169
-552.398	-20.596	-0.252	-0.155
-551.383	423.413	-0.105	0.225
-550.369	-200.000	0.005	0.185
-549.354	14.851	0.144	0.113
-548.339	-44.137	-0.096	-0.048
-547.325	-82.317	0.197	0.064
-546.310	800.000	-0.011	0.032
-545.296	5.277	0.166	-0.122
-544.281	228.363	-0.393	-0.640
-543.266	81.670	-0.195	-0.211
-542.252	-75.438	0.133	-0.047
-541.237	144.811	0.110	0.147
-540.223	186.902	0.067	0.100
-539.208	-12.974	0.283	0.184
-538.193	-200.000	-0.012	0.153
-537.179	-92.031	0.360	-0.102
-536.164	609.596	-0.096	0.240
-535.150	800.000	0.033	-0.095
-534.135	800.000	0.009	0.037
-533.121	800.000	-0.071	0.221
-532.106	-93.177	0.392	-0.109
-531.091	-29.294	-0.420	-0.241
-530.077	-200.000	0.028	-0.140
-529.062	-200.000	0.024	-0.175
-528.048	50.742	-0.026	0.024
-527.033	-107.282	0.257	0.057
-526.018	-199.619	0.056	-0.000
-525.004	163.957	-0.072	0.102
-523.989	432.827	0.082	0.179
-522.975	10.231	0.089	-0.067
-521.960	-200.000	-0.012	0.184
-520.945	213.005	-0.252	-0.397
-519.931	350.631	0.061	-0.121
-518.916	274.211	-0.090	0.160
-517.902	148.591	0.104	-0.141
-516.887	-200.000	0.024	-0.406
-515.872	-41.795	-0.251	0.129
-514.858	800.000	-0.076	-0.235
-513.843	727.782	-0.102	0.272
-512.829	125.964	0.233	0.294
-511.814	169.943	0.134	0.191
-510.799	-85.352	0.166	-0.052
-509.785	40.685	0.089	-0.080
-508.770	-200.000	-0.001	-0.132
-507.756	-200.000	0.007	0.177
-506.741	39.049	-0.190	-0.170
-505.726	-93.917	-0.331	-0.091
-504.712	-200.000	-0.008	0.081
-503.697	800.000	-0.095	-0.283
-502.683	-200.000	0.014	0.135
-501.668	214.832	-0.056	0.089
-500.653	15.585	0.242	0.190
-499.639	800.000	-0.042	-0.129
-498.624	-200.000	-0.014	-0.163
-497.610	153.626	-0.106	-0.145
-496.595	525.890	0.031	-0.073
-495.581	-140.713	0.102	-0.011
-494.566	-144.447	-0.261	-0.024
-493.551	321.149	-0.041	0.079
-492.537	-131.198	-0.305	-0.040
-491.522	-142.362	0.305	-0.030
-490.508	391.172	-0.138	0.287
-489.493	58.335	-0.099	-0.097
-488.478	-111.399	-0.174	0.035
-487.464	-132.506	-0.128	-0.016
-486.449	-92.866	-0.235	-0.065
-485.435	364.061	0.173	0.346
-484.420	341.642	-0.086	-0.167
-483.405	34.180	0.238	-0.207
-482.391	-118.223	0.143	-0.025
-481.376	-116.945	0.074	0.014
-480.362	-126.707	-0.078	0.011
-479.347	-200.000	-0.022	0.345
-478.332	10.411	0.240	0.182
-477.318	-120.206	-0.255	0.043
-476.303	-61.198	0.227	0.096
-475.289	-200.000	-0.007	-0.210
-474.274	800.000	-0.080	0.223
-473.259	-86.632	-0.382	-0.117
-472.245	-200.000	-0.003	0.194
-471.230	800.000	0.114	0.316
-470.216	800.000	-0.075	0.261
-469.201	-17.032	0.296	0.186
-468.186	-26.360	-0.241	-0.141
-467.172	-121.670	-0.346	0.057
-466.157	-58.877	0.236	-0.102
-465.143	-200.000	-0.013	-0.192
-464.128	-200.000	0.013	-0.249
-463.113	415.045	0.076	-0.161
-462.099	173.951	0.175	-0.251
-461.084	-91.701	-0.087	-0.025
-460.070	-200.000	-0.030	0.169
-459.055	1.268	-0.164	0.117
-458.040	76.862	0.168	-0.177
-457.026	800.000	-0.089	0.265
-456.011	-200.000	0.037	0.321
-454.997	800.000	-0.049	0.149
-453.982	161.724	0.186	-0.259
-452.968	76.713	0.045	-0.048
-451.953	-200.000	0.003	-0.094
-450.938	-68.502	-0.178	-0.069
-449.924	800.000	0.095	0.285
-448.909	88.838	-0.256	-0.284
-447.895	-200.000	-0.030	-0.192
-446.880	-5.746	-0.150	0.102
-445.865	5.355	0.130	0.095
-444.851	513.956	-0.152	0.353
-443.836	89.490	-0.137	0.152
-442.822	-102.215	0.226	-0.054
-441.807	800.000	-0.048	0.134
-440.792	-115.587	-0.156	0.029
-439.778	79.365	-0.051	-0.055
-438.763	800.000	-0.056	-0.235
-437.749	551.898	-0.200	0.478
-436.734	-200.000	-0.039	0.252
-435.719	-200.000	-0.194	-0.001
-434.705	27.142	0.233	0.195
-433.690	44.076	0.184	0.168
-432.676	-142.498	-0.422	0.041
-431.661	371.331	0.066	-0.133
-430.646	87.299	-0.151	-0.166
-429.632	13.700	-0.343	0.265
-428.617	-200.000	-0.036	0.225
-427.603	122.235	0.052	-0.065
-426.588	-52.164	-0.117	-0.054
-425.573	282.621	0.015	-0.026
-424.559	67.197	-0.078	0.079
-423.544	-172.543	0.308	0.010
-422.530	-85.015	0.141	0.044
-421.515	330.907	-0.013	-0.024
-420.500	-38.362	0.082	0.043
-419.486	97.479	-0.172	-0.196
-418.471	323.102	-0.090	-0.171
-417.457	-68.295	0.114	0.044
-416.442	-200.000	0.043	-0.307
-415.428	106.365	0.198	0.233
-414.413	-200.000	-0.077	-0.419
-413.398	-48.256	-0.128	-0.061
-412.384	-10.523	0.112	0.073
-411.369	157.714	0.029	-0.040
-410.355	182.368	-0.375	-0.550
-409.340	26.975	0.065	-0.054
-408.325	176.117	0.058	-0.084
-407.311	-160.516	0.174	0.009
-406.296	148.700	0.116	-0.156
-405.282	191.337	-0.117	0.176
-404.267	-47.444	0.097	-0.047
-403.252	-166.457	0.334	-0.014
-402.238	216.502	-0.079	0.125
-401.223	528.296	0.113	-0.265
-400.209	800.000	0.095	-0.351
-399.194	-46.099	0.086	-0.042
-398.179	240.740	0.087	0.144
-397.165	-200.000	0.022	0.129
-396.150	180.882	0.194	0.283
-395.136	-72.863	-0.424	-0.155
-394.121	-200.000	0.006	0.100
-393.106	293.884	0.071	0.128
-392.092	-95.857	-0.315	-0.084
-391.077	-115.923	-0.072	0.013
-390.063	-145.338	0.384	-0.034
-389.048	-200.000	-0.005	0.170
-388.033	621.344	0.092	-0.231
-387.019	800.000	-0.046	0.194
-386.004	407.599	0.034	-0.071
-384.990	-76.625	-0.143	-0.050
-383.975	-156.370	0.244	0.015
-382.960	367.435	-0.095	-0.190
-381.946	-2.853	0.182	0.126
-380.931	-118.177	-0.276	-0.049
-379.917	-23.173	0.146	0.087
-378.902	493.410	0.078	-0.177
-377.888	-38.598	-0.158	0.083
-376.873	-93.262	0.330	0.091
-375.858	164.152	0.044	-0.062
-374.844	-1.568	-0.047	0.033
-373.829	-10.538	0.368	0.242
-372.815	-43.950	-0.091	-0.046
-371.800	1.418	0.026	-0.018
-370.785	287.077	-0.104	0.186
-369.771	800.000	0.070	0.206
-368.756	-132.326	-0.140	-0.018
-367.742	800.000	-0.017	0.066
-366.727	-104.086	0.423	-0.098
-365.712	-13.048	-0.086	0.056
-364.698	-149.029	-0.046	-0.004
-363.683	669.682	0.069	-0.178
-362.669	-59.508	0.105	0.045
-361.654	-92.239	0.256	-0.072
-360.639	143.689	0.128	-0.169
-359.625	800.000	-0.075	-0.222
-358.610	800.000	0.064	0.262
-357.596	800.000	-0.023	-0.086
-356.581	683.147	0.066	-0.172
-355.566	282.626	0.108	-0.192
-354.552	153.533	-0.044	0.060
-353.537	-74.863	0.248	0.088
-352.523	523.123	0.149	-0.347
-351.508	15.054	-0.347	0.270
-350.493	-200.000	0.007	0.144
-349.479	8.022	0.205	0.153
-348.464	523.104	-0.072	0.169
-347.450	240.565	0.155	-0.257
-346.435	-183.512	0.102	-0.002
-345.420	-200.000	-0.007	-0.187
-344.406	-179.764	0.140	0.003
-343.391	-60.686	-0.031	0.013
-342.377	-200.000	0.011	-0.059
-341.362	213.390	0.248	-0.389
-340.348	-200.000	0.035	-0.156
-339.333	58.536	0.254	0.248
-338.318	-200.000	0.009	0.160
-337.304	782.164	0.069	0.188
-336.289	-200.000	-0.078	-0.389
-335.275	339.583	-0.142	0.274
-334.260	37.098	0.323	0.284
-333.245	-34.555	-0.213	-0.116
-332.231	-104.467	0.156	-0.036
-331.216	78.092	-0.086	-0.091
-330.202	-11.778	-0.345	-0.225
-329.187	-125.532	-0.103	-0.016
-328.172	269.778	0.139	-0.242
-327.158	-163.635	-0.076	-0.004
-326.143	-138.108	-0.266	0.029
-325.129	189.953	-0.078	0.116
-324.114	-200.000	-0.031	-0.155
-323.099	-103.852	-0.190	0.044
-322.085	-10.115	-0.566	0.372
-321.070	800.000	0.015	-0.052
-320.056	208.367	0.099	-0.153
-319.041	40.564	0.153	0.137
-318.026	-120.654	0.125	-0.021
-317.012	-200.000	-0.011	0.157
-315.997	23.773	-0.102	-0.084
-314.983	-155.967	-0.305	0.019
-313.968	528.310	0.029	-0.067
-312.953	790.452	-0.113	0.308
-311.939	-123.962	0.170	0.026
-310.924	475.347	-0.114	-0.255
-309.910	-68.157	0.239	0.092
-308.895	3.050	0.248	-0.178
-307.880	-159.518	-0.235	0.013
-306.866	800.000	-0.032	0.121
-305.851	-200.000	-0.007	-0.118
-304.837	177.059	0.064	-0.093
-303.822	-173.565	-0.069	-0.002
-302.807	-13.411	0.185	-0.119
-301.793	-200.000	0.003	0.306
-300.778	800.000	-0.073	0.265
-299.764	5.746	-0.354	0.259
-298.749	360.156	0.188	0.373
-297.735	125.800	0.223	-0.278
-296.720	-200.000	0.057	-0.329
-295.705	79.774	-0.166	0.176
-294.691	-108.456	-0.207	-0.044
-293.676	56.742	-0.261	-0.252
-292.662	426.284	-0.068	-0.145
-291.647	-200.000	0.044	0.353
-290.632	178.602	-0.094	0.135
-289.618	58.998	-0.192	0.187
-288.603	93.668	0.026	0.030
-287.589	-129.435	-0.083	0.011
-286.574	77.347	0.069	0.073
-285.559	-34.262	0.326	-0.177
-284.545	800.000	-0.029	0.099
-283.530	329.130	-0.030	-0.058
-282.516	10.513	0.084	-0.063
-281.501	800.000	-0.050	0.180
-280.486	41.304	0.014	-0.012
-279.472	158.595	-0.226	-0.311
-278.457	-200.000	-0.024	-0.304
-277.443	641.161	0.125	-0.316
-276.428	800.000	-0.077	-0.333
-275.413	55.845	-0.035	-0.034
-274.399	-41.741	-0.414	-0.210
-273.384	8.054	0.081	0.060
-272.370	665.552	0.199	0.508
-271.355	800.000	0.086	0.235
-270.340	79.088	-0.351	-0.372
-269.326	-42.710	0.473	0.238
-268.311	-154.263	-0.191	0.013
-267.297	800.000	0.094	0.270
-266.282	-58.123	0.217	0.093
-265.267	10.284	0.084	-0.063
-264.253	445.305	-0.013	0.029
-263.238	-73.814	-0.045	-0.016
-262.224	800.000	0.041	-0.133
-261.209	259.474	-0.141	-0.240
-260.195	-200.000	0.009	0.403
-259.180	320.199	0.078	-0.146
-258.165	-200.000	0.020	0.137
-257.151	-60.619	0.084	0.035
-256.136	-200.000	0.044	-0.262
-255.122	205.437	-0.119	-0.183
-254.107	-200.000	0.002	0.052
-253.092	39.358	0.339	-0.300
-252.078	-64.846	-0.130	-0.052
-251.063	-200.000	0.001	-0.059
-250.049	-47.606	0.120	-0.058
-249.034	-44.965	0.256	0.126
-248.019	250.688	0.146	-0.246
-247.005	-118.485	-0.308	-0.054
-245.990	606.106	-0.064	-0.157
-244.976	-38.946	0.288	-0.150
-243.961	-116.987	-0.138	-0.025
-242.946	312.175	0.088	0.163
-241.932	252.379	0.158	-0.266
-240.917	800.000	-0.074	0.213
-239.903	17.994	-0.113	0.089
-238.888	723.348	-0.139	0.365
-237.873	158.781	0.304	0.417
-236.859	101.405	0.384	0.442
-235.844	-95.463	-0.160	-0.042
-234.830	392.894	0.144	0.297
-233.815	-200.000	0.066	-0.438
-232.800	113.902	-0.176	-0.212
-231.786	-200.000	-0.005	0.103
-230.771	1.528	-0.228	-0.162
-229.757	313.206	0.068	0.127
-228.742	-94.614	0.265	-0.071
-227.727	-91.468	-0.270	-0.076
-226.713	-139.232	0.484	-0.051
-225.698	6.115	0.270	-0.197
-224.684	800.000	0.056	0.171
-223.669	44.569	0.424	0.384
-222.655	-152.202	-0.425	-0.030
-221.640	85.294	0.143	0.155
-220.625	-58.381	-0.158	0.068
-219.611	-88.689	0.087	0.026
-218.596	-81.442	-0.220	-0.071
-217.582	-97.147	-0.340	0.088
-216.567	800.000	0.015	-0.058
-215.552	800.000	0.118	-0.344
-214.538	800.000	-0.049	0.183
-213.523	72.723	-0.121	-0.125
-212.509	-200.000	0.049	0.289
-211.494	403.322	0.060	-0.124
-210.479	405.350	0.093	-0.193
-209.465	231.826	-0.168	0.272
-208.450	-149.575	0.314	-0.024
-207.436	13.444	0.321	0.246
-206.421	-200.000	0.002	0.285
-205.406	9.500	-0.396	0.296
-204.392	-85.234	-0.179	0.055
-203.377	-66.498	0.166	0.065
-202.363	659.819	-0.146	0.370
-201.348	-157.263	0.311	0.019
-200.333	137.539	0.029	-0.038
-199.319	-93.113	-0.305	-0.084
-198.304	800.000	-0.061	-0.213
-197.290	-42.022	0.336	-0.170
-196.275	472.103	-0.051	-0.113
-195.260	745.734	0.065	0.173
-194.246	266.588	0.033	-0.057
-193.231	47.825	-0.160	-0.147
-192.217	10.596	-0.150	-0.113
-191.202	64.672	-0.122	-0.121
-190.187	-200.000	-0.040	-0.185
-189.173	-100.668	0.071	-0.017
-188.158	42.166	0.181	0.162
-187.144	24.177	-0.177	0.144
-186.129	-25.857	-0.050	0.029
-185.114	-121.480	-0.035	0.006
-184.100	-110.461	-0.075	-0.015
-183.085	-200.000	-0.026	0.210
-182.071	166.202	0.103	-0.143
-181.056	-55.357	0.211	0.093
-180.042	-43.894	-0.104	-0.051
-179.027	800.000	0.106	-0.417
-178.012	800.000	-0.055	-0.217
-176.998	800.000	0.022	-0.085
-175.983	-200.000	0.002	-0.172
-174.969	73.126	0.244	0.251
-173.954	107.600	-0.186	0.218
-172.939	800.000	0.081	0.240
-171.925	-72.408	0.152	-0.055
-170.910	-61.947	0.382	-0.157
-169.896	-57.955	-0.394	0.169
-168.881	0.928	-0.043	0.030
-167.866	26.554	0.227	-0.187
-166.852	800.000	0.041	-0.154
-165.837	24.264	0.198	0.161
-164.823	-171.788	0.161	0.005
-163.808	-166.699	-0.179	0.007
-162.793	-112.459	0.448	-0.088
-161.779	96.029	-0.132	-0.148
-160.764	-21.742	0.260	-0.156
-159.750	13.217	-0.080	0.061
-158.735	264.768	-0.208	0.357
-157.720	800.000	0.047	-0.160
-156.706	56.775	0.294	0.282
-155.691	426.602	0.060	-0.127
-154.677	-200.000	-0.059	0.428
-153.662	39.480	0.269	-0.238
-152.647	-51.298	-0.069	0.032
-151.633	543.045	0.047	0.111
-150.618	-29.272	0.263	-0.148
-149.604	232.252	0.171	0.276
-148.589	48.057	0.066	0.061
-147.574	-69.393	0.121	-0.046
-146.560	-187.498	0.227	0.003
-145.545	-57.597	-0.140	-0.060
-144.531	423.934	0.057	0.121
-143.516	182.143	0.011	-0.015
-142.502	6.405	-0.264	-0.193
-141.487	-28.058	0.266	-0.152
-140.472	110.313	0.124	-0.147
-139.458	150.988	0.121	-0.162
-138.443	-200.000	-0.017	-0.222
-137.429	26.506	-0.310	0.256
-136.414	-200.000	0.017	-0.224
-135.399	-200.000	-0.023	-0.135
-134.385	262.106	0.114	-0.194
-133.370	-36.800	-0.085	-0.045
-132.356	11.099	-0.203	-0.153
-131.341	-200.000	-0.027	-0.179
-130.326	-117.340	0.287	-0.051
-129.312	762.374	0.124	0.331
-128.297	13.874	0.076	0.058
-127.283	-125.886	-0.141	0.021
-126.268	-39.792	-0.185	0.095
-125.253	336.443	0.074	0.140
-124.239	800.000	0.063	-0.227
-123.224	-82.016	0.524	0.168
-122.210	255.266	-0.102	0.171
-121.195	-109.425	-0.232	-0.048
-120.180	-138.254	0.204	-0.022
-119.166	-27.098	0.110	-0.063
-118.151	257.759	0.242	0.410
-117.137	289.106	-0.095	0.170
-116.122	-52.707	-0.283	0.129
-115.107	-169.086	-0.216	0.008
-114.093	266.738	-0.257	0.441
-113.078	800.000	-0.031	-0.094
-112.064	-122.398	-0.187	0.030
-111.049	147.534	0.078	0.103
-110.034	65.470	0.156	0.155
-109.020	143.138	-0.133	-0.174
-108.005	448.423	-0.032	-0.070
-106.991	397.402	0.064	-0.132
-105.976	222.374	0.013	-0.020
-104.962	-189.077	0.048	-0.001
-103.947	-93.036	-0.386	-0.106
-102.932	-59.502	-0.375	-0.158
-101.918	-1.690	0.175	-0.121
-100.903	-39.385	0.184	-0.095
-99.889	-29.153	-0.267	0.150
-98.874	-200.000	0.059	-0.301
-97.859	-63.363	0.218	-0.088
-96.845	800.000	-0.056	-0.166
-95.830	-200.000	0.028	-0.234
-94.816	-155.162	-0.017	0.001
-93.801	629.640	0.040	0.100
-92.786	-104.164	-0.071	-0.016
-91.772	-114.718	-0.104	0.020
-90.757	63.573	0.161	0.159
-89.743	-82.764	-0.213	-0.068
-88.728	-24.766	-0.131	-0.077
-87.713	800.000	0.078	0.303
-86.699	-13.408	0.224	-0.143
-85.684	-118.586	-0.294	0.051
-84.670	-200.000	0.009	0.208
-83.655	-200.000	0.058	-0.307
-82.640	800.000	0.069	0.221
-81.626	-55.204	0.178	0.079
-80.611	-95.264	0.317	-0.084
-79.597	11.484	0.219	0.164
-78.582	-200.000	0.007	0.261
-77.567	153.312	-0.174	-0.234
-76.553	125.958	-0.178	0.220
-75.538	800.000	-0.104	0.319
-74.524	534.227	-0.145	0.338
-73.509	-4.782	0.107	0.073
-72.494	115.976	0.116	-0.139
-71.480	125.938	0.296	-0.367
-70.465	92.641	0.089	0.099
-69.451	96.141	0.186	-0.208
-68.436	411.813	0.138	-0.287
-67.422	193.460	0.056	-0.084
-66.407	17.515	-0.286	-0.223
-65.392	800.000	0.117	0.479
-64.378	-186.351	0.040	-0.001
-63.363	-11.312	0.072	0.046
-62.349	-10.138	0.124	-0.081
-61.334	167.933	-0.904	-1.262
-60.319	-22.251	0.677	0.403
-59.305	548.161	-0.449	-1.055
-58.290	227.338	0.746	1.190
-57.276	350.296	0.842	1.633
-56.261	-200.000	107.187	584.338
-55.246	409.940	1521.641	3162.580
-54.232	138.228	2737.436	3521.113
-53.217	102.693	2208.088	2533.990
-52.203	40.229	1639.758	1446.311
-51.188	32.002	1374.985	1162.040
-50.173	28.925	1334.176	1108.984
-49.159	52.279	1387.916	1297.946
-48.144	52.571	1403.421	1314.189
-47.130	32.332	1357.900	1149.436
-46.115	29.047	1340.026	1114.411
-45.100	28.801	1335.091	1108.779
-44.086	28.605	1333.097	1105.899
-43.071	28.563	1330.681	1103.599
-42.057	28.545	1328.773	1101.859
-41.042	28.642	1326.667	1100.654
-40.027	28.735	1324.649	1099.494
-39.013	28.607	1322.958	1097.280
-37.998	28.722	1321.210	1096.472
-36.984	28.740	1319.387	1095.026
-35.969	28.801	1316.944	1093.319
-34.954	28.803	1315.401	1092.006
-33.940	28.738	1314.687	1090.978
-32.925	28.712	1313.386	1089.706
-31.911	28.920	1311.550	1089.368
-30.896	28.955	1309.789	1088.070
-29.881	28.801	1309.074	1086.521
-28.867	28.945	1306.911	1085.533
-27.852	28.761	1306.185	1083.802
-26.838	28.874	1304.535	1083.056
-25.823	28.960	1302.894	1082.158
-24.809	28.817	1301.407	1080.041
-23.794	28.827	1300.361	1079.185
-22.779	28.830	1299.054	1078.076
-21.765	28.934	1297.296	1077.185
-20.750	28.854	1295.959	1075.562
-19.736	28.803	1294.548	1074.053
-18.721	28.685	1293.896	1072.777
-17.706	28.734	1292.516	1071.876
-16.692	28.764	1291.064	1070.805
-15.677	28.570	1290.549	1069.206
-14.663	28.635	1289.405	1068.595
-13.648	28.586	1288.231	1067.293
-12.633	28.667	1287.121	1066.803
-11.619	28.703	1286.243	1066.242
-10.604	28.646	1285.840	1065.534
-9.590	28.717	1284.396	1064.705
-8.575	28.679	1283.536	1063.732
-7.560	28.667	1282.618	1062.862
-6.546	28.666	1281.652	1062.013
-5.531	28.610	1280.702	1060.858
-4.517	28.645	1280.239	1060.633
-3.502	28.609	1279.313	1059.619
-2.487	28.773	1277.787	1059.259
-1.473	28.771	1274.039	1056.098
-0.458	27.905	1260.119	1039.590
0.556	24.306	1243.889	1006.062
1.571	20.593	1250.261	990.026
2.586	19.206	1264.359	993.114
3.600	18.262	1252.242	978.114
4.615	13.441	1177.500	893.682
5.629	5.097	1100.995	793.267
6.644	1.301	1080.914	759.757
7.659	0.809	1079.276	756.078
8.673	0.770	1078.426	755.225
9.688	0.802	1076.771	754.155
10.702	1.170	1074.752	754.506
11.717	5.624	1081.170	781.198
12.731	13.323	1091.252	827.050
13.746	17.025	1095.189	848.501
14.761	17.489	1095.033	850.627
15.775	16.653	1093.747	845.380
16.790	15.704	1091.191	838.600
17.804	15.018	1090.036	834.217
18.819	14.734	1088.828	831.806
19.834	14.469	1087.258	829.212
20.848	14.089	1086.896	826.975
21.863	13.919	1085.956	825.342
22.877	13.713	1085.233	823.697
23.892	13.744	1084.528	823.242
24.907	13.695	1083.984	822.514
25.921	13.711	1083.016	821.783
26.936	13.743	1082.176	821.232
27.950	13.690	1081.363	820.279
28.965	13.737	1079.962	819.375
29.980	13.865	1078.015	818.457
30.994	13.848	1077.465	817.884
32.009	13.887	1076.105	816.973
33.023	14.032	1074.594	816.468
34.038	13.804	1074.276	815.034
35.053	13.770	1073.355	814.095
36.067	13.795	1072.347	813.381
37.082	13.835	1071.789	813.081
38.096	13.960	1070.933	812.971
39.111	13.901	1069.978	811.889
40.126	13.767	1068.891	810.337
41.140	13.750	1067.490	809.119
42.155	13.756	1066.279	808.157
43.169	13.669	1065.366	806.970
44.184	13.653	1064.415	806.101
45.199	13.702	1063.278	805.410
46.213	13.718	1062.289	804.665
47.228	13.772	1060.972	803.858
48.242	13.724	1060.202	802.969
49.257	13.817	1058.537	802.087
50.271	13.863	1057.989	801.824
51.286	13.881	1056.975	801.071
52.301	13.814	1056.284	800.153
53.315	13.762	1055.265	799.059
54.330	13.734	1054.714	798.438
55.344	13.663	1053.568	797.158
56.359	13.736	1052.637	796.735
57.374	13.681	1051.917	795.857
58.388	13.611	1051.061	794.800
59.403	13.695	1049.980	794.317
60.417	13.716	1049.206	793.758
61.432	13.664	1048.288	792.748
62.447	13.584	1047.646	791.809
63.461	13.714	1046.881	791.784
64.476	13.583	1046.085	790.482
65.490	13.690	1045.388	790.397
66.505	13.649	1044.441	789.419
67.520	13.794	1043.090	789.018
68.534	13.761	1042.764	788.541
69.549	13.727	1042.264	787.935
70.563	13.766	1041.183	787.230
71.578	13.675	1040.484	786.200
72.593	13.692	1039.642	785.575
73.607	13.708	1039.083	785.161
74.622	13.625	1038.341	784.136
75.636	13.637	1037.496	783.488
76.651	13.617	1037.042	782.981
77.666	13.609	1036.506	782.466
78.680	13.634	1035.447	781.716
79.695	13.637	1035.310	781.560
80.709	13.681	1034.127	780.805
81.724	13.689	1033.429	780.246
82.739	13.699	1032.939	779.855
83.753	13.802	1032.100	779.638
84.768	13.923	1030.856	779.193
85.782	13.813	1029.891	777.882
86.797	13.758	1029.176	777.013
87.812	13.665	1028.820	776.242
88.826	13.672	1027.303	775.059
89.841	13.849	1026.204	774.987
90.855	13.801	1025.204	773.944
91.870	13.883	1024.673	773.856
92.884	13.921	1023.235	772.879
93.899	13.823	1023.234	772.352
94.914	13.906	1022.009	771.744
95.928	13.954	1021.263	771.336
96.943	13.947	1020.576	770.716
97.957	13.812	1019.630	769.308
98.972	13.933	1018.661	769.067
99.987	13.933	1017.657	768.242
101.001	13.925	1016.784	767.478
102.016	13.875	1016.346	766.847
103.030	13.874	1015.627	766.233
104.045	13.910	1014.448	765.444
105.060	13.932	1013.092	764.454
106.074	13.798	1012.529	763.342
107.089	13.886	1011.348	762.790
108.103	13.825	1010.530	761.828
109.118	13.685	1009.850	760.605
110.133	13.814	1008.917	760.425
111.147	13.797	1007.828	759.458
112.162	13.774	1007.193	758.808
113.176	13.896	1006.507	758.781
114.191	13.908	1006.004	758.393
115.206	13.898	1005.045	757.556
116.220	13.872	1004.211	756.741
117.235	13.956	1002.693	755.913
118.249	13.964	1002.005	755.363
119.264	13.828	1001.493	754.293
120.279	13.807	1001.095	753.831
121.293	13.882	1000.173	753.408
122.308	14.015	998.892	752.979
123.322	13.806	998.045	751.330
124.337	13.784	997.036	750.403
125.352	13.948	995.760	750.117
126.366	13.813	995.385	749.160
127.381	13.851	993.864	748.119
128.395	13.901	992.787	747.467
129.410	13.843	992.278	746.757
130.424	13.829	991.195	745.812
131.439	13.968	989.998	745.471
132.454	13.984	989.354	744.991
133.468	13.948	988.551	744.158
134.483	13.889	987.993	743.409
135.497	13.925	987.107	742.839
136.512	14.077	985.817	742.480
137.527	13.807	985.434	740.920
138.541	13.885	984.942	740.835
139.556	13.805	983.957	739.670
140.570	13.957	982.996	739.562
141.585	14.093	981.967	739.326
142.600	13.950	981.423	738.217
143.614	14.178	980.390	738.383
144.629	14.030	979.650	737.104
145.643	14.095	978.799	736.690
146.658	13.938	978.013	735.338
147.673	14.037	976.931	734.894
148.687	13.983	976.332	734.142
149.702	13.923	975.805	733.415
150.716	13.940	974.447	732.403
151.731	13.899	973.710	731.605
152.746	14.051	973.127	731.773
153.760	14.038	972.511	731.188
154.775	14.055	972.112	730.895
155.789	14.203	971.253	730.834
156.804	14.208	970.241	730.031
157.819	14.057	970.146	729.235
158.833	14.194	968.959	728.879
159.848	14.262	968.061	728.435
160.862	14.211	967.259	727.543
161.877	14.173	965.939	726.320
162.892	14.195	965.466	725.998
163.906	14.076	964.710	724.845
164.921	14.114	963.899	724.335
165.935	14.047	962.650	723.044
166.950	14.178	961.776	722.891
167.964	14.113	961.086	722.028
168.979	14.064	959.955	720.901
169.994	14.196	959.248	720.876
171.008	14.211	958.164	720.062
172.023	14.387	957.416	720.201
173.037	14.234	957.074	719.216
174.052	14.257	956.154	718.563
175.067	14.155	955.924	717.884
176.081	14.201	955.352	717.592
177.096	14.123	954.993	716.922
178.110	14.239	953.601	716.312
179.125	14.277	953.272	716.163
180.140	14.346	952.682	715.956
181.154	14.260	952.577	715.445
182.169	14.284	952.082	715.112
183.183	14.349	951.536	714.916
184.198	14.422	950.357	714.279
185.213	14.418	949.579	713.617
186.227	14.379	948.967	712.926
187.242	14.539	948.147	712.932
188.256	14.572	947.293	712.364
189.271	14.580	946.404	711.667
190.286	14.356	945.866	710.247
191.300	14.330	945.497	709.795
192.315	14.337	944.826	709.260
193.329	14.380	943.953	708.723
194.344	14.289	943.408	707.863
195.359	14.461	942.978	708.210
196.373	14.532	942.173	707.842
197.388	14.433	941.917	707.167
198.402	14.517	941.260	706.970
199.417	14.669	940.471	706.960
200.432	14.691	939.735	706.435
201.446	14.660	939.587	706.133
202.461	14.547	939.064	705.198
203.475	14.719	938.141	705.169
204.490	14.707	937.594	704.642
205.504	14.700	936.468	703.705
206.519	14.644	936.098	703.129
207.534	14.515	935.279	701.911
208.548	14.719	934.518	702.133
209.563	14.670	934.051	701.514
210.577	14.723	933.316	701.124
211.592	14.730	932.441	700.434
212.607	14.819	931.481	700.024
213.621	14.816	930.900	699.512
214.636	14.852	929.764	698.749
215.650	14.930	929.487	698.805
216.665	14.869	928.590	697.813
217.680	15.012	927.519	697.541
218.694	15.042	927.383	697.502
219.709	14.999	926.623	696.691
220.723	14.965	925.983	696.008
221.738	14.808	925.469	694.904
222.753	14.862	924.516	694.352
223.767	15.028	923.692	694.362
224.782	15.031	923.529	694.191
225.796	15.038	922.645	693.492
226.811	15.070	922.404	693.381
227.826	14.938	921.680	692.230
228.840	15.012	920.804	691.818
229.855	14.993	920.169	691.202
230.869	15.114	918.841	690.643
231.884	15.091	918.642	690.336
232.899	15.080	917.946	689.708
233.913	15.089	916.844	688.853
234.928	15.108	916.401	688.537
235.942	15.168	915.825	688.290
236.957	15.022	915.578	687.443
237.972	15.119	914.771	687.175
238.986	14.955	914.624	686.334
240.001	15.080	913.594	686.011
241.015	15.237	912.441	685.726
242.030	15.166	912.113	685.131
243.045	15.120	911.858	684.688
244.059	15.088	911.256	684.047
245.074	15.180	910.595	683.865
246.088	15.276	909.195	683.146
247.103	15.173	908.990	682.511
248.117	15.321	908.404	682.610
249.132	15.310	907.779	682.037
250.147	15.392	907.051	681.762
251.161	15.415	906.250	681.192
252.176	15.521	905.608	681.082
253.190	15.486	905.182	680.559
254.205	15.421	904.601	679.799
255.220	15.333	903.969	678.907
256.234	15.511	903.359	679.108
257.249	15.488	902.709	678.469
258.263	15.490	901.929	677.828
259.278	15.517	901.322	677.422
260.293	15.569	900.903	677.256
261.307	15.658	899.937	676.830
262.322	15.680	899.557	676.571
263.336	15.724	898.602	675.971
264.351	15.736	897.423	675.072
265.366	15.647	897.169	674.465
266.380	15.689	896.895	674.364
267.395	15.638	896.302	673.656
268.409	15.745	895.350	673.311
269.424	15.619	894.516	672.119
270.439	15.623	894.170	671.818
271.453	15.802	893.075	671.648
272.468	15.675	892.541	670.679
273.482	15.698	892.248	670.494
274.497	15.797	891.454	670.230
275.512	15.884	890.750	669.990
276.526	15.773	890.360	669.196
277.541	15.817	889.815	668.902
278.555	15.758	889.217	668.156
279.570	15.754	888.781	667.754
280.585	15.923	887.380	667.315
281.599	15.896	886.829	666.732
282.614	15.948	886.222	666.423
283.628	15.860	886.212	666.009
284.643	15.950	885.313	665.630
285.657	15.990	884.262	664.940
286.672	16.023	883.685	664.575
287.687	16.069	882.921	664.125
288.701	16.049	882.433	663.619
289.716	15.996	882.120	663.116
290.730	16.043	881.722	662.942
291.745	16.025	881.054	662.311
292.760	16.085	880.642	662.180
293.774	16.066	879.664	661.311
294.789	16.093	878.820	660.722
295.803	16.221	878.313	660.786
296.818	16.124	877.501	659.736
297.833	16.143	876.782	659.211
298.847	16.094	876.683	658.886
299.862	16.235	875.664	658.615
300.876	16.087	875.404	657.783
301.891	16.266	874.806	657.972
302.906	16.189	874.514	657.397
303.920	16.274	873.598	656.980
304.935	16.362	873.028	656.836
305.949	16.363	872.357	656.274
306.964	16.402	871.290	655.567
307.979	16.484	870.767	655.432
308.993	16.357	870.437	654.632
310.008	16.431	869.837	654.411
311.022	16.333	869.115	653.432
312.037	16.375	868.478	653.055
313.052	16.355	867.878	652.471
314.066	16.336	867.568	652.106
315.081	16.478	866.778	652.002
316.095	16.350	866.388	651.159
317.110	16.442	865.333	650.661
318.125	16.554	864.711	650.567
319.139	16.532	864.676	650.397
320.154	16.416	864.371	649.664
321.168	16.449	863.617	649.170
322.183	16.508	863.217	649.036
323.197	16.509	862.425	648.388
324.212	16.344	862.205	647.532
325.227	16.576	861.414	647.769
326.241	16.526	860.679	646.970
327.256	16.583	860.054	646.659
328.270	16.688	859.297	646.433
329.285	16.473	859.119	645.423
330.300	16.625	858.422	645.422
331.314	16.665	857.965	645.173
332.329	16.611	857.479	644.543
333.343	16.655	857.070	644.347
334.358	16.539	857.089	643.862
335.373	16.692	856.313	643.806
336.387	16.772	856.124	643.911
337.402	16.808	855.933	643.846
338.416	16.764	855.439	643.251
339.431	16.865	854.984	643.234
340.446	16.865	854.270	642.641
341.460	16.766	854.252	642.194
342.475	16.803	853.961	642.059
343.489	16.898	853.537	642.043
344.504	16.958	852.797	641.658
345.519	16.935	852.397	641.212
346.533	17.051	851.723	641.086
347.548	17.052	850.982	640.476
348.562	16.802	850.516	639.125
349.577	16.855	850.230	639.055
350.592	16.853	849.668	638.569
351.606	16.761	849.040	637.694
352.621	16.935	847.925	637.454
353.635	16.882	847.684	637.018
354.650	17.001	846.622	636.609
355.665	17.029	846.249	636.377
356.679	17.043	845.609	635.890
357.694	17.037	844.606	635.057
358.708	17.107	844.247	634.995
359.723	17.078	843.636	634.370
360.738	17.153	842.778	633.950
361.752	17.082	842.448	633.381
362.767	17.238	842.093	633.639
363.781	17.313	841.516	633.428
364.796	17.298	840.719	632.715
365.810	17.160	840.630	632.079
366.825	17.279	839.975	631.974
367.840	17.175	839.795	631.393
368.854	17.183	839.248	630.959
369.869	17.200	838.708	630.560
370.883	17.333	838.402	630.766
371.898	17.392	837.755	630.444
372.913	17.424	837.466	630.288
373.927	17.454	837.026	630.014
374.942	17.615	836.117	629.866
375.956	17.463	836.037	629.191
376.971	17.443	835.515	628.668
377.986	17.625	835.253	629.087
379.000	17.468	834.875	628.166
380.015	17.457	833.991	627.404
381.029	17.681	833.227	627.599
382.044	17.558	832.780	626.756
383.059	17.582	832.449	626.539
384.073	17.638	831.626	626.070
385.088	17.584	831.238	625.524
386.102	17.545	830.736	624.948
387.117	17.633	830.343	624.919
388.132	17.493	829.832	623.965
389.146	17.637	828.952	623.776
390.161	17.627	828.672	623.474
391.175	17.572	828.240	622.891
392.190	17.607	827.887	622.700
393.205	17.534	827.454	622.052
394.219	17.679	826.876	622.092
395.234	17.584	826.435	621.360
396.248	17.641	825.805	621.039
397.263	17.606	825.586	620.691
398.278	17.690	825.291	620.719
399.292	17.775	824.488	620.370
400.307	17.691	823.959	619.613
401.321	17.661	823.593	619.174
402.336	17.675	822.939	618.678
403.350	17.843	822.282	618.736
404.365	17.800	822.173	618.447
405.380	17.892	821.636	618.321
406.394	17.957	821.240	618.201
407.409	17.995	820.806	617.959
408.423	17.817	820.594	617.101
409.438	17.995	819.863	617.140
410.453	18.083	819.172	616.881
411.467	18.062	818.599	616.322
412.482	17.932	818.698	615.872
413.496	17.956	818.338	615.634
414.511	18.024	818.168	615.696
415.526	18.128	817.328	615.385
416.540	18.102	816.959	614.956
417.555	18.000	816.689	614.333
418.569	18.185	815.955	614.390
419.584	18.134	815.671	613.939
420.599	18.232	815.019	613.747
421.613	111.535	1294.532	1473.263
422.628	96.522	1364.368	1473.365
