DTS Sentinel unit serial number:	SN413079Multiplexer serial number:	ORYXHardware model number:	OX4-SRSoftware version number:	ORYX F/W v4.00 Oryx Data Collector v3.7.2.0data status	okinstallation	princeton_trtdifferential loss correction	single-endedforward channel	channel 1reverse channel	N/Adate	2019/09/17time	23:30:35forward acquisition time	60.00reverse acquisition time	0.00gamma	496.2192k internal	0.2340k external	0.2340temperature offset calibration	0.9981default loss term (dB/km)	0.3790temperature slope calibration	1.0000multiplexer offset coefficient	1.0000multiplexer slope coefficient	1.0000fibre end	0.00T internal ref (°C)	24.27T ext. ref 1 (°C)	0.18T ext. ref 2 (°C)	17.58length (m)	temperature (°C)	Stokes	anti-Stokes-747.200	1.059	-0.204	-0.147
-746.185	26.457	-0.162	-0.135
-745.171	-68.469	0.197	0.076
-744.156	135.491	0.425	0.554
-743.142	2.961	-0.041	0.030
-742.127	-200.000	-0.012	0.300
-741.112	-125.113	0.162	-0.025
-740.098	-126.473	0.238	-0.036
-739.083	-105.340	0.084	0.019
-738.069	-27.949	0.029	0.017
-737.054	-200.000	-0.042	0.278
-736.039	4.865	-0.301	-0.222
-735.025	286.680	0.176	0.318
-734.010	-47.447	-0.412	0.201
-732.996	766.994	0.108	-0.294
-731.981	125.095	-0.220	-0.278
-730.966	238.008	0.045	0.074
-729.952	-200.000	-0.055	-0.392
-728.937	258.627	0.149	0.257
-727.923	-125.502	-0.173	-0.026
-726.908	753.364	-0.019	0.051
-725.894	150.293	-0.113	-0.153
-724.879	800.000	0.057	0.185
-723.864	52.542	0.138	-0.132
-722.850	253.083	0.204	-0.348
-721.835	-200.000	0.018	-0.355
-720.821	381.357	-0.266	-0.547
-719.806	652.838	-0.151	-0.387
-718.791	114.340	0.151	-0.184
-717.777	-25.310	0.054	-0.032
-716.762	-125.417	-0.205	-0.031
-715.748	-86.789	0.078	0.024
-714.733	-200.000	0.003	-0.079
-713.718	-200.000	0.003	0.054
-712.704	477.841	-0.076	-0.173
-711.689	-107.812	-0.073	-0.016
-710.675	800.000	-0.077	-0.229
-709.660	-8.732	0.294	0.198
-708.645	800.000	-0.089	-0.383
-707.631	-200.000	-0.023	0.194
-706.616	1.532	0.086	-0.062
-705.602	-68.422	0.071	0.028
-704.587	-200.000	-0.058	-0.621
-703.572	347.015	0.131	-0.258
-702.558	-200.000	-0.254	0.001
-701.543	-54.832	-0.231	0.104
-700.529	-23.595	0.105	0.063
-699.514	800.000	-0.112	-0.365
-698.499	724.288	-0.074	-0.198
-697.485	-200.000	0.034	-0.156
-696.470	-92.969	0.137	0.038
-695.456	-200.000	0.024	-0.135
-694.441	800.000	-0.087	-0.327
-693.426	63.927	0.124	0.125
-692.412	-93.960	-0.287	0.079
-691.397	-65.529	-0.085	0.034
-690.383	-79.569	-0.296	-0.100
-689.368	-14.000	-0.030	0.019
-688.354	-54.921	0.041	-0.019
-687.339	-72.815	-0.191	0.070
-686.324	-147.272	0.065	0.005
-685.310	639.888	0.024	0.060
-684.295	-200.000	0.037	0.232
-683.281	800.000	0.038	-0.146
-682.266	-91.870	0.187	-0.053
-681.251	-109.276	0.231	-0.049
-680.237	-83.883	-0.185	-0.059
-679.222	170.606	0.118	0.169
-678.208	-148.760	0.271	-0.022
-677.193	86.063	-0.245	-0.270
-676.178	800.000	-0.051	-0.159
-675.164	-42.248	-0.297	0.152
-674.149	-128.637	-0.223	-0.031
-673.135	-85.657	-0.217	-0.067
-672.120	-170.519	0.316	-0.011
-671.105	-200.000	-0.031	-0.201
-670.091	-200.000	-0.004	0.207
-669.076	-177.894	-0.308	0.007
-668.062	-86.456	-0.262	0.080
-667.047	-69.201	-0.314	0.121
-666.032	272.482	0.024	-0.043
-665.018	202.015	-0.166	-0.256
-664.003	-200.000	-0.016	-0.282
-662.989	-130.969	-0.243	-0.032
-661.974	464.265	-0.077	0.172
-660.959	63.624	-0.158	0.158
-659.945	-116.694	0.108	-0.020
-658.930	51.532	0.071	0.067
-657.916	273.570	0.136	-0.241
-656.901	41.666	-0.058	-0.052
-655.886	-200.000	0.016	0.223
-654.872	-139.816	-0.215	-0.023
-653.857	-74.009	-0.399	-0.145
-652.843	244.548	-0.101	0.169
-651.828	174.427	-0.013	0.019
-650.814	95.175	-0.051	0.058
-649.799	-14.295	-0.080	-0.052
-648.784	-99.774	-0.112	-0.028
-647.770	-168.963	-0.187	-0.007
-646.755	41.099	-0.226	-0.204
-645.741	89.588	-0.102	-0.113
-644.726	-200.000	-0.006	0.032
-643.711	-10.480	-0.082	-0.054
-642.697	-200.000	-0.015	0.113
-641.682	-200.000	0.021	0.164
-640.668	-200.000	-0.002	0.140
-639.653	-200.000	0.021	-0.252
-638.638	-134.503	-0.153	0.019
-637.624	-200.000	-0.052	-0.240
-636.609	-91.978	-0.200	0.057
-635.595	6.770	-0.276	0.205
-634.580	81.103	0.088	0.094
-633.565	597.774	0.069	0.172
-632.551	89.413	-0.166	-0.185
-631.536	-43.568	-0.129	0.065
-630.522	800.000	0.079	-0.304
-629.507	800.000	-0.037	0.154
-628.492	187.741	-0.033	0.048
-627.478	218.795	-0.060	-0.096
-626.463	73.206	0.121	-0.127
-625.449	-200.000	0.071	-0.413
-624.434	-41.569	0.326	-0.167
-623.419	762.995	0.133	-0.361
-622.405	76.695	-0.321	0.340
-621.390	100.280	0.162	0.187
-620.376	-200.000	-0.024	-0.224
-619.361	59.248	0.271	-0.267
-618.346	-153.847	-0.075	0.005
-617.332	-183.385	-0.094	0.002
-616.317	800.000	0.040	0.150
-615.303	800.000	0.002	0.008
-614.288	-200.000	-0.066	-0.298
-613.273	90.738	-0.081	-0.091
-612.259	-200.000	-0.014	-0.134
-611.244	-125.022	0.136	0.021
-610.230	598.266	-0.041	-0.103
-609.215	281.236	-0.121	0.216
-608.201	130.118	-0.155	0.198
-607.186	-81.485	-0.271	0.089
-606.171	68.549	-0.082	0.084
-605.157	154.938	0.087	-0.120
-604.142	401.852	-0.068	0.142
-603.128	13.584	-0.034	0.026
-602.113	-30.521	0.222	0.125
-601.098	-40.392	-0.223	0.116
-600.084	57.689	0.142	0.138
-599.069	-107.146	-0.248	0.054
-598.055	-200.000	0.036	0.238
-597.040	-108.167	-0.366	0.079
-596.025	-200.000	0.008	0.157
-595.011	102.135	0.098	0.115
-593.996	800.000	0.062	-0.228
-592.982	24.961	0.284	-0.235
-591.967	-140.435	-0.128	0.013
-590.952	-200.000	-0.011	0.197
-589.938	658.983	0.116	-0.298
-588.923	-95.018	-0.152	-0.041
-587.909	17.698	-0.276	-0.219
-586.894	127.658	-0.125	-0.159
-585.879	-200.000	-0.067	-0.301
-584.865	114.288	-0.053	-0.064
-583.850	214.523	0.115	-0.181
-582.836	-80.825	0.158	-0.052
-581.821	-147.717	-0.139	-0.012
-580.806	-148.261	0.127	-0.010
-579.792	-192.251	-0.163	-0.002
-578.777	-43.731	-0.172	-0.086
-577.763	709.399	-0.037	0.098
-576.748	-152.635	0.407	0.029
-575.733	317.922	-0.037	-0.071
-574.719	129.031	0.153	0.194
-573.704	71.015	-0.108	-0.111
-572.690	-133.019	-0.032	0.004
-571.675	141.532	-0.080	0.106
-570.661	150.869	-0.265	0.359
-569.646	-140.065	-0.080	0.008
-568.631	-58.977	-0.168	-0.072
-567.617	264.665	0.163	0.282
-566.602	-200.000	0.041	0.314
-565.588	-113.184	-0.231	-0.045
-564.573	31.223	0.165	-0.141
-563.558	-6.972	-0.077	-0.052
-562.544	800.000	-0.062	-0.186
-561.529	-115.151	-0.335	0.063
-560.515	291.080	0.079	-0.144
-559.500	260.749	-0.029	-0.050
-558.485	-50.754	0.118	-0.055
-557.471	-114.264	0.250	0.048
-556.456	92.811	-0.152	-0.170
-555.442	16.718	0.245	-0.193
-554.427	-192.953	0.215	-0.002
-553.412	56.875	0.127	0.123
-552.398	688.438	0.030	-0.079
-551.383	-200.000	0.055	0.256
-550.369	15.611	0.211	-0.165
-549.354	309.000	0.058	0.107
-548.339	321.681	-0.060	0.114
-547.325	-5.485	-0.150	-0.103
-546.310	-21.270	0.308	-0.187
-545.296	-200.000	0.009	0.204
-544.281	-154.864	-0.224	0.015
-543.266	651.723	0.111	0.282
-542.252	-197.202	0.094	0.001
-541.237	241.965	0.065	-0.108
-540.223	-52.786	0.322	-0.148
-539.208	-146.027	0.026	0.002
-538.193	28.054	0.030	0.025
-537.179	123.205	-0.150	-0.187
-536.164	526.732	-0.062	0.146
-535.150	23.755	0.093	-0.076
-534.135	-200.000	-0.002	-0.052
-533.121	-7.073	-0.235	-0.158
-532.106	77.790	0.062	-0.065
-531.091	-117.219	0.242	-0.044
-530.077	420.612	-0.084	0.179
-529.062	-200.000	0.009	0.177
-528.048	800.000	0.056	0.218
-527.033	-64.331	0.056	0.023
-526.018	-200.000	-0.004	-0.273
-525.004	58.470	-0.107	-0.105
-523.989	-8.045	0.336	0.225
-522.975	218.691	-0.145	0.230
-521.960	-200.000	-0.002	-0.275
-520.945	-200.000	0.026	0.180
-519.931	800.000	0.123	0.414
-518.916	-138.524	-0.167	0.018
-517.902	-156.139	-0.244	0.015
-516.887	-124.503	-0.222	0.034
-515.872	-31.292	-0.099	0.055
-514.858	800.000	0.050	0.164
-513.843	71.415	0.289	-0.298
-512.829	-101.763	-0.486	-0.117
-511.814	746.047	-0.103	0.276
-510.799	-200.000	-0.005	0.201
-509.785	800.000	-0.032	0.137
-508.770	63.843	0.198	-0.198
-507.756	800.000	0.155	-0.607
-506.741	-154.216	-0.284	-0.019
-505.726	-139.357	0.164	-0.018
-504.712	36.567	0.129	-0.113
-503.697	32.298	-0.260	0.223
-502.683	-77.583	0.162	0.056
-501.668	-199.397	-0.029	0.000
-500.653	236.195	0.079	-0.130
-499.639	-133.789	-0.418	0.052
-498.624	-200.000	0.035	0.227
-497.610	96.052	0.219	0.249
-496.595	71.915	0.130	-0.134
-495.581	-108.418	-0.024	0.005
-494.566	192.553	0.034	-0.050
-493.551	-90.099	-0.205	-0.059
-492.537	34.309	0.168	-0.145
-491.522	800.000	-0.024	-0.090
-490.508	-130.396	0.433	0.058
-489.493	-77.235	0.032	0.011
-488.478	153.945	-0.184	-0.251
-487.464	365.443	0.116	0.233
-486.449	301.769	0.088	-0.161
-485.435	-200.000	-0.005	0.149
-484.420	-43.407	-0.273	-0.137
-483.405	-200.000	0.019	0.147
-482.391	285.378	0.133	0.238
-481.376	-16.241	-0.217	0.137
-480.362	-149.981	-0.255	0.020
-479.347	-200.000	-0.009	-0.073
-478.332	56.170	-0.079	0.077
-477.318	-16.431	-0.338	0.212
-476.303	272.980	-0.212	-0.372
-475.289	-73.170	0.287	0.104
-474.274	-200.000	-0.025	0.190
-473.259	-97.297	0.063	-0.016
-472.245	140.403	-0.137	0.179
-471.230	-137.654	0.385	0.043
-470.216	800.000	-0.025	0.108
-469.201	493.013	0.124	0.282
-468.186	240.304	0.135	0.224
-467.172	800.000	-0.009	0.033
-466.157	-42.260	0.107	0.054
-465.143	-120.414	-0.192	0.032
-464.128	800.000	-0.068	-0.222
-463.113	-103.133	0.075	0.018
-462.099	800.000	-0.040	-0.162
-461.084	82.882	-0.244	0.263
-460.070	800.000	0.033	0.137
-459.055	362.542	-0.156	-0.310
-458.040	56.433	-0.110	-0.106
-457.026	-75.564	-0.246	0.087
-456.011	800.000	-0.075	0.244
-454.997	199.820	0.152	0.231
-453.982	-200.000	0.009	0.171
-452.968	370.063	0.237	-0.475
-451.953	-148.886	-0.177	0.014
-450.938	3.440	0.174	0.125
-449.924	-200.000	-0.061	-0.468
-448.909	31.982	0.171	-0.146
-447.895	-134.808	0.030	-0.004
-446.880	-4.871	-0.138	-0.095
-445.865	-200.000	-0.004	0.120
-444.851	-138.712	0.165	0.018
-443.836	-142.490	-0.214	-0.021
-442.822	-66.763	0.088	0.035
-441.807	-170.012	0.385	0.014
-440.792	-200.000	-0.023	-0.221
-439.778	-65.134	-0.329	0.131
-438.763	53.412	0.078	-0.074
-437.749	239.973	0.050	-0.083
-436.734	-18.715	-0.221	-0.136
-435.719	-107.128	-0.149	0.033
-434.705	800.000	-0.064	-0.257
-433.690	-42.078	0.236	0.119
-432.676	112.837	-0.151	0.181
-431.661	384.765	-0.120	0.245
-430.646	-136.825	-0.203	0.023
-429.632	-86.668	-0.056	-0.017
-428.617	86.812	-0.050	-0.054
-427.603	-200.000	0.122	0.594
-426.588	-37.400	0.297	0.157
-425.573	410.921	0.098	-0.205
-424.559	280.907	0.147	-0.261
-423.544	-200.000	0.022	-0.184
-422.530	-162.840	-0.185	0.009
-421.515	43.153	0.257	-0.233
-420.500	-147.113	-0.186	-0.016
-419.486	800.000	0.052	-0.191
-418.471	-200.000	0.013	0.088
-417.457	800.000	-0.036	-0.141
-416.442	-200.000	0.020	0.351
-415.428	-90.652	0.202	-0.058
-414.413	420.844	0.078	-0.165
-413.398	-69.492	-0.128	-0.049
-412.384	69.597	-0.017	-0.018
-411.369	-139.671	-0.085	-0.009
-410.355	-87.321	-0.250	-0.075
-409.340	-79.502	0.259	0.087
-408.325	-200.000	0.001	0.161
-407.311	-13.258	-0.123	-0.079
-406.296	-200.000	0.007	0.150
-405.282	-38.932	0.150	0.078
-404.267	107.752	0.089	-0.105
-403.252	93.730	0.127	-0.143
-402.238	-200.000	0.018	0.202
-401.223	158.068	-0.072	-0.099
-400.209	-108.905	-0.403	0.085
-399.194	682.408	0.086	-0.222
-398.179	107.361	-0.242	0.285
-397.165	800.000	-0.069	0.191
-396.150	609.034	-0.057	-0.140
-395.136	800.000	0.103	-0.322
-394.121	-144.904	-0.445	0.040
-393.106	231.505	-0.078	0.126
-392.092	184.449	0.175	0.256
-391.077	-54.706	-0.270	-0.121
-390.063	724.270	-0.120	-0.316
-389.048	5.076	0.210	0.153
-388.033	-200.000	-0.026	0.281
-387.019	77.093	-0.056	-0.059
-386.004	145.930	-0.145	0.192
-384.990	-95.567	0.321	0.085
-383.975	19.595	0.122	0.097
-382.960	-200.000	-0.008	-0.238
-381.946	244.160	-0.094	-0.156
-380.931	-92.050	-0.091	0.025
-379.917	-133.228	-0.172	0.022
-378.902	236.443	-0.120	0.197
-377.888	333.520	0.183	-0.349
-376.873	358.508	-0.095	0.188
-375.858	-167.154	-0.304	0.012
-374.844	-38.014	-0.255	0.134
-373.829	-1.299	0.315	-0.219
-372.815	-115.466	-0.286	0.053
-371.800	67.200	-0.065	-0.066
-370.785	-84.628	-0.081	-0.025
-369.771	800.000	0.062	0.196
-368.756	-48.978	-0.173	-0.082
-367.742	-175.626	-0.134	0.004
-366.727	48.635	-0.214	0.198
-365.712	19.188	-0.089	-0.071
-364.698	-148.060	-0.068	0.006
-363.683	-113.272	-0.323	-0.063
-362.669	-191.677	-0.085	0.001
-361.654	-200.000	0.026	0.186
-360.639	134.004	0.139	-0.177
-359.625	-200.000	0.131	0.616
-358.610	-141.075	0.330	-0.033
-357.596	-200.000	-0.000	0.054
-356.581	140.899	0.054	-0.071
-355.566	196.151	0.191	0.287
-354.552	258.970	-0.096	0.164
-353.537	800.000	-0.038	-0.152
-352.523	800.000	0.078	-0.293
-351.508	198.622	0.233	0.352
-350.493	-89.660	-0.142	0.041
-349.479	249.069	0.162	0.271
-348.464	213.257	0.245	0.382
-347.450	800.000	-0.066	0.228
-346.435	410.464	-0.013	0.027
-345.420	-200.000	0.008	-0.216
-344.406	-200.000	0.013	0.117
-343.391	-1.383	0.485	-0.338
-342.377	228.516	-0.112	0.180
-341.362	18.562	-0.228	-0.180
-340.348	14.644	-0.237	0.183
-339.333	800.000	-0.136	-0.417
-338.318	-91.468	0.103	-0.029
-337.304	16.528	-0.141	0.110
-336.289	-146.140	0.134	0.012
-335.275	104.573	-0.103	-0.120
-334.260	-42.407	-0.103	-0.052
-333.245	-169.161	-0.491	0.018
-332.231	32.975	0.051	0.044
-331.216	-71.987	-0.202	-0.074
-330.202	307.963	-0.162	-0.297
-329.187	350.231	0.134	0.262
-328.172	800.000	-0.067	0.198
-327.158	-200.000	0.039	0.264
-326.143	52.745	-0.328	0.309
-325.129	343.356	-0.093	0.179
-324.114	644.246	-0.048	0.120
-323.099	-70.537	0.027	0.010
-322.085	800.000	0.018	0.059
-321.070	-200.000	-0.012	0.053
-320.056	118.024	-0.172	0.208
-319.041	759.954	0.051	0.137
-318.026	-57.303	0.133	-0.058
-317.012	150.726	0.183	-0.245
-315.997	-53.912	-0.167	-0.075
-314.983	34.525	0.306	-0.263
-313.968	-62.213	0.100	0.041
-312.953	426.474	-0.023	0.049
-311.939	-121.981	0.092	0.015
-310.924	-36.871	-0.122	-0.064
-309.910	-160.308	-0.398	0.021
-308.895	-56.595	0.264	-0.115
-307.880	-99.853	0.055	0.014
-306.866	-200.000	0.043	-0.586
-305.851	-30.484	0.218	0.122
-304.837	-53.171	-0.057	-0.026
-303.822	-114.211	0.157	0.030
-302.807	399.623	0.056	0.116
-301.793	-200.000	-0.024	-0.308
-300.778	-78.745	-0.345	-0.116
-299.764	-23.412	-0.229	0.135
-298.749	-200.000	0.000	-0.052
-297.735	-126.938	0.283	-0.041
-296.720	591.890	-0.184	-0.448
-295.705	-161.279	0.181	-0.009
-294.691	-99.013	-0.246	0.061
-293.676	164.782	-0.055	-0.076
-292.662	-28.262	-0.073	0.041
-291.647	-116.399	-0.141	0.026
-290.632	800.000	-0.174	-0.544
-289.618	-58.271	0.125	-0.054
-288.603	-200.000	0.000	0.058
-287.589	3.242	0.101	-0.072
-286.574	800.000	-0.067	-0.186
-285.559	-200.000	-0.017	-0.230
-284.545	-52.715	0.088	0.040
-283.530	-122.191	-0.115	0.019
-282.516	-56.406	0.269	0.118
-281.501	-163.072	0.345	0.016
-280.486	-29.994	0.060	0.034
-279.472	60.963	0.193	0.189
-278.457	-5.998	0.094	-0.063
-277.443	-145.602	-0.202	0.018
-276.428	-97.472	0.395	-0.101
-275.413	690.929	-0.091	0.235
-274.399	262.792	-0.098	0.167
-273.384	-56.399	0.078	0.034
-272.370	5.131	0.153	0.111
-271.355	-95.965	0.276	-0.072
-270.340	153.527	0.089	-0.120
-269.326	27.142	0.195	-0.161
-268.311	-95.393	0.396	-0.105
-267.297	-49.211	-0.225	-0.106
-266.282	61.835	0.263	-0.258
-265.267	-153.736	-0.315	-0.021
-264.253	-200.000	0.063	-0.276
-263.238	800.000	0.061	0.227
-262.224	149.132	0.154	-0.205
-261.209	-14.601	0.354	-0.224
-260.195	-24.478	0.070	-0.041
-259.180	-44.575	-0.164	-0.081
-258.165	-200.000	-0.007	-0.102
-257.151	-200.000	-0.003	-0.159
-256.136	-154.211	-0.237	-0.016
-255.122	270.720	-0.152	0.263
-254.107	342.162	-0.092	0.178
-253.092	800.000	-0.078	-0.261
-252.078	-6.345	0.042	0.028
-251.063	507.260	0.139	-0.318
-250.049	-139.515	-0.422	0.044
-249.034	-200.000	-0.007	-0.269
-248.019	-85.249	-0.185	0.057
-247.005	428.347	0.040	0.084
-245.990	347.406	0.108	0.210
-244.976	-112.087	0.452	0.089
-243.961	-13.239	-0.321	0.205
-242.946	84.549	-0.216	0.233
-241.932	81.616	0.327	0.348
-240.917	-55.741	-0.121	-0.053
-239.903	-20.615	0.401	-0.242
-238.888	-119.179	0.171	0.029
-237.873	-144.529	0.082	0.007
-236.859	-200.000	-0.024	-0.237
-235.844	-46.387	0.096	0.046
-234.830	240.029	0.121	0.198
-233.815	82.664	-0.119	-0.127
-232.800	800.000	0.098	0.272
-231.786	800.000	-0.023	0.095
-230.771	-200.000	0.020	-0.134
-229.757	-112.063	0.215	0.042
-228.742	-33.275	0.131	0.071
-227.727	-13.109	0.328	0.210
-226.713	99.124	-0.044	-0.050
-225.698	-94.050	0.231	0.062
-224.684	425.959	0.057	0.122
-223.669	-19.237	-0.091	-0.055
-222.655	240.516	-0.110	-0.181
-221.640	-102.559	0.312	-0.073
-220.625	73.675	0.110	-0.113
-219.611	299.743	-0.059	-0.107
-218.596	250.653	-0.026	-0.043
-217.582	-200.000	0.173	-0.000
-216.567	70.942	-0.064	0.065
-215.552	-200.000	-0.008	0.355
-214.538	219.961	-0.136	0.214
-213.523	-70.632	-0.261	0.097
-212.509	-69.082	-0.145	-0.055
-211.494	800.000	0.057	-0.192
-210.479	24.222	0.147	-0.119
-209.465	76.144	-0.183	-0.190
-208.450	800.000	0.015	0.054
-207.436	-200.000	-0.033	0.144
-206.421	-98.907	0.290	-0.072
-205.406	21.093	0.208	0.166
-204.392	108.486	0.144	-0.169
-203.377	-200.000	-0.055	-0.372
-202.363	-79.269	0.276	0.092
-201.348	-57.378	0.066	0.029
-200.333	-40.667	0.280	-0.142
-199.319	49.323	0.189	-0.175
-198.304	-129.198	0.211	0.029
-197.290	-200.000	0.442	0.001
-196.275	800.000	0.109	-0.347
-195.260	-141.197	0.163	-0.016
-194.246	-64.672	-0.139	0.055
-193.231	-200.000	0.040	0.173
-192.217	-153.575	-0.093	-0.006
-191.202	800.000	0.108	-0.320
-190.187	228.081	0.118	-0.188
-189.173	488.121	0.028	-0.062
-188.158	11.803	0.159	-0.119
-187.144	-200.000	-0.005	-0.208
-186.129	-58.946	-0.058	-0.025
-185.114	-147.524	-0.009	0.001
-184.100	49.543	0.304	0.281
-183.085	319.527	-0.089	0.165
-182.071	48.731	0.098	0.090
-181.056	-82.068	-0.123	-0.039
-180.042	-128.157	0.275	-0.039
-179.027	-178.502	-0.144	-0.003
-178.012	800.000	0.083	0.260
-176.998	145.473	0.030	-0.039
-175.983	-39.903	-0.107	0.055
-174.969	332.548	-0.130	-0.246
-173.954	800.000	0.030	0.110
-172.939	-14.260	0.177	0.112
-171.925	267.238	0.118	-0.202
-170.910	73.569	0.177	-0.181
-169.896	-48.986	-0.011	-0.005
-168.881	122.651	-0.176	0.216
-167.866	-26.398	0.332	-0.191
-166.852	24.521	-0.322	0.261
-165.837	31.619	-0.103	0.087
-164.823	19.401	0.289	0.227
-163.808	289.168	-0.047	-0.084
-162.793	657.351	0.026	-0.064
-161.779	140.371	0.197	-0.255
-160.764	-200.000	0.014	-0.085
-159.750	-105.745	-0.189	0.042
-158.735	-108.356	-0.312	0.066
-157.720	139.287	-0.108	0.139
-156.706	800.000	-0.108	0.460
-155.691	-3.531	-0.330	0.225
-154.677	-28.829	-0.198	-0.111
-153.662	-200.000	-0.023	0.184
-152.647	-200.000	-0.026	0.122
-151.633	-112.276	0.283	0.055
-150.618	-123.552	0.262	0.041
-149.604	-78.680	-0.037	-0.012
-148.589	800.000	0.093	-0.367
-147.574	-200.000	0.006	0.080
-146.560	44.378	0.229	0.206
-145.545	-55.752	-0.152	-0.067
-144.531	-200.000	0.008	0.214
-143.516	-121.964	-0.184	0.030
-142.502	362.281	-0.116	0.228
-141.487	800.000	0.039	0.118
-140.472	8.303	-0.283	-0.208
-139.458	-15.354	0.411	0.257
-138.443	-200.000	0.036	-0.155
-137.429	-94.765	-0.217	-0.058
-136.414	-112.026	0.360	0.071
-135.399	-44.826	-0.137	0.067
-134.385	800.000	0.128	-0.369
-133.370	-50.514	-0.202	0.093
-132.356	55.065	-0.261	0.247
-131.341	64.886	0.250	0.247
-130.326	141.691	0.170	0.220
-129.312	297.163	0.107	-0.191
-128.297	100.844	-0.219	0.249
-127.283	-34.172	-0.202	0.108
-126.268	-200.000	-0.028	0.264
-125.253	800.000	0.034	-0.111
-124.239	-197.965	-0.306	0.002
-123.224	-120.026	0.330	0.055
-122.210	-122.205	0.270	-0.043
-121.195	-166.591	0.199	0.008
-120.180	259.718	-0.056	-0.094
-119.166	-200.000	0.001	-0.135
-118.151	-118.825	0.202	0.035
-117.137	-74.379	0.198	0.070
-116.122	-68.909	-0.297	-0.112
-115.107	-42.617	-0.054	-0.027
-114.093	318.722	0.077	-0.143
-113.078	139.848	0.086	0.111
-112.064	-166.382	-0.260	0.011
-111.049	2.529	0.055	0.039
-110.034	26.729	-0.166	-0.136
-109.020	216.609	-0.136	-0.212
-108.005	23.408	-0.176	0.142
-106.991	-183.518	0.155	0.003
-105.976	349.929	0.091	0.175
-104.962	-82.068	-0.249	-0.079
-103.947	188.539	0.158	-0.230
-102.932	20.698	-0.260	0.205
-101.918	513.992	-0.063	-0.143
-100.903	26.930	0.269	0.221
-99.889	103.751	0.117	0.134
-98.874	-8.117	-0.149	-0.098
-97.859	800.000	0.014	0.043
-96.845	8.530	0.136	-0.100
-95.830	344.165	0.053	0.101
-94.816	-24.753	0.404	0.235
-93.801	-200.000	-0.022	0.185
-92.786	-25.595	0.281	-0.162
-91.772	1.326	-0.038	-0.027
-90.757	-75.625	0.315	-0.109
-89.743	-139.751	0.383	-0.040
-88.728	-165.148	-0.300	-0.013
-87.713	-2.027	0.108	0.074
-86.699	83.522	0.235	0.250
-85.684	-200.000	-0.003	0.093
-84.670	-92.970	0.321	-0.087
-83.655	-4.990	-0.061	-0.041
-82.640	-59.464	-0.408	0.171
-81.626	356.845	0.119	0.232
-80.611	239.893	-0.076	-0.124
-79.597	143.718	-0.101	-0.132
-78.582	19.230	-0.167	0.131
-77.567	727.139	-0.126	-0.328
-76.553	-200.000	-0.015	0.113
-75.538	-150.212	0.381	0.029
-74.524	-200.000	-0.005	0.097
-73.509	800.000	0.018	-0.062
-72.494	101.961	0.320	0.364
-71.480	411.160	-0.152	-0.315
-70.465	-119.547	0.114	-0.019
-69.451	-50.060	0.156	-0.072
-68.436	12.151	-0.236	0.178
-67.422	266.887	0.112	0.191
-66.407	-37.247	-0.226	0.118
-65.392	-137.945	0.165	-0.018
-64.378	800.000	0.071	0.216
-63.363	129.821	0.099	0.124
-62.349	257.117	-0.116	0.194
-61.334	163.036	-0.869	-1.191
-60.319	147.276	0.672	0.882
-59.305	278.747	-0.548	-0.953
-58.290	136.883	0.960	1.224
-57.276	173.255	1.188	1.671
-56.261	-200.000	120.780	641.345
-55.246	438.957	1527.692	3253.927
-54.232	149.544	2673.405	3533.560
-53.217	99.213	2130.333	2402.505
-52.203	35.811	1575.520	1351.635
-51.188	27.553	1322.110	1085.248
-50.173	24.999	1284.495	1039.531
-49.159	51.500	1352.647	1253.934
-48.144	49.224	1364.852	1251.620
-47.130	27.598	1313.626	1078.382
-46.115	24.391	1294.353	1043.784
-45.100	24.192	1289.404	1038.598
-44.086	24.088	1287.377	1036.314
-43.071	24.126	1284.925	1034.524
-42.057	24.067	1283.073	1032.647
-41.042	24.180	1281.143	1031.710
-40.027	24.123	1279.885	1030.323
-39.013	24.159	1277.649	1028.694
-37.998	24.147	1276.119	1027.351
-36.984	24.344	1273.827	1026.600
-35.969	24.263	1272.547	1025.057
-34.954	24.315	1270.483	1023.652
-33.940	24.402	1269.437	1023.272
-32.925	24.228	1268.361	1021.364
-31.911	24.329	1266.847	1020.682
-30.896	24.310	1265.783	1019.677
-29.881	24.352	1264.215	1018.612
-28.867	24.351	1263.119	1017.686
-27.852	24.306	1261.828	1016.345
-26.838	24.305	1260.600	1015.311
-25.823	24.379	1259.170	1014.542
-24.809	24.349	1257.846	1013.260
-23.794	24.383	1256.237	1012.122
-22.779	24.359	1255.232	1011.136
-21.765	24.300	1254.051	1009.808
-20.750	24.300	1252.878	1008.825
-19.736	24.244	1251.412	1007.287
-18.721	24.238	1250.916	1006.816
-17.706	24.161	1249.615	1005.294
-16.692	24.128	1248.369	1004.065
-15.677	24.256	1246.982	1003.632
-14.663	24.133	1246.523	1002.527
-13.648	24.297	1245.162	1002.318
-12.633	24.258	1244.232	1001.306
-11.619	24.292	1243.290	1000.700
-10.604	24.278	1242.330	999.808
-9.590	24.215	1241.372	998.648
-8.575	24.223	1240.386	997.856
-7.560	24.252	1239.404	997.191
-6.546	24.223	1238.636	996.373
-5.531	24.177	1237.853	995.442
-4.517	24.162	1237.368	994.931
-3.502	24.242	1236.581	994.708
-2.487	24.237	1235.517	993.783
-1.473	24.100	1231.164	989.483
-0.458	22.459	1215.989	968.234
0.556	17.451	1200.078	931.502
1.571	13.685	1207.849	916.666
2.586	13.020	1222.727	924.150
3.600	13.075	1210.420	915.073
4.615	9.442	1139.728	842.567
5.629	3.278	1069.558	760.260
6.644	0.416	1052.466	734.126
7.659	0.128	1050.490	731.285
8.673	0.055	1049.727	730.337
9.688	0.112	1048.195	729.482
10.702	0.324	1046.185	729.044
11.717	4.083	1050.476	750.201
12.731	11.116	1059.205	790.614
13.746	15.907	1065.061	818.251
14.761	16.951	1065.613	823.674
15.775	15.923	1064.781	817.969
16.790	15.173	1062.330	812.378
17.804	14.363	1060.802	807.213
18.819	14.169	1059.781	805.426
19.834	13.865	1058.935	803.243
20.848	13.486	1058.262	800.826
21.863	13.309	1057.020	798.961
22.877	13.155	1056.856	798.024
23.892	13.174	1055.788	797.238
24.907	13.183	1054.824	796.485
25.921	13.176	1054.287	795.974
26.936	13.261	1053.516	795.732
27.950	13.255	1052.664	794.989
28.965	13.325	1051.082	794.058
29.980	13.424	1050.103	793.725
30.994	13.360	1049.086	792.577
32.009	13.387	1048.058	791.861
33.023	13.440	1047.026	791.262
34.038	13.401	1046.252	790.420
35.053	13.254	1045.215	788.866
36.067	13.309	1044.698	788.668
37.082	13.465	1043.342	788.318
38.096	13.315	1043.137	787.379
39.111	13.531	1041.710	787.262
40.126	13.307	1040.872	785.495
41.140	13.236	1039.846	784.315
42.155	13.187	1038.361	782.893
43.169	13.242	1037.091	782.128
44.184	13.219	1036.175	781.254
45.199	13.132	1035.922	780.584
46.213	13.229	1034.846	780.165
47.228	13.277	1033.846	779.569
48.242	13.191	1032.517	778.089
49.257	13.202	1031.839	777.562
50.271	13.390	1030.324	777.237
51.286	13.354	1029.842	776.637
52.301	13.322	1028.683	775.540
53.315	13.355	1027.673	774.865
54.330	13.235	1026.884	773.643
55.344	13.199	1026.468	773.090
56.359	13.234	1025.267	772.281
57.374	13.252	1024.668	771.845
58.388	13.109	1023.382	770.144
59.403	13.118	1022.857	769.721
60.417	13.109	1021.951	768.931
61.432	13.154	1021.247	768.542
62.447	13.095	1020.197	767.410
63.461	13.135	1019.385	766.916
64.476	13.093	1018.581	766.046
65.490	12.963	1018.191	765.086
66.505	13.126	1017.068	764.929
67.520	13.156	1016.450	764.532
68.534	13.215	1015.984	764.389
69.549	13.307	1014.780	763.841
70.563	13.154	1014.163	762.602
71.578	13.158	1013.129	761.773
72.593	13.102	1012.877	761.262
73.607	12.964	1012.076	759.955
74.622	13.022	1011.321	759.587
75.636	12.987	1011.150	759.232
76.651	13.209	1009.846	759.206
77.666	13.006	1009.427	757.888
78.680	13.157	1008.807	758.050
79.695	13.116	1007.935	757.143
80.709	13.040	1007.819	756.637
81.724	13.173	1006.796	756.411
82.739	13.190	1005.944	755.782
83.753	13.183	1005.463	755.321
84.768	13.532	1004.201	755.903
85.782	13.426	1003.533	754.847
86.797	13.136	1003.184	753.196
87.812	13.193	1001.883	752.410
88.826	13.312	1000.388	751.765
89.841	13.352	999.576	751.269
90.855	13.427	999.094	751.181
91.870	13.366	998.832	750.640
92.884	13.182	998.116	749.203
93.899	13.361	996.790	748.949
94.914	13.424	996.040	748.603
95.928	13.517	995.286	748.393
96.943	13.411	994.239	747.059
97.957	13.363	993.408	746.155
98.972	13.302	992.861	745.401
99.987	13.591	991.325	745.484
101.001	13.306	990.915	743.829
102.016	13.454	989.708	743.520
103.030	13.380	989.259	742.784
104.045	13.355	988.777	742.245
105.060	13.418	987.510	741.513
106.074	13.183	986.978	739.994
107.089	13.235	985.514	739.064
108.103	13.167	985.065	738.357
109.118	13.205	984.059	737.707
110.133	13.316	982.944	737.301
111.147	13.303	981.962	736.442
112.162	13.321	981.573	736.163
113.176	13.234	981.004	735.286
114.191	13.289	979.919	734.652
115.206	13.364	979.307	734.461
116.220	13.289	978.834	733.708
117.235	13.380	977.278	732.882
118.249	13.388	976.646	732.377
119.264	13.326	975.611	731.260
120.279	13.245	975.486	730.744
121.293	13.245	974.606	730.020
122.308	13.295	973.664	729.470
123.322	13.278	972.749	728.646
124.337	13.169	971.623	727.259
125.352	13.362	970.162	726.951
126.366	13.164	969.586	725.583
127.381	13.198	968.781	725.065
128.395	13.375	967.628	724.915
129.410	13.256	966.548	723.519
130.424	13.419	965.821	723.625
131.439	13.357	964.966	722.651
132.454	13.186	964.989	721.857
133.468	13.409	963.485	721.639
134.483	13.319	962.631	720.544
135.497	13.286	961.867	719.764
136.512	13.223	961.688	719.294
137.527	13.264	960.458	718.488
138.541	13.365	959.797	718.370
139.556	13.354	959.036	717.686
140.570	13.490	958.150	717.551
141.585	13.363	957.498	716.450
142.600	13.430	956.655	716.044
143.614	13.488	955.750	715.556
144.629	13.539	954.839	715.030
145.643	13.555	953.990	714.399
146.658	13.460	952.860	713.083
147.673	13.479	952.007	712.460
148.687	13.462	951.174	711.701
149.702	13.435	950.539	711.045
150.716	13.468	950.107	710.804
151.731	13.415	949.229	709.856
152.746	13.465	948.843	709.717
153.760	13.555	947.882	709.321
154.775	13.643	947.351	709.238
155.789	13.537	946.946	708.419
156.804	13.724	946.104	708.526
157.819	13.598	945.333	707.347
158.833	13.648	944.738	707.054
159.848	13.651	943.756	706.267
160.862	13.663	942.810	705.550
161.877	13.616	942.192	704.825
162.892	13.549	941.176	703.718
163.906	13.573	939.980	702.865
164.921	13.597	939.780	702.755
165.935	13.642	938.368	701.828
166.950	13.632	937.593	701.141
167.964	13.649	937.200	700.857
168.979	13.653	936.254	700.104
169.994	13.700	934.957	699.273
171.008	13.675	934.761	698.958
172.023	13.746	933.708	698.406
173.037	13.758	933.420	698.180
174.052	13.738	932.474	697.329
175.067	13.686	931.822	696.560
176.081	13.719	931.572	696.448
177.096	13.691	930.641	695.573
178.110	13.710	929.858	695.009
179.125	13.855	929.057	694.953
180.140	13.851	928.927	694.777
181.154	13.816	928.655	694.366
182.169	13.873	927.859	693.949
183.183	13.864	927.238	693.388
184.198	13.779	926.706	692.572
185.213	13.913	925.684	692.305
186.227	13.993	925.122	692.159
187.242	13.896	924.599	691.299
188.256	14.100	923.865	691.539
189.271	14.017	923.012	690.496
190.286	13.837	922.482	689.288
191.300	13.789	921.658	688.412
192.315	13.791	921.216	688.030
193.329	13.849	920.276	687.506
194.344	13.901	919.798	687.306
195.359	13.862	919.402	686.786
196.373	13.872	918.773	686.300
197.388	13.997	918.306	686.407
198.402	14.039	917.803	686.141
199.417	14.025	916.908	685.355
200.432	14.044	916.913	685.376
201.446	14.115	916.120	685.015
202.461	14.242	915.017	684.653
203.475	14.135	915.086	684.201
204.490	14.090	914.188	683.287
205.504	14.114	913.478	682.792
206.519	14.262	912.487	682.599
207.534	14.121	912.143	681.703
208.548	14.100	911.190	680.846
209.563	14.172	910.658	680.682
210.577	14.279	909.831	680.440
211.592	14.439	908.890	680.330
212.607	14.333	908.132	679.268
213.621	14.190	907.987	678.519
214.636	14.182	907.064	677.738
215.650	14.368	906.480	677.998
216.665	14.365	905.782	677.402
217.680	14.481	904.709	677.013
218.694	14.362	904.424	676.254
219.709	14.362	904.015	675.890
220.723	14.396	903.381	675.492
221.738	14.460	902.265	674.860
222.753	14.433	901.798	674.340
223.767	14.483	901.258	674.077
224.782	14.397	900.982	673.464
225.796	14.467	900.649	673.439
226.811	14.663	899.243	673.119
227.826	14.384	899.064	671.798
228.840	14.322	898.406	671.000
229.855	14.424	897.518	670.686
230.869	14.511	896.629	670.314
231.884	14.517	895.936	669.760
232.899	14.342	895.411	668.605
233.913	14.401	894.664	668.227
234.928	14.445	894.140	667.951
235.942	14.427	893.424	667.284
236.957	14.504	892.881	667.129
237.972	14.509	892.273	666.635
238.986	14.524	891.437	666.013
240.001	14.526	891.207	665.790
241.015	14.629	890.344	665.498
242.030	14.438	889.979	664.403
243.045	14.625	889.292	664.575
244.059	14.574	888.747	663.909
245.074	14.659	887.946	663.588
246.088	14.727	887.276	663.301
247.103	14.655	886.717	662.535
248.117	14.856	885.946	662.699
249.132	14.899	885.101	662.178
250.147	14.748	884.983	661.433
251.161	14.794	884.231	660.996
252.176	14.800	883.677	660.546
253.190	14.875	882.881	660.190
254.205	14.881	882.364	659.767
255.220	14.993	881.410	659.439
256.234	14.921	881.296	659.009
257.249	15.005	880.458	658.655
258.263	15.055	879.770	658.280
259.278	15.019	878.972	657.483
260.293	14.904	878.567	656.671
261.307	15.123	877.549	656.709
262.322	15.160	877.004	656.389
263.336	15.238	876.349	656.145
264.351	15.294	875.427	655.618
265.366	15.177	875.415	655.094
266.380	15.217	874.398	654.430
267.395	15.135	873.687	653.519
268.409	15.209	873.151	653.348
269.424	15.255	871.881	652.518
270.439	15.302	871.179	652.118
271.453	15.219	870.979	651.589
272.468	15.254	870.346	651.194
273.482	15.150	870.167	650.601
274.497	15.199	869.320	650.097
275.512	15.262	868.685	649.810
276.526	15.319	868.146	649.570
277.541	15.260	867.559	648.844
278.555	15.430	866.884	648.938
279.570	15.503	866.072	648.557
280.585	15.455	865.632	647.984
281.599	15.408	864.418	646.837
282.614	15.363	864.269	646.496
283.628	15.360	863.564	645.899
284.643	15.454	862.851	645.670
285.657	15.458	862.526	645.387
286.672	15.538	861.953	645.206
287.687	15.500	861.295	644.510
288.701	15.410	860.670	643.642
289.716	15.505	860.154	643.561
290.730	15.592	859.858	643.616
291.745	15.420	859.091	642.328
292.760	15.619	858.073	642.270
293.774	15.648	857.412	641.829
294.789	15.544	857.232	641.243
295.803	15.591	856.299	640.665
296.818	15.598	855.614	640.125
297.833	15.548	855.243	639.600
298.847	15.595	854.565	639.212
299.862	15.598	854.008	638.751
300.876	15.597	853.322	638.179
301.891	15.753	852.417	638.036
302.906	15.915	851.966	638.257
303.920	15.763	851.716	637.436
304.935	15.776	851.315	637.133
305.949	15.861	850.685	636.925
306.964	15.773	849.975	636.005
307.979	15.680	849.715	635.400
308.993	16.019	848.614	635.802
310.008	15.856	848.381	634.957
311.022	15.864	847.688	634.410
312.037	15.814	847.224	633.819
313.052	15.709	846.852	633.089
314.066	15.838	846.067	632.932
315.081	15.860	845.442	632.489
316.095	15.818	844.749	631.758
317.110	15.795	844.397	631.354
318.125	15.821	844.314	631.331
319.139	15.913	843.797	631.237
320.154	15.917	843.494	630.969
321.168	15.892	842.465	630.049
322.183	15.973	841.543	629.608
323.197	16.001	841.535	629.650
324.212	15.900	841.123	628.910
325.227	15.829	840.570	628.175
326.241	15.843	839.916	627.681
327.256	16.007	839.053	627.594
328.270	15.985	838.869	627.315
329.285	16.026	837.750	626.577
330.300	16.084	837.266	626.374
331.314	15.983	837.018	625.759
332.329	16.264	836.187	626.127
333.343	16.088	836.042	625.308
334.358	16.145	835.228	624.854
335.373	16.127	835.248	624.747
336.387	16.168	834.700	624.435
337.402	16.182	834.737	624.458
338.416	16.214	834.059	624.014
339.431	16.332	833.796	624.201
340.446	16.162	833.504	623.299
341.460	16.292	832.987	623.335
342.475	16.383	832.497	623.250
343.489	16.487	831.759	623.024
344.504	16.302	831.758	622.287
345.519	16.353	831.245	622.036
346.533	16.441	830.750	621.935
347.548	16.196	830.073	620.472
348.562	16.176	829.585	619.978
349.577	16.363	828.881	620.086
350.592	16.393	828.048	619.517
351.606	16.336	827.405	618.771
352.621	16.528	826.731	618.917
353.635	16.265	826.508	617.732
354.650	16.304	825.801	617.292
355.665	16.454	825.042	617.216
356.679	16.492	824.829	617.142
357.694	16.362	824.005	615.997
358.708	16.562	823.092	615.987
359.723	16.566	822.415	615.442
360.738	16.531	822.304	615.178
361.752	16.396	822.095	614.473
362.767	16.630	821.325	614.694
363.781	16.551	820.462	613.709
364.796	16.783	819.809	614.008
365.810	16.825	819.742	614.055
366.825	16.658	819.308	613.071
367.840	16.725	818.971	613.007
368.854	16.781	817.940	612.382
369.869	16.663	817.952	611.910
370.883	16.577	817.950	611.542
371.898	16.790	817.149	611.661
372.913	16.746	816.778	611.169
373.927	16.856	815.893	610.848
374.942	16.957	815.527	610.886
375.956	16.946	815.393	610.690
376.971	16.980	814.787	610.305
377.986	17.063	814.369	610.236
379.000	17.047	813.767	609.675
380.015	16.972	813.749	609.338
381.029	17.005	812.859	608.734
382.044	17.120	812.409	608.758
383.059	17.147	811.509	608.126
384.073	17.028	810.926	607.210
385.088	17.132	810.645	607.317
386.102	16.948	810.333	606.371
387.117	16.937	809.674	605.786
388.132	16.908	809.280	605.334
389.146	17.208	808.421	605.706
390.161	17.097	808.261	605.138
391.175	17.116	807.675	604.714
392.190	17.024	807.108	603.907
393.205	17.056	806.595	603.583
394.219	17.131	806.388	603.643
395.234	17.177	805.883	603.376
396.248	17.055	805.514	602.614
397.263	17.142	804.985	602.473
398.278	17.176	804.873	602.456
399.292	17.041	804.229	601.440
400.307	17.165	803.708	601.439
401.321	17.231	803.464	601.435
402.336	17.151	803.289	600.969
403.350	17.375	802.144	600.851
404.365	17.351	802.173	600.733
405.380	17.411	801.213	600.172
406.394	17.325	800.978	599.642
407.409	17.317	800.674	599.331
408.423	17.380	800.248	599.183
409.438	17.397	799.972	598.983
410.453	17.488	799.560	598.940
411.467	17.482	798.814	598.308
412.482	17.480	798.509	598.020
413.496	17.444	798.225	597.627
414.511	17.467	798.070	597.539
415.526	17.560	796.998	597.008
416.540	17.634	796.552	596.883
417.555	17.602	796.189	596.445
418.569	17.486	796.454	596.183
419.584	17.612	795.609	595.941
420.599	17.541	795.312	595.418
421.613	114.034	1297.499	1486.312
422.628	98.191	1370.623	1486.403
