DTS Sentinel unit serial number:	SN413079Multiplexer serial number:	ORYXHardware model number:	OX4-SRSoftware version number:	ORYX F/W v4.00 Oryx Data Collector v3.7.2.0data status	okinstallation	princeton_trtdifferential loss correction	single-endedforward channel	channel 1reverse channel	N/Adate	2019/09/15time	04:54:35forward acquisition time	60.00reverse acquisition time	0.00gamma	496.2192k internal	0.2324k external	0.2324temperature offset calibration	1.0002default loss term (dB/km)	0.3790temperature slope calibration	1.0000multiplexer offset coefficient	1.0000multiplexer slope coefficient	1.0000fibre end	0.00T internal ref (°C)	30.75T ext. ref 1 (°C)	4.83T ext. ref 2 (°C)	25.23length (m)	temperature (°C)	Stokes	anti-Stokes-747.200	-142.486	0.268	-0.027
-746.185	-22.264	0.112	0.068
-745.171	510.227	-0.032	0.075
-744.156	-200.000	-0.001	0.467
-743.142	-200.000	0.021	-0.118
-742.127	218.029	0.091	0.146
-741.112	-200.000	0.012	-0.085
-740.098	800.000	-0.055	0.190
-739.083	-86.097	-0.168	0.052
-738.069	-131.803	-0.186	-0.025
-737.054	564.724	0.100	-0.244
-736.039	-200.000	-0.076	-0.359
-735.025	-112.685	0.413	-0.083
-734.010	800.000	0.096	0.290
-732.996	-135.685	0.121	0.014
-731.981	62.497	-0.076	-0.077
-730.966	598.067	-0.034	-0.086
-729.952	252.130	0.056	-0.096
-728.937	88.659	-0.096	-0.108
-727.923	-96.069	0.197	0.053
-726.908	-64.746	-0.183	-0.075
-725.894	-117.446	-0.278	0.051
-724.879	211.983	-0.234	-0.372
-723.864	312.024	0.073	-0.138
-722.850	-136.565	0.261	0.030
-721.835	11.480	-0.092	0.071
-720.821	27.876	0.111	-0.095
-719.806	93.773	-0.183	0.209
-718.791	-47.066	-0.228	-0.112
-717.777	181.278	-0.040	-0.059
-716.762	2.655	-0.284	-0.208
-715.748	-83.191	-0.267	0.087
-714.733	-16.585	-0.209	0.134
-713.718	800.000	0.028	-0.078
-712.704	-113.395	-0.246	0.049
-711.689	-200.000	-0.418	0.000
-710.675	-51.465	-0.287	0.135
-709.660	-200.000	-0.024	0.107
-708.645	-81.650	0.172	0.057
-707.631	362.151	0.169	-0.342
-706.616	800.000	0.086	0.294
-705.602	-80.736	-0.400	0.134
-704.587	-1.967	-0.142	-0.100
-703.572	67.143	-0.022	0.023
-702.558	-200.000	-0.009	-0.052
-701.543	-45.657	0.179	-0.089
-700.529	7.487	-0.104	-0.079
-699.514	-10.719	-0.032	0.022
-698.499	16.576	-0.125	-0.099
-697.485	98.469	0.162	0.188
-696.470	-88.831	-0.307	0.092
-695.456	-58.881	-0.251	-0.109
-694.441	-90.958	0.110	-0.032
-693.426	-200.000	0.042	0.308
-692.412	-34.362	0.083	0.046
-691.397	-63.018	0.115	0.048
-690.383	31.513	-0.293	0.253
-689.368	-79.179	0.163	-0.056
-688.354	33.605	0.183	-0.160
-687.339	-200.000	0.020	0.530
-686.324	333.653	-0.034	-0.066
-685.310	466.524	-0.189	-0.426
-684.295	800.000	-0.024	-0.083
-683.281	284.219	-0.162	-0.293
-682.266	87.426	0.030	0.033
-681.251	-104.445	-0.250	0.058
-680.237	800.000	-0.036	0.121
-679.222	-117.517	-0.297	-0.054
-678.208	-176.548	-0.228	-0.006
-677.193	-136.818	0.099	0.012
-676.178	800.000	-0.022	-0.096
-675.164	72.991	-0.215	-0.226
-674.149	-145.057	-0.340	-0.031
-673.135	800.000	0.051	-0.187
-672.120	175.255	-0.109	-0.158
-671.105	-89.129	0.047	-0.014
-670.091	800.000	-0.062	0.185
-669.076	50.911	-0.221	-0.211
-668.062	119.960	-0.281	-0.351
-667.047	124.338	0.196	-0.248
-666.032	115.954	0.046	-0.057
-665.018	225.784	-0.209	-0.341
-664.003	-99.789	-0.396	-0.100
-662.989	197.453	-0.010	0.015
-661.974	-200.000	-0.030	0.174
-660.959	418.922	-0.070	0.151
-659.945	26.903	0.162	0.137
-658.930	155.468	-0.078	-0.108
-657.916	287.930	-0.031	0.056
-656.901	-200.000	-0.009	0.148
-655.886	52.794	0.048	-0.046
-654.872	25.732	-0.029	0.024
-653.857	-63.683	-0.151	-0.062
-652.843	800.000	-0.029	-0.088
-651.828	-5.477	-0.142	-0.098
-650.814	-78.605	-0.062	0.021
-649.799	-57.805	0.116	-0.051
-648.784	-200.000	0.004	-0.143
-647.770	800.000	-0.012	-0.033
-646.755	-200.000	0.062	-0.407
-645.741	-95.352	0.461	-0.125
-644.726	-19.954	-0.160	0.100
-643.711	497.839	-0.132	-0.306
-642.697	747.861	-0.047	-0.128
-641.682	-70.341	-0.405	0.154
-640.668	800.000	0.156	-0.449
-639.653	-111.035	0.554	0.114
-638.638	522.570	-0.097	0.229
-637.624	429.878	-0.084	-0.182
-636.609	86.421	-0.094	-0.104
-635.595	-139.533	0.168	0.018
-634.580	-86.266	-0.089	-0.028
-633.565	-200.000	-0.083	0.385
-632.551	-158.148	0.221	-0.013
-631.536	57.210	-0.107	-0.105
-630.522	-35.961	-0.245	0.133
-629.507	-200.000	0.002	-0.078
-628.492	-78.957	-0.157	0.054
-627.478	-166.176	0.350	0.015
-626.463	-5.083	0.186	-0.129
-625.449	-49.883	-0.226	-0.108
-624.434	6.469	-0.212	0.159
-623.419	800.000	0.020	0.058
-622.405	-200.000	0.029	-0.350
-621.390	-200.000	-0.073	-0.338
-620.376	63.651	-0.262	0.264
-619.361	-116.431	-0.124	0.023
-618.346	386.456	-0.076	0.157
-617.332	-93.051	-0.128	-0.036
-616.317	-68.483	0.142	-0.055
-615.303	57.338	-0.277	0.271
-614.288	36.055	-0.091	0.080
-613.273	-200.000	-0.037	0.178
-612.259	46.377	0.272	-0.253
-611.244	7.606	-0.183	-0.138
-610.230	-114.467	0.300	0.058
-609.215	93.806	-0.168	-0.191
-608.201	420.596	-0.116	-0.250
-607.186	-200.000	-0.062	0.282
-606.171	-115.702	-0.429	0.081
-605.157	-200.000	0.005	0.032
-604.142	-122.602	-0.109	-0.018
-603.128	59.589	0.051	-0.050
-602.113	-57.211	0.179	0.079
-601.098	-103.701	0.304	0.071
-600.084	800.000	0.084	0.233
-599.069	85.924	0.063	0.069
-598.055	800.000	0.047	0.152
-597.040	-37.429	0.173	-0.093
-596.025	-200.000	-0.011	0.093
-595.011	76.421	0.398	-0.423
-593.996	33.657	0.215	-0.188
-592.982	-200.000	0.032	-0.394
-591.967	-200.000	0.037	-0.186
-590.952	-107.333	0.019	0.004
-589.938	-118.622	0.190	0.034
-588.923	-200.000	0.005	-0.077
-587.909	93.894	-0.138	-0.157
-586.894	414.534	0.116	0.247
-585.879	-165.962	-0.075	0.003
-584.865	-54.777	-0.331	-0.150
-583.850	20.355	0.047	0.038
-582.836	11.440	-0.199	-0.153
-581.821	131.389	0.116	-0.149
-580.806	-10.396	0.097	0.064
-579.792	-73.348	0.038	-0.014
-578.777	-77.525	-0.166	-0.058
-577.763	-84.029	0.193	-0.062
-576.748	30.478	0.153	-0.131
-575.733	526.853	-0.049	-0.117
-574.719	-82.880	0.165	-0.053
-573.704	800.000	-0.044	0.181
-572.690	389.663	0.067	0.138
-571.675	-200.000	0.050	-0.274
-570.661	-126.438	-0.245	-0.036
-569.646	107.601	-0.121	0.144
-568.631	800.000	-0.125	-0.429
-567.617	800.000	0.023	0.076
-566.602	8.911	-0.142	0.108
-565.588	-200.000	-0.001	-0.074
-564.573	58.697	-0.125	-0.123
-563.558	360.659	0.050	0.100
-562.544	46.173	0.116	0.108
-561.529	-12.664	0.135	-0.088
-560.515	83.402	-0.141	0.154
-559.500	-56.175	0.278	-0.124
-558.485	116.417	0.012	0.014
-557.471	600.463	0.047	0.118
-556.456	597.929	0.088	-0.218
-555.442	273.088	0.184	0.325
-554.427	-37.113	-0.081	-0.043
-553.412	37.013	-0.114	-0.101
-552.398	-51.905	0.130	-0.061
-551.383	800.000	-0.070	0.197
-550.369	-53.455	0.104	-0.047
-549.354	-72.768	0.059	0.022
-548.339	-200.000	-0.006	-0.159
-547.325	94.806	0.122	-0.139
-546.310	-61.308	-0.314	0.132
-545.296	-200.000	-0.022	0.147
-544.281	89.363	-0.241	0.268
-543.266	-2.710	0.112	0.078
-542.252	23.505	-0.303	0.249
-541.237	-80.922	0.009	-0.003
-540.223	157.019	-0.112	0.155
-539.208	-200.000	0.006	0.292
-538.193	-10.266	0.195	-0.130
-537.179	-22.997	-0.235	0.142
-536.164	-149.148	0.314	-0.025
-535.150	-200.000	-0.042	0.189
-534.135	401.686	0.238	-0.500
-533.121	234.725	-0.202	-0.333
-532.106	-96.239	-0.347	-0.092
-531.091	-29.082	0.318	-0.183
-530.077	-129.151	-0.366	0.051
-529.062	-200.000	0.029	0.359
-528.048	-200.000	0.006	0.213
-527.033	-15.214	0.169	0.108
-526.018	266.800	0.109	-0.191
-525.004	-87.518	-0.370	0.112
-523.989	-74.350	-0.211	-0.076
-522.975	169.349	-0.058	-0.082
-521.960	-148.400	0.256	-0.021
-520.945	-187.136	-0.266	0.004
-519.931	-43.922	0.170	-0.086
-518.916	800.000	-0.071	0.217
-517.902	197.179	0.133	0.203
-516.887	-123.444	-0.422	0.067
-515.872	56.820	-0.064	-0.062
-514.858	17.654	0.065	0.051
-513.843	203.264	-0.143	-0.221
-512.829	32.721	0.310	0.268
-511.814	231.846	0.159	0.261
-510.799	-91.970	0.405	-0.115
-509.785	-200.000	-0.007	0.064
-508.770	-200.000	-0.051	-0.259
-507.756	-131.880	-0.318	-0.042
-506.741	-19.358	0.162	0.101
-505.726	19.401	0.059	-0.048
-504.712	-54.015	-0.084	-0.038
-503.697	-200.000	0.001	0.325
-502.683	-72.891	0.116	-0.043
-501.668	800.000	-0.057	-0.244
-500.653	-5.149	-0.136	0.093
-499.639	-200.000	-0.042	-0.280
-498.624	-100.816	-0.230	-0.057
-497.610	151.693	-0.082	-0.112
-496.595	-7.349	0.319	0.216
-495.581	-39.905	-0.254	0.133
-494.566	-140.592	0.117	-0.012
-493.551	-95.890	-0.118	0.031
-492.537	-34.151	-0.155	-0.085
-491.522	-96.371	-0.227	-0.060
-490.508	240.924	-0.067	0.111
-489.493	48.891	0.081	0.076
-488.478	27.279	-0.110	0.092
-487.464	-200.000	0.022	-0.317
-486.449	-72.769	-0.094	-0.035
-485.435	69.373	0.153	0.157
-484.420	318.176	0.171	0.323
-483.405	90.952	-0.197	0.220
-482.391	12.821	-0.195	-0.150
-481.376	-37.428	-0.151	0.081
-480.362	-22.151	0.318	0.193
-479.347	-153.911	-0.290	0.020
-478.332	-148.159	-0.085	-0.007
-477.318	-26.719	-0.380	0.222
-476.303	37.390	-0.063	-0.056
-475.289	-200.000	-0.009	0.127
-474.274	422.614	0.052	0.111
-473.259	-192.078	-0.205	0.002
-472.245	-123.497	0.241	-0.038
-471.230	-68.411	0.288	-0.112
-470.216	132.797	-0.160	-0.206
-469.201	-38.861	-0.262	-0.138
-468.186	234.483	0.076	-0.125
-467.172	-72.708	-0.289	-0.106
-466.157	10.046	-0.117	0.089
-465.143	474.912	-0.040	0.091
-464.128	102.122	0.175	0.203
-463.113	-96.563	-0.176	-0.046
-462.099	-200.000	0.029	-0.288
-461.084	-200.000	0.035	-0.312
-460.070	-123.883	-0.231	0.036
-459.055	-57.717	0.076	0.033
-458.040	466.724	0.023	-0.051
-457.026	35.063	-0.341	-0.298
-456.011	269.431	-0.098	-0.172
-454.997	262.755	0.168	-0.292
-453.982	254.166	-0.109	0.187
-452.968	19.603	-0.323	0.260
-451.953	-76.866	-0.107	-0.037
-450.938	143.932	0.253	0.337
-449.924	800.000	-0.026	0.073
-448.909	-24.816	0.085	-0.050
-447.895	-142.267	-0.329	-0.032
-446.880	-41.163	-0.114	0.059
-445.865	-96.634	0.269	-0.071
-444.851	800.000	-0.105	0.436
-443.836	-62.555	0.373	0.154
-442.822	-138.666	0.191	-0.021
-441.807	-144.534	-0.287	-0.026
-440.792	-75.306	-0.095	-0.034
-439.778	-200.000	-0.035	-0.406
-438.763	108.790	0.233	-0.277
-437.749	-47.887	0.085	-0.041
-436.734	-34.384	0.115	0.063
-435.719	63.328	0.178	-0.178
-434.705	-200.000	-0.022	0.390
-433.690	-200.000	0.015	-0.255
-432.676	-110.369	0.018	-0.004
-431.661	43.299	0.090	0.082
-430.646	-85.743	-0.254	0.078
-429.632	485.183	-0.074	-0.168
-428.617	41.789	-0.128	-0.116
-427.603	343.745	-0.131	-0.255
-426.588	-57.109	0.212	0.093
-425.573	600.229	-0.091	0.224
-424.559	-59.198	0.284	-0.122
-423.544	-200.000	-0.029	0.311
-422.530	-106.630	0.340	0.075
-421.515	-46.483	-0.092	-0.045
-420.500	68.399	-0.166	-0.169
-419.486	800.000	0.016	-0.056
-418.471	118.592	0.258	0.317
-417.457	9.727	-0.090	-0.068
-416.442	-200.000	-0.004	0.348
-415.428	85.392	0.109	-0.119
-414.413	-53.500	-0.275	-0.126
-413.398	-66.516	-0.210	0.083
-412.384	45.182	0.083	-0.076
-411.369	800.000	0.040	-0.142
-410.355	19.730	-0.006	-0.005
-409.340	628.518	0.131	-0.331
-408.325	638.216	0.077	-0.196
-407.311	69.335	0.136	-0.139
-406.296	116.269	-0.116	-0.141
-405.282	90.236	0.206	-0.229
-404.267	-200.000	-0.092	-0.552
-403.252	124.086	0.294	0.367
-402.238	185.566	-0.100	-0.148
-401.223	-90.304	-0.575	0.166
-400.209	82.859	0.136	-0.147
-399.194	21.245	-0.183	-0.148
-398.179	-134.639	0.324	-0.039
-397.165	800.000	0.070	-0.301
-396.150	800.000	0.056	-0.234
-395.136	-17.846	-0.077	-0.048
-394.121	-200.000	-0.034	0.178
-393.106	-102.766	-0.293	0.070
-392.092	158.804	0.246	0.340
-391.077	-197.132	-0.080	-0.001
-390.063	349.778	-0.285	0.561
-389.048	-92.717	-0.222	-0.062
-388.033	-35.386	0.429	0.232
-387.019	119.692	-0.062	-0.077
-386.004	-83.869	0.183	0.058
-384.990	-200.000	0.018	0.175
-383.975	506.897	0.088	0.202
-382.960	-91.763	0.117	0.033
-381.946	-146.059	0.209	-0.018
-380.931	-192.324	0.261	0.002
-379.917	125.339	-0.101	-0.127
-378.902	176.508	-0.065	0.094
-377.888	-100.214	0.296	-0.073
-376.873	268.589	0.139	-0.242
-375.858	-200.000	-0.046	0.261
-374.844	301.013	0.115	0.212
-373.829	-8.605	-0.060	-0.040
-372.815	800.000	-0.041	-0.169
-371.800	-200.000	0.017	0.157
-370.785	-200.000	0.052	0.309
-369.771	283.891	0.124	-0.221
-368.756	-173.018	-0.215	0.007
-367.742	-100.033	-0.290	0.072
-366.727	-129.476	0.188	0.026
-365.712	356.454	-0.122	0.242
-364.698	110.943	-0.122	0.146
-363.683	-113.200	-0.181	0.036
-362.669	800.000	-0.070	0.221
-361.654	-59.463	0.294	0.126
-360.639	319.151	0.037	-0.070
-359.625	-33.131	-0.242	0.133
-358.610	225.150	-0.083	-0.133
-357.596	494.155	-0.145	0.332
-356.581	-50.298	-0.122	0.057
-355.566	62.199	0.071	0.071
-354.552	-156.975	-0.040	-0.002
-353.537	-194.625	0.232	0.002
-352.523	46.754	-0.170	-0.157
-351.508	-173.064	0.351	0.011
-350.493	101.740	-0.122	-0.142
-349.479	-94.693	0.096	-0.026
-348.464	-200.000	0.054	-0.399
-347.450	293.193	-0.071	-0.129
-346.435	-182.255	0.276	-0.005
-345.420	733.885	0.042	0.113
-344.406	-122.385	-0.264	0.043
-343.391	-143.081	0.222	-0.021
-342.377	2.902	-0.084	-0.060
-341.362	60.398	0.053	0.052
-340.348	-95.072	0.072	0.019
-339.333	-32.072	-0.145	-0.080
-338.318	173.414	-0.099	0.141
-337.304	84.564	0.186	0.202
-336.289	-200.000	-0.011	-0.104
-335.275	-54.465	-0.516	-0.232
-334.260	0.052	-0.146	-0.104
-333.245	592.947	0.088	0.215
-332.231	57.588	0.284	-0.276
-331.216	-128.128	0.294	0.042
-330.202	13.385	-0.068	0.053
-329.187	48.756	0.070	-0.065
-328.172	-45.643	0.252	0.124
-327.158	283.182	0.044	-0.079
-326.143	-200.000	0.012	0.236
-325.129	-146.269	0.200	0.017
-324.114	-93.445	0.325	0.089
-323.099	-132.902	0.163	-0.021
-322.085	800.000	0.112	0.390
-321.070	21.267	-0.325	0.262
-320.056	-8.259	-0.157	0.105
-319.041	-16.830	0.431	0.271
-318.026	281.714	0.150	-0.267
-317.012	800.000	-0.041	0.136
-315.997	455.501	0.096	0.210
-314.983	-200.000	0.001	-0.141
-313.968	442.498	-0.169	0.367
-312.953	-200.000	-0.010	0.063
-311.939	-114.864	0.069	-0.013
-310.924	800.000	-0.085	0.311
-309.910	-81.008	0.171	-0.056
-308.895	800.000	0.073	-0.253
-307.880	31.111	-0.172	-0.147
-306.866	632.795	0.062	0.155
-305.851	93.759	-0.234	0.263
-304.837	-101.402	-0.311	-0.075
-303.822	-200.000	-0.002	0.198
-302.807	-108.969	-0.426	-0.090
-301.793	-98.301	0.088	0.023
-300.778	62.683	-0.064	0.064
-299.764	-115.328	0.430	-0.081
-298.749	265.163	0.164	0.283
-297.735	355.349	-0.107	0.212
-296.720	112.012	0.199	0.239
-295.705	-135.198	0.251	-0.030
-294.691	298.699	0.135	-0.247
-293.676	-138.028	-0.330	0.036
-292.662	-177.895	-0.161	-0.004
-291.647	238.463	0.080	-0.132
-290.632	800.000	-0.086	-0.325
-289.618	-9.684	-0.092	0.061
-288.603	800.000	0.041	0.163
-287.589	107.445	-0.162	-0.191
-286.574	9.444	0.128	-0.096
-285.559	156.082	-0.217	0.296
-284.545	-41.357	0.274	0.140
-283.530	-140.237	-0.185	0.019
-282.516	-200.000	-0.027	-0.166
-281.501	-52.194	-0.089	0.041
-280.486	104.800	-0.126	0.148
-279.472	161.349	0.098	-0.135
-278.457	401.869	0.141	0.293
-277.443	794.600	0.205	0.558
-276.428	188.056	-0.103	0.153
-275.413	-107.786	0.261	-0.056
-274.399	-116.573	-0.176	0.032
-273.384	-7.872	0.105	0.070
-272.370	-145.907	0.216	-0.019
-271.355	-200.000	-0.002	0.234
-270.340	800.000	-0.107	-0.308
-269.326	-56.747	0.201	0.088
-268.311	-200.000	0.017	0.097
-267.297	57.259	-0.196	0.190
-266.282	-165.607	-0.066	0.003
-265.267	124.537	-0.155	-0.193
-264.253	-19.124	0.122	-0.075
-263.238	35.945	0.425	0.371
-262.224	20.783	0.088	0.070
-261.209	652.444	0.090	-0.228
-260.195	135.194	0.191	-0.246
-259.180	-64.538	0.292	-0.117
-258.165	800.000	0.068	0.260
-257.151	-68.240	-0.159	0.061
-256.136	-200.000	-0.010	-0.104
-255.122	-82.904	-0.449	0.144
-254.107	20.877	0.229	0.184
-253.092	-200.000	-0.008	0.125
-252.078	-200.000	0.029	0.231
-251.063	543.210	0.153	-0.362
-250.049	23.518	-0.256	-0.209
-249.034	800.000	-0.017	-0.055
-248.019	97.969	0.024	-0.027
-247.005	465.443	0.104	-0.231
-245.990	-200.000	-0.038	-0.210
-244.976	612.053	0.062	-0.152
-243.961	-60.171	0.337	-0.142
-242.946	-33.837	-0.312	-0.170
-241.932	-192.541	0.351	-0.003
-240.917	-57.982	-0.187	-0.081
-239.903	-103.922	0.233	-0.054
-238.888	-200.000	0.071	-0.510
-237.873	770.941	0.083	-0.225
-236.859	800.000	0.032	0.112
-235.844	-200.000	-0.004	0.255
-234.830	-200.000	0.030	0.136
-233.815	-200.000	-0.024	0.310
-232.800	563.986	-0.088	-0.210
-231.786	445.740	0.050	-0.108
-230.771	-93.827	-0.200	0.055
-229.757	7.047	0.262	-0.193
-228.742	-200.000	-0.093	0.463
-227.727	-146.965	-0.243	0.021
-226.713	174.535	0.131	0.187
-225.698	-200.000	-0.062	-0.268
-224.684	173.276	0.048	0.068
-223.669	-200.000	-0.003	-0.152
-222.655	641.742	-0.171	0.430
-221.640	54.515	-0.049	0.047
-220.625	103.609	0.114	0.132
-219.611	-200.000	0.004	-0.283
-218.596	800.000	-0.069	-0.230
-217.582	-128.741	0.168	-0.023
-216.567	-137.670	-0.381	0.042
-215.552	800.000	-0.042	-0.135
-214.538	755.631	0.152	0.406
-213.523	6.564	-0.163	0.120
-212.509	800.000	0.062	-0.202
-211.494	-72.545	-0.258	-0.094
-210.479	-41.027	-0.176	-0.090
-209.465	40.359	-0.098	-0.087
-208.450	464.326	-0.093	-0.206
-207.436	-200.000	-0.015	-0.072
-206.421	29.003	0.056	-0.047
-205.406	20.978	0.079	0.063
-204.392	800.000	-0.037	-0.143
-203.377	16.930	-0.342	0.268
-202.363	0.915	0.321	-0.227
-201.348	-200.000	0.002	-0.176
-200.333	-200.000	-0.009	-0.058
-199.319	147.055	0.069	0.092
-198.304	800.000	-0.046	-0.146
-197.290	800.000	0.047	-0.137
-196.275	-11.560	-0.303	-0.197
-195.260	388.805	0.062	0.126
-194.246	49.151	0.151	-0.141
-193.231	-165.089	-0.245	0.011
-192.217	-86.903	0.216	0.065
-191.202	-13.631	0.161	-0.103
-190.187	-112.869	0.044	-0.009
-189.173	374.980	0.034	0.069
-188.158	112.656	-0.214	0.256
-187.144	-73.402	-0.200	0.072
-186.129	-200.000	-0.013	-0.141
-185.114	800.000	0.046	-0.130
-184.100	-38.498	0.217	0.113
-183.085	-77.429	0.193	-0.066
-182.071	800.000	0.023	0.064
-181.056	-69.211	-0.282	0.107
-180.042	-200.000	0.017	0.093
-179.027	800.000	-0.034	0.123
-178.012	-80.930	-0.205	-0.067
-176.998	28.769	-0.102	-0.086
-175.983	53.193	-0.095	0.090
-174.969	116.243	0.068	-0.083
-173.954	298.331	0.019	0.034
-172.939	220.487	0.202	-0.320
-171.925	-200.000	-0.032	-0.162
-170.910	-9.403	0.112	0.074
-169.896	86.619	-0.055	-0.060
-168.881	335.273	-0.117	-0.225
-167.866	-200.000	-0.005	0.061
-166.852	288.281	-0.110	0.197
-165.837	40.240	0.297	-0.264
-164.823	-42.474	0.204	-0.102
-163.808	229.526	0.046	0.075
-162.793	-92.820	0.049	0.013
-161.779	43.182	0.035	-0.031
-160.764	-193.568	-0.381	-0.003
-159.750	17.834	0.217	-0.170
-158.735	-200.000	0.023	0.260
-157.720	186.345	0.064	-0.094
-156.706	-79.112	-0.029	0.010
-155.691	800.000	0.072	0.279
-154.677	800.000	-0.020	0.070
-153.662	800.000	0.048	0.132
-152.647	-47.306	0.122	0.059
-151.633	800.000	0.063	-0.232
-150.618	-200.000	0.023	0.257
-149.604	39.084	-0.087	-0.076
-148.589	-200.000	-0.050	0.319
-147.574	-63.149	0.144	0.058
-146.560	-60.575	0.420	0.176
-145.545	527.791	-0.069	-0.161
-144.531	-102.807	-0.125	-0.029
-143.516	-55.028	-0.255	0.113
-142.502	680.985	0.145	-0.372
-141.487	800.000	-0.081	0.231
-140.472	-72.659	-0.151	0.055
-139.458	800.000	-0.049	-0.179
-138.443	-94.294	-0.285	-0.077
-137.429	-19.580	-0.105	-0.064
-136.414	568.496	-0.067	0.160
-135.399	800.000	0.054	0.180
-134.385	-160.872	0.124	0.006
-133.370	-157.840	-0.179	-0.010
-132.356	14.968	0.280	-0.216
-131.341	-49.288	0.306	0.144
-130.326	17.329	-0.132	0.103
-129.312	481.370	0.125	0.280
-128.297	552.878	-0.064	0.151
-127.283	-75.485	-0.171	-0.060
-126.268	-54.957	-0.176	-0.078
-125.253	-3.313	-0.117	-0.081
-124.239	-58.191	0.440	-0.189
-123.224	5.458	0.326	-0.237
-122.210	51.427	0.119	-0.111
-121.195	165.425	-0.252	0.351
-120.180	225.796	-0.040	-0.064
-119.166	-47.728	0.393	-0.188
-118.151	623.379	-0.030	-0.074
-117.137	533.515	0.053	-0.123
-116.122	-88.203	-0.201	-0.059
-115.107	800.000	-0.058	-0.186
-114.093	-132.102	0.142	-0.018
-113.078	-142.549	0.295	0.028
-112.064	-194.333	0.032	-0.000
-111.049	518.643	-0.111	-0.255
-110.034	0.890	-0.161	-0.114
-109.020	-105.502	0.047	0.010
-108.005	-200.000	0.040	-0.243
-106.991	-91.984	-0.153	-0.043
-105.976	-49.610	-0.164	0.077
-104.962	58.928	0.292	-0.283
-103.947	-88.699	-0.238	-0.070
-102.932	-29.004	0.138	0.078
-101.918	394.931	-0.086	-0.176
-100.903	45.474	0.297	-0.270
-99.889	230.973	-0.064	0.103
-98.874	72.773	0.238	-0.245
-97.859	68.471	0.185	0.186
-96.845	365.077	-0.075	0.148
-95.830	-33.373	0.195	-0.106
-94.816	-200.000	-0.030	-0.374
-93.801	-46.822	0.051	-0.024
-92.786	19.140	0.236	-0.186
-91.772	-200.000	0.015	0.070
-90.757	24.821	-0.346	0.282
-89.743	45.728	-0.098	0.089
-88.728	-200.000	0.025	0.167
-87.713	-200.000	-0.015	0.316
-86.699	-19.312	0.186	0.113
-85.684	494.800	-0.037	-0.083
-84.670	89.558	-0.179	-0.196
-83.655	-200.000	-0.007	0.276
-82.640	158.111	0.069	-0.093
-81.626	-124.338	0.258	-0.040
-80.611	-27.127	-0.136	-0.078
-79.597	184.044	0.175	-0.255
-78.582	-45.217	-0.093	0.045
-77.567	800.000	0.103	0.339
-76.553	-200.000	0.024	0.282
-75.538	70.867	0.208	-0.211
-74.524	186.068	-0.075	0.110
-73.509	163.295	0.128	0.177
-72.494	-138.390	-0.076	0.008
-71.480	800.000	0.059	-0.229
-70.465	88.968	0.222	-0.243
-69.451	800.000	-0.065	0.196
-68.436	-105.346	0.029	-0.007
-67.422	134.325	-0.181	-0.231
-66.407	41.528	0.447	0.398
-65.392	32.738	-0.251	0.213
-64.378	-200.000	0.001	-0.348
-63.363	-66.323	-0.234	0.092
-62.349	-200.000	0.040	0.176
-61.334	15.529	-1.135	-0.876
-60.319	336.439	0.580	1.107
-59.305	239.929	-0.415	-0.678
-58.290	211.751	0.561	0.868
-57.276	565.253	0.713	1.698
-56.261	-200.000	102.523	586.986
-55.246	552.132	1432.786	3380.730
-54.232	187.881	2619.581	3843.541
-53.217	116.538	2145.035	2584.275
-52.203	42.672	1592.839	1424.678
-51.188	34.205	1328.531	1137.890
-50.173	31.094	1286.881	1084.127
-49.159	54.394	1338.012	1265.820
-48.144	55.641	1354.563	1288.811
-47.130	34.509	1310.311	1123.900
-46.115	30.974	1293.112	1088.501
-45.100	30.792	1287.834	1082.959
-44.086	30.728	1285.209	1080.336
-43.071	30.633	1283.541	1078.340
-42.057	30.646	1281.254	1076.454
-41.042	30.541	1280.199	1074.916
-40.027	30.744	1277.675	1073.926
-39.013	30.646	1276.126	1072.016
-37.998	30.673	1274.327	1070.619
-36.984	30.802	1272.793	1070.027
-35.969	30.730	1271.159	1068.196
-34.954	30.707	1269.558	1066.679
-33.940	30.798	1268.024	1065.866
-32.925	30.839	1266.712	1064.956
-31.911	30.873	1265.136	1063.783
-30.896	30.891	1264.130	1063.000
-29.881	30.866	1262.623	1061.548
-28.867	30.852	1261.192	1060.224
-27.852	30.926	1259.699	1059.344
-26.838	30.822	1258.785	1057.947
-25.823	30.912	1256.941	1056.862
-24.809	30.876	1255.796	1055.655
-23.794	30.771	1254.699	1054.095
-22.779	30.852	1253.475	1053.487
-21.765	30.817	1252.107	1052.093
-20.750	30.789	1251.017	1050.980
-19.736	30.722	1249.735	1049.480
-18.721	30.612	1248.762	1048.003
-17.706	30.730	1247.214	1047.328
-16.692	30.702	1246.055	1046.154
-15.677	30.737	1244.786	1045.242
-14.663	30.731	1243.422	1044.024
-13.648	30.652	1242.840	1043.049
-12.633	30.591	1241.792	1041.787
-11.619	30.715	1241.078	1041.844
-10.604	30.712	1240.161	1041.012
-9.590	30.680	1239.120	1039.918
-8.575	30.733	1237.981	1039.221
-7.560	30.644	1237.538	1038.310
-6.546	30.684	1236.521	1037.635
-5.531	30.653	1235.341	1036.432
-4.517	30.639	1234.677	1035.757
-3.502	30.761	1233.366	1035.296
-2.487	30.751	1232.997	1034.890
-1.473	30.708	1228.361	1030.717
-0.458	29.115	1214.493	1010.310
0.556	24.664	1196.557	972.495
1.571	20.915	1202.096	956.379
2.586	20.074	1217.078	963.539
3.600	19.660	1206.630	952.900
4.615	15.204	1136.813	874.478
5.629	8.126	1065.034	784.475
6.644	5.023	1047.168	756.218
7.659	4.798	1044.643	753.238
8.673	4.747	1043.730	752.267
9.688	4.753	1042.266	751.175
10.702	4.774	1040.546	749.972
11.717	8.924	1045.546	773.562
12.731	15.646	1055.091	813.182
13.746	18.642	1057.709	829.635
14.761	18.144	1056.684	826.351
15.775	17.158	1054.381	819.720
16.790	16.115	1052.473	813.136
17.804	15.355	1051.368	808.552
18.819	15.123	1049.747	806.117
19.834	14.781	1049.144	803.938
20.848	14.566	1048.435	802.288
21.863	14.321	1047.762	800.524
22.877	14.225	1046.962	799.383
23.892	14.189	1045.929	798.347
24.907	14.137	1045.503	797.701
25.921	14.194	1044.289	796.977
26.936	14.311	1042.969	796.463
27.950	14.359	1041.829	795.751
28.965	14.360	1040.293	794.509
29.980	14.528	1038.455	793.837
30.994	14.657	1037.401	793.575
32.009	14.453	1036.959	792.194
33.023	14.242	1036.060	790.437
34.038	14.441	1034.260	789.935
35.053	14.395	1033.526	789.089
36.067	14.340	1032.768	788.179
37.082	14.361	1031.927	787.567
38.096	14.420	1031.429	787.396
39.111	14.369	1030.758	786.577
40.126	14.293	1029.428	785.129
41.140	14.088	1028.369	783.287
42.155	14.186	1026.572	782.313
43.169	14.212	1026.029	781.952
44.184	14.119	1024.509	780.285
45.199	14.095	1023.846	779.599
46.213	14.215	1022.536	779.096
47.228	14.230	1021.740	778.491
48.242	14.295	1020.706	777.940
49.257	14.345	1019.625	777.277
50.271	14.265	1018.895	776.280
51.286	14.408	1018.301	776.426
52.301	14.320	1017.446	775.294
53.315	14.138	1016.045	773.313
54.330	14.282	1015.009	773.123
55.344	14.264	1014.022	772.221
56.359	14.240	1013.371	771.546
57.374	14.132	1012.510	770.321
58.388	14.076	1011.592	769.294
59.403	14.160	1010.552	768.826
60.417	13.976	1010.228	767.659
61.432	14.019	1009.371	767.139
62.447	14.033	1008.228	766.267
63.461	14.023	1007.184	765.360
64.476	14.083	1006.505	765.052
65.490	13.918	1005.931	763.791
66.505	13.978	1005.017	763.303
67.520	13.973	1004.771	763.027
68.534	14.088	1003.837	762.776
69.549	14.065	1003.136	762.073
70.563	14.039	1002.027	761.043
71.578	13.831	1001.946	759.961
72.593	14.010	1000.380	759.523
73.607	13.970	1000.125	759.081
74.622	13.906	999.649	758.362
75.636	13.943	998.814	757.831
76.651	13.954	997.965	757.167
77.666	13.972	997.375	756.734
78.680	13.910	996.815	755.961
79.695	14.019	996.250	755.964
80.709	14.072	995.820	755.807
81.724	14.119	995.126	755.431
82.739	14.221	994.308	755.204
83.753	14.365	993.262	754.995
84.768	14.434	992.513	754.670
85.782	14.442	992.006	754.255
86.797	14.298	991.445	753.113
87.812	14.357	990.001	752.215
88.826	14.231	989.522	751.214
89.841	14.363	988.476	750.952
90.855	14.386	987.533	750.272
91.870	14.428	986.494	749.604
92.884	14.517	986.110	749.645
93.899	14.485	985.099	748.669
94.914	14.436	984.494	747.922
95.928	14.487	983.776	747.538
96.943	14.508	982.805	746.828
97.957	14.487	981.930	746.002
98.972	14.452	981.110	745.159
99.987	14.406	980.060	744.089
101.001	14.405	979.177	743.350
102.016	14.451	978.632	743.075
103.030	14.448	977.613	742.222
104.045	14.523	976.628	741.741
105.060	14.362	975.723	740.274
106.074	14.149	975.219	738.879
107.089	14.257	973.800	738.220
108.103	14.169	973.307	737.388
109.118	14.082	972.286	736.163
110.133	14.114	971.411	735.576
111.147	14.158	970.909	735.329
112.162	14.005	969.961	733.869
113.176	14.104	969.162	733.636
114.191	14.195	968.674	733.603
115.206	14.232	967.751	733.000
116.220	14.182	966.788	731.987
117.235	14.154	966.056	731.248
118.249	14.228	965.123	730.799
119.264	14.240	964.259	730.136
120.279	14.094	964.148	729.345
121.293	14.075	962.752	728.142
122.308	14.085	961.806	727.406
123.322	14.021	961.351	726.717
124.337	14.157	959.797	726.070
125.352	14.092	959.095	725.192
126.366	14.015	957.722	723.756
127.381	14.098	957.133	723.609
128.395	14.250	956.015	723.358
129.410	14.227	955.056	722.470
130.424	14.212	954.418	721.859
131.439	14.256	953.793	721.512
132.454	14.331	952.599	720.868
133.468	14.341	952.131	720.493
134.483	14.349	950.808	719.465
135.497	14.146	950.571	718.347
136.512	14.250	950.163	718.420
137.527	14.303	949.107	717.790
138.541	14.367	948.427	717.486
139.556	14.283	947.679	716.497
140.570	14.437	946.671	716.332
141.585	14.414	945.773	715.488
142.600	14.547	945.182	715.550
143.614	14.536	944.111	714.629
144.629	14.513	943.899	714.308
145.643	14.492	942.979	713.457
146.658	14.503	941.438	712.277
147.673	14.397	940.642	711.157
148.687	14.301	940.319	710.441
149.702	14.326	939.609	709.948
150.716	14.293	938.580	708.966
151.731	14.369	937.670	708.539
152.746	14.275	937.373	707.856
153.760	14.495	936.465	708.040
154.775	14.540	936.010	707.824
155.789	14.501	935.473	707.189
156.804	14.540	934.523	706.574
157.819	14.527	933.885	705.974
158.833	14.649	933.266	705.962
159.848	14.724	932.685	705.778
160.862	14.592	931.624	704.351
161.877	14.245	931.273	702.561
162.892	14.459	929.742	702.244
163.906	14.412	928.597	701.122
164.921	14.498	928.016	700.980
165.935	14.524	927.128	700.359
166.950	14.487	926.582	699.729
167.964	14.580	925.803	699.467
168.979	14.463	924.451	697.896
169.994	14.516	923.922	697.657
171.008	14.519	923.385	697.199
172.023	14.592	922.860	697.047
173.037	14.680	921.961	696.676
174.052	14.755	921.056	696.243
175.067	14.641	920.066	694.957
176.081	14.453	919.963	694.034
177.096	14.497	919.441	693.764
178.110	14.673	918.855	693.989
179.125	14.625	918.362	693.358
180.140	14.509	918.110	692.623
181.154	14.649	917.282	692.519
182.169	14.662	917.167	692.425
183.183	14.698	916.826	692.257
184.198	14.840	915.356	691.671
185.213	14.857	914.746	691.219
186.227	14.869	913.999	690.642
187.242	14.682	913.578	689.491
188.256	14.851	912.918	689.631
189.271	14.863	911.944	688.885
190.286	14.651	911.528	687.636
191.300	14.584	910.555	686.565
192.315	14.512	909.962	685.763
193.329	14.696	909.013	685.741
194.344	14.642	908.755	685.263
195.359	14.656	908.522	685.084
196.373	14.912	907.443	685.261
197.388	14.868	907.317	684.925
198.402	14.998	906.978	685.141
199.417	14.897	906.648	684.414
200.432	15.164	905.722	684.748
201.446	15.107	905.598	684.361
202.461	15.179	904.532	683.788
203.475	15.138	904.111	683.241
204.490	14.958	903.524	682.005
205.504	14.965	902.331	681.074
206.519	14.997	901.829	680.764
207.534	14.973	901.274	680.187
208.548	15.037	900.737	679.983
209.563	15.034	899.779	679.185
210.577	15.016	899.395	678.763
211.592	15.096	898.523	678.367
212.607	15.103	898.122	678.033
213.621	15.227	896.875	677.535
214.636	15.164	896.404	676.862
215.650	15.178	895.977	676.539
216.665	15.324	894.966	676.303
217.680	15.303	894.456	675.775
218.694	15.339	893.220	674.924
219.709	15.284	893.080	674.538
220.723	15.262	892.761	674.149
221.738	15.212	892.019	673.330
222.753	15.266	891.255	672.910
223.767	15.360	890.830	672.905
224.782	15.357	890.308	672.441
225.796	15.500	889.424	672.286
226.811	15.347	889.160	671.414
227.826	15.322	887.993	670.375
228.840	15.377	887.334	670.034
229.855	15.311	886.778	669.295
230.869	15.249	885.914	668.336
231.884	15.223	885.467	667.835
232.899	15.322	884.457	667.408
233.913	15.256	883.989	666.733
234.928	15.414	883.324	666.802
235.942	15.211	882.980	665.676
236.957	15.229	882.254	665.140
237.972	15.314	881.978	665.212
238.986	15.166	881.234	664.004
240.001	15.146	880.782	663.526
241.015	15.339	879.748	663.452
242.030	15.208	879.683	662.825
243.045	15.425	878.759	662.927
244.059	15.333	878.545	662.344
245.074	15.542	877.995	662.697
246.088	15.605	876.818	661.997
247.103	15.590	876.651	661.753
248.117	15.616	876.470	661.661
249.132	15.722	875.919	661.606
250.147	15.831	875.038	661.306
251.161	15.960	874.123	661.065
252.176	15.914	873.663	660.477
253.190	15.902	872.779	659.703
254.205	16.001	872.635	659.924
255.220	15.923	871.750	658.892
256.234	15.982	870.669	658.246
257.249	16.032	870.363	658.150
258.263	15.996	869.595	657.373
259.278	15.949	869.122	656.775
260.293	16.155	868.467	657.025
261.307	16.069	867.791	656.119
262.322	16.164	867.242	656.014
263.336	16.117	866.548	655.251
264.351	16.195	865.826	654.950
265.366	16.071	865.481	654.147
266.380	16.110	864.931	653.826
267.395	16.125	863.616	652.833
268.409	16.135	863.281	652.561
269.424	16.220	862.361	652.137
270.439	16.009	862.025	651.010
271.453	15.975	861.289	650.263
272.468	15.947	860.698	649.653
273.482	15.971	860.311	649.397
274.497	16.066	859.937	649.421
275.512	16.082	859.062	648.767
276.526	16.098	858.615	648.431
277.541	16.161	858.180	648.287
278.555	16.238	857.506	648.016
279.570	16.294	856.836	647.666
280.585	16.279	855.851	646.808
281.599	16.237	855.283	646.160
282.614	16.239	854.442	645.477
283.628	16.093	854.023	644.543
284.643	16.275	853.219	644.577
285.657	16.242	852.711	644.008
286.672	16.229	852.478	643.726
287.687	16.245	851.890	643.287
288.701	16.324	851.136	642.960
289.716	16.434	850.400	642.765
290.730	16.251	849.929	641.660
291.745	16.349	849.487	641.639
292.760	16.478	848.899	641.627
293.774	16.501	848.329	641.227
294.789	16.491	847.639	640.612
295.803	16.374	846.590	639.319
296.818	16.307	846.274	638.773
297.833	16.428	845.282	638.424
298.847	16.479	844.684	638.108
299.862	16.519	844.085	637.750
300.876	16.432	844.206	637.457
301.891	16.439	843.354	636.782
302.906	16.342	843.474	636.450
303.920	16.661	842.535	636.885
304.935	16.652	842.063	636.441
305.949	16.660	841.311	635.846
306.964	16.633	840.874	635.359
307.979	16.668	840.279	634.984
308.993	16.695	839.806	634.673
310.008	16.755	838.689	633.994
311.022	16.701	838.430	633.541
312.037	16.679	837.466	632.676
313.052	16.575	837.207	632.034
314.066	16.685	836.484	631.844
315.081	16.551	835.847	630.808
316.095	16.634	835.399	630.722
317.110	16.623	834.753	630.139
318.125	16.603	834.555	629.856
319.139	16.571	834.222	629.431
320.154	16.530	833.706	628.833
321.168	16.581	833.101	628.513
322.183	16.712	832.430	628.436
323.197	16.846	831.633	628.274
324.212	16.712	831.398	627.547
325.227	16.674	830.985	627.037
326.241	16.706	830.315	626.594
327.256	16.526	829.840	625.515
328.270	16.818	829.236	626.082
329.285	16.812	828.296	625.295
330.300	16.836	827.991	625.101
331.314	16.628	827.928	624.229
332.329	16.869	827.070	624.414
333.343	16.920	826.448	624.078
334.358	16.959	826.098	623.901
335.373	16.908	825.765	623.407
336.387	16.905	825.547	623.175
337.402	16.922	825.769	623.351
338.416	16.845	825.527	622.830
339.431	17.083	824.599	622.948
340.446	17.258	824.072	623.138
341.460	17.099	823.753	622.261
342.475	17.143	823.544	622.208
343.489	17.221	822.931	621.973
344.504	17.420	822.058	621.986
345.519	17.265	822.191	621.464
346.533	17.297	821.635	621.108
347.548	17.130	820.945	619.921
348.562	17.202	820.702	619.947
349.577	17.156	819.841	619.074
350.592	17.099	818.889	618.093
351.606	17.185	818.291	617.898
352.621	17.237	818.142	617.922
353.635	17.025	817.543	616.642
354.650	17.231	816.653	616.664
355.665	17.195	816.274	616.195
356.679	17.310	815.758	616.167
357.694	17.312	814.807	615.399
358.708	17.268	814.532	614.979
359.723	17.135	814.126	614.138
360.738	17.398	813.150	614.299
361.752	17.437	812.426	613.835
362.767	17.276	812.712	613.418
363.781	17.448	811.774	613.274
364.796	17.476	811.410	613.046
365.810	17.538	810.996	612.903
366.825	17.669	810.762	613.142
367.840	17.426	810.099	611.713
368.854	17.609	809.515	611.877
369.869	17.626	808.992	611.488
370.883	17.725	808.424	611.359
371.898	17.604	808.277	610.760
372.913	17.622	807.862	610.456
373.927	17.452	807.532	609.544
374.942	17.662	807.014	609.852
375.956	17.705	806.892	609.859
376.971	17.891	806.158	609.915
377.986	18.075	805.698	610.171
379.000	17.941	805.108	609.191
380.015	17.813	804.948	608.558
381.029	17.785	804.352	607.956
382.044	17.949	803.656	607.958
383.059	17.829	803.461	607.331
384.073	17.873	802.642	606.814
385.088	17.713	802.018	605.719
386.102	17.839	801.186	605.487
387.117	17.814	800.417	604.761
388.132	17.850	799.695	604.290
389.146	17.791	799.595	603.952
390.161	17.921	799.133	604.010
391.175	17.910	798.849	603.701
392.190	17.944	798.381	603.417
393.205	17.852	797.768	602.576
394.219	17.772	797.756	602.231
395.234	17.761	797.423	601.886
396.248	17.713	796.822	601.210
397.263	17.728	796.111	600.673
398.278	17.738	796.054	600.612
399.292	17.803	795.329	600.239
400.307	17.785	794.916	599.813
401.321	17.803	794.476	599.491
402.336	17.898	793.910	599.345
403.350	17.883	793.709	599.088
404.365	17.938	793.339	598.949
405.380	18.005	792.974	598.854
406.394	18.192	791.864	598.617
407.409	18.154	791.896	598.454
408.423	18.248	791.606	598.514
409.438	18.182	791.193	597.918
410.453	18.171	790.502	597.302
411.467	18.279	790.415	597.561
412.482	18.299	790.205	597.419
413.496	18.319	789.475	596.884
414.511	18.416	789.293	597.032
415.526	18.393	788.905	596.606
416.540	18.249	788.195	595.515
417.555	18.519	787.427	595.820
418.569	18.385	787.163	595.102
419.584	18.332	786.799	594.591
420.599	18.495	786.563	594.924
421.613	157.737	1370.801	1796.601
422.628	136.357	1455.932	1796.669
