DTS Sentinel unit serial number:	SN413079Multiplexer serial number:	ORYXHardware model number:	OX4-SRSoftware version number:	ORYX F/W v4.00 Oryx Data Collector v3.7.2.0data status	okinstallation	princeton_trtdifferential loss correction	single-endedforward channel	channel 1reverse channel	N/Adate	2019/09/11time	10:08:11forward acquisition time	60.00reverse acquisition time	0.00gamma	496.2192k internal	0.2301k external	0.2301temperature offset calibration	0.9950default loss term (dB/km)	0.3790temperature slope calibration	1.0000multiplexer offset coefficient	1.0000multiplexer slope coefficient	1.0000fibre end	0.00T internal ref (°C)	35.62T ext. ref 1 (°C)	0.12T ext. ref 2 (°C)	33.24length (m)	temperature (°C)	Stokes	anti-Stokes-747.200	320.727	-0.062	0.120
-746.185	46.068	0.229	0.216
-745.171	-200.000	0.025	-0.121
-744.156	-25.196	-0.282	-0.170
-743.142	800.000	-0.059	0.224
-742.127	201.415	-0.261	0.410
-741.112	20.594	-0.276	-0.228
-740.098	-80.514	-0.296	-0.101
-739.083	330.805	-0.059	-0.117
-738.069	-71.256	-0.445	-0.170
-737.054	301.914	-0.207	0.391
-736.039	-25.802	0.300	-0.180
-735.025	800.000	0.068	0.262
-734.010	33.531	-0.142	0.125
-732.996	-200.000	-0.009	0.193
-731.981	-54.076	-0.128	0.059
-730.966	20.461	-0.094	0.077
-729.952	89.710	-0.151	-0.172
-728.937	243.456	-0.163	-0.278
-727.923	-103.193	0.203	0.049
-726.908	59.841	0.154	-0.155
-725.894	-38.008	-0.147	-0.080
-724.879	800.000	-0.087	-0.260
-723.864	-161.845	0.088	0.005
-722.850	351.916	-0.128	-0.258
-721.835	386.053	-0.060	0.126
-720.821	-107.479	-0.221	0.049
-719.806	50.510	0.363	-0.350
-718.791	-154.650	0.247	-0.017
-717.777	-200.000	0.017	0.163
-716.762	-40.469	0.020	0.011
-715.748	-76.120	0.277	0.099
-714.733	-107.439	-0.140	-0.031
-713.718	-17.936	0.184	-0.118
-712.704	134.921	-0.181	-0.239
-711.689	208.886	-0.198	-0.316
-710.675	556.605	-0.089	0.218
-709.660	-125.857	0.217	-0.033
-708.645	90.935	0.063	-0.072
-707.631	800.000	0.066	-0.243
-706.616	-70.475	0.182	-0.070
-705.602	521.274	0.113	0.270
-704.587	-176.788	-0.202	0.005
-703.572	-56.379	-0.081	-0.037
-702.558	13.892	-0.092	0.073
-701.543	-70.736	0.214	-0.082
-700.529	14.352	0.083	-0.066
-699.514	423.037	0.125	-0.274
-698.499	-60.823	-0.284	-0.122
-697.485	800.000	-0.016	0.069
-696.470	-200.000	0.016	-0.240
-695.456	-81.917	-0.239	-0.079
-694.441	-200.000	0.007	0.166
-693.426	-78.164	-0.152	-0.053
-692.412	-66.457	0.170	-0.069
-691.397	-20.103	0.207	-0.130
-690.383	-111.112	0.030	-0.006
-689.368	32.698	0.381	-0.335
-688.354	19.013	-0.353	-0.288
-687.339	-200.000	0.002	-0.213
-686.324	-108.096	-0.150	0.033
-685.310	-100.673	0.203	0.051
-684.295	-200.000	-0.017	-0.105
-683.281	58.628	0.149	0.149
-682.266	-124.732	-0.245	0.039
-681.251	-80.547	-0.283	-0.096
-680.237	72.638	-0.052	-0.055
-679.222	-189.513	0.220	-0.003
-678.208	15.380	-0.309	0.247
-677.193	458.828	0.075	-0.170
-676.178	-37.700	-0.189	0.102
-675.164	-117.844	-0.129	-0.024
-674.149	-127.066	-0.288	0.043
-673.135	135.179	0.122	-0.162
-672.120	-84.525	-0.108	0.035
-671.105	-93.435	0.139	-0.039
-670.091	-120.465	-0.104	0.018
-669.076	253.485	-0.179	0.312
-668.062	216.166	0.068	-0.110
-667.047	9.668	-0.162	0.125
-666.032	-61.220	0.358	-0.153
-665.018	-144.353	-0.120	-0.011
-664.003	-6.478	0.336	-0.233
-662.989	-200.000	0.044	0.321
-661.974	800.000	-0.032	0.114
-660.959	800.000	-0.055	0.201
-659.945	102.351	0.105	0.125
-658.930	556.039	-0.050	-0.122
-657.916	-111.696	-0.101	0.021
-656.901	404.802	-0.090	-0.192
-655.886	-200.000	-0.039	-0.265
-654.872	-200.000	0.054	-0.395
-653.857	800.000	0.053	-0.227
-652.843	-122.505	-0.446	-0.074
-651.828	-18.697	0.164	0.104
-650.814	800.000	0.014	0.047
-649.799	-105.239	0.081	0.019
-648.784	33.931	0.102	-0.090
-647.770	-200.000	-0.034	-0.238
-646.755	-88.949	-0.070	0.021
-645.741	80.980	-0.172	-0.188
-644.726	-81.858	0.127	-0.042
-643.711	-58.528	0.207	0.091
-642.697	135.136	-0.027	0.036
-641.682	-4.001	0.174	-0.122
-640.668	-108.609	-0.038	0.008
-639.653	21.951	0.123	0.102
-638.638	-30.576	0.133	-0.076
-637.624	-101.786	0.272	-0.067
-636.609	45.537	0.210	0.197
-635.595	249.946	0.063	0.108
-634.580	-43.946	0.102	-0.052
-633.565	271.189	0.181	-0.324
-632.551	-98.613	-0.047	-0.012
-631.536	188.159	0.109	-0.165
-630.522	-88.827	0.342	0.103
-629.507	-200.000	-0.022	-0.261
-628.492	72.367	0.228	0.242
-627.478	219.730	-0.173	-0.282
-626.463	-5.439	-0.122	0.085
-625.449	-138.487	0.347	-0.039
-624.434	56.186	-0.092	-0.091
-623.419	-146.380	-0.165	-0.015
-622.405	-148.461	0.140	-0.012
-621.390	229.423	-0.139	-0.231
-620.376	-24.655	-0.150	-0.090
-619.361	800.000	0.014	-0.045
-618.346	-200.000	-0.020	-0.458
-617.332	800.000	-0.074	-0.276
-616.317	-143.421	-0.229	-0.022
-615.303	-200.000	0.031	0.157
-614.288	453.399	-0.080	-0.179
-613.273	184.191	-0.147	-0.221
-612.259	32.646	0.058	-0.051
-611.244	800.000	-0.070	-0.228
-610.230	441.880	-0.050	0.112
-609.215	-162.817	-0.273	-0.013
-608.201	-70.996	0.161	0.061
-607.186	-118.979	-0.216	-0.038
-606.171	-87.972	0.240	0.073
-605.157	193.927	-0.037	0.056
-604.142	-86.105	-0.363	0.114
-603.128	291.059	0.030	-0.055
-602.113	800.000	0.126	0.383
-601.098	-19.053	-0.279	0.176
-600.084	97.513	0.189	0.220
-599.069	145.316	-0.142	0.192
-598.055	-50.580	-0.113	0.054
-597.040	-200.000	0.015	-0.142
-596.025	-13.714	0.339	0.222
-595.011	-37.704	0.199	0.108
-593.996	-165.429	-0.032	-0.001
-592.982	67.976	-0.063	0.065
-591.967	-43.866	-0.152	0.077
-590.952	67.347	0.214	-0.222
-589.938	-184.071	-0.329	0.006
-588.923	-80.636	-0.249	0.084
-587.909	-20.565	-0.152	-0.095
-586.894	48.750	-0.197	-0.188
-585.879	-200.000	-0.010	-0.206
-584.865	-200.000	0.004	-0.393
-583.850	291.136	-0.016	-0.030
-582.836	13.527	0.087	0.069
-581.821	-200.000	0.059	-0.291
-580.806	-95.640	-0.201	-0.055
-579.792	290.442	0.102	0.188
-578.777	-200.000	-0.040	0.404
-577.763	2.939	0.398	-0.292
-576.748	-200.000	0.007	0.207
-575.733	-171.921	-0.241	0.008
-574.719	111.169	-0.095	-0.115
-573.704	-89.859	-0.070	0.021
-572.690	131.160	-0.103	0.133
-571.675	-164.291	0.085	0.004
-570.661	-200.000	0.001	-0.101
-569.646	65.933	0.159	-0.163
-568.631	800.000	0.028	-0.099
-567.617	800.000	-0.041	0.123
-566.602	-200.000	0.034	0.333
-565.588	216.217	0.183	0.295
-564.573	-52.819	-0.205	0.096
-563.558	-200.000	-0.029	-0.142
-562.544	25.422	0.196	-0.165
-561.529	-200.000	0.034	-0.357
-560.515	-200.000	0.008	-0.204
-559.500	22.890	-0.101	-0.084
-558.485	-200.000	-0.003	0.328
-557.471	-200.000	-0.009	0.097
-556.456	-200.000	0.002	0.351
-555.442	-37.940	0.181	-0.098
-554.427	-126.646	0.305	0.046
-553.412	-120.000	-0.236	-0.041
-552.398	-200.000	-0.005	-0.117
-551.383	800.000	0.055	0.157
-550.369	11.498	0.049	-0.038
-549.354	35.833	0.116	-0.103
-548.339	800.000	-0.102	0.304
-547.325	76.415	-0.120	-0.128
-546.310	143.267	0.010	0.014
-545.296	-94.423	0.080	0.022
-544.281	60.883	-0.275	0.276
-543.266	-132.485	0.230	-0.030
-542.252	-85.957	0.060	0.019
-541.237	-167.245	-0.213	-0.009
-540.223	498.254	0.117	-0.273
-539.208	39.353	-0.150	-0.136
-538.193	-137.667	0.036	-0.004
-537.179	504.387	-0.085	-0.199
-536.164	-13.149	-0.245	-0.161
-535.150	622.166	0.044	-0.112
-534.135	111.992	-0.180	-0.220
-533.121	86.079	-0.219	-0.244
-532.106	574.459	0.150	-0.371
-531.091	-64.348	-0.205	0.084
-530.077	42.920	0.028	-0.026
-529.062	6.604	0.291	-0.219
-528.048	51.066	0.048	0.046
-527.033	68.300	0.245	0.253
-526.018	800.000	0.058	-0.225
-525.004	-154.869	-0.368	0.025
-523.989	-200.000	-0.014	-0.251
-522.975	-67.111	0.090	-0.036
-521.960	-66.309	0.350	0.141
-520.945	0.023	0.194	0.140
-519.931	-79.781	0.050	-0.017
-518.916	-156.472	0.334	-0.021
-517.902	66.065	-0.048	-0.049
-516.887	-70.335	0.098	-0.038
-515.872	81.110	-0.073	0.079
-514.858	311.020	-0.014	-0.027
-513.843	800.000	-0.017	-0.049
-512.829	-108.381	0.189	-0.041
-511.814	-80.936	0.273	-0.091
-510.799	-83.556	-0.127	-0.041
-509.785	402.059	-0.131	-0.279
-508.770	-113.641	-0.031	-0.006
-507.756	-80.807	0.206	-0.069
-506.741	-33.591	0.269	-0.150
-505.726	800.000	0.106	-0.367
-504.712	33.447	0.128	0.113
-503.697	-137.267	0.097	-0.011
-502.683	-173.445	0.256	-0.008
-501.668	800.000	-0.064	0.226
-500.653	-105.210	-0.232	-0.053
-499.639	287.179	0.082	-0.149
-498.624	-125.329	-0.049	0.008
-497.610	800.000	0.069	0.247
-496.595	302.699	-0.082	-0.154
-495.581	542.187	0.100	-0.241
-494.566	94.627	0.038	-0.044
-493.551	581.580	-0.142	0.353
-492.537	138.114	0.249	-0.329
-491.522	-111.100	0.312	0.065
-490.508	-79.283	-0.288	-0.098
-489.493	24.360	0.160	-0.134
-488.478	800.000	0.079	-0.288
-487.464	454.848	0.154	0.344
-486.449	105.677	0.279	0.332
-485.435	800.000	-0.094	0.337
-484.420	-61.871	-0.212	0.090
-483.405	800.000	-0.092	0.350
-482.391	-147.227	-0.136	-0.012
-481.376	156.598	0.124	-0.173
-480.362	-99.205	-0.201	-0.051
-479.347	20.560	-0.198	0.161
-478.332	-72.066	0.113	0.042
-477.318	404.288	-0.086	-0.183
-476.303	-41.610	0.206	0.107
-475.289	800.000	0.061	-0.178
-474.274	-200.000	-0.051	-0.330
-473.259	-200.000	0.002	-0.183
-472.245	-200.000	-0.005	0.057
-471.230	-126.560	-0.188	-0.028
-470.216	800.000	0.170	0.660
-469.201	800.000	0.105	-0.300
-468.186	-174.292	0.191	0.006
-467.172	602.712	0.173	0.434
-466.157	-200.000	0.016	-0.307
-465.143	-168.773	-0.442	0.017
-464.128	29.938	0.204	-0.176
-463.113	538.003	0.035	0.085
-462.099	-181.392	-0.251	-0.005
-461.084	338.033	0.114	-0.223
-460.070	-3.218	-0.217	0.152
-459.055	20.952	-0.144	0.117
-458.040	27.710	-0.022	0.018
-457.026	-108.603	-0.215	-0.046
-456.011	2.314	0.225	-0.164
-454.997	-200.000	0.027	0.141
-453.982	-200.000	-0.003	-0.135
-452.968	-8.638	-0.047	0.032
-451.953	-153.118	0.075	0.005
-450.938	46.971	0.100	0.094
-449.924	-96.230	0.093	0.025
-448.909	-105.623	-0.102	-0.023
-447.895	-51.096	-0.412	0.195
-446.880	-19.454	0.266	0.166
-445.865	686.541	0.158	-0.417
-444.851	-135.363	0.255	0.031
-443.836	-87.538	-0.215	-0.065
-442.822	238.286	0.089	0.149
-441.807	-188.138	0.479	-0.006
-440.792	-97.938	0.114	-0.030
-439.778	-39.818	-0.227	-0.119
-438.763	-200.000	0.049	-0.229
-437.749	-94.871	-0.252	-0.069
-436.734	-141.193	0.231	-0.024
-435.719	268.790	-0.088	0.155
-434.705	-200.000	0.080	-0.364
-433.690	-75.832	-0.098	0.035
-432.676	800.000	-0.026	-0.095
-431.661	800.000	-0.054	-0.190
-430.646	-33.184	-0.243	-0.136
-429.632	-93.314	-0.179	-0.050
-428.617	102.798	-0.058	-0.069
-427.603	172.778	0.020	-0.030
-426.588	-104.464	-0.343	0.080
-425.573	-172.766	-0.442	-0.014
-424.559	-61.761	-0.111	-0.047
-423.544	21.023	0.032	-0.027
-422.530	-49.815	-0.099	-0.047
-421.515	65.768	-0.154	-0.157
-420.500	-29.744	-0.145	-0.083
-419.486	-139.963	-0.161	0.017
-418.471	-20.786	-0.364	-0.225
-417.457	-137.112	-0.248	-0.028
-416.442	107.616	0.188	-0.226
-415.428	282.014	0.143	-0.259
-414.413	98.159	-0.116	0.135
-413.398	-200.000	-0.048	0.216
-412.384	-200.000	0.031	-0.254
-411.369	-200.000	0.029	0.184
-410.355	-107.040	0.374	-0.083
-409.340	-200.000	0.008	-0.049
-408.325	234.956	-0.051	-0.085
-407.311	-96.784	0.137	-0.036
-406.296	-132.411	0.074	-0.010
-405.282	120.863	-0.153	-0.191
-404.267	-48.936	-0.125	0.061
-403.252	-200.000	0.008	-0.139
-402.238	-200.000	-0.040	0.295
-401.223	770.779	-0.066	-0.182
-400.209	800.000	-0.021	-0.070
-399.194	127.458	-0.072	-0.092
-398.179	21.709	-0.324	-0.266
-397.165	-200.000	0.041	-0.220
-396.150	455.335	0.137	0.305
-395.136	303.411	-0.171	0.318
-394.121	-8.729	-0.309	0.208
-393.106	-112.076	0.247	-0.050
-392.092	534.875	0.034	0.081
-391.077	-24.798	0.341	-0.204
-390.063	105.366	-0.330	-0.392
-389.048	8.418	-0.239	0.181
-388.033	-200.000	0.050	0.309
-387.019	-70.852	0.133	-0.050
-386.004	-117.794	0.164	-0.030
-384.990	440.196	-0.049	0.109
-383.975	347.139	0.023	-0.045
-382.960	73.065	0.272	0.286
-381.946	-200.000	0.036	0.233
-380.931	-34.112	-0.176	0.097
-379.917	-200.000	-0.040	-0.242
-378.902	-83.992	-0.346	-0.111
-377.888	-102.176	0.141	-0.034
-376.873	-200.000	-0.043	0.265
-375.858	-72.193	0.183	0.068
-374.844	-50.265	-0.136	-0.065
-373.829	-54.630	0.190	-0.086
-372.815	28.179	0.271	0.230
-371.800	80.994	0.052	0.057
-370.785	678.451	-0.034	-0.088
-369.771	253.276	-0.108	0.184
-368.756	-122.574	-0.276	0.045
-367.742	33.560	-0.182	-0.159
-366.727	-200.000	0.018	0.153
-365.712	675.426	0.039	0.101
-364.698	800.000	0.032	0.140
-363.683	-28.015	0.086	0.050
-362.669	-85.254	-0.165	0.052
-361.654	-200.000	-0.003	0.032
-360.639	800.000	-0.048	0.184
-359.625	-10.120	0.151	0.100
-358.610	123.201	-0.183	0.231
-357.596	-141.000	0.321	0.033
-356.581	-71.888	0.149	0.056
-355.566	800.000	-0.117	0.394
-354.552	-171.257	0.169	-0.006
-353.537	-57.263	0.085	-0.038
-352.523	-61.090	-0.206	0.087
-351.508	636.758	0.155	0.395
-350.493	154.064	-0.141	-0.194
-349.479	800.000	0.060	-0.189
-348.464	173.917	-0.095	0.138
-347.450	80.824	0.211	0.229
-346.435	111.168	-0.175	0.211
-345.420	37.158	0.051	0.045
-344.406	28.964	-0.032	-0.027
-343.391	365.600	-0.116	-0.235
-342.377	800.000	0.044	-0.168
-341.362	-200.000	-0.002	0.184
-340.348	800.000	0.058	-0.183
-339.333	784.754	0.142	0.391
-338.318	-200.000	-0.012	0.125
-337.304	-138.380	-0.192	0.021
-336.289	-74.938	-0.073	0.026
-335.275	-18.909	0.138	0.086
-334.260	481.461	0.018	0.042
-333.245	-200.000	-0.035	0.157
-332.231	-178.778	0.042	-0.001
-331.216	-123.055	-0.323	-0.052
-330.202	62.560	-0.287	-0.287
-329.187	559.478	0.080	0.195
-328.172	100.861	0.183	0.213
-327.158	-149.549	0.341	0.027
-326.143	-9.454	-0.010	0.007
-325.129	-30.633	-0.109	-0.062
-324.114	-131.773	-0.421	0.055
-323.099	-47.994	-0.039	-0.019
-322.085	-79.099	0.402	0.137
-321.070	122.782	0.139	0.174
-320.056	138.982	-0.090	0.118
-319.041	-33.753	0.055	0.030
-318.026	27.420	0.122	-0.103
-317.012	800.000	-0.027	0.089
-315.997	-200.000	0.056	0.263
-314.983	-88.580	0.243	0.073
-313.968	9.637	-0.202	0.154
-312.953	37.328	-0.190	-0.169
-311.939	-138.055	0.208	0.023
-310.924	12.425	0.056	0.043
-309.910	-71.323	-0.175	0.066
-308.895	800.000	-0.052	-0.204
-307.880	-200.000	-0.027	-0.231
-306.866	-102.081	0.095	0.023
-305.851	490.820	0.061	-0.140
-304.837	-149.054	-0.094	0.008
-303.822	-127.856	0.055	0.008
-302.807	218.298	-0.159	0.254
-301.793	-62.457	-0.405	-0.169
-300.778	800.000	-0.074	0.244
-299.764	-41.379	0.551	-0.284
-298.749	-121.030	0.123	0.021
-297.735	142.602	-0.047	-0.062
-296.720	-127.380	0.172	0.025
-295.705	-99.086	-0.312	0.079
-294.691	-10.369	0.177	0.117
-293.676	-181.376	0.162	-0.003
-292.662	495.058	-0.134	-0.308
-291.647	29.562	0.114	-0.097
-290.632	-200.000	-0.001	-0.012
-289.618	114.474	0.096	0.117
-288.603	67.870	0.186	-0.190
-287.589	-44.902	0.131	0.065
-286.574	23.564	-0.376	0.310
-285.559	-35.081	0.103	-0.056
-284.545	143.460	-0.056	-0.074
-283.530	156.299	0.110	-0.153
-282.516	-170.816	0.152	0.005
-281.501	-48.403	0.306	0.147
-280.486	-200.000	0.042	0.192
-279.472	-107.613	-0.097	-0.021
-278.457	800.000	-0.060	0.264
-277.443	-75.981	-0.164	0.058
-276.428	800.000	-0.059	-0.168
-275.413	20.078	0.126	-0.102
-274.399	181.895	0.109	-0.160
-273.384	728.932	-0.023	-0.061
-272.370	6.070	0.198	0.147
-271.355	-24.556	0.133	0.079
-270.340	-120.402	-0.139	-0.024
-269.326	-200.000	0.053	0.300
-268.311	-108.161	-0.426	-0.092
-267.297	407.470	0.163	0.344
-266.282	-78.168	0.202	0.070
-265.267	-200.000	0.053	0.314
-264.253	175.731	0.241	-0.350
-263.238	-132.162	-0.305	0.040
-262.224	-200.000	-0.003	-0.190
-261.209	-165.627	0.080	-0.003
-260.195	-118.892	0.190	0.033
-259.180	-4.602	0.250	0.173
-258.165	159.196	-0.141	-0.197
-257.151	800.000	-0.169	-0.467
-256.136	191.093	-0.141	-0.213
-255.122	61.102	0.222	0.221
-254.107	7.030	0.156	0.116
-253.092	72.924	-0.086	-0.090
-252.078	44.839	-0.233	-0.215
-251.063	-84.189	0.276	0.087
-250.049	-200.000	-0.004	0.148
-249.034	317.160	0.043	0.081
-248.019	2.809	0.184	0.134
-247.005	-200.000	-0.043	0.348
-245.990	-191.248	0.249	0.003
-244.976	-54.351	-0.167	-0.076
-243.961	14.289	0.122	0.095
-242.946	61.096	-0.245	-0.243
-241.932	117.412	0.179	-0.221
-240.917	-74.889	-0.183	0.065
-239.903	800.000	-0.015	-0.042
-238.888	-29.644	-0.230	0.131
-237.873	-200.000	0.041	0.224
-236.859	454.922	0.099	-0.220
-235.844	-125.112	-0.085	-0.013
-234.830	20.161	-0.088	-0.071
-233.815	362.675	-0.024	0.049
-232.800	-73.722	0.156	-0.057
-231.786	158.952	-0.045	0.062
-230.771	23.261	-0.119	-0.097
-229.757	-93.689	0.154	-0.042
-228.742	-200.000	-0.010	-0.281
-227.727	800.000	-0.106	-0.404
-226.713	453.302	0.163	-0.360
-225.698	15.790	0.191	-0.150
-224.684	-26.153	-0.076	0.045
-223.669	-200.000	-0.087	0.496
-222.655	-64.677	-0.251	-0.102
-221.640	124.494	0.051	0.065
-220.625	293.590	0.158	0.288
-219.611	-200.000	0.008	0.169
-218.596	800.000	-0.045	-0.188
-217.582	-48.825	-0.075	0.036
-216.567	-124.474	-0.118	-0.018
-215.552	-16.244	-0.388	-0.246
-214.538	75.093	-0.212	-0.223
-213.523	-170.564	0.046	-0.002
-212.509	51.817	0.366	0.348
-211.494	-71.791	0.194	-0.072
-210.479	-135.942	0.074	-0.009
-209.465	-120.753	-0.118	-0.020
-208.450	-35.250	0.247	0.134
-207.436	-142.247	0.249	-0.025
-206.421	81.309	0.135	-0.146
-205.406	-148.120	-0.042	0.003
-204.392	690.290	-0.065	0.169
-203.377	387.509	-0.037	0.077
-202.363	67.806	-0.094	0.096
-201.348	-200.000	-0.013	0.153
-200.333	56.042	0.019	0.019
-199.319	353.350	-0.077	0.153
-198.304	-200.000	0.023	0.105
-197.290	-15.442	0.165	-0.105
-196.275	389.919	0.207	0.428
-195.260	800.000	0.048	0.146
-194.246	104.751	-0.158	-0.186
-193.231	59.022	-0.116	0.114
-192.217	800.000	0.065	0.227
-191.202	-200.000	0.040	0.191
-190.187	-51.848	0.093	-0.043
-189.173	-200.000	-0.003	0.129
-188.158	-81.256	-0.073	-0.024
-187.144	-97.159	-0.244	0.064
-186.129	6.956	0.254	0.189
-185.114	-109.430	-0.217	0.046
-184.100	322.644	0.107	0.203
-183.085	415.382	-0.040	0.085
-182.071	-44.708	-0.126	0.063
-181.056	-149.474	-0.308	-0.024
-180.042	-152.046	-0.236	0.017
-179.027	80.598	0.047	0.051
-178.012	-145.316	-0.199	0.018
-176.998	800.000	-0.047	0.194
-175.983	-200.000	0.006	-0.138
-174.969	-2.604	-0.256	-0.179
-173.954	-106.122	0.154	0.034
-172.939	-200.000	0.015	0.324
-171.925	-200.000	-0.014	0.234
-170.910	67.138	-0.214	0.218
-169.896	-200.000	-0.046	-0.240
-168.881	164.968	0.193	-0.272
-167.866	46.810	-0.075	-0.069
-166.852	-99.052	-0.123	-0.031
-165.837	-200.000	0.050	-0.227
-164.823	327.401	-0.112	-0.213
-163.808	800.000	-0.130	-0.376
-162.793	-200.000	0.052	-0.244
-161.779	-179.888	0.226	-0.005
-160.764	238.903	-0.161	-0.267
-159.750	449.725	0.061	0.134
-158.735	-200.000	0.006	-0.094
-157.720	-135.615	-0.332	0.039
-156.706	116.060	-0.189	0.231
-155.691	-200.000	-0.036	0.287
-154.677	-200.000	0.028	0.304
-153.662	37.207	0.134	0.118
-152.647	197.902	0.076	0.115
-151.633	32.777	-0.201	0.173
-150.618	-200.000	0.019	-0.198
-149.604	-67.320	0.157	-0.061
-148.589	-200.000	-0.005	0.056
-147.574	-108.606	0.322	0.069
-146.560	464.105	-0.069	-0.154
-145.545	117.422	0.065	-0.080
-144.531	800.000	0.072	0.253
-143.516	-200.000	-0.039	0.182
-142.502	-200.000	0.042	-0.220
-141.487	800.000	-0.043	-0.161
-140.472	-200.000	0.041	-0.330
-139.458	-105.466	0.518	0.117
-138.443	-200.000	0.001	0.196
-137.429	-200.000	0.001	-0.070
-136.414	-124.132	-0.036	0.006
-135.399	35.493	0.269	-0.235
-134.385	185.893	0.287	0.425
-133.370	-101.644	0.136	0.033
-132.356	-200.000	-0.018	0.382
-131.341	19.243	0.218	0.175
-130.326	800.000	0.124	-0.461
-129.312	-79.828	-0.350	-0.117
-128.297	-129.107	-0.122	0.017
-127.283	-133.611	-0.097	0.012
-126.268	-70.301	-0.322	0.122
-125.253	-17.986	0.330	0.206
-124.239	-200.000	0.020	-0.301
-123.224	562.134	-0.061	-0.147
-122.210	-19.604	-0.209	0.129
-121.195	-200.000	-0.003	-0.142
-120.180	800.000	0.033	0.122
-119.166	-50.003	0.604	-0.285
-118.151	-200.000	0.003	-0.134
-117.137	311.848	-0.080	0.149
-116.122	344.319	0.034	-0.067
-115.107	389.105	-0.146	0.301
-114.093	-200.000	0.001	0.185
-113.078	-90.183	0.077	-0.022
-112.064	25.133	-0.112	-0.092
-111.049	-200.000	0.013	0.319
-110.034	102.098	0.175	0.203
-109.020	153.392	0.273	0.371
-108.005	-177.734	0.527	0.013
-106.991	2.712	-0.108	0.078
-105.976	-12.250	-0.069	0.045
-104.962	36.223	0.351	0.307
-103.947	239.823	0.160	0.265
-102.932	410.151	0.090	-0.190
-101.918	800.000	-0.020	0.078
-100.903	248.554	0.026	0.044
-99.889	-200.000	-0.059	-0.359
-98.874	-200.000	0.001	0.158
-97.859	69.390	0.085	-0.087
-96.845	44.712	0.207	-0.189
-95.830	326.855	0.206	0.393
-94.816	73.416	0.029	0.030
-93.801	-121.967	-0.264	0.043
-92.786	-200.000	-0.011	-0.078
-91.772	49.115	0.212	0.198
-90.757	-67.390	0.143	-0.056
-89.743	-40.096	0.198	0.103
-88.728	-112.667	0.119	-0.024
-87.713	-200.000	-0.019	0.426
-86.699	-11.680	0.240	0.157
-85.684	-86.640	0.325	0.099
-84.670	235.056	0.148	0.242
-83.655	800.000	-0.107	0.368
-82.640	-55.406	-0.201	0.090
-81.626	222.894	-0.106	-0.170
-80.611	800.000	-0.120	0.338
-79.597	-45.891	0.254	-0.124
-78.582	79.752	-0.013	0.014
-77.567	-200.000	0.058	0.266
-76.553	124.246	0.204	0.254
-75.538	28.072	-0.099	-0.083
-74.524	39.771	0.202	-0.180
-73.509	81.912	-0.099	0.107
-72.494	-117.977	-0.226	0.040
-71.480	-42.344	0.181	0.092
-70.465	531.646	-0.074	0.174
-69.451	-200.000	-0.042	0.209
-68.436	24.667	0.212	0.175
-67.422	180.010	-0.141	-0.205
-66.407	-200.000	-0.006	-0.189
-65.392	-200.000	-0.088	0.432
-64.378	2.386	-0.157	0.113
-63.363	12.020	-0.183	-0.139
-62.349	-94.382	0.266	0.072
-61.334	25.552	-0.791	-0.653
-60.319	-200.000	0.053	0.519
-59.305	673.685	-0.392	-1.010
-58.290	549.685	0.459	1.093
-57.276	545.485	0.627	1.486
-56.261	-200.000	90.372	503.484
-55.246	540.934	1370.254	3239.553
-54.232	184.399	2608.631	3835.321
-53.217	115.087	2216.446	2684.980
-52.203	46.531	1663.782	1532.228
-51.188	38.933	1394.803	1236.835
-50.173	35.803	1350.850	1178.668
-49.159	55.276	1396.522	1340.215
-48.144	59.129	1415.102	1381.991
-47.130	39.415	1371.796	1219.224
-46.115	35.806	1353.587	1180.886
-45.100	35.625	1349.186	1175.897
-44.086	35.538	1346.572	1173.036
-43.071	35.531	1344.222	1170.900
-42.057	35.424	1342.228	1168.467
-41.042	35.391	1340.654	1166.847
-40.027	35.513	1338.757	1165.891
-39.013	35.513	1337.196	1164.486
-37.998	35.556	1334.792	1162.609
-36.984	35.522	1333.291	1161.046
-35.969	35.539	1331.494	1159.541
-34.954	35.760	1329.201	1158.830
-33.940	35.778	1327.960	1157.813
-32.925	35.705	1326.799	1156.314
-31.911	35.875	1324.899	1155.632
-30.896	35.731	1323.433	1153.443
-29.881	35.694	1322.655	1152.499
-28.867	35.852	1320.553	1151.566
-27.852	35.794	1318.991	1149.809
-26.838	35.699	1317.808	1148.168
-25.823	35.722	1316.546	1147.161
-24.809	35.641	1315.201	1145.458
-23.794	35.798	1313.354	1144.741
-22.779	35.718	1311.919	1142.968
-21.765	35.728	1310.721	1141.939
-20.750	35.710	1309.475	1140.703
-19.736	35.665	1307.989	1139.097
-18.721	35.597	1306.489	1137.342
-17.706	35.597	1305.859	1136.745
-16.692	35.555	1304.649	1135.399
-15.677	35.560	1303.373	1134.275
-14.663	35.479	1302.445	1132.944
-13.648	35.523	1301.013	1131.915
-12.633	35.530	1299.838	1130.885
-11.619	35.433	1299.481	1129.959
-10.604	35.587	1298.035	1129.565
-9.590	35.475	1297.504	1128.398
-8.575	35.508	1296.315	1127.512
-7.560	35.563	1295.608	1127.174
-6.546	35.467	1295.131	1126.153
-5.531	35.618	1293.739	1125.782
-4.517	35.635	1292.822	1125.038
-3.502	35.568	1292.229	1124.085
-2.487	35.542	1290.968	1122.793
-1.473	35.655	1286.995	1119.953
-0.458	34.701	1272.275	1101.597
0.556	29.832	1254.163	1065.021
1.571	26.626	1258.725	1050.240
2.586	25.714	1273.658	1057.250
3.600	24.597	1261.611	1040.656
4.615	16.935	1183.224	933.883
5.629	5.364	1101.071	809.354
6.644	0.413	1078.469	767.520
7.659	0.089	1075.807	763.911
8.673	0.009	1074.792	762.718
9.688	-0.030	1073.173	761.303
10.702	0.388	1072.090	762.584
11.717	7.530	1082.718	806.453
12.731	17.739	1097.655	869.837
13.746	21.688	1101.647	893.098
14.761	22.021	1102.294	895.241
15.775	21.964	1101.644	894.343
16.790	21.795	1100.579	892.538
17.804	21.615	1100.298	891.318
18.819	21.832	1099.689	891.846
19.834	21.846	1099.461	891.656
20.848	21.840	1098.998	891.171
21.863	21.822	1098.321	890.453
22.877	21.726	1097.883	889.532
23.892	21.726	1097.185	888.884
24.907	21.813	1096.100	888.370
25.921	21.808	1094.846	887.249
26.936	21.736	1093.714	885.892
27.950	21.817	1091.757	884.632
28.965	21.536	1090.201	881.880
29.980	21.641	1088.561	881.005
30.994	21.901	1087.358	881.257
32.009	21.946	1086.097	880.383
33.023	21.562	1085.319	877.750
34.038	21.705	1084.809	877.979
35.053	21.974	1083.844	878.465
36.067	21.845	1082.743	876.851
37.082	21.883	1082.365	876.656
38.096	22.044	1081.314	876.531
39.111	22.137	1080.405	876.182
40.126	21.938	1079.190	874.125
41.140	21.742	1076.988	871.291
42.155	21.490	1075.780	868.987
43.169	21.397	1075.156	867.941
44.184	21.693	1073.475	867.974
45.199	21.358	1072.954	865.817
46.213	21.471	1072.380	865.840
47.228	21.587	1071.483	865.609
48.242	21.685	1070.641	865.338
49.257	21.934	1069.076	865.224
50.271	21.882	1068.923	864.767
51.286	21.885	1068.151	864.080
52.301	22.052	1066.673	863.629
53.315	21.856	1066.083	862.111
54.330	21.763	1065.064	860.755
55.344	21.765	1063.999	859.830
56.359	21.776	1062.947	858.957
57.374	21.600	1062.362	857.548
58.388	21.655	1061.729	857.229
59.403	21.688	1060.529	856.346
60.417	21.334	1060.153	854.238
61.432	21.489	1059.209	854.156
62.447	21.537	1058.772	853.964
63.461	21.640	1057.846	853.642
64.476	21.650	1056.272	852.345
65.490	21.539	1055.602	851.188
66.505	21.668	1054.835	851.124
67.520	21.603	1054.260	850.265
68.534	21.430	1052.989	848.328
69.549	21.142	1051.459	845.623
70.563	21.159	1051.373	845.565
71.578	21.063	1050.503	844.325
72.593	20.984	1049.274	842.881
73.607	21.034	1049.281	843.055
74.622	21.473	1048.106	844.152
75.636	21.508	1047.299	843.598
76.651	21.230	1046.921	841.878
77.666	21.214	1046.247	841.184
78.680	21.282	1045.558	840.886
79.695	21.316	1045.113	840.613
80.709	21.502	1043.749	840.335
81.724	21.398	1043.291	839.397
82.739	21.525	1042.318	839.147
83.753	21.804	1041.771	839.970
84.768	22.066	1040.740	840.317
85.782	22.146	1040.094	840.105
86.797	22.108	1039.095	839.039
87.812	22.001	1038.070	837.626
88.826	22.049	1037.277	837.144
89.841	22.090	1036.384	836.544
90.855	22.179	1035.165	835.907
91.870	22.036	1034.543	834.652
92.884	22.018	1032.743	833.044
93.899	21.916	1031.948	831.844
94.914	22.102	1031.313	832.136
95.928	21.775	1030.540	829.893
96.943	21.680	1029.109	828.216
97.957	21.530	1027.463	826.112
98.972	21.249	1026.409	823.867
99.987	21.412	1026.446	824.592
101.001	21.693	1025.482	825.069
102.016	21.801	1024.373	824.614
103.030	21.617	1023.341	822.842
104.045	21.570	1022.324	821.732
105.060	21.262	1021.667	819.688
106.074	21.490	1020.685	819.896
107.089	21.982	1020.276	821.798
108.103	21.810	1019.182	820.040
109.118	21.530	1018.116	817.800
110.133	21.600	1017.201	817.322
111.147	21.321	1015.949	814.939
112.162	21.337	1014.085	813.450
113.176	21.541	1013.902	814.178
114.191	21.289	1013.413	812.542
115.206	21.192	1011.741	810.678
116.220	21.159	1010.968	809.837
117.235	21.271	1010.201	809.668
118.249	21.298	1009.453	809.123
119.264	21.166	1008.711	807.845
120.279	21.229	1007.896	807.412
121.293	21.293	1006.811	806.768
122.308	21.262	1006.035	805.930
123.322	21.104	1005.139	804.412
124.337	21.091	1003.468	802.944
125.352	20.820	1001.268	799.867
126.366	20.523	1000.809	798.067
127.381	21.264	1000.611	801.242
128.395	21.822	999.905	803.158
129.410	21.827	998.635	802.091
130.424	21.855	997.707	801.404
131.439	21.833	996.874	800.563
132.454	21.663	996.217	799.188
133.468	21.800	995.176	798.907
134.483	21.833	994.811	798.695
135.497	22.061	993.998	799.011
136.512	21.912	993.652	797.980
137.527	21.937	992.351	796.982
138.541	22.052	991.659	796.876
139.556	22.086	990.726	796.211
140.570	22.135	989.527	795.396
141.585	22.179	988.054	794.343
142.600	22.040	987.611	793.286
143.614	22.138	987.201	793.331
144.629	22.260	986.104	792.928
145.643	22.183	984.567	791.278
146.658	22.005	983.494	789.545
147.673	21.866	982.614	788.141
148.687	21.899	981.420	787.265
149.702	21.859	980.545	786.311
150.716	21.733	979.522	784.859
151.731	21.780	979.237	784.771
152.746	22.032	978.928	785.579
153.760	22.083	978.233	785.182
154.775	22.230	977.256	784.987
155.789	22.103	976.457	783.705
156.804	22.124	975.065	782.613
157.819	22.136	974.899	782.466
158.833	22.294	973.935	782.326
159.848	22.306	972.924	781.498
160.862	22.217	971.317	779.743
161.877	22.224	970.502	779.050
162.892	22.167	969.925	778.265
163.906	22.191	968.447	777.116
164.921	22.064	967.690	775.880
165.935	22.133	966.935	775.508
166.950	22.066	966.143	774.511
167.964	22.213	964.926	774.114
168.979	22.018	964.162	772.577
169.994	21.921	963.209	771.318
171.008	22.123	962.515	771.578
172.023	22.329	961.241	771.396
173.037	21.936	960.764	769.220
174.052	21.941	959.535	768.191
175.067	21.953	958.657	767.472
176.081	21.978	958.330	767.252
177.096	21.942	957.806	766.606
178.110	21.566	956.848	764.132
179.125	21.501	956.049	763.140
180.140	21.614	955.560	763.174
181.154	21.818	954.848	763.428
182.169	21.890	955.667	764.330
183.183	22.163	954.631	764.619
184.198	22.132	953.368	763.407
185.213	21.993	952.913	762.371
186.227	22.149	951.958	762.215
187.242	22.227	951.502	762.123
188.256	22.305	950.790	761.821
189.271	22.332	950.011	761.246
190.286	21.980	948.872	758.746
191.300	21.311	947.813	754.941
192.315	20.600	946.070	750.420
193.329	20.654	945.163	749.867
194.344	21.385	946.264	753.829
195.359	22.013	945.688	756.007
196.373	22.076	945.529	756.087
197.388	22.025	944.673	755.113
198.402	21.841	944.019	753.736
199.417	22.039	943.359	753.992
200.432	21.861	941.864	751.965
201.446	21.612	941.615	750.632
202.461	21.775	940.948	750.731
203.475	20.769	939.347	745.087
204.490	20.131	937.535	740.855
205.504	21.045	938.217	745.238
206.519	21.685	937.880	747.634
207.534	21.684	937.498	747.263
208.548	22.163	937.102	748.923
209.563	21.880	936.139	746.879
210.577	21.933	935.412	746.461
211.592	22.247	935.392	747.713
212.607	22.323	934.152	746.979
213.621	22.303	933.914	746.637
214.636	22.274	933.228	745.900
215.650	22.140	932.716	744.857
216.665	22.296	931.827	744.744
217.680	22.215	930.600	743.351
218.694	21.761	929.754	740.694
219.709	21.723	929.101	739.945
220.723	22.036	928.481	740.707
221.738	21.964	927.967	739.927
222.753	22.019	927.369	739.620
223.767	22.054	927.259	739.614
224.782	22.314	926.578	740.098
225.796	22.113	926.575	739.183
226.811	21.736	924.591	735.954
227.826	20.945	922.997	731.303
228.840	21.189	922.796	732.101
229.855	21.237	921.794	731.441
230.869	20.937	920.761	729.303
231.884	21.394	920.716	731.116
232.899	22.096	920.911	734.138
233.913	22.055	919.888	733.088
234.928	22.001	919.837	732.759
235.942	21.856	918.972	731.397
236.957	21.536	918.320	729.481
237.972	21.749	917.309	729.501
238.986	21.725	917.011	729.100
240.001	21.734	916.218	728.442
241.015	21.854	915.423	728.241
242.030	22.033	915.162	728.714
243.045	22.182	914.195	728.498
244.059	22.145	914.139	728.235
245.074	22.043	912.784	726.667
246.088	21.699	912.173	724.694
247.103	22.078	911.383	725.570
248.117	22.484	911.711	727.445
249.132	22.718	911.152	727.897
250.147	22.718	911.017	727.725
251.161	22.921	910.226	727.868
252.176	22.814	909.689	726.931
253.190	22.991	909.056	727.091
254.205	23.141	908.628	727.299
255.220	23.033	907.722	726.068
256.234	22.785	906.944	724.362
257.249	22.721	906.009	723.291
258.263	22.909	905.338	723.461
259.278	22.993	904.608	723.157
260.293	22.990	904.165	722.727
261.307	22.827	903.605	721.547
262.322	22.677	902.747	720.187
263.336	21.868	900.722	715.209
264.351	20.717	899.060	709.139
265.366	20.924	898.702	709.638
266.380	22.118	899.187	714.817
267.395	22.554	899.100	716.460
268.409	22.409	898.519	715.346
269.424	22.697	897.769	715.852
270.439	22.674	896.902	715.006
271.453	22.809	896.468	715.142
272.468	22.882	896.404	715.324
273.482	22.933	895.654	714.869
274.497	22.517	894.498	712.201
275.512	22.320	893.300	710.389
276.526	22.731	893.516	712.158
277.541	22.787	892.955	711.875
278.555	22.475	892.037	709.820
279.570	22.481	891.199	709.115
280.585	22.616	890.369	708.936
281.599	22.637	889.729	708.447
282.614	21.905	888.729	704.651
283.628	21.985	888.100	704.409
284.643	22.367	887.626	705.502
285.657	21.910	886.766	702.925
286.672	21.691	885.729	701.167
287.687	22.343	885.615	703.621
288.701	22.255	885.407	703.044
289.716	22.103	884.199	701.416
290.730	21.923	883.624	700.180
291.745	21.662	882.416	698.120
292.760	22.086	882.575	699.875
293.774	22.842	883.347	703.437
294.789	23.257	882.645	704.469
295.803	23.190	882.227	703.802
296.818	23.216	881.680	703.410
297.833	22.843	880.220	700.703
298.847	22.661	879.535	699.371
299.862	23.022	879.049	700.353
300.876	23.319	878.763	701.242
301.891	23.275	878.075	700.456
302.906	22.756	877.050	697.523
303.920	22.900	876.746	697.789
304.935	23.182	876.582	698.714
305.949	23.172	876.163	698.276
306.964	22.824	875.278	696.136
307.979	22.917	874.757	696.026
308.993	23.390	874.403	697.549
310.008	23.400	873.724	696.985
311.022	23.135	872.800	695.141
312.037	23.098	872.238	694.489
313.052	22.677	871.609	692.275
314.066	21.934	869.719	687.799
315.081	21.619	868.985	685.924
316.095	22.452	869.379	689.439
317.110	22.860	869.611	691.161
318.125	22.086	867.558	686.444
319.139	21.273	865.676	681.724
320.154	21.207	865.718	681.436
321.168	21.936	866.478	684.821
322.183	22.627	866.548	687.511
323.197	22.748	866.425	687.825
324.212	22.992	865.734	688.167
325.227	22.985	865.040	687.527
326.241	22.819	864.805	686.633
327.256	22.840	863.966	685.986
328.270	22.790	863.134	685.071
329.285	22.627	862.467	683.851
330.300	22.306	861.439	681.730
331.314	22.604	861.178	682.617
332.329	22.985	861.254	684.091
333.343	23.161	860.550	684.155
334.358	23.096	860.344	683.680
335.373	23.151	860.292	683.788
336.387	23.624	859.500	684.925
337.402	23.586	859.658	684.844
338.416	23.479	859.279	684.068
339.431	23.589	858.592	683.884
340.446	23.621	858.801	684.112
341.460	23.581	857.986	683.251
342.475	23.305	857.478	681.723
343.489	23.394	857.252	681.825
344.504	23.753	856.887	682.856
345.519	23.971	856.177	683.064
346.533	24.009	855.689	682.763
347.548	23.932	855.495	682.250
348.562	23.867	854.388	681.060
349.577	23.863	853.951	680.635
350.592	23.748	853.856	680.058
351.606	23.896	852.557	679.531
352.621	23.746	851.561	678.103
353.635	23.713	851.058	677.518
354.650	22.964	849.548	673.401
355.665	22.078	847.868	668.640
356.679	22.439	847.738	669.850
357.694	22.849	847.442	671.115
358.708	22.749	847.097	670.405
359.723	23.216	846.959	672.010
360.738	23.532	846.611	672.872
361.752	23.654	845.831	672.654
362.767	23.831	845.807	673.247
363.781	24.074	845.599	673.942
364.796	24.208	844.921	673.849
365.810	24.312	843.823	673.304
366.825	24.263	843.860	673.091
367.840	23.884	843.190	671.066
368.854	23.633	842.141	669.226
369.869	23.470	842.049	668.481
370.883	23.621	841.549	668.593
371.898	23.448	841.064	667.496
372.913	23.550	840.587	667.442
373.927	23.818	840.196	668.082
374.942	23.826	839.936	667.845
375.956	23.834	839.312	667.318
376.971	24.173	838.526	667.907
377.986	24.065	838.453	667.384
379.000	24.142	837.443	666.811
380.015	24.052	837.155	666.186
381.029	24.021	836.649	665.606
382.044	24.245	835.984	665.855
383.059	24.189	835.427	665.145
384.073	24.168	835.209	664.835
385.088	24.336	834.364	664.728
386.102	24.097	833.455	663.056
387.117	23.877	832.754	661.622
388.132	23.662	831.568	659.819
389.146	23.158	830.941	657.392
390.161	23.405	831.182	658.443
391.175	23.842	830.926	659.804
392.190	23.585	829.606	657.745
393.205	22.150	827.731	650.891
394.219	20.738	825.741	644.046
395.234	20.877	825.423	644.256
396.248	22.452	826.936	651.211
397.263	23.799	827.737	656.765
398.278	23.868	827.356	656.659
399.292	23.480	826.781	654.712
400.307	23.669	826.171	654.868
401.321	23.626	825.794	654.353
402.336	23.950	826.161	655.782
403.350	24.294	825.962	656.832
404.365	24.597	825.620	657.619
405.380	24.865	825.123	658.151
406.394	24.908	824.641	657.866
407.409	24.884	823.894	657.124
408.423	24.781	823.718	656.546
409.438	24.843	823.386	656.452
410.453	25.038	822.713	656.570
411.467	24.709	822.317	654.992
412.482	24.790	822.249	655.175
413.496	24.930	821.612	655.121
414.511	24.817	821.341	654.436
415.526	25.027	820.744	654.668
416.540	24.722	819.945	652.859
417.555	24.449	819.454	651.417
418.569	24.583	819.152	651.607
419.584	24.588	818.290	650.881
420.599	24.367	817.865	649.683
421.613	151.223	1367.951	1788.862
422.628	131.565	1448.105	1788.965
