DTS Sentinel unit serial number:	SN413079Multiplexer serial number:	ORYXHardware model number:	OX4-SRSoftware version number:	ORYX F/W v4.00 Oryx Data Collector v3.7.2.0data status	okinstallation	princeton_trtdifferential loss correction	single-endedforward channel	channel 1reverse channel	N/Adate	2019/09/15time	13:18:35forward acquisition time	60.00reverse acquisition time	0.00gamma	496.2192k internal	0.2294k external	0.2294temperature offset calibration	0.9974default loss term (dB/km)	0.3790temperature slope calibration	1.0000multiplexer offset coefficient	1.0000multiplexer slope coefficient	1.0000fibre end	0.00T internal ref (°C)	37.20T ext. ref 1 (°C)	4.93T ext. ref 2 (°C)	34.55length (m)	temperature (°C)	Stokes	anti-Stokes-747.200	800.000	-0.015	0.064
-746.185	40.773	0.308	0.284
-745.171	-21.601	0.130	0.081
-744.156	-50.275	-0.115	-0.056
-743.142	97.521	0.244	-0.287
-742.127	-35.354	-0.127	-0.070
-741.112	-200.000	0.001	-0.288
-740.098	170.012	0.160	0.234
-739.083	221.163	0.201	-0.330
-738.069	800.000	-0.029	-0.127
-737.054	98.245	0.143	0.169
-736.039	-23.946	0.122	-0.074
-735.025	800.000	-0.052	-0.147
-734.010	-200.000	0.012	-0.167
-732.996	-200.000	-0.054	-0.355
-731.981	168.058	0.062	-0.090
-730.966	-32.872	-0.058	0.033
-729.952	-135.821	-0.150	-0.018
-728.937	19.819	-0.284	0.234
-727.923	70.715	0.146	-0.155
-726.908	52.243	-0.129	-0.126
-725.894	503.648	-0.131	0.311
-724.879	-84.179	0.268	0.087
-723.864	-200.000	-0.040	-0.359
-722.850	10.373	-0.171	-0.133
-721.835	-14.316	0.062	0.041
-720.821	-69.196	-0.433	-0.170
-719.806	-200.000	0.015	-0.090
-718.791	273.697	-0.147	-0.266
-717.777	-138.753	-0.088	0.010
-716.762	-140.535	-0.104	-0.011
-715.748	-2.632	-0.280	-0.200
-714.733	352.455	-0.069	0.140
-713.718	-74.403	0.149	-0.055
-712.704	800.000	-0.086	0.374
-711.689	800.000	0.050	-0.181
-710.675	-30.253	-0.179	0.104
-709.660	140.444	0.094	0.126
-708.645	-132.104	0.106	0.014
-707.631	800.000	0.068	0.210
-706.616	-69.516	0.168	-0.066
-705.602	-200.000	-0.004	-0.230
-704.587	68.890	-0.150	0.157
-703.572	-87.064	0.258	-0.080
-702.558	-106.090	0.333	0.076
-701.543	10.941	0.311	-0.243
-700.529	-78.434	0.159	-0.055
-699.514	-82.889	0.146	-0.048
-698.499	-200.000	-0.032	-0.257
-697.485	-133.039	0.227	0.029
-696.470	187.096	-0.081	0.124
-695.456	325.436	-0.214	0.418
-694.441	-67.573	0.147	0.059
-693.426	-193.180	0.197	0.002
-692.412	-200.000	-0.014	0.269
-691.397	732.544	-0.098	-0.267
-690.383	72.263	0.022	0.023
-689.368	-11.742	0.334	-0.223
-688.354	365.897	0.144	0.297
-687.339	-67.902	-0.142	0.056
-686.324	-200.000	-0.009	0.050
-685.310	206.181	-0.087	0.137
-684.295	117.415	0.207	0.259
-683.281	359.204	0.171	0.350
-682.266	-81.667	0.186	0.062
-681.251	-200.000	0.036	0.271
-680.237	-200.000	0.020	-0.101
-679.222	-200.000	-0.009	-0.106
-678.208	36.746	0.162	-0.146
-677.193	-200.000	-0.033	-0.634
-676.178	624.048	-0.076	-0.195
-675.164	-200.000	0.023	-0.115
-674.149	-121.227	-0.180	-0.031
-673.135	-52.741	-0.166	-0.078
-672.120	88.021	-0.211	-0.238
-671.105	-200.000	0.007	-0.070
-670.091	-56.387	-0.104	0.047
-669.076	-32.667	-0.087	-0.050
-668.062	267.136	0.171	0.305
-667.047	-111.019	0.158	0.033
-666.032	239.614	-0.096	-0.163
-665.018	24.911	0.147	0.124
-664.003	-80.500	-0.200	-0.068
-662.989	495.117	-0.066	-0.155
-661.974	-200.000	-0.028	-0.437
-660.959	443.936	-0.046	-0.103
-659.945	387.949	0.045	-0.094
-658.930	-195.689	0.242	-0.002
-657.916	-50.838	-0.349	-0.167
-656.901	31.597	0.163	0.142
-655.886	493.018	-0.077	0.180
-654.872	-200.000	-0.016	-0.094
-653.857	14.232	-0.382	-0.303
-652.843	-200.000	-0.047	-0.244
-651.828	356.078	0.132	-0.267
-650.814	-104.887	-0.149	-0.035
-649.799	800.000	-0.035	0.141
-648.784	800.000	0.031	-0.089
-647.770	-200.000	-0.004	-0.405
-646.755	-200.000	-0.012	-0.153
-645.741	-130.335	0.188	-0.026
-644.726	-63.841	0.203	-0.085
-643.711	-109.005	0.190	-0.041
-642.697	-200.000	0.027	-0.189
-641.682	-30.616	0.306	0.176
-640.668	-38.057	0.160	-0.087
-639.653	-92.201	-0.186	-0.054
-638.638	-2.305	-0.089	-0.064
-637.624	-113.948	0.208	-0.041
-636.609	800.000	0.084	-0.257
-635.595	-73.767	-0.140	-0.052
-634.580	-165.221	-0.258	-0.012
-633.565	5.440	-0.068	-0.051
-632.551	-200.000	0.008	0.210
-631.536	-64.338	-0.153	-0.063
-630.522	-141.800	0.403	-0.041
-629.507	-200.000	-0.058	0.402
-628.492	-77.892	-0.321	0.113
-627.478	-200.000	-0.045	-0.325
-626.463	-29.780	-0.052	0.030
-625.449	316.113	-0.018	0.035
-624.434	800.000	-0.032	-0.126
-623.419	800.000	0.018	-0.075
-622.405	-105.372	-0.185	0.043
-621.390	41.639	-0.207	-0.191
-620.376	181.951	0.154	0.231
-619.361	800.000	-0.057	0.178
-618.346	-113.480	-0.157	0.031
-617.332	-200.000	-0.027	-0.128
-616.317	-11.179	-0.193	0.130
-615.303	-44.647	-0.234	0.119
-614.288	-200.000	0.043	-0.250
-613.273	-7.607	0.201	-0.139
-612.259	-26.181	0.090	0.054
-611.244	-117.442	0.197	-0.036
-610.230	-30.447	-0.103	-0.059
-609.215	-200.000	-0.019	-0.357
-608.201	211.317	0.078	-0.125
-607.186	-110.434	-0.299	-0.063
-606.171	569.904	0.148	0.367
-605.157	63.748	-0.253	-0.258
-604.142	-54.445	-0.402	0.185
-603.128	6.699	0.105	0.079
-602.113	116.982	-0.077	0.096
-601.098	-19.796	0.120	0.076
-600.084	-200.000	0.013	0.141
-599.069	36.583	0.213	0.191
-598.055	-113.935	-0.212	0.042
-597.040	-130.865	0.210	0.029
-596.025	-137.539	0.177	-0.020
-595.011	-126.787	0.446	-0.067
-593.996	85.611	-0.154	0.172
-592.982	-4.463	-0.171	0.120
-591.967	-67.177	0.206	-0.082
-590.952	30.996	0.215	0.188
-589.938	80.790	0.085	0.093
-588.923	-111.994	0.036	0.007
-587.909	-200.000	-0.041	-0.251
-586.894	800.000	-0.110	0.317
-585.879	800.000	-0.060	-0.223
-584.865	-81.607	0.268	0.090
-583.850	-200.000	0.024	0.114
-582.836	757.204	-0.047	-0.129
-581.821	41.725	-0.269	0.248
-580.806	374.241	-0.050	-0.104
-579.792	-33.463	-0.122	0.069
-578.777	-21.793	-0.120	0.074
-577.763	-99.957	0.088	0.022
-576.748	-29.536	-0.281	-0.163
-575.733	-198.175	-0.150	0.001
-574.719	-200.000	-0.033	0.160
-573.704	143.232	0.224	0.303
-572.690	94.428	0.020	-0.023
-571.675	76.442	0.114	-0.123
-570.661	-130.944	-0.503	0.068
-569.646	619.773	-0.087	-0.222
-568.631	800.000	-0.043	0.126
-567.617	-12.530	0.150	-0.100
-566.602	800.000	0.027	-0.108
-565.588	-160.333	0.201	0.011
-564.573	-1.711	0.019	0.013
-563.558	-89.772	0.507	-0.151
-562.544	99.957	0.176	-0.207
-561.529	-50.014	-0.173	-0.083
-560.515	477.271	-0.042	-0.096
-559.500	-200.000	0.006	0.205
-558.485	34.135	0.232	-0.205
-557.471	-148.686	-0.279	0.023
-556.456	-62.402	0.156	0.066
-555.442	-150.743	-0.439	0.034
-554.427	-200.000	-0.029	0.145
-553.412	-137.365	-0.422	0.049
-552.398	-47.914	0.115	-0.057
-551.383	-200.000	0.023	-0.168
-550.369	432.296	0.203	-0.448
-549.354	-5.997	-0.246	-0.171
-548.339	-200.000	0.033	0.306
-547.325	-200.000	0.050	0.295
-546.310	-200.000	-0.058	-0.263
-545.296	6.069	0.206	-0.155
-544.281	-200.000	0.023	0.251
-543.266	-200.000	-0.019	-0.181
-542.252	-200.000	-0.022	-0.318
-541.237	38.411	0.115	0.104
-540.223	-74.406	-0.132	-0.048
-539.208	800.000	-0.009	-0.034
-538.193	-200.000	-0.030	0.246
-537.179	-107.584	0.130	-0.029
-536.164	-32.660	-0.288	-0.163
-535.150	-41.916	-0.046	0.024
-534.135	380.017	-0.081	-0.169
-533.121	800.000	-0.071	0.198
-532.106	-150.650	-0.318	-0.025
-531.091	-121.142	-0.145	-0.025
-530.077	800.000	0.066	0.260
-529.062	15.345	-0.144	0.115
-528.048	-23.715	0.121	0.073
-527.033	-76.345	-0.135	0.048
-526.018	-57.284	-0.171	0.076
-525.004	-132.306	0.283	0.037
-523.989	269.655	0.109	-0.195
-522.975	59.996	0.163	-0.163
-521.960	425.974	0.126	-0.276
-520.945	-47.491	0.144	0.071
-519.931	167.325	-0.072	0.104
-518.916	-200.000	0.047	0.297
-517.902	700.340	0.061	0.163
-516.887	-61.084	-0.354	0.151
-515.872	68.326	0.168	0.174
-514.858	-129.711	-0.129	-0.018
-513.843	-95.677	0.174	-0.047
-512.829	265.211	-0.078	0.137
-511.814	354.366	-0.149	0.299
-510.799	88.287	0.011	0.013
-509.785	225.707	0.203	-0.333
-508.770	-200.000	0.060	-0.284
-507.756	206.549	0.246	-0.388
-506.741	800.000	0.054	-0.157
-505.726	-64.062	0.059	-0.024
-504.712	31.855	-0.165	0.144
-503.697	393.111	0.096	-0.203
-502.683	-12.638	0.211	0.140
-501.668	-113.991	-0.177	0.035
-500.653	-200.000	-0.038	-0.185
-499.639	-82.468	-0.216	0.071
-498.624	-61.770	-0.099	0.042
-497.610	396.927	-0.083	-0.177
-496.595	462.182	0.093	-0.211
-495.581	44.989	-0.256	-0.239
-494.566	-69.526	-0.308	0.119
-493.551	-52.149	0.155	0.073
-492.537	403.025	-0.074	-0.158
-491.522	-83.214	0.127	0.041
-490.508	-51.758	-0.250	0.118
-489.493	-102.287	-0.203	0.049
-488.478	661.556	-0.140	-0.365
-487.464	-103.338	-0.188	-0.045
-486.449	-133.087	-0.142	-0.018
-485.435	0.026	0.364	-0.262
-484.420	-200.000	-0.027	-0.179
-483.405	800.000	0.067	-0.257
-482.391	-130.731	-0.199	0.027
-481.376	112.461	-0.107	0.131
-480.362	-46.380	0.269	-0.134
-479.347	-183.774	-0.256	0.004
-478.332	-3.593	0.235	0.165
-477.318	-129.573	-0.301	0.042
-476.303	298.169	-0.036	0.068
-475.289	-162.603	-0.333	0.017
-474.274	104.060	0.048	-0.057
-473.259	72.350	0.167	-0.176
-472.245	149.382	0.127	0.174
-471.230	-76.131	0.103	-0.037
-470.216	32.556	0.136	0.119
-469.201	-175.028	0.118	-0.003
-468.186	-62.037	-0.212	-0.090
-467.172	543.369	0.072	-0.175
-466.157	-92.375	-0.269	-0.077
-465.143	-200.000	0.020	-0.219
-464.128	-200.000	-0.001	0.160
-463.113	-35.100	-0.156	-0.086
-462.099	22.069	-0.249	-0.205
-461.084	-170.229	0.311	0.011
-460.070	-8.011	-0.143	-0.097
-459.055	800.000	0.120	0.391
-458.040	800.000	-0.037	-0.121
-457.026	767.755	0.020	-0.055
-456.011	32.068	0.174	0.152
-454.997	-163.011	0.214	0.010
-453.982	-26.919	0.118	0.070
-452.968	-200.000	0.042	0.417
-451.953	-119.068	0.328	0.058
-450.938	800.000	-0.006	0.020
-449.924	51.234	0.089	-0.085
-448.909	63.081	-0.156	0.158
-447.895	800.000	-0.061	0.197
-446.880	654.390	0.097	0.252
-445.865	-200.000	-0.008	0.159
-444.851	-200.000	0.029	-0.208
-443.836	503.405	-0.068	0.159
-442.822	121.539	-0.116	-0.145
-441.807	505.293	-0.132	-0.309
-440.792	678.290	-0.114	0.300
-439.778	28.235	0.296	0.253
-438.763	30.803	-0.245	-0.212
-437.749	-3.661	-0.140	0.099
-436.734	-171.132	0.485	0.017
-435.719	251.273	0.144	0.247
-434.705	-102.827	-0.346	-0.083
-433.690	-200.000	-0.022	0.133
-432.676	800.000	-0.033	0.122
-431.661	14.091	0.052	0.041
-430.646	98.003	0.073	0.085
-429.632	130.891	-0.295	-0.382
-428.617	179.653	-0.155	0.229
-427.603	800.000	0.097	-0.282
-426.588	107.935	-0.079	-0.096
-425.573	-93.782	0.280	-0.078
-424.559	-200.000	0.027	-0.294
-423.544	292.133	-0.075	-0.138
-422.530	-99.326	-0.244	0.062
-421.515	265.471	-0.121	-0.214
-420.500	-147.437	0.234	0.020
-419.486	-65.494	-0.420	-0.170
-418.471	142.079	-0.120	-0.160
-417.457	-86.206	-0.111	-0.034
-416.442	-200.000	0.050	0.317
-415.428	-11.345	0.087	-0.058
-414.413	-200.000	0.039	0.452
-413.398	-200.000	0.048	0.283
-412.384	800.000	0.027	0.081
-411.369	-56.918	0.398	0.178
-410.355	-200.000	0.016	0.331
-409.340	439.502	0.092	-0.203
-408.325	-10.405	-0.300	-0.201
-407.311	800.000	-0.028	0.088
-406.296	549.916	-0.122	-0.296
-405.282	287.854	-0.190	0.347
-404.267	7.306	0.245	0.184
-403.252	800.000	-0.058	-0.200
-402.238	65.378	0.143	-0.146
-401.223	59.854	-0.295	-0.294
-400.209	13.598	-0.360	-0.282
-399.194	-200.000	-0.071	0.391
-398.179	-200.000	-0.030	0.258
-397.165	226.087	0.070	-0.115
-396.150	-200.000	0.070	0.403
-395.136	-200.000	-0.014	0.084
-394.121	-197.811	-0.301	-0.002
-393.106	355.965	0.062	-0.124
-392.092	-171.028	-0.292	-0.010
-391.077	20.199	-0.241	0.196
-390.063	-200.000	-0.038	0.310
-389.048	105.875	0.044	0.052
-388.033	800.000	-0.106	-0.389
-387.019	23.640	0.308	-0.256
-386.004	38.531	-0.033	-0.029
-384.990	800.000	-0.052	0.187
-383.975	657.983	0.128	0.331
-382.960	41.924	-0.078	0.071
-381.946	564.209	-0.085	-0.208
-380.931	261.718	-0.018	-0.032
-379.917	-38.081	0.079	-0.042
-378.902	-169.688	-0.163	-0.006
-377.888	33.461	-0.239	-0.209
-376.873	800.000	0.109	0.327
-375.858	-176.650	-0.267	-0.007
-374.844	-37.392	0.394	0.212
-373.829	-200.000	0.001	0.057
-372.815	-136.855	0.250	0.029
-371.800	164.373	0.037	0.053
-370.785	246.697	0.123	-0.209
-369.771	800.000	-0.118	0.343
-368.756	-11.700	-0.033	-0.022
-367.742	-124.196	-0.105	-0.017
-366.727	14.343	0.138	-0.109
-365.712	-171.889	-0.116	0.004
-364.698	368.271	0.119	0.243
-363.683	49.918	-0.194	0.184
-362.669	782.825	-0.048	0.133
-361.654	-200.000	-0.069	0.392
-360.639	124.597	0.170	0.215
-359.625	-92.048	-0.137	-0.039
-358.610	-76.456	0.302	0.107
-357.596	-37.972	0.268	-0.143
-356.581	-200.000	0.047	0.223
-355.566	-11.742	-0.145	-0.096
-354.552	-130.391	0.138	0.019
-353.537	800.000	-0.083	0.332
-352.523	92.287	-0.128	0.145
-351.508	170.302	0.066	-0.095
-350.493	331.482	-0.080	-0.155
-349.479	-52.588	0.053	-0.024
-348.464	319.662	-0.111	-0.212
-347.450	-68.350	-0.214	0.084
-346.435	-200.000	-0.002	0.242
-345.420	106.029	0.040	0.047
-344.406	-64.560	0.290	-0.118
-343.391	57.303	-0.206	-0.203
-342.377	14.937	0.322	-0.254
-341.362	-153.925	0.332	-0.023
-340.348	19.754	-0.098	-0.080
-339.333	127.277	-0.037	-0.048
-338.318	556.563	0.126	-0.306
-337.304	-24.789	-0.134	-0.080
-336.289	800.000	-0.024	0.068
-335.275	-59.676	-0.097	0.042
-334.260	-114.483	-0.183	-0.035
-333.245	598.621	-0.060	0.149
-332.231	-200.000	-0.025	-0.456
-331.216	-200.000	0.018	0.145
-330.202	56.530	0.058	0.057
-329.187	-135.524	0.104	0.012
-328.172	-42.184	-0.059	-0.030
-327.158	800.000	0.048	-0.205
-326.143	71.244	-0.213	-0.223
-325.129	174.479	-0.057	0.082
-324.114	-187.840	-0.272	0.004
-323.099	455.223	-0.092	-0.206
-322.085	-200.000	0.007	-0.130
-321.070	54.470	0.277	0.268
-320.056	-39.602	-0.181	0.095
-319.041	-32.547	0.179	0.100
-318.026	82.935	-0.177	-0.193
-317.012	73.640	0.215	0.226
-315.997	-18.798	0.047	0.030
-314.983	-200.000	-0.003	0.045
-313.968	366.643	0.111	0.226
-312.953	93.937	0.309	0.352
-311.939	-200.000	0.166	0.733
-310.924	209.355	0.129	-0.203
-309.910	-24.872	-0.125	-0.075
-308.895	-43.670	0.014	-0.007
-307.880	30.127	0.309	-0.265
-306.866	800.000	0.077	-0.309
-305.851	-200.000	-0.292	0.000
-304.837	-200.000	0.011	0.144
-303.822	800.000	-0.034	0.105
-302.807	800.000	0.048	0.202
-301.793	-94.828	-0.386	0.105
-300.778	-200.000	0.009	0.161
-299.764	-30.387	0.182	0.104
-298.749	-29.861	-0.034	0.020
-297.735	642.680	0.050	-0.129
-296.720	-200.000	-0.010	0.077
-295.705	174.378	-0.106	-0.155
-294.691	-40.637	0.442	0.231
-293.676	-34.526	-0.045	0.025
-292.662	-62.861	0.203	0.084
-291.647	-40.303	0.065	0.034
-290.632	90.428	-0.093	-0.104
-289.618	-24.539	0.169	0.101
-288.603	85.796	0.168	0.186
-287.589	-200.000	-0.004	-0.107
-286.574	-200.000	0.005	0.054
-285.559	-200.000	-0.059	-0.304
-284.545	-200.000	0.027	-0.237
-283.530	-137.285	0.279	0.032
-282.516	-75.673	-0.291	-0.104
-281.501	210.935	0.105	0.166
-280.486	800.000	0.053	-0.163
-279.472	76.204	-0.069	-0.074
-278.457	49.363	0.122	0.116
-277.443	254.942	-0.039	0.068
-276.428	-200.000	-0.013	-0.211
-275.413	-48.389	0.151	-0.073
-274.399	-22.512	-0.248	-0.150
-273.384	-70.377	0.339	0.129
-272.370	-183.834	-0.248	-0.004
-271.355	800.000	-0.093	0.306
-270.340	-148.615	-0.206	-0.017
-269.326	800.000	0.053	0.176
-268.311	120.187	-0.274	0.341
-267.297	789.746	0.049	0.135
-266.282	-200.000	-0.012	0.233
-265.267	-4.639	0.164	-0.114
-264.253	288.974	-0.139	0.253
-263.238	62.655	-0.436	0.438
-262.224	-84.230	-0.163	0.052
-261.209	-200.000	0.064	0.318
-260.195	800.000	-0.003	0.008
-259.180	93.607	0.079	0.090
-258.165	-72.224	0.100	-0.037
-257.151	-94.969	0.180	0.049
-256.136	150.445	0.126	-0.171
-255.122	64.217	0.117	0.118
-254.107	-102.940	-0.066	0.016
-253.092	800.000	-0.027	0.090
-252.078	-139.340	-0.038	0.004
-251.063	-45.893	0.184	-0.091
-250.049	-200.000	0.107	-0.503
-249.034	-200.000	-0.045	-0.343
-248.019	-23.371	-0.281	0.169
-247.005	189.312	0.167	0.251
-245.990	28.024	-0.085	0.072
-244.976	-149.584	0.024	-0.002
-243.961	800.000	0.017	-0.052
-242.946	757.460	-0.018	0.049
-241.932	-79.660	0.142	0.048
-240.917	-11.007	-0.114	0.075
-239.903	150.243	-0.211	0.288
-238.888	741.434	-0.107	-0.287
-237.873	24.430	-0.179	-0.148
-236.859	25.933	-0.106	-0.088
-235.844	-200.000	0.056	-0.361
-234.830	-127.992	-0.087	0.012
-233.815	800.000	-0.182	0.505
-232.800	-21.610	0.234	0.143
-231.786	588.689	0.049	-0.120
-230.771	91.408	0.029	-0.033
-229.757	-34.345	0.107	-0.059
-228.742	800.000	0.061	-0.183
-227.727	-128.415	0.093	-0.013
-226.713	-96.007	0.060	-0.016
-225.698	187.679	0.049	0.074
-224.684	-188.996	0.271	-0.003
-223.669	-177.259	0.122	-0.003
-222.655	-200.000	-0.058	-0.295
-221.640	-64.554	-0.148	-0.060
-220.625	-200.000	-0.048	-0.289
-219.611	-200.000	0.032	0.309
-218.596	-171.507	-0.103	0.003
-217.582	-98.786	0.319	0.081
-216.567	36.710	-0.061	-0.054
-215.552	-64.955	-0.090	-0.037
-214.538	800.000	0.110	0.306
-213.523	-200.000	0.042	-0.217
-212.509	-55.504	0.011	-0.005
-211.494	-200.000	-0.003	-0.513
-210.479	-200.000	0.011	-0.164
-209.465	-92.650	0.329	-0.092
-208.450	-89.739	-0.070	-0.021
-207.436	514.331	0.159	-0.372
-206.421	264.778	-0.036	0.062
-205.406	800.000	0.070	0.269
-204.392	208.474	-0.128	-0.200
-203.377	-200.000	-0.057	0.365
-202.363	-84.631	-0.257	-0.081
-201.348	-130.167	0.188	-0.026
-200.333	-99.904	-0.087	0.022
-199.319	644.944	0.163	0.415
-198.304	-200.000	-0.012	-0.118
-197.290	102.587	0.051	-0.060
-196.275	-134.895	-0.113	-0.014
-195.260	800.000	-0.041	0.158
-194.246	28.167	-0.060	-0.051
-193.231	-200.000	0.052	-0.248
-192.217	800.000	0.058	-0.193
-191.202	-200.000	0.012	-0.187
-190.187	423.008	-0.087	-0.187
-189.173	92.891	-0.084	-0.095
-188.158	-26.806	0.015	-0.009
-187.144	155.931	0.025	-0.035
-186.129	-151.458	0.332	0.025
-185.114	-7.891	0.172	-0.116
-184.100	-37.771	0.392	0.208
-183.085	-200.000	-0.010	0.342
-182.071	79.707	-0.173	-0.186
-181.056	-140.826	0.204	0.021
-180.042	-106.652	0.409	-0.091
-179.027	305.965	-0.119	-0.221
-178.012	290.527	-0.054	0.098
-176.998	-200.000	0.024	-0.257
-175.983	17.770	0.069	0.055
-174.969	-112.721	0.207	-0.041
-173.954	-200.000	-0.020	-0.156
-172.939	-157.694	-0.121	-0.007
-171.925	-6.647	0.139	-0.095
-170.910	150.784	-0.163	0.222
-169.896	-200.000	-0.015	-0.130
-168.881	20.564	0.215	-0.174
-167.866	-93.057	-0.196	-0.055
-166.852	5.670	0.370	-0.273
-165.837	-88.655	-0.285	0.085
-164.823	-31.038	-0.110	0.062
-163.808	791.847	-0.083	0.227
-162.793	-101.839	0.248	0.060
-161.779	249.994	0.049	0.083
-160.764	111.624	0.179	-0.216
-159.750	-200.000	-0.093	-0.416
-158.735	-13.116	0.251	-0.163
-157.720	-96.293	0.080	0.021
-156.706	-200.000	-0.024	0.221
-155.691	800.000	0.109	0.340
-154.677	-60.339	-0.136	-0.058
-153.662	-81.402	0.488	0.161
-152.647	-149.679	-0.169	-0.013
-151.633	134.281	-0.322	-0.417
-150.618	800.000	-0.097	0.294
-149.604	-55.189	0.254	0.114
-148.589	-99.212	0.214	0.054
-147.574	-135.718	0.304	-0.036
-146.560	800.000	0.044	-0.159
-145.545	-19.929	0.283	-0.175
-144.531	-39.044	0.307	-0.161
-143.516	-200.000	0.049	-0.274
-142.502	62.630	-0.175	0.175
-141.487	-200.000	-0.004	-0.081
-140.472	-22.526	-0.053	0.032
-139.458	217.327	-0.103	0.164
-138.443	82.470	-0.083	-0.090
-137.429	-137.150	-0.205	0.023
-136.414	-50.085	0.380	0.180
-135.399	86.606	0.203	-0.224
-134.385	102.033	0.104	-0.121
-133.370	105.682	-0.130	0.153
-132.356	-61.170	-0.079	0.033
-131.341	213.194	0.135	0.213
-130.326	489.980	-0.084	0.191
-129.312	89.774	-0.072	-0.080
-128.297	94.485	-0.076	-0.086
-127.283	55.405	0.101	-0.098
-126.268	561.467	-0.088	-0.214
-125.253	84.782	0.129	0.141
-124.239	-45.817	-0.389	-0.192
-123.224	-77.178	0.283	0.098
-122.210	-45.858	-0.244	-0.120
-121.195	26.214	0.164	0.137
-120.180	800.000	0.082	0.350
-119.166	800.000	0.024	0.089
-118.151	-200.000	0.024	0.128
-117.137	11.835	-0.159	-0.122
-116.122	-16.521	0.048	-0.031
-115.107	153.394	0.210	-0.287
-114.093	-200.000	-0.067	-0.367
-113.078	300.823	0.133	-0.244
-112.064	229.456	-0.164	-0.266
-111.049	-134.257	-0.127	-0.016
-110.034	-22.586	-0.200	0.121
-109.020	184.592	-0.064	-0.095
-108.005	-156.348	0.267	-0.017
-106.991	800.000	-0.080	0.225
-105.976	233.395	0.124	0.203
-104.962	342.207	-0.052	-0.102
-103.947	-200.000	0.021	-0.420
-102.932	-125.631	-0.195	-0.029
-101.918	-138.860	-0.261	-0.028
-100.903	42.073	-0.391	-0.354
-99.889	187.421	-0.119	-0.178
-98.874	-68.220	0.174	0.067
-97.859	40.883	-0.127	0.114
-96.845	20.306	0.139	0.112
-95.830	-76.061	-0.373	0.131
-94.816	98.314	-0.013	0.015
-93.801	800.000	-0.029	0.085
-92.786	72.445	0.132	0.137
-91.772	-145.358	-0.115	0.010
-90.757	-75.708	-0.151	-0.053
-89.743	224.459	-0.109	0.175
-88.728	82.230	0.183	-0.198
-87.713	128.418	0.101	0.128
-86.699	-200.000	0.025	-0.195
-85.684	529.037	-0.031	-0.073
-84.670	-91.500	-0.076	-0.022
-83.655	-133.414	-0.150	-0.019
-82.640	123.537	-0.034	-0.042
-81.626	180.763	0.082	0.120
-80.611	-2.458	-0.114	0.080
-79.597	142.138	-0.111	0.147
-78.582	603.058	-0.144	0.357
-77.567	-110.733	0.197	-0.040
-76.553	-83.805	-0.516	-0.164
-75.538	-63.178	-0.254	0.104
-74.524	800.000	-0.138	0.396
-73.509	36.400	-0.139	0.122
-72.494	-110.080	0.313	-0.065
-71.480	-200.000	-0.064	-0.428
-70.465	123.040	-0.173	0.216
-69.451	800.000	0.091	-0.262
-68.436	-200.000	0.037	0.297
-67.422	-12.991	-0.142	-0.092
-66.407	-200.000	-0.005	0.086
-65.392	800.000	-0.106	0.387
-64.378	51.729	-0.193	-0.183
-63.363	-60.640	0.369	-0.156
-62.349	-99.504	0.234	0.059
-61.334	-40.333	-0.975	-0.505
-60.319	1.473	0.468	0.335
-59.305	800.000	-0.268	-0.983
-58.290	438.716	0.413	0.898
-57.276	800.000	0.393	1.638
-56.261	-200.000	87.256	507.629
-55.246	513.836	1402.753	3256.422
-54.232	181.276	2615.389	3827.177
-53.217	117.675	2234.630	2737.510
-52.203	47.929	1674.571	1556.887
-51.188	40.516	1404.094	1258.549
-50.173	37.272	1359.770	1198.787
-49.159	56.287	1402.525	1355.943
-48.144	60.677	1421.243	1401.470
-47.130	41.083	1379.958	1240.253
-46.115	37.375	1362.014	1201.213
-45.100	37.041	1357.512	1195.134
-44.086	37.122	1354.815	1193.214
-43.071	36.959	1352.845	1190.426
-42.057	36.972	1350.513	1188.407
-41.042	37.111	1348.584	1187.512
-40.027	37.069	1347.110	1185.909
-39.013	37.123	1344.655	1184.034
-37.998	37.078	1343.239	1182.466
-36.984	37.158	1341.142	1181.059
-35.969	37.217	1339.285	1179.739
-34.954	37.303	1337.169	1178.350
-33.940	37.262	1336.096	1177.106
-32.925	37.306	1334.776	1176.160
-31.911	37.317	1333.441	1175.005
-30.896	37.391	1331.356	1173.566
-29.881	37.301	1330.629	1172.341
-28.867	37.328	1329.189	1171.187
-27.852	37.364	1327.424	1169.804
-26.838	37.347	1326.274	1168.641
-25.823	37.314	1324.778	1167.076
-24.809	37.249	1323.484	1165.502
-23.794	37.200	1322.253	1164.078
-22.779	37.350	1320.288	1163.199
-21.765	37.336	1318.676	1161.650
-20.750	37.292	1318.132	1160.858
-19.736	37.166	1316.510	1158.630
-18.721	37.112	1315.644	1157.499
-17.706	37.045	1314.527	1156.076
-16.692	37.175	1312.826	1155.305
-15.677	37.193	1311.644	1154.326
-14.663	37.246	1310.217	1153.343
-13.648	37.059	1309.277	1151.359
-12.633	37.132	1308.378	1150.955
-11.619	37.135	1307.239	1149.925
-10.604	37.092	1307.123	1149.523
-9.590	37.074	1306.025	1148.406
-8.575	37.067	1305.351	1147.725
-7.560	37.090	1304.202	1146.802
-6.546	37.162	1302.868	1146.011
-5.531	37.153	1302.163	1145.294
-4.517	37.235	1300.771	1144.506
-3.502	37.091	1300.763	1143.605
-2.487	37.237	1299.161	1143.010
-1.473	37.288	1295.437	1139.991
-0.458	36.411	1280.862	1122.028
0.556	31.690	1262.356	1083.090
1.571	27.835	1266.372	1064.023
2.586	26.469	1280.723	1067.928
3.600	25.088	1268.622	1049.660
4.615	19.127	1193.377	954.376
5.629	9.763	1113.790	841.979
6.644	5.206	1090.983	801.321
7.659	4.939	1087.964	797.666
8.673	4.828	1086.742	796.136
9.688	4.738	1085.648	794.806
10.702	5.061	1084.685	795.674
11.717	10.921	1092.908	831.679
12.731	18.612	1103.970	879.610
13.746	19.823	1104.222	885.940
14.761	17.974	1100.827	873.689
15.775	16.681	1098.848	865.432
16.790	15.693	1096.194	858.225
17.804	14.877	1095.011	853.060
18.819	14.560	1094.413	850.905
19.834	14.218	1093.083	848.050
20.848	14.017	1091.821	845.974
21.863	13.776	1090.987	844.027
22.877	13.715	1090.350	843.149
23.892	13.639	1089.678	842.172
24.907	13.691	1088.950	841.797
25.921	13.863	1087.367	841.369
26.936	13.748	1086.458	840.008
27.950	13.760	1085.144	838.983
28.965	13.795	1083.603	837.891
29.980	14.003	1081.230	837.032
30.994	13.972	1080.856	836.512
32.009	14.038	1079.605	835.802
33.023	13.954	1078.677	834.587
34.038	13.893	1077.331	833.167
35.053	13.775	1076.918	832.178
36.067	13.774	1075.714	831.169
37.082	13.819	1074.538	830.414
38.096	13.815	1074.257	830.105
39.111	13.802	1073.153	829.113
40.126	13.805	1071.915	828.095
41.140	13.654	1070.562	826.226
42.155	13.571	1069.536	824.947
43.169	13.569	1068.351	823.951
44.184	13.604	1067.297	823.241
45.199	13.633	1066.124	822.406
46.213	13.706	1064.982	821.815
47.228	13.670	1064.311	821.044
48.242	13.723	1063.042	820.254
49.257	13.779	1061.826	819.520
50.271	13.730	1061.134	818.671
51.286	13.716	1060.388	817.954
52.301	13.742	1059.606	817.408
53.315	13.717	1058.249	816.167
54.330	13.643	1057.065	814.815
55.344	13.652	1056.205	814.125
56.359	13.701	1055.655	813.872
57.374	13.674	1054.201	812.544
58.388	13.605	1053.427	811.538
59.403	13.577	1052.851	810.887
60.417	13.606	1051.893	810.217
61.432	13.546	1051.193	809.315
62.447	13.469	1050.702	808.490
63.461	13.524	1049.660	807.885
64.476	13.472	1048.473	806.645
65.490	13.538	1047.416	806.082
66.505	13.657	1046.806	806.122
67.520	13.506	1046.561	805.124
68.534	13.519	1045.577	804.363
69.549	13.597	1044.687	803.985
70.563	13.612	1043.810	803.313
71.578	13.489	1042.931	801.968
72.593	13.494	1042.339	801.464
73.607	13.459	1041.485	800.570
74.622	13.408	1041.274	800.089
75.636	13.348	1040.764	799.335
76.651	13.437	1039.891	799.027
77.666	13.417	1039.089	798.240
78.680	13.400	1038.755	797.834
79.695	13.427	1037.634	797.028
80.709	13.545	1036.956	797.009
81.724	13.672	1036.115	796.899
82.739	13.708	1035.334	796.402
83.753	13.654	1034.930	795.764
84.768	13.847	1033.941	795.857
85.782	13.863	1033.019	795.152
86.797	13.931	1032.058	794.669
87.812	13.832	1031.167	793.438
88.826	13.830	1030.024	792.479
89.841	13.847	1029.366	791.982
90.855	13.882	1028.257	791.228
91.870	13.892	1027.442	790.579
92.884	13.929	1026.327	789.824
93.899	14.032	1025.578	789.668
94.914	14.048	1025.012	789.238
95.928	13.923	1024.206	787.957
96.943	13.962	1022.968	787.120
97.957	13.881	1022.002	785.921
98.972	13.866	1021.203	785.168
99.987	13.902	1020.587	784.794
101.001	13.852	1019.766	783.858
102.016	13.799	1018.770	782.773
103.030	13.830	1017.926	782.203
104.045	13.974	1016.798	781.941
105.060	13.744	1016.296	780.404
106.074	13.654	1015.220	779.086
107.089	13.601	1013.952	777.796
108.103	13.613	1013.012	777.061
109.118	13.669	1011.872	776.384
110.133	13.562	1011.211	775.307
111.147	13.658	1010.103	774.836
112.162	13.623	1009.437	774.096
113.176	13.718	1008.812	773.989
114.191	13.774	1008.059	773.604
115.206	13.749	1007.073	772.663
116.220	13.575	1006.308	771.197
117.235	13.692	1005.071	770.726
118.249	13.626	1004.307	769.765
119.264	13.624	1003.594	769.141
120.279	13.513	1003.012	768.112
121.293	13.619	1001.966	767.735
122.308	13.585	1000.933	766.716
123.322	13.564	1000.108	765.922
124.337	13.527	999.050	764.873
125.352	13.627	997.437	764.030
126.366	13.645	996.647	763.442
127.381	13.701	995.661	762.875
128.395	13.689	994.740	762.047
129.410	13.665	993.799	761.148
130.424	13.705	993.482	761.021
131.439	13.785	992.651	760.685
132.454	13.816	991.793	760.103
133.468	13.877	991.173	759.837
134.483	13.694	990.240	758.220
135.497	13.731	989.240	757.554
136.512	13.834	988.480	757.377
137.527	13.911	987.303	756.759
138.541	13.779	987.010	755.865
139.556	13.816	986.467	755.550
140.570	13.946	985.941	755.673
141.585	14.031	984.764	755.089
142.600	14.058	983.694	754.327
143.614	13.984	982.912	753.325
144.629	14.186	981.796	753.319
145.643	14.040	980.964	751.951
146.658	14.034	979.742	750.922
147.673	13.890	978.957	749.602
148.687	13.821	978.085	748.555
149.702	13.826	977.279	747.898
150.716	13.756	976.881	747.210
151.731	13.967	975.511	747.044
152.746	13.798	975.225	746.000
153.760	13.814	974.725	745.625
154.775	13.994	973.905	745.737
155.789	13.953	973.390	745.094
156.804	14.024	972.355	744.555
157.819	13.969	971.936	743.922
158.833	14.192	970.954	744.100
159.848	14.108	970.548	743.348
160.862	14.086	969.150	742.112
161.877	13.923	968.581	740.886
162.892	13.894	967.520	739.878
163.906	13.896	966.434	738.994
164.921	13.865	965.997	738.453
165.935	13.977	964.631	737.843
166.950	13.972	964.206	737.429
167.964	13.975	963.318	736.701
168.979	14.029	962.208	736.024
169.994	14.028	961.338	735.288
171.008	14.069	960.557	734.807
172.023	14.178	959.922	734.738
173.037	14.152	959.373	734.139
174.052	14.071	958.460	733.016
175.067	14.014	957.907	732.278
176.081	13.989	957.220	731.581
177.096	13.984	956.371	730.845
178.110	13.962	956.068	730.452
179.125	14.103	955.171	730.319
180.140	14.165	954.708	730.175
181.154	14.056	954.384	729.384
182.169	14.164	953.931	729.445
183.183	14.394	953.214	729.841
184.198	14.286	952.444	728.713
185.213	14.318	951.745	728.254
186.227	14.311	950.756	727.403
187.242	14.192	950.628	726.721
188.256	14.390	949.747	726.848
189.271	14.270	949.263	725.887
190.286	14.128	948.438	724.575
191.300	14.000	947.373	723.141
192.315	14.011	946.733	722.634
193.329	13.962	946.252	721.990
194.344	14.069	945.633	721.918
195.359	14.301	944.644	722.106
196.373	14.250	944.136	721.434
197.388	14.366	943.568	721.439
198.402	14.508	943.363	721.835
199.417	14.451	942.916	721.182
200.432	14.489	942.381	720.872
201.446	14.525	941.841	720.551
202.461	14.603	941.267	720.386
203.475	14.606	940.517	719.758
204.490	14.530	939.736	718.769
205.504	14.491	939.232	718.152
206.519	14.453	938.234	717.162
207.534	14.538	937.264	716.723
208.548	14.623	936.322	716.305
209.563	14.360	936.090	714.936
210.577	14.584	935.478	715.363
211.592	14.702	934.621	715.151
212.607	14.596	933.965	714.135
213.621	14.625	933.167	713.582
214.636	14.692	932.498	713.298
215.650	14.650	931.823	712.536
216.665	14.835	931.050	712.673
217.680	14.931	930.162	712.338
218.694	14.886	929.745	711.766
219.709	14.861	928.648	710.756
220.723	14.850	928.249	710.339
221.738	14.758	927.650	709.426
222.753	14.802	927.149	709.170
223.767	14.835	926.106	708.447
224.782	14.960	925.568	708.504
225.796	14.873	925.409	707.952
226.811	14.748	924.617	706.755
227.826	14.712	924.079	706.126
228.840	14.723	923.173	705.416
229.855	14.705	922.399	704.691
230.869	14.852	921.405	704.487
231.884	14.881	920.702	704.010
232.899	14.782	920.173	703.125
233.913	14.702	919.720	702.382
234.928	14.753	918.633	701.701
235.942	14.785	918.178	701.426
236.957	14.673	917.473	700.355
237.972	14.823	916.758	700.377
238.986	14.694	916.300	699.427
240.001	14.695	915.856	699.027
241.015	14.894	914.690	698.908
242.030	14.866	914.427	698.531
243.045	14.902	913.882	698.203
244.059	14.949	912.910	697.593
245.074	14.970	912.580	697.365
246.088	15.090	911.685	697.121
247.103	15.104	910.996	696.589
248.117	15.124	910.973	696.596
249.132	15.301	910.108	696.607
250.147	15.417	909.531	696.583
251.161	15.281	908.981	695.540
252.176	15.446	908.120	695.501
253.190	15.390	907.714	694.898
254.205	15.430	907.219	694.623
255.220	15.449	906.417	694.026
256.234	15.314	905.763	692.906
257.249	15.363	905.064	692.511
258.263	15.309	904.093	691.483
259.278	15.418	903.308	691.272
260.293	15.435	902.921	690.984
261.307	15.563	902.112	690.832
262.322	15.431	901.896	690.060
263.336	15.490	901.285	689.774
264.351	15.441	900.942	689.251
265.366	15.528	899.794	688.670
266.380	15.636	899.181	688.581
267.395	15.658	898.212	687.868
268.409	15.569	897.365	686.794
269.424	15.466	897.001	686.036
270.439	15.518	895.908	685.350
271.453	15.512	895.155	684.688
272.468	15.529	894.979	684.565
273.482	15.559	894.270	684.081
274.497	15.477	893.498	683.098
275.512	15.502	893.210	682.918
276.526	15.640	892.673	683.009
277.541	15.514	892.654	682.423
278.555	15.726	891.694	682.488
279.570	15.904	890.671	682.364
280.585	15.724	890.196	681.214
281.599	15.773	889.079	680.496
282.614	15.635	888.748	679.622
283.628	15.667	887.786	678.955
284.643	15.561	887.639	678.356
285.657	15.900	886.695	678.941
286.672	15.619	886.480	677.586
287.687	15.644	885.587	676.941
288.701	15.807	884.833	676.961
289.716	15.797	884.358	676.500
290.730	15.702	884.202	675.939
291.745	15.724	883.483	675.419
292.760	15.812	882.593	675.031
293.774	15.836	882.018	674.627
294.789	15.806	881.408	673.979
295.803	15.786	880.495	673.141
296.818	15.674	880.297	672.482
297.833	15.819	879.143	672.120
298.847	15.997	878.739	672.465
299.862	15.969	877.778	671.555
300.876	16.044	877.131	671.300
301.891	16.160	876.699	671.374
302.906	16.145	876.559	671.145
303.920	16.163	875.737	670.530
304.935	16.058	875.254	669.685
305.949	16.237	874.161	669.499
306.964	16.266	873.448	669.007
307.979	16.162	873.195	668.343
308.993	16.248	872.677	668.229
310.008	16.214	872.147	667.628
311.022	16.286	871.363	667.254
312.037	16.247	870.616	666.470
313.052	15.916	870.424	664.955
314.066	16.135	869.625	665.149
315.081	16.016	869.385	664.440
316.095	16.180	868.361	664.243
317.110	16.041	867.747	663.170
318.125	16.154	867.302	663.212
319.139	15.971	867.482	662.572
320.154	16.192	866.292	662.472
321.168	16.068	866.080	661.764
322.183	16.243	865.319	661.813
323.197	16.272	864.769	661.446
324.212	16.369	864.073	661.235
325.227	16.312	863.573	660.569
326.241	16.362	862.500	659.887
327.256	16.218	862.263	659.086
328.270	16.181	862.091	658.752
329.285	16.143	861.340	657.969
330.300	16.264	860.719	657.911
331.314	16.253	860.452	657.605
332.329	16.325	859.798	657.326
333.343	16.290	859.338	656.782
334.358	16.344	859.007	656.681
335.373	16.321	858.355	656.034
336.387	16.497	857.883	656.296
337.402	16.423	858.025	656.061
338.416	16.532	857.640	656.131
339.431	16.642	857.095	656.083
340.446	16.608	856.810	655.676
341.460	16.520	856.370	654.941
342.475	16.787	855.437	655.199
343.489	16.612	855.278	654.345
344.504	16.752	854.822	654.478
345.519	16.721	854.707	654.212
346.533	16.724	853.911	653.558
347.548	16.681	853.009	652.644
348.562	16.481	852.904	651.734
349.577	16.596	852.175	651.561
350.592	16.528	851.520	650.741
351.606	16.730	850.812	650.920
352.621	16.706	849.678	649.901
353.635	16.488	849.855	649.141
354.650	16.534	849.045	648.644
355.665	16.738	848.161	648.692
356.679	16.732	847.648	648.221
357.694	16.840	846.918	648.018
358.708	16.787	846.268	647.259
359.723	16.862	846.240	647.467
360.738	16.770	845.418	646.429
361.752	16.889	844.617	646.215
362.767	16.767	844.148	645.334
363.781	17.036	843.412	645.738
364.796	17.044	842.789	645.236
365.810	17.100	842.361	645.061
366.825	17.086	842.166	644.800
367.840	17.062	841.844	644.407
368.854	17.100	840.734	643.645
369.869	16.978	840.894	643.248
370.883	17.098	840.474	643.323
371.898	17.043	840.243	642.882
372.913	17.192	839.656	642.940
373.927	17.107	838.991	642.053
374.942	17.097	838.651	641.699
375.956	17.237	838.160	641.793
376.971	17.251	837.781	641.499
377.986	17.177	837.525	640.967
379.000	17.389	836.833	641.183
380.015	17.281	836.398	640.383
381.029	17.383	835.528	640.044
382.044	17.236	835.333	639.288
383.059	17.326	834.669	639.059
384.073	17.333	833.939	638.471
385.088	17.275	833.174	637.612
386.102	17.155	832.928	636.918
387.117	17.153	832.381	636.433
388.132	17.353	831.205	636.228
389.146	17.368	831.181	636.210
390.161	17.403	830.787	635.982
391.175	17.246	830.102	634.815
392.190	17.286	829.831	634.700
393.205	17.237	829.132	633.925
394.219	17.241	828.913	633.719
395.234	17.242	828.472	633.329
396.248	17.268	828.004	633.012
397.263	17.369	827.604	633.025
398.278	17.266	827.250	632.316
399.292	17.332	826.758	632.128
400.307	17.345	826.028	631.563
401.321	17.325	825.539	631.058
402.336	17.307	825.191	630.671
403.350	17.425	824.499	630.522
404.365	17.411	824.432	630.364
405.380	17.478	823.926	630.171
406.394	17.473	823.313	629.626
407.409	17.604	822.920	629.753
408.423	17.707	822.763	629.959
409.438	17.671	821.952	629.151
410.453	17.652	821.922	629.002
411.467	17.702	821.099	628.498
412.482	17.767	821.113	628.696
413.496	17.804	820.773	628.515
414.511	17.858	820.231	628.243
415.526	17.762	820.211	627.818
416.540	17.753	819.160	626.925
417.555	17.853	818.861	627.010
418.569	17.965	818.139	626.813
419.584	17.897	817.563	626.065
420.599	17.991	817.209	626.083
421.613	148.983	1369.145	1779.933
422.628	129.471	1449.609	1780.027
