DTS Sentinel unit serial number:	SN413079Multiplexer serial number:	ORYXHardware model number:	OX4-SRSoftware version number:	ORYX F/W v4.00 Oryx Data Collector v3.7.2.0data status	okinstallation	princeton_trtdifferential loss correction	single-endedforward channel	channel 1reverse channel	N/Adate	2019/09/13time	14:58:35forward acquisition time	60.00reverse acquisition time	0.00gamma	496.2192k internal	0.2300k external	0.2300temperature offset calibration	1.0165default loss term (dB/km)	0.3790temperature slope calibration	1.0000multiplexer offset coefficient	1.0000multiplexer slope coefficient	1.0000fibre end	0.00T internal ref (°C)	35.62T ext. ref 1 (°C)	4.70T ext. ref 2 (°C)	30.94length (m)	temperature (°C)	Stokes	anti-Stokes-747.200	323.583	0.043	0.085
-746.185	98.357	-0.375	0.441
-745.171	-83.706	-0.168	0.055
-744.156	-8.939	-0.272	0.186
-743.142	-106.830	-0.142	-0.032
-742.127	-91.282	0.167	0.049
-741.112	-141.139	0.182	-0.019
-740.098	-200.000	-0.003	0.287
-739.083	-39.362	-0.164	0.088
-738.069	39.869	-0.209	-0.192
-737.054	-200.000	0.043	0.313
-736.039	-15.233	-0.249	0.163
-735.025	110.277	-0.113	0.138
-734.010	-59.577	-0.217	-0.095
-732.996	-105.388	-0.225	-0.052
-731.981	78.059	-0.188	0.205
-730.966	266.551	0.125	0.223
-729.952	225.873	0.056	0.092
-728.937	-36.712	0.386	-0.211
-727.923	15.285	0.136	-0.109
-726.908	800.000	0.092	0.282
-725.894	-200.000	-0.005	-0.284
-724.879	-200.000	0.008	-0.194
-723.864	45.803	0.139	0.131
-722.850	-200.000	0.006	-0.061
-721.835	-104.346	-0.114	-0.027
-720.821	70.376	0.070	0.074
-719.806	-138.383	-0.187	-0.021
-718.791	-5.655	0.031	-0.022
-717.777	130.366	-0.305	-0.399
-716.762	-93.700	-0.272	0.076
-715.748	-200.000	0.042	-0.233
-714.733	-200.000	0.035	-0.176
-713.718	-60.881	0.135	-0.058
-712.704	-200.000	-0.020	0.273
-711.689	77.028	-0.088	-0.096
-710.675	-51.540	-0.096	0.045
-709.660	-200.000	0.017	-0.223
-708.645	-74.648	-0.167	-0.061
-707.631	800.000	-0.096	-0.385
-706.616	429.477	-0.068	-0.150
-705.602	-156.265	0.130	0.008
-704.587	-91.866	0.137	-0.040
-703.572	552.225	0.085	0.209
-702.558	-78.647	-0.058	-0.020
-701.543	445.965	-0.062	-0.139
-700.529	800.000	-0.060	-0.188
-699.514	-200.000	0.029	-0.167
-698.499	315.346	-0.096	0.184
-697.485	356.416	-0.135	-0.274
-696.470	44.812	-0.255	-0.238
-695.456	169.075	0.093	-0.135
-694.441	92.372	0.189	-0.217
-693.426	230.187	-0.047	-0.079
-692.412	-200.000	0.196	0.000
-691.397	-59.941	0.246	0.107
-690.383	182.312	0.254	-0.381
-689.368	-70.907	-0.275	-0.105
-688.354	-116.991	0.207	-0.039
-687.339	-76.086	0.133	0.048
-686.324	81.985	-0.120	0.133
-685.310	62.685	-0.255	0.259
-684.295	-192.744	-0.228	0.002
-683.281	-43.033	0.215	-0.111
-682.266	-161.347	-0.358	0.019
-681.251	-101.200	-0.137	0.034
-680.237	656.141	-0.068	-0.178
-679.222	559.716	0.113	-0.279
-678.208	121.081	-0.151	-0.191
-677.193	143.091	0.075	0.101
-676.178	-200.000	0.026	0.216
-675.164	118.485	0.062	0.078
-674.149	-127.159	0.360	-0.054
-673.135	800.000	-0.052	-0.213
-672.120	-56.749	-0.165	-0.074
-671.105	-62.633	0.108	-0.046
-670.091	117.183	0.066	0.083
-669.076	55.502	0.050	-0.050
-668.062	11.861	-0.146	0.114
-667.047	63.804	0.075	0.077
-666.032	104.247	0.192	-0.230
-665.018	252.389	0.184	-0.319
-664.003	-89.246	0.119	0.036
-662.989	106.335	-0.159	0.192
-661.974	392.963	0.092	-0.195
-660.959	-45.593	-0.301	0.151
-659.945	415.816	-0.088	-0.191
-658.930	-107.127	-0.286	-0.064
-657.916	152.278	-0.127	-0.176
-656.901	399.553	-0.093	0.197
-655.886	-200.000	-0.008	-0.255
-654.872	-86.502	-0.115	-0.036
-653.857	350.273	0.169	-0.339
-652.843	77.845	-0.061	0.066
-651.828	-200.000	-0.016	-0.140
-650.814	435.054	-0.093	0.207
-649.799	-34.858	-0.134	-0.074
-648.784	-69.434	0.186	0.073
-647.770	-52.063	-0.078	0.037
-646.755	199.857	0.100	0.155
-645.741	60.947	0.256	0.259
-644.726	24.236	-0.109	0.091
-643.711	83.146	0.085	-0.094
-642.697	-52.257	0.233	-0.110
-641.682	757.476	-0.081	0.222
-640.668	426.842	-0.083	-0.182
-639.653	114.029	0.176	0.217
-638.638	-5.779	-0.236	-0.164
-637.624	155.825	0.163	-0.229
-636.609	-177.594	-0.167	-0.004
-635.595	-67.413	0.077	0.031
-634.580	-200.000	0.011	-0.238
-633.565	196.168	-0.204	-0.315
-632.551	34.726	-0.294	0.261
-631.536	29.610	-0.409	0.353
-630.522	41.393	0.148	0.136
-629.507	151.958	-0.133	0.185
-628.492	696.257	-0.010	-0.026
-627.478	116.261	0.161	-0.200
-626.463	-92.323	-0.183	0.052
-625.449	800.000	0.047	-0.164
-624.434	-152.843	0.295	0.021
-623.419	-98.659	-0.091	-0.024
-622.405	-200.000	0.001	-0.029
-621.390	302.275	-0.077	-0.144
-620.376	800.000	0.090	-0.362
-619.361	551.013	0.185	0.450
-618.346	-36.707	-0.303	0.165
-617.332	-107.602	-0.328	0.073
-616.317	242.204	0.033	0.057
-615.303	-35.965	-0.283	0.155
-614.288	109.476	-0.137	-0.166
-613.273	173.616	-0.053	-0.078
-612.259	800.000	-0.022	0.064
-611.244	-112.126	-0.137	-0.028
-610.230	-10.113	0.209	0.141
-609.215	17.754	-0.282	-0.227
-608.201	-200.000	0.033	-0.158
-607.186	-162.160	0.142	-0.007
-606.171	391.363	-0.093	0.197
-605.157	401.183	-0.226	-0.481
-604.142	47.211	-0.179	-0.169
-603.128	289.313	-0.084	-0.155
-602.113	64.848	0.025	0.026
-601.098	-17.415	0.076	0.048
-600.084	193.829	-0.111	0.170
-599.069	800.000	-0.074	0.314
-598.055	-54.318	-0.219	-0.101
-597.040	33.932	-0.154	-0.136
-596.025	-110.316	0.061	0.013
-595.011	235.288	0.126	-0.212
-593.996	64.544	-0.193	-0.197
-592.982	-124.721	0.122	-0.019
-591.967	-37.277	0.304	0.165
-590.952	-191.195	-0.217	0.002
-589.938	233.615	0.098	-0.164
-588.923	43.791	-0.142	0.132
-587.909	-6.900	0.036	0.025
-586.894	-60.524	-0.390	-0.168
-585.879	60.076	0.081	0.082
-584.865	-67.627	0.144	0.057
-583.850	-95.323	0.173	0.047
-582.836	-80.787	-0.175	0.059
-581.821	55.680	-0.164	0.161
-580.806	-200.000	0.004	-0.262
-579.792	-165.705	0.060	-0.003
-578.777	-16.492	-0.065	0.042
-577.763	205.123	0.178	-0.280
-576.748	43.728	-0.186	0.172
-575.733	-81.334	-0.161	-0.054
-574.719	120.708	-0.105	0.133
-573.704	-97.699	0.233	-0.061
-572.690	-86.876	-0.186	0.057
-571.675	236.267	-0.130	-0.218
-570.661	-200.000	0.004	0.091
-569.646	-20.270	-0.207	0.129
-568.631	-200.000	-0.005	0.115
-567.617	49.304	0.094	0.089
-566.602	-81.908	-0.185	0.061
-565.588	600.331	0.161	-0.405
-564.573	-58.629	0.246	0.108
-563.558	-41.633	-0.310	0.161
-562.544	250.511	-0.168	0.289
-561.529	-62.979	-0.214	-0.090
-560.515	800.000	0.059	-0.195
-559.500	209.460	0.068	0.108
-558.485	123.989	0.057	0.073
-557.471	-200.000	-0.013	-0.088
-556.456	-200.000	0.009	-0.153
-555.442	172.863	-0.179	0.262
-554.427	90.240	-0.207	-0.234
-553.412	448.750	0.047	0.105
-552.398	800.000	-0.077	-0.333
-551.383	-200.000	-0.014	-0.190
-550.369	-84.057	0.092	-0.030
-549.354	-123.232	0.265	0.043
-548.339	32.731	-0.033	0.029
-547.325	11.608	0.240	-0.186
-546.310	-79.995	-0.252	0.086
-545.296	800.000	-0.017	0.054
-544.281	-200.000	-0.034	-0.269
-543.266	-41.242	-0.043	-0.023
-542.252	-200.000	-0.007	0.135
-541.237	-200.000	0.035	0.412
-540.223	-200.000	0.025	-0.159
-539.208	-36.826	0.087	-0.047
-538.193	-9.638	0.126	0.085
-537.179	-143.330	0.239	0.023
-536.164	23.850	0.170	-0.142
-535.150	32.093	0.333	-0.290
-534.135	138.090	-0.240	-0.319
-533.121	800.000	0.033	-0.122
-532.106	800.000	0.034	0.106
-531.091	-7.325	-0.395	0.270
-530.077	691.853	0.108	0.285
-529.062	48.829	-0.314	0.298
-528.048	223.451	0.106	-0.173
-527.033	-104.588	-0.340	0.079
-526.018	-99.648	0.194	-0.049
-525.004	606.422	-0.132	-0.332
-523.989	-200.000	-0.023	-0.161
-522.975	-127.424	-0.254	0.037
-521.960	599.674	0.097	0.243
-520.945	93.312	0.121	-0.139
-519.931	153.894	0.038	0.053
-518.916	800.000	-0.069	0.193
-517.902	17.147	-0.304	0.243
-516.887	-200.000	-0.005	0.052
-515.872	-98.121	-0.247	0.064
-514.858	63.626	-0.256	-0.260
-513.843	-47.943	0.161	-0.079
-512.829	408.033	0.038	-0.082
-511.814	112.725	-0.158	-0.193
-510.799	2.258	0.253	-0.185
-509.785	-116.953	-0.197	-0.036
-508.770	64.456	0.183	-0.186
-507.756	800.000	-0.037	-0.162
-506.741	-200.000	-0.020	0.251
-505.726	-42.944	-0.066	-0.034
-504.712	120.228	-0.140	0.176
-503.697	-109.927	-0.084	0.018
-502.683	362.756	0.029	-0.059
-501.668	-11.807	0.126	0.083
-500.653	608.913	0.127	-0.320
-499.639	-145.441	0.175	0.016
-498.624	463.823	0.100	0.226
-497.610	-200.000	-0.038	-0.243
-496.595	-200.000	-0.026	-0.172
-495.581	340.725	0.058	0.114
-494.566	-113.688	0.180	-0.035
-493.551	800.000	-0.009	0.040
-492.537	11.861	-0.093	-0.073
-491.522	-200.000	0.014	-0.283
-490.508	716.209	-0.037	0.099
-489.493	2.017	0.365	-0.266
-488.478	363.128	-0.146	0.296
-487.464	-200.000	0.018	0.297
-486.449	480.201	-0.110	0.251
-485.435	206.421	-0.089	0.140
-484.420	-200.000	-0.017	-0.128
-483.405	27.795	0.193	-0.164
-482.391	-129.990	-0.154	0.021
-481.376	-59.464	-0.332	0.144
-480.362	-200.000	-0.002	-0.184
-479.347	-91.269	-0.174	0.050
-478.332	-145.152	0.306	0.028
-477.318	-121.099	-0.208	-0.035
-476.303	800.000	0.080	0.306
-475.289	1.722	0.224	-0.163
-474.274	42.616	0.108	-0.099
-473.259	530.658	0.091	-0.217
-472.245	314.571	-0.149	0.284
-471.230	-35.839	-0.298	0.163
-470.216	-200.000	0.073	-0.357
-469.201	-200.000	0.016	0.266
-468.186	-115.574	-0.158	0.030
-467.172	-136.041	0.181	-0.021
-466.157	477.480	0.070	0.161
-465.143	-12.386	0.230	0.152
-464.128	-152.903	-0.372	-0.027
-463.113	-96.718	0.367	0.097
-462.099	-10.674	-0.037	0.025
-461.084	57.568	0.208	0.205
-460.070	10.189	-0.131	-0.101
-459.055	115.698	-0.031	0.039
-458.040	-73.874	0.216	0.079
-457.026	137.639	0.161	0.212
-456.011	-3.535	0.094	-0.066
-454.997	282.194	-0.027	0.049
-453.982	90.791	0.170	0.192
-452.968	-32.312	0.061	0.034
-451.953	6.713	-0.361	-0.271
-450.938	-95.799	-0.158	0.043
-449.924	428.300	-0.048	0.104
-448.909	99.281	-0.114	0.133
-447.895	167.733	0.148	0.213
-446.880	-200.000	0.046	0.404
-445.865	123.201	-0.263	-0.332
-444.851	211.165	-0.162	-0.257
-443.836	800.000	0.055	0.192
-442.822	-55.200	-0.298	0.135
-441.807	189.287	-0.145	0.219
-440.792	-47.223	0.199	-0.098
-439.778	-173.961	0.251	0.007
-438.763	477.698	0.129	-0.294
-437.749	-98.821	0.083	-0.021
-436.734	-57.571	0.243	0.108
-435.719	-200.000	0.022	0.232
-434.705	-135.925	-0.256	0.030
-433.690	800.000	-0.056	-0.225
-432.676	800.000	-0.040	0.144
-431.661	-74.451	0.509	-0.185
-430.646	386.776	0.022	0.046
-429.632	56.972	0.159	-0.156
-428.617	800.000	0.044	0.162
-427.603	-79.862	-0.276	-0.094
-426.588	800.000	-0.049	0.182
-425.573	800.000	0.128	0.435
-424.559	40.528	0.262	0.238
-423.544	-4.443	-0.243	0.169
-422.530	-48.507	0.172	0.083
-421.515	134.445	-0.129	0.168
-420.500	104.930	0.239	0.284
-419.486	-58.765	0.204	0.089
-418.471	-68.483	0.272	0.106
-417.457	800.000	0.068	0.273
-416.442	-200.000	0.039	0.358
-415.428	-133.889	-0.404	-0.051
-414.413	95.907	0.289	0.332
-413.398	-100.948	0.296	-0.073
-412.384	-9.014	-0.292	-0.197
-411.369	-185.529	-0.270	-0.004
-410.355	-92.877	-0.388	-0.109
-409.340	-200.000	-0.008	-0.165
-408.325	365.794	-0.055	-0.112
-407.311	-20.371	0.044	0.027
-406.296	800.000	0.045	-0.173
-405.282	43.268	-0.198	0.182
-404.267	-164.989	0.273	-0.012
-403.252	190.641	-0.051	-0.077
-402.238	2.874	0.046	-0.034
-401.223	116.475	-0.038	-0.047
-400.209	202.553	-0.020	0.031
-399.194	-200.000	0.005	-0.336
-398.179	-167.511	-0.392	0.016
-397.165	-145.596	0.385	0.035
-396.150	-200.000	-0.039	0.365
-395.136	-200.000	0.055	0.439
-394.121	85.736	-0.220	-0.244
-393.106	-115.499	0.263	0.050
-392.092	102.859	-0.127	-0.150
-391.077	-200.000	-0.017	0.256
-390.063	-200.000	0.021	-0.227
-389.048	17.642	-0.138	-0.110
-388.033	-200.000	0.027	-0.172
-387.019	85.872	0.194	0.214
-386.004	-200.000	0.036	-0.318
-384.990	-60.293	-0.286	-0.122
-383.975	65.491	0.125	0.128
-382.960	-200.000	-0.008	0.157
-381.946	-15.337	-0.282	-0.181
-380.931	-200.000	-0.003	-0.155
-379.917	34.483	0.157	-0.138
-378.902	-118.108	0.210	-0.038
-377.888	-59.768	-0.289	0.124
-376.873	-51.686	0.317	0.149
-375.858	-200.000	0.050	-0.269
-374.844	-200.000	0.044	0.211
-373.829	-50.543	0.076	0.036
-372.815	11.166	0.158	-0.121
-371.800	-53.407	-0.288	0.133
-370.785	87.949	0.365	0.407
-369.771	-128.515	0.068	0.010
-368.756	-171.762	-0.139	-0.005
-367.742	800.000	-0.069	-0.290
-366.727	-179.989	0.297	-0.006
-365.712	41.515	-0.024	0.022
-364.698	-63.729	-0.384	0.158
-363.683	-200.000	0.003	0.272
-362.669	-200.000	0.020	-0.202
-361.654	-147.087	0.088	-0.008
-360.639	133.210	-0.084	-0.109
-359.625	5.881	-0.146	0.109
-358.610	-81.592	-0.193	-0.064
-357.596	102.854	-0.109	0.128
-356.581	27.059	0.170	-0.144
-355.566	23.467	-0.262	-0.216
-354.552	-168.903	0.248	0.009
-353.537	514.638	-0.127	0.297
-352.523	31.999	0.177	0.153
-351.508	63.407	-0.123	0.124
-350.493	-101.950	-0.320	0.078
-349.479	506.680	0.012	-0.029
-348.464	63.303	-0.252	-0.254
-347.450	-200.000	0.025	-0.186
-346.435	-108.486	0.213	-0.046
-345.420	-115.084	-0.298	0.057
-344.406	-78.446	-0.385	-0.132
-343.391	362.489	0.101	-0.203
-342.377	103.118	-0.199	-0.234
-341.362	531.073	-0.014	-0.033
-340.348	573.122	-0.035	0.085
-339.333	-128.698	0.211	0.030
-338.318	-92.375	-0.104	-0.029
-337.304	35.752	0.277	0.245
-336.289	12.723	-0.115	-0.089
-335.275	-76.723	-0.320	-0.113
-334.260	245.757	0.046	-0.078
-333.245	636.782	-0.016	0.041
-332.231	-34.354	-0.268	-0.148
-331.216	484.617	-0.066	0.151
-330.202	-43.568	0.117	0.060
-329.187	-77.220	0.182	-0.064
-328.172	-200.000	0.035	-0.270
-327.158	-60.192	0.164	-0.070
-326.143	36.628	-0.077	-0.068
-325.129	18.464	-0.208	-0.167
-324.114	-97.792	-0.064	-0.017
-323.099	640.564	-0.087	0.222
-322.085	-142.242	0.320	0.032
-321.070	406.371	0.100	0.211
-320.056	90.845	-0.263	0.296
-319.041	250.206	0.052	0.089
-318.026	-90.818	-0.175	0.051
-317.012	21.332	0.255	-0.207
-315.997	75.416	-0.294	0.311
-314.983	-87.271	0.374	0.114
-313.968	15.677	-0.067	0.053
-312.953	692.676	0.012	0.032
-311.939	212.880	0.094	-0.149
-310.924	800.000	0.067	-0.218
-309.910	-79.089	0.016	-0.006
-308.895	66.640	0.290	0.295
-307.880	-33.729	0.045	0.025
-306.866	172.345	-0.092	0.133
-305.851	72.539	-0.147	0.153
-304.837	800.000	0.062	-0.228
-303.822	483.591	-0.039	0.090
-302.807	4.701	0.124	-0.091
-301.793	221.210	0.156	-0.251
-300.778	248.414	0.174	-0.295
-299.764	53.292	-0.155	-0.149
-298.749	-128.265	-0.176	-0.025
-297.735	271.095	-0.107	-0.188
-296.720	-113.485	0.180	-0.035
-295.705	-119.524	-0.323	-0.056
-294.691	-61.316	-0.113	0.048
-293.676	-200.000	0.007	0.221
-292.662	-78.791	0.255	0.087
-291.647	-18.559	-0.450	-0.282
-290.632	508.605	0.063	0.146
-289.618	-70.777	0.018	0.007
-288.603	-200.000	0.024	-0.124
-287.589	-56.211	-0.219	-0.098
-286.574	43.483	-0.110	-0.101
-285.559	231.472	0.066	0.109
-284.545	672.940	0.097	-0.252
-283.530	123.272	-0.153	-0.192
-282.516	-11.074	0.093	-0.062
-281.501	800.000	0.105	0.343
-280.486	-200.000	-0.029	-0.386
-279.472	800.000	-0.055	-0.199
-278.457	800.000	0.056	-0.208
-277.443	80.097	0.214	0.230
-276.428	-200.000	-0.035	0.256
-275.413	118.488	0.162	0.200
-274.399	-11.430	0.188	0.124
-273.384	-200.000	0.028	0.207
-272.370	800.000	0.033	-0.109
-271.355	-119.419	-0.194	0.034
-270.340	35.229	0.190	-0.167
-269.326	800.000	0.045	0.142
-268.311	-13.065	-0.269	0.175
-267.297	56.677	0.046	0.045
-266.282	-66.415	0.312	-0.124
-265.267	51.148	0.246	-0.233
-264.253	98.586	-0.117	-0.135
-263.238	634.675	-0.055	-0.139
-262.224	-139.876	0.133	-0.014
-261.209	-105.070	0.245	0.056
-260.195	10.839	0.154	-0.117
-259.180	29.741	0.148	-0.126
-258.165	-200.000	0.012	0.282
-257.151	-74.936	0.170	-0.061
-256.136	115.410	-0.193	0.236
-255.122	-35.065	-0.265	0.144
-254.107	-200.000	0.012	0.129
-253.092	-132.136	0.361	-0.047
-252.078	-114.213	0.202	-0.039
-251.063	-90.791	0.448	-0.129
-250.049	800.000	-0.140	-0.406
-249.034	800.000	-0.032	-0.097
-248.019	108.247	0.080	-0.095
-247.005	-180.427	0.213	-0.004
-245.990	800.000	0.087	-0.251
-244.976	54.246	0.059	0.057
-243.961	800.000	0.063	0.193
-242.946	-23.568	0.241	0.145
-241.932	-167.786	-0.104	-0.004
-240.917	-9.788	0.110	-0.073
-239.903	800.000	0.063	-0.214
-238.888	337.154	-0.083	0.162
-237.873	-80.503	-0.538	-0.179
-236.859	75.270	0.130	0.138
-235.844	-7.011	-0.040	0.027
-234.830	-180.688	-0.318	-0.007
-233.815	-200.000	0.059	0.270
-232.800	-200.000	-0.148	-0.687
-231.786	-139.102	0.174	-0.019
-230.771	-200.000	-0.016	0.119
-229.757	-152.904	0.286	0.020
-228.742	610.416	-0.053	0.133
-227.727	800.000	-0.112	-0.406
-226.713	-200.000	-0.044	-0.268
-225.698	-44.170	0.116	-0.058
-224.684	-200.000	-0.001	0.124
-223.669	-100.585	0.099	-0.024
-222.655	21.781	0.015	-0.012
-221.640	161.403	0.109	0.152
-220.625	56.080	0.228	0.221
-219.611	-35.792	-0.155	-0.084
-218.596	-153.524	-0.470	0.033
-217.582	454.330	-0.076	-0.169
-216.567	-165.938	0.062	-0.003
-215.552	186.015	-0.112	-0.166
-214.538	-200.000	-0.048	-0.242
-213.523	-35.085	0.179	-0.097
-212.509	-172.393	-0.195	-0.006
-211.494	61.127	-0.117	-0.116
-210.479	677.473	0.081	-0.211
-209.465	-51.755	-0.194	0.090
-208.450	188.351	-0.230	-0.343
-207.436	-65.275	0.047	-0.019
-206.421	-28.877	0.387	0.222
-205.406	-71.367	0.159	0.060
-204.392	-57.778	0.075	-0.033
-203.377	-200.000	0.004	0.114
-202.363	214.957	0.027	-0.043
-201.348	-200.000	0.059	0.432
-200.333	800.000	0.032	0.109
-199.319	-7.245	0.119	0.081
-198.304	8.404	0.100	0.075
-197.290	-200.000	0.006	0.063
-196.275	-109.067	0.375	-0.080
-195.260	-200.000	-0.009	0.088
-194.246	-200.000	0.015	0.096
-193.231	-78.592	0.306	0.104
-192.217	30.321	0.270	-0.230
-191.202	-91.473	-0.025	0.007
-190.187	-44.560	0.130	0.065
-189.173	-200.000	-0.002	-0.124
-188.158	125.792	0.015	0.019
-187.144	45.149	0.058	-0.053
-186.129	-191.623	0.256	0.003
-185.114	800.000	0.018	0.074
-184.100	-200.000	0.005	0.088
-183.085	-8.364	-0.141	0.094
-182.071	-140.026	-0.412	-0.043
-181.056	-78.562	-0.135	0.046
-180.042	-0.668	-0.179	0.127
-179.027	-110.945	0.130	-0.027
-178.012	-127.869	0.103	-0.015
-176.998	302.100	0.092	0.169
-175.983	79.521	-0.128	-0.137
-174.969	209.198	0.190	-0.297
-173.954	-77.813	-0.191	-0.066
-172.939	487.104	0.053	0.122
-171.925	126.380	0.155	0.196
-170.910	-200.000	-0.029	0.159
-169.896	-200.000	0.001	0.117
-168.881	-124.070	-0.072	0.011
-167.866	-200.000	0.030	0.302
-166.852	-148.341	0.209	0.017
-165.837	150.756	0.121	0.165
-164.823	23.964	-0.187	-0.154
-163.808	520.789	-0.092	-0.215
-162.793	143.544	0.199	0.264
-161.779	-160.681	0.148	-0.008
-160.764	-200.000	-0.001	-0.339
-159.750	42.297	-0.090	-0.082
-158.735	800.000	-0.043	0.161
-157.720	-98.335	0.301	-0.077
-156.706	-200.000	-0.015	0.321
-155.691	-52.416	0.238	-0.110
-154.677	-174.397	0.405	0.012
-153.662	-200.000	0.068	-0.419
-152.647	-200.000	-0.055	-0.289
-151.633	44.752	-0.162	0.149
-150.618	-48.829	0.319	0.153
-149.604	-137.335	0.211	0.024
-148.589	573.870	0.077	-0.186
-147.574	28.277	-0.200	0.169
-146.560	-42.977	0.163	-0.082
-145.545	142.822	0.071	0.094
-144.531	-200.000	0.023	-0.291
-143.516	-11.007	0.222	0.146
-142.502	-115.715	0.151	-0.028
-141.487	-200.000	-0.003	-0.080
-140.472	61.088	0.086	-0.085
-139.458	-192.460	-0.316	-0.003
-138.443	52.492	0.071	-0.067
-137.429	-150.554	0.082	0.006
-136.414	-10.085	0.152	-0.101
-135.399	251.232	0.119	-0.202
-134.385	578.532	0.083	0.203
-133.370	-160.172	0.393	0.021
-132.356	-136.323	-0.322	-0.037
-131.341	445.711	0.077	0.169
-130.326	113.884	-0.155	-0.187
-129.312	-200.000	-0.067	-0.335
-128.297	117.849	-0.113	0.138
-127.283	-52.836	0.301	-0.138
-126.268	-115.237	-0.203	-0.038
-125.253	160.263	0.175	-0.243
-124.239	-200.000	0.027	0.188
-123.224	99.030	-0.192	-0.221
-122.210	46.358	0.226	-0.209
-121.195	-21.174	-0.212	-0.129
-120.180	296.279	-0.136	0.248
-119.166	-83.097	-0.381	0.122
-118.151	-53.453	0.611	0.278
-117.137	-200.000	-0.301	0.001
-116.122	-127.100	0.369	0.054
-115.107	755.693	0.098	0.265
-114.093	41.027	0.235	-0.211
-113.078	800.000	-0.050	0.171
-112.064	-23.019	-0.040	-0.024
-111.049	-86.406	-0.271	-0.083
-110.034	187.537	-0.096	-0.143
-109.020	-63.887	0.156	-0.063
-108.005	712.716	0.046	-0.122
-106.991	730.570	-0.052	-0.139
-105.976	-176.233	-0.129	-0.003
-104.962	592.063	-0.085	-0.210
-103.947	-200.000	-0.030	-0.352
-102.932	11.781	0.217	0.166
-101.918	28.807	-0.227	0.191
-100.903	-200.000	-0.055	0.333
-99.889	-200.000	-0.033	0.236
-98.874	-200.000	0.003	-0.138
-97.859	-146.445	0.245	0.021
-96.845	-200.000	-0.030	-0.261
-95.830	45.780	-0.267	0.245
-94.816	-200.000	0.021	0.168
-93.801	398.171	0.014	-0.029
-92.786	-200.000	-0.031	-0.244
-91.772	60.911	0.223	-0.219
-90.757	-114.280	0.200	-0.038
-89.743	5.673	-0.103	0.076
-88.728	-191.776	-0.225	-0.002
-87.713	98.756	0.178	0.204
-86.699	-38.875	0.209	0.109
-85.684	43.406	-0.162	0.147
-84.670	-22.375	0.036	0.022
-83.655	-53.517	0.242	0.110
-82.640	126.678	-0.135	0.170
-81.626	-200.000	0.023	-0.315
-80.611	-34.253	0.093	0.051
-79.597	137.128	-0.184	-0.239
-78.582	-199.362	0.288	0.002
-77.567	494.666	-0.219	0.499
-76.553	25.116	0.177	0.146
-75.538	443.139	0.072	-0.157
-74.524	-14.581	-0.348	-0.222
-73.509	64.537	0.064	-0.064
-72.494	800.000	0.059	-0.213
-71.480	-159.083	-0.267	0.015
-70.465	-9.644	0.228	-0.151
-69.451	-71.290	-0.398	-0.148
-68.436	-114.384	-0.098	0.019
-67.422	112.026	-0.065	0.078
-66.407	800.000	0.019	-0.060
-65.392	-84.814	0.125	0.039
-64.378	-107.493	-0.270	0.059
-63.363	-112.282	-0.144	-0.029
-62.349	-184.114	0.100	0.002
-61.334	-42.176	-0.857	-0.435
-60.319	130.032	0.591	0.751
-59.305	-200.000	-0.203	-1.033
-58.290	11.900	0.765	0.583
-57.276	800.000	0.386	1.449
-56.261	-200.000	92.817	548.867
-55.246	606.093	1383.518	3423.325
-54.232	185.465	2600.364	3834.237
-53.217	121.637	2199.725	2722.852
-52.203	47.380	1648.843	1525.295
-51.188	39.153	1382.147	1227.442
-50.173	35.771	1339.134	1168.686
-49.159	56.692	1386.607	1339.857
-48.144	60.925	1404.853	1383.554
-47.130	39.554	1359.781	1209.848
-46.115	35.851	1341.860	1171.369
-45.100	35.680	1336.892	1165.946
-44.086	35.448	1334.917	1162.773
-43.071	35.457	1332.334	1160.531
-42.057	35.412	1330.618	1158.717
-41.042	35.432	1328.902	1157.296
-40.027	35.529	1326.958	1156.146
-39.013	35.637	1324.773	1154.846
-37.998	35.615	1322.749	1152.903
-36.984	35.512	1321.697	1151.318
-35.969	35.640	1319.776	1150.370
-34.954	35.697	1317.489	1148.668
-33.940	35.614	1316.734	1147.472
-32.925	35.642	1315.421	1146.448
-31.911	35.780	1313.584	1145.622
-30.896	35.799	1312.053	1144.355
-29.881	35.821	1310.571	1143.151
-28.867	35.758	1309.554	1141.840
-27.852	35.933	1307.385	1140.940
-26.838	35.739	1306.314	1138.811
-25.823	35.691	1304.812	1137.176
-24.809	35.710	1303.113	1135.764
-23.794	35.703	1302.164	1134.847
-22.779	35.756	1300.552	1133.708
-21.765	35.637	1300.086	1132.560
-20.750	35.642	1298.326	1131.009
-19.736	35.567	1296.988	1129.359
-18.721	35.563	1295.898	1128.342
-17.706	35.608	1294.118	1127.012
-16.692	35.560	1293.216	1125.897
-15.677	35.613	1292.232	1125.305
-14.663	35.530	1290.908	1123.621
-13.648	35.544	1290.053	1122.920
-12.633	35.618	1288.653	1122.085
-11.619	35.532	1287.988	1120.959
-10.604	35.530	1286.919	1119.972
-9.590	35.535	1286.035	1119.190
-8.575	35.452	1285.275	1118.002
-7.560	35.623	1283.776	1117.649
-6.546	35.472	1283.637	1116.605
-5.531	35.416	1282.763	1115.476
-4.517	35.551	1281.732	1115.317
-3.502	35.559	1280.541	1114.281
-2.487	35.551	1279.756	1113.508
-1.473	35.624	1275.316	1110.021
-0.458	34.119	1260.194	1088.218
0.556	32.018	1240.037	1043.362
1.571	27.385	1243.250	1020.080
2.586	25.786	1256.838	1022.072
3.600	23.856	1244.585	1001.163
4.615	17.978	1170.913	910.576
5.629	9.212	1094.699	807.358
6.644	5.130	1072.962	771.120
7.659	4.712	1070.331	767.100
8.673	4.435	1069.227	764.876
9.688	4.515	1068.057	764.365
10.702	5.142	1067.224	766.782
11.717	10.888	1074.903	800.596
12.731	19.175	1086.599	850.325
13.746	22.307	1089.854	868.281
14.761	21.977	1088.362	865.388
15.775	20.864	1086.868	858.638
16.790	20.096	1084.309	852.762
17.804	19.343	1082.871	847.853
18.819	18.950	1082.209	845.329
19.834	18.867	1081.149	844.023
20.848	18.640	1080.780	842.545
21.863	18.539	1079.864	841.258
22.877	18.507	1078.696	840.117
23.892	18.350	1078.181	838.873
24.907	18.344	1076.947	837.810
25.921	18.305	1076.132	836.909
26.936	18.292	1075.150	836.010
27.950	18.396	1073.639	835.266
28.965	18.464	1072.171	834.383
29.980	18.661	1070.689	834.115
30.994	18.647	1069.781	833.262
32.009	18.668	1068.922	832.621
33.023	18.641	1067.492	831.305
34.038	18.495	1066.710	829.916
35.053	18.492	1065.571	828.943
36.067	18.442	1065.086	828.252
37.082	18.503	1064.224	827.803
38.096	18.591	1063.692	827.739
39.111	18.538	1062.900	826.794
40.126	18.465	1061.304	825.127
41.140	18.156	1059.858	822.443
42.155	18.065	1058.439	820.834
43.169	18.013	1057.192	819.545
44.184	18.112	1056.519	819.423
45.199	18.016	1055.891	818.406
46.213	18.228	1054.336	818.140
47.228	18.472	1053.842	818.852
48.242	18.484	1052.838	818.057
49.257	18.362	1051.797	816.592
50.271	18.481	1051.199	816.623
51.286	18.425	1050.348	815.622
52.301	18.489	1048.907	814.737
53.315	18.330	1048.652	813.709
54.330	18.163	1047.512	811.964
55.344	18.201	1046.413	811.219
56.359	18.172	1045.487	810.290
57.374	18.118	1044.881	809.496
58.388	18.034	1043.721	808.129
59.403	17.976	1042.997	807.221
60.417	17.914	1042.049	806.123
61.432	17.968	1041.364	805.774
62.447	17.928	1040.263	804.663
63.461	17.978	1039.236	804.035
64.476	17.968	1037.777	802.788
65.490	17.879	1037.642	802.192
66.505	17.860	1037.155	801.659
67.520	17.919	1036.706	801.518
68.534	17.959	1035.729	800.876
69.549	17.857	1034.941	799.718
70.563	17.755	1034.209	798.605
71.578	17.750	1033.059	797.621
72.593	17.639	1032.075	796.272
73.607	17.506	1031.858	795.415
74.622	17.713	1031.186	795.793
75.636	17.647	1030.630	794.987
76.651	17.804	1029.787	794.995
77.666	17.731	1029.195	794.130
78.680	17.804	1028.370	793.763
79.695	17.791	1028.124	793.443
80.709	17.957	1027.282	793.495
81.724	18.038	1026.878	793.489
82.739	18.216	1025.604	793.259
83.753	18.349	1025.395	793.642
84.768	18.693	1024.342	794.349
85.782	18.851	1023.963	794.714
86.797	18.762	1022.690	793.244
87.812	18.542	1021.662	791.365
88.826	18.540	1020.830	790.642
89.841	18.572	1020.392	790.376
90.855	18.585	1019.157	789.411
91.870	18.612	1018.384	788.868
92.884	18.713	1017.459	788.544
93.899	18.631	1016.891	787.657
94.914	18.835	1015.420	787.385
95.928	18.640	1015.270	786.303
96.943	18.615	1013.881	785.045
97.957	18.573	1013.072	784.159
98.972	18.564	1012.534	783.632
99.987	18.537	1011.704	782.795
101.001	18.650	1010.605	782.391
102.016	18.578	1009.546	781.173
103.030	18.627	1008.903	780.832
104.045	18.633	1008.412	780.409
105.060	18.522	1007.379	779.037
106.074	18.185	1006.514	776.768
107.089	18.005	1004.963	774.685
108.103	17.974	1003.807	773.587
109.118	18.047	1003.220	773.397
110.133	17.946	1001.828	771.796
111.147	18.021	1001.177	771.567
112.162	17.977	1000.821	771.027
113.176	18.237	999.605	771.194
114.191	18.251	999.240	770.906
115.206	18.153	998.234	769.622
116.220	18.171	997.357	768.959
117.235	18.191	996.192	768.080
118.249	18.095	995.413	766.979
119.264	17.992	995.020	766.147
120.279	17.971	994.096	765.274
121.293	17.967	992.563	764.009
122.308	17.930	991.971	763.321
123.322	17.692	991.368	761.725
124.337	17.702	990.602	761.116
125.352	17.840	988.967	760.405
126.366	17.827	988.124	759.634
127.381	17.933	986.790	759.011
128.395	17.892	985.810	758.008
129.410	17.897	985.278	757.554
130.424	17.918	984.909	757.296
131.439	18.296	983.601	757.897
132.454	18.214	982.925	756.947
133.468	18.227	982.642	756.718
134.483	18.264	981.764	756.140
135.497	18.120	980.877	754.753
136.512	18.205	980.122	754.482
137.527	18.247	979.075	753.792
138.541	18.222	978.495	753.168
139.556	18.294	977.818	752.898
140.570	18.423	977.160	752.892
141.585	18.637	976.893	753.562
142.600	18.801	975.436	753.089
143.614	18.752	974.646	752.197
144.629	18.741	974.031	751.611
145.643	18.631	972.854	750.153
146.658	18.445	971.771	748.441
147.673	18.449	970.612	747.496
148.687	18.380	970.084	746.726
149.702	18.236	969.077	745.256
150.716	18.324	968.042	744.778
151.731	18.308	967.372	744.128
152.746	18.206	967.175	743.465
153.760	18.412	965.811	743.247
154.775	18.429	965.131	742.731
155.789	18.328	965.330	742.378
156.804	18.557	964.162	742.405
157.819	18.487	963.799	741.761
158.833	18.658	962.972	741.797
159.848	18.791	962.004	741.559
160.862	18.713	960.845	740.264
161.877	18.466	959.515	738.109
162.892	18.349	958.571	736.815
163.906	18.330	957.556	735.888
164.921	18.352	956.719	735.275
165.935	18.265	956.322	734.530
166.950	18.497	954.946	734.405
167.964	18.426	954.263	733.507
168.979	18.296	953.730	732.477
169.994	18.403	952.634	732.028
171.008	18.378	951.969	731.346
172.023	18.579	951.419	731.715
173.037	18.626	950.959	731.498
174.052	18.508	950.157	730.313
175.067	18.346	949.086	728.737
176.081	18.217	948.683	727.812
177.096	18.194	948.139	727.236
178.110	18.233	947.591	726.916
179.125	18.453	946.504	726.952
180.140	18.462	946.400	726.846
181.154	18.656	945.713	727.074
182.169	18.691	945.722	727.164
183.183	18.769	945.095	726.952
184.198	18.770	944.023	726.063
185.213	18.683	943.340	725.108
186.227	18.757	942.890	725.010
187.242	18.862	942.237	724.886
188.256	19.171	941.235	725.354
189.271	18.878	940.960	723.841
190.286	18.458	940.369	721.559
191.300	18.166	938.959	719.184
192.315	18.084	938.186	718.182
193.329	18.144	938.084	718.293
194.344	18.251	937.719	718.399
195.359	18.418	937.020	718.501
196.373	18.674	935.885	718.640
197.388	18.799	935.875	719.092
198.402	18.991	935.401	719.465
199.417	19.084	934.834	719.355
200.432	19.114	934.467	719.136
201.446	19.196	933.791	718.893
202.461	19.237	933.465	718.752
203.475	19.192	932.866	718.039
204.490	18.895	931.579	715.747
205.504	18.745	930.826	714.482
206.519	18.914	929.944	714.441
207.534	18.774	929.314	713.315
208.548	18.881	928.531	713.094
209.563	18.855	928.059	712.559
210.577	18.872	927.140	711.863
211.592	19.035	926.816	712.224
212.607	19.214	925.850	712.161
213.621	19.045	925.279	710.961
214.636	19.009	924.722	710.319
215.650	19.063	924.253	710.121
216.665	19.309	923.046	710.141
217.680	19.321	922.264	709.530
218.694	19.288	922.089	709.196
219.709	19.139	921.532	708.090
220.723	19.159	920.921	707.642
221.738	19.020	920.296	706.527
222.753	19.280	919.276	706.749
223.767	19.424	918.903	706.991
224.782	19.526	918.151	706.764
225.796	19.486	917.888	706.339
226.811	19.315	917.272	705.102
227.826	19.162	916.300	703.667
228.840	19.262	915.227	703.188
229.855	19.199	914.695	702.463
230.869	19.069	913.997	701.334
231.884	19.137	913.312	701.020
232.899	18.941	912.848	699.805
233.913	18.978	911.985	699.231
234.928	18.992	910.994	698.470
235.942	18.793	910.427	697.164
236.957	18.945	910.157	697.514
237.972	18.886	909.369	696.608
238.986	19.003	908.701	696.507
240.001	18.901	908.034	695.523
241.015	19.073	907.134	695.465
242.030	19.245	907.023	696.015
243.045	19.180	906.641	695.398
244.059	19.205	905.927	694.890
245.074	19.110	905.637	694.221
246.088	19.434	904.551	694.631
247.103	19.434	904.484	694.520
248.117	19.595	904.301	694.966
249.132	19.837	903.355	695.150
250.147	19.903	902.947	695.039
251.161	20.012	902.212	694.851
252.176	20.063	901.753	694.640
253.190	20.061	900.992	693.984
254.205	20.141	900.305	693.713
255.220	19.983	900.076	692.842
256.234	19.884	899.002	691.560
257.249	20.131	898.122	691.807
258.263	19.913	897.624	690.493
259.278	19.936	897.090	690.112
260.293	20.207	896.397	690.599
261.307	20.227	895.765	690.128
262.322	20.125	895.518	689.471
263.336	20.121	894.810	688.850
264.351	20.194	893.815	688.313
265.366	20.227	893.313	687.996
266.380	20.140	892.651	687.082
267.395	20.223	891.231	686.255
268.409	20.139	890.749	685.491
269.424	20.116	890.090	684.833
270.439	19.961	889.551	683.744
271.453	19.936	888.833	683.034
272.468	19.894	888.372	682.455
273.482	19.847	887.653	681.656
274.497	19.868	887.090	681.246
275.512	19.984	886.346	681.073
276.526	20.009	885.808	680.697
277.541	20.051	885.350	680.449
278.555	20.119	885.244	680.574
279.570	20.440	884.623	681.295
280.585	20.438	883.799	680.593
281.599	20.036	883.220	678.514
282.614	20.265	881.994	678.407
283.628	20.153	881.221	677.315
284.643	20.087	881.040	676.856
285.657	20.140	880.426	676.532
286.672	20.148	880.011	676.187
287.687	20.166	879.016	675.431
288.701	20.263	878.209	675.130
289.716	20.198	877.759	674.470
290.730	20.174	877.337	673.992
291.745	20.098	877.029	673.401
292.760	20.427	876.376	674.117
293.774	20.395	875.794	673.485
294.789	20.264	875.052	672.349
295.803	20.237	874.204	671.531
296.818	20.346	873.225	671.141
297.833	20.273	873.057	670.673
298.847	20.324	872.397	670.302
299.862	20.251	871.840	669.533
300.876	20.482	871.246	669.908
301.891	20.432	871.025	669.488
302.906	20.568	870.452	669.512
303.920	20.806	869.673	669.766
304.935	20.655	869.484	668.984
305.949	20.689	868.739	668.482
306.964	20.686	867.816	667.701
307.979	20.591	867.375	666.935
308.993	20.832	866.446	667.085
310.008	20.777	866.226	666.646
311.022	20.439	865.596	664.812
312.037	20.652	864.580	664.787
313.052	20.471	864.312	663.830
314.066	20.213	863.784	662.380
315.081	20.382	863.105	662.444
316.095	20.273	862.336	661.380
317.110	20.384	861.743	661.292
318.125	20.413	861.124	660.869
319.139	20.215	861.058	660.005
320.154	20.311	860.481	659.869
321.168	20.304	859.886	659.329
322.183	20.381	859.332	659.138
323.197	20.414	858.866	658.846
324.212	20.422	858.233	658.335
325.227	20.488	857.614	658.050
326.241	20.460	856.693	657.178
327.256	20.273	856.602	656.343
328.270	20.425	855.676	656.151
329.285	20.307	855.194	655.279
330.300	20.442	854.456	655.162
331.314	20.516	854.074	655.092
332.329	20.588	853.829	655.117
333.343	20.615	853.458	654.874
334.358	20.745	853.056	655.000
335.373	20.714	852.304	654.245
336.387	20.844	851.870	654.344
337.402	20.876	852.279	654.720
338.416	20.918	851.804	654.455
339.431	21.067	851.468	654.699
340.446	21.119	851.381	654.770
341.460	20.991	851.283	654.154
342.475	21.171	850.573	654.227
343.489	21.135	850.088	653.661
344.504	21.139	849.612	653.252
345.519	21.365	848.914	653.502
346.533	21.293	848.229	652.650
347.548	20.965	847.780	651.020
348.562	20.893	847.000	650.094
349.577	20.846	846.470	649.455
350.592	20.671	845.590	648.071
351.606	20.684	844.661	647.349
352.621	20.831	844.183	647.471
353.635	20.868	843.859	647.304
354.650	20.944	842.936	646.822
355.665	20.950	842.799	646.681
356.679	21.097	841.704	646.328
357.694	20.994	841.499	645.733
358.708	21.008	840.797	645.188
359.723	21.004	840.278	644.720
360.738	21.076	839.440	644.283
361.752	21.216	838.880	644.315
362.767	21.273	838.283	644.008
363.781	21.357	838.272	644.253
364.796	21.483	837.657	644.186
365.810	21.433	837.496	643.822
366.825	21.676	837.075	644.335
367.840	21.578	836.510	643.482
368.854	21.435	835.919	642.446
369.869	21.346	835.419	641.679
370.883	21.367	835.242	641.562
371.898	21.590	834.416	641.691
372.913	21.652	833.833	641.411
373.927	21.536	833.433	640.622
374.942	21.487	833.116	640.144
375.956	21.505	832.984	640.049
376.971	21.731	832.416	640.384
377.986	21.887	831.824	640.440
379.000	21.926	831.429	640.223
380.015	21.770	831.107	639.349
381.029	21.906	830.016	638.948
382.044	21.629	829.887	637.783
383.059	21.914	828.689	637.844
384.073	21.661	828.480	636.707
385.088	21.445	827.555	635.154
386.102	21.443	827.099	634.741
387.117	21.493	826.300	634.253
388.132	21.569	825.499	633.859
389.146	21.604	825.332	633.800
390.161	21.627	825.080	633.634
391.175	21.854	824.443	633.907
392.190	21.548	824.098	632.480
393.205	21.655	823.164	632.095
394.219	21.493	822.944	631.286
395.234	21.382	822.362	630.381
396.248	21.117	822.085	629.158
397.263	21.239	821.466	629.068
398.278	21.213	821.340	628.825
399.292	21.329	820.415	628.478
400.307	21.343	820.182	628.293
401.321	21.527	819.394	628.296
402.336	21.529	819.006	627.948
403.350	21.627	818.685	627.999
404.365	21.651	818.755	628.081
405.380	21.760	818.079	627.901
406.394	21.960	817.863	628.393
407.409	22.157	817.414	628.700
408.423	21.995	817.207	627.903
409.438	22.038	816.500	627.458
410.453	22.164	816.062	627.517
411.467	22.247	815.840	627.588
412.482	22.110	815.677	626.918
413.496	22.273	815.359	627.198
414.511	22.304	814.619	626.684
415.526	22.352	813.971	626.300
416.540	22.307	813.375	625.627
417.555	22.139	813.371	624.971
418.569	22.282	812.584	624.818
419.584	22.265	811.992	624.248
420.599	22.162	812.015	623.846
421.613	158.012	1369.729	1786.649
422.628	137.503	1450.999	1786.778
