DTS Sentinel unit serial number:	SN413079Multiplexer serial number:	ORYXHardware model number:	OX4-SRSoftware version number:	ORYX F/W v4.00 Oryx Data Collector v3.7.2.0data status	okinstallation	princeton_trtdifferential loss correction	single-endedforward channel	channel 1reverse channel	N/Adate	2019/09/15time	09:10:35forward acquisition time	60.00reverse acquisition time	0.00gamma	496.2192k internal	0.2313k external	0.2313temperature offset calibration	0.9984default loss term (dB/km)	0.3790temperature slope calibration	1.0000multiplexer offset coefficient	1.0000multiplexer slope coefficient	1.0000fibre end	0.00T internal ref (°C)	33.12T ext. ref 1 (°C)	4.97T ext. ref 2 (°C)	30.13length (m)	temperature (°C)	Stokes	anti-Stokes-747.200	-22.995	-0.240	-0.147
-746.185	431.270	-0.031	-0.068
-745.171	-24.832	-0.228	0.137
-744.156	-116.272	-0.200	0.038
-743.142	553.195	-0.046	0.112
-742.127	553.237	-0.108	-0.263
-741.112	91.969	0.416	-0.475
-740.098	11.353	0.253	0.196
-739.083	5.001	0.175	0.131
-738.069	-23.517	-0.230	0.140
-737.054	-200.000	0.019	-0.285
-736.039	-130.903	-0.355	0.048
-735.025	-140.704	-0.122	0.013
-734.010	-200.000	0.210	-0.001
-732.996	88.860	-0.039	0.044
-731.981	154.006	-0.096	-0.133
-730.966	-43.736	-0.171	0.088
-729.952	28.922	0.110	-0.094
-728.937	10.966	0.145	0.112
-727.923	62.476	-0.254	-0.257
-726.908	-200.000	-0.044	-0.217
-725.894	59.029	-0.126	-0.125
-724.879	800.000	-0.107	-0.303
-723.864	156.550	0.021	-0.029
-722.850	800.000	0.050	-0.194
-721.835	-90.063	0.428	0.126
-720.821	24.482	-0.053	0.044
-719.806	-36.186	-0.151	-0.083
-718.791	-70.823	-0.127	-0.049
-717.777	-32.087	0.144	-0.082
-716.762	800.000	-0.033	-0.095
-715.748	9.384	-0.209	-0.160
-714.733	436.545	-0.113	-0.250
-713.718	-200.000	-0.020	0.113
-712.704	-102.561	-0.448	-0.109
-711.689	-0.112	0.096	-0.069
-710.675	334.113	0.015	-0.029
-709.660	420.370	0.058	-0.125
-708.645	-200.000	-0.006	-0.056
-707.631	-34.446	0.196	0.109
-706.616	-200.000	-0.010	0.132
-705.602	-200.000	-0.006	-0.080
-704.587	-200.000	0.002	-0.032
-703.572	4.141	-0.183	-0.135
-702.558	-86.012	0.364	0.114
-701.543	-145.108	0.426	-0.039
-700.529	-108.222	-0.270	0.059
-699.514	119.433	0.078	-0.098
-698.499	175.731	-0.150	-0.221
-697.485	3.832	0.163	0.120
-696.470	336.161	-0.019	-0.037
-695.456	-146.494	0.584	-0.051
-694.441	800.000	-0.072	0.239
-693.426	-38.791	0.267	-0.143
-692.412	-98.039	0.257	-0.067
-691.397	188.510	0.255	-0.386
-690.383	-149.254	-0.793	0.064
-689.368	-59.234	-0.193	0.084
-688.354	800.000	-0.090	-0.252
-687.339	100.020	-0.148	-0.173
-686.324	227.242	0.159	-0.261
-685.310	300.113	-0.144	-0.268
-684.295	-90.334	-0.070	0.021
-683.281	-200.000	0.003	0.102
-682.266	-200.000	-0.003	0.059
-681.251	-122.139	-0.068	0.011
-680.237	573.600	-0.051	-0.126
-679.222	-200.000	0.015	0.082
-678.208	228.504	0.183	0.302
-677.193	-51.684	0.123	-0.058
-676.178	574.847	-0.114	-0.281
-675.164	440.384	0.132	0.292
-674.149	-14.973	-0.133	-0.086
-673.135	-53.688	-0.129	-0.060
-672.120	18.967	-0.119	0.096
-671.105	-93.881	-0.041	-0.011
-670.091	-200.000	-0.025	0.164
-669.076	-114.852	0.123	-0.024
-668.062	-2.096	0.052	-0.037
-667.047	-38.961	0.324	-0.173
-666.032	-200.000	0.013	0.111
-665.018	-131.057	-0.005	-0.001
-664.003	-84.400	-0.105	0.033
-662.989	-110.347	0.194	0.041
-661.974	369.349	0.057	-0.118
-660.959	655.439	-0.037	-0.095
-659.945	-32.548	-0.092	0.052
-658.930	172.463	-0.090	0.131
-657.916	-17.478	0.014	-0.009
-656.901	88.146	-0.073	-0.081
-655.886	-182.686	0.147	0.003
-654.872	14.958	-0.205	-0.162
-653.857	158.526	0.130	-0.183
-652.843	-185.379	0.240	-0.004
-651.828	35.005	0.124	0.110
-650.814	131.586	0.212	-0.276
-649.799	-61.331	-0.239	-0.102
-648.784	-200.000	0.000	0.071
-647.770	-128.098	-0.398	-0.058
-646.755	-87.465	0.110	0.034
-645.741	58.221	-0.121	-0.120
-644.726	-28.380	-0.139	0.081
-643.711	-78.561	-0.234	0.081
-642.697	213.652	-0.180	0.287
-641.682	-73.108	-0.188	-0.070
-640.668	136.804	0.160	0.211
-639.653	359.572	-0.200	-0.404
-638.638	1.305	-0.320	-0.233
-637.624	-67.664	-0.124	-0.049
-636.609	-176.844	0.163	-0.004
-635.595	-33.669	-0.219	0.122
-634.580	43.788	0.024	-0.022
-633.565	87.853	0.064	-0.071
-632.551	70.464	-0.052	-0.055
-631.536	-175.411	0.297	0.008
-630.522	-64.888	0.146	0.060
-629.507	-5.161	0.120	0.084
-628.492	-114.176	0.199	-0.039
-627.478	225.743	-0.124	0.204
-626.463	-200.000	0.019	0.090
-625.449	182.026	-0.042	-0.063
-624.434	-40.760	-0.094	0.049
-623.419	-200.000	0.060	0.353
-622.405	202.238	-0.059	0.093
-621.390	158.068	-0.093	-0.130
-620.376	48.491	0.123	-0.117
-619.361	35.046	0.193	-0.170
-618.346	-200.000	0.040	0.374
-617.332	800.000	-0.066	-0.201
-616.317	-169.461	0.128	0.005
-615.303	22.195	-0.220	-0.181
-614.288	-200.000	-0.069	-0.413
-613.273	-200.000	0.007	0.098
-612.259	-56.061	-0.224	-0.101
-611.244	4.725	0.458	-0.339
-610.230	-4.114	0.028	-0.020
-609.215	282.887	0.074	0.134
-608.201	3.626	-0.281	0.207
-607.186	-38.187	0.208	0.111
-606.171	-64.146	0.228	0.094
-605.157	445.596	0.144	0.320
-604.142	-141.783	-0.223	0.023
-603.128	620.694	-0.107	-0.272
-602.113	-42.271	-0.089	0.046
-601.098	188.261	0.090	0.135
-600.084	58.923	-0.116	-0.115
-599.069	-182.824	-0.120	-0.002
-598.055	129.302	-0.078	-0.101
-597.040	160.403	0.256	-0.360
-596.025	182.458	0.114	-0.169
-595.011	-200.000	-0.008	0.166
-593.996	232.520	0.121	-0.200
-592.982	-63.503	0.457	-0.189
-591.967	213.469	-0.050	-0.080
-590.952	-123.190	0.095	0.015
-589.938	279.659	0.145	-0.260
-588.923	-110.043	-0.488	-0.103
-587.909	-94.624	-0.127	-0.035
-586.894	333.076	-0.106	0.207
-585.879	-100.413	-0.167	0.042
-584.865	101.822	0.170	0.200
-583.850	-21.336	0.179	0.110
-582.836	800.000	0.095	-0.367
-581.821	-86.083	0.208	-0.065
-580.806	800.000	-0.095	0.344
-579.792	-200.000	-0.009	0.182
-578.777	-83.131	0.297	0.096
-577.763	342.008	-0.158	-0.311
-576.748	65.465	0.141	0.144
-575.733	36.336	0.162	0.144
-574.719	-33.890	-0.225	0.125
-573.704	62.782	-0.274	-0.276
-572.690	347.616	0.039	-0.078
-571.675	21.238	0.146	0.120
-570.661	17.691	-0.125	-0.101
-569.646	-200.000	0.022	-0.097
-568.631	-135.525	-0.335	0.040
-567.617	285.784	0.161	-0.292
-566.602	-79.203	-0.341	-0.116
-565.588	114.642	-0.150	-0.184
-564.573	-151.802	0.174	-0.013
-563.558	161.451	0.335	0.472
-562.544	-200.000	0.129	0.000
-561.529	-102.464	0.137	-0.033
-560.515	72.145	-0.315	-0.331
-559.500	-67.745	0.151	0.059
-558.485	800.000	-0.048	-0.208
-557.471	-105.063	-0.110	0.025
-556.456	-200.000	-0.058	0.348
-555.442	-49.641	-0.038	0.018
-554.427	789.038	0.138	0.380
-553.412	368.220	-0.068	-0.138
-552.398	83.868	-0.042	-0.046
-551.383	-200.000	-0.057	-0.254
-550.369	-134.447	0.079	0.010
-549.354	-55.798	-0.224	0.101
-548.339	-53.616	0.067	-0.031
-547.325	-113.355	-0.299	-0.059
-546.310	800.000	0.090	0.320
-545.296	-41.881	-0.310	-0.160
-544.281	148.409	-0.132	0.179
-543.266	800.000	0.077	0.234
-542.252	-104.910	0.088	0.020
-541.237	-200.000	-0.010	0.079
-540.223	-146.533	-0.100	0.009
-539.208	258.620	-0.122	0.212
-538.193	-134.692	-0.450	0.055
-537.179	-60.924	-0.216	-0.092
-536.164	392.078	0.103	-0.215
-535.150	-54.250	-0.255	-0.116
-534.135	-200.000	0.008	0.059
-533.121	106.356	-0.357	0.425
-532.106	800.000	0.068	0.264
-531.091	11.614	0.244	-0.188
-530.077	-127.933	-0.586	0.085
-529.062	77.545	0.203	-0.217
-528.048	-90.703	0.132	0.038
-527.033	-200.000	-0.015	0.317
-526.018	33.640	-0.061	-0.054
-525.004	-122.604	-0.150	0.024
-523.989	-200.000	0.003	0.099
-522.975	28.601	0.209	-0.178
-521.960	263.004	-0.101	-0.176
-520.945	-195.255	-0.214	0.002
-519.931	419.399	0.130	-0.279
-518.916	109.555	0.131	0.158
-517.902	-95.872	-0.036	0.010
-516.887	99.447	0.105	0.122
-515.872	-74.975	0.287	-0.103
-514.858	-200.000	-0.005	0.357
-513.843	-200.000	0.029	0.169
-512.829	-112.992	-0.265	0.053
-511.814	-177.581	0.068	0.002
-510.799	156.103	0.262	0.363
-509.785	44.801	-0.270	-0.250
-508.770	-200.000	-0.028	-0.161
-507.756	671.203	0.050	0.131
-506.741	-92.208	0.122	-0.035
-505.726	-76.246	-0.185	0.065
-504.712	-200.000	-0.034	-0.412
-503.697	81.364	-0.050	-0.055
-502.683	-16.707	0.113	0.072
-501.668	82.840	0.271	0.297
-500.653	137.079	0.136	0.178
-499.639	-133.331	-0.440	-0.056
-498.624	66.780	0.029	0.030
-497.610	153.281	-0.102	-0.140
-496.595	122.826	-0.129	0.162
-495.581	83.425	-0.138	-0.151
-494.566	14.032	0.191	0.149
-493.551	66.416	-0.123	-0.125
-492.537	141.020	-0.155	0.206
-491.522	-134.542	-0.212	0.026
-490.508	-37.942	-0.225	0.120
-489.493	-98.635	-0.134	-0.034
-488.478	-19.719	0.188	-0.117
-487.464	-51.147	0.174	-0.082
-486.449	-107.597	-0.026	-0.006
-485.435	-110.662	0.317	0.066
-484.420	-71.703	0.480	-0.180
-483.405	622.285	0.090	-0.228
-482.391	-200.000	0.031	0.143
-481.376	-186.862	0.172	0.002
-480.362	340.000	-0.092	-0.181
-479.347	-200.000	0.003	-0.181
-478.332	136.916	-0.208	-0.273
-477.318	38.280	-0.154	-0.137
-476.303	-200.000	0.075	-0.347
-475.289	-200.000	-0.013	-0.145
-474.274	52.951	-0.114	-0.109
-473.259	-73.621	-0.209	0.077
-472.245	-200.000	0.014	-0.302
-471.230	-52.574	0.167	-0.077
-470.216	-138.318	-0.173	-0.019
-469.201	402.806	-0.066	0.139
-468.186	-200.000	0.026	0.120
-467.172	-200.000	0.020	0.377
-466.157	17.421	-0.191	-0.152
-465.143	119.979	-0.052	0.065
-464.128	-95.611	-0.240	-0.065
-463.113	131.141	0.150	-0.194
-462.099	-149.804	0.228	-0.018
-461.084	-8.514	-0.044	0.030
-460.070	800.000	0.078	-0.284
-459.055	-23.736	-0.260	0.157
-458.040	200.327	-0.127	0.195
-457.026	152.553	-0.157	0.215
-456.011	208.825	0.068	-0.107
-454.997	-137.912	-0.393	-0.044
-453.982	-200.000	0.015	-0.351
-452.968	-74.379	0.291	0.105
-451.953	-29.283	-0.146	0.084
-450.938	-47.722	-0.103	-0.050
-449.924	-88.028	0.225	0.068
-448.909	165.506	-0.162	-0.230
-447.895	-200.000	-0.009	0.179
-446.880	-200.000	-0.068	0.414
-445.865	-200.000	0.081	-0.450
-444.851	-172.120	0.276	0.009
-443.836	131.638	0.154	0.198
-442.822	800.000	-0.023	0.070
-441.807	-200.000	0.075	-0.338
-440.792	379.542	0.126	0.259
-439.778	-88.462	0.153	0.046
-438.763	207.048	0.316	-0.493
-437.749	123.364	-0.179	-0.225
-436.734	-200.000	0.039	-0.440
-435.719	-70.091	-0.118	-0.045
-434.705	258.693	0.156	0.269
-433.690	-55.776	0.147	-0.066
-432.676	-1.618	0.314	-0.222
-431.661	60.177	-0.120	-0.119
-430.646	-1.338	-0.226	-0.160
-429.632	123.686	-0.096	0.121
-428.617	16.487	0.217	-0.171
-427.603	-91.236	0.330	-0.095
-426.588	-139.788	0.106	0.011
-425.573	20.459	-0.121	-0.098
-424.559	-2.486	-0.155	-0.109
-423.544	-200.000	0.026	0.597
-422.530	-51.215	0.060	0.028
-421.515	229.218	0.157	0.257
-420.500	-26.254	0.275	-0.162
-419.486	227.402	0.046	0.075
-418.471	-16.147	0.140	-0.089
-417.457	29.190	0.008	-0.007
-416.442	800.000	0.092	0.259
-415.428	800.000	-0.078	-0.237
-414.413	800.000	0.104	-0.381
-413.398	-200.000	0.038	-0.324
-412.384	-119.441	-0.151	0.026
-411.369	800.000	-0.095	0.278
-410.355	485.678	0.052	0.119
-409.340	-34.623	0.103	0.056
-408.325	669.827	0.066	0.171
-407.311	-65.747	0.225	-0.090
-406.296	-33.496	0.158	-0.087
-405.282	-38.172	0.178	-0.094
-404.267	-26.994	0.192	-0.112
-403.252	117.948	-0.198	0.244
-402.238	-152.430	0.241	-0.017
-401.223	-200.000	0.048	0.295
-400.209	-23.346	0.318	-0.191
-399.194	-124.267	-0.183	0.029
-398.179	51.850	0.066	0.063
-397.165	-200.000	0.011	-0.169
-396.150	-108.285	0.150	0.033
-395.136	-62.655	0.134	-0.055
-394.121	-15.177	-0.278	0.178
-393.106	-200.000	0.031	0.184
-392.092	-37.579	-0.242	-0.129
-391.077	348.296	-0.153	0.302
-390.063	6.902	0.132	-0.099
-389.048	-110.104	0.361	0.075
-388.033	-121.504	-0.223	-0.037
-387.019	800.000	-0.058	0.162
-386.004	510.187	0.128	0.298
-384.990	280.895	-0.098	-0.175
-383.975	-141.490	-0.157	-0.016
-382.960	-141.833	0.268	0.027
-381.946	48.473	-0.273	0.255
-380.931	-10.854	0.088	-0.058
-379.917	432.623	0.036	0.079
-378.902	-80.616	0.230	-0.077
-377.888	-93.529	-0.250	-0.069
-376.873	683.213	0.177	-0.460
-375.858	-115.103	-0.257	0.049
-374.844	-200.000	0.002	-0.120
-373.829	800.000	0.073	0.271
-372.815	403.523	-0.087	0.182
-371.800	-99.541	-0.155	0.039
-370.785	367.579	0.080	-0.162
-369.771	3.533	0.267	0.194
-368.756	-92.636	-0.044	-0.012
-367.742	-135.580	-0.308	-0.037
-366.727	-200.000	0.019	0.124
-365.712	34.890	0.271	0.237
-364.698	75.158	0.093	-0.098
-363.683	78.933	-0.097	0.104
-362.669	-124.955	0.429	0.066
-361.654	-200.000	-0.022	-0.196
-360.639	-16.291	0.231	0.147
-359.625	-105.929	-0.192	-0.043
-358.610	648.689	0.057	0.145
-357.596	-172.925	-0.130	0.004
-356.581	177.997	-0.213	-0.310
-355.566	-112.851	0.110	0.022
-354.552	131.206	0.155	0.199
-353.537	-200.000	0.012	-0.253
-352.523	286.715	-0.197	-0.355
-351.508	-185.204	-0.198	-0.003
-350.493	422.159	0.038	0.082
-349.479	200.036	-0.110	0.169
-348.464	-70.687	0.233	0.088
-347.450	-138.190	0.372	-0.041
-346.435	-124.727	-0.421	0.065
-345.420	-105.858	-0.058	0.013
-344.406	31.110	0.090	-0.077
-343.391	0.816	0.258	-0.184
-342.377	69.696	-0.018	-0.019
-341.362	63.854	0.231	-0.232
-340.348	122.316	0.110	-0.137
-339.333	-98.563	0.426	-0.109
-338.318	-72.335	0.367	0.136
-337.304	-200.000	0.010	-0.427
-336.289	-79.334	0.157	-0.053
-335.275	-102.419	0.158	-0.038
-334.260	-68.193	-0.337	0.131
-333.245	43.871	0.213	0.195
-332.231	299.525	0.030	0.056
-331.216	800.000	-0.127	-0.401
-330.202	1.359	0.151	-0.108
-329.187	-200.000	0.035	-0.208
-328.172	-135.385	-0.124	0.015
-327.158	-44.103	0.229	-0.115
-326.143	384.618	-0.071	-0.146
-325.129	-200.000	-0.006	-0.133
-324.114	-200.000	0.025	-0.150
-323.099	-190.847	-0.060	0.001
-322.085	230.457	0.094	-0.153
-321.070	67.669	-0.139	-0.142
-320.056	128.941	-0.084	-0.106
-319.041	-200.000	0.029	0.163
-318.026	-34.909	0.184	0.100
-317.012	-200.000	0.016	0.446
-315.997	800.000	0.093	-0.275
-314.983	-6.720	0.208	-0.141
-313.968	800.000	-0.043	0.120
-312.953	-200.000	0.042	-0.261
-311.939	800.000	-0.048	0.163
-310.924	-96.419	0.243	0.064
-309.910	800.000	0.102	0.364
-308.895	-200.000	0.050	0.368
-307.880	-199.009	0.305	-0.002
-306.866	-200.000	0.029	0.219
-305.851	-159.541	0.265	-0.015
-304.837	112.259	-0.216	0.261
-303.822	68.511	0.178	-0.182
-302.807	-200.000	0.036	0.199
-301.793	196.877	0.052	-0.079
-300.778	-152.977	-0.246	-0.017
-299.764	-154.482	-0.249	-0.017
-298.749	258.841	-0.142	0.244
-297.735	-200.000	-0.037	-0.161
-296.720	-129.653	0.170	0.023
-295.705	-200.000	0.007	0.164
-294.691	-35.143	0.266	0.145
-293.676	-61.973	-0.440	0.183
-292.662	288.440	-0.270	0.488
-291.647	-200.000	0.011	0.057
-290.632	-59.125	0.205	-0.088
-289.618	-15.614	-0.148	-0.094
-288.603	-200.000	0.047	-0.273
-287.589	-52.256	-0.089	0.041
-286.574	-56.891	-0.331	-0.145
-285.559	441.960	0.165	0.359
-284.545	-106.302	0.232	0.052
-283.530	-95.040	-0.315	0.085
-282.516	-200.000	0.076	0.422
-281.501	-196.515	0.085	0.001
-280.486	-27.142	-0.261	-0.152
-279.472	-200.000	0.031	0.193
-278.457	-4.059	-0.189	0.131
-277.443	303.753	0.147	-0.272
-276.428	-134.283	-0.158	0.019
-275.413	-86.470	0.314	-0.096
-274.399	-17.331	0.427	0.268
-273.384	49.382	0.205	-0.192
-272.370	-200.000	0.003	0.068
-271.355	15.490	-0.124	-0.097
-270.340	-1.555	-0.187	0.131
-269.326	77.854	0.132	0.140
-268.311	-200.000	0.000	0.035
-267.297	386.994	0.042	0.086
-266.282	55.716	0.175	-0.169
-265.267	-99.523	-0.113	0.028
-264.253	-176.398	-0.214	0.006
-263.238	80.267	-0.212	-0.227
-262.224	800.000	-0.125	-0.475
-261.209	126.345	-0.014	0.018
-260.195	-153.229	-0.156	0.011
-259.180	-86.497	-0.279	0.085
-258.165	130.469	0.209	0.267
-257.151	-139.987	-0.131	0.014
-256.136	-46.707	0.462	-0.225
-255.122	-200.000	0.029	-0.245
-254.107	-200.000	-0.035	-0.179
-253.092	-200.000	0.000	0.085
-252.078	56.721	-0.311	-0.301
-251.063	1.643	0.137	0.098
-250.049	644.684	0.070	0.178
-249.034	54.933	-0.195	0.187
-248.019	-200.000	-0.012	0.461
-247.005	-84.642	0.405	0.127
-245.990	-65.115	0.327	-0.131
-244.976	18.265	-0.054	0.043
-243.961	106.913	-0.072	-0.085
-242.946	800.000	-0.021	-0.080
-241.932	-154.003	0.028	-0.002
-240.917	79.875	-0.282	-0.302
-239.903	-135.872	-0.275	0.032
-238.888	-55.937	0.324	-0.144
-237.873	-150.627	0.142	-0.011
-236.859	562.058	-0.072	-0.173
-235.844	132.660	0.174	0.223
-234.830	-50.451	-0.270	0.127
-233.815	-123.268	-0.090	-0.014
-232.800	219.637	-0.109	0.173
-231.786	66.588	0.099	-0.100
-230.771	-48.650	-0.337	-0.161
-229.757	-9.008	-0.205	0.136
-228.742	-117.987	0.115	-0.020
-227.727	-200.000	0.018	0.105
-226.713	-13.483	-0.118	0.076
-225.698	88.590	-0.240	0.265
-224.684	216.720	-0.088	0.140
-223.669	-171.374	0.139	0.005
-222.655	359.810	0.085	-0.170
-221.640	796.673	-0.073	0.200
-220.625	-91.028	-0.200	0.057
-219.611	-112.245	-0.194	0.039
-218.596	-51.104	-0.236	-0.110
-217.582	155.707	-0.168	-0.230
-216.567	-170.043	0.252	-0.009
-215.552	32.932	0.120	-0.103
-214.538	-200.000	0.014	0.313
-213.523	-71.869	-0.201	-0.074
-212.509	-7.127	0.198	-0.133
-211.494	-200.000	-0.025	0.163
-210.479	399.852	0.081	0.169
-209.465	-98.115	0.197	-0.050
-208.450	57.314	0.172	-0.167
-207.436	-7.770	0.165	0.111
-206.421	554.601	-0.016	0.037
-205.406	306.300	-0.061	-0.113
-204.392	-32.152	0.044	-0.024
-203.377	72.265	0.167	0.173
-202.363	239.865	-0.072	-0.119
-201.348	-140.463	0.097	-0.010
-200.333	164.575	0.111	0.156
-199.319	397.580	-0.037	0.077
-198.304	36.355	-0.232	0.203
-197.290	800.000	-0.044	0.181
-196.275	-36.282	-0.144	-0.077
-195.260	-200.000	-0.044	-0.227
-194.246	783.093	-0.092	0.251
-193.231	-112.145	0.216	-0.043
-192.217	800.000	-0.062	-0.204
-191.202	-124.364	-0.220	0.034
-190.187	94.588	0.182	-0.206
-189.173	-90.218	-0.270	-0.078
-188.158	-93.251	-0.353	0.097
-187.144	-200.000	-0.009	-0.339
-186.129	378.747	0.190	0.387
-185.114	202.592	-0.045	-0.069
-184.100	49.796	-0.098	0.092
-183.085	800.000	-0.045	0.136
-182.071	-20.854	0.173	0.105
-181.056	-100.282	0.280	0.069
-180.042	-51.277	0.172	0.080
-179.027	-134.091	0.180	-0.022
-178.012	-105.089	-0.325	0.074
-176.998	800.000	0.150	-0.438
-175.983	35.809	-0.114	-0.100
-174.969	-139.212	-0.444	0.047
-173.954	-200.000	0.013	-0.085
-172.939	110.518	-0.017	0.021
-171.925	295.213	-0.057	0.104
-170.910	-94.273	0.150	-0.041
-169.896	-120.467	-0.185	0.031
-168.881	-34.985	-0.235	0.127
-167.866	246.159	0.114	0.190
-166.852	-63.077	0.245	0.100
-165.837	242.248	-0.055	-0.091
-164.823	-118.458	-0.131	-0.023
-163.808	800.000	-0.076	0.218
-162.793	-34.762	0.078	0.042
-161.779	-95.316	-0.131	0.035
-160.764	-3.379	0.262	-0.181
-159.750	31.886	-0.241	0.206
-158.735	-200.000	0.046	-0.286
-157.720	-143.433	0.116	-0.011
-156.706	-200.000	-0.012	0.166
-155.691	-102.690	-0.196	0.046
-154.677	236.449	-0.124	0.204
-153.662	800.000	0.043	-0.119
-152.647	-16.600	0.193	-0.121
-151.633	-200.000	0.018	-0.146
-150.618	-200.000	-0.012	-0.271
-149.604	-187.258	0.418	0.006
-148.589	169.309	-0.235	-0.332
-147.574	-129.640	0.461	0.063
-146.560	87.469	0.135	0.148
-145.545	-66.976	0.425	-0.166
-144.531	-95.642	-0.079	0.021
-143.516	20.997	-0.121	0.097
-142.502	438.659	0.100	0.217
-141.487	138.765	-0.081	0.106
-140.472	163.045	-0.146	-0.203
-139.458	-59.161	0.280	-0.119
-138.443	-180.625	-0.337	0.007
-137.429	800.000	-0.018	0.056
-136.414	-150.280	0.145	-0.011
-135.399	-12.306	0.280	0.181
-134.385	111.412	0.058	-0.070
-133.370	280.453	-0.087	-0.154
-132.356	180.656	-0.055	-0.080
-131.341	155.106	-0.143	-0.195
-130.326	267.156	0.184	-0.318
-129.312	800.000	-0.063	-0.197
-128.297	8.455	0.044	0.033
-127.283	-200.000	-0.100	-0.511
-126.268	-84.973	-0.136	0.042
-125.253	-42.090	-0.178	-0.090
-124.239	-16.077	0.025	0.016
-123.224	66.205	-0.096	0.096
-122.210	-76.514	-0.230	0.080
-121.195	20.144	0.337	0.269
-120.180	-200.000	0.056	0.336
-119.166	95.930	-0.176	0.199
-118.151	-64.084	0.018	0.007
-117.137	281.125	0.058	-0.102
-116.122	58.113	-0.182	0.177
-115.107	-52.918	0.156	-0.071
-114.093	-84.336	0.189	-0.059
-113.078	-106.114	-0.187	0.042
-112.064	-195.103	0.074	-0.001
-111.049	-200.000	-0.010	-0.183
-110.034	-72.120	-0.106	-0.039
-109.020	107.244	-0.080	-0.094
-108.005	8.601	0.192	-0.143
-106.991	176.868	0.018	0.025
-105.976	-186.695	0.189	-0.003
-104.962	-200.000	0.097	-0.473
-103.947	800.000	-0.037	-0.152
-102.932	441.956	0.018	-0.039
-101.918	-99.720	-0.135	0.034
-100.903	-79.666	0.323	-0.108
-99.889	33.000	0.052	0.045
-98.874	281.273	-0.058	-0.103
-97.859	-200.000	0.056	0.264
-96.845	800.000	-0.087	0.343
-95.830	-200.000	-0.004	-0.026
-94.816	160.119	0.282	-0.389
-93.801	101.420	-0.119	0.137
-92.786	-59.068	0.582	0.248
-91.772	-55.788	0.163	-0.072
-90.757	-92.883	-0.239	-0.066
-89.743	-115.600	-0.263	-0.049
-88.728	139.260	0.253	0.330
-87.713	29.451	-0.352	0.295
-86.699	-200.000	-0.009	-0.041
-85.684	-13.093	0.278	-0.179
-84.670	32.693	0.124	0.106
-83.655	-132.002	0.190	0.025
-82.640	-90.575	-0.120	0.034
-81.626	-31.480	0.320	0.178
-80.611	187.921	-0.056	0.082
-79.597	-89.845	-0.228	-0.066
-78.582	66.199	0.198	0.198
-77.567	-200.000	0.005	-0.106
-76.553	-60.640	0.176	0.074
-75.538	20.281	-0.109	0.087
-74.524	-200.000	0.046	0.455
-73.509	186.567	0.225	0.331
-72.494	28.432	-0.070	0.058
-71.480	312.779	0.153	0.284
-70.465	-200.000	0.005	-0.043
-69.451	55.819	0.167	-0.160
-68.436	800.000	0.062	-0.214
-67.422	38.787	0.198	-0.175
-66.407	206.789	0.070	-0.108
-65.392	35.871	0.201	-0.174
-64.378	13.081	0.229	-0.175
-63.363	791.724	0.146	-0.396
-62.349	800.000	-0.092	0.288
-61.334	-0.060	-1.140	-0.801
-60.319	800.000	0.125	0.465
-59.305	-200.000	0.054	-1.017
-58.290	115.915	0.951	1.149
-57.276	800.000	0.542	1.506
-56.261	-200.000	97.694	590.863
-55.246	621.224	1424.151	3537.566
-54.232	184.502	2623.506	3837.749
-53.217	119.886	2182.924	2671.772
-52.203	44.842	1630.041	1480.967
-51.188	36.628	1363.815	1188.814
-50.173	33.345	1321.140	1131.980
-49.159	55.788	1368.619	1309.573
-48.144	59.134	1386.202	1346.644
-47.130	36.901	1342.386	1171.605
-46.115	33.245	1325.274	1134.743
-45.100	33.108	1320.266	1129.595
-44.086	32.989	1317.839	1126.761
-43.071	32.979	1315.499	1124.654
-42.057	32.997	1313.495	1123.005
-41.042	33.002	1311.929	1121.653
-40.027	33.049	1310.463	1120.632
-39.013	33.022	1309.196	1119.343
-37.998	32.993	1307.010	1117.261
-36.984	33.143	1304.934	1116.327
-35.969	33.156	1303.202	1114.878
-34.954	33.129	1301.597	1113.302
-33.940	33.217	1300.158	1112.542
-32.925	33.136	1298.931	1110.972
-31.911	33.239	1297.427	1110.247
-30.896	33.161	1295.743	1108.307
-29.881	33.256	1294.335	1107.616
-28.867	33.320	1293.151	1106.932
-27.852	33.230	1291.568	1105.008
-26.838	33.294	1289.952	1103.954
-25.823	33.294	1288.750	1102.880
-24.809	33.173	1287.756	1101.280
-23.794	33.283	1285.963	1100.344
-22.779	33.195	1284.775	1098.771
-21.765	33.240	1283.307	1097.735
-20.750	33.192	1282.484	1096.711
-19.736	33.095	1281.030	1094.858
-18.721	33.131	1279.774	1093.951
-17.706	33.049	1278.503	1092.350
-16.692	33.116	1277.371	1091.722
-15.677	33.167	1276.332	1091.089
-14.663	33.076	1275.571	1089.869
-13.648	32.977	1274.339	1088.204
-12.633	33.057	1273.680	1088.056
-11.619	32.994	1272.769	1086.871
-10.604	33.020	1271.538	1085.929
-9.590	33.062	1270.736	1085.438
-8.575	33.034	1269.925	1084.543
-7.560	32.919	1268.708	1082.801
-6.546	33.142	1267.541	1083.043
-5.531	32.978	1267.614	1082.123
-4.517	33.044	1266.477	1081.485
-3.502	33.149	1265.509	1081.219
-2.487	33.040	1264.830	1079.970
-1.473	33.103	1260.670	1076.733
-0.458	32.075	1246.174	1058.521
0.556	27.603	1229.295	1022.373
1.571	24.154	1235.287	1007.791
2.586	23.199	1251.205	1015.211
3.600	22.513	1239.938	1002.076
4.615	17.193	1167.057	914.533
5.629	9.176	1091.256	814.551
6.644	5.283	1070.516	779.602
7.659	4.952	1068.421	776.359
8.673	4.858	1067.232	774.959
9.688	4.769	1065.997	773.556
10.702	5.144	1063.758	773.720
11.717	10.228	1071.611	804.697
12.731	17.497	1081.372	848.305
13.746	19.363	1082.888	858.718
14.761	18.192	1080.884	851.229
15.775	16.999	1078.510	843.358
16.790	15.921	1076.597	836.435
17.804	15.124	1075.130	831.270
18.819	14.867	1073.675	828.798
19.834	14.649	1072.920	827.058
20.848	14.314	1072.133	824.720
21.863	14.239	1070.913	823.341
22.877	14.005	1070.934	822.123
23.892	14.016	1069.770	821.211
24.907	14.041	1068.929	820.619
25.921	14.042	1067.718	819.623
26.936	14.005	1066.561	818.478
27.950	13.993	1065.222	817.319
28.965	14.168	1063.714	816.948
29.980	14.273	1061.970	816.050
30.994	14.471	1060.632	815.921
32.009	14.281	1060.033	814.459
33.023	14.249	1058.828	813.303
34.038	14.200	1057.697	812.125
35.053	14.111	1056.909	811.016
36.067	14.097	1056.051	810.216
37.082	14.152	1055.001	809.604
38.096	14.128	1054.419	808.971
39.111	14.231	1053.455	808.659
40.126	14.108	1051.996	806.871
41.140	13.945	1051.154	805.363
42.155	13.885	1050.112	804.204
43.169	13.989	1048.852	803.672
44.184	13.940	1047.415	802.261
45.199	13.890	1047.081	801.692
46.213	14.151	1045.217	801.452
47.228	14.106	1044.715	800.783
48.242	14.135	1043.957	800.270
49.257	14.082	1042.544	798.860
50.271	14.183	1041.746	798.665
51.286	14.256	1040.792	798.210
52.301	14.187	1039.908	797.133
53.315	14.120	1038.663	795.786
54.330	14.057	1037.681	794.661
55.344	14.021	1036.849	793.784
56.359	14.082	1035.822	793.218
57.374	14.060	1034.914	792.348
58.388	13.945	1033.936	790.981
59.403	13.891	1033.381	790.228
60.417	13.940	1032.504	789.723
61.432	13.887	1031.823	788.879
62.447	13.880	1030.705	787.921
63.461	13.875	1030.010	787.298
64.476	13.752	1029.369	786.153
65.490	13.745	1028.651	785.501
66.505	13.840	1027.560	785.048
67.520	13.954	1027.050	785.128
68.534	13.915	1026.154	784.189
69.549	13.928	1025.359	783.577
70.563	13.942	1024.530	782.940
71.578	13.814	1023.798	781.708
72.593	13.632	1023.380	780.464
73.607	13.745	1022.314	780.110
74.622	13.660	1022.270	779.610
75.636	13.850	1020.941	779.419
76.651	13.883	1019.974	778.767
77.666	13.815	1019.705	778.174
78.680	13.914	1018.895	777.949
79.695	13.893	1018.187	777.241
80.709	13.795	1018.022	776.591
81.724	13.890	1017.151	776.302
82.739	13.990	1016.528	776.222
83.753	14.091	1015.810	776.075
84.768	14.231	1015.052	776.080
85.782	14.230	1013.899	775.129
86.797	14.291	1013.024	774.676
87.812	14.051	1012.176	772.840
88.826	14.033	1011.514	772.184
89.841	14.112	1010.788	771.928
90.855	14.227	1009.333	771.283
91.870	14.263	1008.410	770.675
92.884	14.184	1007.974	769.906
93.899	14.299	1006.698	769.398
94.914	14.490	1005.589	769.362
95.928	14.293	1005.072	767.989
96.943	14.314	1003.999	767.198
97.957	14.134	1003.385	765.831
98.972	14.183	1002.845	765.577
99.987	14.293	1001.362	764.885
101.001	14.298	1000.406	764.109
102.016	14.142	1000.153	763.133
103.030	14.213	999.189	762.657
104.045	14.260	998.270	762.100
105.060	14.203	997.366	761.082
106.074	14.151	996.395	760.038
107.089	13.945	995.387	758.262
108.103	13.934	994.326	757.337
109.118	13.960	993.548	756.795
110.133	13.977	992.533	756.032
111.147	14.026	991.559	755.446
112.162	14.016	990.843	754.790
113.176	13.933	990.537	754.109
114.191	14.101	989.666	754.144
115.206	14.109	988.618	753.315
116.220	14.024	987.954	752.356
117.235	14.084	986.475	751.436
118.249	14.040	985.832	750.678
119.264	14.142	985.010	750.448
120.279	14.129	984.226	749.726
121.293	13.949	983.555	748.339
122.308	13.915	982.746	747.504
123.322	13.877	981.750	746.507
124.337	13.950	980.775	746.027
125.352	13.916	980.016	745.232
126.366	14.101	978.452	744.806
127.381	13.861	977.811	743.178
128.395	13.891	977.152	742.746
129.410	14.039	976.078	742.524
130.424	13.888	975.420	741.282
131.439	14.106	974.602	741.570
132.454	14.116	974.058	741.134
133.468	14.208	972.866	740.571
134.483	14.101	972.257	739.568
135.497	14.214	971.041	739.077
136.512	14.060	970.310	737.774
137.527	14.065	969.225	736.906
138.541	14.236	968.831	737.298
139.556	14.099	968.313	736.229
140.570	14.247	967.500	736.203
141.585	14.352	966.576	735.900
142.600	14.309	965.735	735.003
143.614	14.433	964.610	734.627
144.629	14.449	963.847	734.051
145.643	14.444	963.082	733.384
146.658	14.245	961.969	731.597
147.673	14.201	961.072	730.656
148.687	14.195	960.305	729.982
149.702	14.209	959.410	729.297
150.716	14.163	959.009	728.727
151.731	14.159	957.862	727.776
152.746	14.071	957.594	727.122
153.760	14.190	957.340	727.383
154.775	14.292	956.308	726.980
155.789	14.439	955.490	726.935
156.804	14.416	954.622	726.111
157.819	14.458	954.161	725.879
158.833	14.460	953.376	725.228
159.848	14.401	952.951	724.583
160.862	14.358	951.920	723.549
161.877	14.239	950.693	722.034
162.892	14.175	949.823	721.034
163.906	14.151	948.947	720.202
164.921	14.221	948.618	720.189
165.935	14.354	946.993	719.467
166.950	14.351	946.571	719.069
167.964	14.398	945.562	718.443
168.979	14.432	944.343	717.598
169.994	14.259	944.045	716.566
171.008	14.332	943.190	716.164
172.023	14.386	942.487	715.799
173.037	14.575	941.614	715.886
174.052	14.568	941.073	715.383
175.067	14.390	940.613	714.206
176.081	14.338	940.408	713.764
177.096	14.254	939.590	712.718
178.110	14.375	938.847	712.611
179.125	14.447	937.834	712.087
180.140	14.428	937.647	711.801
181.154	14.329	937.445	711.159
182.169	14.598	936.432	711.477
183.183	14.592	935.789	710.898
184.198	14.541	935.108	710.102
185.213	14.539	934.859	709.842
186.227	14.609	933.844	709.307
187.242	14.615	933.327	708.874
188.256	14.749	932.760	708.953
189.271	14.780	931.342	707.942
190.286	14.613	930.707	706.691
191.300	14.418	930.056	705.310
192.315	14.297	929.384	704.224
193.329	14.366	928.851	704.050
194.344	14.449	928.473	704.052
195.359	14.572	927.616	703.859
196.373	14.569	927.259	703.511
197.388	14.767	927.118	704.177
198.402	14.848	926.163	703.731
199.417	14.931	925.527	703.536
200.432	14.860	925.148	702.887
201.446	14.964	924.626	702.863
202.461	14.940	924.332	702.478
203.475	14.916	923.649	701.797
204.490	14.924	922.432	700.844
205.504	15.061	921.730	700.822
206.519	14.874	921.084	699.487
207.534	14.790	920.347	698.512
208.548	14.787	920.391	698.473
209.563	14.779	919.662	697.821
210.577	14.837	919.127	697.599
211.592	14.913	918.554	697.418
212.607	15.014	917.073	696.650
213.621	15.080	916.482	696.417
214.636	14.996	915.888	695.553
215.650	14.927	915.504	694.914
216.665	15.109	914.588	694.911
217.680	15.094	913.743	694.148
218.694	15.102	913.084	693.617
219.709	15.065	912.732	693.138
220.723	15.150	911.805	692.722
221.738	15.108	911.029	691.899
222.753	15.136	910.251	691.361
223.767	15.070	910.209	690.994
224.782	15.160	909.876	691.055
225.796	15.327	908.937	690.967
226.811	15.161	908.402	689.815
227.826	15.214	907.227	689.082
228.840	15.124	906.824	688.345
229.855	15.128	905.874	687.576
230.869	15.258	904.754	687.200
231.884	15.058	904.503	686.130
232.899	15.174	903.878	686.068
233.913	15.199	903.033	685.468
234.928	15.183	902.264	684.758
235.942	15.132	901.976	684.273
236.957	15.122	901.459	683.778
237.972	15.270	900.828	683.841
238.986	15.200	900.198	683.017
240.001	15.215	899.469	682.467
241.015	15.227	898.958	682.068
242.030	15.296	898.094	681.630
243.045	15.346	896.963	680.917
244.059	15.229	897.247	680.597
245.074	15.196	896.621	679.928
246.088	15.430	895.675	680.097
247.103	15.443	895.348	679.842
248.117	15.577	894.102	679.378
249.132	15.527	894.305	679.271
250.147	15.728	893.853	679.679
251.161	15.637	892.812	678.461
252.176	15.703	892.120	678.140
253.190	15.744	891.737	677.952
254.205	15.749	891.007	677.358
255.220	15.864	889.885	676.908
256.234	15.842	889.499	676.469
257.249	15.861	888.841	675.983
258.263	15.892	888.029	675.432
259.278	15.996	887.107	675.087
260.293	15.812	887.012	674.217
261.307	15.872	886.290	673.849
262.322	15.840	886.052	673.479
263.336	15.901	884.828	672.736
264.351	15.977	883.926	672.290
265.366	16.071	883.536	672.311
266.380	16.003	883.101	671.648
267.395	15.841	882.572	670.542
268.409	15.908	881.231	669.730
269.424	16.053	880.610	669.775
270.439	16.032	880.283	669.383
271.453	15.937	879.237	668.153
272.468	15.967	878.934	667.982
273.482	15.998	878.440	667.670
274.497	15.951	877.946	667.051
275.512	15.944	877.092	666.314
276.526	16.061	876.534	666.294
277.541	16.118	876.137	666.160
278.555	16.058	875.447	665.338
279.570	16.188	875.038	665.480
280.585	16.249	874.219	665.037
281.599	16.000	873.605	663.534
282.614	16.032	872.566	662.812
283.628	16.171	872.066	662.920
284.643	16.131	871.619	662.363
285.657	16.144	870.913	661.819
286.672	16.218	870.226	661.529
287.687	16.149	869.538	660.678
288.701	16.167	869.155	660.396
289.716	16.125	869.014	660.066
290.730	16.228	868.126	659.737
291.745	16.247	867.568	659.331
292.760	16.303	867.130	659.158
293.774	16.300	866.444	658.566
294.789	16.216	865.818	657.704
295.803	16.310	864.578	657.071
296.818	16.245	864.051	656.358
297.833	16.188	863.553	655.700
298.847	16.358	862.741	655.688
299.862	16.363	862.212	655.243
300.876	16.478	862.164	655.596
301.891	16.430	861.379	654.755
302.906	16.553	860.668	654.635
303.920	16.569	860.225	654.302
304.935	16.637	859.805	654.186
305.949	16.586	858.831	653.189
306.964	16.526	858.492	652.641
307.979	16.593	857.735	652.267
308.993	16.700	857.168	652.192
310.008	16.590	856.975	651.562
311.022	16.627	856.086	650.973
312.037	16.514	855.763	650.232
313.052	16.457	855.198	649.529
314.066	16.386	854.379	648.575
315.081	16.463	854.076	648.585
316.095	16.516	852.912	647.845
317.110	16.561	852.455	647.615
318.125	16.611	852.279	647.613
319.139	16.333	851.812	646.137
320.154	16.592	851.328	646.706
321.168	16.597	850.929	646.361
322.183	16.504	850.383	645.537
323.197	16.517	849.944	645.194
324.212	16.579	849.092	644.730
325.227	16.708	848.493	644.709
326.241	16.724	847.537	643.986
327.256	16.618	847.278	643.328
328.270	16.634	846.447	642.702
329.285	16.607	846.149	642.313
330.300	16.508	845.836	641.646
331.314	16.597	845.039	641.321
332.329	16.704	845.042	641.672
333.343	16.747	844.228	641.162
334.358	16.734	844.045	640.917
335.373	16.762	843.252	640.363
336.387	16.800	843.212	640.418
337.402	16.909	842.813	640.470
338.416	17.047	842.334	640.572
339.431	16.946	842.056	639.923
340.446	16.982	841.744	639.765
341.460	17.028	841.046	639.352
342.475	17.004	840.803	639.017
343.489	17.072	840.264	638.807
344.504	17.223	839.522	638.756
345.519	17.147	839.282	638.231
346.533	17.140	838.818	637.797
347.548	17.031	838.147	636.818
348.562	16.921	837.571	635.911
349.577	16.936	836.974	635.461
350.592	16.973	836.229	634.976
351.606	16.915	835.586	634.215
352.621	17.002	835.084	634.104
353.635	17.019	834.683	633.805
354.650	16.974	834.050	633.100
355.665	17.072	833.151	632.727
356.679	17.008	832.674	632.070
357.694	17.265	831.903	632.386
358.708	17.197	831.329	631.640
359.723	17.188	830.925	631.247
360.738	17.053	830.618	630.455
361.752	17.143	830.025	630.283
362.767	17.328	829.436	630.465
363.781	17.427	828.536	630.092
364.796	17.466	828.117	629.862
365.810	17.435	827.627	629.320
366.825	17.602	826.986	629.393
367.840	17.452	826.811	628.651
368.854	17.434	826.670	628.421
369.869	17.434	826.079	627.915
370.883	17.455	825.138	627.224
371.898	17.521	825.154	627.423
372.913	17.547	824.639	627.071
373.927	17.505	824.374	626.659
374.942	17.544	823.902	626.388
375.956	17.503	823.522	625.894
376.971	17.610	823.279	626.048
377.986	17.729	822.386	625.750
379.000	17.819	821.804	625.581
380.015	17.662	821.671	624.847
381.029	17.814	820.524	624.476
382.044	17.665	820.084	623.542
383.059	17.735	819.714	623.461
384.073	17.597	819.235	622.540
385.088	17.569	818.603	621.901
386.102	17.637	817.680	621.392
387.117	17.505	817.807	620.951
388.132	17.659	816.911	620.778
389.146	17.679	816.765	620.685
390.161	17.711	816.001	620.168
391.175	17.679	815.434	619.566
392.190	17.760	814.867	619.373
393.205	17.674	814.308	618.580
394.219	17.654	814.161	618.340
395.234	17.680	813.725	618.051
396.248	17.554	813.438	617.319
397.263	17.671	812.753	617.170
398.278	17.563	812.648	616.645
399.292	17.739	811.973	616.714
400.307	17.767	811.136	616.127
401.321	17.681	811.027	615.677
402.336	17.729	810.460	615.366
403.350	17.786	809.974	615.148
404.365	17.786	809.727	614.907
405.380	17.943	809.171	614.995
406.394	17.928	808.605	614.456
407.409	18.125	808.173	614.782
408.423	18.184	808.036	614.835
409.438	18.212	807.437	614.426
410.453	18.050	807.518	613.852
411.467	18.205	806.870	613.859
412.482	18.060	806.244	612.811
413.496	18.263	805.978	613.281
414.511	18.207	805.598	612.739
415.526	18.242	805.227	612.527
416.540	18.292	804.279	611.929
417.555	18.268	804.027	611.598
418.569	18.370	803.863	611.782
419.584	18.124	803.720	610.743
420.599	18.142	803.141	610.313
421.613	153.937	1370.957	1790.511
422.628	133.475	1453.707	1790.607
