DTS Sentinel unit serial number:	SN413079Multiplexer serial number:	ORYXHardware model number:	OX4-SRSoftware version number:	ORYX F/W v4.00 Oryx Data Collector v3.7.2.0data status	okinstallation	princeton_trtdifferential loss correction	single-endedforward channel	channel 1reverse channel	N/Adate	2019/09/14time	03:54:35forward acquisition time	60.00reverse acquisition time	0.00gamma	496.2192k internal	0.2335k external	0.2335temperature offset calibration	1.0078default loss term (dB/km)	0.3790temperature slope calibration	1.0000multiplexer offset coefficient	1.0000multiplexer slope coefficient	1.0000fibre end	0.00T internal ref (°C)	26.66T ext. ref 1 (°C)	3.31T ext. ref 2 (°C)	21.70length (m)	temperature (°C)	Stokes	anti-Stokes-747.200	-75.592	-0.269	0.096
-746.185	54.940	-0.194	-0.189
-745.171	-35.048	-0.155	-0.085
-744.156	-200.000	0.002	-0.084
-743.142	382.384	0.127	0.263
-742.127	-200.000	0.075	0.477
-741.112	-103.878	-0.240	0.056
-740.098	-200.000	-0.013	0.164
-739.083	39.839	-0.028	0.025
-738.069	361.424	-0.121	0.244
-737.054	168.425	-0.229	0.328
-736.039	-200.000	0.001	-0.064
-735.025	-150.561	0.394	0.030
-734.010	192.479	-0.228	-0.346
-732.996	-129.867	-0.083	0.011
-731.981	-63.473	-0.189	-0.078
-730.966	88.714	0.277	0.310
-729.952	-4.889	0.109	0.075
-728.937	638.777	0.063	0.162
-727.923	558.302	-0.023	-0.055
-726.908	800.000	-0.094	-0.351
-725.894	365.192	-0.089	0.179
-724.879	181.504	0.222	-0.328
-723.864	-200.000	0.018	-0.254
-722.850	0.171	0.354	0.253
-721.835	1.658	-0.155	-0.112
-720.821	73.562	-0.386	0.405
-719.806	-200.000	-0.001	0.161
-718.791	225.204	-0.145	0.236
-717.777	-99.971	0.348	0.087
-716.762	-70.112	0.205	0.078
-715.748	-16.629	0.289	-0.184
-714.733	-200.000	0.238	0.001
-713.718	-8.825	-0.042	-0.028
-712.704	74.245	-0.140	-0.148
-711.689	52.079	0.153	0.146
-710.675	-57.453	-0.166	-0.073
-709.660	-6.676	-0.341	-0.233
-708.645	1.331	-0.246	-0.178
-707.631	176.511	0.150	0.218
-706.616	-66.273	-0.073	-0.029
-705.602	34.376	0.186	0.163
-704.587	-200.000	-0.025	0.317
-703.572	-28.099	0.081	-0.047
-702.558	396.513	0.152	-0.319
-701.543	-200.000	-0.039	-0.343
-700.529	-25.575	-0.021	-0.012
-699.514	-51.444	-0.114	-0.053
-698.499	364.272	0.240	-0.484
-697.485	-2.601	-0.121	0.085
-696.470	-200.000	0.013	0.078
-695.456	-200.000	-0.010	-0.125
-694.441	46.005	0.145	-0.135
-693.426	-17.090	-0.310	-0.196
-692.412	244.707	-0.091	0.154
-691.397	0.550	-0.127	-0.091
-690.383	405.764	-0.081	-0.172
-689.368	800.000	0.089	0.270
-688.354	162.564	-0.214	-0.301
-687.339	206.013	-0.022	0.034
-686.324	-131.275	0.043	0.006
-685.310	291.991	0.232	-0.424
-684.295	-33.808	0.207	0.114
-683.281	-136.561	-0.445	-0.052
-682.266	5.857	0.075	0.056
-681.251	-117.619	-0.060	0.011
-680.237	300.899	0.071	-0.131
-679.222	-139.022	0.331	-0.036
-678.208	59.000	-0.271	-0.267
-677.193	71.673	-0.018	-0.019
-676.178	37.791	-0.253	-0.225
-675.164	-98.940	-0.280	-0.071
-674.149	-60.781	-0.289	0.123
-673.135	-115.919	0.213	0.040
-672.120	196.063	-0.096	-0.147
-671.105	127.569	-0.123	-0.156
-670.091	800.000	0.100	0.309
-669.076	-126.428	-0.479	-0.071
-668.062	459.330	0.037	0.083
-667.047	362.731	-0.159	0.320
-666.032	-55.902	0.179	-0.080
-665.018	395.109	-0.067	-0.140
-664.003	58.028	-0.145	0.142
-662.989	290.324	-0.150	-0.273
-661.974	-3.034	-0.255	0.178
-660.959	352.146	-0.008	0.016
-659.945	286.423	0.067	0.120
-658.930	578.794	-0.060	0.146
-657.916	18.947	-0.245	-0.197
-656.901	-139.289	0.117	0.013
-655.886	-32.559	-0.306	0.171
-654.872	11.903	-0.163	-0.125
-653.857	244.708	0.058	0.097
-652.843	800.000	0.144	0.446
-651.828	-123.284	0.465	0.074
-650.814	-200.000	-0.011	-0.232
-649.799	-124.971	-0.242	-0.037
-648.784	710.853	-0.026	-0.069
-647.770	-88.501	0.136	0.041
-646.755	-200.000	0.026	0.127
-645.741	-200.000	0.018	0.192
-644.726	-117.218	0.081	0.015
-643.711	-161.370	-0.418	-0.022
-642.697	-200.000	0.033	0.377
-641.682	301.576	-0.042	0.077
-640.668	67.650	-0.140	0.143
-639.653	-200.000	0.028	-0.283
-638.638	-76.848	-0.288	-0.101
-637.624	-99.595	0.217	0.055
-636.609	156.286	-0.158	-0.218
-635.595	-99.316	-0.648	-0.164
-634.580	-103.732	0.298	-0.070
-633.565	-173.799	0.364	-0.011
-632.551	247.023	0.096	-0.163
-631.536	-200.000	-0.006	-0.044
-630.522	46.856	-0.202	0.188
-629.507	-142.586	0.202	0.020
-628.492	-200.000	0.041	-0.220
-627.478	-38.020	-0.240	0.127
-626.463	800.000	0.070	-0.195
-625.449	-11.887	0.394	-0.258
-624.434	46.903	0.262	0.243
-623.419	-171.566	0.281	-0.009
-622.405	65.464	-0.100	0.101
-621.390	267.764	0.170	-0.298
-620.376	-200.000	-0.038	0.261
-619.361	-11.351	0.140	0.092
-618.346	-165.575	0.283	0.012
-617.332	377.628	0.155	-0.316
-616.317	6.980	0.397	0.296
-615.303	229.970	-0.072	-0.117
-614.288	-152.172	0.418	0.030
-613.273	386.937	0.041	0.084
-612.259	425.603	-0.065	0.140
-611.244	-139.521	-0.182	0.019
-610.230	-200.000	0.031	0.301
-609.215	-126.350	-0.201	-0.030
-608.201	16.144	0.167	0.132
-607.186	-122.005	-0.113	-0.019
-606.171	80.606	0.284	-0.305
-605.157	-57.029	0.140	-0.062
-604.142	72.421	-0.093	-0.097
-603.128	461.482	-0.043	-0.096
-602.113	26.152	-0.215	-0.179
-601.098	-11.098	0.121	0.080
-600.084	-115.153	-0.407	-0.077
-599.069	787.317	-0.051	0.141
-598.055	-63.585	0.029	0.012
-597.040	388.765	0.142	-0.294
-596.025	-11.130	0.344	0.227
-595.011	-99.212	0.183	-0.046
-593.996	87.803	-0.267	-0.295
-592.982	800.000	-0.093	0.397
-591.967	-73.322	-0.245	-0.089
-590.952	155.492	0.115	0.158
-589.938	-182.295	-0.176	-0.003
-588.923	-106.873	-0.236	0.052
-587.909	-200.000	-0.070	0.311
-586.894	-181.831	0.239	-0.005
-585.879	148.758	0.181	0.244
-584.865	102.150	-0.201	0.235
-583.850	136.187	0.132	-0.172
-582.836	271.981	-0.019	-0.034
-581.821	-7.036	0.190	-0.129
-580.806	-80.973	-0.124	-0.041
-579.792	314.951	-0.150	0.282
-578.777	90.891	-0.029	0.033
-577.763	-103.098	-0.060	0.014
-576.748	18.787	-0.277	-0.222
-575.733	298.665	-0.056	-0.103
-574.719	59.856	-0.103	-0.101
-573.704	12.725	-0.091	0.070
-572.690	-69.408	0.127	0.049
-571.675	46.571	0.151	0.140
-570.661	-200.000	-0.015	0.181
-569.646	-72.044	-0.242	-0.090
-568.631	-36.026	-0.144	0.078
-567.617	-200.000	-0.016	0.082
-566.602	54.183	0.087	-0.083
-565.588	23.361	0.234	-0.192
-564.573	-200.000	0.027	0.459
-563.558	-57.760	-0.235	-0.103
-562.544	36.598	0.210	-0.185
-561.529	-112.913	0.292	-0.058
-560.515	-140.616	0.260	0.027
-559.500	-103.038	-0.071	0.017
-558.485	1.192	-0.193	0.138
-557.471	-136.234	0.057	-0.007
-556.456	-26.195	-0.200	0.117
-555.442	451.171	0.087	-0.192
-554.427	-200.000	-0.016	0.232
-553.412	513.888	0.080	-0.186
-552.398	459.016	-0.073	-0.161
-551.383	800.000	-0.051	0.182
-550.369	-28.428	-0.246	-0.141
-549.354	-148.811	-0.432	0.035
-548.339	-83.775	-0.224	-0.071
-547.325	-200.000	-0.027	-0.276
-546.310	-28.727	-0.276	0.158
-545.296	99.373	-0.089	-0.103
-544.281	-200.000	0.039	-0.466
-543.266	99.211	-0.097	0.111
-542.252	155.495	0.165	-0.227
-541.237	-60.101	-0.332	-0.141
-540.223	-44.234	0.226	-0.113
-539.208	-180.143	-0.162	0.003
-538.193	14.908	-0.036	0.028
-537.179	-34.841	0.371	-0.202
-536.164	-147.227	-0.292	0.025
-535.150	367.728	0.032	-0.064
-534.135	26.823	0.276	0.231
-533.121	317.563	-0.111	0.209
-532.106	800.000	0.098	0.362
-531.091	800.000	0.010	0.039
-530.077	-76.431	-0.144	0.050
-529.062	800.000	0.115	0.421
-528.048	800.000	0.079	0.222
-527.033	-7.715	-0.276	-0.186
-526.018	4.387	0.212	0.155
-525.004	277.404	-0.184	0.326
-523.989	-106.044	0.317	-0.071
-522.975	-38.635	0.262	-0.138
-521.960	9.439	0.083	-0.063
-520.945	-17.848	0.351	0.219
-519.931	-3.651	-0.145	0.100
-518.916	-200.000	0.072	0.321
-517.902	-104.066	-0.212	-0.049
-516.887	800.000	0.049	-0.143
-515.872	-169.723	0.096	0.003
-514.858	79.756	0.154	0.164
-513.843	498.393	0.028	-0.064
-512.829	391.726	0.047	-0.098
-511.814	168.812	-0.246	0.350
-510.799	-45.261	0.041	0.020
-509.785	-54.078	0.335	-0.152
-508.770	-79.010	-0.246	0.083
-507.756	-200.000	0.040	0.386
-506.741	-200.000	0.017	-0.203
-505.726	155.110	-0.110	0.150
-504.712	33.634	0.022	0.019
-503.697	280.942	0.090	0.161
-502.683	-200.000	-0.009	-0.157
-501.668	-36.699	0.261	-0.140
-500.653	-14.942	0.040	0.026
-499.639	-200.000	0.047	-0.415
-498.624	800.000	0.042	-0.182
-497.610	94.961	-0.141	0.160
-496.595	-200.000	-0.001	0.176
-495.581	-69.426	0.431	0.164
-494.566	193.013	-0.185	-0.278
-493.551	13.144	-0.182	-0.140
-492.537	-94.683	-0.263	-0.071
-491.522	-136.840	-0.195	0.022
-490.508	50.525	-0.032	-0.031
-489.493	121.013	-0.162	0.200
-488.478	-66.926	-0.143	-0.056
-487.464	800.000	-0.046	-0.167
-486.449	-200.000	0.019	-0.173
-485.435	54.877	0.074	0.071
-484.420	143.214	-0.098	-0.130
-483.405	-119.041	0.166	0.029
-482.391	200.505	-0.253	0.387
-481.376	-69.221	0.108	0.041
-480.362	-16.248	-0.159	-0.100
-479.347	-102.058	-0.246	-0.059
-478.332	704.963	0.042	0.110
-477.318	79.084	0.061	-0.065
-476.303	-200.000	0.039	0.234
-475.289	192.952	0.099	-0.148
-474.274	800.000	0.043	-0.123
-473.259	162.299	0.273	0.381
-472.245	-6.588	-0.029	-0.020
-471.230	154.353	0.074	-0.102
-470.216	-48.773	0.097	-0.046
-469.201	711.263	0.181	0.476
-468.186	-11.359	-0.060	0.039
-467.172	-57.665	0.477	0.208
-466.157	-34.362	0.057	-0.031
-465.143	58.972	-0.064	0.062
-464.128	420.133	0.049	0.105
-463.113	741.442	0.061	-0.162
-462.099	800.000	-0.009	0.036
-461.084	-144.278	0.539	0.050
-460.070	800.000	0.136	-0.427
-459.055	800.000	-0.042	0.163
-458.040	45.133	0.139	-0.128
-457.026	-145.829	0.333	0.029
-456.011	-69.458	0.216	0.082
-454.997	133.392	0.107	-0.138
-453.982	-27.087	-0.273	0.158
-452.968	-65.346	-0.241	0.097
-451.953	151.450	0.242	0.328
-450.938	37.564	-0.125	-0.110
-449.924	800.000	0.052	-0.174
-448.909	159.938	-0.141	0.196
-447.895	301.235	0.103	0.189
-446.880	-200.000	-0.006	0.105
-445.865	-61.443	-0.376	0.157
-444.851	356.948	0.164	-0.326
-443.836	-200.000	-0.008	0.078
-442.822	-56.795	0.281	0.123
-441.807	800.000	0.027	-0.079
-440.792	-23.403	0.281	0.167
-439.778	89.861	0.195	-0.216
-438.763	138.854	0.216	0.282
-437.749	-138.684	0.145	0.016
-436.734	-18.442	-0.195	-0.121
-435.719	25.495	-0.048	0.039
-434.705	326.275	0.135	0.256
-433.690	-184.447	0.046	0.001
-432.676	-67.878	0.159	0.061
-431.661	-96.038	0.042	0.011
-430.646	603.275	-0.097	0.240
-429.632	413.252	-0.157	-0.332
-428.617	123.472	-0.131	0.163
-427.603	-99.273	0.061	-0.015
-426.588	359.932	-0.081	-0.161
-425.573	800.000	0.081	0.250
-424.559	800.000	-0.072	-0.242
-423.544	-200.000	0.029	-0.379
-422.530	253.849	0.063	0.107
-421.515	288.162	-0.082	-0.147
-420.500	82.980	-0.169	0.183
-419.486	-80.094	0.005	-0.002
-418.471	39.603	0.218	-0.194
-417.457	-146.904	-0.198	0.017
-416.442	99.849	-0.235	0.270
-415.428	-153.137	0.497	0.035
-414.413	644.263	-0.061	0.155
-413.398	-200.000	-0.034	-0.266
-412.384	302.896	0.050	-0.092
-411.369	-48.304	0.150	-0.072
-410.355	153.113	-0.296	0.401
-409.340	196.921	-0.063	0.096
-408.325	800.000	0.096	0.323
-407.311	60.841	-0.125	0.122
-406.296	-200.000	-0.007	-0.087
-405.282	-200.000	-0.032	-0.205
-404.267	-200.000	-0.026	-0.312
-403.252	-200.000	0.030	-0.216
-402.238	-88.461	0.108	-0.032
-401.223	-118.759	0.234	-0.041
-400.209	13.556	-0.196	-0.151
-399.194	-158.858	0.084	0.005
-398.179	383.702	-0.118	-0.240
-397.165	800.000	-0.128	-0.401
-396.150	46.211	-0.279	0.256
-395.136	-6.915	-0.263	-0.177
-394.121	91.394	-0.077	-0.086
-393.106	-39.007	-0.323	-0.169
-392.092	-200.000	-0.061	0.377
-391.077	-129.280	0.091	0.013
-390.063	96.006	-0.122	0.138
-389.048	-69.494	0.097	-0.037
-388.033	-113.655	-0.265	-0.051
-387.019	87.466	-0.134	0.147
-386.004	-200.000	0.056	0.253
-384.990	-200.000	0.004	-0.044
-383.975	-24.634	-0.416	0.245
-382.960	4.333	0.193	0.140
-381.946	800.000	-0.090	-0.269
-380.931	-118.676	0.425	-0.074
-379.917	-32.426	0.234	-0.129
-378.902	29.154	-0.106	0.089
-377.888	-200.000	-0.011	-0.096
-376.873	-99.294	0.118	0.030
-375.858	87.633	-0.189	-0.207
-374.844	-15.802	-0.079	-0.050
-373.829	800.000	0.012	0.037
-372.815	133.078	-0.290	0.372
-371.800	-87.694	-0.198	-0.059
-370.785	-43.710	-0.141	0.070
-369.771	26.406	0.106	0.088
-368.756	-102.986	-0.209	0.049
-367.742	-122.969	-0.216	-0.034
-366.727	319.518	-0.169	-0.317
-365.712	337.085	-0.099	-0.190
-364.698	216.309	-0.245	-0.386
-363.683	-200.000	-0.017	-0.213
-362.669	-55.076	-0.632	-0.282
-361.654	-200.000	0.052	-0.362
-360.639	-14.177	0.566	-0.361
-359.625	-200.000	0.000	-0.033
-358.610	-153.829	0.134	0.009
-357.596	28.441	0.258	-0.215
-356.581	19.011	-0.241	0.191
-355.566	-46.555	-0.052	-0.025
-354.552	-6.344	-0.095	0.064
-353.537	120.092	-0.082	0.100
-352.523	205.990	0.199	-0.306
-351.508	44.535	0.360	-0.328
-350.493	-200.000	0.034	0.242
-349.479	-109.201	0.190	-0.040
-348.464	76.152	0.044	0.046
-347.450	-160.397	0.136	-0.007
-346.435	-147.211	-0.287	-0.024
-345.420	-171.151	-0.192	0.006
-344.406	-47.283	0.215	0.104
-343.391	-48.382	-0.150	0.072
-342.377	123.226	-0.110	-0.136
-341.362	250.458	-0.080	0.134
-340.348	-198.388	0.340	0.002
-339.333	116.508	-0.133	0.161
-338.318	322.643	-0.152	-0.287
-337.304	214.667	0.110	-0.173
-336.289	-200.000	-0.037	0.167
-335.275	-73.663	0.233	-0.084
-334.260	-129.664	0.141	-0.019
-333.245	105.108	-0.239	-0.279
-332.231	-129.596	0.347	0.047
-331.216	-128.019	-0.293	-0.042
-330.202	34.140	0.379	0.327
-329.187	-101.671	0.261	0.063
-328.172	-200.000	0.061	0.280
-327.158	-200.000	0.039	0.204
-326.143	76.931	-0.126	-0.132
-325.129	395.343	0.139	0.287
-324.114	131.105	-0.120	-0.152
-323.099	41.104	-0.053	-0.047
-322.085	-111.323	0.286	0.058
-321.070	124.246	-0.161	0.200
-320.056	110.343	0.020	-0.023
-319.041	800.000	-0.044	-0.166
-318.026	-153.082	-0.207	0.014
-317.012	-78.537	-0.037	-0.013
-315.997	90.841	-0.163	0.180
-314.983	-112.473	0.269	0.053
-313.968	-200.000	0.034	-0.310
-312.953	-43.985	-0.227	0.113
-311.939	2.593	0.118	0.084
-310.924	53.218	0.170	-0.160
-309.910	800.000	-0.152	0.435
-308.895	-13.333	0.262	-0.168
-307.880	132.564	-0.149	-0.189
-306.866	-200.000	0.026	-0.252
-305.851	229.136	-0.067	0.108
-304.837	-128.950	-0.177	0.025
-303.822	800.000	-0.092	0.263
-302.807	383.812	-0.041	-0.083
-301.793	86.173	-0.143	0.155
-300.778	234.715	-0.135	-0.220
-299.764	-192.597	0.114	-0.001
-298.749	-91.924	-0.325	0.091
-297.735	182.745	0.081	0.118
-296.720	57.783	-0.137	0.133
-295.705	-45.437	0.380	-0.186
-294.691	800.000	-0.044	0.179
-293.676	428.074	-0.121	0.258
-292.662	-62.554	0.220	0.090
-291.647	352.992	0.121	0.237
-290.632	113.674	-0.176	-0.211
-289.618	-200.000	0.005	-0.165
-288.603	181.565	0.061	0.088
-287.589	34.831	0.097	0.084
-286.574	56.213	-0.088	0.085
-285.559	180.659	0.145	-0.211
-284.545	183.812	0.115	0.167
-283.530	800.000	0.097	0.270
-282.516	800.000	-0.073	0.262
-281.501	-200.000	0.072	0.485
-280.486	47.787	-0.176	0.162
-279.472	800.000	0.021	-0.057
-278.457	-108.327	-0.151	0.032
-277.443	-200.000	0.012	0.098
-276.428	-28.903	0.336	0.190
-275.413	43.597	0.034	0.030
-274.399	14.045	-0.123	-0.095
-273.384	-100.596	-0.093	0.023
-272.370	800.000	-0.065	-0.198
-271.355	-10.472	0.328	0.214
-270.340	-200.000	-0.018	0.108
-269.326	34.554	0.085	-0.073
-268.311	-48.008	0.461	-0.220
-267.297	414.828	0.099	-0.207
-266.282	400.608	0.017	0.035
-265.267	25.687	-0.149	-0.123
-264.253	-121.639	-0.210	-0.034
-263.238	-61.240	0.226	-0.094
-262.224	-200.000	-0.017	0.183
-261.209	-31.735	0.226	0.125
-260.195	-172.068	-0.443	0.014
-259.180	203.748	-0.049	0.075
-258.165	-129.660	-0.104	0.014
-257.151	14.934	-0.226	0.174
-256.136	-21.446	-0.152	-0.091
-255.122	-139.751	-0.311	-0.033
-254.107	-39.323	0.032	-0.017
-253.092	-74.600	0.244	0.087
-252.078	-64.252	-0.375	0.151
-251.063	198.291	-0.206	-0.310
-250.049	800.000	0.034	-0.116
-249.034	-200.000	0.020	0.301
-248.019	-108.553	-0.241	0.051
-247.005	88.754	0.043	-0.047
-245.990	-200.000	0.022	-0.168
-244.976	-180.734	0.111	-0.002
-243.961	-200.000	0.023	-0.129
-242.946	311.948	0.168	-0.310
-241.932	-119.461	0.165	-0.028
-240.917	-45.308	0.182	-0.089
-239.903	137.757	-0.158	0.204
-238.888	389.094	-0.096	-0.197
-237.873	1.170	-0.209	-0.148
-236.859	800.000	0.044	-0.134
-235.844	52.129	-0.147	0.138
-234.830	75.707	-0.336	-0.350
-233.815	190.541	-0.130	-0.192
-232.800	80.011	0.288	-0.305
-231.786	140.527	0.201	-0.261
-230.771	-14.363	0.278	0.176
-229.757	128.050	0.099	0.124
-228.742	-110.398	-0.281	-0.057
-227.727	-114.119	0.246	-0.047
-226.713	-133.083	-0.430	0.054
-225.698	800.000	0.032	0.109
-224.684	84.981	-0.236	-0.255
-223.669	800.000	0.048	0.189
-222.655	162.402	-0.274	0.378
-221.640	-149.262	0.133	0.010
-220.625	264.275	0.058	-0.099
-219.611	-101.451	0.223	-0.053
-218.596	800.000	-0.077	-0.280
-217.582	309.340	0.070	0.128
-216.567	338.086	0.028	-0.054
-215.552	-147.047	0.216	-0.018
-214.538	-200.000	0.053	0.233
-213.523	284.591	0.120	-0.213
-212.509	-101.552	-0.299	0.072
-211.494	800.000	0.090	-0.319
-210.479	-49.595	0.273	0.128
-209.465	87.043	-0.157	-0.170
-208.450	645.705	0.058	0.146
-207.436	-105.231	-0.274	-0.062
-206.421	-200.000	0.037	-0.175
-205.406	595.125	0.084	-0.203
-204.392	-116.112	-0.201	-0.037
-203.377	-93.353	0.060	-0.016
-202.363	447.789	-0.200	-0.433
-201.348	-128.606	-0.150	-0.021
-200.333	-130.683	0.146	0.019
-199.319	9.357	-0.224	0.166
-198.304	-200.000	0.030	0.438
-197.290	425.465	-0.045	0.095
-196.275	-200.000	0.014	-0.101
-195.260	82.403	0.099	-0.105
-194.246	-200.000	-0.016	0.069
-193.231	223.091	0.091	0.144
-192.217	-53.140	-0.021	0.010
-191.202	302.727	0.128	-0.233
-190.187	-200.000	-0.005	0.582
-189.173	-89.505	0.218	0.063
-188.158	-80.880	-0.323	0.105
-187.144	800.000	-0.043	-0.141
-186.129	20.934	0.090	-0.072
-185.114	9.509	-0.209	0.155
-184.100	-43.549	-0.056	-0.028
-183.085	104.762	0.095	0.110
-182.071	469.921	0.127	0.281
-181.056	256.186	-0.187	-0.315
-180.042	-163.934	0.230	0.011
-179.027	131.538	0.174	-0.220
-178.012	-47.914	-0.067	-0.032
-176.998	585.398	-0.087	-0.210
-175.983	-200.000	0.000	-0.213
-174.969	-77.418	0.380	0.130
-173.954	-42.495	0.082	0.041
-172.939	-200.000	0.113	-0.497
-171.925	397.384	-0.111	-0.227
-170.910	226.403	-0.039	-0.063
-169.896	-134.786	-0.045	-0.005
-168.881	59.852	-0.158	-0.154
-167.866	-175.947	-0.324	-0.008
-166.852	128.478	0.143	-0.179
-165.837	-17.570	0.123	-0.076
-164.823	-200.000	-0.030	0.202
-163.808	-77.432	-0.098	0.033
-162.793	247.900	0.018	0.030
-161.779	800.000	-0.008	-0.027
-160.764	10.782	0.171	-0.128
-159.750	397.788	0.063	0.129
-158.735	108.786	-0.108	-0.126
-157.720	70.080	0.054	-0.054
-156.706	234.385	-0.152	-0.245
-155.691	-104.492	0.114	0.026
-154.677	-200.000	0.052	0.000
-153.662	-87.997	-0.164	0.048
-152.647	189.753	0.098	0.144
-151.633	800.000	0.039	0.109
-150.618	800.000	-0.148	0.414
-149.604	118.324	-0.064	0.078
-148.589	800.000	0.033	0.103
-147.574	-81.740	0.281	0.090
-146.560	-99.963	-0.332	-0.081
-145.545	-133.618	-0.322	-0.039
-144.531	-200.000	0.017	-0.086
-143.516	-69.403	-0.224	-0.084
-142.502	49.855	-0.313	0.290
-141.487	47.493	0.143	0.131
-140.472	-200.000	0.053	0.385
-139.458	-6.208	0.319	-0.213
-138.443	-200.000	0.015	-0.079
-137.429	-168.363	-0.220	-0.008
-136.414	16.826	-0.141	0.110
-135.399	-117.760	0.259	0.046
-134.385	-52.274	-0.472	0.215
-133.370	-2.767	-0.267	-0.183
-132.356	-108.924	0.195	-0.041
-131.341	-125.930	0.200	-0.030
-130.326	800.000	0.168	0.484
-129.312	475.291	-0.093	0.205
-128.297	800.000	0.064	0.221
-127.283	-143.171	0.262	0.025
-126.268	-92.600	0.263	-0.072
-125.253	-56.934	-0.126	0.055
-124.239	513.836	0.101	0.230
-123.224	-177.876	0.410	0.010
-122.210	-200.000	0.008	-0.341
-121.195	-200.000	0.031	-0.264
-120.180	-81.532	0.203	-0.065
-119.166	800.000	0.034	-0.132
-118.151	74.371	-0.110	0.113
-117.137	634.739	0.059	-0.148
-116.122	800.000	0.070	0.243
-115.107	-2.925	0.266	-0.182
-114.093	204.924	0.066	0.100
-113.078	-200.000	-0.035	-0.164
-112.064	800.000	-0.106	-0.328
-111.049	-117.949	0.200	-0.035
-110.034	58.633	-0.054	0.052
-109.020	519.018	0.019	-0.044
-108.005	-87.079	-0.314	-0.094
-106.991	-200.000	0.005	0.069
-105.976	-200.000	-0.054	-0.341
-104.962	-67.504	-0.057	-0.022
-103.947	-12.829	0.101	0.064
-102.932	-124.127	0.330	-0.051
-101.918	-200.000	0.021	-0.165
-100.903	157.451	-0.168	-0.228
-99.889	349.290	0.021	0.040
-98.874	125.656	0.132	-0.163
-97.859	-102.423	-0.335	-0.079
-96.845	-200.000	-0.044	0.278
-95.830	299.516	0.129	-0.232
-94.816	33.102	0.046	0.039
-93.801	-134.140	0.323	0.039
-92.786	33.880	-0.262	0.223
-91.772	70.925	0.231	-0.234
-90.757	-200.000	-0.028	0.250
-89.743	0.218	0.215	-0.150
-88.728	279.135	-0.073	-0.128
-87.713	-120.322	-0.141	0.023
-86.699	297.660	0.143	0.256
-85.684	-10.752	-0.083	0.054
-84.670	-147.626	0.164	-0.014
-83.655	-200.000	-0.041	0.257
-82.640	-200.000	0.009	-0.083
-81.626	-9.766	0.130	0.085
-80.611	192.749	0.136	0.202
-79.597	-154.102	-0.281	-0.019
-78.582	800.000	-0.045	0.155
-77.567	242.461	0.041	-0.067
-76.553	153.943	0.225	-0.302
-75.538	800.000	0.127	-0.385
-74.524	248.180	-0.092	0.152
-73.509	252.133	0.044	-0.073
-72.494	5.142	-0.141	-0.102
-71.480	-200.000	0.013	0.121
-70.465	-200.000	0.007	0.334
-69.451	-19.592	-0.120	0.073
-68.436	-58.748	0.298	-0.126
-67.422	-157.844	-0.266	-0.015
-66.407	202.967	0.221	0.334
-65.392	35.896	-0.244	-0.210
-64.378	-200.000	-0.082	0.384
-63.363	-88.869	-0.312	-0.091
-62.349	-22.502	0.253	-0.150
-61.334	-11.265	-1.130	-0.728
-60.319	4.823	0.743	0.534
-59.305	800.000	-0.296	-1.174
-58.290	791.109	0.411	1.104
-57.276	407.332	0.667	1.379
-56.261	-200.000	116.960	651.752
-55.246	514.102	1539.555	3512.723
-54.232	175.207	2711.464	3841.702
-53.217	107.341	2159.312	2511.224
-52.203	38.419	1593.567	1388.779
-51.188	29.873	1336.313	1113.391
-50.173	27.162	1297.301	1064.984
-49.159	53.980	1355.210	1273.852
-48.144	52.166	1369.278	1276.189
-47.130	30.126	1323.816	1104.308
-46.115	26.758	1305.570	1069.215
-45.100	26.510	1300.443	1063.520
-44.086	26.361	1297.975	1060.585
-43.071	26.481	1295.440	1059.174
-42.057	26.408	1293.472	1057.096
-41.042	26.505	1291.717	1056.189
-40.027	26.518	1289.870	1054.710
-39.013	26.465	1288.465	1053.210
-37.998	26.554	1286.709	1052.252
-36.984	26.649	1284.435	1050.898
-35.969	26.705	1282.706	1049.769
-34.954	26.732	1280.760	1048.290
-33.940	26.606	1280.177	1047.044
-32.925	26.673	1278.455	1045.978
-31.911	26.814	1276.846	1045.434
-30.896	26.758	1275.550	1044.008
-29.881	26.765	1274.343	1043.024
-28.867	26.738	1272.711	1041.490
-27.852	26.935	1271.203	1041.344
-26.838	26.824	1270.045	1039.715
-25.823	26.683	1269.081	1038.080
-24.809	26.657	1267.698	1036.759
-23.794	26.653	1265.966	1035.276
-22.779	26.714	1264.548	1034.428
-21.765	26.683	1263.703	1033.516
-20.750	26.836	1262.155	1033.081
-19.736	26.655	1261.079	1031.130
-18.721	26.656	1259.661	1029.934
-17.706	26.671	1258.787	1029.266
-16.692	26.602	1257.773	1027.999
-15.677	26.573	1256.943	1027.118
-14.663	26.695	1255.210	1026.354
-13.648	26.641	1253.863	1024.903
-12.633	26.614	1253.135	1024.117
-11.619	26.581	1252.473	1023.348
-10.604	26.606	1251.771	1022.875
-9.590	26.542	1251.199	1022.005
-8.575	26.554	1249.924	1020.994
-7.560	26.584	1249.265	1020.580
-6.546	26.558	1248.211	1019.535
-5.531	26.560	1247.082	1018.581
-4.517	26.552	1246.338	1017.889
-3.502	26.599	1245.487	1017.416
-2.487	26.647	1244.578	1016.905
-1.473	26.449	1241.129	1012.941
-0.458	25.136	1225.545	992.915
0.556	22.049	1209.562	957.042
1.571	18.515	1215.859	942.548
2.586	17.582	1231.281	949.219
3.600	17.351	1219.196	938.543
4.615	13.044	1147.859	861.128
5.629	6.232	1077.079	774.513
6.644	3.395	1059.270	747.888
7.659	3.263	1056.538	745.255
8.673	3.251	1055.996	744.748
9.688	3.310	1054.366	743.816
10.702	3.557	1052.007	743.277
11.717	7.365	1057.601	765.574
12.731	14.742	1067.620	808.593
13.746	18.954	1073.166	833.171
14.761	19.644	1073.562	836.750
15.775	18.888	1071.584	831.479
16.790	17.819	1069.815	824.868
17.804	17.152	1067.904	820.100
18.819	16.802	1066.808	817.499
19.834	16.630	1066.516	816.373
20.848	16.537	1065.640	815.180
21.863	16.333	1064.473	813.234
22.877	16.047	1064.229	811.597
23.892	16.162	1063.377	811.430
24.907	16.169	1062.511	810.731
25.921	16.200	1061.130	809.756
26.936	16.201	1060.335	809.080
27.950	16.248	1058.756	808.030
28.965	16.233	1057.639	807.036
29.980	16.342	1055.896	806.152
30.994	16.344	1054.923	805.350
32.009	16.466	1053.643	804.881
33.023	16.466	1052.916	804.255
34.038	16.319	1051.600	802.479
35.053	16.257	1050.890	801.573
36.067	16.178	1049.968	800.421
37.082	16.164	1049.356	799.819
38.096	16.368	1048.532	800.086
39.111	16.316	1047.745	799.169
40.126	16.263	1046.634	797.999
41.140	16.019	1044.764	795.354
42.155	15.949	1043.487	793.982
43.169	15.775	1043.013	792.730
44.184	15.870	1041.631	792.054
45.199	15.848	1040.733	791.198
46.213	15.982	1039.608	790.902
47.228	16.180	1038.677	791.056
48.242	16.108	1038.315	790.373
49.257	16.161	1036.565	789.217
50.271	16.141	1036.354	788.891
51.286	16.290	1035.299	788.717
52.301	16.250	1034.252	787.661
53.315	16.115	1032.975	785.992
54.330	16.103	1031.973	785.103
55.344	16.011	1031.243	784.050
56.359	16.089	1030.250	783.590
57.374	16.029	1029.377	782.575
58.388	15.954	1028.572	781.549
59.403	15.762	1028.216	780.316
60.417	15.897	1027.182	780.089
61.432	15.906	1026.526	779.561
62.447	15.733	1025.398	777.836
63.461	15.836	1024.196	777.331
64.476	15.665	1023.696	776.097
65.490	15.753	1022.799	775.750
66.505	15.921	1021.425	775.413
67.520	15.861	1021.159	774.869
68.534	15.854	1020.308	774.121
69.549	15.868	1019.542	773.536
70.563	15.715	1018.775	772.183
71.578	15.705	1017.963	771.454
72.593	15.576	1017.246	770.250
73.607	15.455	1016.815	769.304
74.622	15.599	1015.700	769.047
75.636	15.747	1015.106	769.210
76.651	15.643	1014.425	768.149
77.666	15.723	1013.841	768.004
78.680	15.588	1013.237	766.864
79.695	15.739	1012.354	766.814
80.709	15.912	1012.073	767.323
81.724	16.011	1011.212	767.054
82.739	15.798	1011.204	766.007
83.753	16.214	1010.059	766.966
84.768	16.335	1008.962	766.612
85.782	16.325	1008.606	766.229
86.797	16.339	1007.398	765.308
87.812	16.309	1006.056	764.085
88.826	16.218	1005.448	763.144
89.841	16.336	1004.783	763.105
90.855	16.443	1003.898	762.847
91.870	16.444	1003.336	762.359
92.884	16.429	1002.043	761.241
93.899	16.466	1001.245	760.735
94.914	16.601	1000.629	760.807
95.928	16.422	999.826	759.321
96.943	16.368	998.711	758.167
97.957	16.328	997.811	757.237
98.972	16.355	997.048	756.713
99.987	16.306	996.268	755.836
101.001	16.307	994.877	754.714
102.016	16.265	994.554	754.217
103.030	16.213	993.885	753.411
104.045	16.288	992.735	752.807
105.060	16.232	992.044	751.967
106.074	16.121	990.779	750.446
107.089	15.881	989.998	748.724
108.103	15.805	988.939	747.518
109.118	15.865	988.235	747.187
110.133	16.015	986.575	746.530
111.147	15.921	985.845	745.495
112.162	15.895	985.361	744.947
113.176	16.067	984.590	745.057
114.191	16.077	984.317	744.833
115.206	15.933	983.634	743.613
116.220	15.932	982.683	742.825
117.235	15.913	981.468	741.754
118.249	16.070	980.048	741.308
119.264	16.006	979.567	740.595
120.279	16.009	978.858	740.008
121.293	15.979	978.096	739.234
122.308	15.755	977.565	737.784
123.322	15.821	975.969	736.803
124.337	15.698	975.345	735.732
125.352	15.760	974.188	735.065
126.366	15.755	972.942	734.038
127.381	15.949	972.004	734.109
128.395	15.934	970.991	733.213
129.410	15.875	970.114	732.229
130.424	15.850	969.590	731.660
131.439	16.094	968.405	731.763
132.454	16.200	967.651	731.586
133.468	16.143	967.051	730.823
134.483	16.064	966.224	729.790
135.497	16.037	965.315	728.922
136.512	16.063	964.647	728.466
137.527	16.137	963.723	728.025
138.541	16.155	963.028	727.509
139.556	16.154	962.929	727.368
140.570	16.190	962.191	726.902
141.585	16.293	961.502	726.759
142.600	16.372	960.829	726.528
143.614	16.398	959.626	725.665
144.629	16.475	959.091	725.524
145.643	16.388	957.928	724.207
146.658	16.297	957.189	723.197
147.673	16.270	955.814	721.980
148.687	16.096	955.106	720.637
149.702	16.174	954.221	720.239
150.716	16.225	953.052	719.509
151.731	16.129	952.594	718.690
152.746	16.243	952.131	718.763
153.760	16.104	951.464	717.602
154.775	16.296	951.180	718.144
155.789	16.490	949.997	718.010
156.804	16.396	949.511	717.180
157.819	16.424	949.022	716.867
158.833	16.451	948.741	716.704
159.848	16.507	947.594	716.012
160.862	16.473	946.475	714.961
161.877	16.169	945.336	712.753
162.892	16.298	944.177	712.361
163.906	16.219	943.172	711.207
164.921	16.164	942.866	710.678
165.935	16.335	941.417	710.243
166.950	16.328	940.860	709.732
167.964	16.354	940.167	709.254
168.979	16.278	938.885	707.907
169.994	16.247	938.232	707.223
171.008	16.332	938.060	707.386
172.023	16.570	936.771	707.348
173.037	16.487	936.489	706.724
174.052	16.450	935.748	705.946
175.067	16.377	935.081	705.078
176.081	16.102	934.402	703.355
177.096	16.111	933.763	702.851
178.110	16.402	933.021	703.439
179.125	16.296	932.890	702.838
180.140	16.374	932.217	702.593
181.154	16.454	932.019	702.715
182.169	16.503	930.992	702.082
183.183	16.668	930.472	702.312
184.198	16.686	929.842	701.851
185.213	16.519	929.236	700.640
186.227	16.688	928.393	700.640
187.242	16.639	928.222	700.246
188.256	16.783	927.175	699.988
189.271	16.662	926.859	699.190
190.286	16.342	926.121	697.250
191.300	16.374	924.352	695.990
192.315	16.145	924.242	694.903
193.329	16.303	923.490	694.922
194.344	16.432	923.204	695.179
195.359	16.519	922.569	694.997
196.373	16.638	921.883	694.907
197.388	16.572	921.676	694.417
198.402	16.866	920.956	695.021
199.417	16.916	920.673	694.948
200.432	16.964	920.127	694.671
201.446	17.066	919.428	694.502
202.461	17.110	919.154	694.414
203.475	17.030	918.212	693.311
204.490	16.736	917.620	691.604
205.504	16.808	916.389	690.907
206.519	16.763	915.500	689.991
207.534	16.864	914.885	689.879
208.548	16.814	914.320	689.189
209.563	16.811	913.928	688.822
210.577	16.915	913.454	688.826
211.592	16.931	912.661	688.230
212.607	17.026	911.973	688.035
213.621	16.900	911.219	686.895
214.636	17.130	909.886	686.761
215.650	17.245	909.578	686.932
216.665	17.103	909.024	685.881
217.680	17.137	908.793	685.781
218.694	17.132	908.112	685.186
219.709	17.166	907.575	684.859
220.723	17.117	906.650	683.904
221.738	17.097	905.708	683.053
222.753	17.191	905.067	682.884
223.767	17.240	904.781	682.805
224.782	17.280	904.367	682.593
225.796	17.441	903.398	682.449
226.811	17.302	902.751	681.340
227.826	17.116	902.366	680.247
228.840	17.105	901.303	679.338
229.855	17.118	900.298	678.573
230.869	17.080	899.364	677.659
231.884	16.924	899.238	676.882
232.899	17.029	898.506	676.690
233.913	16.998	897.469	675.725
234.928	16.970	897.019	675.213
235.942	16.996	896.521	674.882
236.957	16.991	895.966	674.386
237.972	17.003	895.517	674.037
238.986	17.011	894.791	673.463
240.001	16.966	894.444	672.962
241.015	17.146	893.436	672.857
242.030	17.189	893.018	672.652
243.045	17.315	892.319	672.565
244.059	17.286	891.753	671.964
245.074	17.260	891.211	671.396
246.088	17.410	890.633	671.491
247.103	17.481	890.086	671.300
248.117	17.464	889.696	670.881
249.132	17.592	889.075	670.858
250.147	17.767	888.437	671.004
251.161	17.757	887.679	670.333
252.176	17.830	887.410	670.358
253.190	17.905	886.946	670.241
254.205	17.958	885.913	669.612
255.220	17.982	884.888	668.868
256.234	17.977	884.436	668.451
257.249	17.809	884.240	667.585
258.263	17.787	882.886	666.416
259.278	17.800	882.668	666.244
260.293	17.993	881.938	666.389
261.307	18.171	881.294	666.537
262.322	17.985	881.186	665.671
263.336	17.999	880.185	664.910
264.351	18.165	879.417	664.918
265.366	18.039	879.086	664.118
266.380	18.094	878.306	663.684
267.395	18.020	877.515	662.740
268.409	18.003	876.701	662.000
269.424	18.060	875.962	661.603
270.439	17.963	875.306	660.677
271.453	17.893	874.705	659.891
272.468	17.881	873.946	659.215
273.482	17.959	873.520	659.135
274.497	17.876	873.110	658.448
275.512	17.973	872.446	658.263
276.526	17.982	872.249	658.091
277.541	18.082	871.671	657.983
278.555	18.114	871.420	657.856
279.570	18.314	870.496	657.872
280.585	18.198	869.772	656.818
281.599	18.071	868.690	655.457
282.614	18.042	868.047	654.803
283.628	18.147	867.536	654.764
284.643	18.097	867.183	654.245
285.657	18.160	866.365	653.812
286.672	18.166	865.520	653.140
287.687	18.062	865.087	652.359
288.701	18.137	864.609	652.227
289.716	18.103	864.115	651.666
290.730	18.162	863.489	651.359
291.745	18.203	862.898	651.014
292.760	18.361	862.552	651.294
293.774	18.405	861.964	650.962
294.789	18.282	861.217	649.872
295.803	18.143	860.331	648.621
296.818	18.296	859.502	648.516
297.833	18.189	859.098	647.750
298.847	18.153	858.457	647.073
299.862	18.364	857.800	647.316
300.876	18.397	857.475	647.139
301.891	18.403	857.015	646.759
302.906	18.520	856.547	646.787
303.920	18.622	856.083	646.766
304.935	18.635	855.481	646.303
305.949	18.743	854.223	645.701
306.964	18.495	853.977	644.524
307.979	18.591	853.507	644.473
308.993	18.564	852.973	643.915
310.008	18.630	852.201	643.523
311.022	18.497	852.114	642.898
312.037	18.363	851.625	641.971
313.052	18.400	850.680	641.339
314.066	18.299	850.060	640.437
315.081	18.313	849.641	640.118
316.095	18.488	848.689	640.000
317.110	18.398	848.179	639.223
318.125	18.380	847.885	638.877
319.139	18.227	847.585	638.024
320.154	18.398	846.808	638.019
321.168	18.511	846.167	637.901
322.183	18.525	845.666	637.516
323.197	18.526	844.915	636.900
324.212	18.616	844.468	636.838
325.227	18.566	844.089	636.311
326.241	18.386	843.654	635.260
327.256	18.393	842.840	634.619
328.270	18.494	842.036	634.330
329.285	18.388	841.610	633.560
330.300	18.352	841.090	632.980
331.314	18.429	840.778	632.973
332.329	18.685	840.296	633.499
333.343	18.725	839.902	633.295
334.358	18.716	839.374	632.806
335.373	18.648	839.211	632.377
336.387	18.780	838.924	632.592
337.402	18.848	838.844	632.724
338.416	18.857	838.241	632.247
339.431	18.967	838.117	632.502
340.446	19.023	837.916	632.501
341.460	18.959	837.552	631.933
342.475	19.206	836.447	631.951
343.489	19.137	836.373	631.588
344.504	19.157	835.701	631.098
345.519	19.308	835.101	631.140
346.533	19.286	834.630	630.650
347.548	19.098	834.062	629.475
348.562	18.898	833.527	628.285
349.577	18.879	832.758	627.582
350.592	18.798	832.232	626.832
351.606	18.886	831.468	626.524
352.621	18.734	831.378	625.846
353.635	18.931	830.120	625.560
354.650	18.996	829.806	625.503
355.665	19.098	829.144	625.323
356.679	19.059	828.581	624.699
357.694	19.189	827.658	624.419
358.708	19.119	827.295	623.835
359.723	19.104	826.443	623.084
360.738	19.191	825.697	622.784
361.752	19.187	825.427	622.509
362.767	19.259	825.427	622.713
363.781	19.409	824.545	622.533
364.796	19.429	824.267	622.341
365.810	19.544	823.948	622.461
366.825	19.614	823.572	622.373
367.840	19.505	823.111	621.579
368.854	19.430	822.292	620.634
369.869	19.329	822.001	619.998
370.883	19.473	821.049	619.740
371.898	19.472	821.299	619.872
372.913	19.687	820.761	620.182
373.927	19.497	820.271	619.077
374.942	19.502	820.084	618.898
375.956	19.564	819.756	618.816
376.971	19.614	818.958	618.338
377.986	19.766	818.393	618.402
379.000	19.690	818.512	618.163
380.015	19.772	817.672	617.768
381.029	19.622	816.835	616.547
382.044	19.585	816.505	616.111
383.059	19.803	815.794	616.298
384.073	19.638	814.913	614.990
385.088	19.534	814.495	614.249
386.102	19.567	813.786	613.778
387.117	19.564	813.397	613.419
388.132	19.486	812.692	612.556
389.146	19.547	812.627	612.672
390.161	19.620	811.847	612.288
391.175	19.720	811.672	612.453
392.190	19.743	811.162	612.096
393.205	19.564	810.595	610.982
394.219	19.634	810.170	610.855
395.234	19.539	809.986	610.325
396.248	19.469	809.093	609.351
397.263	19.541	808.440	609.060
398.278	19.536	808.400	608.959
399.292	19.531	807.990	608.577
400.307	19.431	807.717	607.966
401.321	19.621	806.679	607.800
402.336	19.643	806.302	607.540
403.350	19.817	805.830	607.740
404.365	19.812	805.998	607.797
405.380	19.865	805.363	607.452
406.394	20.057	804.587	607.484
407.409	19.951	804.698	607.144
408.423	19.954	804.233	606.750
409.438	20.087	803.620	606.698
410.453	20.004	803.578	606.321
411.467	20.198	803.054	606.553
412.482	20.348	802.664	606.726
413.496	20.329	801.961	606.077
414.511	20.173	801.579	605.189
415.526	20.165	801.568	605.102
416.540	20.144	800.473	604.148
417.555	20.257	800.159	604.250
418.569	20.174	800.403	604.091
419.584	20.217	799.695	603.652
420.599	20.211	799.031	603.079
421.613	161.978	1371.630	1796.169
422.628	140.601	1455.073	1796.253
