DTS Sentinel unit serial number:	SN413079Multiplexer serial number:	ORYXHardware model number:	OX4-SRSoftware version number:	ORYX F/W v4.00 Oryx Data Collector v3.7.2.0data status	okinstallation	princeton_trtdifferential loss correction	single-endedforward channel	channel 1reverse channel	N/Adate	2019/09/15time	10:10:35forward acquisition time	60.00reverse acquisition time	0.00gamma	496.2192k internal	0.2308k external	0.2308temperature offset calibration	0.9992default loss term (dB/km)	0.3790temperature slope calibration	1.0000multiplexer offset coefficient	1.0000multiplexer slope coefficient	1.0000fibre end	0.00T internal ref (°C)	34.19T ext. ref 1 (°C)	5.02T ext. ref 2 (°C)	29.97length (m)	temperature (°C)	Stokes	anti-Stokes-747.200	-200.000	-0.029	-0.237
-746.185	693.798	0.039	0.103
-745.171	351.068	0.094	0.189
-744.156	-64.391	-0.435	0.180
-743.142	140.725	0.193	-0.260
-742.127	640.641	-0.126	0.327
-741.112	14.674	0.393	-0.312
-740.098	-88.657	0.258	-0.078
-739.083	-200.000	0.043	0.346
-738.069	75.882	-0.338	0.363
-737.054	-127.574	0.226	-0.033
-736.039	-200.000	0.053	-0.240
-735.025	-83.871	-0.096	0.031
-734.010	-89.064	-0.075	0.023
-732.996	800.000	0.057	0.178
-731.981	242.948	-0.200	0.340
-730.966	21.959	-0.285	-0.236
-729.952	-114.680	0.100	0.019
-728.937	-20.678	0.186	-0.116
-727.923	-168.057	-0.358	-0.014
-726.908	90.534	-0.050	-0.057
-725.894	-107.958	0.209	-0.046
-724.879	-88.861	0.111	-0.034
-723.864	-200.000	0.034	-0.346
-722.850	412.196	-0.040	-0.086
-721.835	-200.000	0.049	-0.242
-720.821	-67.610	0.117	0.047
-719.806	-200.000	-0.032	-0.165
-718.791	-74.978	-0.217	0.079
-717.777	253.291	0.139	0.240
-716.762	-52.557	0.185	-0.087
-715.748	367.486	0.141	-0.290
-714.733	186.196	0.085	0.129
-713.718	116.891	0.081	0.101
-712.704	-66.243	0.284	-0.115
-711.689	-85.485	-0.113	-0.036
-710.675	-40.921	-0.105	-0.055
-709.660	246.694	0.165	-0.283
-708.645	417.434	0.182	-0.395
-707.631	-200.000	0.037	0.298
-706.616	12.547	0.317	-0.248
-705.602	312.854	0.143	0.273
-704.587	800.000	0.111	-0.471
-703.572	-133.548	0.172	0.022
-702.558	469.768	0.084	0.193
-701.543	800.000	-0.093	-0.283
-700.529	43.993	0.239	-0.222
-699.514	-200.000	-0.128	-0.000
-698.499	207.611	0.053	-0.084
-697.485	-46.793	0.381	-0.189
-696.470	202.864	0.126	0.197
-695.456	164.573	0.121	-0.173
-694.441	-200.000	-0.010	0.074
-693.426	-150.941	0.220	-0.017
-692.412	19.625	-0.123	-0.101
-691.397	605.136	0.036	0.092
-690.383	800.000	-0.050	-0.155
-689.368	-136.742	-0.326	-0.038
-688.354	298.475	0.166	-0.309
-687.339	-200.000	-0.007	-0.046
-686.324	31.518	0.311	-0.271
-685.310	323.977	-0.099	-0.191
-684.295	800.000	0.034	-0.149
-683.281	12.663	-0.108	-0.085
-682.266	800.000	-0.110	-0.321
-681.251	-200.000	0.026	-0.207
-680.237	800.000	-0.062	0.212
-679.222	800.000	-0.017	0.074
-678.208	476.368	-0.147	-0.336
-677.193	190.670	0.051	0.078
-676.178	72.173	-0.128	0.135
-675.164	-45.992	0.212	-0.106
-674.149	-200.000	0.030	0.329
-673.135	272.424	-0.241	0.431
-672.120	-69.994	-0.424	0.164
-671.105	94.431	0.138	-0.158
-670.091	-200.000	0.009	-0.135
-669.076	69.064	0.209	0.218
-668.062	-200.000	0.007	-0.309
-667.047	-200.000	0.018	-0.096
-666.032	244.984	-0.074	0.126
-665.018	-64.397	0.109	-0.045
-664.003	147.474	0.159	-0.218
-662.989	-122.998	0.161	-0.026
-661.974	-57.564	-0.025	-0.011
-660.959	150.308	0.124	0.171
-659.945	-200.000	0.012	0.121
-658.930	-200.000	0.040	0.188
-657.916	210.404	-0.160	-0.254
-656.901	-200.000	0.019	-0.116
-655.886	-145.703	0.286	-0.026
-654.872	800.000	0.100	0.318
-653.857	471.524	0.141	0.320
-652.843	-45.668	-0.214	0.107
-651.828	-82.936	0.395	-0.129
-650.814	221.240	-0.069	0.112
-649.799	-200.000	-0.040	0.222
-648.784	-64.661	0.083	0.034
-647.770	-127.731	-0.288	0.042
-646.755	-193.598	-0.126	-0.001
-645.741	21.961	-0.232	0.191
-644.726	-58.768	-0.032	0.014
-643.711	273.667	0.075	0.134
-642.697	-129.099	0.224	0.032
-641.682	-81.525	-0.098	0.033
-640.668	800.000	0.031	0.124
-639.653	800.000	-0.025	-0.077
-638.638	-53.261	0.243	-0.113
-637.624	96.534	-0.167	-0.194
-636.609	-198.626	-0.140	-0.001
-635.595	-96.749	-0.085	-0.023
-634.580	-200.000	-0.003	-0.050
-633.565	114.222	-0.116	-0.143
-632.551	-139.050	0.205	-0.022
-631.536	18.700	0.069	0.056
-630.522	800.000	-0.050	-0.171
-629.507	-19.674	0.239	-0.150
-628.492	-162.385	0.359	-0.018
-627.478	104.305	0.049	0.058
-626.463	44.029	-0.180	0.167
-625.449	28.657	0.064	-0.055
-624.434	41.821	-0.198	-0.181
-623.419	-200.000	0.056	0.284
-622.405	-119.721	-0.092	-0.016
-621.390	226.860	-0.107	-0.176
-620.376	-91.005	-0.069	-0.020
-619.361	23.261	-0.118	-0.098
-618.346	45.693	0.163	-0.153
-617.332	247.622	-0.072	0.123
-616.317	228.562	0.182	0.300
-615.303	-105.296	0.087	0.020
-614.288	-77.079	-0.090	0.032
-613.273	800.000	-0.048	-0.178
-612.259	-200.000	-0.020	0.161
-611.244	800.000	-0.056	0.168
-610.230	15.282	-0.129	-0.103
-609.215	800.000	-0.106	0.331
-608.201	-200.000	0.009	-0.057
-607.186	-168.894	0.326	0.012
-606.171	-30.166	0.041	0.023
-605.157	-18.852	0.090	-0.056
-604.142	-25.388	0.208	-0.124
-603.128	-30.725	0.091	0.052
-602.113	800.000	0.081	-0.312
-601.098	-200.000	-0.036	0.205
-600.084	166.069	-0.206	0.294
-599.069	582.548	-0.024	0.060
-598.055	800.000	-0.020	0.065
-597.040	-197.163	-0.050	0.000
-596.025	-200.000	0.015	0.132
-595.011	23.330	0.262	-0.218
-593.996	-6.363	0.399	0.275
-592.982	-27.265	0.155	-0.091
-591.967	-51.518	-0.169	0.080
-590.952	-66.237	-0.092	0.037
-589.938	32.157	0.143	-0.125
-588.923	-200.000	0.005	0.091
-587.909	800.000	-0.044	-0.135
-586.894	-63.373	0.114	0.047
-585.879	-200.000	0.009	0.112
-584.865	-51.618	-0.245	0.115
-583.850	92.026	-0.282	-0.321
-582.836	-200.000	0.023	-0.158
-581.821	48.221	-0.164	0.155
-580.806	-200.000	-0.076	-0.492
-579.792	-200.000	0.029	-0.151
-578.777	109.488	-0.119	0.144
-577.763	63.288	-0.275	-0.279
-576.748	-17.333	-0.176	0.112
-575.733	-200.000	-0.010	0.080
-574.719	9.614	-0.221	-0.169
-573.704	-156.285	-0.385	-0.024
-572.690	654.747	-0.086	0.222
-571.675	-200.000	0.017	-0.184
-570.661	-31.001	-0.244	0.139
-569.646	7.158	-0.099	-0.075
-568.631	-106.834	-0.388	0.087
-567.617	-151.071	0.316	-0.024
-566.602	-108.310	0.511	0.111
-565.588	-96.907	-0.256	-0.068
-564.573	289.380	0.074	0.136
-563.558	393.485	0.016	0.034
-562.544	-30.625	-0.057	-0.033
-561.529	227.096	0.135	-0.221
-560.515	800.000	-0.126	-0.421
-559.500	-191.819	-0.245	-0.002
-558.485	-200.000	0.028	0.232
-557.471	104.299	-0.151	0.179
-556.456	773.588	0.124	0.340
-555.442	368.922	-0.139	0.284
-554.427	-196.146	-0.060	-0.000
-553.412	800.000	-0.090	-0.284
-552.398	-83.373	-0.185	-0.060
-551.383	316.556	0.224	-0.428
-550.369	800.000	-0.038	0.120
-549.354	-72.166	0.249	0.093
-548.339	-200.000	-0.010	0.339
-547.325	-96.352	0.448	0.120
-546.310	198.638	-0.091	-0.141
-545.296	53.333	0.234	0.226
-544.281	-105.925	-0.185	-0.042
-543.266	319.832	-0.043	-0.082
-542.252	-35.887	-0.095	-0.052
-541.237	-161.074	-0.297	-0.016
-540.223	136.035	-0.109	0.144
-539.208	-47.796	0.421	0.206
-538.193	108.723	0.214	-0.257
-537.179	-136.419	-0.088	-0.010
-536.164	-200.000	-0.003	0.249
-535.150	4.394	0.103	-0.076
-534.135	593.872	0.094	-0.234
-533.121	629.395	-0.161	-0.411
-532.106	800.000	0.084	-0.325
-531.091	-200.000	-0.027	-0.199
-530.077	157.096	-0.042	0.058
-529.062	-138.449	0.056	0.006
-528.048	-124.145	-0.141	0.022
-527.033	-200.000	-0.056	0.365
-526.018	266.935	-0.190	0.335
-525.004	95.701	0.159	-0.182
-523.989	-130.768	0.101	-0.014
-522.975	-200.000	0.003	0.253
-521.960	203.146	0.071	-0.110
-520.945	-135.371	0.293	0.035
-519.931	247.658	-0.125	-0.213
-518.916	36.053	-0.124	-0.110
-517.902	-200.000	0.236	-0.001
-516.887	-200.000	-0.013	0.211
-515.872	-31.876	-0.325	-0.184
-514.858	217.090	0.173	0.278
-513.843	-153.039	-0.231	0.016
-512.829	4.521	-0.143	-0.106
-511.814	627.021	0.141	0.360
-510.799	-14.146	0.205	0.133
-509.785	63.814	-0.222	0.225
-508.770	-143.013	-0.036	0.004
-507.756	-94.889	-0.279	-0.076
-506.741	277.987	-0.163	0.292
-505.726	53.450	-0.239	-0.231
-504.712	-0.579	0.146	-0.104
-503.697	-47.030	-0.175	0.086
-502.683	-51.319	0.118	0.056
-501.668	-200.000	-0.098	-0.459
-500.653	494.079	-0.012	-0.028
-499.639	554.879	0.040	0.096
-498.624	-72.439	0.359	-0.134
-497.610	-42.939	-0.226	-0.116
-496.595	183.918	0.184	0.274
-495.581	269.283	0.113	0.200
-494.566	25.499	-0.145	0.121
-493.551	60.773	-0.040	-0.039
-492.537	134.960	-0.064	0.083
-491.522	-136.659	0.090	0.010
-490.508	-41.170	-0.168	0.087
-489.493	-200.000	-0.001	0.342
-488.478	-200.000	-0.019	0.337
-487.464	800.000	0.006	0.024
-486.449	-63.581	0.211	-0.087
-485.435	-109.207	-0.308	-0.066
-484.420	229.809	-0.076	0.124
-483.405	-166.833	-0.406	0.017
-482.391	-200.000	-0.006	0.270
-481.376	681.108	0.134	-0.351
-480.362	265.190	0.203	-0.356
-479.347	80.366	-0.148	0.161
-478.332	550.920	-0.105	0.253
-477.318	-200.000	-0.051	-0.419
-476.303	45.857	0.353	-0.328
-475.289	-200.000	-0.006	-0.031
-474.274	4.056	-0.313	0.231
-473.259	-97.358	-0.190	-0.050
-472.245	-122.850	-0.369	0.060
-471.230	800.000	0.100	0.329
-470.216	-200.000	-0.024	-0.115
-469.201	609.706	-0.050	-0.125
-468.186	-129.470	-0.218	0.030
-467.172	11.644	0.257	0.199
-466.157	115.742	-0.188	0.231
-465.143	104.483	0.110	0.131
-464.128	800.000	-0.092	0.329
-463.113	-64.043	-0.216	0.089
-462.099	-83.762	0.083	-0.026
-461.084	-200.000	0.068	0.376
-460.070	-142.303	0.243	0.024
-459.055	373.963	0.038	-0.078
-458.040	174.934	0.196	0.285
-457.026	-77.122	0.304	0.106
-456.011	179.463	0.033	0.048
-454.997	4.127	0.226	0.167
-453.982	-88.865	0.304	0.091
-452.968	108.530	-0.294	0.352
-451.953	-86.987	0.134	0.041
-450.938	800.000	0.076	-0.258
-449.924	800.000	-0.023	-0.088
-448.909	-169.516	-0.178	-0.007
-447.895	32.052	0.265	-0.229
-446.880	322.061	0.059	0.113
-445.865	339.781	0.134	-0.263
-444.851	-110.083	-0.164	0.034
-443.836	95.443	0.189	0.216
-442.822	-200.000	0.062	0.273
-441.807	-52.150	-0.079	-0.037
-440.792	-170.318	-0.327	-0.012
-439.778	-18.304	0.204	-0.128
-438.763	210.429	0.235	-0.371
-437.749	800.000	-0.012	0.047
-436.734	-110.041	-0.234	-0.049
-435.719	-200.000	-0.016	0.121
-434.705	155.797	-0.169	-0.234
-433.690	246.049	0.084	0.142
-432.676	410.060	0.051	-0.108
-431.661	174.273	-0.054	-0.078
-430.646	264.980	0.121	0.211
-429.632	-200.000	-0.021	-0.100
-428.617	-104.726	0.320	0.074
-427.603	429.012	-0.176	0.381
-426.588	77.381	-0.074	0.079
-425.573	645.069	0.063	-0.160
-424.559	320.487	0.065	0.124
-423.544	115.070	-0.154	-0.188
-422.530	-21.310	0.236	-0.145
-421.515	-37.991	-0.131	-0.070
-420.500	118.987	-0.229	-0.285
-419.486	160.832	0.083	0.116
-418.471	-81.076	0.374	-0.124
-417.457	60.837	-0.091	0.091
-416.442	-108.386	-0.172	-0.037
-415.428	-169.298	-0.031	0.001
-414.413	450.436	-0.099	0.219
-413.398	10.531	-0.030	0.023
-412.384	781.378	0.041	0.112
-411.369	800.000	-0.078	-0.272
-410.355	-50.778	0.397	0.187
-409.340	-76.607	-0.283	-0.100
-408.325	-131.182	0.225	-0.030
-407.311	-88.172	-0.209	-0.063
-406.296	-200.000	0.004	0.131
-405.282	800.000	-0.118	0.451
-404.267	-176.353	0.392	-0.010
-403.252	36.176	-0.080	0.071
-402.238	-7.258	-0.108	-0.074
-401.223	-200.000	0.059	0.287
-400.209	52.179	-0.281	-0.269
-399.194	52.688	0.255	-0.244
-398.179	-200.000	0.025	0.120
-397.165	800.000	-0.033	0.133
-396.150	146.062	0.061	-0.082
-395.136	-125.572	0.386	0.059
-394.121	-74.795	0.093	-0.033
-393.106	704.999	-0.077	-0.204
-392.092	93.392	-0.103	-0.117
-391.077	-82.165	0.297	-0.097
-390.063	-74.006	0.373	0.135
-389.048	60.365	0.329	-0.326
-388.033	640.729	-0.126	-0.322
-387.019	-200.000	-0.034	-0.178
-386.004	-173.013	0.116	0.004
-384.990	-200.000	0.015	0.421
-383.975	22.597	-0.030	0.025
-382.960	-89.506	-0.376	-0.111
-381.946	-47.335	0.211	-0.103
-380.931	-195.508	-0.114	0.001
-379.917	-107.963	0.360	-0.078
-378.902	389.435	0.125	0.260
-377.888	206.175	0.040	-0.063
-376.873	-77.105	-0.200	0.070
-375.858	34.507	-0.277	0.242
-374.844	-22.174	0.157	-0.095
-373.829	-200.000	0.008	-0.397
-372.815	-147.930	0.376	-0.031
-371.800	-200.000	0.034	-0.218
-370.785	-10.938	-0.338	-0.224
-369.771	-17.413	0.129	0.081
-368.756	33.704	0.160	0.139
-367.742	408.444	0.064	0.135
-366.727	741.042	-0.133	-0.358
-365.712	445.278	0.117	-0.257
-364.698	-65.224	-0.259	0.105
-363.683	-48.467	0.273	0.132
-362.669	-38.586	-0.116	-0.061
-361.654	-200.000	0.047	-0.250
-360.639	-200.000	-0.043	-0.274
-359.625	-200.000	-0.011	0.277
-358.610	-200.000	-0.014	-0.275
-357.596	-200.000	0.028	-0.164
-356.581	208.143	0.101	0.158
-355.566	-96.379	-0.220	-0.058
-354.552	-131.589	0.173	0.023
-353.537	-20.423	0.143	0.088
-352.523	157.846	-0.107	-0.148
-351.508	-30.107	-0.337	-0.192
-350.493	167.095	0.026	0.037
-349.479	-98.044	-0.226	0.058
-348.464	800.000	0.045	0.177
-347.450	-200.000	-0.034	-0.206
-346.435	-200.000	0.022	-0.186
-345.420	420.754	0.027	-0.059
-344.406	-161.302	-0.311	0.016
-343.391	-89.553	0.135	-0.040
-342.377	-98.636	0.250	0.064
-341.362	132.089	0.087	-0.112
-340.348	80.620	-0.096	-0.104
-339.333	-117.106	-0.155	-0.028
-338.318	-98.847	-0.214	0.054
-337.304	-78.029	0.215	-0.074
-336.289	116.283	-0.073	-0.089
-335.275	-102.489	0.340	0.081
-334.260	-74.610	-0.347	-0.125
-333.245	-126.608	-0.107	-0.016
-332.231	733.959	0.092	-0.246
-331.216	-47.796	0.083	0.040
-330.202	155.391	0.043	-0.060
-329.187	-3.860	0.195	0.135
-328.172	-200.000	0.079	0.491
-327.158	-103.934	0.128	-0.030
-326.143	-200.000	-0.055	-0.270
-325.129	-138.657	0.049	0.005
-324.114	800.000	0.080	-0.313
-323.099	41.011	0.128	-0.115
-322.085	-46.400	-0.486	-0.239
-321.070	-200.000	0.026	0.261
-320.056	-200.000	-0.019	0.120
-319.041	-99.125	0.620	-0.157
-318.026	-76.924	-0.352	-0.123
-317.012	188.291	-0.074	0.110
-315.997	-99.977	-0.079	-0.020
-314.983	26.697	0.163	0.137
-313.968	139.771	0.107	-0.141
-312.953	51.155	0.133	0.126
-311.939	800.000	-0.097	0.321
-310.924	188.057	0.067	0.100
-309.910	7.498	0.123	-0.092
-308.895	-89.259	0.081	0.024
-307.880	113.675	-0.028	-0.033
-306.866	-111.081	-0.350	0.072
-305.851	-73.939	-0.370	-0.134
-304.837	47.133	-0.087	0.081
-303.822	-134.910	0.350	0.042
-302.807	800.000	-0.058	-0.196
-301.793	-200.000	-0.016	-0.118
-300.778	-189.371	-0.192	0.002
-299.764	-89.631	0.087	-0.026
-298.749	-12.320	0.204	0.133
-297.735	298.712	-0.070	-0.129
-296.720	238.611	-0.038	0.063
-295.705	-200.000	0.083	-0.512
-294.691	515.355	0.018	0.043
-293.676	-200.000	-0.046	-0.434
-292.662	421.313	0.183	-0.391
-291.647	509.483	-0.104	0.242
-290.632	-21.797	0.083	0.051
-289.618	12.003	0.358	-0.275
-288.603	-87.048	-0.144	-0.044
-287.589	256.913	0.077	-0.132
-286.574	81.229	-0.143	-0.154
-285.559	-62.944	0.125	0.052
-284.545	800.000	-0.059	0.203
-283.530	-3.936	0.153	-0.106
-282.516	241.922	0.081	-0.136
-281.501	702.084	-0.049	0.130
-280.486	-200.000	0.010	0.311
-279.472	-10.234	0.133	-0.088
-278.457	257.025	0.023	-0.040
-277.443	54.951	-0.258	-0.249
-276.428	234.929	-0.171	-0.281
-275.413	396.957	0.062	-0.130
-274.399	800.000	-0.060	0.260
-273.384	-200.000	0.013	0.098
-272.370	-103.146	0.090	0.021
-271.355	800.000	-0.070	0.246
-270.340	720.636	-0.222	-0.589
-269.326	-89.066	-0.155	0.046
-268.311	6.592	0.082	-0.061
-267.297	-114.928	-0.111	-0.021
-266.282	751.532	0.064	-0.172
-265.267	-32.980	0.246	0.136
-264.253	800.000	0.013	-0.050
-263.238	-75.264	0.246	-0.088
-262.224	-137.004	-0.093	0.011
-261.209	216.710	0.101	-0.160
-260.195	157.400	-0.106	0.146
-259.180	-62.090	-0.375	0.156
-258.165	96.568	0.272	0.311
-257.151	800.000	-0.063	0.255
-256.136	-41.729	0.057	-0.029
-255.122	3.059	0.100	0.073
-254.107	-200.000	0.114	0.000
-253.092	-200.000	-0.035	0.154
-252.078	-63.447	-0.571	-0.234
-251.063	690.056	-0.139	-0.364
-250.049	-88.979	0.249	-0.074
-249.034	137.557	-0.209	0.273
-248.019	-200.000	-0.013	-0.232
-247.005	-200.000	-0.061	-0.399
-245.990	-96.082	-0.130	0.034
-244.976	-178.236	-0.180	-0.004
-243.961	198.568	0.303	0.463
-242.946	800.000	-0.061	0.178
-241.932	77.506	0.082	0.087
-240.917	-152.633	-0.189	0.013
-239.903	-83.235	-0.172	0.055
-238.888	-200.000	-0.066	0.400
-237.873	504.034	0.040	-0.093
-236.859	-200.000	-0.023	-0.105
-235.844	-94.661	0.068	0.018
-234.830	-102.888	0.210	-0.050
-233.815	-88.166	0.131	0.039
-232.800	-124.047	-0.146	-0.023
-231.786	-136.202	0.306	-0.036
-230.771	-139.712	0.325	0.034
-229.757	-59.953	-0.232	-0.099
-228.742	-200.000	-0.012	-0.133
-227.727	-200.000	-0.051	-0.397
-226.713	-16.119	-0.193	-0.122
-225.698	25.351	-0.225	0.186
-224.684	323.235	0.132	0.251
-223.669	9.182	-0.119	-0.090
-222.655	-76.284	0.075	0.026
-221.640	800.000	-0.080	-0.319
-220.625	-57.091	-0.267	-0.117
-219.611	-11.057	-0.083	-0.054
-218.596	-132.609	0.398	0.051
-217.582	289.293	-0.198	-0.358
-216.567	64.705	-0.200	-0.201
-215.552	-12.531	0.290	-0.188
-214.538	10.556	0.050	0.038
-213.523	679.264	0.107	0.278
-212.509	350.782	-0.042	0.082
-211.494	-160.376	0.285	-0.015
-210.479	155.393	0.047	-0.064
-209.465	-128.671	0.200	0.028
-208.450	15.057	0.270	-0.211
-207.436	-126.797	-0.117	-0.017
-206.421	47.744	-0.132	0.122
-205.406	324.447	0.100	0.190
-204.392	800.000	-0.083	0.246
-203.377	-200.000	-0.063	0.395
-202.363	94.835	0.182	-0.207
-201.348	199.716	-0.213	0.326
-200.333	-145.037	0.210	-0.019
-199.319	249.185	0.187	-0.316
-198.304	-61.831	-0.181	-0.076
-197.290	-200.000	0.036	-0.159
-196.275	-40.898	0.081	0.042
-195.260	-149.391	-0.245	0.019
-194.246	-71.653	-0.183	0.068
-193.231	272.927	0.084	0.147
-192.217	800.000	0.060	0.196
-191.202	-91.598	0.170	-0.048
-190.187	-33.158	0.260	-0.144
-189.173	-95.872	-0.177	0.047
-188.158	-82.696	0.049	0.016
-187.144	-200.000	0.028	-0.222
-186.129	-200.000	0.013	0.427
-185.114	-200.000	0.094	-0.419
-184.100	-142.389	0.166	-0.016
-183.085	-111.342	-0.190	0.038
-182.071	-153.218	-0.245	0.017
-181.056	106.715	0.257	0.303
-180.042	255.574	0.044	-0.076
-179.027	-3.159	-0.225	0.156
-178.012	112.189	-0.149	0.179
-176.998	-113.304	-0.367	0.072
-175.983	107.828	-0.071	-0.084
-174.969	800.000	-0.097	0.279
-173.954	131.067	-0.075	0.095
-172.939	365.255	-0.123	0.247
-171.925	-36.984	-0.180	-0.096
-170.910	67.631	-0.200	-0.203
-169.896	2.687	0.277	0.200
-168.881	-97.447	0.168	0.043
-167.866	-200.000	0.023	-0.192
-166.852	-93.462	0.250	0.069
-165.837	-146.732	-0.210	0.018
-164.823	-200.000	0.044	-0.263
-163.808	-71.701	-0.169	-0.063
-162.793	41.677	0.301	0.271
-161.779	59.868	-0.164	0.161
-160.764	-29.941	-0.267	-0.151
-159.750	-200.000	0.023	0.254
-158.735	250.292	0.084	-0.141
-157.720	800.000	0.021	0.073
-156.706	685.806	0.076	0.196
-155.691	270.954	-0.124	0.216
-154.677	-101.232	0.175	-0.042
-153.662	-200.000	0.033	0.238
-152.647	-151.882	0.359	-0.026
-151.633	-87.269	0.232	-0.070
-150.618	-77.356	-0.232	-0.080
-149.604	-23.294	0.161	0.096
-148.589	-73.456	-0.231	0.084
-147.574	-24.886	0.125	-0.074
-146.560	496.956	0.152	-0.346
-145.545	185.332	-0.087	0.128
-144.531	-200.000	-0.009	0.317
-143.516	-93.665	-0.358	-0.098
-142.502	80.312	-0.181	-0.194
-141.487	60.685	-0.201	0.198
-140.472	-200.000	0.001	0.311
-139.458	384.726	0.126	-0.258
-138.443	800.000	0.085	-0.319
-137.429	-112.693	0.159	0.031
-136.414	0.025	-0.168	-0.118
-135.399	-45.995	-0.285	-0.139
-134.385	-94.732	0.142	0.038
-133.370	-200.000	0.016	-0.466
-132.356	73.215	-0.153	0.159
-131.341	108.252	0.156	-0.185
-130.326	-154.595	0.373	0.025
-129.312	277.509	-0.134	-0.237
-128.297	-81.622	-0.304	-0.099
-127.283	66.334	-0.280	-0.282
-126.268	-100.617	0.095	0.023
-125.253	145.418	-0.171	-0.227
-124.239	-89.528	0.215	-0.063
-123.224	-76.090	0.273	-0.096
-122.210	-200.000	0.014	-0.073
-121.195	-175.170	0.231	0.006
-120.180	44.802	0.215	-0.196
-119.166	199.599	-0.099	0.151
-118.151	273.431	-0.076	0.133
-117.137	257.035	-0.145	-0.246
-116.122	-187.995	-0.230	-0.003
-115.107	62.154	-0.154	-0.153
-114.093	-200.000	0.050	-0.284
-113.078	800.000	-0.098	-0.299
-112.064	477.850	-0.085	-0.190
-111.049	-200.000	-0.216	0.000
-110.034	36.924	-0.027	0.023
-109.020	-200.000	-0.011	-0.385
-108.005	-114.504	0.286	-0.054
-106.991	-113.676	0.037	0.007
-105.976	103.644	0.077	0.089
-104.962	-200.000	0.067	0.491
-103.947	132.456	-0.110	-0.140
-102.932	144.642	0.175	0.231
-101.918	-65.635	-0.148	0.059
-100.903	-81.706	0.418	0.136
-99.889	-9.094	-0.032	0.021
-98.874	164.360	-0.105	0.146
-97.859	352.107	-0.100	0.196
-96.845	-200.000	0.040	0.387
-95.830	-27.347	0.118	0.068
-94.816	800.000	-0.028	0.103
-93.801	-59.254	-0.183	-0.078
-92.786	24.412	0.043	-0.035
-91.772	-58.833	0.342	-0.147
-90.757	698.224	0.079	-0.206
-89.743	-113.255	-0.297	-0.058
-88.728	-147.131	-0.355	-0.030
-87.713	110.727	0.131	-0.156
-86.699	-123.866	0.173	0.027
-85.684	800.000	-0.073	-0.255
-84.670	800.000	-0.072	-0.275
-83.655	-200.000	0.013	0.222
-82.640	-83.991	-0.168	0.053
-81.626	1.231	0.314	-0.223
-80.611	-78.457	0.283	0.096
-79.597	-200.000	0.034	0.322
-78.582	-82.089	-0.145	0.047
-77.567	-152.223	-0.147	-0.011
-76.553	17.912	-0.081	-0.064
-75.538	800.000	-0.079	0.342
-74.524	144.191	0.169	-0.224
-73.509	-18.145	-0.336	0.208
-72.494	-58.284	0.215	-0.093
-71.480	-137.411	0.169	0.019
-70.465	198.008	-0.154	-0.233
-69.451	-175.776	0.654	-0.017
-68.436	186.690	-0.101	-0.149
-67.422	18.270	0.066	-0.052
-66.407	800.000	-0.097	-0.411
-65.392	-101.728	-0.169	-0.041
-64.378	-108.397	0.244	-0.052
-63.363	-7.616	-0.136	0.091
-62.349	-108.699	0.158	-0.033
-61.334	116.665	-0.751	-0.912
-60.319	371.539	0.298	0.599
-59.305	800.000	-0.216	-0.907
-58.290	50.388	0.843	0.788
-57.276	617.014	0.621	1.542
-56.261	-200.000	97.299	571.683
-55.246	621.928	1403.046	3493.433
-54.232	185.330	2613.148	3837.528
-53.217	120.623	2187.240	2688.603
-52.203	45.939	1635.141	1496.495
-51.188	37.733	1368.787	1202.295
-50.173	34.308	1326.312	1144.406
-49.159	55.983	1375.410	1319.807
-48.144	59.857	1392.406	1359.699
-47.130	37.928	1347.682	1184.755
-46.115	34.402	1329.520	1147.561
-45.100	34.093	1325.270	1141.992
-44.086	34.054	1322.833	1139.611
-43.071	34.068	1319.974	1137.189
-42.057	34.037	1317.844	1135.122
-41.042	34.109	1316.535	1134.378
-40.027	34.136	1314.866	1133.060
-39.013	34.139	1313.190	1131.587
-37.998	34.057	1311.538	1129.632
-36.984	34.209	1309.241	1128.512
-35.969	34.264	1307.773	1127.523
-34.954	34.269	1305.744	1125.758
-33.940	34.177	1304.767	1124.328
-32.925	34.191	1303.479	1123.257
-31.911	34.329	1301.689	1122.485
-30.896	34.190	1300.542	1120.631
-29.881	34.257	1299.455	1120.042
-28.867	34.271	1297.975	1118.806
-27.852	34.291	1295.866	1117.064
-26.838	34.379	1294.311	1116.194
-25.823	34.299	1293.576	1115.043
-24.809	34.417	1291.763	1114.131
-23.794	34.284	1290.610	1112.312
-22.779	34.272	1289.083	1110.882
-21.765	34.319	1287.754	1109.965
-20.750	34.280	1286.661	1108.752
-19.736	34.180	1285.328	1106.980
-18.721	34.089	1284.596	1105.777
-17.706	34.159	1283.136	1104.882
-16.692	34.318	1281.300	1104.182
-15.677	34.093	1280.655	1102.278
-14.663	34.060	1280.107	1101.568
-13.648	34.098	1278.965	1100.763
-12.633	34.156	1277.461	1099.763
-11.619	34.048	1277.014	1098.707
-10.604	34.084	1276.017	1098.013
-9.590	33.998	1275.229	1096.798
-8.575	34.137	1274.205	1096.674
-7.560	34.124	1273.104	1095.609
-6.546	34.154	1272.272	1095.021
-5.531	34.007	1271.372	1093.358
-4.517	34.116	1270.460	1093.154
-3.502	34.084	1269.968	1092.504
-2.487	34.119	1268.911	1091.753
-1.473	34.110	1264.900	1088.210
-0.458	32.883	1249.864	1068.290
0.556	28.099	1231.713	1028.362
1.571	24.233	1237.014	1010.818
2.586	23.017	1252.286	1016.217
3.600	22.407	1241.206	1003.662
4.615	17.285	1168.962	917.586
5.629	9.121	1092.954	816.488
6.644	5.258	1072.702	781.979
7.659	4.972	1070.207	778.661
8.673	4.935	1068.725	777.329
9.688	4.905	1067.021	775.873
10.702	5.149	1065.436	775.864
11.717	10.308	1072.673	806.827
12.731	17.561	1083.086	850.955
13.746	19.434	1084.776	861.569
14.761	18.232	1082.206	853.460
15.775	17.098	1080.030	846.019
16.790	15.944	1077.826	838.477
17.804	15.235	1076.537	833.876
18.819	14.999	1075.341	831.702
19.834	14.668	1074.109	829.030
20.848	14.359	1073.791	827.180
21.863	14.084	1072.964	825.105
22.877	14.070	1071.809	824.073
23.892	13.948	1071.450	823.118
24.907	14.012	1070.458	822.599
25.921	14.160	1069.155	822.257
26.936	14.180	1067.860	821.289
27.950	14.135	1066.501	819.950
28.965	14.343	1065.248	819.938
29.980	14.258	1063.381	818.013
30.994	14.276	1062.587	817.414
32.009	14.285	1061.456	816.517
33.023	14.338	1060.430	815.913
34.038	14.331	1059.509	815.101
35.053	14.191	1058.255	813.379
36.067	14.186	1057.392	812.621
37.082	14.200	1056.854	812.203
38.096	14.260	1055.831	811.638
39.111	14.387	1055.392	811.848
40.126	14.086	1053.947	809.199
41.140	14.014	1052.509	807.675
42.155	14.076	1051.213	806.908
43.169	13.896	1050.431	805.365
44.184	13.985	1049.315	804.868
45.199	13.935	1048.283	803.761
46.213	14.027	1047.141	803.261
47.228	14.004	1046.646	802.701
48.242	14.206	1044.983	802.326
49.257	14.256	1043.593	801.430
50.271	14.206	1043.452	801.008
51.286	14.258	1042.480	800.444
52.301	14.140	1041.723	799.225
53.315	14.114	1040.593	798.161
54.330	14.110	1039.313	797.088
55.344	14.018	1038.961	796.305
56.359	14.091	1037.689	795.610
57.374	13.924	1036.894	794.135
58.388	14.014	1035.615	793.513
59.403	14.001	1035.405	793.219
60.417	13.985	1034.388	792.297
61.432	13.976	1033.234	791.297
62.447	13.998	1032.696	790.923
63.461	13.826	1031.580	789.177
64.476	13.845	1030.724	788.543
65.490	13.868	1030.138	788.134
66.505	13.945	1029.476	787.924
67.520	13.979	1028.824	787.518
68.534	13.883	1028.462	786.714
69.549	13.962	1027.040	785.933
70.563	13.957	1026.527	785.448
71.578	13.907	1025.842	784.616
72.593	13.826	1024.889	783.432
73.607	13.787	1023.991	782.496
74.622	13.815	1023.449	782.145
75.636	13.768	1023.121	781.601
76.651	13.887	1021.652	780.972
77.666	13.705	1021.809	780.166
78.680	13.951	1020.569	780.308
79.695	13.919	1019.855	779.539
80.709	14.030	1019.304	779.570
81.724	14.064	1018.614	779.133
82.739	14.177	1017.804	778.976
83.753	14.181	1017.148	778.422
84.768	14.309	1016.287	778.291
85.782	14.363	1015.628	777.971
86.797	14.333	1014.648	777.013
87.812	14.139	1013.948	775.504
88.826	14.222	1012.796	774.937
89.841	14.223	1012.220	774.436
90.855	14.174	1011.189	773.348
91.870	14.271	1010.269	773.026
92.884	14.245	1009.427	772.194
93.899	14.380	1008.491	772.034
94.914	14.318	1008.000	771.305
95.928	14.386	1006.634	770.505
96.943	14.288	1006.303	769.733
97.957	14.274	1005.220	768.769
98.972	14.339	1004.335	768.326
99.987	14.297	1003.637	767.528
101.001	14.341	1001.997	766.408
102.016	14.198	1001.720	765.472
103.030	14.265	1000.922	765.103
104.045	14.289	1000.037	764.469
105.060	14.213	999.088	763.327
106.074	14.162	998.121	762.288
107.089	14.083	996.744	760.808
108.103	14.003	996.176	759.939
109.118	13.994	995.207	759.092
110.133	13.985	994.277	758.273
111.147	14.089	993.428	758.033
112.162	14.042	992.667	757.171
113.176	14.167	992.218	757.331
114.191	14.146	991.619	756.714
115.206	14.107	990.521	755.631
116.220	14.052	989.612	754.620
117.235	14.148	988.578	754.201
118.249	14.019	987.449	752.686
119.264	14.022	987.217	752.459
120.279	14.037	986.581	751.977
121.293	14.081	985.128	750.999
122.308	13.960	984.481	749.893
123.322	14.005	983.293	749.125
124.337	13.896	982.486	747.952
125.352	13.955	981.213	747.185
126.366	13.925	980.429	746.384
127.381	13.952	979.467	745.710
128.395	14.068	978.317	745.286
129.410	14.201	977.280	745.025
130.424	14.165	976.333	744.080
131.439	14.115	976.086	743.601
132.454	14.060	975.624	742.935
133.468	14.241	974.221	742.608
134.483	14.215	973.392	741.796
135.497	14.245	972.465	741.160
136.512	13.983	972.227	739.746
137.527	14.237	970.971	739.852
138.541	14.115	970.422	738.826
139.556	14.268	969.575	738.796
140.570	14.371	968.916	738.685
141.585	14.391	968.144	738.118
142.600	14.371	967.143	737.201
143.614	14.521	965.756	736.741
144.629	14.565	965.368	736.578
145.643	14.390	964.549	735.114
146.658	14.538	963.511	734.910
147.673	14.249	962.631	732.901
148.687	14.262	961.884	732.325
149.702	14.199	961.407	731.619
150.716	14.304	960.072	731.002
151.731	14.309	959.214	730.306
152.746	14.354	958.892	730.194
153.760	14.258	958.626	729.504
154.775	14.431	957.551	729.379
155.789	14.475	956.949	729.049
156.804	14.417	956.080	728.069
157.819	14.429	955.748	727.805
158.833	14.469	954.994	727.338
159.848	14.366	954.580	726.510
160.862	14.445	953.222	725.755
161.877	14.335	952.350	724.549
162.892	14.328	951.383	723.718
163.906	14.279	950.399	722.694
164.921	14.341	949.437	722.168
165.935	14.355	948.730	721.628
166.950	14.495	947.299	721.080
167.964	14.453	946.896	720.527
168.979	14.468	945.995	719.843
169.994	14.424	944.915	718.770
171.008	14.442	944.390	718.384
172.023	14.531	943.537	718.053
173.037	14.678	942.586	717.899
174.052	14.645	941.981	717.234
175.067	14.582	941.328	716.400
176.081	14.442	941.434	715.818
177.096	14.441	940.696	715.188
178.110	14.440	939.829	714.462
179.125	14.456	939.498	714.215
180.140	14.489	939.178	714.049
181.154	14.673	938.621	714.351
182.169	14.625	938.026	713.631
183.183	14.738	937.124	713.363
184.198	14.729	936.206	712.562
185.213	14.633	935.800	711.782
186.227	14.777	934.927	711.669
187.242	14.713	934.793	711.230
188.256	14.736	934.059	710.708
189.271	14.800	933.223	710.278
190.286	14.620	931.960	708.490
191.300	14.459	931.284	707.232
192.315	14.348	930.872	706.387
193.329	14.384	930.728	706.365
194.344	14.478	929.455	705.737
195.359	14.628	929.317	706.205
196.373	14.626	928.897	705.813
197.388	14.776	928.057	705.747
198.402	14.924	927.630	705.985
199.417	14.973	926.788	705.488
200.432	15.026	926.244	705.233
201.446	15.019	925.725	704.748
202.461	15.108	925.185	704.647
203.475	15.066	924.601	703.966
204.490	14.917	924.298	703.045
205.504	14.879	923.142	701.946
206.519	14.923	922.713	701.740
207.534	14.935	921.851	701.073
208.548	14.925	921.105	700.403
209.563	14.852	920.772	699.779
210.577	14.929	919.963	699.429
211.592	15.074	919.328	699.490
212.607	14.914	918.431	698.076
213.621	15.146	917.450	698.237
214.636	15.051	916.939	697.389
215.650	15.118	916.417	697.209
216.665	15.198	915.646	696.892
217.680	15.309	914.783	696.638
218.694	15.316	914.320	696.250
219.709	15.216	913.599	695.225
220.723	15.133	913.242	694.548
221.738	15.284	912.042	694.200
222.753	15.244	911.437	693.514
223.767	15.295	911.256	693.525
224.782	15.419	910.255	693.211
225.796	15.286	910.313	692.647
226.811	15.279	909.073	691.613
227.826	15.152	908.686	690.733
228.840	15.221	907.883	690.347
229.855	15.233	906.848	689.548
230.869	15.147	906.405	688.796
231.884	15.248	905.908	688.771
232.899	15.118	905.516	687.879
233.913	15.169	904.238	687.057
234.928	15.183	903.560	686.537
235.942	15.224	903.452	686.565
236.957	15.273	902.531	686.001
237.972	15.176	901.873	685.046
238.986	15.062	901.744	684.422
240.001	15.187	900.942	684.262
241.015	15.199	900.266	683.737
242.030	15.370	899.378	683.698
243.045	15.317	898.789	682.975
244.059	15.361	898.134	682.596
245.074	15.327	897.579	681.976
246.088	15.413	897.273	682.031
247.103	15.562	896.207	681.768
248.117	15.517	895.825	681.234
249.132	15.762	895.002	681.539
250.147	15.881	894.341	681.459
251.161	15.945	893.757	681.211
252.176	15.750	893.819	680.409
253.190	15.863	892.824	680.047
254.205	15.879	891.990	679.417
255.220	15.788	891.775	678.828
256.234	15.886	890.844	678.454
257.249	15.900	890.312	678.044
258.263	15.782	889.763	677.091
259.278	15.836	888.963	676.638
260.293	15.954	888.176	676.453
261.307	15.949	888.042	676.271
262.322	15.996	887.174	675.742
263.336	16.014	886.195	675.007
264.351	16.053	885.710	674.736
265.366	16.026	885.068	674.077
266.380	16.000	884.418	673.421
267.395	16.005	884.012	673.071
268.409	15.984	883.133	672.257
269.424	15.959	882.494	671.610
270.439	16.127	881.728	671.637
271.453	16.067	880.950	670.748
272.468	16.003	880.458	670.058
273.482	15.799	880.207	668.996
274.497	15.979	879.404	669.043
275.512	15.989	878.959	668.684
276.526	15.996	878.384	668.216
277.541	16.075	877.648	667.912
278.555	16.227	877.021	667.975
279.570	16.080	876.875	667.225
280.585	16.179	875.772	666.717
281.599	16.178	875.008	666.074
282.614	16.088	873.913	664.823
283.628	16.102	873.907	664.818
284.643	16.143	873.287	664.447
285.657	16.149	872.730	663.988
286.672	16.144	872.069	663.406
287.687	16.163	871.161	662.733
288.701	16.200	870.811	662.552
289.716	16.297	869.854	662.146
290.730	16.216	869.592	661.572
291.745	16.369	868.927	661.606
292.760	16.283	867.967	660.480
293.774	16.627	867.614	661.498
294.789	16.355	867.331	660.161
295.803	16.453	866.033	659.497
296.818	16.298	865.483	658.414
297.833	16.396	865.025	658.389
298.847	16.227	864.625	657.370
299.862	16.408	863.673	657.291
300.876	16.492	863.538	657.457
301.891	16.553	862.416	656.783
302.906	16.463	862.383	656.348
303.920	16.468	862.125	656.116
304.935	16.627	861.147	655.928
305.949	16.679	860.446	655.537
306.964	16.438	860.147	654.320
307.979	16.549	859.109	653.901
308.993	16.714	858.799	654.243
310.008	16.703	858.292	653.758
311.022	16.737	857.481	653.213
312.037	16.597	856.654	651.985
313.052	16.399	856.548	651.085
314.066	16.254	855.950	650.016
315.081	16.577	855.236	650.657
316.095	16.554	854.365	649.850
317.110	16.551	854.118	649.591
318.125	16.596	853.359	649.131
319.139	16.648	853.275	649.209
320.154	16.607	852.598	648.479
321.168	16.613	852.058	648.034
322.183	16.712	851.393	647.848
323.197	16.488	851.388	646.929
324.212	16.688	850.560	647.008
325.227	16.563	849.839	645.924
326.241	16.622	849.415	645.771
327.256	16.668	848.838	645.452
328.270	16.659	848.012	644.733
329.285	16.601	847.570	644.117
330.300	16.706	846.877	643.935
331.314	16.874	846.234	644.028
332.329	16.755	846.226	643.512
333.343	16.924	845.325	643.410
334.358	16.758	844.810	642.330
335.373	16.866	844.547	642.485
336.387	16.803	844.664	642.278
337.402	16.841	844.429	642.186
338.416	16.921	844.069	642.159
339.431	17.011	843.542	642.042
340.446	17.084	843.326	642.097
341.460	17.068	842.579	641.410
342.475	17.154	841.762	641.057
343.489	17.162	841.639	640.934
344.504	17.212	841.209	640.741
345.519	17.182	840.547	640.064
346.533	17.313	839.948	640.045
347.548	17.139	839.498	638.992
348.562	17.062	839.138	638.373
349.577	17.105	838.528	638.012
350.592	17.039	837.736	637.104
351.606	17.073	837.122	636.709
352.621	17.027	836.740	636.192
353.635	17.119	835.634	635.637
354.650	17.225	835.104	635.575
355.665	17.131	834.707	634.866
356.679	17.201	834.002	634.534
357.694	17.306	833.493	634.483
358.708	17.191	832.853	633.510
359.723	17.236	832.612	633.440
360.738	17.255	831.828	632.859
361.752	17.238	831.261	632.308
362.767	17.318	830.892	632.269
363.781	17.458	829.871	631.956
364.796	17.523	829.524	631.877
365.810	17.555	829.366	631.817
366.825	17.441	829.340	631.319
367.840	17.503	828.498	630.852
368.854	17.611	827.645	630.546
369.869	17.366	827.695	629.621
370.883	17.316	827.120	628.946
371.898	17.537	826.634	629.335
372.913	17.754	826.372	629.882
373.927	17.645	825.636	628.863
374.942	17.619	825.130	628.325
375.956	17.714	825.113	628.608
376.971	17.623	824.614	627.838
377.986	17.818	823.958	627.999
379.000	17.668	823.685	627.186
380.015	17.724	822.963	626.787
381.029	17.654	822.577	626.177
382.044	17.809	821.755	626.067
383.059	17.646	821.315	625.078
384.073	17.703	820.725	624.781
385.088	17.779	819.941	624.409
386.102	17.713	819.713	623.939
387.117	17.775	818.940	623.522
388.132	17.645	818.226	622.446
389.146	17.777	817.663	622.444
390.161	17.857	817.618	622.649
391.175	17.893	817.269	622.457
392.190	17.966	816.105	621.784
393.205	17.818	816.037	621.138
394.219	17.791	815.867	620.854
395.234	17.569	815.369	619.613
396.248	17.603	815.097	619.475
397.263	17.644	814.519	619.129
398.278	17.680	813.993	618.806
399.292	17.803	813.467	618.799
400.307	17.769	812.978	618.248
401.321	17.687	812.636	617.635
402.336	17.893	811.725	617.633
403.350	17.838	811.888	617.504
404.365	18.012	811.327	617.651
405.380	18.091	810.841	617.512
406.394	18.001	810.205	616.649
407.409	18.174	809.913	616.997
408.423	18.177	809.713	616.801
409.438	18.063	809.437	616.125
410.453	18.096	809.086	615.923
411.467	18.283	808.046	615.748
412.482	18.229	807.996	615.461
413.496	18.261	807.427	615.089
414.511	18.315	807.190	615.047
415.526	18.168	807.040	614.351
416.540	18.186	806.195	613.719
417.555	18.278	805.950	613.807
418.569	18.285	805.240	613.238
419.584	18.488	804.930	613.673
420.599	18.182	804.756	612.393
421.613	153.504	1370.594	1790.002
422.628	133.143	1453.067	1790.111
