DTS Sentinel unit serial number:	SN413079Multiplexer serial number:	ORYXHardware model number:	OX4-SRSoftware version number:	ORYX F/W v4.00 Oryx Data Collector v3.7.2.0data status	okinstallation	princeton_trtdifferential loss correction	single-endedforward channel	channel 1reverse channel	N/Adate	2019/09/13time	22:06:35forward acquisition time	60.00reverse acquisition time	0.00gamma	496.2192k internal	0.2332k external	0.2332temperature offset calibration	1.0090default loss term (dB/km)	0.3790temperature slope calibration	1.0000multiplexer offset coefficient	1.0000multiplexer slope coefficient	1.0000fibre end	0.00T internal ref (°C)	27.94T ext. ref 1 (°C)	3.24T ext. ref 2 (°C)	22.69length (m)	temperature (°C)	Stokes	anti-Stokes-747.200	124.795	0.243	0.307
-746.185	-24.165	-0.278	0.167
-745.171	69.661	-0.261	0.270
-744.156	-141.782	-0.214	-0.022
-743.142	-156.558	0.167	-0.010
-742.127	-200.000	0.003	0.342
-741.112	-200.000	-0.016	0.126
-740.098	-180.610	-0.332	0.007
-739.083	-63.281	0.086	0.036
-738.069	-200.000	-0.015	-0.332
-737.054	334.233	0.187	0.365
-736.039	170.892	0.144	-0.208
-735.025	-200.000	-0.035	0.248
-734.010	-200.000	-0.050	-0.225
-732.996	-63.363	0.152	-0.063
-731.981	800.000	-0.043	-0.154
-730.966	422.158	-0.116	0.251
-729.952	284.868	-0.131	0.237
-728.937	-44.900	-0.068	0.034
-727.923	-113.045	-0.044	-0.009
-726.908	-40.675	0.052	0.027
-725.894	-8.842	-0.213	-0.143
-724.879	-147.320	0.413	0.035
-723.864	369.219	-0.066	-0.135
-722.850	588.240	-0.060	0.150
-721.835	-170.830	-0.500	0.017
-720.821	203.495	-0.168	0.261
-719.806	-8.371	-0.389	-0.263
-718.791	800.000	-0.032	-0.113
-717.777	204.841	0.067	-0.105
-716.762	-200.000	0.021	-0.109
-715.748	-83.978	0.285	0.091
-714.733	-112.790	0.474	-0.094
-713.718	-200.000	0.012	0.147
-712.704	800.000	0.034	0.110
-711.689	360.642	0.064	-0.129
-710.675	-25.441	-0.120	0.071
-709.660	516.582	0.090	0.211
-708.645	-200.000	-0.003	-0.231
-707.631	-70.638	-0.216	-0.082
-706.616	-200.000	0.008	-0.213
-705.602	800.000	-0.054	-0.155
-704.587	663.288	0.028	0.071
-703.572	-55.180	-0.252	0.114
-702.558	-200.000	-0.003	-0.029
-701.543	-6.974	-0.216	0.147
-700.529	800.000	-0.043	0.150
-699.514	-96.123	0.245	-0.065
-698.499	800.000	0.014	0.041
-697.485	-4.250	-0.132	0.091
-696.470	171.957	-0.253	0.366
-695.456	800.000	0.076	0.285
-694.441	-166.809	0.249	-0.010
-693.426	-200.000	-0.056	-0.412
-692.412	108.458	-0.192	0.231
-691.397	185.375	0.111	-0.166
-690.383	12.426	-0.291	-0.225
-689.368	-114.490	-0.431	0.083
-688.354	-52.391	-0.139	0.064
-687.339	733.657	-0.050	-0.135
-686.324	-135.167	-0.060	0.007
-685.310	-200.000	0.003	-0.075
-684.295	48.648	0.068	-0.064
-683.281	-58.737	-0.190	-0.082
-682.266	-142.669	-0.185	-0.018
-681.251	-200.000	0.010	0.305
-680.237	800.000	-0.074	0.208
-679.222	-200.000	-0.021	0.453
-678.208	-200.000	0.070	-0.438
-677.193	-57.248	0.231	-0.102
-676.178	64.924	0.066	-0.067
-675.164	438.515	-0.025	-0.055
-674.149	-200.000	-0.005	-0.164
-673.135	-39.462	-0.083	-0.043
-672.120	173.541	0.024	-0.034
-671.105	64.931	0.417	0.423
-670.091	91.126	-0.115	0.129
-669.076	-118.483	-0.229	-0.041
-668.062	800.000	-0.067	-0.211
-667.047	-53.954	0.225	-0.103
-666.032	197.965	0.152	0.232
-665.018	-65.099	0.181	-0.073
-664.003	26.026	0.169	0.141
-662.989	-20.012	-0.061	0.037
-661.974	-54.875	0.093	-0.042
-660.959	-64.200	-0.031	-0.013
-659.945	279.659	-0.159	0.286
-658.930	-4.151	0.229	0.159
-657.916	529.657	-0.102	-0.242
-656.901	800.000	0.108	-0.321
-655.886	201.434	0.081	-0.125
-654.872	474.557	-0.070	0.159
-653.857	-189.003	-0.143	0.002
-652.843	-200.000	0.074	-0.351
-651.828	100.164	-0.060	0.069
-650.814	-14.599	-0.054	-0.035
-649.799	-200.000	-0.022	-0.104
-648.784	-61.818	-0.057	0.024
-647.770	-82.909	0.177	0.057
-646.755	-10.775	0.075	-0.050
-645.741	800.000	-0.069	0.222
-644.726	209.048	0.099	-0.155
-643.711	172.345	0.237	0.341
-642.697	42.181	0.291	-0.265
-641.682	-61.388	-0.228	-0.096
-640.668	-23.971	-0.146	0.088
-639.653	47.378	0.131	0.123
-638.638	76.447	-0.193	-0.204
-637.624	-110.325	0.054	-0.011
-636.609	17.568	0.311	-0.248
-635.595	-200.000	0.030	-0.138
-634.580	-154.244	0.200	0.014
-633.565	230.856	0.102	0.167
-632.551	-90.004	0.248	0.072
-631.536	60.193	0.137	0.135
-630.522	800.000	0.040	-0.125
-629.507	325.915	-0.058	-0.111
-628.492	800.000	0.047	-0.135
-627.478	19.626	0.300	0.242
-626.463	244.243	0.139	0.234
-625.449	-200.000	0.015	-0.085
-624.434	-17.435	-0.067	0.042
-623.419	-132.558	0.193	0.025
-622.405	-136.602	0.123	-0.014
-621.390	-170.790	0.058	-0.002
-620.376	46.424	-0.210	0.195
-619.361	-35.551	0.418	-0.227
-618.346	216.428	0.194	0.309
-617.332	686.082	0.099	0.259
-616.317	533.496	-0.113	-0.267
-615.303	-57.662	0.133	0.058
-614.288	424.781	0.039	-0.084
-613.273	-144.108	-0.496	-0.047
-612.259	-200.000	-0.026	-0.328
-611.244	-176.349	-0.260	0.007
-610.230	-60.147	-0.165	-0.071
-609.215	125.664	-0.136	0.172
-608.201	113.900	0.211	-0.256
-607.186	-95.347	0.177	0.048
-606.171	317.876	0.122	-0.231
-605.157	107.885	-0.135	0.161
-604.142	109.680	0.197	0.237
-603.128	37.956	-0.263	-0.234
-602.113	-200.000	-0.001	0.133
-601.098	-107.304	-0.306	0.067
-600.084	-200.000	0.047	0.463
-599.069	-53.590	-0.176	0.080
-598.055	-165.369	0.228	0.010
-597.040	800.000	-0.053	0.153
-596.025	-200.000	0.002	0.206
-595.011	-94.039	-0.155	0.043
-593.996	-85.199	-0.306	0.096
-592.982	338.746	-0.204	0.397
-591.967	-29.683	0.167	0.095
-590.952	414.160	0.161	-0.343
-589.938	109.990	0.189	0.226
-588.923	249.622	0.115	-0.195
-587.909	-200.000	0.008	0.244
-586.894	16.899	0.105	-0.083
-585.879	-13.104	0.124	-0.081
-584.865	-35.981	-0.089	0.048
-583.850	64.420	0.167	0.168
-582.836	180.338	-0.318	0.466
-581.821	45.262	0.229	-0.211
-580.806	672.995	0.130	-0.336
-579.792	307.202	-0.118	0.219
-578.777	234.828	0.104	0.172
-577.763	133.466	0.111	-0.143
-576.748	65.237	0.140	-0.141
-575.733	7.498	0.093	-0.069
-574.719	401.187	0.130	-0.272
-573.704	-187.999	-0.169	-0.002
-572.690	11.028	-0.111	-0.085
-571.675	-200.000	-0.002	-0.293
-570.661	-200.000	0.007	-0.102
-569.646	196.768	0.100	0.153
-568.631	604.396	-0.026	-0.065
-567.617	283.724	0.127	-0.228
-566.602	6.732	-0.094	0.070
-565.588	-9.902	-0.218	-0.145
-564.573	-200.000	0.006	-0.141
-563.558	229.399	0.020	0.032
-562.544	-28.115	-0.078	0.045
-561.529	130.041	0.038	0.048
-560.515	-93.301	0.056	0.016
-559.500	-200.000	-0.011	0.386
-558.485	-18.179	0.115	0.072
-557.471	33.070	0.036	0.032
-556.456	-122.213	0.147	-0.024
-555.442	-55.045	-0.174	0.078
-554.427	-20.721	0.094	-0.057
-553.412	3.922	-0.241	-0.176
-552.398	800.000	-0.021	-0.070
-551.383	-108.837	-0.387	-0.083
-550.369	-111.289	-0.210	0.043
-549.354	336.236	-0.133	-0.257
-548.339	-200.000	-0.013	0.148
-547.325	-78.091	-0.316	-0.108
-546.310	-94.774	0.088	0.024
-545.296	557.777	0.031	0.074
-544.281	-138.029	-0.232	0.026
-543.266	83.900	-0.207	-0.226
-542.252	25.732	-0.099	-0.082
-541.237	-155.996	0.159	-0.010
-540.223	800.000	0.077	-0.227
-539.208	800.000	-0.072	-0.305
-538.193	132.851	-0.153	-0.196
-537.179	180.891	-0.129	-0.190
-536.164	59.709	0.175	-0.172
-535.150	800.000	-0.016	-0.062
-534.135	-79.037	-0.250	-0.085
-533.121	-200.000	-0.032	0.188
-532.106	-79.867	0.268	-0.090
-531.091	722.915	0.111	-0.295
-530.077	268.137	0.170	0.296
-529.062	92.383	0.110	-0.124
-528.048	208.834	-0.089	-0.139
-527.033	262.054	0.110	0.191
-526.018	-200.000	-0.006	0.398
-525.004	25.084	-0.304	0.251
-523.989	-160.822	-0.295	0.016
-522.975	800.000	-0.048	0.191
-521.960	640.824	-0.069	0.175
-520.945	-34.780	-0.241	-0.131
-519.931	-87.901	0.094	-0.028
-518.916	75.823	0.268	-0.282
-517.902	800.000	0.111	-0.396
-516.887	11.693	-0.347	0.265
-515.872	2.306	0.213	0.153
-514.858	-30.869	-0.193	-0.109
-513.843	0.913	-0.163	-0.116
-512.829	148.064	0.091	-0.123
-511.814	-200.000	-0.035	0.180
-510.799	-18.958	-0.157	-0.098
-509.785	299.212	-0.062	0.115
-508.770	-69.049	-0.095	0.036
-507.756	-4.082	-0.081	-0.056
-506.741	800.000	0.093	-0.374
-505.726	284.331	0.077	-0.139
-504.712	184.096	-0.110	-0.162
-503.697	-26.113	0.136	-0.080
-502.683	57.592	-0.139	0.136
-501.668	-36.070	0.023	0.012
-500.653	800.000	0.091	0.330
-499.639	800.000	0.117	-0.363
-498.624	-22.522	0.314	0.189
-497.610	173.058	0.139	0.199
-496.595	8.415	-0.160	-0.120
-495.581	-140.280	0.258	-0.027
-494.566	692.252	-0.027	0.072
-493.551	-106.649	0.366	0.081
-492.537	-94.859	0.247	-0.067
-491.522	-10.541	-0.202	-0.133
-490.508	44.757	0.120	-0.110
-489.493	111.521	0.117	0.141
-488.478	-32.122	-0.287	-0.160
-487.464	444.577	0.119	-0.259
-486.449	79.310	0.143	0.152
-485.435	321.284	-0.001	-0.002
-484.420	-65.734	0.125	-0.050
-483.405	197.993	0.136	-0.207
-482.391	-200.000	-0.015	0.146
-481.376	-50.191	-0.070	0.033
-480.362	-125.086	-0.419	0.064
-479.347	723.651	-0.127	-0.337
-478.332	417.799	-0.248	-0.527
-477.318	163.360	0.123	-0.171
-476.303	34.152	0.109	-0.095
-475.289	62.460	-0.055	-0.055
-474.274	23.419	0.041	-0.034
-473.259	-120.317	0.228	0.039
-472.245	132.473	0.095	-0.121
-471.230	-200.000	-0.070	-0.377
-470.216	139.214	0.106	0.139
-469.201	13.708	-0.086	-0.067
-468.186	-200.000	0.030	0.192
-467.172	800.000	-0.068	-0.221
-466.157	-90.757	-0.088	0.025
-465.143	-89.258	0.166	0.049
-464.128	-34.075	-0.097	0.053
-463.113	-200.000	0.036	0.171
-462.099	340.215	-0.110	-0.214
-461.084	-200.000	-0.017	0.121
-460.070	-146.434	-0.059	0.005
-459.055	52.110	0.011	0.010
-458.040	-200.000	0.009	-0.248
-457.026	800.000	-0.006	-0.023
-456.011	-200.000	-0.039	0.289
-454.997	-71.978	0.112	-0.041
-453.982	-101.545	0.332	-0.080
-452.968	-197.813	0.140	0.001
-451.953	-123.366	-0.164	0.026
-450.938	181.751	0.224	0.328
-449.924	57.587	-0.095	-0.092
-448.909	77.883	0.128	-0.136
-447.895	27.271	-0.140	0.117
-446.880	-42.480	0.174	-0.088
-445.865	330.785	0.095	-0.181
-444.851	-115.189	-0.320	0.060
-443.836	276.829	0.104	-0.184
-442.822	358.708	-0.049	-0.098
-441.807	800.000	-0.039	0.130
-440.792	-95.240	0.181	-0.049
-439.778	82.099	0.084	0.091
-438.763	800.000	-0.030	0.085
-437.749	-36.042	0.294	-0.158
-436.734	77.113	0.082	0.087
-435.719	-200.000	0.075	0.485
-434.705	-0.987	0.131	0.092
-433.690	305.656	0.107	0.198
-432.676	-200.000	-0.011	0.125
-431.661	408.964	0.089	0.186
-430.646	-200.000	-0.026	0.309
-429.632	-35.128	0.159	0.086
-428.617	105.859	-0.128	-0.150
-427.603	47.191	-0.047	-0.044
-426.588	-200.000	-0.004	0.035
-425.573	800.000	0.044	0.135
-424.559	-22.194	0.160	-0.096
-423.544	-154.820	-0.548	-0.036
-422.530	-23.647	-0.306	-0.182
-421.515	-66.935	-0.171	0.067
-420.500	85.613	-0.232	0.254
-419.486	268.545	0.176	0.307
-418.471	-46.168	-0.374	-0.183
-417.457	-200.000	-0.086	0.451
-416.442	-157.775	-0.174	-0.010
-415.428	800.000	0.043	0.180
-414.413	-137.059	-0.381	-0.043
-413.398	-104.408	-0.048	-0.011
-412.384	462.121	-0.062	0.137
-411.369	-138.131	-0.376	0.041
-410.355	-155.845	-0.269	0.017
-409.340	-24.020	-0.203	0.120
-408.325	-200.000	-0.002	0.180
-407.311	-125.070	0.108	-0.016
-406.296	55.655	0.124	0.119
-405.282	-130.165	0.418	0.057
-404.267	-17.885	-0.203	-0.126
-403.252	115.614	0.117	0.143
-402.238	190.074	0.091	0.135
-401.223	164.425	0.090	0.126
-400.209	-115.240	0.337	-0.063
-399.194	-95.006	0.304	0.082
-398.179	-101.586	0.158	0.038
-397.165	-99.999	-0.178	0.044
-396.150	-7.199	-0.072	0.048
-395.136	-10.107	0.202	0.133
-394.121	-200.000	0.012	0.136
-393.106	-81.440	0.342	-0.112
-392.092	-140.424	0.380	0.039
-391.077	-12.817	-0.073	-0.047
-390.063	-45.186	0.066	0.032
-389.048	-200.000	0.062	0.275
-388.033	-33.330	-0.148	0.081
-387.019	-18.257	-0.123	0.076
-386.004	282.224	-0.092	-0.164
-384.990	-61.250	0.212	-0.089
-383.975	-56.477	0.165	0.073
-382.960	260.463	-0.184	-0.315
-381.946	118.882	-0.118	-0.145
-380.931	800.000	0.108	-0.450
-379.917	-200.000	0.010	-0.159
-378.902	-200.000	0.023	-0.106
-377.888	-127.916	0.266	-0.038
-376.873	800.000	0.055	-0.170
-375.858	-164.583	-0.127	-0.006
-374.844	-150.258	-0.264	0.020
-373.829	-25.911	0.167	-0.097
-372.815	-200.000	0.012	0.159
-371.800	115.883	0.239	0.290
-370.785	-11.696	0.037	0.024
-369.771	-29.852	-0.330	-0.186
-368.756	30.939	-0.188	-0.160
-367.742	52.372	-0.177	0.168
-366.727	-200.000	-0.041	0.358
-365.712	36.425	-0.073	0.064
-364.698	-60.981	0.323	-0.135
-363.683	54.129	-0.191	-0.182
-362.669	-48.089	0.213	-0.102
-361.654	64.004	0.096	-0.095
-360.639	-181.702	-0.321	0.006
-359.625	-200.000	-0.002	-0.140
-358.610	-115.790	0.099	0.018
-357.596	7.677	-0.223	0.165
-356.581	183.584	-0.082	-0.120
-355.566	-173.208	0.234	0.007
-354.552	7.059	0.132	-0.097
-353.537	-23.960	-0.140	0.083
-352.523	-200.000	0.073	-0.376
-351.508	800.000	0.089	0.282
-350.493	17.662	0.107	0.084
-349.479	800.000	-0.008	0.033
-348.464	-31.250	0.153	0.085
-347.450	-86.897	0.187	-0.057
-346.435	43.771	-0.225	0.204
-345.420	97.291	0.080	-0.091
-344.406	-200.000	-0.009	0.130
-343.391	-200.000	-0.001	-0.102
-342.377	-26.336	0.123	0.071
-341.362	-42.324	-0.205	-0.104
-340.348	146.916	-0.072	-0.096
-339.333	-81.408	-0.278	0.091
-338.318	396.051	0.044	0.091
-337.304	-166.717	-0.263	0.011
-336.289	800.000	0.131	-0.525
-335.275	-70.134	-0.175	0.066
-334.260	-200.000	-0.009	-0.055
-333.245	61.262	-0.188	0.184
-332.231	-200.000	0.008	-0.069
-331.216	185.688	-0.161	-0.237
-330.202	800.000	-0.078	0.225
-329.187	-200.000	-0.001	-0.163
-328.172	-164.395	-0.380	-0.017
-327.158	-53.806	0.096	-0.043
-326.143	-149.743	0.329	0.026
-325.129	-0.423	0.422	-0.296
-324.114	78.843	-0.209	-0.222
-323.099	505.584	-0.028	-0.064
-322.085	-106.391	0.250	0.055
-321.070	-200.000	-0.029	-0.380
-320.056	-200.000	0.027	0.268
-319.041	-77.327	0.175	-0.060
-318.026	800.000	0.034	-0.109
-317.012	6.081	0.130	0.095
-315.997	338.093	-0.058	0.111
-314.983	-200.000	-0.032	0.152
-313.968	-107.952	0.064	0.014
-312.953	800.000	0.075	-0.275
-311.939	-7.708	-0.230	-0.153
-310.924	63.552	0.044	-0.044
-309.910	266.426	-0.147	-0.255
-308.895	-76.033	-0.084	0.029
-307.880	-181.170	-0.153	0.003
-306.866	-189.787	-0.285	0.003
-305.851	-17.150	-0.287	-0.179
-304.837	294.616	0.111	0.200
-303.822	800.000	-0.022	0.083
-302.807	-200.000	-0.002	0.116
-301.793	-155.150	-0.235	0.015
-300.778	800.000	0.112	-0.474
-299.764	14.510	0.130	-0.100
-298.749	-100.937	-0.241	0.059
-297.735	741.397	-0.046	0.122
-296.720	-42.031	0.224	-0.113
-295.705	657.238	0.143	0.363
-294.691	103.993	-0.212	-0.246
-293.676	120.799	-0.075	-0.092
-292.662	800.000	-0.036	0.102
-291.647	51.658	-0.229	-0.215
-290.632	-31.634	-0.321	-0.178
-289.618	-170.004	-0.149	0.005
-288.603	572.379	-0.190	0.458
-287.589	-49.070	-0.452	-0.214
-286.574	56.727	0.296	0.284
-285.559	334.206	0.180	0.344
-284.545	585.428	0.137	0.333
-283.530	800.000	-0.113	0.328
-282.516	800.000	0.026	0.079
-281.501	86.238	0.015	0.017
-280.486	114.669	0.092	-0.110
-279.472	-184.118	-0.066	0.001
-278.457	73.351	-0.257	0.266
-277.443	-84.319	-0.305	-0.095
-276.428	-120.962	0.140	0.023
-275.413	25.250	0.143	0.117
-274.399	39.153	0.266	-0.235
-273.384	293.557	-0.106	0.192
-272.370	-28.267	0.330	0.188
-271.355	91.283	-0.193	0.214
-270.340	24.775	-0.057	-0.047
-269.326	-86.875	0.363	-0.109
-268.311	-200.000	-0.031	-0.299
-267.297	-36.154	0.045	-0.024
-266.282	4.869	0.218	-0.159
-265.267	-200.000	-0.036	-0.257
-264.253	29.173	-0.116	-0.098
-263.238	23.144	-0.168	-0.136
-262.224	97.040	-0.161	0.182
-261.209	-200.000	0.013	0.371
-260.195	37.369	-0.188	0.165
-259.180	-10.814	0.105	-0.068
-258.165	800.000	-0.048	0.173
-257.151	-193.046	-0.122	0.001
-256.136	582.423	0.108	0.261
-255.122	135.839	-0.195	0.251
-254.107	-16.476	0.053	0.033
-253.092	47.309	0.060	-0.055
-252.078	253.447	0.111	0.188
-251.063	-59.010	-0.120	0.051
-250.049	-72.302	0.343	0.125
-249.034	-200.000	-0.035	0.183
-248.019	-200.000	-0.013	0.194
-247.005	-200.000	0.006	-0.085
-245.990	26.053	0.176	-0.145
-244.976	-57.608	0.294	0.127
-243.961	96.878	-0.104	0.117
-242.946	-94.036	0.307	-0.083
-241.932	800.000	-0.011	0.040
-240.917	-28.204	0.230	-0.131
-239.903	-73.114	-0.216	0.078
-238.888	-27.088	0.293	0.169
-237.873	-31.775	-0.247	0.137
-236.859	42.104	0.088	0.079
-235.844	-31.190	-0.423	-0.235
-234.830	-168.976	-0.043	-0.002
-233.815	131.061	0.112	0.142
-232.800	-38.077	-0.089	0.046
-231.786	130.164	0.050	-0.063
-230.771	-200.000	0.045	-0.242
-229.757	648.633	-0.070	-0.177
-228.742	-27.832	-0.194	-0.111
-227.727	672.537	0.118	0.301
-226.713	-200.000	-0.042	0.499
-225.698	800.000	-0.186	-0.525
-224.684	9.235	0.060	-0.044
-223.669	-20.553	0.169	-0.103
-222.655	800.000	-0.083	0.314
-221.640	-151.012	-0.289	0.021
-220.625	-59.176	-0.235	-0.100
-219.611	-87.373	-0.500	-0.149
-218.596	-178.164	0.308	0.007
-217.582	146.758	0.129	-0.171
-216.567	91.465	-0.028	0.032
-215.552	-62.072	-0.113	0.047
-214.538	212.562	-0.122	-0.190
-213.523	40.723	-0.238	0.211
-212.509	-133.430	-0.218	-0.027
-211.494	195.795	0.041	-0.062
-210.479	243.163	0.045	-0.074
-209.465	-170.181	-0.172	-0.006
-208.450	149.432	-0.188	-0.251
-207.436	-10.804	-0.162	0.105
-206.421	-200.000	-0.039	-0.210
-205.406	-18.652	-0.330	-0.203
-204.392	478.553	0.199	-0.445
-203.377	-74.992	0.070	-0.025
-202.363	-180.028	-0.208	0.004
-201.348	800.000	0.087	0.263
-200.333	82.885	0.088	0.094
-199.319	114.307	0.111	-0.133
-198.304	169.040	0.094	-0.133
-197.290	106.605	0.293	0.342
-196.275	-75.999	0.233	-0.081
-195.260	-200.000	0.030	0.274
-194.246	-200.000	-0.004	0.184
-193.231	-173.591	0.260	0.008
-192.217	561.787	-0.064	-0.152
-191.202	511.784	0.059	0.135
-190.187	-12.318	-0.244	-0.157
-189.173	65.324	0.130	0.130
-188.158	87.352	0.267	0.291
-187.144	100.835	0.240	-0.274
-186.129	-53.859	-0.129	0.058
-185.114	-200.000	0.018	-0.169
-184.100	800.000	0.075	0.266
-183.085	48.783	-0.285	0.263
-182.071	-107.771	-0.461	-0.099
-181.056	485.205	0.034	0.077
-180.042	-149.366	-0.453	-0.035
-179.027	-88.060	0.529	-0.156
-178.012	-200.000	-0.017	-0.302
-176.998	657.789	0.056	0.143
-175.983	704.773	0.042	-0.109
-174.969	-5.718	-0.181	-0.122
-173.954	25.497	0.076	-0.062
-172.939	-200.000	0.394	0.001
-171.925	72.772	0.144	0.148
-170.910	-200.000	-0.025	-0.221
-169.896	-10.966	0.136	0.089
-168.881	426.019	-0.017	-0.035
-167.866	800.000	-0.047	-0.128
-166.852	372.557	0.145	-0.290
-165.837	226.713	0.071	0.114
-164.823	-54.906	-0.139	0.062
-163.808	-131.783	0.396	0.051
-162.793	-69.819	-0.202	0.076
-161.779	307.574	0.094	-0.173
-160.764	218.831	0.083	-0.131
-159.750	800.000	-0.078	-0.224
-158.735	192.364	0.178	0.264
-157.720	118.297	0.120	0.146
-156.706	127.672	-0.147	-0.183
-155.691	-200.000	0.105	0.495
-154.677	102.990	0.122	0.140
-153.662	38.127	0.057	-0.050
-152.647	-106.371	-0.303	-0.067
-151.633	-58.265	0.273	0.117
-150.618	-0.305	0.236	0.165
-149.604	139.621	0.144	-0.186
-148.589	-5.602	0.109	-0.073
-147.574	-1.709	-0.187	-0.129
-146.560	173.460	-0.174	-0.247
-145.545	-97.161	-0.320	-0.082
-144.531	97.957	-0.140	0.158
-143.516	10.423	-0.274	0.205
-142.502	-200.000	0.010	-0.098
-141.487	145.256	0.150	-0.197
-140.472	-110.734	-0.182	-0.037
-139.458	6.642	-0.048	-0.035
-138.443	-177.839	0.111	0.003
-137.429	159.785	0.155	0.212
-136.414	122.548	0.083	0.102
-135.399	-22.996	0.080	0.047
-134.385	18.941	0.195	-0.153
-133.370	-147.334	-0.420	-0.035
-132.356	-43.124	0.070	0.035
-131.341	34.879	0.207	0.178
-130.326	25.134	0.384	0.313
-129.312	-168.701	-0.025	0.001
-128.297	-200.000	0.042	-0.288
-127.283	-200.000	0.008	-0.288
-126.268	-200.000	0.015	-0.064
-125.253	-75.044	0.060	-0.021
-124.239	-58.457	-0.131	-0.056
-123.224	-200.000	0.089	-0.482
-122.210	-131.764	0.332	-0.043
-121.195	-56.671	0.040	-0.017
-120.180	535.024	0.123	0.286
-119.166	-46.864	0.069	0.033
-118.151	-200.000	-0.028	-0.209
-117.137	598.790	-0.147	-0.359
-116.122	45.643	0.180	0.163
-115.107	800.000	-0.030	-0.126
-114.093	25.670	-0.302	0.247
-113.078	14.221	0.181	0.139
-112.064	-200.000	0.002	-0.062
-111.049	-14.559	-0.194	-0.122
-110.034	-46.779	-0.288	-0.138
-109.020	-200.000	0.008	-0.079
-108.005	-40.321	-0.093	0.047
-106.991	248.416	0.081	0.135
-105.976	251.675	0.179	-0.299
-104.962	-60.852	0.133	0.055
-103.947	292.850	0.024	-0.044
-102.932	-67.420	0.174	0.067
-101.918	800.000	0.056	0.224
-100.903	-140.725	0.076	-0.008
-99.889	-37.320	0.382	-0.200
-98.874	-200.000	0.061	0.265
-97.859	-108.357	0.151	0.032
-96.845	277.611	0.073	-0.128
-95.830	-200.000	-0.059	-0.261
-94.816	99.593	0.119	-0.135
-93.801	-200.000	0.010	-0.047
-92.786	-138.020	0.287	0.031
-91.772	13.831	-0.342	0.261
-90.757	-3.138	0.136	0.093
-89.743	81.813	-0.344	-0.365
-88.728	-200.000	-0.026	-0.197
-87.713	604.128	-0.079	-0.192
-86.699	-93.798	-0.304	0.082
-85.684	74.748	0.214	-0.221
-84.670	42.870	-0.086	0.076
-83.655	-200.000	0.032	-0.174
-82.640	64.100	-0.397	-0.392
-81.626	-104.276	0.282	0.064
-80.611	2.110	-0.100	0.071
-79.597	333.423	-0.094	0.178
-78.582	352.081	0.149	0.289
-77.567	620.201	0.034	0.083
-76.553	-15.244	-0.252	-0.158
-75.538	642.027	0.142	0.355
-74.524	-72.120	-0.116	0.042
-73.509	239.691	0.139	-0.227
-72.494	454.702	-0.136	0.295
-71.480	-10.235	-0.199	0.129
-70.465	800.000	0.053	0.189
-69.451	-162.986	0.226	-0.011
-68.436	-78.629	0.161	-0.054
-67.422	57.803	-0.072	-0.069
-66.407	-163.907	0.290	0.013
-65.392	-200.000	0.039	0.210
-64.378	-90.323	-0.185	0.053
-63.363	-200.000	0.025	-0.429
-62.349	-200.000	0.007	0.268
-61.334	19.679	-1.234	-0.973
-60.319	-45.400	0.895	0.434
-59.305	119.856	-0.494	-0.600
-58.290	614.663	0.445	1.091
-57.276	189.482	1.095	1.608
-56.261	-200.000	113.580	666.832
-55.246	556.577	1515.999	3576.549
-54.232	179.762	2679.074	3842.745
-53.217	112.243	2147.279	2541.947
-52.203	39.711	1596.238	1401.910
-51.188	31.317	1343.593	1129.491
-50.173	28.486	1305.930	1081.120
-49.159	56.367	1362.435	1296.293
-48.144	55.137	1376.982	1302.715
-47.130	31.617	1332.049	1121.408
-46.115	28.064	1314.110	1085.218
-45.100	27.907	1309.572	1080.497
-44.086	27.841	1307.198	1078.106
-43.071	27.715	1305.172	1075.652
-42.057	27.838	1302.803	1074.377
-41.042	27.808	1301.424	1073.020
-40.027	27.882	1299.579	1071.889
-39.013	27.885	1298.014	1070.579
-37.998	27.898	1295.751	1068.744
-36.984	27.882	1294.471	1067.551
-35.969	27.986	1292.151	1066.205
-34.954	28.018	1290.720	1065.165
-33.940	27.947	1289.140	1063.409
-32.925	27.945	1287.865	1062.301
-31.911	28.015	1286.544	1061.577
-30.896	28.072	1285.223	1060.773
-29.881	28.074	1283.986	1059.726
-28.867	28.084	1283.156	1059.052
-27.852	28.061	1281.404	1057.431
-26.838	27.984	1280.000	1055.787
-25.823	27.922	1279.000	1054.564
-24.809	27.933	1277.513	1053.357
-23.794	27.958	1276.151	1052.336
-22.779	27.880	1275.082	1050.967
-21.765	28.044	1273.383	1050.465
-20.750	28.125	1271.427	1049.275
-19.736	27.887	1271.092	1047.593
-18.721	27.844	1269.636	1046.105
-17.706	27.889	1268.022	1044.990
-16.692	27.929	1267.454	1044.710
-15.677	27.933	1266.441	1043.855
-14.663	27.960	1265.216	1042.960
-13.648	27.867	1264.264	1041.605
-12.633	27.964	1262.806	1040.912
-11.619	27.831	1262.286	1039.687
-10.604	27.859	1261.101	1038.828
-9.590	27.847	1260.079	1037.879
-8.575	27.894	1259.247	1037.416
-7.560	27.825	1258.681	1036.516
-6.546	27.938	1257.830	1036.416
-5.531	27.913	1257.077	1035.616
-4.517	27.927	1255.979	1034.748
-3.502	27.978	1255.190	1034.342
-2.487	27.966	1253.964	1033.227
-1.473	27.972	1249.956	1029.917
-0.458	26.351	1234.765	1008.327
0.556	23.172	1217.723	969.668
1.571	19.426	1222.666	952.871
2.586	18.556	1236.858	958.980
3.600	18.215	1225.209	947.974
4.615	13.590	1154.121	868.703
5.629	6.497	1081.920	779.312
6.644	3.502	1063.596	751.474
7.659	3.183	1061.659	748.487
8.673	3.176	1060.392	747.490
9.688	3.109	1059.452	746.439
10.702	3.564	1056.717	746.646
11.717	7.545	1062.659	770.116
12.731	15.155	1073.264	814.885
13.746	19.501	1079.026	840.398
14.761	20.001	1079.019	842.753
15.775	19.128	1077.330	837.117
16.790	18.099	1075.044	830.270
17.804	17.317	1073.996	825.592
18.819	17.136	1072.516	823.502
19.834	17.005	1071.589	822.084
20.848	16.873	1070.810	820.772
21.863	16.633	1070.366	819.201
22.877	16.518	1069.375	817.814
23.892	16.339	1069.224	816.756
24.907	16.451	1067.737	816.090
25.921	16.563	1067.244	816.185
26.936	16.466	1065.959	814.659
27.950	16.551	1064.374	813.788
28.965	16.785	1062.562	813.453
29.980	16.765	1061.469	812.446
30.994	16.936	1060.152	812.186
32.009	16.923	1059.291	811.393
33.023	16.858	1058.325	810.269
34.038	16.748	1057.347	808.926
35.053	16.567	1056.809	807.576
36.067	16.596	1055.530	806.668
37.082	16.792	1054.848	807.007
38.096	16.704	1054.518	806.267
39.111	16.776	1053.452	805.721
40.126	16.583	1051.918	803.562
41.140	16.421	1050.308	801.490
42.155	16.272	1049.460	800.069
43.169	16.342	1047.940	799.170
44.184	16.338	1047.313	798.601
45.199	16.215	1046.577	797.389
46.213	16.506	1044.807	797.340
47.228	16.615	1044.569	797.604
48.242	16.672	1043.428	796.931
49.257	16.644	1041.985	795.627
50.271	16.687	1041.742	795.573
51.286	16.572	1041.032	794.418
52.301	16.608	1039.952	793.693
53.315	16.512	1038.843	792.325
54.330	16.483	1037.559	791.140
55.344	16.359	1037.096	790.137
56.359	16.461	1035.839	789.588
57.374	16.386	1035.315	788.769
58.388	16.309	1034.478	787.700
59.403	16.230	1033.637	786.622
60.417	16.233	1032.986	786.070
61.432	16.329	1031.829	785.568
62.447	16.234	1030.758	784.243
63.461	16.023	1030.362	782.893
64.476	16.123	1029.136	782.354
65.490	16.206	1028.375	782.094
66.505	16.149	1027.796	781.319
67.520	16.316	1026.834	781.289
68.534	16.306	1026.045	780.573
69.549	16.133	1025.588	779.357
70.563	16.143	1024.759	778.707
71.578	16.117	1023.506	777.564
72.593	15.949	1023.100	776.415
73.607	15.912	1022.538	775.749
74.622	15.969	1022.200	775.684
75.636	16.016	1021.489	775.295
76.651	16.131	1020.735	775.183
77.666	16.036	1020.349	774.384
78.680	16.059	1019.712	773.938
79.695	16.117	1018.222	773.004
80.709	16.222	1017.791	773.090
81.724	16.432	1016.968	773.354
82.739	16.397	1016.745	772.958
83.753	16.541	1016.279	773.194
84.768	16.654	1015.666	773.175
85.782	16.764	1014.829	772.971
86.797	16.919	1013.648	772.709
87.812	16.657	1012.731	770.751
88.826	16.745	1011.503	770.146
89.841	16.788	1010.428	769.457
90.855	16.764	1009.751	768.766
91.870	16.909	1008.937	768.733
92.884	16.870	1008.129	767.874
93.899	16.802	1007.364	766.915
94.914	16.929	1006.467	766.737
95.928	16.933	1005.864	766.227
96.943	16.725	1005.087	764.628
97.957	16.732	1003.784	763.601
98.972	16.787	1002.854	763.078
99.987	16.864	1002.287	762.921
101.001	16.755	1001.142	761.496
102.016	16.697	1000.354	760.569
103.030	16.897	999.591	760.817
104.045	16.717	998.867	759.393
105.060	16.619	997.970	758.202
106.074	16.466	996.636	756.436
107.089	16.341	995.155	754.689
108.103	16.289	994.765	754.093
109.118	16.217	993.875	753.032
110.133	16.245	992.424	751.991
111.147	16.285	991.478	751.383
112.162	16.168	991.173	750.564
113.176	16.339	989.878	750.277
114.191	16.522	989.568	750.790
115.206	16.479	988.638	749.829
116.220	16.362	988.044	748.794
117.235	16.425	986.692	747.981
118.249	16.268	986.408	747.003
119.264	16.253	985.566	746.234
120.279	16.315	984.523	745.653
121.293	16.188	983.438	744.205
122.308	16.141	982.637	743.325
123.322	16.067	981.679	742.209
124.337	16.095	980.568	741.427
125.352	16.081	979.564	740.541
126.366	16.236	978.338	740.227
127.381	16.091	977.427	738.838
128.395	16.297	976.558	739.016
129.410	16.311	976.152	738.708
130.424	16.285	975.445	737.992
131.439	16.359	974.405	737.464
132.454	16.446	973.693	737.239
133.468	16.378	973.145	736.463
134.483	16.451	971.857	735.740
135.497	16.513	971.042	735.325
136.512	16.341	970.447	734.063
137.527	16.364	969.850	733.648
138.541	16.384	968.829	732.895
139.556	16.481	968.375	732.907
140.570	16.622	967.784	733.010
141.585	16.709	967.076	732.781
142.600	16.828	966.128	732.514
143.614	16.850	965.509	732.073
144.629	16.875	964.565	731.402
145.643	16.662	963.878	729.897
146.658	16.584	962.859	728.726
147.673	16.631	961.516	727.847
148.687	16.363	960.758	726.058
149.702	16.513	959.690	725.831
150.716	16.419	959.030	724.862
151.731	16.448	958.355	724.415
152.746	16.370	957.913	723.680
153.760	16.630	957.092	724.110
154.775	16.713	956.825	724.196
155.789	16.750	955.578	723.348
156.804	16.706	955.188	722.801
157.819	16.837	954.215	722.559
158.833	16.891	953.799	722.410
159.848	16.942	953.140	722.065
160.862	16.727	952.006	720.229
161.877	16.603	950.637	718.600
162.892	16.493	949.538	717.239
163.906	16.530	948.736	716.729
164.921	16.362	948.320	715.639
165.935	16.527	947.167	715.402
166.950	16.674	946.285	715.297
167.964	16.716	945.388	714.733
168.979	16.684	944.242	713.665
169.994	16.623	943.802	713.015
171.008	16.694	942.989	712.636
172.023	16.737	942.760	712.580
173.037	16.894	941.961	712.572
174.052	16.889	941.154	711.879
175.067	16.599	939.937	709.679
176.081	16.490	939.648	708.941
177.096	16.556	939.383	708.957
178.110	16.630	938.557	708.578
179.125	16.802	937.796	708.660
180.140	16.657	937.498	707.768
181.154	16.869	936.943	708.171
182.169	16.952	936.724	708.290
183.183	16.920	936.219	707.710
184.198	17.109	934.725	707.309
185.213	16.922	934.520	706.309
186.227	16.999	933.891	706.094
187.242	17.105	933.284	706.014
188.256	17.182	932.493	705.670
189.271	17.170	931.563	704.857
190.286	16.834	930.761	702.794
191.300	16.548	929.769	700.796
192.315	16.448	929.381	700.027
193.329	16.617	928.595	700.075
194.344	16.703	928.117	700.007
195.359	16.769	927.738	699.931
196.373	16.913	926.999	699.907
197.388	17.083	926.884	700.462
198.402	17.112	926.941	700.562
199.417	17.192	925.895	700.037
200.432	17.368	925.261	700.222
201.446	17.310	924.885	699.634
202.461	17.395	924.773	699.837
203.475	17.322	923.958	698.860
204.490	17.219	922.689	697.414
205.504	17.107	922.063	696.420
206.519	17.212	920.987	695.977
207.534	17.136	920.593	695.306
208.548	17.106	920.150	694.788
209.563	17.154	919.467	694.407
210.577	17.187	918.517	693.765
211.592	17.265	918.151	693.743
212.607	17.368	917.266	693.434
213.621	17.347	916.329	692.579
214.636	17.322	915.789	692.008
215.650	17.334	915.365	691.672
216.665	17.540	914.321	691.660
217.680	17.572	913.677	691.240
218.694	17.570	913.112	690.747
219.709	17.389	912.339	689.368
220.723	17.420	911.586	688.863
221.738	17.475	910.949	688.542
222.753	17.463	910.349	687.978
223.767	17.508	910.368	688.115
224.782	17.669	909.153	687.786
225.796	17.712	908.667	687.529
226.811	17.477	908.547	686.432
227.826	17.630	906.981	685.802
228.840	17.585	906.353	685.085
229.855	17.519	905.972	684.474
230.869	17.479	905.155	683.633
231.884	17.371	904.550	682.684
232.899	17.309	903.791	681.803
233.913	17.370	902.805	681.241
234.928	17.324	902.234	680.566
235.942	17.330	901.874	680.258
236.957	17.270	901.051	679.336
237.972	17.212	900.879	678.916
238.986	17.259	900.265	678.580
240.001	17.237	899.622	677.947
241.015	17.280	899.059	677.635
242.030	17.379	898.455	677.516
243.045	17.445	897.704	677.150
244.059	17.635	896.963	677.286
245.074	17.538	896.375	676.399
246.088	17.618	895.965	676.348
247.103	17.805	895.259	676.494
248.117	17.716	895.631	676.365
249.132	17.949	895.016	676.761
250.147	18.198	893.996	676.917
251.161	17.995	893.966	676.032
252.176	18.206	893.046	676.111
253.190	18.131	892.705	675.495
254.205	18.217	891.804	675.095
255.220	18.228	890.912	674.401
256.234	18.271	890.117	673.911
257.249	18.164	889.772	673.167
258.263	18.202	888.985	672.662
259.278	18.252	888.225	672.225
260.293	18.408	887.431	672.177
261.307	18.396	887.493	672.114
262.322	18.329	886.813	671.280
263.336	18.472	885.898	671.086
264.351	18.513	885.036	670.536
265.366	18.549	884.270	670.034
266.380	18.442	883.677	669.109
267.395	18.299	883.364	668.255
268.409	18.328	882.469	667.633
269.424	18.402	881.530	667.150
270.439	18.270	880.469	665.777
271.453	18.227	880.270	665.398
272.468	18.194	879.801	664.857
273.482	18.144	879.726	664.549
274.497	18.308	878.586	664.263
275.512	18.370	877.622	663.718
276.526	18.191	877.755	663.066
277.541	18.446	877.300	663.649
278.555	18.562	876.887	663.727
279.570	18.736	876.171	663.801
280.585	18.438	875.312	661.939
281.599	18.403	873.952	660.718
282.614	18.572	873.038	660.618
283.628	18.463	873.049	660.148
284.643	18.456	872.522	659.665
285.657	18.494	871.785	659.196
286.672	18.394	871.372	658.442
287.687	18.430	870.546	657.895
288.701	18.434	870.315	657.681
289.716	18.495	869.767	657.440
290.730	18.566	868.742	656.880
291.745	18.554	868.185	656.353
292.760	18.744	867.495	656.501
293.774	18.752	867.162	656.221
294.789	18.592	866.717	655.217
295.803	18.591	865.668	654.361
296.818	18.574	864.941	653.689
297.833	18.512	864.351	652.950
298.847	18.623	863.647	652.783
299.862	18.601	863.378	652.437
300.876	18.741	862.842	652.507
301.891	18.746	862.295	652.055
302.906	18.808	861.897	651.929
303.920	19.012	861.434	652.297
304.935	19.006	860.677	651.643
305.949	19.049	859.735	651.033
306.964	18.774	859.418	649.696
307.979	18.798	858.900	649.336
308.993	18.904	858.144	649.109
310.008	19.067	857.734	649.357
311.022	18.911	856.911	648.089
312.037	18.781	856.375	647.136
313.052	18.666	855.948	646.323
314.066	18.564	855.375	645.450
315.081	18.545	854.476	644.642
316.095	18.610	853.775	644.301
317.110	18.487	853.640	643.678
318.125	18.699	852.794	643.781
319.139	18.666	852.821	643.621
320.154	18.699	852.332	643.319
321.168	18.749	851.415	642.755
322.183	18.734	851.172	642.458
323.197	18.680	850.712	641.854
324.212	18.882	850.081	642.074
325.227	18.744	849.453	641.028
326.241	18.843	848.915	640.936
327.256	18.744	848.021	639.834
328.270	18.793	847.455	639.534
329.285	18.687	847.129	638.837
330.300	18.632	846.738	638.279
331.314	18.807	845.819	638.182
332.329	18.949	846.096	638.863
333.343	19.121	845.206	638.770
334.358	19.076	844.477	637.998
335.373	19.075	844.376	637.860
336.387	19.163	844.082	637.909
337.402	19.246	843.859	637.990
338.416	19.310	843.563	637.946
339.431	19.367	843.453	638.019
340.446	19.276	843.413	637.593
341.460	19.522	842.173	637.510
342.475	19.442	842.315	637.266
343.489	19.475	841.791	636.933
344.504	19.621	840.947	636.778
345.519	19.532	840.511	636.063
346.533	19.525	840.324	635.840
347.548	19.416	839.107	634.461
348.562	19.303	838.837	633.785
349.577	19.025	838.541	632.483
350.592	19.227	837.362	632.280
351.606	19.182	836.790	631.629
352.621	18.995	836.485	630.656
353.635	19.190	835.575	630.627
354.650	19.273	835.131	630.541
355.665	19.167	834.903	629.926
356.679	19.283	834.085	629.677
357.694	19.340	833.349	629.271
358.708	19.415	832.728	629.020
359.723	19.413	831.903	628.336
360.738	19.456	831.518	628.147
361.752	19.428	831.260	627.792
362.767	19.581	830.202	627.497
363.781	19.714	829.946	627.730
364.796	19.639	829.805	627.295
365.810	19.692	829.395	627.121
366.825	20.038	828.673	627.774
367.840	19.893	828.106	626.763
368.854	19.717	827.945	625.949
369.869	19.707	827.534	625.548
370.883	19.825	827.115	625.602
371.898	19.920	826.601	625.500
372.913	19.845	825.962	624.692
373.927	19.825	825.520	624.230
374.942	19.750	825.184	623.649
375.956	19.988	824.773	624.142
376.971	19.949	824.470	623.715
377.986	20.050	823.923	623.609
379.000	20.071	823.606	623.393
380.015	19.931	822.836	622.250
381.029	20.142	822.037	622.347
382.044	20.092	821.638	621.813
383.059	20.093	821.192	621.424
384.073	19.955	820.458	620.318
385.088	19.940	819.855	619.754
386.102	19.808	819.268	618.783
387.117	19.770	819.163	618.512
388.132	19.710	818.364	617.640
389.146	19.949	817.280	617.621
390.161	20.046	817.043	617.732
391.175	20.089	816.826	617.666
392.190	19.878	816.152	616.352
393.205	19.936	815.927	616.334
394.219	19.919	815.331	615.767
395.234	19.796	814.936	614.976
396.248	19.687	814.237	614.010
397.263	19.738	813.708	613.736
398.278	19.614	813.539	613.116
399.292	19.708	812.942	612.945
400.307	19.643	812.976	612.686
401.321	19.658	812.246	612.134
402.336	19.762	811.603	611.962
403.350	19.897	811.198	612.082
404.365	20.125	810.437	612.259
405.380	20.257	810.238	612.520
406.394	20.265	810.071	612.367
407.409	20.283	809.665	612.070
408.423	20.312	809.291	611.834
409.438	20.341	809.034	611.689
410.453	20.360	808.483	611.285
411.467	20.480	808.195	611.436
412.482	20.466	807.557	610.851
413.496	20.612	807.113	610.971
414.511	20.605	806.559	610.473
415.526	20.604	806.405	610.302
416.540	20.518	805.747	609.448
417.555	20.445	805.543	608.981
418.569	20.617	804.990	609.113
419.584	20.603	804.268	608.463
420.599	20.447	804.167	607.787
421.613	161.544	1373.072	1796.036
422.628	140.365	1455.924	1796.100
