DTS Sentinel unit serial number:	SN413079Multiplexer serial number:	ORYXHardware model number:	OX4-SRSoftware version number:	ORYX F/W v4.00 Oryx Data Collector v3.7.2.0data status	okinstallation	princeton_trtdifferential loss correction	single-endedforward channel	channel 1reverse channel	N/Adate	2019/09/19time	07:30:35forward acquisition time	60.00reverse acquisition time	0.00gamma	496.2192k internal	0.2342k external	0.2342temperature offset calibration	1.0015default loss term (dB/km)	0.3790temperature slope calibration	1.0000multiplexer offset coefficient	1.0000multiplexer slope coefficient	1.0000fibre end	0.00T internal ref (°C)	19.25T ext. ref 1 (°C)	0.55T ext. ref 2 (°C)	13.97length (m)	temperature (°C)	Stokes	anti-Stokes-747.200	-133.703	-0.158	0.020
-746.185	-200.000	-0.106	0.000
-745.171	363.922	0.052	0.104
-744.156	-71.380	-0.080	0.030
-743.142	79.970	-0.255	0.275
-742.127	234.997	-0.314	0.519
-741.112	94.281	0.168	-0.191
-740.098	399.013	-0.195	0.409
-739.083	553.794	-0.026	0.063
-738.069	223.010	-0.055	0.089
-737.054	-173.401	-0.185	-0.006
-736.039	3.904	-0.210	-0.154
-735.025	-67.319	0.153	0.060
-734.010	-21.208	-0.282	0.173
-732.996	-46.576	-0.204	-0.100
-731.981	800.000	0.023	-0.093
-730.966	25.921	-0.098	-0.082
-729.952	17.577	-0.130	0.103
-728.937	-200.000	0.003	-0.223
-727.923	-200.000	0.004	-0.305
-726.908	523.653	-0.152	-0.358
-725.894	-200.000	0.044	-0.322
-724.879	101.789	0.097	-0.113
-723.864	-78.978	0.242	-0.082
-722.850	731.290	-0.060	-0.161
-721.835	189.543	0.077	-0.116
-720.821	65.619	0.079	-0.080
-719.806	68.237	0.043	0.044
-718.791	-200.000	0.012	0.168
-717.777	-82.736	-0.158	-0.051
-716.762	-200.000	-0.007	0.127
-715.748	-14.280	0.263	0.169
-714.733	-51.841	-0.255	-0.119
-713.718	800.000	0.028	-0.085
-712.704	-85.985	-0.144	-0.045
-711.689	196.627	0.078	0.119
-710.675	721.787	0.152	0.405
-709.660	105.365	-0.271	-0.320
-708.645	31.981	-0.145	-0.125
-707.631	800.000	0.092	0.296
-706.616	259.135	0.125	-0.216
-705.602	-24.235	-0.131	-0.078
-704.587	-37.662	-0.152	0.081
-703.572	-21.709	0.179	0.109
-702.558	-115.433	0.117	0.022
-701.543	-34.861	-0.186	-0.101
-700.529	-200.000	-0.047	0.378
-699.514	-171.680	-0.154	0.005
-698.499	-18.653	-0.297	0.185
-697.485	-200.000	-0.032	-0.216
-696.470	-200.000	-0.025	-0.463
-695.456	800.000	0.064	-0.232
-694.441	23.388	-0.063	-0.052
-693.426	-200.000	-0.032	-0.218
-692.412	-87.035	-0.108	-0.033
-691.397	93.222	0.149	0.169
-690.383	546.226	0.234	-0.560
-689.368	19.331	0.361	-0.290
-688.354	-103.284	0.212	-0.050
-687.339	46.516	0.269	0.250
-686.324	-41.535	0.126	0.065
-685.310	-200.000	0.007	0.164
-684.295	426.044	-0.049	0.105
-683.281	140.525	-0.179	0.237
-682.266	292.179	-0.084	-0.153
-681.251	75.788	0.310	0.327
-680.237	-115.754	0.206	0.039
-679.222	-27.009	-0.073	-0.042
-678.208	-200.000	0.015	0.105
-677.193	-132.738	0.155	0.020
-676.178	800.000	-0.051	-0.162
-675.164	98.300	0.187	0.215
-674.149	-200.000	0.011	-0.107
-673.135	-13.556	-0.018	0.012
-672.120	-10.662	0.153	-0.101
-671.105	-11.685	-0.227	-0.149
-670.091	-200.000	-0.003	-0.145
-669.076	-21.156	-0.194	-0.118
-668.062	173.973	0.165	-0.239
-667.047	18.206	0.137	-0.109
-666.032	46.732	0.173	0.160
-665.018	800.000	0.121	-0.345
-664.003	-147.797	-0.194	0.016
-662.989	-32.247	-0.062	0.035
-661.974	312.257	0.074	0.139
-660.959	-1.903	-0.235	-0.165
-659.945	4.156	0.121	-0.089
-658.930	173.812	0.190	0.274
-657.916	-75.698	-0.205	0.073
-656.901	477.326	0.060	-0.136
-655.886	800.000	0.031	0.134
-654.872	459.054	-0.081	0.179
-653.857	399.773	-0.076	0.160
-652.843	-141.087	-0.165	-0.017
-651.828	45.761	0.327	0.302
-650.814	-200.000	0.040	-0.210
-649.799	133.292	-0.172	-0.222
-648.784	-1.688	-0.032	-0.022
-647.770	38.796	-0.266	-0.237
-646.755	-38.206	-0.236	-0.125
-645.741	-60.369	0.369	-0.156
-644.726	-20.311	-0.301	-0.185
-643.711	-117.329	-0.049	-0.009
-642.697	-16.426	-0.052	-0.033
-641.682	15.981	-0.212	-0.166
-640.668	-125.407	0.143	0.022
-639.653	-60.330	-0.100	0.043
-638.638	106.919	-0.018	-0.022
-637.624	134.799	0.167	0.216
-636.609	-200.000	-0.026	-0.315
-635.595	-200.000	0.058	-0.425
-634.580	-200.000	0.041	0.227
-633.565	211.325	0.164	-0.257
-632.551	800.000	-0.178	-0.490
-631.536	-200.000	-0.033	-0.287
-630.522	-13.421	0.059	-0.038
-629.507	-139.706	0.089	-0.009
-628.492	66.637	0.049	-0.050
-627.478	220.902	0.114	0.183
-626.463	321.553	0.069	-0.131
-625.449	-200.000	0.005	0.191
-624.434	322.433	-0.166	0.314
-623.419	-91.149	-0.285	-0.081
-622.405	-29.950	-0.182	0.103
-621.390	800.000	0.014	0.049
-620.376	800.000	-0.131	0.407
-619.361	-1.236	-0.345	0.243
-618.346	263.704	-0.029	0.050
-617.332	235.795	-0.011	0.018
-616.317	-85.999	0.100	-0.031
-615.303	-78.285	-0.184	-0.063
-614.288	16.034	0.077	0.061
-613.273	-96.836	0.138	-0.036
-612.259	209.920	-0.107	0.168
-611.244	-105.335	0.202	-0.046
-610.230	-200.000	-0.011	0.090
-609.215	257.914	-0.223	0.383
-608.201	-107.329	-0.192	-0.042
-607.186	-33.912	-0.263	-0.144
-606.171	670.132	-0.027	-0.070
-605.157	3.582	0.115	-0.083
-604.142	-111.912	0.338	-0.068
-603.128	-200.000	0.002	-0.068
-602.113	-173.708	-0.149	-0.004
-601.098	-116.862	-0.409	-0.075
-600.084	-200.000	-0.053	-0.281
-599.069	-61.002	-0.174	0.073
-598.055	69.882	-0.099	0.102
-597.040	-200.000	0.028	0.163
-596.025	-69.300	-0.235	-0.090
-595.011	-123.975	0.134	-0.021
-593.996	-30.437	-0.162	0.091
-592.982	-168.127	-0.204	0.008
-591.967	236.570	-0.076	0.125
-590.952	140.624	-0.217	-0.286
-589.938	-30.326	-0.260	0.147
-588.923	-200.000	0.010	0.118
-587.909	250.102	-0.044	0.074
-586.894	-200.000	-0.023	-0.406
-585.879	-42.217	0.310	-0.158
-584.865	-110.679	-0.143	-0.029
-583.850	-200.000	0.021	-0.284
-582.836	800.000	-0.053	0.157
-581.821	-200.000	-0.030	0.303
-580.806	-200.000	0.076	0.398
-579.792	-93.538	-0.142	0.039
-578.777	800.000	0.080	0.263
-577.763	-157.536	-0.197	0.012
-576.748	-200.000	-0.026	0.163
-575.733	129.144	-0.170	-0.215
-574.719	112.759	-0.134	-0.162
-573.704	800.000	0.077	-0.254
-572.690	-1.204	-0.145	0.102
-571.675	279.310	-0.231	0.410
-570.661	-7.821	0.256	0.172
-569.646	-77.565	0.206	0.071
-568.631	-103.929	0.164	0.038
-567.617	-200.000	0.004	0.095
-566.602	-200.000	0.026	0.181
-565.588	166.989	-0.131	-0.186
-564.573	460.673	0.203	-0.449
-563.558	25.738	0.063	0.052
-562.544	-90.107	-0.291	-0.084
-561.529	152.685	-0.093	-0.126
-560.515	-22.079	0.017	0.010
-559.500	800.000	-0.019	0.056
-558.485	-175.965	0.195	-0.005
-557.471	-193.924	0.380	0.003
-556.456	800.000	-0.086	0.313
-555.442	-78.136	0.299	0.102
-554.427	-131.795	-0.211	-0.027
-553.412	7.871	0.039	-0.029
-552.398	123.601	0.119	-0.148
-551.383	131.045	-0.110	-0.140
-550.369	-200.000	-0.001	-0.039
-549.354	345.156	0.170	0.332
-548.339	2.018	-0.151	-0.108
-547.325	-45.394	-0.174	0.086
-546.310	800.000	0.061	0.191
-545.296	-200.000	-0.020	-0.373
-544.281	-143.602	0.310	0.029
-543.266	-97.221	0.142	0.037
-542.252	800.000	-0.127	0.444
-541.237	800.000	-0.039	0.115
-540.223	800.000	-0.036	-0.127
-539.208	-131.102	0.245	0.032
-538.193	-156.944	-0.060	-0.004
-537.179	-10.564	0.247	-0.162
-536.164	-101.191	-0.218	-0.053
-535.150	800.000	0.021	0.079
-534.135	68.244	-0.066	0.067
-533.121	-75.331	-0.142	-0.050
-532.106	800.000	0.070	0.295
-531.091	-23.689	0.188	0.112
-530.077	340.081	-0.080	0.155
-529.062	165.474	-0.104	-0.146
-528.048	-152.111	-0.055	-0.004
-527.033	-200.000	-0.013	-0.082
-526.018	-200.000	0.009	-0.230
-525.004	32.633	-0.302	0.260
-523.989	187.561	0.279	0.414
-522.975	-200.000	-0.024	0.425
-521.960	178.818	0.112	-0.162
-520.945	800.000	0.023	-0.093
-519.931	-200.000	0.004	0.261
-518.916	-9.560	-0.124	0.082
-517.902	-54.774	-0.251	-0.113
-516.887	218.980	0.224	-0.356
-515.872	-54.535	0.213	0.096
-514.858	110.173	0.229	0.273
-513.843	-28.910	0.096	0.055
-512.829	178.083	0.204	-0.296
-511.814	132.871	-0.131	0.168
-510.799	800.000	-0.100	-0.304
-509.785	101.157	-0.164	-0.189
-508.770	-52.237	-0.189	-0.087
-507.756	-166.892	-0.254	-0.010
-506.741	84.312	-0.152	0.165
-505.726	-200.000	0.009	0.266
-504.712	-200.000	-0.031	0.440
-503.697	634.307	-0.096	0.241
-502.683	-87.833	-0.182	-0.054
-501.668	-28.101	-0.163	0.093
-500.653	18.390	0.041	-0.032
-499.639	-10.575	-0.053	-0.035
-498.624	-200.000	0.035	-0.235
-497.610	329.022	-0.066	0.126
-496.595	54.665	-0.263	0.252
-495.581	-119.282	0.268	0.046
-494.566	-33.341	0.090	0.050
-493.551	71.973	-0.221	0.229
-492.537	-200.000	0.039	-0.403
-491.522	162.007	0.035	0.048
-490.508	-200.000	-0.090	0.000
-489.493	72.422	-0.239	-0.247
-488.478	-128.100	0.445	-0.063
-487.464	112.159	-0.170	0.204
-486.449	-20.509	-0.245	-0.149
-485.435	800.000	0.103	-0.374
-484.420	-17.115	-0.133	0.083
-483.405	-200.000	-0.005	0.371
-482.391	328.461	0.171	-0.325
-481.376	320.070	0.125	0.234
-480.362	800.000	-0.084	0.304
-479.347	-27.337	0.248	-0.143
-478.332	-146.213	0.192	-0.017
-477.318	-200.000	-0.031	0.201
-476.303	-107.453	-0.047	0.010
-475.289	-97.110	-0.471	-0.122
-474.274	34.985	0.038	0.033
-473.259	800.000	0.129	0.354
-472.245	195.610	-0.071	-0.107
-471.230	-54.177	0.221	-0.100
-470.216	-58.865	0.377	-0.161
-469.201	63.738	0.026	-0.026
-468.186	63.076	0.183	-0.182
-467.172	676.238	-0.032	-0.081
-466.157	39.094	-0.068	-0.060
-465.143	87.422	0.167	0.183
-464.128	123.311	-0.114	-0.141
-463.113	-142.481	0.284	0.028
-462.099	-9.386	-0.143	-0.095
-461.084	134.576	-0.007	0.009
-460.070	-200.000	0.348	-0.001
-459.055	-8.444	0.053	-0.035
-458.040	-200.000	0.008	-0.184
-457.026	160.387	0.202	0.278
-456.011	800.000	-0.086	-0.298
-454.997	477.879	0.189	0.423
-453.982	757.911	0.066	-0.178
-452.968	29.255	-0.199	-0.168
-451.953	-23.036	-0.217	0.129
-450.938	23.361	-0.046	0.037
-449.924	-84.688	0.243	-0.076
-448.909	83.927	-0.208	0.225
-447.895	531.492	-0.206	0.482
-446.880	56.296	-0.180	0.174
-445.865	-200.000	-0.017	-0.120
-444.851	800.000	0.028	-0.087
-443.836	415.003	0.010	0.021
-442.822	800.000	-0.070	0.247
-441.807	-164.159	0.426	0.019
-440.792	-200.000	0.008	-0.041
-439.778	-200.000	0.003	-0.041
-438.763	79.609	0.360	-0.382
-437.749	300.074	-0.072	0.131
-436.734	81.179	0.163	0.174
-435.719	621.889	0.126	-0.314
-434.705	-77.160	0.410	0.141
-433.690	499.365	-0.067	0.152
-432.676	293.715	0.059	-0.106
-431.661	-83.891	-0.344	0.108
-430.646	786.410	0.025	-0.069
-429.632	5.212	0.476	0.347
-428.617	22.191	-0.066	0.053
-427.603	-44.839	0.182	-0.090
-426.588	-200.000	-0.031	-0.281
-425.573	-23.618	0.402	0.238
-424.559	-200.000	-0.001	-0.325
-423.544	-48.516	0.353	-0.168
-422.530	-200.000	0.004	0.093
-421.515	-79.977	-0.335	0.111
-420.500	-103.420	0.179	-0.042
-419.486	255.340	0.033	0.057
-418.471	63.410	0.351	-0.348
-417.457	27.424	-0.316	-0.263
-416.442	-200.000	-0.179	-0.000
-415.428	-102.364	0.061	-0.014
-414.413	130.804	0.299	-0.379
-413.398	482.063	0.192	-0.432
-412.384	-200.000	-0.014	-0.231
-411.369	3.442	0.198	-0.143
-410.355	373.509	0.048	-0.096
-409.340	134.618	-0.312	0.400
-408.325	358.967	-0.071	0.141
-407.311	72.919	0.131	-0.135
-406.296	47.944	0.273	0.252
-405.282	553.925	-0.125	0.297
-404.267	800.000	-0.073	-0.309
-403.252	-200.000	-0.059	0.324
-402.238	-200.000	0.042	-0.265
-401.223	800.000	0.087	-0.265
-400.209	-4.360	-0.180	-0.123
-399.194	50.908	-0.256	0.240
-398.179	-200.000	0.055	-0.390
-397.165	88.599	-0.144	0.158
-396.150	93.588	-0.214	0.240
-395.136	257.118	-0.045	0.076
-394.121	-50.351	-0.011	-0.005
-393.106	59.446	-0.245	-0.239
-392.092	6.173	-0.154	0.113
-391.077	6.600	-0.190	-0.140
-390.063	-153.010	-0.391	0.027
-389.048	21.543	-0.108	0.087
-388.033	-98.453	-0.246	0.062
-387.019	538.312	0.040	0.093
-386.004	154.518	0.163	-0.221
-384.990	-200.000	0.002	-0.008
-383.975	73.892	0.251	0.260
-382.960	800.000	0.041	0.166
-381.946	126.461	-0.093	-0.116
-380.931	800.000	-0.085	0.292
-379.917	800.000	0.059	-0.180
-378.902	29.222	0.304	-0.255
-377.888	-10.225	-0.137	0.090
-376.873	-56.565	-0.285	-0.125
-375.858	-200.000	0.012	0.063
-374.844	330.487	-0.081	0.154
-373.829	-200.000	-0.009	0.117
-372.815	128.237	0.211	0.265
-371.800	-200.000	-0.030	-0.226
-370.785	-167.322	0.070	-0.003
-369.771	800.000	0.048	0.184
-368.756	51.331	0.244	-0.229
-367.742	-50.196	0.135	-0.063
-366.727	727.873	0.127	0.335
-365.712	-13.175	0.386	0.247
-364.698	-9.577	0.203	0.134
-363.683	32.207	-0.152	-0.130
-362.669	-74.751	0.231	-0.082
-361.654	62.282	-0.041	0.041
-360.639	-200.000	0.032	-0.269
-359.625	235.609	-0.062	0.100
-358.610	-29.355	0.356	-0.201
-357.596	265.938	-0.034	0.059
-356.581	158.130	0.099	-0.135
-355.566	-200.000	-0.008	0.371
-354.552	-200.000	-0.022	-0.331
-353.537	-154.995	-0.192	-0.012
-352.523	-198.417	-0.387	-0.002
-351.508	131.514	0.174	-0.221
-350.493	-59.321	0.051	-0.021
-349.479	-67.349	0.252	0.098
-348.464	224.143	-0.082	-0.131
-347.450	15.887	-0.033	0.026
-346.435	124.853	-0.081	-0.100
-345.420	-136.210	0.205	0.024
-344.406	-200.000	-0.060	0.421
-343.391	-44.158	0.247	0.122
-342.377	169.876	0.128	-0.181
-341.362	-138.830	-0.419	0.045
-340.348	-4.296	-0.210	-0.143
-339.333	274.749	0.128	-0.224
-338.318	-51.045	-0.209	-0.097
-337.304	-65.237	0.085	0.034
-336.289	-86.173	0.199	0.061
-335.275	-152.822	-0.299	-0.021
-334.260	-80.682	0.238	0.078
-333.245	-78.949	0.228	0.076
-332.231	-200.000	0.001	-0.424
-331.216	800.000	-0.041	0.122
-330.202	55.690	0.339	0.323
-329.187	-7.693	-0.173	0.115
-328.172	-73.952	0.144	0.052
-327.158	510.958	-0.113	0.258
-326.143	-151.486	-0.052	-0.004
-325.129	-69.174	0.249	0.094
-324.114	-16.975	0.273	0.170
-323.099	-93.755	-0.269	-0.073
-322.085	-177.977	-0.153	0.004
-321.070	-200.000	0.030	-0.267
-320.056	411.362	-0.143	-0.299
-319.041	-109.124	-0.222	-0.047
-318.026	327.347	-0.014	-0.026
-317.012	290.962	-0.065	-0.116
-315.997	-31.677	0.140	0.077
-314.983	-19.626	0.044	0.027
-313.968	37.059	-0.114	-0.099
-312.953	-200.000	-0.014	-0.106
-311.939	52.822	-0.082	-0.077
-310.924	-200.000	0.005	-0.127
-309.910	800.000	0.056	-0.194
-308.895	-34.820	0.205	-0.110
-307.880	57.231	-0.139	0.134
-306.866	-33.670	-0.033	0.018
-305.851	-127.411	-0.282	0.040
-304.837	800.000	0.118	-0.326
-303.822	-101.860	-0.206	-0.049
-302.807	-180.874	-0.185	-0.004
-301.793	716.001	0.143	0.374
-300.778	171.603	-0.255	0.361
-299.764	-59.244	-0.154	0.065
-298.749	-194.568	0.262	-0.002
-297.735	-200.000	0.043	-0.310
-296.720	275.508	0.283	-0.494
-295.705	-43.932	-0.096	0.048
-294.691	298.764	0.232	0.421
-293.676	229.349	0.032	-0.051
-292.662	-37.019	-0.223	-0.118
-291.647	-174.439	0.127	0.004
-290.632	-96.542	-0.076	-0.020
-289.618	-84.763	-0.251	-0.078
-288.603	85.405	0.087	-0.094
-287.589	-200.000	-0.004	0.051
-286.574	34.913	0.133	-0.115
-285.559	5.580	-0.032	-0.023
-284.545	800.000	-0.074	-0.205
-283.530	631.582	0.076	0.190
-282.516	82.600	0.078	-0.084
-281.501	124.540	-0.061	0.075
-280.486	-59.884	0.409	0.172
-279.472	114.838	-0.114	-0.137
-278.457	-60.649	0.155	-0.065
-277.443	-89.570	-0.145	0.042
-276.428	370.043	0.086	-0.172
-275.413	-119.188	-0.046	-0.008
-274.399	-200.000	0.016	0.080
-273.384	212.893	0.099	-0.153
-272.370	-200.000	-0.106	0.000
-271.355	-47.927	0.211	-0.100
-270.340	480.631	-0.076	0.170
-269.326	-200.000	0.022	-0.115
-268.311	564.328	0.047	0.112
-267.297	-111.357	0.272	0.054
-266.282	-68.476	-0.248	-0.095
-265.267	119.916	0.142	0.173
-264.253	800.000	-0.045	-0.128
-263.238	-0.447	0.238	-0.166
-262.224	-200.000	-0.007	0.178
-261.209	181.324	-0.207	0.300
-260.195	-200.000	0.062	0.288
-259.180	103.892	0.100	-0.116
-258.165	745.036	-0.069	-0.182
-257.151	-200.000	0.011	0.634
-256.136	343.014	-0.082	0.157
-255.122	288.706	-0.154	-0.273
-254.107	-157.696	0.187	-0.011
-253.092	3.130	-0.067	0.048
-252.078	-97.545	-0.063	-0.016
-251.063	496.649	-0.190	0.430
-250.049	113.662	0.170	-0.202
-249.034	-200.000	-0.058	-0.334
-248.019	-90.153	-0.313	0.089
-247.005	571.710	0.060	-0.143
-245.990	800.000	-0.092	-0.322
-244.976	288.997	0.170	-0.303
-243.961	-28.217	-0.061	0.035
-242.946	54.948	-0.380	0.360
-241.932	66.383	-0.119	-0.119
-240.917	-200.000	-0.031	0.215
-239.903	107.870	0.261	0.306
-238.888	-200.000	-0.059	-0.270
-237.873	-200.000	-0.014	-0.304
-236.859	190.822	0.256	-0.378
-235.844	-77.740	0.167	0.057
-234.830	800.000	0.042	0.125
-233.815	108.479	0.096	-0.112
-232.800	507.111	0.129	0.294
-231.786	541.634	0.140	0.328
-230.771	231.880	0.235	0.378
-229.757	-200.000	-0.025	-0.164
-228.742	-161.244	0.117	0.006
-227.727	216.777	-0.213	-0.332
-226.713	800.000	0.053	-0.154
-225.698	54.607	0.178	0.169
-224.684	800.000	0.036	0.139
-223.669	-146.382	0.309	-0.027
-222.655	-37.806	-0.068	-0.036
-221.640	-129.925	0.352	0.047
-220.625	-200.000	-0.015	-0.118
-219.611	206.099	0.049	0.074
-218.596	28.984	0.106	0.088
-217.582	-200.000	0.000	-0.071
-216.567	800.000	0.117	-0.360
-215.552	24.593	-0.256	-0.208
-214.538	109.854	0.074	-0.088
-213.523	173.574	-0.050	-0.070
-212.509	120.427	0.182	-0.222
-211.494	-8.120	0.145	0.096
-210.479	112.373	0.359	0.426
-209.465	-200.000	-0.009	-0.249
-208.450	-59.732	-0.300	-0.126
-207.436	494.737	0.095	-0.214
-206.421	157.857	-0.255	0.347
-205.406	-77.405	-0.034	-0.012
-204.392	62.730	-0.227	-0.222
-203.377	-14.048	0.125	-0.079
-202.363	-111.066	0.269	-0.054
-201.348	-24.896	-0.177	-0.103
-200.333	-0.939	0.239	0.166
-199.319	701.893	0.059	-0.152
-198.304	261.416	-0.124	0.210
-197.290	33.591	-0.216	-0.184
-196.275	-200.000	0.004	0.048
-195.260	-95.857	0.030	0.008
-194.246	-57.987	0.152	0.065
-193.231	-200.000	-0.025	0.214
-192.217	-38.713	-0.152	0.079
-191.202	-30.211	0.280	0.156
-190.187	-88.363	-0.041	0.012
-189.173	800.000	0.009	0.025
-188.158	589.053	0.049	0.119
-187.144	800.000	-0.060	0.177
-186.129	-33.296	0.109	-0.059
-185.114	-10.363	0.225	0.146
-184.100	-200.000	0.044	0.280
-183.085	800.000	-0.034	0.114
-182.071	344.522	0.072	-0.137
-181.056	60.182	-0.184	-0.179
-180.042	-161.980	-0.190	0.009
-179.027	116.429	0.263	-0.316
-178.012	-115.838	-0.269	0.049
-176.998	-30.992	-0.243	0.134
-175.983	357.942	-0.158	-0.308
-174.969	312.012	0.154	-0.282
-173.954	-200.000	0.013	0.161
-172.939	-45.459	-0.256	0.124
-171.925	518.918	0.069	-0.157
-170.910	106.871	-0.176	0.204
-169.896	364.042	-0.087	0.172
-168.881	-17.928	-0.048	0.030
-167.866	142.245	-0.154	0.200
-166.852	-9.548	0.274	0.179
-165.837	425.599	-0.074	0.155
-164.823	-86.305	-0.093	-0.028
-163.808	-83.584	0.299	0.094
-162.793	7.652	-0.118	0.086
-161.779	-200.000	0.000	-0.044
-160.764	99.680	-0.150	0.170
-159.750	772.854	-0.036	-0.095
-158.735	-200.000	0.008	0.041
-157.720	-128.402	0.120	-0.017
-156.706	-147.659	-0.111	-0.009
-155.691	-38.565	-0.234	0.121
-154.677	-200.000	-0.001	-0.353
-153.662	-87.098	-0.152	-0.045
-152.647	800.000	0.064	-0.203
-151.633	-6.785	-0.189	-0.126
-150.618	-200.000	-0.015	-0.153
-149.604	-124.437	-0.218	0.033
-148.589	-54.656	-0.175	-0.078
-147.574	800.000	0.058	0.206
-146.560	758.425	-0.018	-0.047
-145.545	338.506	-0.196	0.374
-144.531	-200.000	-0.007	-0.193
-143.516	49.720	0.143	-0.132
-142.502	-200.000	-0.029	-0.154
-141.487	-112.863	-0.197	-0.038
-140.472	-149.402	-0.102	0.008
-139.458	268.191	-0.106	0.182
-138.443	-200.000	-0.005	-0.035
-137.429	184.911	-0.102	0.148
-136.414	-200.000	0.032	-0.170
-135.399	7.180	-0.192	-0.140
-134.385	800.000	-0.070	-0.230
-133.370	9.492	-0.450	0.333
-132.356	800.000	0.223	-0.688
-131.341	-7.361	0.248	0.164
-130.326	218.769	0.138	0.216
-129.312	-152.948	0.171	-0.012
-128.297	800.000	0.062	0.194
-127.283	-200.000	0.033	-0.250
-126.268	198.479	-0.086	-0.129
-125.253	638.560	0.065	0.162
-124.239	-69.035	0.357	-0.135
-123.224	-186.016	-0.219	0.003
-122.210	-64.790	0.172	0.068
-121.195	391.575	0.040	0.082
-120.180	-11.414	0.188	-0.121
-119.166	648.816	0.101	-0.253
-118.151	-200.000	-0.024	-0.316
-117.137	-70.179	0.185	0.069
-116.122	800.000	0.085	-0.334
-115.107	79.574	-0.080	0.084
-114.093	-58.936	-0.084	0.035
-113.078	-71.929	0.339	0.123
-112.064	-200.000	-0.033	0.189
-111.049	-160.870	0.130	0.007
-110.034	-200.000	0.005	0.094
-109.020	-122.269	-0.108	-0.017
-108.005	-89.902	-0.112	0.032
-106.991	-41.054	0.372	0.188
-105.976	-200.000	0.010	-0.175
-104.962	-200.000	-0.055	0.257
-103.947	285.724	-0.087	0.153
-102.932	261.404	-0.104	0.176
-101.918	715.983	-0.080	-0.207
-100.903	-57.674	-0.310	0.133
-99.889	-200.000	0.017	0.097
-98.874	-20.737	-0.142	-0.085
-97.859	800.000	-0.147	-0.428
-96.845	-14.062	0.218	0.138
-95.830	48.534	-0.082	0.075
-94.816	-161.632	0.183	-0.009
-93.801	607.896	0.102	0.249
-92.786	335.782	0.138	0.262
-91.772	-50.220	0.265	-0.123
-90.757	125.388	-0.102	-0.126
-89.743	-129.479	0.191	-0.026
-88.728	-68.291	-0.155	0.059
-87.713	-200.000	-0.009	-0.105
-86.699	-200.000	-0.176	-0.001
-85.684	-131.628	-0.272	0.035
-84.670	-124.313	0.163	-0.025
-83.655	271.808	-0.102	-0.175
-82.640	-200.000	0.015	-0.222
-81.626	190.431	0.014	-0.020
-80.611	-114.272	-0.244	0.046
-79.597	-37.856	-0.215	-0.112
-78.582	591.225	-0.109	-0.263
-77.567	-58.793	-0.118	-0.050
-76.553	800.000	-0.117	0.390
-75.538	-200.000	0.025	-0.126
-74.524	-112.534	0.270	0.053
-73.509	17.455	0.135	-0.104
-72.494	24.429	0.276	0.223
-71.480	97.387	0.091	0.102
-70.465	-22.087	0.302	-0.179
-69.451	800.000	-0.055	-0.178
-68.436	-183.308	0.350	0.006
-67.422	422.610	0.085	0.177
-66.407	109.206	0.213	0.249
-65.392	-200.000	0.070	0.354
-64.378	-62.279	0.314	-0.128
-63.363	-49.600	-0.079	-0.036
-62.349	111.363	-0.155	-0.182
-61.334	180.491	-0.893	-1.278
-60.319	61.524	0.794	0.770
-59.305	190.132	-0.826	-1.209
-58.290	221.293	0.869	1.361
-57.276	742.962	0.562	1.473
-56.261	-200.000	135.913	618.421
-55.246	335.126	1648.580	3115.268
-54.232	135.474	2788.471	3536.958
-53.217	82.301	2163.463	2288.245
-52.203	29.977	1595.231	1325.885
-51.188	22.266	1346.519	1072.309
-50.173	20.315	1311.971	1033.154
-49.159	46.927	1387.955	1257.922
-48.144	42.519	1396.416	1238.438
-47.130	22.253	1343.613	1069.744
-46.115	19.521	1324.705	1038.244
-45.100	19.177	1319.886	1032.364
-44.086	19.174	1317.431	1030.381
-43.071	19.121	1314.654	1027.855
-42.057	19.093	1313.112	1026.438
-41.042	19.155	1311.118	1025.210
-40.027	19.118	1310.018	1024.087
-39.013	19.167	1308.129	1022.863
-37.998	19.173	1306.449	1021.546
-36.984	19.318	1304.239	1020.632
-35.969	19.339	1302.488	1019.349
-34.954	19.256	1300.832	1017.519
-33.940	19.310	1299.818	1017.005
-32.925	19.302	1298.559	1015.932
-31.911	19.283	1297.176	1014.698
-30.896	19.377	1295.383	1013.808
-29.881	19.316	1294.130	1012.431
-28.867	19.374	1292.492	1011.450
-27.852	19.388	1291.302	1010.559
-26.838	19.408	1290.194	1009.772
-25.823	19.423	1288.486	1008.480
-24.809	19.342	1287.167	1006.937
-23.794	19.350	1286.051	1006.069
-22.779	19.346	1285.034	1005.212
-21.765	19.423	1283.132	1004.128
-20.750	19.271	1282.450	1002.673
-19.736	19.246	1281.305	1001.594
-18.721	19.137	1280.115	999.990
-17.706	19.163	1278.359	998.728
-16.692	19.135	1277.850	998.130
-15.677	19.161	1276.013	996.803
-14.663	19.131	1275.271	996.011
-13.648	19.201	1273.766	995.201
-12.633	19.155	1272.990	994.291
-11.619	19.105	1272.512	993.588
-10.604	19.192	1271.440	993.212
-9.590	19.178	1270.733	992.540
-8.575	19.203	1269.451	991.646
-7.560	19.162	1268.675	990.762
-6.546	19.223	1267.562	990.207
-5.531	19.157	1266.856	989.237
-4.517	19.094	1266.143	988.277
-3.502	19.208	1265.404	988.319
-2.487	19.163	1264.524	987.332
-1.473	19.031	1260.234	983.186
-0.458	17.656	1245.287	963.721
0.556	13.604	1230.162	929.310
1.571	10.309	1238.757	917.086
2.586	9.738	1254.406	925.313
3.600	10.005	1241.852	917.484
4.615	7.412	1170.840	851.049
5.629	2.719	1101.841	777.090
6.644	0.695	1086.389	756.005
7.659	0.536	1084.775	754.022
8.673	0.476	1084.121	753.203
9.688	0.473	1082.623	752.079
10.702	0.698	1079.483	750.949
11.717	3.496	1082.886	767.179
12.731	9.610	1091.001	803.426
13.746	14.956	1097.750	835.080
14.761	17.066	1100.341	847.523
15.775	16.393	1098.521	842.690
16.790	15.485	1096.820	836.787
17.804	14.744	1094.857	831.529
18.819	14.403	1093.946	829.068
19.834	14.363	1092.975	828.057
20.848	14.053	1092.091	825.777
21.863	13.774	1091.196	823.641
22.877	13.586	1090.869	822.386
23.892	13.667	1089.498	821.683
24.907	13.537	1089.288	820.810
25.921	13.675	1088.361	820.721
26.936	13.575	1087.940	819.836
27.950	13.649	1086.269	818.867
28.965	13.730	1085.377	818.524
29.980	13.704	1084.221	817.451
30.994	13.819	1082.898	816.947
32.009	13.849	1082.421	816.664
33.023	13.780	1080.941	815.134
34.038	13.828	1079.543	814.244
35.053	13.815	1078.906	813.627
36.067	13.801	1078.217	812.968
37.082	13.637	1077.692	811.699
38.096	13.637	1077.043	811.135
39.111	13.746	1075.840	810.690
40.126	13.631	1074.413	808.982
41.140	13.590	1073.431	807.975
42.155	13.637	1071.984	807.040
43.169	13.619	1070.830	806.015
44.184	13.546	1070.170	805.090
45.199	13.577	1068.963	804.262
46.213	13.538	1067.641	803.007
47.228	13.538	1067.009	802.462
48.242	13.691	1065.755	802.185
49.257	13.638	1064.416	800.850
50.271	13.740	1063.461	800.556
51.286	13.620	1063.448	799.897
52.301	13.739	1061.629	799.027
53.315	13.629	1060.790	797.797
54.330	13.550	1059.764	796.575
55.344	13.666	1058.715	796.273
56.359	13.692	1057.809	795.648
57.374	13.513	1057.187	794.251
58.388	13.646	1055.871	793.829
59.403	13.597	1055.455	793.211
60.417	13.425	1054.658	791.717
61.432	13.386	1053.954	790.932
62.447	13.283	1053.346	789.916
63.461	13.527	1052.067	790.049
64.476	13.433	1051.151	788.844
65.490	13.491	1050.656	788.678
66.505	13.490	1049.753	787.930
67.520	13.605	1048.788	787.680
68.534	13.536	1048.324	786.932
69.549	13.619	1047.326	786.511
70.563	13.426	1046.865	785.178
71.578	13.535	1045.640	784.706
72.593	13.462	1044.973	783.793
73.607	13.390	1045.005	783.405
74.622	13.512	1043.793	783.002
75.636	13.413	1043.245	782.053
76.651	13.485	1042.131	781.491
77.666	13.400	1041.978	780.904
78.680	13.497	1040.721	780.353
79.695	13.467	1040.395	779.899
80.709	13.466	1039.183	778.914
81.724	13.603	1038.718	779.141
82.739	13.609	1038.073	778.616
83.753	13.600	1037.999	778.450
84.768	13.610	1036.442	777.259
85.782	13.746	1035.259	776.943
86.797	13.817	1034.244	776.441
87.812	13.661	1034.153	775.579
88.826	13.589	1032.919	774.244
89.841	13.627	1032.060	773.712
90.855	13.639	1030.732	772.701
91.870	13.706	1030.086	772.464
92.884	13.741	1028.721	771.532
93.899	13.807	1027.935	771.184
94.914	13.801	1027.154	770.501
95.928	13.832	1026.844	770.344
96.943	13.743	1025.523	768.872
97.957	13.726	1024.660	768.080
98.972	13.799	1024.040	767.882
99.987	13.770	1023.427	767.221
101.001	13.750	1022.254	766.182
102.016	13.755	1021.782	765.785
103.030	13.741	1020.946	765.027
104.045	13.721	1019.983	764.144
105.060	13.695	1019.006	763.223
106.074	13.621	1018.209	762.219
107.089	13.689	1016.902	761.485
108.103	13.546	1016.624	760.551
109.118	13.723	1015.274	760.286
110.133	13.585	1014.605	759.089
111.147	13.641	1013.616	758.535
112.162	13.670	1012.799	757.990
113.176	13.629	1011.844	757.021
114.191	13.620	1011.478	756.639
115.206	13.871	1010.130	756.708
116.220	13.664	1009.563	755.273
117.235	13.641	1008.773	754.513
118.249	13.760	1007.508	754.038
119.264	13.616	1007.042	752.970
120.279	13.650	1006.008	752.285
121.293	13.614	1005.613	751.757
122.308	13.633	1004.217	750.737
123.322	13.704	1003.100	750.157
124.337	13.601	1002.374	749.081
125.352	13.663	1001.191	748.407
126.366	13.576	1000.414	747.372
127.381	13.766	998.898	747.027
128.395	13.663	998.483	746.187
129.410	13.499	997.674	744.778
130.424	13.686	996.300	744.529
131.439	13.716	995.823	744.241
132.454	13.648	994.809	743.112
133.468	13.673	994.286	742.769
134.483	13.665	993.231	741.877
135.497	13.724	992.267	741.354
136.512	13.748	991.046	740.486
137.527	13.670	990.212	739.450
138.541	13.643	990.001	739.105
139.556	13.798	989.082	739.045
140.570	13.714	988.365	738.067
141.585	13.759	987.799	737.780
142.600	13.836	986.655	737.203
143.614	13.942	985.923	737.060
144.629	13.892	985.190	736.227
145.643	13.917	984.298	735.605
146.658	13.980	983.164	734.972
147.673	13.785	982.158	733.292
148.687	13.936	981.688	733.542
149.702	13.830	980.615	732.207
150.716	13.740	979.672	731.046
151.731	13.943	978.804	731.225
152.746	13.875	978.264	730.459
153.760	13.819	977.826	729.822
154.775	13.916	977.250	729.751
155.789	14.115	975.663	729.376
156.804	13.984	975.733	728.788
157.819	13.949	975.075	728.080
158.833	14.044	974.147	727.739
159.848	14.137	972.673	726.979
160.862	13.993	972.256	725.975
161.877	13.940	971.562	725.160
162.892	13.977	970.642	724.572
163.906	13.878	969.650	723.335
164.921	13.990	968.641	723.005
165.935	14.051	967.819	722.594
166.950	13.991	967.066	721.706
167.964	14.082	965.775	721.074
168.979	14.118	964.765	720.413
169.994	14.123	964.339	720.049
171.008	14.107	963.805	719.518
172.023	14.146	963.131	719.123
173.037	14.205	961.968	718.445
174.052	14.188	961.314	717.820
175.067	13.965	961.082	716.620
176.081	14.145	960.199	716.672
177.096	14.146	959.332	715.970
178.110	14.085	959.255	715.583
179.125	14.080	958.651	715.050
180.140	14.098	958.219	714.740
181.154	14.362	957.605	715.355
182.169	14.261	956.929	714.351
183.183	14.295	956.142	713.848
184.198	14.412	955.005	713.435
185.213	14.374	954.604	712.911
186.227	14.411	953.859	712.449
187.242	14.405	953.231	711.890
188.256	14.426	952.718	711.537
189.271	14.304	952.035	710.442
190.286	14.227	951.468	709.626
191.300	14.192	950.352	708.582
192.315	14.245	949.593	708.182
193.329	14.170	949.588	707.793
194.344	14.268	948.753	707.528
195.359	14.290	948.057	707.038
196.373	14.490	946.854	706.928
197.388	14.426	946.976	706.684
198.402	14.453	946.375	706.288
199.417	14.630	945.145	706.057
200.432	14.571	944.953	705.601
201.446	14.633	944.615	705.546
202.461	14.544	943.961	704.619
203.475	14.578	943.453	704.322
204.490	14.568	942.629	703.604
205.504	14.667	941.987	703.477
206.519	14.463	941.167	701.943
207.534	14.612	940.243	701.820
208.548	14.528	939.827	701.092
209.563	14.532	939.038	700.459
210.577	14.494	938.423	699.781
211.592	14.631	937.937	699.930
212.607	14.763	936.658	699.468
213.621	14.793	935.948	699.001
214.636	14.697	935.589	698.270
215.650	14.789	934.358	697.672
216.665	14.677	933.960	696.847
217.680	14.729	933.332	696.535
218.694	14.687	932.565	695.724
219.709	14.669	932.268	695.366
220.723	14.814	931.119	695.051
221.738	14.780	930.422	694.326
222.753	14.840	929.891	694.120
223.767	15.021	928.914	694.081
224.782	14.865	929.208	693.588
225.796	14.850	928.034	692.592
226.811	14.870	927.605	692.291
227.826	14.979	926.456	691.825
228.840	14.908	925.880	691.041
229.855	14.921	924.882	690.288
230.869	14.997	924.400	690.179
231.884	14.897	923.642	689.139
232.899	14.927	923.498	689.094
233.913	14.955	922.253	688.222
234.928	14.900	921.642	687.476
235.942	14.828	921.484	687.004
236.957	14.886	920.346	686.333
237.972	15.011	920.105	686.604
238.986	14.903	919.286	685.490
240.001	14.938	918.324	684.856
241.015	14.976	918.064	684.756
242.030	15.041	917.487	684.531
243.045	15.214	916.663	684.562
244.059	15.061	916.252	683.569
245.074	15.137	914.991	682.878
246.088	15.266	914.009	682.609
247.103	15.119	913.972	681.923
248.117	15.234	913.528	681.999
249.132	15.239	912.607	681.273
250.147	15.272	912.251	681.080
251.161	15.352	911.359	680.679
252.176	15.354	911.227	680.528
253.190	15.250	909.717	678.918
254.205	15.345	909.888	679.370
255.220	15.506	908.847	679.185
256.234	15.400	908.444	678.395
257.249	15.462	907.638	677.986
258.263	15.365	906.982	677.042
259.278	15.403	906.193	676.547
260.293	15.504	905.566	676.425
261.307	15.466	905.102	675.867
262.322	15.548	904.402	675.614
263.336	15.612	903.534	675.162
264.351	15.649	902.828	674.723
265.366	15.692	902.020	674.234
266.380	15.676	902.033	674.118
267.395	15.642	900.733	672.954
268.409	15.636	900.286	672.535
269.424	15.684	899.458	672.048
270.439	15.695	898.962	671.660
271.453	15.592	897.933	670.425
272.468	15.579	897.713	670.145
273.482	15.769	896.856	670.206
274.497	15.649	896.149	669.138
275.512	15.723	895.505	668.893
276.526	15.844	895.253	669.127
277.541	15.696	895.103	668.370
278.555	15.886	893.900	668.165
279.570	15.836	893.402	667.534
280.585	15.874	892.349	666.842
281.599	15.763	891.876	665.988
282.614	15.733	890.999	665.155
283.628	15.883	890.482	665.304
284.643	15.748	889.912	664.286
285.657	15.861	889.307	664.223
286.672	15.968	888.582	664.043
287.687	15.956	888.014	663.513
288.701	15.793	887.578	662.487
289.716	15.812	886.972	662.049
290.730	15.860	886.598	661.902
291.745	15.885	885.793	661.339
292.760	15.872	885.026	660.658
293.774	16.079	884.371	660.923
294.789	16.021	883.696	660.134
295.803	16.123	882.834	659.827
296.818	16.089	882.028	659.034
297.833	16.041	881.591	658.461
298.847	16.031	881.074	657.978
299.862	16.156	880.006	657.612
300.876	16.215	879.676	657.536
301.891	16.189	879.132	656.970
302.906	16.108	878.958	656.467
303.920	16.130	878.495	656.147
304.935	16.259	877.872	656.126
305.949	16.323	876.755	655.480
306.964	16.211	876.406	654.730
307.979	16.248	875.772	654.338
308.993	16.424	874.961	654.359
310.008	16.405	874.393	653.802
311.022	16.169	874.116	652.622
312.037	16.302	873.308	652.477
313.052	16.298	872.997	652.172
314.066	16.352	872.363	651.847
315.081	16.255	871.969	651.123
316.095	16.328	870.919	650.562
317.110	16.332	870.653	650.320
318.125	16.458	870.085	650.323
319.139	16.271	869.863	649.380
320.154	16.349	869.242	649.160
321.168	16.433	868.725	649.037
322.183	16.419	867.816	648.249
323.197	16.419	867.533	647.980
324.212	16.356	866.890	647.199
325.227	16.530	865.855	647.037
326.241	16.564	865.525	646.861
327.256	16.381	865.157	645.830
328.270	16.432	864.351	645.366
329.285	16.425	864.494	645.389
330.300	16.367	863.655	644.483
331.314	16.582	862.650	644.496
332.329	16.515	862.506	644.076
333.343	16.641	861.947	644.083
334.358	16.505	861.742	643.354
335.373	16.477	861.395	642.933
336.387	16.411	861.195	642.474
337.402	16.597	860.662	642.729
338.416	16.709	859.925	642.547
339.431	16.651	859.346	641.835
340.446	16.737	859.376	642.126
341.460	16.654	859.171	641.605
342.475	16.738	858.415	641.300
343.489	16.745	857.936	640.913
344.504	16.722	857.595	640.512
345.519	16.839	857.032	640.480
346.533	16.871	855.940	639.727
347.548	16.883	855.775	639.593
348.562	16.758	855.217	638.647
349.577	16.809	854.826	638.491
350.592	16.764	854.094	637.719
351.606	16.797	853.125	637.060
352.621	16.753	852.423	636.317
353.635	16.867	851.761	636.193
354.650	16.901	851.290	635.911
355.665	16.774	850.863	635.062
356.679	16.922	850.165	635.039
357.694	16.925	849.373	634.403
358.708	16.958	848.826	634.063
359.723	17.011	848.148	633.695
360.738	16.905	847.664	632.884
361.752	16.999	847.027	632.700
362.767	17.163	846.466	632.839
363.781	17.099	845.675	631.953
364.796	17.046	845.309	631.426
365.810	17.110	845.169	631.502
366.825	17.221	844.448	631.322
367.840	17.271	844.043	631.149
368.854	17.077	843.559	630.010
369.869	17.257	842.708	629.987
370.883	17.232	842.519	629.698
371.898	17.242	842.744	629.846
372.913	17.337	841.438	629.166
373.927	17.244	841.367	628.711
374.942	17.262	841.138	628.552
375.956	17.331	840.930	628.598
376.971	17.274	840.034	627.662
377.986	17.308	839.728	627.503
379.000	17.296	839.320	627.097
380.015	17.547	838.767	627.553
381.029	17.482	837.854	626.577
382.044	17.485	837.231	626.067
383.059	17.521	836.622	625.686
384.073	17.430	836.143	624.939
385.088	17.580	835.119	624.668
386.102	17.466	835.024	624.125
387.117	17.589	834.357	624.022
388.132	17.522	834.225	623.624
389.146	17.487	833.218	622.688
390.161	17.492	833.002	622.488
391.175	17.634	832.295	622.423
392.190	17.650	831.772	622.035
393.205	17.473	831.880	621.414
394.219	17.608	831.194	621.340
395.234	17.556	830.925	620.893
396.248	17.390	830.342	619.801
397.263	17.483	829.935	619.778
398.278	17.627	829.767	620.124
399.292	17.585	829.356	619.608
400.307	17.659	828.378	619.091
401.321	17.583	828.084	618.542
402.336	17.526	827.675	617.973
403.350	17.554	827.388	617.806
404.365	17.819	826.343	617.931
405.380	17.839	825.854	617.582
406.394	17.910	825.356	617.414
407.409	17.957	824.952	617.228
408.423	17.845	824.992	616.798
409.438	17.784	824.672	616.283
410.453	17.969	823.673	616.148
411.467	17.876	823.807	615.861
412.482	18.030	823.339	616.011
413.496	17.877	823.098	615.224
414.511	17.992	822.407	615.066
415.526	17.981	822.047	614.703
416.540	17.912	821.697	614.141
417.555	17.983	820.729	613.618
418.569	18.074	820.396	613.640
419.584	18.134	819.755	613.321
420.599	18.072	819.542	612.884
421.613	115.903	1301.071	1493.315
422.628	100.563	1371.194	1493.391
