DTS Sentinel unit serial number:	SN413079Multiplexer serial number:	ORYXHardware model number:	OX4-SRSoftware version number:	ORYX F/W v4.00 Oryx Data Collector v3.7.2.0data status	okinstallation	princeton_trtdifferential loss correction	single-endedforward channel	channel 1reverse channel	N/Adate	2019/09/12time	18:42:34forward acquisition time	15.00reverse acquisition time	0.00gamma	496.2192k internal	0.2318k external	0.2318temperature offset calibration	1.0113default loss term (dB/km)	0.3790temperature slope calibration	1.0000multiplexer offset coefficient	1.0000multiplexer slope coefficient	1.0000fibre end	0.00T internal ref (°C)	33.06T ext. ref 1 (°C)	2.95T ext. ref 2 (°C)	27.65length (m)	temperature (°C)	Stokes	anti-Stokes-747.200	107.899	-0.060	-0.072
-746.185	-69.260	0.922	0.359
-745.171	118.322	-0.328	-0.409
-744.156	-52.456	0.280	0.131
-743.142	-200.000	0.103	-0.692
-742.127	-200.000	-0.206	1.032
-741.112	-54.214	-0.657	0.302
-740.098	-103.693	0.304	0.072
-739.083	238.525	0.520	-0.875
-738.069	-122.480	0.518	-0.085
-737.054	55.618	0.109	-0.107
-736.039	188.651	-0.277	-0.419
-735.025	209.051	0.217	-0.343
-734.010	32.838	-0.712	0.624
-732.996	-71.206	-0.116	-0.044
-731.981	-39.228	0.140	-0.074
-730.966	-180.963	0.189	0.004
-729.952	-200.000	-0.050	0.244
-728.937	-128.641	-0.347	0.050
-727.923	-68.557	-0.763	-0.299
-726.908	800.000	0.102	0.415
-725.894	324.014	0.023	-0.044
-724.879	4.733	-0.821	-0.610
-723.864	158.160	0.204	0.287
-722.850	32.261	-0.342	-0.298
-721.835	103.010	-0.166	-0.197
-720.821	281.042	0.119	-0.216
-719.806	616.962	0.258	0.656
-718.791	611.809	0.138	0.349
-717.777	-130.691	-0.659	-0.090
-716.762	104.576	-0.434	-0.516
-715.748	-65.556	-0.350	-0.142
-714.733	-170.806	0.195	0.007
-713.718	-108.060	-0.878	0.192
-712.704	-172.178	-0.543	0.018
-711.689	397.205	-0.327	-0.691
-710.675	60.484	0.428	-0.428
-709.660	-132.667	0.594	-0.077
-708.645	-200.000	-0.034	-0.418
-707.631	-0.045	0.560	0.403
-706.616	101.782	-0.458	-0.540
-705.602	-155.103	-0.560	0.037
-704.587	-125.329	0.143	0.022
-703.572	-121.376	-0.185	-0.031
-702.558	295.624	-0.343	-0.635
-701.543	60.666	-0.216	0.216
-700.529	-81.928	-0.202	-0.067
-699.514	-147.002	-0.387	0.034
-698.499	95.754	0.412	-0.475
-697.485	190.445	0.356	0.541
-696.470	-106.702	0.634	0.142
-695.456	-116.931	0.931	-0.172
-694.441	299.514	0.152	-0.282
-693.426	-97.360	-0.411	0.108
-692.412	12.187	0.231	-0.179
-691.397	221.368	-0.324	-0.526
-690.383	90.748	0.609	0.689
-689.368	-149.789	-0.675	-0.054
-688.354	-5.060	-0.399	-0.277
-687.339	179.688	-0.171	0.253
-686.324	-200.000	-0.027	0.660
-685.310	-136.626	-0.227	-0.026
-684.295	-124.647	-0.471	-0.074
-683.281	-27.809	-0.292	0.171
-682.266	-38.530	0.229	-0.122
-681.251	-131.822	-0.308	0.041
-680.237	152.140	-0.017	0.023
-679.222	-76.805	-0.332	0.117
-678.208	-62.289	-1.015	-0.427
-677.193	60.172	-0.486	0.485
-676.178	699.124	0.302	0.803
-675.164	-200.000	0.134	-1.087
-674.149	-135.267	-0.667	0.081
-673.135	800.000	0.158	-0.661
-672.120	-42.174	0.327	0.169
-671.105	52.308	0.111	0.107
-670.091	-17.713	0.644	0.408
-669.076	-31.810	0.387	0.219
-668.062	-1.342	-0.680	-0.485
-667.047	-107.961	-0.590	-0.129
-666.032	-200.000	-0.064	-0.751
-665.018	800.000	-0.130	0.411
-664.003	270.275	-0.247	-0.438
-662.989	798.159	0.066	-0.185
-661.974	77.515	-0.342	0.368
-660.959	-5.138	-0.337	-0.234
-659.945	-200.000	-0.028	-0.528
-658.930	-83.455	0.615	-0.199
-657.916	102.079	0.551	0.649
-656.901	476.921	0.256	-0.584
-655.886	-139.946	0.921	0.098
-654.872	359.973	-0.494	-0.996
-653.857	139.296	0.327	-0.434
-652.843	800.000	0.305	-1.048
-651.828	133.610	-0.363	-0.474
-650.814	800.000	-0.187	0.549
-649.799	-47.780	0.427	-0.209
-648.784	-200.000	-0.059	-0.263
-647.770	-200.000	0.004	-0.302
-646.755	-45.400	0.187	0.093
-645.741	-74.245	0.465	-0.169
-644.726	312.505	0.063	-0.120
-643.711	-200.000	0.111	0.982
-642.697	-18.567	0.151	0.095
-641.682	96.619	0.583	0.672
-640.668	-78.902	0.667	0.229
-639.653	-178.663	0.716	-0.017
-638.638	82.330	0.572	-0.625
-637.624	76.481	-0.651	-0.695
-636.609	172.742	-0.300	-0.435
-635.595	800.000	0.111	0.371
-634.580	92.646	0.257	0.292
-633.565	-72.374	0.525	-0.196
-632.551	-165.676	-0.455	-0.020
-631.536	-200.000	0.103	-0.559
-630.522	20.197	-0.668	-0.543
-629.507	-42.027	0.297	-0.153
-628.492	64.211	0.480	0.487
-627.478	-32.627	-0.213	0.119
-626.463	-104.602	-1.196	-0.278
-625.449	422.120	0.219	-0.473
-624.434	223.474	0.079	0.128
-623.419	418.668	0.131	0.282
-622.405	-66.377	-0.094	-0.038
-621.390	-200.000	0.083	-1.043
-620.376	800.000	0.091	-0.311
-619.361	551.477	-0.062	0.150
-618.346	-100.315	-0.163	-0.041
-617.332	35.776	-0.446	-0.394
-616.317	43.541	-0.707	-0.651
-615.303	-90.990	0.994	-0.288
-614.288	97.595	-0.180	0.209
-613.273	423.939	-0.428	-0.927
-612.259	67.834	0.593	0.610
-611.244	800.000	0.187	-0.779
-610.230	-172.658	-0.145	0.005
-609.215	240.831	-0.173	0.291
-608.201	-135.207	0.771	-0.093
-607.186	-51.991	0.609	-0.285
-606.171	126.572	-0.596	-0.759
-605.157	-167.576	-0.771	-0.031
-604.142	-146.500	-0.472	-0.041
-603.128	-181.364	-0.399	0.008
-602.113	-114.675	-0.530	-0.102
-601.098	681.041	-0.210	-0.551
-600.084	-200.000	-0.039	-0.260
-599.069	98.312	0.174	0.202
-598.055	-15.995	0.518	0.331
-597.040	-31.131	-0.301	0.171
-596.025	-200.000	-0.085	-0.456
-595.011	83.464	0.285	-0.312
-593.996	-111.135	0.817	-0.168
-592.982	800.000	-0.033	-0.125
-591.967	-13.546	0.471	-0.307
-590.952	-103.488	-0.636	0.151
-589.938	-7.020	0.162	0.110
-588.923	-200.000	0.060	0.781
-587.909	-47.910	-0.102	0.049
-586.894	42.717	-0.111	0.102
-585.879	-99.677	0.561	0.141
-584.865	135.600	-0.301	-0.394
-583.850	-20.612	0.565	0.349
-582.836	72.838	0.077	0.080
-581.821	139.046	0.510	-0.674
-580.806	-112.019	0.414	-0.084
-579.792	-106.109	-0.502	0.113
-578.777	290.582	-0.432	-0.789
-577.763	99.476	0.234	0.272
-576.748	-122.115	-0.604	-0.100
-575.733	-200.000	0.110	0.609
-574.719	-200.000	-0.031	0.703
-573.704	197.671	0.319	0.490
-572.690	20.418	0.581	-0.472
-571.675	-115.781	0.518	0.097
-570.661	383.420	0.149	0.309
-569.646	-200.000	0.086	1.105
-568.631	-57.853	0.302	0.133
-567.617	-128.007	-0.897	0.129
-566.602	-1.586	0.464	-0.328
-565.588	97.765	0.306	-0.353
-564.573	-200.000	-0.108	-0.602
-563.558	115.042	-0.402	-0.493
-562.544	-18.391	0.397	0.249
-561.529	213.168	-0.184	0.292
-560.515	-184.734	-0.305	-0.005
-559.500	-29.123	-0.290	-0.167
-558.485	-20.193	0.260	0.161
-557.471	93.684	-0.567	-0.645
-556.456	-168.035	-0.244	0.010
-555.442	-10.795	-0.358	0.238
-554.427	165.787	0.263	0.374
-553.412	-158.403	-0.620	-0.036
-552.398	114.068	0.204	-0.249
-551.383	-71.262	-1.104	0.416
-550.369	84.999	-0.468	0.516
-549.354	-1.858	-0.209	0.147
-548.339	-200.000	0.008	0.207
-547.325	-166.535	0.737	-0.031
-546.310	256.744	0.442	-0.762
-545.296	-59.103	0.378	0.164
-544.281	31.791	-0.477	-0.412
-543.266	19.567	0.553	0.446
-542.252	-200.000	-0.036	0.253
-541.237	-200.000	-0.003	-0.593
-540.223	-107.058	0.891	0.197
-539.208	189.167	-0.117	-0.175
-538.193	-200.000	-0.048	-0.237
-537.179	93.579	0.286	0.325
-536.164	800.000	-0.298	0.925
-535.150	289.932	-0.210	0.383
-534.135	-3.418	-0.649	0.454
-533.121	-134.660	-0.418	0.051
-532.106	-105.045	0.484	0.111
-531.091	151.762	-0.333	0.455
-530.077	-38.319	0.140	0.074
-529.062	-200.000	0.002	-0.263
-528.048	66.809	-0.696	-0.711
-527.033	-97.156	-0.042	-0.011
-526.018	800.000	0.156	0.524
-525.004	800.000	-0.151	-0.584
-523.989	-200.000	-0.011	0.903
-522.975	-200.000	-0.186	0.835
-521.960	-116.756	0.318	0.059
-520.945	65.764	-0.313	0.318
-519.931	209.314	0.305	0.480
-518.916	23.014	0.598	0.492
-517.902	800.000	0.132	-0.405
-516.887	72.898	0.274	-0.286
-515.872	433.882	-0.355	-0.773
-514.858	-57.220	-0.572	-0.253
-513.843	-200.000	-0.092	-0.499
-512.829	-200.000	-0.100	0.594
-511.814	-109.332	0.303	0.064
-510.799	-200.000	-0.105	-0.474
-509.785	-52.533	-0.298	-0.138
-508.770	-105.180	-0.053	0.012
-507.756	-24.547	0.297	0.177
-506.741	-111.599	0.381	-0.078
-505.726	800.000	-0.082	0.289
-504.712	111.092	-0.431	-0.520
-503.697	91.015	-0.113	-0.128
-502.683	-88.773	0.814	0.242
-501.668	-152.282	0.636	-0.046
-500.653	-200.000	-0.098	0.551
-499.639	-200.000	0.059	-0.415
-498.624	-200.000	0.118	0.758
-497.610	-116.347	-0.401	0.074
-496.595	517.659	0.196	-0.458
-495.581	-43.087	-0.639	0.325
-494.566	56.780	0.747	0.729
-493.551	22.838	0.588	0.483
-492.537	-200.000	-0.092	-1.244
-491.522	438.029	-0.369	-0.807
-490.508	379.339	0.068	0.140
-489.493	-140.635	0.496	0.052
-488.478	-173.474	0.371	-0.011
-487.464	62.185	-0.445	-0.445
-486.449	70.240	-0.395	-0.409
-485.435	-110.206	-0.557	-0.116
-484.420	-200.000	0.072	0.590
-483.405	71.704	-0.059	0.061
-482.391	800.000	0.073	0.297
-481.376	800.000	-0.066	-0.247
-480.362	563.473	0.236	0.573
-479.347	-56.881	0.781	0.345
-478.332	339.262	0.098	0.192
-477.318	128.568	-0.313	0.399
-476.303	-61.716	0.437	0.183
-475.289	-105.284	-0.461	0.105
-474.274	-200.000	-0.103	-0.620
-473.259	50.227	-0.174	-0.164
-472.245	800.000	-0.142	0.539
-471.230	-155.990	0.280	-0.018
-470.216	-200.000	0.014	0.947
-469.201	-146.826	0.380	0.033
-468.186	-11.965	-0.361	0.237
-467.172	-88.205	-0.702	0.211
-466.157	-200.000	0.188	-1.366
-465.143	459.102	0.141	0.315
-464.128	476.417	0.268	0.607
-463.113	800.000	0.196	-0.679
-462.099	-8.642	0.151	-0.101
-461.084	121.356	-0.112	0.140
-460.070	372.596	0.586	1.192
-459.055	21.625	0.136	-0.111
-458.040	113.160	-0.237	-0.288
-457.026	31.138	0.269	-0.231
-456.011	-200.000	0.002	-0.759
-454.997	-1.676	-0.107	0.076
-453.982	761.883	0.193	0.524
-452.968	-27.884	-0.412	0.239
-451.953	800.000	0.162	0.588
-450.938	-48.800	0.517	0.248
-449.924	-180.857	-0.232	0.005
-448.909	-200.000	0.159	0.898
-447.895	-51.456	-0.259	0.121
-446.880	132.884	-0.348	0.449
-445.865	-161.931	0.665	-0.034
-444.851	-200.000	-0.027	-0.297
-443.836	-143.821	-0.370	-0.035
-442.822	-7.525	-0.343	-0.232
-441.807	-16.094	-0.271	0.172
-440.792	-200.000	0.053	-0.329
-439.778	-94.554	-1.311	-0.357
-438.763	-60.887	-0.388	0.164
-437.749	175.204	0.283	-0.409
-436.734	-89.985	-0.559	-0.163
-435.719	-200.000	-0.086	-0.899
-434.705	-124.819	-0.625	0.097
-433.690	-12.429	-0.832	-0.543
-432.676	158.583	0.148	0.206
-431.661	-47.449	0.266	0.129
-430.646	-200.000	0.003	0.394
-429.632	-115.396	0.355	0.067
-428.617	-183.617	0.815	-0.014
-427.603	29.598	-0.866	-0.736
-426.588	-200.000	-0.026	-0.590
-425.573	800.000	0.214	-0.803
-424.559	41.312	-0.315	0.285
-423.544	120.595	0.379	0.470
-422.530	73.095	-0.854	-0.892
-421.515	-135.642	0.516	-0.061
-420.500	48.082	-0.132	0.123
-419.486	136.222	-0.176	-0.229
-418.471	470.794	-0.151	0.340
-417.457	-62.374	-0.291	0.121
-416.442	-90.471	-0.468	-0.135
-415.428	-70.302	-0.309	0.117
-414.413	-44.417	0.553	0.277
-413.398	-200.000	-0.009	0.240
-412.384	-200.000	0.002	0.209
-411.369	330.783	0.155	0.298
-410.355	-37.948	-0.690	-0.366
-409.340	-18.173	0.301	0.188
-408.325	-156.353	0.568	0.035
-407.311	19.579	-0.434	0.349
-406.296	-48.378	-1.012	-0.487
-405.282	-200.000	-0.007	-0.098
-404.267	154.208	-0.061	-0.083
-403.252	-16.780	-0.291	0.184
-402.238	352.254	-0.165	0.327
-401.223	52.401	0.380	-0.362
-400.209	-149.306	-0.530	0.042
-399.194	471.910	0.320	0.720
-398.179	145.543	0.468	-0.626
-397.165	800.000	-0.123	-0.426
-396.150	-154.812	-1.014	-0.067
-395.136	216.848	0.275	-0.436
-394.121	-133.999	0.242	0.030
-393.106	-200.000	0.048	0.274
-392.092	-200.000	-0.103	0.675
-391.077	-200.000	-0.061	0.654
-390.063	57.820	-0.348	-0.340
-389.048	-61.370	-0.174	0.073
-388.033	410.048	0.341	0.720
-387.019	-4.368	0.616	0.425
-386.004	-78.240	0.505	0.173
-384.990	800.000	0.277	-0.781
-383.975	587.124	-0.073	-0.179
-382.960	800.000	0.045	-0.158
-381.946	627.956	0.123	0.310
-380.931	-83.338	0.365	0.117
-379.917	9.121	0.213	-0.161
-378.902	93.931	0.409	-0.462
-377.888	54.688	-0.031	0.030
-376.873	-41.654	0.482	0.247
-375.858	-92.154	-1.242	0.350
-374.844	-200.000	0.051	0.545
-373.829	-55.406	0.268	0.120
-372.815	526.195	-0.147	-0.346
-371.800	67.066	0.751	0.764
-370.785	800.000	-0.074	-0.280
-369.771	-200.000	-0.021	0.436
-368.756	-45.985	-0.434	0.213
-367.742	114.239	-0.101	-0.123
-366.727	-35.534	-0.318	-0.172
-365.712	153.081	-0.294	-0.402
-364.698	800.000	0.168	0.637
-363.683	98.286	0.464	0.533
-362.669	-72.420	-0.886	0.327
-361.654	800.000	0.127	0.449
-360.639	33.629	0.103	-0.089
-359.625	2.724	-0.564	0.408
-358.610	-200.000	-0.017	-1.082
-357.596	225.220	-0.122	-0.197
-356.581	51.765	0.582	0.552
-355.566	-200.000	-0.040	0.258
-354.552	151.516	-0.417	0.565
-353.537	-130.085	-0.899	-0.122
-352.523	-62.940	0.429	0.177
-351.508	-34.014	-0.645	0.353
-350.493	-102.482	0.358	0.085
-349.479	120.279	0.595	-0.736
-348.464	-67.974	-0.600	0.233
-347.450	-67.353	-0.649	-0.254
-346.435	-200.000	-0.012	1.038
-345.420	96.616	-0.536	0.611
-344.406	800.000	0.049	0.158
-343.391	-12.415	0.597	-0.388
-342.377	364.996	-0.327	-0.657
-341.362	800.000	-0.057	0.240
-340.348	173.798	-0.181	-0.260
-339.333	-136.078	0.787	0.092
-338.318	-200.000	-0.690	0.003
-337.304	99.387	0.479	-0.552
-336.289	-200.000	0.087	-0.418
-335.275	181.014	0.172	0.252
-334.260	160.039	-0.340	-0.471
-333.245	27.892	-0.642	-0.539
-332.231	-200.000	-0.088	-0.787
-331.216	-12.517	0.225	0.146
-330.202	52.332	0.137	-0.130
-329.187	133.247	-0.353	0.454
-328.172	46.654	-0.485	-0.448
-327.158	-88.740	0.461	0.136
-326.143	-200.000	0.030	0.298
-325.129	-14.389	-0.493	0.316
-324.114	22.980	-0.406	-0.332
-323.099	800.000	0.188	-0.753
-322.085	111.671	-0.389	0.467
-321.070	-169.279	-0.649	0.024
-320.056	-4.885	0.507	-0.348
-319.041	-200.000	0.006	0.482
-318.026	-98.669	0.624	0.158
-317.012	-58.591	0.535	-0.231
-315.997	39.532	-0.118	0.105
-314.983	-110.732	0.788	-0.162
-313.968	-140.840	0.839	0.086
-312.953	800.000	-0.115	-0.411
-311.939	270.687	-0.449	-0.786
-310.924	-200.000	-0.023	0.161
-309.910	-200.000	-0.110	0.510
-308.895	268.033	-0.359	-0.626
-307.880	34.164	0.167	0.144
-306.866	50.651	-0.352	0.331
-305.851	-141.092	-0.744	0.076
-304.837	-200.000	0.062	-1.061
-303.822	50.389	0.212	0.200
-302.807	-156.551	-0.261	-0.016
-301.793	800.000	-0.105	-0.367
-300.778	320.358	0.415	-0.783
-299.764	173.638	-0.429	-0.616
-298.749	-107.365	-0.675	-0.147
-297.735	-200.000	0.051	-0.492
-296.720	328.529	0.021	0.041
-295.705	-114.676	-0.184	0.035
-294.691	28.518	-0.051	0.043
-293.676	-116.487	-0.268	-0.049
-292.662	800.000	-0.063	0.218
-291.647	-1.625	0.697	0.488
-290.632	-200.000	0.140	-0.681
-289.618	246.431	-0.441	0.739
-288.603	215.531	0.272	-0.429
-287.589	131.673	0.137	-0.176
-286.574	-48.206	-0.380	-0.182
-285.559	-92.863	0.537	-0.149
-284.545	800.000	0.110	-0.315
-283.530	-97.344	0.408	0.106
-282.516	-33.348	-0.500	0.275
-281.501	-142.481	0.964	0.094
-280.486	33.960	0.344	-0.297
-279.472	-37.110	0.617	-0.328
-278.457	-129.019	0.832	-0.116
-277.443	-32.585	0.300	-0.166
-276.428	800.000	0.088	-0.382
-275.413	-145.113	-0.289	0.026
-274.399	-200.000	0.050	0.310
-273.384	43.601	0.611	-0.555
-272.370	141.497	-0.827	-1.088
-271.355	81.295	-0.253	-0.271
-270.340	-129.058	0.995	-0.138
-269.326	800.000	-0.208	0.575
-268.311	-151.009	-0.617	-0.046
-267.297	-200.000	-0.082	0.633
-266.282	362.855	-0.309	0.616
-265.267	216.456	0.392	-0.619
-264.253	-78.489	0.366	-0.125
-263.238	-128.543	-0.315	0.044
-262.224	800.000	-0.123	0.371
-261.209	800.000	-0.226	0.785
-260.195	-200.000	0.018	0.355
-259.180	-200.000	-0.236	-1.105
-258.165	-26.248	-0.452	0.263
-257.151	800.000	0.193	-0.717
-256.136	-153.866	0.457	-0.031
-255.122	24.459	0.687	-0.564
-254.107	20.939	-0.506	0.407
-253.092	800.000	-0.197	-0.676
-252.078	110.550	0.471	0.562
-251.063	-16.744	-0.279	0.175
-250.049	43.601	-0.866	-0.786
-249.034	-34.352	0.226	-0.123
-248.019	-200.000	0.061	0.942
-247.005	112.947	0.545	0.656
-245.990	-200.000	-0.193	-0.912
-244.976	90.675	0.314	-0.349
-243.961	-149.310	0.442	-0.035
-242.946	-200.000	0.003	0.058
-241.932	-183.167	-0.459	-0.008
-240.917	413.968	0.302	0.638
-239.903	558.399	0.378	0.904
-238.888	800.000	0.091	0.308
-237.873	750.452	0.180	0.481
-236.859	127.510	0.376	0.474
-235.844	86.749	0.561	0.614
-234.830	749.311	0.242	0.648
-233.815	-171.846	0.632	-0.020
-232.800	-200.000	0.152	-0.949
-231.786	91.558	-0.112	0.125
-230.771	800.000	-0.081	-0.256
-229.757	-200.000	0.110	0.505
-228.742	-120.522	-0.375	-0.063
-227.727	-134.647	-0.761	-0.092
-226.713	-200.000	0.111	0.692
-225.698	-121.224	0.517	-0.086
-224.684	-52.157	-0.070	-0.032
-223.669	-121.786	0.963	0.158
-222.655	-23.151	-0.835	0.498
-221.640	482.947	0.152	0.343
-220.625	3.342	-0.542	0.391
-219.611	-50.702	0.428	0.200
-218.596	-14.168	-0.449	-0.287
-217.582	180.673	-0.384	0.559
-216.567	-200.000	-0.046	-0.566
-215.552	371.270	-0.245	0.492
-214.538	39.527	-0.208	0.185
-213.523	24.611	-0.228	0.187
-212.509	556.079	-0.268	-0.639
-211.494	-61.820	-0.215	-0.089
-210.479	-58.104	0.856	0.370
-209.465	-200.000	-0.073	0.760
-208.450	77.778	0.168	0.178
-207.436	-47.286	-0.448	-0.216
-206.421	190.894	0.352	0.525
-205.406	236.267	0.580	-0.951
-204.392	800.000	0.129	-0.364
-203.377	-200.000	0.137	-0.755
-202.363	-123.581	-0.214	0.034
-201.348	-136.176	-0.182	-0.021
-200.333	45.139	0.365	-0.333
-199.319	-107.000	-0.814	-0.178
-198.304	389.513	0.121	0.248
-197.290	127.907	-0.361	0.454
-196.275	19.855	-0.605	0.483
-195.260	91.298	0.644	0.716
-194.246	52.463	-0.291	0.275
-193.231	-27.266	0.361	0.208
-192.217	88.324	-0.212	-0.233
-191.202	800.000	-0.034	-0.113
-190.187	-73.164	-0.375	-0.136
-189.173	230.907	-0.378	-0.613
-188.158	-200.000	-0.131	-0.796
-187.144	443.256	0.573	-1.243
-186.129	238.863	0.093	-0.153
-185.114	-118.010	0.310	0.055
-184.100	-200.000	0.109	-0.562
-183.085	-73.228	0.306	0.111
-182.071	86.405	-0.101	-0.110
-181.056	-121.562	-1.007	0.165
-180.042	-66.890	-0.306	-0.120
-179.027	800.000	-0.118	-0.336
-178.012	-200.000	-0.023	0.287
-176.998	800.000	-0.257	-0.786
-175.983	-200.000	0.000	-0.017
-174.969	800.000	0.285	1.161
-173.954	-76.740	-0.639	-0.222
-172.939	-32.080	0.540	-0.299
-171.925	-161.127	0.775	-0.040
-170.910	-63.120	0.725	-0.296
-169.896	800.000	-0.143	0.422
-168.881	446.129	0.207	0.450
-167.866	-19.364	0.362	0.222
-166.852	198.377	0.366	0.554
-165.837	37.183	0.098	0.086
-164.823	-44.114	0.576	-0.286
-163.808	-200.000	-0.201	1.027
-162.793	-16.544	0.803	-0.503
-161.779	48.775	0.145	-0.134
-160.764	-120.598	0.366	0.061
-159.750	-134.063	-0.999	-0.122
-158.735	291.374	-0.110	0.198
-157.720	800.000	-0.134	-0.393
-156.706	-79.605	0.082	0.027
-155.691	113.852	0.274	-0.330
-154.677	-200.000	-0.169	1.085
-153.662	-72.431	0.266	-0.097
-152.647	484.204	-0.212	0.477
-151.633	-53.762	-0.373	0.168
-150.618	-128.717	0.565	0.079
-149.604	259.282	-0.337	0.575
-148.589	-200.000	-0.154	0.995
-147.574	-15.017	0.747	-0.473
-146.560	-17.792	-0.284	-0.176
-145.545	757.010	-0.255	-0.683
-144.531	-88.830	0.342	-0.100
-143.516	-200.000	-0.051	-0.440
-142.502	155.537	-0.251	-0.342
-141.487	221.185	0.420	-0.666
-140.472	412.983	-0.124	-0.261
-139.458	14.917	-0.486	0.376
-138.443	-156.062	-0.073	-0.005
-137.429	800.000	-0.247	0.695
-136.414	-54.528	-0.816	0.365
-135.399	800.000	0.066	-0.192
-134.385	800.000	-0.255	-1.014
-133.370	-108.966	0.574	0.121
-132.356	-200.000	0.031	-0.372
-131.341	9.708	0.359	0.269
-130.326	-1.590	-0.107	0.074
-129.312	-200.000	-0.097	0.446
-128.297	5.075	0.132	0.096
-127.283	260.151	-0.335	0.573
-126.268	800.000	-0.072	0.203
-125.253	216.190	0.069	-0.109
-124.239	283.450	0.409	-0.725
-123.224	-200.000	-0.122	-0.645
-122.210	159.032	0.444	-0.610
-121.195	413.570	0.139	0.291
-120.180	716.147	0.166	-0.436
-119.166	800.000	0.122	0.338
-118.151	-200.000	0.068	0.928
-117.137	-20.779	0.290	-0.176
-116.122	-24.682	0.669	0.393
-115.107	-75.736	0.357	-0.125
-114.093	80.077	0.658	-0.699
-113.078	247.718	0.401	-0.669
-112.064	800.000	0.427	1.328
-111.049	233.840	-0.622	-1.011
-110.034	-114.982	-0.605	-0.114
-109.020	138.719	-0.274	0.355
-108.005	800.000	0.126	-0.512
-106.991	-94.197	-0.194	0.052
-105.976	-12.186	-0.209	-0.135
-104.962	-139.301	0.560	0.059
-103.947	-200.000	0.007	-0.402
-102.932	38.830	-0.300	-0.265
-101.918	-34.476	0.217	0.117
-100.903	-116.485	-0.115	-0.021
-99.889	800.000	-0.224	0.722
-98.874	-200.000	-0.089	0.627
-97.859	800.000	-0.097	0.322
-96.845	800.000	0.026	-0.103
-95.830	320.610	0.214	-0.401
-94.816	-47.033	-0.697	-0.336
-93.801	-200.000	-0.044	0.295
-92.786	800.000	0.270	-0.800
-91.772	231.380	-0.487	-0.788
-90.757	33.154	-0.408	0.349
-89.743	397.901	-0.147	0.303
-88.728	134.386	-0.237	0.304
-87.713	-37.289	-0.113	-0.059
-86.699	9.460	0.380	0.284
-85.684	54.947	-0.047	-0.045
-84.670	-52.038	-0.242	-0.111
-83.655	-200.000	0.046	0.370
-82.640	-94.877	-0.228	-0.061
-81.626	343.248	0.429	-0.828
-80.611	800.000	0.053	0.199
-79.597	72.990	0.154	-0.159
-78.582	-119.724	1.071	-0.182
-77.567	187.184	0.041	-0.061
-76.553	-121.663	0.933	-0.152
-75.538	-16.211	-1.259	-0.789
-74.524	-19.602	-0.530	-0.323
-73.509	-30.887	0.600	-0.334
-72.494	-86.616	0.171	-0.052
-71.480	52.951	0.872	-0.823
-70.465	-118.206	-0.514	0.090
-69.451	177.002	-0.115	-0.165
-68.436	-200.000	0.072	0.996
-67.422	171.786	0.203	-0.288
-66.407	191.746	0.460	-0.683
-65.392	372.275	-0.128	0.256
-64.378	800.000	0.081	0.246
-63.363	-117.139	-0.260	-0.047
-62.349	-200.000	0.034	0.677
-61.334	304.465	-0.490	-0.895
-60.319	-200.000	-0.057	0.250
-59.305	197.636	0.623	-0.938
-58.290	282.956	0.821	1.453
-57.276	800.000	0.482	1.870
-56.261	-200.000	95.558	572.068
-55.246	644.972	1365.436	3432.592
-54.232	201.955	2528.204	3839.502
-53.217	118.114	2125.416	2580.432
-52.203	44.485	1596.378	1444.411
-51.188	36.330	1335.260	1159.377
-50.173	33.330	1295.103	1106.955
-49.159	56.739	1344.426	1288.969
-48.144	57.786	1360.745	1310.788
-47.130	36.804	1318.194	1147.187
-46.115	33.257	1300.652	1111.091
-45.100	33.201	1294.717	1105.651
-44.086	32.745	1294.523	1102.779
-43.071	32.706	1292.343	1100.648
-42.057	32.643	1289.212	1097.574
-41.042	32.982	1286.971	1097.593
-40.027	32.873	1286.127	1096.194
-39.013	32.974	1284.803	1095.608
-37.998	33.008	1283.182	1094.381
-36.984	32.967	1281.011	1092.248
-35.969	33.076	1279.057	1091.165
-34.954	33.438	1276.524	1091.046
-33.940	33.315	1274.744	1088.776
-32.925	33.257	1273.754	1087.552
-31.911	33.149	1272.899	1086.163
-30.896	32.973	1272.012	1084.350
-29.881	33.203	1269.858	1083.789
-28.867	33.480	1268.514	1084.183
-27.852	33.515	1266.435	1082.565
-26.838	33.186	1266.236	1080.473
-25.823	33.402	1265.132	1080.719
-24.809	32.987	1263.669	1077.063
-23.794	33.408	1262.237	1078.193
-22.779	33.032	1261.322	1075.231
-21.765	33.137	1259.427	1074.167
-20.750	33.070	1258.804	1073.214
-19.736	32.913	1256.952	1070.703
-18.721	32.974	1255.437	1069.717
-17.706	33.042	1255.429	1070.051
-16.692	33.145	1254.267	1069.601
-15.677	32.879	1253.770	1067.628
-14.663	32.997	1251.296	1066.145
-13.648	32.719	1251.114	1064.379
-12.633	32.868	1249.129	1063.489
-11.619	33.046	1249.068	1064.399
-10.604	33.051	1247.238	1062.825
-9.590	33.178	1246.602	1062.953
-8.575	32.900	1246.860	1061.569
-7.560	32.587	1246.425	1059.398
-6.546	32.828	1245.986	1060.335
-5.531	32.634	1244.681	1058.093
-4.517	33.123	1242.398	1058.854
-3.502	32.919	1241.683	1057.059
-2.487	32.833	1240.816	1055.797
-1.473	33.174	1236.721	1054.171
-0.458	31.262	1222.646	1031.585
0.556	28.670	1204.577	992.491
1.571	24.943	1208.974	975.759
2.586	23.787	1222.905	980.540
3.600	23.328	1212.588	969.670
4.615	17.405	1140.944	881.700
5.629	7.601	1066.856	776.646
6.644	3.292	1046.163	740.818
7.659	3.035	1043.192	737.419
8.673	2.765	1042.161	735.330
9.688	2.710	1040.927	734.128
10.702	3.280	1038.976	735.413
11.717	9.488	1046.944	770.786
12.731	19.252	1060.980	828.210
13.746	23.979	1068.332	856.697
14.761	24.762	1068.011	860.127
15.775	24.999	1066.928	860.321
16.790	24.473	1067.377	858.075
17.804	24.630	1065.757	857.454
18.819	24.778	1066.361	858.574
19.834	24.611	1065.231	856.788
20.848	24.854	1065.522	858.110
21.863	25.228	1062.837	857.661
22.877	24.679	1063.246	855.287
23.892	24.713	1063.155	855.302
24.907	24.568	1062.335	853.875
25.921	24.799	1060.994	853.821
26.936	24.568	1059.979	851.827
27.950	24.807	1057.394	850.814
28.965	24.970	1056.304	850.636
29.980	24.804	1054.456	848.283
30.994	24.998	1053.641	848.474
32.009	24.831	1052.959	847.056
33.023	24.828	1052.305	846.443
34.038	24.624	1051.858	845.043
35.053	24.654	1051.199	844.580
36.067	24.775	1049.325	843.573
37.082	24.720	1050.463	844.150
38.096	25.033	1049.010	844.383
39.111	25.003	1048.798	843.997
40.126	24.845	1046.578	841.393
41.140	24.576	1044.953	838.752
42.155	24.031	1044.915	836.086
43.169	24.924	1042.789	838.495
44.184	24.353	1043.047	835.953
45.199	24.372	1042.161	835.259
46.213	24.439	1041.087	834.637
47.228	24.940	1039.655	835.754
48.242	25.082	1038.932	835.759
49.257	24.714	1038.772	833.840
50.271	24.782	1037.440	833.018
51.286	24.811	1037.062	832.772
52.301	24.892	1035.942	832.178
53.315	24.965	1034.909	831.610
54.330	24.792	1034.310	830.255
55.344	24.804	1033.569	829.641
56.359	24.764	1033.184	829.074
57.374	24.578	1032.270	827.404
58.388	24.590	1030.631	826.073
59.403	24.527	1029.924	825.146
60.417	24.339	1029.099	823.542
61.432	24.561	1028.832	824.278
62.447	24.396	1029.162	823.711
63.461	24.656	1027.571	823.562
64.476	24.335	1027.476	821.936
65.490	24.577	1024.754	820.794
66.505	24.538	1025.340	821.012
67.520	24.599	1024.254	820.349
68.534	24.433	1023.414	818.845
69.549	24.443	1021.604	817.368
70.563	24.358	1020.959	816.392
71.578	23.668	1021.425	813.533
72.593	23.786	1019.757	812.673
73.607	24.077	1019.236	813.511
74.622	24.057	1020.009	813.966
75.636	24.213	1018.692	813.557
76.651	24.561	1017.308	813.966
77.666	24.436	1017.232	813.261
78.680	24.205	1016.715	811.727
79.695	24.314	1015.829	811.444
80.709	24.288	1015.884	811.297
81.724	24.473	1013.337	810.032
82.739	24.311	1013.099	809.035
83.753	24.942	1012.087	811.014
84.768	25.185	1012.352	812.254
85.782	25.511	1010.815	812.424
86.797	24.970	1011.507	810.461
87.812	24.917	1010.024	808.962
88.826	25.250	1008.850	809.450
89.841	24.884	1007.999	807.044
90.855	25.044	1006.678	806.639
91.870	25.059	1006.518	806.504
92.884	25.054	1005.339	805.468
93.899	25.016	1004.283	804.379
94.914	25.013	1003.992	804.062
95.928	24.732	1003.355	802.220
96.943	25.006	1001.190	801.643
97.957	24.532	1000.712	799.070
98.972	24.674	999.833	798.931
99.987	24.737	999.428	798.820
101.001	24.874	998.766	798.832
102.016	24.946	996.864	797.560
103.030	25.048	996.503	797.654
104.045	25.003	996.144	797.097
105.060	24.816	994.762	795.091
106.074	24.963	994.127	795.163
107.089	25.078	993.183	794.846
108.103	24.917	991.803	792.959
109.118	24.643	991.702	791.595
110.133	24.489	989.876	789.389
111.147	24.558	989.161	789.053
112.162	24.179	988.253	786.584
113.176	24.673	987.358	787.981
114.191	24.554	987.199	787.262
115.206	24.269	986.013	784.989
116.220	24.451	985.148	785.033
117.235	24.614	984.694	785.318
118.249	24.261	983.146	782.463
119.264	24.137	983.403	782.057
120.279	24.050	982.402	780.810
121.293	24.348	980.712	780.703
122.308	24.319	980.109	780.026
123.322	24.334	979.712	779.706
124.337	23.997	979.153	777.719
125.352	23.935	977.282	775.895
126.366	23.910	976.156	774.823
127.381	24.703	974.855	777.171
128.395	24.791	975.137	777.709
129.410	24.575	975.090	776.663
130.424	24.762	973.244	775.935
131.439	24.926	972.534	776.013
132.454	24.902	971.272	774.830
133.468	24.949	971.812	775.399
134.483	25.099	970.109	774.620
135.497	25.014	969.287	773.526
136.512	25.051	969.277	773.612
137.527	25.230	967.855	773.179
138.541	25.069	967.026	771.755
139.556	24.983	966.538	770.925
140.570	25.142	965.614	770.804
141.585	25.157	965.323	770.569
142.600	25.059	964.401	769.345
143.614	25.176	963.461	769.028
144.629	25.379	962.375	768.963
145.643	25.214	961.594	767.566
146.658	24.829	960.872	765.274
147.673	25.039	958.780	764.437
148.687	24.817	957.951	762.761
149.702	24.737	957.238	761.786
150.716	24.731	956.599	761.182
151.731	25.196	955.294	762.053
152.746	25.125	955.226	761.630
153.760	25.111	954.723	761.102
154.775	24.954	954.981	760.575
155.789	25.287	952.773	760.158
156.804	25.314	952.173	759.726
157.819	25.526	950.953	759.581
158.833	25.624	950.649	759.686
159.848	25.440	950.314	758.574
160.862	25.126	949.395	756.448
161.877	25.312	947.875	755.956
162.892	25.320	947.416	755.555
163.906	25.122	946.008	753.536
164.921	25.169	944.743	752.657
165.935	25.050	944.508	751.905
166.950	25.009	945.020	752.075
167.964	25.243	942.399	750.899
168.979	24.940	941.308	748.697
169.994	25.279	940.957	749.767
171.008	25.103	940.792	748.837
172.023	25.386	939.674	749.060
173.037	25.271	938.794	747.811
174.052	25.217	938.046	746.926
175.067	25.220	937.061	746.087
176.081	25.091	936.339	744.911
177.096	25.016	935.958	744.229
178.110	24.743	934.841	742.144
179.125	24.732	934.196	741.522
180.140	24.714	933.876	741.126
181.154	25.167	933.564	742.690
182.169	25.327	932.285	742.269
183.183	25.719	931.709	743.363
184.198	25.334	931.673	741.678
185.213	25.311	931.906	741.705
186.227	24.895	931.416	739.528
187.242	25.210	930.335	739.907
188.256	25.481	930.027	740.713
189.271	25.362	928.744	739.136
190.286	25.355	927.459	738.019
191.300	24.687	926.667	734.578
192.315	24.123	925.788	731.499
193.329	24.436	924.589	731.771
194.344	25.143	925.000	734.934
195.359	25.343	924.891	735.598
196.373	24.919	925.568	734.334
197.388	25.191	924.235	734.324
198.402	25.027	924.114	733.492
199.417	25.681	921.995	734.416
200.432	25.499	922.432	733.958
201.446	25.314	922.839	733.459
202.461	25.281	921.662	732.326
203.475	24.696	919.841	728.432
204.490	24.379	918.460	725.981
205.504	24.968	917.928	727.893
206.519	25.674	917.061	730.007
207.534	25.126	918.085	728.530
208.548	25.548	917.313	729.567
209.563	25.367	915.886	727.634
210.577	25.389	916.275	727.966
211.592	25.763	915.339	728.673
212.607	25.461	914.727	726.900
213.621	25.351	914.630	726.313
214.636	25.489	914.281	726.528
215.650	25.517	912.336	725.032
216.665	25.603	911.701	724.808
217.680	25.888	910.828	725.197
218.694	25.595	910.271	723.513
219.709	25.430	909.137	721.883
220.723	25.320	909.082	721.333
221.738	24.919	909.292	719.825
222.753	25.208	907.980	719.884
223.767	25.414	907.502	720.266
224.782	25.570	907.799	721.064
225.796	25.570	906.720	720.144
226.811	25.291	904.655	717.327
227.826	24.765	904.360	714.924
228.840	25.065	902.940	714.937
229.855	24.765	903.358	714.009
230.869	24.936	901.993	713.548
231.884	25.079	902.300	714.296
232.899	25.461	901.256	714.928
233.913	25.076	901.180	713.273
234.928	24.723	900.758	711.471
235.942	24.964	900.442	712.117
236.957	24.871	899.500	710.940
237.972	25.203	898.631	711.506
238.986	25.059	897.138	709.689
240.001	25.109	897.556	710.156
241.015	24.982	897.806	709.790
242.030	25.159	897.190	709.940
243.045	25.182	896.931	709.761
244.059	24.952	896.281	708.275
245.074	24.965	895.686	707.795
246.088	25.217	895.153	708.304
247.103	25.381	895.056	708.814
248.117	26.145	893.220	710.304
249.132	26.105	893.451	710.269
250.147	26.290	893.051	710.613
251.161	26.424	892.421	710.575
252.176	26.311	891.778	709.558
253.190	26.258	890.580	708.336
254.205	26.438	890.481	708.900
255.220	25.984	890.582	707.136
256.234	26.089	889.435	706.576
257.249	25.756	889.861	705.547
258.263	25.898	887.942	704.517
259.278	26.122	887.284	704.807
260.293	25.928	887.041	703.795
261.307	26.111	886.861	704.304
262.322	26.083	885.386	702.960
263.336	25.748	883.849	700.375
264.351	25.414	882.457	697.913
265.366	25.294	882.107	697.109
266.380	25.686	883.382	699.579
267.395	26.235	882.325	700.809
268.409	26.074	880.928	699.015
269.424	25.931	880.551	698.099
270.439	25.802	879.673	696.844
271.453	25.975	879.616	697.408
272.468	26.146	879.819	698.168
273.482	26.259	877.800	696.940
274.497	25.955	877.871	695.759
275.512	25.923	876.484	694.478
276.526	26.343	876.151	695.768
277.541	26.087	876.087	694.671
278.555	26.139	875.946	694.695
279.570	26.128	875.738	694.429
280.585	26.175	874.568	693.618
281.599	25.916	872.734	691.112
282.614	25.892	871.811	690.226
283.628	25.955	871.411	690.090
284.643	25.828	871.724	689.790
285.657	25.660	871.066	688.568
286.672	25.618	870.107	687.585
287.687	25.541	870.425	687.481
288.701	25.725	869.918	687.725
289.716	25.716	869.314	687.152
290.730	25.730	868.688	686.650
291.745	26.179	866.759	686.774
292.760	25.944	867.165	686.139
293.774	26.116	867.069	686.656
294.789	26.531	866.083	687.393
295.803	26.108	866.212	685.826
296.818	26.167	865.330	685.291
297.833	26.229	863.747	684.212
298.847	25.661	863.718	681.974
299.862	25.858	863.454	682.453
300.876	26.344	863.463	684.240
301.891	26.447	862.321	683.666
302.906	26.363	861.793	682.867
303.920	26.365	860.681	681.934
304.935	26.669	860.322	682.736
305.949	26.474	860.474	682.058
306.964	26.208	859.737	680.414
307.979	25.962	859.375	679.141
308.993	26.132	859.029	679.447
310.008	25.964	858.433	678.282
311.022	26.319	857.154	678.545
312.037	26.384	856.709	678.379
313.052	25.986	855.290	675.704
314.066	25.694	854.012	673.543
315.081	25.396	854.701	672.909
316.095	25.607	855.147	673.989
317.110	26.025	853.777	674.415
318.125	25.842	852.727	672.842
319.139	25.281	851.391	669.636
320.154	25.179	851.217	669.060
321.168	25.676	849.861	669.785
322.183	26.436	849.431	672.213
323.197	25.931	850.416	671.054
324.212	26.074	849.937	671.149
325.227	26.103	849.249	670.654
326.241	25.807	849.009	669.302
327.256	25.840	847.460	668.147
328.270	25.541	847.702	667.168
329.285	25.449	846.676	665.962
330.300	25.455	845.834	665.264
331.314	25.912	844.844	666.115
332.329	26.218	846.129	668.202
333.343	26.160	845.539	667.460
334.358	26.283	844.436	666.986
335.373	26.131	844.284	666.247
336.387	26.011	844.848	666.188
337.402	26.392	843.956	666.832
338.416	26.247	843.970	666.248
339.431	27.102	842.194	667.932
340.446	26.605	842.206	666.054
341.460	26.805	841.868	666.463
342.475	26.755	842.430	666.665
343.489	26.595	841.965	665.649
344.504	26.893	841.700	666.476
345.519	26.781	841.242	665.644
346.533	26.692	840.579	664.735
347.548	26.100	841.038	662.863
348.562	26.610	839.668	663.596
349.577	26.204	838.883	661.429
350.592	26.470	839.074	662.495
351.606	26.348	837.684	660.895
352.621	26.440	836.101	659.924
353.635	26.489	835.764	659.779
354.650	26.113	834.770	657.565
355.665	26.002	833.593	656.174
356.679	25.994	834.059	656.455
357.694	25.930	833.150	655.449
358.708	25.934	832.189	654.649
359.723	25.915	832.565	654.816
360.738	26.208	831.433	654.934
361.752	26.198	830.741	654.293
362.767	26.561	830.313	655.213
363.781	26.517	829.523	654.373
364.796	27.032	828.969	655.736
365.810	26.745	828.065	653.930
366.825	26.927	829.311	655.512
367.840	26.748	828.745	654.361
368.854	26.418	827.196	651.892
369.869	26.422	826.966	651.665
370.883	26.598	826.795	652.109
371.898	26.940	825.961	652.623
372.913	26.820	825.929	652.108
373.927	26.322	825.061	649.576
374.942	26.533	824.495	649.831
375.956	26.639	824.208	649.926
376.971	27.067	822.663	650.182
377.986	26.951	823.727	650.550
379.000	26.949	822.741	649.708
380.015	27.014	821.820	649.154
381.029	26.680	822.323	648.301
382.044	26.750	821.174	647.587
383.059	27.176	820.409	648.447
384.073	26.726	820.552	646.898
385.088	26.426	819.094	644.619
386.102	26.323	819.553	644.558
387.117	26.417	818.766	644.215
388.132	26.303	817.143	642.477
389.146	26.614	816.958	643.379
390.161	26.956	816.108	643.866
391.175	26.761	816.513	643.436
392.190	26.670	815.368	642.154
393.205	25.769	814.692	638.374
394.219	25.152	812.977	634.791
395.234	24.725	813.326	633.495
396.248	25.411	813.913	636.325
397.263	25.952	813.462	637.831
398.278	25.975	813.257	637.696
399.292	25.848	812.483	636.585
400.307	25.902	811.693	636.098
401.321	26.037	810.799	635.819
402.336	26.087	810.884	636.006
403.350	26.706	809.898	637.352
404.365	26.910	810.563	638.539
405.380	27.191	809.743	638.822
406.394	27.014	809.083	637.626
407.409	27.185	809.585	638.563
408.423	27.029	809.565	637.945
409.438	27.104	808.153	637.038
410.453	27.192	807.253	636.582
411.467	26.328	807.804	633.928
412.482	26.974	806.400	635.034
413.496	26.765	805.967	633.903
414.511	27.026	805.822	634.649
415.526	26.945	805.360	633.945
416.540	27.044	805.030	633.972
417.555	26.964	804.832	633.484
418.569	26.762	804.454	632.424
419.584	27.107	802.703	632.192
420.599	26.924	802.730	631.522
421.613	160.075	1371.643	1793.701
422.628	139.006	1454.503	1793.727
