DTS Sentinel unit serial number:	SN413079Multiplexer serial number:	ORYXHardware model number:	OX4-SRSoftware version number:	ORYX F/W v4.00 Oryx Data Collector v3.7.2.0data status	okinstallation	princeton_trtdifferential loss correction	single-endedforward channel	channel 1reverse channel	N/Adate	2019/09/17time	14:26:35forward acquisition time	60.00reverse acquisition time	0.00gamma	496.2192k internal	0.2298k external	0.2298temperature offset calibration	0.9968default loss term (dB/km)	0.3790temperature slope calibration	1.0000multiplexer offset coefficient	1.0000multiplexer slope coefficient	1.0000fibre end	0.00T internal ref (°C)	36.34T ext. ref 1 (°C)	0.41T ext. ref 2 (°C)	33.33length (m)	temperature (°C)	Stokes	anti-Stokes-747.200	-200.000	-0.016	0.168
-746.185	800.000	0.122	0.473
-745.171	-91.351	0.075	-0.022
-744.156	800.000	-0.017	0.050
-743.142	-23.452	0.083	0.051
-742.127	336.222	-0.125	0.248
-741.112	-116.849	0.089	0.017
-740.098	-101.740	-0.397	0.098
-739.083	-40.183	-0.278	0.148
-738.069	-200.000	0.010	0.280
-737.054	327.993	-0.054	-0.105
-736.039	-164.099	0.268	0.013
-735.025	-137.209	-0.177	0.021
-734.010	-200.000	-0.084	0.392
-732.996	16.771	-0.405	0.327
-731.981	-30.501	0.010	0.006
-730.966	-65.720	-0.151	-0.062
-729.952	-35.787	0.105	-0.058
-728.937	104.795	0.205	-0.246
-727.923	562.652	0.027	0.066
-726.908	184.643	-0.092	-0.139
-725.894	-48.386	0.145	-0.071
-724.879	-117.671	-0.200	0.037
-723.864	247.229	0.062	-0.107
-722.850	106.843	-0.068	-0.083
-721.835	160.518	0.156	0.222
-720.821	-36.585	-0.413	0.227
-719.806	17.597	-0.308	-0.250
-718.791	-124.910	-0.249	0.039
-717.777	-28.569	0.525	-0.309
-716.762	-52.038	0.191	-0.090
-715.748	-110.044	-0.177	0.038
-714.733	-86.512	-0.324	0.101
-713.718	-200.000	-0.085	-0.438
-712.704	755.654	0.064	-0.177
-711.689	-200.000	0.006	0.090
-710.675	-200.000	-0.069	0.392
-709.660	-119.282	-0.331	0.059
-708.645	24.112	0.188	-0.158
-707.631	14.402	-0.279	-0.222
-706.616	-177.052	0.208	0.005
-705.602	-200.000	0.005	0.276
-704.587	-200.000	0.055	0.318
-703.572	800.000	-0.045	-0.185
-702.558	436.816	0.204	0.452
-701.543	32.762	0.081	-0.072
-700.529	130.391	0.115	-0.150
-699.514	-72.039	0.218	0.083
-698.499	-200.000	0.038	0.247
-697.485	-55.127	0.295	-0.135
-696.470	-34.450	0.201	0.112
-695.456	-11.946	-0.264	0.176
-694.441	-200.000	0.046	0.497
-693.426	-200.000	-0.020	0.178
-692.412	81.108	-0.130	-0.143
-691.397	800.000	-0.035	-0.131
-690.383	5.055	0.191	0.143
-689.368	-200.000	0.024	-0.112
-688.354	140.556	0.331	-0.446
-687.339	-42.823	-0.372	-0.193
-686.324	-125.652	0.296	0.046
-685.310	800.000	-0.079	-0.235
-684.295	-32.360	0.159	0.090
-683.281	416.977	-0.085	0.184
-682.266	88.804	-0.253	-0.286
-681.251	244.046	-0.107	-0.183
-680.237	-200.000	0.011	-0.232
-679.222	-131.088	0.283	0.038
-678.208	-43.421	0.192	-0.099
-677.193	-200.000	0.048	-0.213
-676.178	-128.262	0.089	-0.013
-675.164	-200.000	-0.012	0.324
-674.149	222.428	0.165	-0.270
-673.135	82.188	0.215	0.237
-672.120	-34.160	-0.245	-0.137
-671.105	800.000	-0.061	-0.197
-670.091	-144.185	-0.362	0.034
-669.076	-17.797	-0.085	0.054
-668.062	-171.104	-0.395	0.014
-667.047	3.463	0.128	-0.095
-666.032	-60.979	0.239	0.103
-665.018	-200.000	0.020	0.210
-664.003	-99.759	-0.405	0.103
-662.989	800.000	0.114	-0.445
-661.974	-200.000	-0.004	-0.052
-660.959	108.278	-0.090	-0.110
-659.945	-200.000	0.035	-0.160
-658.930	285.911	-0.138	0.253
-657.916	35.448	0.080	-0.072
-656.901	573.897	-0.074	0.184
-655.886	19.644	0.055	-0.045
-654.872	-49.070	0.049	-0.024
-653.857	-126.478	-0.098	-0.015
-652.843	772.210	0.077	-0.212
-651.828	-66.657	-0.208	-0.084
-650.814	286.067	0.135	0.249
-649.799	-200.000	0.018	0.172
-648.784	-99.978	-0.247	0.063
-647.770	-81.375	0.326	0.109
-646.755	-25.064	-0.216	-0.130
-645.741	-200.000	-0.055	0.273
-644.726	-22.028	0.240	-0.148
-643.711	-117.735	-0.266	-0.049
-642.697	-54.987	-0.393	0.180
-641.682	645.286	-0.056	0.146
-640.668	-108.719	0.276	0.060
-639.653	-106.605	0.141	0.032
-638.638	-200.000	-0.025	-0.339
-637.624	28.661	0.159	0.137
-636.609	-200.000	-0.018	-0.222
-635.595	800.000	0.088	0.255
-634.580	193.604	0.139	0.214
-633.565	-200.000	-0.009	-0.198
-632.551	426.262	-0.078	0.171
-631.536	58.820	0.084	0.084
-630.522	31.599	0.333	-0.291
-629.507	800.000	-0.039	0.109
-628.492	-12.822	-0.089	0.059
-627.478	-57.018	-0.212	-0.095
-626.463	584.497	0.027	0.066
-625.449	41.009	0.148	-0.135
-624.434	-176.737	0.309	-0.008
-623.419	-200.000	-0.001	0.163
-622.405	-200.000	-0.349	-0.001
-621.390	23.591	-0.180	0.151
-620.376	-62.364	-0.354	0.150
-619.361	227.113	0.225	-0.372
-618.346	82.663	0.077	-0.085
-617.332	5.679	-0.255	-0.192
-616.317	99.725	-0.232	-0.273
-615.303	-200.000	-0.213	-0.001
-614.288	-51.963	0.367	0.173
-613.273	78.001	0.208	-0.225
-612.259	123.064	0.036	0.046
-611.244	-68.610	0.540	0.212
-610.230	117.850	-0.042	0.052
-609.215	-200.000	-0.005	-0.247
-608.201	-117.351	-0.096	0.018
-607.186	13.336	0.373	-0.294
-606.171	26.570	-0.259	-0.220
-605.157	12.100	-0.162	0.127
-604.142	-200.000	0.012	-0.081
-603.128	7.715	-0.370	0.282
-602.113	167.990	0.043	0.063
-601.098	171.455	-0.035	0.052
-600.084	90.282	-0.096	-0.109
-599.069	-200.000	0.020	0.136
-598.055	-13.222	0.049	-0.032
-597.040	-155.783	-0.183	0.012
-596.025	-92.342	0.260	-0.074
-595.011	-38.176	0.191	0.103
-593.996	29.166	-0.167	0.143
-592.982	-97.042	-0.062	0.016
-591.967	-126.289	0.298	0.045
-590.952	-96.981	-0.218	0.058
-589.938	-109.149	-0.364	0.079
-588.923	-10.065	-0.215	-0.145
-587.909	-68.013	-0.044	-0.018
-586.894	-134.412	0.165	0.020
-585.879	343.223	-0.082	0.163
-584.865	111.598	0.112	0.138
-583.850	-138.942	-0.223	0.025
-582.836	-82.844	-0.119	0.039
-581.821	-55.687	-0.363	-0.165
-580.806	-72.285	-0.264	-0.099
-579.792	-77.824	0.190	-0.066
-578.777	592.812	0.162	-0.405
-577.763	566.097	0.105	-0.258
-576.748	-27.985	-0.181	0.106
-575.733	-200.000	0.006	0.150
-574.719	800.000	-0.026	-0.073
-573.704	26.445	0.277	-0.235
-572.690	-64.890	-0.299	-0.123
-571.675	145.218	-0.075	-0.102
-570.661	-200.000	-0.028	0.225
-569.646	-105.375	0.049	0.011
-568.631	-114.703	0.217	0.042
-567.617	126.264	-0.046	0.058
-566.602	-200.000	-0.034	-0.154
-565.588	-35.403	0.070	-0.039
-564.573	-51.113	0.224	-0.107
-563.558	25.062	0.200	0.168
-562.544	128.374	-0.091	-0.117
-561.529	286.269	-0.085	0.156
-560.515	-200.000	0.046	-0.297
-559.500	-200.000	-0.011	-0.210
-558.485	113.153	-0.225	0.277
-557.471	-80.606	-0.061	0.021
-556.456	24.633	0.159	-0.133
-555.442	-105.351	0.355	0.082
-554.427	800.000	0.014	-0.054
-553.412	-200.000	0.002	0.057
-552.398	-47.758	-0.250	-0.123
-551.383	-200.000	0.009	0.072
-550.369	-200.000	0.013	0.208
-549.354	-138.253	-0.397	-0.045
-548.339	-0.702	0.103	0.074
-547.325	187.735	0.117	0.178
-546.310	132.188	-0.174	-0.228
-545.296	39.361	0.134	-0.121
-544.281	165.249	-0.059	0.084
-543.266	78.942	-0.148	0.160
-542.252	-10.116	-0.227	-0.153
-541.237	-45.915	-0.325	0.163
-540.223	13.697	-0.179	-0.140
-539.208	196.527	0.072	-0.112
-538.193	-181.649	0.104	0.002
-537.179	-200.000	0.050	-0.228
-536.164	337.275	-0.106	-0.209
-535.150	608.618	-0.089	-0.225
-534.135	260.675	-0.079	0.139
-533.121	-132.850	-0.229	-0.030
-532.106	-40.307	-0.179	-0.094
-531.091	-200.000	-0.020	-0.182
-530.077	37.049	-0.209	-0.187
-529.062	175.622	0.150	0.220
-528.048	-200.000	-0.043	-0.301
-527.033	-51.975	-0.357	-0.168
-526.018	212.758	-0.151	-0.242
-525.004	-200.000	-0.014	0.164
-523.989	323.012	-0.153	-0.295
-522.975	207.689	-0.208	0.329
-521.960	-24.702	-0.152	-0.091
-520.945	-21.526	-0.208	-0.128
-519.931	-39.585	-0.274	0.145
-518.916	-177.219	0.238	0.006
-517.902	173.608	0.072	0.105
-516.887	70.160	0.018	-0.019
-515.872	460.462	-0.057	0.129
-514.858	173.459	0.103	-0.150
-513.843	800.000	-0.067	-0.209
-512.829	-164.366	-0.225	0.010
-511.814	1.321	-0.347	0.252
-510.799	468.545	-0.099	-0.224
-509.785	-200.000	0.073	0.336
-508.770	33.953	-0.073	0.064
-507.756	-25.793	-0.217	0.129
-506.741	800.000	0.036	0.119
-505.726	256.020	0.064	-0.111
-504.712	111.160	0.244	0.298
-503.697	800.000	-0.023	-0.092
-502.683	61.456	0.104	0.104
-501.668	408.531	0.060	0.128
-500.653	780.737	-0.076	-0.212
-499.639	800.000	-0.007	-0.030
-498.624	-78.591	0.120	-0.041
-497.610	-78.903	-0.020	-0.007
-496.595	-56.383	-0.182	0.082
-495.581	145.753	-0.031	-0.042
-494.566	737.755	-0.025	-0.067
-493.551	-142.965	-0.215	0.021
-492.537	800.000	0.073	-0.259
-491.522	-134.314	0.242	-0.030
-490.508	-132.964	0.358	-0.046
-489.493	10.304	0.079	-0.060
-488.478	-200.000	-0.052	0.409
-487.464	68.902	-0.136	-0.141
-486.449	-31.150	0.261	-0.149
-485.435	-120.455	-0.477	-0.082
-484.420	187.645	-0.059	0.089
-483.405	-200.000	-0.003	0.039
-482.391	800.000	-0.093	-0.331
-481.376	15.529	0.212	0.168
-480.362	-0.841	-0.198	0.142
-479.347	16.706	0.055	-0.044
-478.332	-57.098	0.076	-0.034
-477.318	-116.534	0.187	-0.035
-476.303	-61.591	-0.113	-0.048
-475.289	1.181	-0.213	-0.155
-474.274	-200.000	-0.042	-0.241
-473.259	-137.955	0.091	0.010
-472.245	301.919	0.048	-0.090
-471.230	-200.000	-0.005	0.199
-470.216	47.816	0.120	0.113
-469.201	-172.342	0.398	-0.013
-468.186	-75.824	-0.139	-0.050
-467.172	-50.827	-0.198	-0.094
-466.157	204.558	0.172	0.270
-465.143	-154.253	0.208	-0.014
-464.128	-149.122	0.279	0.023
-463.113	800.000	0.054	0.196
-462.099	-200.000	0.031	0.283
-461.084	-200.000	0.006	0.220
-460.070	22.295	0.236	-0.195
-459.055	528.168	-0.025	-0.060
-458.040	243.826	0.033	0.055
-457.026	-200.000	-0.008	0.199
-456.011	-47.121	0.144	0.071
-454.997	-138.626	-0.207	-0.023
-453.982	-19.111	-0.122	0.077
-452.968	-184.885	0.173	0.003
-451.953	-200.000	-0.002	-0.027
-450.938	-16.637	-0.281	-0.179
-449.924	-200.000	-0.013	0.175
-448.909	-135.058	0.033	0.004
-447.895	-30.726	0.239	0.136
-446.880	573.499	-0.165	-0.407
-445.865	800.000	-0.057	-0.244
-444.851	-125.606	0.210	-0.032
-443.836	47.028	-0.095	0.089
-442.822	554.948	0.068	-0.165
-441.807	733.451	0.134	-0.361
-440.792	113.011	-0.031	0.038
-439.778	-72.939	0.167	-0.062
-438.763	-98.566	0.127	-0.033
-437.749	-155.604	-0.527	-0.034
-436.734	-200.000	0.016	-0.182
-435.719	-200.000	0.016	-0.116
-434.705	-94.885	-0.181	-0.049
-433.690	756.715	0.034	0.093
-432.676	41.726	0.255	0.233
-431.661	800.000	-0.101	0.344
-430.646	448.720	-0.065	0.144
-429.632	800.000	0.047	-0.138
-428.617	-92.148	0.047	0.013
-427.603	-200.000	-0.028	0.127
-426.588	-63.470	-0.303	-0.125
-425.573	-68.393	0.287	-0.112
-424.559	171.174	0.187	0.271
-423.544	128.944	0.276	0.354
-422.530	635.957	0.090	-0.229
-421.515	25.797	-0.112	-0.094
-420.500	-200.000	0.040	0.282
-419.486	369.491	0.098	0.199
-418.471	-106.910	-0.236	0.053
-417.457	800.000	-0.064	-0.270
-416.442	45.685	0.385	-0.359
-415.428	125.413	-0.083	-0.106
-414.413	-54.635	0.398	0.181
-413.398	705.511	-0.005	-0.014
-412.384	800.000	0.036	0.108
-411.369	-34.700	-0.203	-0.112
-410.355	461.653	0.098	-0.220
-409.340	216.078	-0.056	-0.090
-408.325	-81.748	0.105	-0.035
-407.311	119.077	0.178	0.222
-406.296	48.650	0.184	-0.174
-405.282	-183.621	0.385	-0.007
-404.267	29.364	-0.209	-0.179
-403.252	94.730	-0.012	0.014
-402.238	-68.177	-0.149	-0.058
-401.223	211.885	0.221	-0.351
-400.209	-200.000	0.036	0.178
-399.194	-116.285	-0.299	-0.056
-398.179	-44.068	-0.103	-0.052
-397.165	-4.208	0.227	-0.158
-396.150	-200.000	-0.051	-0.301
-395.136	-60.866	0.274	-0.117
-394.121	213.051	-0.032	0.050
-393.106	-200.000	-0.001	0.039
-392.092	-116.277	-0.274	-0.051
-391.077	-173.321	-0.222	-0.007
-390.063	-145.885	0.131	0.012
-389.048	-154.980	-0.238	0.016
-388.033	476.750	-0.179	0.406
-387.019	59.285	0.294	0.292
-386.004	255.126	-0.192	-0.330
-384.990	-136.668	0.354	0.041
-383.975	-114.828	-0.186	0.036
-382.960	594.024	0.065	-0.162
-381.946	-55.955	-0.226	0.101
-380.931	544.719	-0.153	0.369
-379.917	-200.000	0.015	-0.092
-378.902	-200.000	0.035	0.166
-377.888	78.379	0.183	-0.197
-376.873	-20.576	0.142	-0.088
-375.858	-51.574	0.217	-0.102
-374.844	185.859	0.241	0.360
-373.829	-61.144	-0.242	-0.103
-372.815	-142.953	0.346	0.034
-371.800	-200.000	0.020	-0.243
-370.785	-64.710	0.202	-0.082
-369.771	76.139	-0.087	-0.092
-368.756	-26.572	-0.118	-0.069
-367.742	94.860	0.125	0.143
-366.727	123.168	-0.118	0.148
-365.712	610.920	-0.050	-0.126
-364.698	-56.287	0.085	-0.038
-363.683	-200.000	0.315	0.001
-362.669	36.148	0.057	0.051
-361.654	24.672	-0.220	0.183
-360.639	183.434	-0.227	0.337
-359.625	89.739	0.187	0.210
-358.610	-200.000	-0.050	-0.469
-357.596	-200.000	-0.023	-0.250
-356.581	-123.255	-0.060	0.010
-355.566	51.167	0.151	-0.144
-354.552	569.986	-0.016	-0.039
-353.537	800.000	-0.055	0.240
-352.523	-84.526	0.054	0.017
-351.508	-114.427	0.401	0.078
-350.493	-58.914	-0.482	-0.209
-349.479	-200.000	-0.045	-0.296
-348.464	-200.000	-0.003	0.264
-347.450	49.618	0.153	-0.145
-346.435	102.860	0.064	0.075
-345.420	-200.000	-0.054	0.285
-344.406	-200.000	-0.026	-0.188
-343.391	800.000	-0.037	-0.143
-342.377	-200.000	0.040	-0.405
-341.362	-28.977	0.233	0.134
-340.348	-131.677	-0.269	-0.035
-339.333	-44.016	0.189	-0.095
-338.318	321.006	0.047	0.090
-337.304	800.000	0.064	0.278
-336.289	-84.817	-0.252	-0.079
-335.275	-176.937	-0.325	-0.008
-334.260	800.000	0.129	-0.469
-333.245	-200.000	-0.041	-0.198
-332.231	-8.943	0.363	0.244
-331.216	4.272	0.177	-0.130
-330.202	199.383	-0.018	0.027
-329.187	-62.729	0.224	0.093
-328.172	28.567	0.230	0.196
-327.158	-157.975	0.368	0.022
-326.143	-109.044	0.294	-0.063
-325.129	49.315	0.099	-0.093
-324.114	-200.000	0.021	-0.219
-323.099	-200.000	0.005	-0.375
-322.085	-75.797	-0.264	-0.094
-321.070	-57.298	0.128	-0.057
-320.056	67.407	0.033	-0.034
-319.041	-200.000	0.073	-0.349
-318.026	-86.671	0.405	-0.124
-317.012	44.841	0.191	0.176
-315.997	-200.000	0.004	0.031
-314.983	459.977	0.149	0.333
-313.968	-200.000	0.036	-0.338
-312.953	252.159	0.157	-0.268
-311.939	428.266	-0.111	0.240
-310.924	119.442	0.128	0.159
-309.910	752.638	0.189	-0.513
-308.895	-105.754	0.357	-0.081
-307.880	720.881	0.181	-0.483
-306.866	-200.000	-0.042	0.227
-305.851	-50.907	-0.274	0.129
-304.837	800.000	0.124	0.358
-303.822	130.041	-0.028	0.036
-302.807	-200.000	-0.036	0.192
-301.793	-88.894	0.123	0.036
-300.778	-140.486	-0.215	0.022
-299.764	-55.407	-0.075	-0.034
-298.749	49.430	0.102	0.097
-297.735	-34.119	0.162	0.090
-296.720	-149.868	-0.153	0.012
-295.705	2.557	-0.211	-0.153
-294.691	43.532	0.059	-0.054
-293.676	-21.453	-0.132	-0.081
-292.662	321.600	-0.129	-0.246
-291.647	-28.689	0.119	0.068
-290.632	37.476	0.223	0.198
-289.618	-43.398	-0.337	-0.171
-288.603	226.596	-0.027	0.044
-287.589	800.000	0.045	0.193
-286.574	127.675	-0.229	-0.292
-285.559	-182.552	0.136	-0.002
-284.545	-101.300	-0.137	-0.033
-283.530	-97.012	-0.333	-0.087
-282.516	-18.859	0.028	0.017
-281.501	-55.163	-0.121	0.055
-280.486	-57.327	-0.034	-0.015
-279.472	54.118	-0.064	0.062
-278.457	11.187	0.173	0.133
-277.443	99.604	0.168	-0.195
-276.428	-120.596	-0.043	0.007
-275.413	-72.923	-0.040	0.015
-274.399	-145.553	-0.120	0.011
-273.384	395.112	-0.099	-0.206
-272.370	-112.727	-0.500	0.100
-271.355	62.965	0.136	0.136
-270.340	-200.000	-0.015	0.072
-269.326	613.702	0.089	0.222
-268.311	95.594	-0.088	0.101
-267.297	7.676	-0.158	0.119
-266.282	800.000	-0.029	-0.101
-265.267	800.000	0.053	-0.159
-264.253	74.251	-0.073	-0.077
-263.238	619.282	-0.062	-0.157
-262.224	155.393	0.176	-0.243
-261.209	787.452	0.062	-0.171
-260.195	-14.194	0.161	0.104
-259.180	-148.249	0.177	0.015
-258.165	-147.081	-0.197	-0.017
-257.151	-18.447	0.062	-0.039
-256.136	-84.714	-0.138	0.044
-255.122	-8.819	-0.057	0.038
-254.107	244.659	-0.131	0.221
-253.092	347.633	0.098	-0.193
-252.078	-27.596	-0.105	0.061
-251.063	72.386	0.133	0.139
-250.049	146.579	-0.095	-0.128
-249.034	147.628	0.070	-0.094
-248.019	-165.328	0.364	0.016
-247.005	-116.548	-0.042	-0.008
-245.990	34.968	-0.263	0.231
-244.976	-12.638	0.288	0.188
-243.961	-86.423	0.237	0.073
-242.946	800.000	-0.101	-0.349
-241.932	800.000	0.069	0.196
-240.917	48.572	0.116	-0.109
-239.903	800.000	-0.057	0.166
-238.888	148.554	0.193	0.261
-237.873	-31.829	-0.253	0.142
-236.859	-69.660	-0.293	0.112
-235.844	800.000	0.019	0.065
-234.830	-200.000	0.012	-0.173
-233.815	-200.000	-0.059	0.351
-232.800	-26.788	-0.063	0.037
-231.786	-32.915	-0.144	-0.080
-230.771	271.254	-0.039	0.068
-229.757	-102.362	0.096	-0.023
-228.742	-91.765	-0.198	0.056
-227.727	-34.847	0.160	0.088
-226.713	-5.284	0.090	-0.062
-225.698	-52.286	-0.112	0.052
-224.684	-178.670	-0.079	0.002
-223.669	-16.331	0.066	0.042
-222.655	230.189	0.107	0.175
-221.640	-200.000	0.000	0.464
-220.625	-22.925	-0.286	0.172
-219.611	211.891	0.148	-0.233
-218.596	85.085	0.095	0.104
-217.582	-200.000	0.000	0.180
-216.567	15.779	-0.091	0.072
-215.552	-45.563	0.387	-0.192
-214.538	-55.526	0.220	0.099
-213.523	-11.969	0.294	0.193
-212.509	800.000	0.048	0.158
-211.494	507.051	0.019	-0.044
-210.479	-200.000	-0.077	0.368
-209.465	616.684	0.073	0.182
-208.450	16.828	0.210	0.166
-207.436	-163.186	0.296	0.014
-206.421	800.000	0.136	0.423
-205.406	-200.000	0.067	-0.310
-204.392	-200.000	0.006	-0.088
-203.377	-148.314	0.028	-0.002
-202.363	390.693	0.098	0.203
-201.348	-200.000	0.005	-0.112
-200.333	34.752	-0.178	0.156
-199.319	-35.287	0.026	-0.014
-198.304	-21.251	0.210	0.128
-197.290	-77.486	0.271	-0.094
-196.275	11.988	-0.229	-0.176
-195.260	53.344	0.146	0.140
-194.246	104.052	0.081	0.095
-193.231	-15.490	-0.259	0.166
-192.217	-19.108	-0.103	-0.064
-191.202	8.108	-0.226	0.169
-190.187	-52.283	-0.480	-0.222
-189.173	155.965	0.138	0.190
-188.158	123.645	0.004	-0.005
-187.144	-200.000	0.002	0.048
-186.129	119.462	-0.203	-0.251
-185.114	-80.626	0.181	0.060
-184.100	800.000	0.106	0.386
-183.085	6.087	0.166	0.123
-182.071	-76.688	0.044	-0.016
-181.056	-200.000	0.013	-0.175
-180.042	800.000	-0.063	0.202
-179.027	49.304	-0.007	0.007
-178.012	-125.457	-0.156	0.024
-176.998	80.621	0.055	0.060
-175.983	259.929	-0.145	0.249
-174.969	51.650	-0.439	0.417
-173.954	-101.280	-0.148	0.036
-172.939	-110.315	-0.247	0.051
-171.925	-87.850	-0.315	0.095
-170.910	51.817	-0.238	-0.226
-169.896	-200.000	-0.011	-0.223
-168.881	-20.233	0.193	-0.118
-167.866	407.178	-0.068	-0.143
-166.852	800.000	-0.102	-0.344
-165.837	-68.030	0.051	0.020
-164.823	-39.242	0.253	0.133
-163.808	-200.000	0.028	-0.222
-162.793	-200.000	0.008	0.290
-161.779	282.537	-0.183	0.327
-160.764	-200.000	0.013	-0.342
-159.750	89.956	0.016	-0.018
-158.735	-1.484	0.161	0.114
-157.720	-200.000	0.090	0.424
-156.706	246.906	-0.047	0.079
-155.691	-82.935	-0.152	-0.049
-154.677	-14.553	-0.278	-0.178
-153.662	-200.000	0.037	-0.174
-152.647	41.235	0.042	0.038
-151.633	773.523	0.126	0.342
-150.618	-46.823	0.273	-0.133
-149.604	800.000	0.050	0.188
-148.589	28.256	0.201	-0.169
-147.574	144.295	0.142	0.189
-146.560	-84.821	-0.402	-0.126
-145.545	-200.000	0.010	0.173
-144.531	70.461	0.183	-0.189
-143.516	800.000	-0.021	-0.083
-142.502	75.503	-0.071	0.075
-141.487	-200.000	0.006	0.125
-140.472	-51.560	-0.249	-0.116
-139.458	-200.000	-0.105	-0.463
-138.443	-144.291	0.361	-0.033
-137.429	167.948	-0.187	-0.265
-136.414	90.161	0.047	0.053
-135.399	-200.000	-0.012	-0.146
-134.385	112.345	-0.203	0.245
-133.370	10.861	-0.162	0.123
-132.356	-200.000	-0.024	-0.252
-131.341	181.411	-0.202	-0.297
-130.326	-140.496	0.271	0.028
-129.312	800.000	-0.059	0.168
-128.297	-153.573	-0.078	-0.005
-127.283	-8.817	-0.183	-0.123
-126.268	25.696	0.156	0.129
-125.253	425.303	-0.163	0.349
-124.239	12.460	-0.075	0.058
-123.224	31.747	-0.210	0.180
-122.210	608.683	0.124	0.309
-121.195	-200.000	0.042	-0.244
-120.180	58.287	-0.153	0.149
-119.166	800.000	0.055	-0.229
-118.151	-195.895	0.238	-0.002
-117.137	42.043	-0.138	0.125
-116.122	350.461	-0.058	-0.114
-115.107	-200.000	0.003	0.081
-114.093	-200.000	0.011	-0.356
-113.078	-160.504	-0.101	0.005
-112.064	-77.040	-0.120	0.042
-111.049	-86.061	-0.116	-0.036
-110.034	614.449	0.056	-0.139
-109.020	800.000	-0.076	0.247
-108.005	-200.000	-0.011	0.193
-106.991	-56.219	-0.091	0.040
-105.976	-46.273	0.234	-0.114
-104.962	153.985	0.179	-0.245
-103.947	-76.585	-0.236	0.082
-102.932	494.461	0.080	0.183
-101.918	14.639	0.118	-0.092
-100.903	47.717	-0.211	-0.196
-99.889	114.416	-0.092	-0.112
-98.874	109.756	0.033	-0.039
-97.859	-119.540	0.337	-0.058
-96.845	-200.000	-0.009	-0.449
-95.830	800.000	0.058	-0.221
-94.816	26.996	-0.168	0.140
-93.801	487.344	0.120	0.273
-92.786	-83.510	0.162	0.052
-91.772	63.549	0.186	0.186
-90.757	-200.000	0.065	0.420
-89.743	166.147	0.033	0.047
-88.728	324.278	0.096	0.182
-87.713	-181.081	-0.234	-0.005
-86.699	-34.404	-0.142	0.077
-85.684	-200.000	-0.056	-0.407
-84.670	800.000	-0.030	0.128
-83.655	197.969	-0.047	-0.071
-82.640	184.662	0.129	0.190
-81.626	55.560	-0.062	-0.059
-80.611	268.656	-0.114	0.198
-79.597	20.099	-0.088	-0.071
-78.582	105.531	0.135	-0.159
-77.567	-37.767	-0.018	-0.009
-76.553	11.329	0.209	0.160
-75.538	-110.414	0.298	-0.062
-74.524	318.663	-0.165	0.311
-73.509	-200.000	0.020	0.157
-72.494	-26.308	0.094	-0.055
-71.480	771.131	0.066	-0.179
-70.465	196.353	0.067	-0.101
-69.451	-16.222	0.164	0.104
-68.436	-200.000	-0.015	-0.124
-67.422	-62.279	0.276	-0.114
-66.407	-71.310	-0.230	-0.086
-65.392	-32.539	-0.106	0.059
-64.378	-68.847	-0.154	-0.059
-63.363	170.920	-0.017	-0.024
-62.349	477.644	-0.026	0.058
-61.334	12.552	-1.079	-0.827
-60.319	79.132	0.322	0.342
-59.305	-200.000	-0.130	-0.864
-58.290	211.974	0.521	0.815
-57.276	383.216	0.657	1.343
-56.261	-200.000	89.509	516.740
-55.246	442.547	1428.700	3109.418
-54.232	142.348	2635.741	3475.913
-53.217	110.706	2237.669	2674.174
-52.203	47.369	1673.759	1549.272
-51.188	39.665	1402.475	1249.551
-50.173	36.447	1359.084	1191.041
-49.159	56.635	1403.573	1356.783
-48.144	60.648	1422.346	1399.971
-47.130	40.289	1379.301	1232.594
-46.115	36.584	1361.770	1194.051
-45.100	36.287	1356.937	1187.939
-44.086	36.220	1354.629	1185.458
-43.071	36.276	1351.954	1183.414
-42.057	36.183	1349.658	1180.792
-41.042	36.266	1348.019	1179.819
-40.027	36.409	1346.046	1178.918
-39.013	36.319	1344.184	1176.689
-37.998	36.200	1343.283	1175.131
-36.984	36.391	1340.666	1173.955
-35.969	36.358	1339.070	1172.311
-34.954	36.422	1336.943	1170.790
-33.940	36.407	1335.645	1169.518
-32.925	36.367	1334.471	1168.197
-31.911	36.407	1332.559	1166.724
-30.896	36.401	1331.131	1165.387
-29.881	36.435	1329.994	1164.552
-28.867	36.496	1328.073	1163.188
-27.852	36.575	1326.432	1162.184
-26.838	36.507	1325.162	1160.617
-25.823	36.531	1323.698	1159.430
-24.809	36.462	1322.517	1157.939
-23.794	36.231	1321.456	1155.577
-22.779	36.367	1319.651	1154.768
-21.765	36.467	1318.096	1153.957
-20.750	36.349	1316.958	1152.212
-19.736	36.350	1315.535	1150.925
-18.721	36.230	1314.715	1149.448
-17.706	36.403	1313.076	1148.997
-16.692	36.320	1311.581	1147.153
-15.677	36.291	1311.251	1146.644
-14.663	36.224	1309.876	1144.999
-13.648	36.108	1309.026	1143.522
-12.633	36.308	1307.329	1143.181
-11.619	36.308	1306.461	1142.379
-10.604	36.301	1305.732	1141.652
-9.590	36.354	1304.785	1141.091
-8.575	36.209	1304.474	1139.921
-7.560	36.278	1303.323	1139.274
-6.546	36.260	1302.220	1138.157
-5.531	36.288	1301.563	1137.707
-4.517	36.297	1300.150	1136.479
-3.502	36.352	1299.037	1135.784
-2.487	36.258	1298.564	1134.774
-1.473	36.460	1294.257	1132.148
-0.458	35.403	1280.027	1113.525
0.556	30.422	1261.688	1074.019
1.571	26.217	1265.359	1052.603
2.586	24.308	1279.448	1052.972
3.600	23.092	1267.792	1036.164
4.615	16.866	1190.713	938.711
5.629	6.222	1107.494	817.930
6.644	0.845	1084.285	773.292
7.659	0.441	1081.615	769.257
8.673	0.186	1080.935	767.406
9.688	0.150	1079.498	766.135
10.702	0.509	1078.079	766.885
11.717	6.353	1085.806	802.157
12.731	15.332	1097.761	856.987
13.746	18.264	1100.866	874.337
14.761	17.267	1098.889	867.602
15.775	16.143	1096.448	859.868
16.790	15.225	1094.359	853.482
17.804	14.506	1092.789	848.525
18.819	14.171	1092.013	846.145
19.834	13.859	1090.583	843.377
20.848	13.651	1089.696	841.561
21.863	13.325	1089.010	839.303
22.877	13.226	1088.173	838.082
23.892	13.178	1087.534	837.272
24.907	13.221	1086.804	836.853
25.921	13.329	1085.226	836.108
26.936	13.151	1085.426	835.289
27.950	13.233	1084.051	834.570
28.965	13.331	1082.886	834.093
29.980	13.392	1081.730	833.439
30.994	13.482	1080.301	832.719
32.009	13.443	1079.697	831.979
33.023	13.436	1078.934	831.284
34.038	13.402	1077.447	829.895
35.053	13.273	1076.785	828.666
36.067	13.417	1075.768	828.528
37.082	13.437	1074.747	827.771
38.096	13.247	1074.449	826.516
39.111	13.278	1073.745	826.060
40.126	13.207	1072.351	824.559
41.140	13.178	1070.861	823.193
42.155	13.252	1069.594	822.518
43.169	13.125	1068.776	821.185
44.184	13.118	1067.816	820.336
45.199	13.141	1066.760	819.571
46.213	13.200	1065.401	818.743
47.228	13.275	1064.680	818.487
48.242	13.313	1063.468	817.672
49.257	13.204	1062.806	816.554
50.271	13.369	1061.790	816.512
51.286	13.378	1060.568	815.545
52.301	13.315	1059.836	814.603
53.315	13.228	1058.930	813.406
54.330	13.375	1057.695	813.105
55.344	13.252	1057.292	812.118
56.359	13.152	1056.210	810.728
57.374	13.249	1055.221	810.369
58.388	13.176	1054.319	809.252
59.403	13.213	1053.312	808.585
60.417	13.241	1052.777	808.241
61.432	13.105	1051.510	806.531
62.447	13.096	1051.310	806.264
63.461	13.065	1050.416	805.354
64.476	12.981	1049.436	804.122
65.490	13.036	1048.689	803.749
66.505	13.233	1047.564	803.772
67.520	13.129	1047.438	803.100
68.534	13.155	1046.403	802.359
69.549	13.136	1045.644	801.614
70.563	13.079	1044.929	800.721
71.578	13.002	1044.443	799.904
72.593	13.021	1043.441	799.158
73.607	13.007	1042.765	798.500
74.622	13.004	1042.067	797.883
75.636	12.982	1041.490	797.265
76.651	13.039	1040.640	796.819
77.666	13.035	1039.917	796.172
78.680	13.087	1039.835	796.292
79.695	13.162	1038.324	795.425
80.709	13.199	1037.573	794.958
81.724	13.225	1036.880	794.480
82.739	13.180	1036.560	793.948
83.753	13.211	1035.822	793.465
84.768	13.388	1034.816	793.473
85.782	13.494	1033.043	792.547
86.797	13.363	1032.797	791.660
87.812	13.192	1032.094	790.236
88.826	13.295	1030.800	789.667
89.841	13.211	1030.134	788.685
90.855	13.268	1029.296	788.245
91.870	13.291	1028.408	787.606
92.884	13.421	1027.281	787.292
93.899	13.457	1026.318	786.657
94.914	13.464	1025.732	786.172
95.928	13.381	1024.871	785.046
96.943	13.392	1024.152	784.477
97.957	13.193	1023.362	782.860
98.972	13.454	1022.018	783.000
99.987	13.331	1021.289	781.789
101.001	13.376	1020.094	781.017
102.016	13.456	1019.052	780.528
103.030	13.327	1018.752	779.623
104.045	13.425	1017.430	779.003
105.060	13.311	1016.696	777.835
106.074	13.210	1016.227	776.931
107.089	13.203	1014.886	775.807
108.103	13.210	1014.103	775.170
109.118	13.381	1012.701	774.831
110.133	13.224	1012.058	773.536
111.147	13.234	1011.278	772.919
112.162	13.285	1010.207	772.271
113.176	13.259	1009.247	771.348
114.191	13.416	1008.491	771.431
115.206	13.328	1008.066	770.631
116.220	13.256	1007.143	769.520
117.235	13.269	1005.988	768.631
118.249	13.321	1005.431	768.378
119.264	13.277	1004.904	767.706
120.279	13.289	1004.046	767.034
121.293	13.274	1003.132	766.201
122.308	13.306	1001.912	765.348
123.322	13.330	1000.839	764.574
124.337	13.244	999.982	763.453
125.352	13.270	998.321	762.237
126.366	13.147	997.845	761.239
127.381	13.185	996.846	760.582
128.395	13.319	995.664	760.232
129.410	13.232	994.821	759.122
130.424	13.382	993.959	759.086
131.439	13.443	993.349	758.832
132.454	13.383	992.627	757.937
133.468	13.344	991.649	756.945
134.483	13.401	990.893	756.562
135.497	13.363	990.009	755.644
136.512	13.478	988.949	755.293
137.527	13.487	987.870	754.446
138.541	13.495	987.256	753.948
139.556	13.360	986.758	752.885
140.570	13.398	986.243	752.600
141.585	13.433	985.299	751.969
142.600	13.530	984.221	751.520
143.614	13.564	983.600	751.136
144.629	13.657	982.531	750.672
145.643	13.592	981.362	749.418
146.658	13.525	980.340	748.272
147.673	13.348	979.571	746.820
148.687	13.526	978.758	746.932
149.702	13.438	977.733	745.691
150.716	13.498	976.990	745.327
151.731	13.335	976.355	744.042
152.746	13.432	975.344	743.646
153.760	13.544	974.887	743.733
154.775	13.434	974.520	742.891
155.789	13.622	973.629	742.989
156.804	13.541	972.771	741.906
157.819	13.521	972.253	741.356
158.833	13.541	971.519	740.821
159.848	13.716	970.636	740.866
160.862	13.583	969.651	739.453
161.877	13.658	968.599	738.919
162.892	13.625	967.588	737.938
163.906	13.533	966.302	736.483
164.921	13.630	965.630	736.333
165.935	13.595	964.914	735.569
166.950	13.625	963.735	734.739
167.964	13.522	963.456	734.001
168.979	13.580	961.952	733.049
169.994	13.592	961.220	732.478
171.008	13.658	960.584	732.219
172.023	13.613	960.017	731.526
173.037	13.746	959.035	731.299
174.052	13.699	958.458	730.589
175.067	13.556	958.218	729.709
176.081	13.573	957.688	729.318
177.096	13.505	957.303	728.658
178.110	13.663	956.130	728.396
179.125	13.782	955.282	728.210
180.140	13.656	955.024	727.393
181.154	13.772	954.644	727.548
182.169	13.879	953.991	727.456
183.183	13.799	953.477	726.648
184.198	13.955	951.912	726.073
185.213	13.847	951.732	725.403
186.227	14.044	950.993	725.636
187.242	13.989	949.978	724.554
188.256	13.894	949.754	723.906
189.271	13.852	949.288	723.303
190.286	13.851	947.938	722.208
191.300	13.680	947.293	720.909
192.315	13.683	946.987	720.625
193.329	13.766	946.325	720.419
194.344	13.723	945.650	719.653
195.359	13.845	944.730	719.418
196.373	13.912	944.332	719.343
197.388	13.879	944.084	718.948
198.402	13.989	943.386	718.825
199.417	14.102	942.693	718.724
200.432	14.006	942.390	718.013
201.446	14.144	941.602	717.947
202.461	14.110	941.038	717.306
203.475	14.159	940.481	717.029
204.490	14.099	939.428	715.903
205.504	14.007	939.131	715.220
206.519	14.105	937.680	714.471
207.534	14.066	937.503	714.107
208.548	14.073	936.928	713.634
209.563	14.099	935.954	712.943
210.577	14.020	935.346	712.079
211.592	14.199	934.440	712.090
212.607	14.284	933.840	711.932
213.621	14.288	933.003	711.250
214.636	14.184	932.451	710.320
215.650	14.284	931.620	710.051
216.665	14.342	930.888	709.680
217.680	14.379	930.159	709.218
218.694	14.372	929.511	708.633
219.709	14.429	928.917	708.359
220.723	14.309	928.338	707.343
221.738	14.285	927.421	706.483
222.753	14.323	926.687	706.020
223.767	14.408	926.079	705.856
224.782	14.428	925.777	705.648
225.796	14.486	924.957	705.204
226.811	14.462	924.666	704.820
227.826	14.388	923.961	703.906
228.840	14.393	923.023	703.150
229.855	14.560	921.621	702.726
230.869	14.435	921.284	701.877
231.884	14.295	920.751	700.821
232.899	14.372	920.167	700.641
233.913	14.267	919.705	699.785
234.928	14.491	918.338	699.621
235.942	14.509	917.712	699.160
236.957	14.350	917.551	698.309
237.972	14.458	916.721	698.066
238.986	14.579	915.979	697.948
240.001	14.519	915.479	697.251
241.015	14.444	915.009	696.520
242.030	14.591	914.232	696.478
243.045	14.627	913.365	695.905
244.059	14.736	912.790	695.860
245.074	14.672	912.092	695.001
246.088	14.506	911.834	694.053
247.103	14.666	911.085	694.085
248.117	14.641	910.437	693.429
249.132	14.614	910.123	693.016
250.147	14.772	909.174	692.887
251.161	14.737	908.766	692.370
252.176	14.759	907.911	691.746
253.190	14.877	907.390	691.778
254.205	14.879	906.672	691.176
255.220	14.867	905.704	690.327
256.234	14.904	905.199	690.036
257.249	14.922	904.359	689.406
258.263	15.004	903.542	689.060
259.278	14.947	903.191	688.500
260.293	15.066	902.443	688.355
261.307	15.003	902.014	687.711
262.322	14.989	901.240	687.002
263.336	15.023	900.642	686.623
264.351	15.199	899.599	686.488
265.366	15.081	899.293	685.712
266.380	15.172	898.629	685.517
267.395	15.095	897.912	684.595
268.409	15.191	897.206	684.389
269.424	15.253	895.950	683.621
270.439	15.206	895.385	682.939
271.453	15.068	894.846	681.905
272.468	15.156	894.493	681.936
273.482	15.078	893.878	681.088
274.497	15.177	893.423	681.085
275.512	15.242	892.635	680.686
276.526	15.262	892.174	680.357
277.541	15.178	891.608	679.524
278.555	15.342	891.297	679.891
279.570	15.327	890.590	679.233
280.585	15.415	889.367	678.595
281.599	15.320	888.610	677.574
282.614	15.316	888.258	677.229
283.628	15.136	888.051	676.286
284.643	15.349	886.807	676.135
285.657	15.308	886.546	675.712
286.672	15.348	885.571	675.069
287.687	15.463	885.114	675.122
288.701	15.437	884.063	674.157
289.716	15.429	883.683	673.775
290.730	15.395	883.274	673.270
291.745	15.507	882.947	673.408
292.760	15.475	881.957	672.468
293.774	15.649	881.238	672.557
294.789	15.609	880.530	671.794
295.803	15.428	879.968	670.585
296.818	15.542	879.268	670.446
297.833	15.485	878.673	669.704
298.847	15.556	878.027	669.437
299.862	15.664	877.026	669.043
300.876	15.530	877.201	668.586
301.891	15.647	876.372	668.358
302.906	15.700	875.540	667.876
303.920	15.617	875.259	667.275
304.935	15.768	874.744	667.419
305.949	15.790	873.649	666.613
306.964	15.634	873.306	665.674
307.979	15.750	872.784	665.677
308.993	15.742	872.443	665.326
310.008	15.878	871.152	664.822
311.022	15.864	871.024	664.611
312.037	15.866	870.067	663.829
313.052	15.825	869.699	663.328
314.066	15.732	869.351	662.637
315.081	15.841	868.690	662.501
316.095	15.694	868.133	661.439
317.110	15.869	867.448	661.550
318.125	15.939	866.677	661.177
319.139	15.894	866.206	660.583
320.154	15.618	866.333	659.537
321.168	15.771	865.417	659.383
322.183	15.848	865.219	659.473
323.197	15.885	864.729	659.186
324.212	15.874	863.707	658.306
325.227	15.903	862.968	657.798
326.241	15.971	862.316	657.508
327.256	15.951	861.992	657.126
328.270	15.834	861.693	656.385
329.285	15.927	860.688	655.921
330.300	15.761	860.361	654.969
331.314	15.992	859.405	655.080
332.329	15.953	859.207	654.720
333.343	15.904	858.986	654.303
334.358	15.899	858.469	653.831
335.373	16.079	857.765	653.936
336.387	15.936	857.447	653.080
337.402	16.166	857.241	653.760
338.416	16.021	857.133	653.056
339.431	16.197	856.691	653.342
340.446	16.312	855.884	653.114
341.460	16.299	855.483	652.699
342.475	16.180	854.976	651.795
343.489	16.243	855.028	652.021
344.504	16.244	854.175	651.318
345.519	16.325	853.735	651.238
346.533	16.462	852.881	651.054
347.548	16.262	852.750	650.129
348.562	16.130	852.447	649.331
349.577	16.399	851.229	649.379
350.592	16.185	851.026	648.346
351.606	16.384	850.027	648.290
352.621	16.273	849.548	647.443
353.635	16.432	848.523	647.214
354.650	16.409	848.096	646.740
355.665	16.407	847.658	646.345
356.679	16.373	847.405	645.964
357.694	16.508	846.283	645.565
358.708	16.449	845.331	644.557
359.723	16.521	844.750	644.333
360.738	16.319	844.565	643.365
361.752	16.519	843.886	643.550
362.767	16.598	843.409	643.430
363.781	16.548	842.609	642.575
364.796	16.599	842.218	642.413
365.810	16.631	842.091	642.380
366.825	16.524	841.530	641.490
367.840	16.788	840.921	641.971
368.854	16.656	840.491	641.082
369.869	16.710	840.030	640.879
370.883	16.750	839.407	640.500
371.898	16.815	839.269	640.581
372.913	16.755	838.866	639.993
373.927	16.778	838.507	639.750
374.942	16.753	838.050	639.249
375.956	16.681	837.668	638.627
376.971	16.880	837.036	638.841
377.986	16.879	836.573	638.425
379.000	16.979	835.914	638.245
380.015	16.991	835.550	637.956
381.029	17.002	834.711	637.299
382.044	16.964	834.578	636.999
383.059	16.911	833.795	636.145
384.073	16.968	833.304	635.928
385.088	17.031	832.333	635.369
386.102	16.946	832.167	634.865
387.117	17.022	831.329	634.454
388.132	17.031	830.706	633.955
389.146	16.887	830.429	633.151
390.161	16.892	830.036	632.814
391.175	16.952	829.670	632.701
392.190	16.950	829.142	632.237
393.205	16.863	828.706	631.526
394.219	16.930	828.387	631.474
395.234	17.078	827.610	631.378
396.248	17.163	826.848	631.058
397.263	17.096	826.619	630.577
398.278	16.836	826.623	629.557
399.292	17.017	825.906	629.628
400.307	17.050	825.424	629.328
401.321	17.091	824.948	629.060
402.336	17.071	824.650	628.703
403.350	17.098	824.016	628.263
404.365	17.001	823.677	627.592
405.380	17.165	822.983	627.612
406.394	17.262	822.513	627.559
407.409	17.317	822.198	627.466
408.423	17.256	822.233	627.211
409.438	17.238	821.459	626.499
410.453	17.299	820.874	626.222
411.467	17.393	820.531	626.252
412.482	17.313	819.989	625.487
413.496	17.468	819.570	625.682
414.511	17.347	819.263	624.947
415.526	17.374	818.854	624.680
416.540	17.331	818.273	624.024
417.555	17.451	817.843	624.082
418.569	17.496	816.897	623.467
419.584	17.433	816.961	623.231
420.599	17.435	816.540	622.861
421.613	100.367	1281.303	1427.878
422.628	86.474	1349.019	1428.002
