DTS Sentinel unit serial number:	SN413079Multiplexer serial number:	ORYXHardware model number:	OX4-SRSoftware version number:	ORYX F/W v4.00 Oryx Data Collector v3.7.2.0data status	okinstallation	princeton_trtdifferential loss correction	single-endedforward channel	channel 1reverse channel	N/Adate	2019/09/11time	05:32:11forward acquisition time	60.00reverse acquisition time	0.00gamma	496.2192k internal	0.2330k external	0.2330temperature offset calibration	0.9928default loss term (dB/km)	0.3790temperature slope calibration	1.0000multiplexer offset coefficient	1.0000multiplexer slope coefficient	1.0000fibre end	0.00T internal ref (°C)	29.41T ext. ref 1 (°C)	-0.22T ext. ref 2 (°C)	23.30length (m)	temperature (°C)	Stokes	anti-Stokes-747.200	-60.831	-0.346	-0.148
-746.185	-9.841	0.242	0.162
-745.171	98.984	0.192	-0.224
-744.156	-75.669	-0.488	-0.174
-743.142	122.492	0.132	-0.166
-742.127	383.743	-0.122	0.253
-741.112	1.738	0.079	0.058
-740.098	800.000	-0.087	0.269
-739.083	176.682	0.068	0.099
-738.069	-200.000	-0.021	-0.122
-737.054	135.134	-0.187	0.244
-736.039	-92.921	-0.287	0.081
-735.025	800.000	0.069	-0.213
-734.010	6.436	-0.338	-0.252
-732.996	-70.670	-0.231	-0.088
-731.981	89.133	0.083	0.093
-730.966	-200.000	0.030	0.164
-729.952	800.000	-0.027	0.104
-728.937	-200.000	0.018	-0.259
-727.923	-16.894	-0.220	0.140
-726.908	-86.838	-0.235	-0.072
-725.894	68.663	-0.142	-0.146
-724.879	-31.018	-0.244	-0.139
-723.864	16.382	-0.230	-0.182
-722.850	-200.000	-0.053	0.251
-721.835	-200.000	-0.002	-0.068
-720.821	-9.249	-0.282	0.190
-719.806	-122.565	-0.220	-0.036
-718.791	12.544	-0.030	-0.023
-717.777	-200.000	-0.040	0.285
-716.762	-200.000	-0.038	-0.313
-715.748	-9.691	0.130	0.087
-714.733	103.093	-0.311	-0.367
-713.718	-200.000	0.040	0.247
-712.704	-43.255	0.570	0.290
-711.689	-157.816	0.074	-0.004
-710.675	250.113	-0.244	-0.417
-709.660	-200.000	-0.002	0.019
-708.645	-17.382	0.134	-0.085
-707.631	800.000	-0.050	-0.140
-706.616	532.169	-0.101	0.239
-705.602	-200.000	-0.005	-0.110
-704.587	446.891	0.053	-0.117
-703.572	670.056	0.117	-0.306
-702.558	-101.616	-0.123	-0.030
-701.543	-19.173	0.271	0.169
-700.529	611.887	-0.013	0.033
-699.514	-200.000	0.014	0.359
-698.499	10.929	0.311	0.239
-697.485	-16.687	0.159	0.101
-696.470	195.200	0.068	-0.104
-695.456	-124.045	0.272	0.043
-694.441	-200.000	-0.012	-0.415
-693.426	-174.168	0.135	-0.004
-692.412	-107.176	-0.079	0.018
-691.397	-200.000	-0.035	-0.213
-690.383	253.862	-0.149	0.255
-689.368	-14.880	-0.147	0.095
-688.354	-65.590	-0.112	0.045
-687.339	-200.000	-0.049	0.311
-686.324	680.807	0.114	-0.299
-685.310	-28.767	-0.250	0.144
-684.295	800.000	-0.057	-0.223
-683.281	-74.883	0.130	0.047
-682.266	-200.000	0.044	-0.395
-681.251	212.744	0.064	-0.102
-680.237	-200.000	-0.016	-0.259
-679.222	256.748	-0.171	0.295
-678.208	-23.908	-0.154	0.092
-677.193	-161.531	-0.139	0.007
-676.178	-9.866	-0.167	0.111
-675.164	-63.153	-0.125	-0.052
-674.149	0.679	-0.142	0.102
-673.135	-110.020	0.126	-0.026
-672.120	-200.000	-0.059	0.378
-671.105	-101.693	-0.233	-0.057
-670.091	208.830	-0.160	-0.252
-669.076	8.914	0.434	0.328
-668.062	-200.000	-0.027	-0.137
-667.047	75.913	-0.149	-0.159
-666.032	-117.221	-0.330	0.060
-665.018	-15.081	0.294	-0.189
-664.003	524.413	-0.095	0.224
-662.989	-106.748	-0.304	-0.068
-661.974	164.507	0.112	-0.158
-660.959	184.073	-0.033	-0.049
-659.945	-24.542	-0.177	0.106
-658.930	41.688	0.128	-0.116
-657.916	-76.614	0.123	0.043
-656.901	534.836	-0.064	0.153
-655.886	589.464	-0.068	0.167
-654.872	11.660	0.188	0.144
-653.857	43.628	-0.181	-0.166
-652.843	-200.000	0.019	-0.264
-651.828	-124.792	-0.428	0.066
-650.814	2.503	0.079	0.057
-649.799	-200.000	-0.042	-0.358
-648.784	-153.810	0.190	-0.013
-647.770	78.542	-0.197	0.211
-646.755	-83.984	-0.099	-0.032
-645.741	-119.638	-0.187	-0.032
-644.726	-109.210	0.125	-0.027
-643.711	109.886	-0.278	0.335
-642.697	800.000	-0.010	-0.042
-641.682	-77.518	-0.106	0.037
-640.668	-200.000	-0.021	0.127
-639.653	77.245	-0.170	0.181
-638.638	800.000	0.069	-0.237
-637.624	339.460	-0.092	0.180
-636.609	800.000	0.116	-0.364
-635.595	-111.108	0.205	0.042
-634.580	-200.000	0.051	-0.318
-633.565	6.917	-0.211	-0.158
-632.551	23.533	0.154	-0.127
-631.536	335.541	-0.071	-0.137
-630.522	169.521	-0.083	0.118
-629.507	-200.000	0.009	0.283
-628.492	10.501	0.080	0.061
-627.478	800.000	0.008	0.034
-626.463	-128.371	-0.215	0.031
-625.449	-79.752	-0.273	0.092
-624.434	-136.565	-0.409	0.047
-623.419	793.327	0.037	-0.101
-622.405	-147.140	-0.230	-0.020
-621.390	-19.431	0.105	-0.065
-620.376	412.352	0.062	-0.132
-619.361	-200.000	0.078	-0.407
-618.346	-200.000	-0.083	-0.366
-617.332	157.366	-0.081	0.112
-616.317	-112.758	-0.070	0.014
-615.303	681.145	0.055	0.142
-614.288	-200.000	0.029	0.208
-613.273	-120.145	0.385	-0.066
-612.259	-12.688	-0.021	-0.014
-611.244	-200.000	-0.028	-0.364
-610.230	-21.927	0.022	0.013
-609.215	-30.242	-0.187	0.106
-608.201	-174.565	-0.102	-0.003
-607.186	-148.096	0.163	0.014
-606.171	-11.261	0.185	0.122
-605.157	115.042	0.201	0.246
-604.142	-155.430	-0.187	-0.012
-603.128	-69.164	0.031	0.012
-602.113	8.461	-0.192	0.144
-601.098	67.180	-0.265	-0.271
-600.084	-200.000	0.051	0.350
-599.069	-38.321	-0.258	0.137
-598.055	24.856	-0.052	-0.043
-597.040	-103.479	0.443	0.104
-596.025	-91.246	0.088	-0.025
-595.011	800.000	-0.052	-0.210
-593.996	-200.000	0.045	0.301
-592.982	-42.705	-0.168	0.085
-591.967	407.305	0.051	-0.108
-590.952	9.154	-0.084	-0.064
-589.938	-101.414	-0.272	-0.066
-588.923	65.076	0.156	-0.158
-587.909	-121.343	0.162	-0.027
-586.894	-0.430	-0.114	-0.081
-585.879	-41.121	-0.078	-0.041
-584.865	-200.000	0.006	-0.115
-583.850	-123.120	0.189	0.030
-582.836	-6.733	-0.060	-0.041
-581.821	-60.385	0.321	0.136
-580.806	-59.263	-0.274	0.118
-579.792	-66.717	0.356	-0.141
-578.777	214.063	0.036	0.056
-577.763	-51.851	-0.281	0.131
-576.748	800.000	-0.030	0.104
-575.733	195.896	-0.085	-0.129
-574.719	-62.164	0.447	-0.186
-573.704	-159.788	0.057	0.003
-572.690	-14.743	-0.330	0.212
-571.675	-69.887	-0.106	-0.041
-570.661	-200.000	-0.273	0.001
-569.646	21.612	0.395	0.321
-568.631	-56.509	-0.151	0.067
-567.617	800.000	-0.098	0.327
-566.602	-200.000	0.020	0.125
-565.588	-139.839	-0.291	-0.031
-564.573	-19.829	-0.279	-0.173
-563.558	621.682	-0.225	-0.566
-562.544	150.177	0.244	0.331
-561.529	81.924	0.254	0.275
-560.515	-104.636	0.154	-0.035
-559.500	800.000	0.053	0.151
-558.485	78.559	-0.102	-0.109
-557.471	800.000	-0.043	0.129
-556.456	-200.000	0.002	-0.110
-555.442	728.692	-0.066	0.175
-554.427	-200.000	-0.054	0.376
-553.412	64.420	0.367	-0.369
-552.398	2.234	-0.073	-0.053
-551.383	-141.277	0.243	0.025
-550.369	-156.209	-0.190	0.012
-549.354	-180.246	-0.217	-0.005
-548.339	-200.000	0.006	0.048
-547.325	-200.000	0.025	0.148
-546.310	-63.976	-0.271	0.111
-545.296	9.755	0.042	-0.032
-544.281	69.919	0.198	-0.205
-543.266	260.603	-0.056	-0.096
-542.252	-200.000	-0.017	-0.280
-541.237	-200.000	0.002	0.240
-540.223	175.708	-0.165	0.239
-539.208	126.176	0.147	-0.186
-538.193	-34.232	-0.385	0.211
-537.179	-144.737	-0.157	0.014
-536.164	-91.101	-0.171	-0.049
-535.150	-200.000	0.048	-0.374
-534.135	800.000	0.080	-0.288
-533.121	-95.007	-0.251	-0.068
-532.106	354.880	0.093	0.184
-531.091	68.327	0.030	-0.031
-530.077	170.107	0.059	-0.084
-529.062	-92.549	-0.322	-0.090
-528.048	384.464	0.087	-0.180
-527.033	7.092	-0.285	-0.212
-526.018	63.479	0.192	0.192
-525.004	-200.000	0.012	-0.052
-523.989	-139.317	0.061	-0.007
-522.975	-200.000	-0.008	0.317
-521.960	64.760	-0.170	-0.171
-520.945	361.003	-0.074	-0.147
-519.931	-91.526	-0.094	-0.027
-518.916	800.000	0.087	-0.252
-517.902	-200.000	0.012	0.070
-516.887	-200.000	0.010	-0.072
-515.872	-69.541	0.114	0.044
-514.858	-179.251	-0.183	0.004
-513.843	-18.021	-0.236	-0.148
-512.829	86.693	0.058	-0.064
-511.814	25.166	-0.450	0.372
-510.799	-107.918	-0.124	-0.027
-509.785	-200.000	0.008	-0.082
-508.770	89.390	0.222	-0.247
-507.756	-10.914	0.112	0.074
-506.741	262.539	0.037	0.064
-505.726	-19.204	-0.124	0.077
-504.712	7.731	-0.127	0.095
-503.697	-20.065	-0.217	-0.134
-502.683	24.813	-0.238	-0.197
-501.668	-200.000	-0.004	0.067
-500.653	569.818	0.071	-0.173
-499.639	-37.331	-0.454	0.242
-498.624	-73.722	0.142	0.052
-497.610	-6.045	-0.161	-0.110
-496.595	800.000	-0.109	-0.309
-495.581	-147.984	0.167	0.014
-494.566	-18.346	-0.128	-0.080
-493.551	-36.084	0.212	0.114
-492.537	-101.823	0.190	0.046
-491.522	800.000	-0.065	0.225
-490.508	76.680	-0.198	0.209
-489.493	33.741	0.100	-0.087
-488.478	-200.000	-0.008	-0.277
-487.464	-12.907	0.238	0.154
-486.449	800.000	0.050	0.192
-485.435	-200.000	0.016	-0.367
-484.420	-138.525	0.424	-0.046
-483.405	-200.000	0.017	-0.127
-482.391	80.966	0.068	-0.073
-481.376	-130.619	0.401	-0.054
-480.362	318.109	-0.086	-0.163
-479.347	-125.961	-0.056	-0.008
-478.332	-200.000	-0.055	-0.519
-477.318	151.671	0.181	-0.246
-476.303	800.000	0.039	-0.132
-475.289	-200.000	-0.001	-0.344
-474.274	111.347	-0.236	-0.284
-473.259	230.142	-0.065	-0.107
-472.245	96.491	0.116	0.132
-471.230	479.093	-0.143	-0.322
-470.216	-200.000	-0.027	0.215
-469.201	47.731	0.079	-0.073
-468.186	470.087	-0.122	0.273
-467.172	-45.847	0.251	0.123
-466.157	274.689	-0.142	-0.251
-465.143	1.342	0.100	-0.072
-464.128	19.547	0.196	-0.157
-463.113	36.266	0.071	-0.062
-462.099	-61.049	0.144	-0.061
-461.084	429.107	0.090	0.193
-460.070	-200.000	-0.053	-0.404
-459.055	-200.000	-0.016	0.188
-458.040	366.399	-0.128	-0.257
-457.026	-84.732	-0.226	-0.071
-456.011	-53.363	-0.106	-0.048
-454.997	10.225	0.149	-0.113
-453.982	-200.000	0.025	-0.245
-452.968	-80.503	0.330	-0.110
-451.953	-71.535	-0.288	0.107
-450.938	353.002	0.154	-0.303
-449.924	-68.724	0.064	0.025
-448.909	-200.000	-0.011	-0.527
-447.895	-200.000	0.023	-0.467
-446.880	-200.000	0.044	-0.237
-445.865	-15.291	-0.232	-0.148
-444.851	13.687	0.314	0.243
-443.836	-48.980	-0.391	-0.187
-442.822	-200.000	0.019	0.196
-441.807	48.823	-0.167	0.156
-440.792	800.000	0.133	0.483
-439.778	-90.810	0.369	0.106
-438.763	166.897	-0.056	0.079
-437.749	-200.000	0.053	-0.363
-436.734	104.308	-0.296	0.346
-435.719	-200.000	0.015	-0.142
-434.705	-107.963	0.293	-0.063
-433.690	-31.009	0.134	0.075
-432.676	800.000	0.124	-0.351
-431.661	84.994	0.037	-0.041
-430.646	-66.925	-0.165	0.065
-429.632	-200.000	0.027	-0.278
-428.617	800.000	-0.039	0.115
-427.603	800.000	0.035	-0.140
-426.588	14.660	0.349	0.271
-425.573	310.460	-0.155	-0.288
-424.559	-33.005	-0.074	0.041
-423.544	-47.857	0.155	-0.075
-422.530	-46.765	0.121	0.059
-421.515	256.156	-0.204	0.348
-420.500	-52.099	0.344	-0.159
-419.486	179.344	0.116	0.168
-418.471	-200.000	0.002	-0.087
-417.457	382.741	0.019	-0.039
-416.442	-121.301	-0.251	-0.042
-415.428	-120.256	-0.125	0.021
-414.413	-200.000	-0.016	0.182
-413.398	206.376	0.120	-0.186
-412.384	68.338	-0.150	0.153
-411.369	-29.823	-0.239	-0.136
-410.355	621.532	-0.108	-0.270
-409.340	-200.000	-0.017	0.205
-408.325	-57.258	0.200	0.087
-407.311	-140.534	-0.285	0.029
-406.296	-128.440	-0.162	-0.023
-405.282	-3.858	-0.353	0.244
-404.267	-171.563	-0.091	0.003
-403.252	-200.000	0.056	0.318
-402.238	-58.035	0.265	-0.115
-401.223	-71.497	0.242	0.090
-400.209	17.212	-0.127	0.100
-399.194	800.000	0.064	0.183
-398.179	481.784	-0.081	0.182
-397.165	-36.476	-0.072	-0.038
-396.150	-200.000	0.038	-0.255
-395.136	800.000	-0.050	0.175
-394.121	-200.000	-0.013	0.217
-393.106	237.203	-0.101	0.166
-392.092	-2.716	0.265	-0.184
-391.077	-51.713	0.354	0.164
-390.063	188.613	-0.085	-0.127
-389.048	187.894	-0.144	0.214
-388.033	66.884	0.198	-0.200
-387.019	-67.374	-0.086	-0.033
-386.004	59.930	0.370	-0.362
-384.990	-160.589	-0.153	-0.008
-383.975	-64.849	-0.367	0.147
-382.960	800.000	0.091	0.373
-381.946	-22.401	0.063	-0.038
-380.931	10.782	0.196	-0.149
-379.917	-154.970	0.310	0.020
-378.902	-88.303	-0.172	0.051
-377.888	-172.336	-0.238	-0.008
-376.873	93.061	-0.105	0.118
-375.858	-200.000	-0.014	0.155
-374.844	259.155	0.185	0.317
-373.829	-92.628	0.171	-0.048
-372.815	33.392	-0.104	-0.090
-371.800	-200.000	0.000	-0.091
-370.785	-144.182	-0.433	0.040
-369.771	-16.924	-0.142	0.089
-368.756	495.428	-0.007	0.016
-367.742	-200.000	-0.031	-0.201
-366.727	123.923	0.061	0.076
-365.712	376.167	0.033	-0.067
-364.698	207.383	-0.020	0.031
-363.683	800.000	0.102	-0.411
-362.669	-200.000	0.050	-0.327
-361.654	-200.000	-0.014	0.197
-360.639	58.195	0.232	0.225
-359.625	-16.929	0.322	-0.202
-358.610	298.145	-0.145	-0.263
-357.596	-31.728	0.149	-0.083
-356.581	157.668	0.159	-0.218
-355.566	800.000	0.105	0.417
-354.552	725.131	0.080	0.211
-353.537	-57.409	0.109	0.048
-352.523	-200.000	-0.014	0.121
-351.508	-200.000	0.004	-0.071
-350.493	800.000	-0.057	0.232
-349.479	-87.383	0.308	-0.093
-348.464	-55.620	-0.171	0.076
-347.450	-71.023	0.317	-0.118
-346.435	-9.402	-0.069	-0.046
-345.420	317.684	0.032	-0.059
-344.406	-192.776	-0.087	0.001
-343.391	425.076	-0.160	-0.342
-342.377	491.965	0.058	0.133
-341.362	-159.800	-0.122	-0.007
-340.348	117.085	0.159	0.193
-339.333	-3.494	-0.182	-0.126
-338.318	-129.831	0.478	-0.065
-337.304	184.867	-0.138	0.203
-336.289	-38.572	-0.352	0.185
-335.275	-67.024	-0.382	0.149
-334.260	-102.274	0.253	-0.060
-333.245	-92.809	0.171	-0.048
-332.231	-200.000	-0.009	0.140
-331.216	181.526	0.237	-0.345
-330.202	-200.000	-0.012	0.148
-329.187	510.637	0.058	-0.134
-328.172	-200.000	-0.007	0.259
-327.158	-177.569	0.066	-0.002
-326.143	-124.281	-0.037	-0.006
-325.129	40.929	-0.134	-0.120
-324.114	-7.066	0.132	0.089
-323.099	704.217	-0.104	0.272
-322.085	-93.098	0.277	-0.076
-321.070	250.871	0.112	-0.189
-320.056	53.021	-0.280	0.265
-319.041	800.000	0.069	0.287
-318.026	-34.739	0.249	-0.135
-317.012	-101.027	-0.052	0.013
-315.997	35.952	-0.053	-0.046
-314.983	95.681	-0.073	0.082
-313.968	800.000	0.046	-0.131
-312.953	86.664	0.214	-0.233
-311.939	268.697	0.079	0.136
-310.924	-87.609	-0.323	0.097
-309.910	-55.915	0.090	-0.040
-308.895	201.039	-0.162	0.246
-307.880	-53.609	-0.313	0.141
-306.866	-36.240	0.106	-0.057
-305.851	-3.143	0.158	-0.109
-304.837	-200.000	0.052	-0.305
-303.822	-200.000	-0.006	0.093
-302.807	-187.955	-0.264	-0.003
-301.793	23.608	0.108	0.088
-300.778	35.409	-0.190	0.165
-299.764	512.267	0.103	0.237
-298.749	167.533	-0.017	0.024
-297.735	297.042	-0.141	0.255
-296.720	-200.000	-0.075	0.345
-295.705	397.301	0.107	-0.220
-294.691	800.000	-0.105	0.289
-293.676	-200.000	0.021	0.317
-292.662	-21.690	-0.120	0.072
-291.647	133.725	0.154	-0.197
-290.632	-53.107	0.035	-0.016
-289.618	-161.943	0.111	0.006
-288.603	92.682	0.081	0.090
-287.589	58.117	-0.199	0.192
-286.574	-108.599	-0.188	0.040
-285.559	795.406	-0.030	-0.082
-284.545	-125.909	0.071	-0.011
-283.530	-200.000	-0.331	0.000
-282.516	612.340	-0.063	-0.156
-281.501	-200.000	0.064	0.289
-280.486	-82.650	0.251	0.080
-279.472	800.000	0.053	-0.194
-278.457	-200.000	0.040	-0.204
-277.443	-44.321	0.183	-0.091
-276.428	80.695	-0.121	0.129
-275.413	-76.693	0.442	-0.153
-274.399	-101.261	0.102	0.025
-273.384	-24.715	-0.152	0.089
-272.370	-48.404	0.228	-0.109
-271.355	2.116	0.175	-0.125
-270.340	-102.890	-0.202	-0.048
-269.326	47.421	0.197	0.181
-268.311	141.741	0.141	0.184
-267.297	800.000	0.087	0.286
-266.282	329.951	0.048	-0.091
-265.267	-117.245	-0.231	-0.042
-264.253	-152.348	0.139	-0.010
-263.238	421.290	0.162	0.343
-262.224	-200.000	-0.030	0.344
-261.209	315.574	0.206	0.384
-260.195	-134.837	0.222	-0.027
-259.180	62.145	0.125	-0.123
-258.165	137.066	0.228	-0.294
-257.151	432.673	0.072	0.154
-256.136	-11.499	0.292	0.190
-255.122	-143.787	-0.202	0.019
-254.107	-14.214	0.316	0.201
-253.092	-200.000	-0.006	0.062
-252.078	97.495	0.218	-0.248
-251.063	-162.996	0.375	-0.018
-250.049	1.926	0.208	-0.148
-249.034	-200.000	-0.010	-0.058
-248.019	-64.841	-0.308	0.123
-247.005	-64.705	0.253	0.101
-245.990	-200.000	0.041	-0.257
-244.976	434.703	-0.059	0.127
-243.961	131.679	0.105	-0.134
-242.946	680.424	-0.030	0.078
-241.932	33.626	0.114	0.098
-240.917	800.000	-0.062	-0.196
-239.903	-200.000	0.012	-0.286
-238.888	185.992	0.185	-0.272
-237.873	39.634	-0.125	-0.111
-236.859	-200.000	0.017	-0.211
-235.844	800.000	-0.030	0.112
-234.830	-106.997	-0.278	-0.061
-233.815	141.623	0.017	0.023
-232.800	-143.052	-0.134	0.013
-231.786	-200.000	0.027	0.214
-230.771	137.173	-0.065	0.084
-229.757	-110.207	-0.329	0.068
-228.742	-200.000	-0.027	-0.306
-227.727	-200.000	0.002	-0.350
-226.713	800.000	-0.065	0.204
-225.698	368.599	0.066	0.131
-224.684	23.025	0.123	-0.099
-223.669	-129.571	0.268	0.037
-222.655	-89.653	-0.168	-0.049
-221.640	-130.333	0.210	0.028
-220.625	-27.652	-0.279	-0.160
-219.611	192.087	-0.082	0.123
-218.596	-190.851	-0.281	-0.003
-217.582	-49.180	0.199	-0.094
-216.567	-95.853	0.096	-0.025
-215.552	213.916	0.087	-0.135
-214.538	-160.130	-0.134	0.007
-213.523	189.679	0.095	-0.140
-212.509	-200.000	-0.013	-0.087
-211.494	-100.217	-0.409	0.100
-210.479	-200.000	0.058	0.249
-209.465	119.111	-0.115	0.140
-208.450	-200.000	0.012	0.133
-207.436	-200.000	0.017	0.259
-206.421	800.000	0.093	0.370
-205.406	-200.000	-0.032	0.146
-204.392	-113.278	0.113	-0.022
-203.377	-106.409	-0.263	-0.058
-202.363	409.224	0.104	0.218
-201.348	68.203	-0.167	0.168
-200.333	-122.695	-0.046	0.007
-199.319	-49.485	-0.253	-0.119
-198.304	639.115	0.085	0.214
-197.290	-22.758	-0.142	0.084
-196.275	800.000	0.024	-0.105
-195.260	-200.000	0.014	0.145
-194.246	-44.907	0.143	0.070
-193.231	36.980	-0.164	-0.143
-192.217	-35.625	0.301	0.161
-191.202	-200.000	-0.067	0.314
-190.187	110.811	-0.100	0.119
-189.173	-101.847	0.084	0.020
-188.158	422.233	0.115	-0.243
-187.144	800.000	-0.032	-0.092
-186.129	473.501	-0.122	-0.270
-185.114	291.474	-0.046	0.082
-184.100	-47.563	0.472	-0.226
-183.085	-200.000	-0.013	0.170
-182.071	-10.480	-0.182	0.118
-181.056	-125.329	0.303	0.046
-180.042	-162.508	0.228	-0.011
-179.027	-52.323	0.224	-0.102
-178.012	362.014	0.156	0.307
-176.998	147.512	-0.171	0.227
-175.983	12.212	-0.370	0.280
-174.969	-35.620	0.201	-0.108
-173.954	-8.169	0.209	-0.138
-172.939	20.674	-0.174	0.138
-171.925	22.215	0.230	-0.185
-170.910	-33.719	0.064	0.035
-169.896	800.000	-0.035	-0.136
-168.881	28.272	-0.113	0.094
-167.866	800.000	0.023	-0.072
-166.852	-52.621	0.073	-0.033
-165.837	-22.033	-0.408	0.244
-164.823	-3.711	0.058	-0.040
-163.808	-10.784	-0.299	0.194
-162.793	-61.717	-0.262	-0.108
-161.779	-200.000	-0.031	-0.241
-160.764	-15.346	-0.302	0.190
-159.750	128.630	0.086	0.108
-158.735	-126.229	-0.216	-0.032
-157.720	-74.206	0.099	-0.035
-156.706	-100.237	-0.011	-0.003
-155.691	-44.734	0.187	-0.092
-154.677	-43.560	0.286	-0.142
-153.662	-200.000	-0.024	-0.184
-152.647	-200.000	0.001	0.336
-151.633	-118.921	-0.179	-0.031
-150.618	-144.896	0.123	-0.011
-149.604	-113.098	0.274	-0.053
-148.589	800.000	-0.083	-0.271
-147.574	31.086	-0.156	0.132
-146.560	-16.904	-0.102	-0.063
-145.545	-50.467	0.096	0.045
-144.531	-120.477	0.104	-0.017
-143.516	-33.472	-0.125	-0.068
-142.502	393.360	-0.060	0.122
-141.487	-48.352	0.229	0.108
-140.472	-110.364	-0.333	-0.068
-139.458	552.201	-0.038	-0.089
-138.443	-147.611	0.320	0.026
-137.429	-10.653	0.133	0.086
-136.414	-60.583	0.115	-0.048
-135.399	-50.588	-0.102	-0.047
-134.385	385.708	0.062	0.126
-133.370	714.756	-0.056	-0.147
-132.356	-171.558	-0.195	-0.006
-131.341	101.081	-0.096	0.109
-130.326	-200.000	-0.016	-0.317
-129.312	-11.252	0.235	-0.152
-128.297	553.303	0.087	-0.206
-127.283	548.258	-0.106	0.250
-126.268	24.139	0.093	0.075
-125.253	-81.519	0.196	0.063
-124.239	-200.000	-0.010	0.156
-123.224	-79.735	0.209	-0.069
-122.210	698.345	0.111	0.287
-121.195	-12.498	0.209	0.134
-120.180	45.771	-0.154	-0.140
-119.166	-200.000	0.021	-0.341
-118.151	800.000	-0.033	0.133
-117.137	-200.000	0.007	-0.247
-116.122	-129.065	-0.257	0.035
-115.107	-200.000	0.049	-0.378
-114.093	252.361	0.192	0.321
-113.078	800.000	0.086	0.316
-112.064	-200.000	-0.083	0.588
-111.049	175.180	-0.049	-0.070
-110.034	211.695	-0.027	0.042
-109.020	331.541	0.118	-0.224
-108.005	386.818	0.100	-0.204
-106.991	-153.921	0.455	0.030
-105.976	-135.528	-0.303	0.035
-104.962	2.290	0.181	0.129
-103.947	-29.604	0.207	0.116
-102.932	-23.088	-0.270	0.159
-101.918	-71.887	-0.146	0.053
-100.903	223.862	-0.190	0.302
-99.889	-116.117	0.365	-0.067
-98.874	-157.424	0.344	-0.020
-97.859	-200.000	-0.041	-0.268
-96.845	800.000	0.016	-0.054
-95.830	58.301	-0.156	0.150
-94.816	-22.417	-0.028	0.017
-93.801	800.000	0.029	-0.078
-92.786	69.158	-0.186	0.187
-91.772	-200.000	0.033	-0.226
-90.757	188.906	-0.063	0.093
-89.743	67.401	-0.042	0.042
-88.728	-134.328	0.201	-0.024
-87.713	-94.453	0.268	0.072
-86.699	800.000	-0.036	0.138
-85.684	99.559	-0.088	0.100
-84.670	142.482	-0.205	-0.267
-83.655	-200.000	0.033	0.162
-82.640	-200.000	0.021	-0.327
-81.626	389.725	-0.032	-0.065
-80.611	132.141	0.185	0.234
-79.597	756.055	-0.081	-0.215
-78.582	-59.158	0.211	0.089
-77.567	151.780	0.181	0.242
-76.553	-60.835	-0.213	-0.088
-75.538	63.266	-0.308	-0.303
-74.524	-118.206	0.145	-0.025
-73.509	-200.000	0.022	0.250
-72.494	396.474	0.032	0.065
-71.480	-200.000	0.015	-0.229
-70.465	-95.902	0.417	-0.109
-69.451	800.000	0.038	-0.150
-68.436	23.388	0.105	0.085
-67.422	800.000	0.116	-0.318
-66.407	-122.768	-0.257	-0.041
-65.392	-69.173	-0.217	-0.082
-64.378	-167.754	0.279	-0.011
-63.363	-200.000	0.013	0.313
-62.349	187.756	-0.147	0.215
-61.334	40.939	-0.969	-0.858
-60.319	-0.418	0.390	0.271
-59.305	800.000	-0.366	-1.131
-58.290	261.208	0.517	0.877
-57.276	160.052	0.839	1.146
-56.261	-200.000	106.560	615.585
-55.246	506.787	1510.564	3433.051
-54.232	176.340	2701.444	3845.798
-53.217	111.652	2165.088	2560.069
-52.203	41.459	1599.582	1418.444
-51.188	33.000	1334.389	1132.776
-50.173	29.813	1292.671	1078.769
-49.159	54.471	1347.398	1271.908
-48.144	54.723	1362.789	1287.886
-47.130	32.984	1317.679	1118.319
-46.115	29.571	1299.502	1082.880
-45.100	29.378	1294.716	1077.720
-44.086	29.288	1292.100	1074.974
-43.071	29.337	1289.960	1073.436
-42.057	29.167	1287.983	1070.759
-41.042	29.215	1285.901	1069.266
-40.027	29.201	1284.728	1068.169
-39.013	29.309	1282.774	1067.126
-37.998	29.375	1280.581	1065.638
-36.984	29.388	1278.938	1064.306
-35.969	29.425	1277.191	1063.021
-34.954	29.315	1275.432	1060.885
-33.940	29.449	1274.059	1060.468
-32.925	29.436	1272.901	1059.388
-31.911	29.485	1271.302	1058.297
-30.896	29.541	1269.585	1057.145
-29.881	29.599	1268.595	1056.610
-28.867	29.614	1266.911	1055.251
-27.852	29.587	1265.165	1053.602
-26.838	29.507	1264.377	1052.448
-25.823	29.488	1263.311	1051.413
-24.809	29.400	1261.651	1049.487
-23.794	29.531	1260.487	1049.225
-22.779	29.519	1259.043	1047.912
-21.765	29.482	1257.702	1046.544
-20.750	29.489	1256.353	1045.421
-19.736	29.306	1255.552	1043.676
-18.721	29.369	1253.685	1042.440
-17.706	29.430	1253.001	1042.175
-16.692	29.481	1251.390	1041.076
-15.677	29.344	1250.760	1039.740
-14.663	29.287	1249.970	1038.719
-13.648	29.396	1248.388	1037.980
-12.633	29.185	1248.022	1036.444
-11.619	29.262	1247.342	1036.275
-10.604	29.349	1245.996	1035.601
-9.590	29.304	1244.998	1034.482
-8.575	29.313	1244.248	1033.868
-7.560	29.353	1243.238	1033.211
-6.546	29.329	1242.581	1032.490
-5.531	29.392	1241.644	1032.024
-4.517	29.298	1240.812	1030.765
-3.502	29.319	1240.109	1030.254
-2.487	29.357	1238.981	1029.489
-1.473	29.338	1234.572	1025.681
-0.458	27.953	1220.157	1006.043
0.556	22.224	1203.444	969.488
1.571	18.743	1208.781	954.385
2.586	18.051	1223.236	961.819
3.600	17.960	1213.154	953.302
4.615	13.647	1142.699	875.134
5.629	4.638	1068.426	773.533
6.644	0.111	1047.890	736.475
7.659	-0.300	1045.176	732.502
8.673	-0.386	1043.913	731.131
9.688	-0.314	1042.944	730.737
10.702	0.150	1041.149	731.670
11.717	6.137	1049.606	766.821
12.731	14.983	1062.504	819.691
13.746	19.828	1067.857	847.546
14.761	20.766	1069.184	853.122
15.775	20.847	1068.711	853.065
16.790	20.522	1068.323	851.088
17.804	20.555	1067.596	850.594
18.819	20.693	1066.903	850.644
19.834	20.803	1066.325	850.646
20.848	20.870	1066.070	850.695
21.863	20.788	1065.896	850.078
22.877	20.641	1064.925	848.514
23.892	20.624	1063.981	847.601
24.907	20.542	1063.869	847.039
25.921	20.660	1062.356	846.333
26.936	20.620	1061.457	845.346
27.950	20.589	1059.332	843.431
28.965	20.426	1057.852	841.386
29.980	20.486	1055.867	840.022
30.994	20.816	1054.725	840.637
32.009	20.807	1053.650	839.658
33.023	20.533	1052.364	837.240
34.038	20.637	1051.591	837.053
35.053	20.664	1051.370	836.932
36.067	20.754	1050.198	836.360
37.082	20.820	1049.784	836.271
38.096	20.866	1048.816	835.648
39.111	21.078	1047.873	835.839
40.126	20.881	1046.510	833.732
41.140	20.441	1044.760	830.161
42.155	20.340	1043.557	828.652
43.169	20.328	1042.516	827.694
44.184	20.389	1041.531	827.129
45.199	20.216	1040.821	825.670
46.213	20.347	1039.829	825.430
47.228	20.444	1039.289	825.389
48.242	20.548	1038.286	825.018
49.257	20.811	1036.943	825.121
50.271	20.717	1036.316	824.103
51.286	20.754	1035.687	823.709
52.301	20.829	1034.608	823.129
53.315	20.697	1033.659	821.680
54.330	20.675	1032.623	820.678
55.344	20.699	1032.054	820.269
56.359	20.589	1031.265	819.051
57.374	20.522	1030.149	817.776
58.388	20.561	1028.856	816.859
59.403	20.453	1028.131	815.708
60.417	20.389	1027.312	814.685
61.432	20.401	1026.706	814.189
62.447	20.618	1025.985	814.559
63.461	20.677	1025.135	814.088
64.476	20.587	1023.659	812.424
65.490	20.512	1022.961	811.446
66.505	20.462	1022.758	810.984
67.520	20.552	1021.713	810.501
68.534	20.285	1020.832	808.486
69.549	20.003	1019.547	806.083
70.563	20.105	1018.392	805.574
71.578	19.886	1018.121	804.270
72.593	19.922	1017.210	803.649
73.607	19.956	1016.761	803.378
74.622	20.284	1016.570	804.678
75.636	20.513	1014.975	804.405
76.651	20.371	1014.266	803.117
77.666	20.146	1013.716	801.567
78.680	20.183	1013.375	801.398
79.695	20.359	1012.102	801.134
80.709	20.293	1011.827	800.542
81.724	20.327	1011.021	799.988
82.739	20.488	1009.895	799.769
83.753	20.844	1009.724	801.202
84.768	21.058	1008.952	801.499
85.782	20.983	1008.026	800.351
86.797	20.968	1006.818	799.251
87.812	20.793	1005.801	797.569
88.826	20.858	1005.118	797.254
89.841	20.979	1004.047	796.891
90.855	21.016	1002.664	795.893
91.870	20.885	1002.258	794.898
92.884	20.787	1000.952	793.350
93.899	20.804	1000.004	792.602
94.914	20.925	998.887	792.196
95.928	20.860	997.735	790.919
96.943	20.481	997.014	788.557
97.957	20.367	995.494	786.769
98.972	20.072	995.039	785.005
99.987	20.477	993.757	785.754
101.001	20.783	992.521	786.088
102.016	20.540	992.768	785.117
103.030	20.538	991.425	783.978
104.045	20.388	990.586	782.567
105.060	20.375	989.400	781.506
106.074	20.445	988.741	781.231
107.089	20.761	988.442	782.343
108.103	20.619	987.495	780.889
109.118	20.550	985.665	779.065
110.133	20.613	984.913	778.682
111.147	20.341	983.374	776.179
112.162	20.283	982.403	775.087
113.176	20.318	982.254	775.058
114.191	20.306	981.269	774.155
115.206	19.858	980.125	771.188
116.220	19.969	979.391	771.037
117.235	20.219	978.394	771.297
118.249	20.228	977.659	770.689
119.264	20.045	976.869	769.185
120.279	20.066	975.977	768.510
121.293	20.287	975.079	768.711
122.308	20.256	974.604	768.134
123.322	20.191	973.250	766.712
124.337	20.062	971.899	765.008
125.352	19.471	970.208	761.003
126.366	19.602	969.063	760.615
127.381	20.314	969.083	763.698
128.395	20.616	968.298	764.341
129.410	20.836	967.568	764.662
130.424	20.654	966.417	762.888
131.439	20.746	965.645	762.615
132.454	20.526	965.067	761.125
133.468	20.631	963.715	760.453
134.483	20.684	963.247	760.247
135.497	20.839	962.644	760.382
136.512	20.927	961.380	759.696
137.527	20.869	960.589	758.754
138.541	20.858	959.988	758.164
139.556	20.999	959.082	757.993
140.570	21.050	958.034	757.318
141.585	20.927	957.038	755.931
142.600	20.804	956.099	754.591
143.614	21.094	955.641	755.416
144.629	21.165	954.689	754.907
145.643	20.922	953.210	752.618
146.658	20.904	952.194	751.674
147.673	20.755	950.987	750.010
148.687	20.768	950.247	749.420
149.702	20.724	948.920	748.118
150.716	20.852	947.729	747.661
151.731	20.799	947.789	747.416
152.746	20.964	947.207	747.597
153.760	21.194	946.320	747.814
154.775	21.181	945.750	747.245
155.789	21.036	944.916	745.899
156.804	21.058	943.470	744.783
157.819	21.148	943.158	744.859
158.833	21.226	942.121	744.306
159.848	21.097	941.579	743.260
160.862	21.001	940.070	741.598
161.877	21.119	939.259	741.390
162.892	21.069	938.610	740.601
163.906	21.095	937.254	739.574
164.921	21.058	936.304	738.603
165.935	21.079	935.252	737.797
166.950	21.050	934.711	737.184
167.964	21.077	933.792	736.505
168.979	20.993	932.372	734.968
169.994	20.907	931.578	733.916
171.008	21.129	931.376	734.626
172.023	21.123	930.423	733.784
173.037	20.738	929.666	731.505
174.052	20.778	928.387	730.602
175.067	20.884	927.642	730.394
176.081	20.863	927.721	730.305
177.096	20.941	926.775	729.820
178.110	20.570	925.643	727.313
179.125	20.418	924.872	726.008
180.140	20.420	924.512	725.668
181.154	20.501	924.303	725.780
182.169	20.892	924.028	727.133
183.183	21.037	923.581	727.319
184.198	21.047	922.278	726.271
185.213	20.953	921.678	725.342
186.227	20.957	921.022	724.781
187.242	21.043	920.187	724.416
188.256	21.145	919.257	724.042
189.271	21.117	919.093	723.732
190.286	20.785	918.020	721.450
191.300	20.261	916.641	718.134
192.315	19.582	915.363	714.262
193.329	19.618	914.377	713.576
194.344	20.474	914.832	717.403
195.359	20.847	914.844	718.889
196.373	20.971	914.342	718.945
197.388	20.903	913.457	717.905
198.402	20.843	912.886	717.146
199.417	20.869	912.289	716.718
200.432	20.475	911.687	714.563
201.446	20.553	910.821	714.142
202.461	20.569	909.942	713.456
203.475	19.585	908.006	707.844
204.490	18.908	906.868	704.123
205.504	19.905	907.283	708.465
206.519	20.444	907.152	710.505
207.534	20.576	906.487	710.459
208.548	21.053	906.080	712.027
209.563	20.650	905.981	710.240
210.577	20.872	904.925	710.254
211.592	21.090	904.190	710.501
212.607	21.095	903.469	709.892
213.621	21.166	903.038	709.781
214.636	21.019	902.608	708.784
215.650	21.093	901.732	708.334
216.665	21.199	901.073	708.180
217.680	21.250	900.064	707.535
218.694	20.825	898.722	704.696
219.709	20.568	898.237	703.215
220.723	20.821	898.116	704.080
221.738	21.004	897.167	704.013
222.753	20.944	896.493	703.178
223.767	20.994	896.009	702.940
224.782	21.182	896.106	703.713
225.796	21.066	895.333	702.574
226.811	20.325	893.870	698.384
227.826	19.815	892.823	695.455
228.840	20.194	892.319	696.523
229.855	20.176	891.361	695.643
230.869	19.846	890.188	693.342
231.884	20.329	890.343	695.335
232.899	20.985	890.619	698.119
233.913	20.878	889.817	697.001
234.928	20.906	889.218	696.581
235.942	20.846	888.078	695.387
236.957	20.533	887.757	693.823
237.972	20.433	887.385	693.076
238.986	20.783	886.345	693.595
240.001	20.713	885.741	692.783
241.015	20.812	885.219	692.705
242.030	20.886	884.745	692.567
243.045	20.938	884.592	692.593
244.059	21.147	883.968	692.874
245.074	20.845	883.204	691.016
246.088	20.551	882.108	688.931
247.103	20.828	881.726	689.669
248.117	21.379	881.751	691.808
249.132	21.583	881.468	692.333
250.147	21.644	880.565	691.805
251.161	21.930	879.863	692.319
252.176	21.624	879.244	690.566
253.190	21.731	879.080	690.797
254.205	21.829	878.569	690.719
255.220	21.855	877.839	690.187
256.234	21.770	877.035	689.160
257.249	21.728	875.811	687.971
258.263	21.738	875.257	687.517
259.278	22.010	874.107	687.615
260.293	21.919	874.069	687.168
261.307	21.799	873.341	686.067
262.322	21.565	872.435	684.380
263.336	20.787	870.294	679.604
264.351	19.711	868.594	674.022
265.366	19.771	868.459	674.092
266.380	20.995	868.973	679.204
267.395	21.596	868.389	681.024
268.409	21.447	867.927	680.024
269.424	21.547	867.436	679.967
270.439	21.751	866.627	680.062
271.453	21.762	866.647	680.063
272.468	21.889	866.146	680.100
273.482	21.886	865.688	679.670
274.497	21.472	864.199	676.838
275.512	21.207	863.527	675.226
276.526	21.542	863.550	676.483
277.541	21.754	863.146	676.923
278.555	21.435	862.169	674.866
279.570	21.374	861.344	673.927
280.585	21.329	861.011	673.433
281.599	21.451	859.907	672.979
282.614	20.885	858.763	669.849
283.628	20.790	858.373	669.121
284.643	21.238	858.228	670.668
285.657	21.016	856.115	668.108
286.672	20.609	856.036	666.430
287.687	21.190	856.365	668.853
288.701	21.175	855.437	668.009
289.716	21.024	854.248	666.446
290.730	20.764	853.959	665.166
291.745	20.553	852.858	663.447
292.760	20.804	853.019	664.472
293.774	21.779	853.341	668.383
294.789	21.992	852.971	668.846
295.803	22.274	852.409	669.418
296.818	22.231	851.594	668.556
297.833	21.688	850.794	665.807
298.847	21.572	849.797	664.526
299.862	21.885	849.886	665.724
300.876	22.079	849.225	665.882
301.891	22.079	848.369	665.153
302.906	21.651	847.208	662.564
303.920	21.927	846.944	663.344
304.935	22.030	846.984	663.708
305.949	22.064	846.074	663.062
306.964	21.802	845.664	661.692
307.979	22.042	844.988	662.012
308.993	22.358	844.725	662.939
310.008	22.337	843.963	662.201
311.022	21.946	843.472	660.287
312.037	21.867	842.732	659.353
313.052	21.623	841.809	657.655
314.066	20.851	840.245	653.481
315.081	20.551	839.668	651.849
316.095	21.235	840.298	654.847
317.110	21.693	839.792	656.110
318.125	20.964	838.131	652.030
319.139	19.935	836.798	647.088
320.154	20.007	836.665	647.197
321.168	20.881	837.095	650.740
322.183	21.453	837.119	652.835
323.197	21.661	836.997	653.460
324.212	21.874	836.181	653.559
325.227	22.044	835.453	653.566
326.241	21.845	834.683	652.162
327.256	21.781	834.108	651.419
328.270	21.691	833.750	650.748
329.285	21.423	832.776	648.937
330.300	21.353	831.934	647.961
331.314	21.576	831.753	648.589
332.329	21.839	831.452	649.273
333.343	22.008	831.264	649.693
334.358	21.920	830.668	648.844
335.373	21.942	830.840	649.003
336.387	22.350	830.496	650.183
337.402	22.344	830.109	649.801
338.416	22.485	829.417	649.722
339.431	22.415	829.644	649.584
340.446	22.678	828.746	649.792
341.460	22.449	828.499	648.699
342.475	22.283	827.738	647.435
343.489	22.407	827.677	647.785
344.504	22.572	827.596	648.271
345.519	22.690	827.432	648.520
346.533	22.776	826.493	648.044
347.548	22.735	826.207	647.611
348.562	22.830	825.864	647.633
349.577	22.640	825.279	646.421
350.592	22.678	824.130	645.604
351.606	22.634	823.530	644.914
352.621	22.332	823.128	643.440
353.635	22.469	822.096	643.075
354.650	21.983	820.123	639.703
355.665	20.909	819.175	634.997
356.679	21.399	818.834	636.462
357.694	21.764	818.687	637.618
358.708	21.644	817.968	636.566
359.723	22.060	817.946	638.003
360.738	22.402	817.336	638.711
361.752	22.473	817.012	638.661
362.767	22.762	816.840	639.517
363.781	23.034	816.452	640.139
364.796	23.028	816.107	639.792
365.810	23.039	815.872	639.592
366.825	23.025	815.158	638.923
367.840	22.815	814.333	637.465
368.854	22.406	813.134	634.995
369.869	22.307	812.962	634.444
370.883	22.559	812.548	634.974
371.898	22.290	812.378	633.817
372.913	22.458	811.816	633.925
373.927	22.491	811.593	633.813
374.942	22.747	810.922	634.156
375.956	22.841	810.540	634.139
376.971	22.776	810.853	634.093
377.986	22.901	810.288	634.045
379.000	23.006	809.007	633.360
380.015	22.760	808.736	632.211
381.029	22.937	807.930	632.160
382.044	23.191	807.554	632.717
383.059	23.252	806.936	632.396
384.073	23.130	806.306	631.411
385.088	23.020	806.099	630.800
386.102	22.907	805.114	629.571
387.117	22.922	804.522	629.106
388.132	22.531	803.525	626.878
389.146	22.055	802.701	624.490
390.161	22.414	802.983	625.928
391.175	22.771	802.441	626.721
392.190	22.450	801.310	624.644
393.205	21.181	799.388	618.597
394.219	19.856	797.579	612.456
395.234	19.695	797.539	611.800
396.248	21.159	799.232	618.232
397.263	22.815	799.915	624.571
398.278	22.420	799.673	622.930
399.292	22.369	798.577	621.839
400.307	22.445	798.003	621.605
401.321	22.461	797.833	621.475
402.336	22.901	797.326	622.576
403.350	23.278	797.486	623.976
404.365	23.502	797.373	624.621
405.380	23.813	797.235	625.552
406.394	23.951	796.345	625.285
407.409	23.645	796.069	623.935
408.423	23.620	795.694	623.499
409.438	23.736	795.198	623.463
410.453	23.699	795.063	623.173
411.467	23.690	794.503	622.647
412.482	23.630	794.070	622.041
413.496	23.875	793.474	622.378
414.511	23.840	793.396	622.138
415.526	23.766	792.529	621.146
416.540	23.639	792.038	620.263
417.555	23.511	791.226	619.123
418.569	23.307	791.014	618.190
419.584	23.478	790.626	618.428
420.599	23.253	789.975	617.082
421.613	157.982	1365.384	1799.514
422.628	136.808	1449.223	1799.616
