DTS Sentinel unit serial number:	SN413079Multiplexer serial number:	ORYXHardware model number:	OX4-SRSoftware version number:	ORYX F/W v4.00 Oryx Data Collector v3.7.2.0data status	okinstallation	princeton_trtdifferential loss correction	single-endedforward channel	channel 1reverse channel	N/Adate	2019/09/19time	09:26:35forward acquisition time	60.00reverse acquisition time	0.00gamma	496.2192k internal	0.2342k external	0.2342temperature offset calibration	0.9999default loss term (dB/km)	0.3790temperature slope calibration	1.0000multiplexer offset coefficient	1.0000multiplexer slope coefficient	1.0000fibre end	0.00T internal ref (°C)	22.64T ext. ref 1 (°C)	0.62T ext. ref 2 (°C)	19.38length (m)	temperature (°C)	Stokes	anti-Stokes-747.200	-200.000	-0.004	0.290
-746.185	-121.225	0.251	0.042
-745.171	227.143	0.169	0.275
-744.156	31.617	-0.166	0.143
-743.142	738.835	0.045	-0.122
-742.127	29.853	-0.091	0.077
-741.112	-53.346	0.338	0.155
-740.098	732.061	-0.085	-0.228
-739.083	111.636	0.125	0.151
-738.069	-180.906	-0.187	0.004
-737.054	280.250	0.173	-0.309
-736.039	-94.752	-0.275	-0.075
-735.025	-146.140	0.163	-0.014
-734.010	-10.831	-0.213	-0.141
-732.996	1.848	-0.171	-0.123
-731.981	-70.132	0.279	0.106
-730.966	207.417	0.131	-0.204
-729.952	3.228	-0.468	0.341
-728.937	183.205	-0.059	0.087
-727.923	-154.530	-0.161	-0.011
-726.908	-22.337	0.096	-0.058
-725.894	-99.902	-0.108	-0.027
-724.879	-95.650	-0.203	-0.054
-723.864	-200.000	-0.073	0.456
-722.850	800.000	-0.094	-0.315
-721.835	-200.000	0.013	-0.128
-720.821	217.161	-0.242	-0.386
-719.806	-200.000	0.051	0.263
-718.791	800.000	0.029	-0.091
-717.777	-32.371	0.109	-0.061
-716.762	365.003	0.122	0.247
-715.748	-21.441	0.204	-0.125
-714.733	-136.354	-0.246	0.029
-713.718	-39.623	0.287	0.150
-712.704	800.000	-0.038	-0.108
-711.689	-200.000	0.007	-0.249
-710.675	-58.804	0.292	0.126
-709.660	29.863	-0.120	0.102
-708.645	-91.735	0.355	0.101
-707.631	-132.511	0.098	-0.013
-706.616	284.515	-0.046	-0.082
-705.602	-200.000	0.054	-0.246
-704.587	-77.604	0.309	-0.107
-703.572	-52.428	-0.333	0.154
-702.558	54.083	-0.073	-0.071
-701.543	-43.296	-0.100	0.051
-700.529	-87.785	0.356	0.107
-699.514	-12.001	0.154	0.101
-698.499	123.222	-0.112	-0.141
-697.485	274.143	0.037	-0.066
-696.470	-23.341	-0.308	0.185
-695.456	105.888	-0.078	-0.092
-694.441	55.536	-0.203	0.197
-693.426	800.000	-0.102	0.292
-692.412	-124.293	-0.196	-0.031
-691.397	45.453	-0.243	-0.224
-690.383	-200.000	0.038	-0.197
-689.368	-200.000	-0.033	0.249
-688.354	800.000	0.039	0.168
-687.339	624.936	0.022	-0.055
-686.324	226.065	-0.024	-0.040
-685.310	-200.000	-0.028	0.127
-684.295	12.605	-0.032	-0.025
-683.281	-105.421	0.181	-0.041
-682.266	800.000	-0.052	0.173
-681.251	17.915	-0.245	0.195
-680.237	-200.000	0.019	0.192
-679.222	390.602	-0.085	0.176
-678.208	27.278	-0.099	0.083
-677.193	-120.598	0.342	0.058
-676.178	718.765	0.093	-0.246
-675.164	-24.010	-0.167	-0.100
-674.149	-145.139	0.276	-0.025
-673.135	-200.000	-0.038	-0.391
-672.120	157.324	-0.010	-0.014
-671.105	143.742	0.126	-0.167
-670.091	-200.000	0.019	-0.115
-669.076	800.000	-0.023	0.074
-668.062	-17.059	0.356	0.224
-667.047	-200.000	0.004	0.018
-666.032	163.778	-0.125	0.176
-665.018	471.167	0.085	0.191
-664.003	279.238	0.188	0.335
-662.989	204.943	-0.294	0.455
-661.974	800.000	0.058	-0.241
-660.959	159.079	0.002	-0.002
-659.945	81.579	0.162	0.176
-658.930	-200.000	0.004	-0.330
-657.916	314.092	0.054	0.101
-656.901	515.471	-0.060	-0.139
-655.886	202.906	0.214	0.331
-654.872	-38.322	0.266	-0.141
-653.857	-200.000	-0.033	0.196
-652.843	707.828	0.079	0.209
-651.828	-122.636	-0.010	0.002
-650.814	74.968	0.035	0.037
-649.799	800.000	0.053	0.155
-648.784	-200.000	-0.051	0.309
-647.770	-21.156	0.196	0.119
-646.755	198.061	-0.115	-0.176
-645.741	-26.720	0.126	0.073
-644.726	137.128	0.136	0.177
-643.711	-162.616	-0.366	0.018
-642.697	800.000	-0.043	0.145
-641.682	214.190	-0.088	-0.139
-640.668	42.446	0.176	-0.160
-639.653	95.362	-0.405	-0.460
-638.638	800.000	-0.110	-0.342
-637.624	282.036	-0.165	0.295
-636.609	-95.908	0.373	-0.099
-635.595	-200.000	0.078	-0.460
-634.580	-200.000	-0.029	-0.551
-633.565	188.278	0.243	0.362
-632.551	800.000	0.139	-0.415
-631.536	-192.873	0.261	-0.002
-630.522	0.556	-0.198	-0.141
-629.507	-200.000	0.009	0.494
-628.492	-200.000	-0.004	-0.277
-627.478	405.083	-0.069	-0.145
-626.463	800.000	-0.058	0.240
-625.449	517.156	0.046	0.108
-624.434	800.000	-0.054	-0.153
-623.419	60.081	-0.090	-0.089
-622.405	800.000	0.030	0.084
-621.390	-200.000	0.016	-0.250
-620.376	-64.317	-0.087	-0.035
-619.361	89.950	-0.046	-0.051
-618.346	474.231	0.121	-0.273
-617.332	190.882	0.085	0.127
-616.317	123.786	-0.110	0.137
-615.303	44.989	-0.139	-0.128
-614.288	115.846	0.068	0.083
-613.273	41.716	0.165	-0.149
-612.259	800.000	0.070	-0.284
-611.244	-200.000	-0.009	0.155
-610.230	74.607	0.068	0.072
-609.215	-119.255	-0.285	0.049
-608.201	-165.629	-0.050	0.002
-607.186	-170.135	-0.311	0.011
-606.171	-46.080	0.060	0.030
-605.157	-27.505	-0.119	0.069
-604.142	-61.457	-0.293	-0.123
-603.128	-21.947	0.013	0.008
-602.113	610.611	0.059	-0.146
-601.098	-95.729	0.215	-0.057
-600.084	162.198	-0.304	-0.424
-599.069	-146.404	0.234	0.020
-598.055	-155.963	0.184	0.012
-597.040	304.739	-0.122	0.226
-596.025	184.006	0.131	0.194
-595.011	-200.000	-0.061	0.362
-593.996	-200.000	0.059	0.372
-592.982	-40.716	0.406	0.209
-591.967	123.614	0.115	-0.144
-590.952	-114.226	-0.245	0.047
-589.938	-3.937	-0.188	0.130
-588.923	-200.000	0.005	-0.274
-587.909	-200.000	-0.009	-0.106
-586.894	-84.887	-0.057	-0.018
-585.879	-38.863	-0.088	-0.046
-584.865	-130.771	-0.224	0.030
-583.850	26.255	0.141	0.117
-582.836	-200.000	-0.005	-0.104
-581.821	800.000	0.015	0.063
-580.806	180.084	0.073	0.106
-579.792	-200.000	-0.012	0.074
-578.777	43.268	-0.182	0.165
-577.763	-104.230	0.153	-0.035
-576.748	60.259	-0.207	0.204
-575.733	-62.734	0.425	0.175
-574.719	93.209	0.075	-0.085
-573.704	122.147	-0.057	0.071
-572.690	-130.461	0.057	-0.008
-571.675	-83.814	0.054	-0.017
-570.661	-200.000	0.022	0.101
-569.646	-140.409	0.388	0.040
-568.631	108.239	-0.155	-0.184
-567.617	-98.561	0.224	-0.057
-566.602	800.000	-0.070	-0.204
-565.588	-200.000	-0.005	0.286
-564.573	202.347	0.151	-0.232
-563.558	-18.722	0.359	0.223
-562.544	-0.454	-0.077	0.055
-561.529	-49.376	-0.095	-0.045
-560.515	-67.396	0.133	0.052
-559.500	-134.947	0.204	-0.025
-558.485	153.699	0.079	0.108
-557.471	-84.280	-0.178	-0.056
-556.456	-189.577	0.105	0.001
-555.442	77.214	0.255	0.270
-554.427	-200.000	0.013	0.278
-553.412	-162.448	-0.255	-0.013
-552.398	-155.324	0.294	0.019
-551.383	800.000	-0.032	-0.112
-550.369	800.000	-0.083	0.316
-549.354	276.986	0.094	-0.166
-548.339	86.146	-0.009	0.009
-547.325	175.839	-0.132	0.191
-546.310	50.399	0.247	0.232
-545.296	607.522	-0.054	-0.133
-544.281	795.703	-0.063	-0.174
-543.266	-200.000	-0.021	0.235
-542.252	-200.000	0.048	-0.240
-541.237	-47.299	0.125	-0.061
-540.223	275.377	0.060	0.105
-539.208	103.805	-0.060	0.070
-538.193	-200.000	0.004	0.062
-537.179	-200.000	-0.016	0.127
-536.164	-200.000	0.016	0.263
-535.150	-200.000	0.229	0.000
-534.135	4.523	-0.192	-0.140
-533.121	800.000	0.053	-0.149
-532.106	-103.602	-0.137	-0.032
-531.091	-21.062	-0.223	-0.135
-530.077	133.407	0.193	-0.248
-529.062	408.889	-0.062	-0.130
-528.048	-54.527	0.164	0.074
-527.033	-200.000	0.019	0.206
-526.018	800.000	0.141	0.425
-525.004	71.094	-0.064	-0.066
-523.989	-122.018	-0.167	-0.027
-522.975	117.964	-0.158	-0.193
-521.960	14.000	-0.264	-0.204
-520.945	14.420	0.113	0.088
-519.931	75.284	0.218	0.229
-518.916	289.175	-0.115	-0.208
-517.902	51.024	-0.314	-0.296
-516.887	-200.000	0.004	-0.226
-515.872	-155.350	0.133	-0.009
-514.858	102.701	-0.302	-0.351
-513.843	443.563	0.173	0.377
-512.829	415.268	-0.028	0.059
-511.814	800.000	0.033	-0.098
-510.799	-79.293	-0.139	0.047
-509.785	118.248	0.116	0.142
-508.770	-12.584	-0.236	0.153
-507.756	-111.314	-0.121	0.025
-506.741	-140.837	-0.072	-0.007
-505.726	-60.121	-0.211	0.089
-504.712	70.249	-0.146	-0.150
-503.697	-67.758	-0.336	-0.130
-502.683	-48.297	0.105	0.050
-501.668	257.516	-0.091	-0.156
-500.653	-200.000	0.000	0.079
-499.639	800.000	0.072	0.258
-498.624	167.564	-0.037	0.052
-497.610	208.946	0.050	-0.077
-496.595	60.610	-0.046	-0.045
-495.581	475.434	0.127	-0.285
-494.566	226.928	-0.134	-0.216
-493.551	-200.000	-0.044	-0.369
-492.537	-173.425	0.180	0.005
-491.522	89.192	0.215	-0.238
-490.508	-9.939	-0.279	-0.184
-489.493	-200.000	-0.016	-0.079
-488.478	-200.000	-0.042	-0.405
-487.464	296.838	-0.073	0.134
-486.449	-147.769	0.292	0.024
-485.435	32.048	-0.126	0.108
-484.420	-200.000	-0.004	-0.093
-483.405	-25.989	-0.008	-0.005
-482.391	-75.397	-0.242	-0.085
-481.376	114.300	-0.102	0.123
-480.362	-137.667	-0.178	-0.020
-479.347	-200.000	0.009	0.181
-478.332	-185.551	0.359	0.005
-477.318	326.743	-0.139	0.265
-476.303	800.000	-0.090	0.281
-475.289	-105.384	-0.047	0.011
-474.274	800.000	-0.148	0.465
-473.259	-46.195	0.297	-0.145
-472.245	146.163	-0.159	-0.212
-471.230	333.203	0.169	0.324
-470.216	-12.764	0.207	-0.133
-469.201	168.535	-0.118	0.167
-468.186	535.385	0.029	-0.068
-467.172	126.764	-0.226	-0.284
-466.157	66.191	-0.306	0.308
-465.143	108.773	0.109	0.129
-464.128	800.000	0.024	0.076
-463.113	-78.614	-0.125	0.042
-462.099	-17.800	0.264	0.164
-461.084	-78.300	-0.384	0.131
-460.070	-137.637	0.150	0.017
-459.055	170.771	-0.137	-0.194
-458.040	220.766	0.098	0.156
-457.026	-80.528	0.468	-0.155
-456.011	-140.850	-0.590	-0.060
-454.997	215.818	0.027	-0.043
-453.982	214.516	0.071	0.112
-452.968	-9.324	-0.106	-0.070
-451.953	94.932	0.241	-0.272
-450.938	0.641	0.188	0.133
-449.924	-70.680	-0.442	-0.165
-448.909	303.068	0.166	-0.305
-447.895	-95.201	0.476	-0.127
-446.880	800.000	0.064	0.206
-445.865	-200.000	0.064	-0.314
-444.851	315.743	0.109	-0.204
-443.836	409.791	0.085	-0.179
-442.822	418.740	0.099	0.210
-441.807	15.712	-0.082	-0.064
-440.792	-90.866	-0.258	-0.073
-439.778	6.553	-0.207	0.152
-438.763	-132.553	-0.264	0.034
-437.749	-200.000	-0.007	-0.061
-436.734	265.984	0.219	-0.379
-435.719	52.262	0.195	-0.184
-434.705	-200.000	-0.026	0.238
-433.690	304.610	-0.088	0.161
-432.676	800.000	-0.050	-0.187
-431.661	-200.000	-0.013	0.330
-430.646	152.151	0.132	-0.179
-429.632	-200.000	-0.009	-0.272
-428.617	-64.379	0.184	0.074
-427.603	-78.107	-0.391	-0.133
-426.588	83.951	-0.377	-0.408
-425.573	199.882	0.217	-0.330
-424.559	295.932	0.129	-0.234
-423.544	800.000	-0.051	-0.177
-422.530	-82.521	-0.178	0.057
-421.515	-89.175	-0.371	-0.108
-420.500	35.027	0.101	0.088
-419.486	-200.000	-0.016	0.450
-418.471	409.703	0.053	-0.111
-417.457	-58.965	-0.391	-0.167
-416.442	-27.662	0.253	0.145
-415.428	800.000	-0.068	-0.215
-414.413	800.000	0.028	-0.103
-413.398	223.601	0.026	0.041
-412.384	-86.673	-0.154	-0.047
-411.369	-8.501	0.344	0.229
-410.355	16.260	-0.011	-0.008
-409.340	-3.619	0.192	-0.132
-408.325	-85.840	0.068	0.021
-407.311	-125.013	0.207	0.032
-406.296	-48.286	-0.033	0.016
-405.282	-41.221	-0.210	0.107
-404.267	-123.464	0.155	-0.024
-403.252	-74.737	-0.194	-0.069
-402.238	93.124	0.078	0.087
-401.223	-63.343	-0.041	0.017
-400.209	39.580	-0.174	0.154
-399.194	-182.987	0.121	0.002
-398.179	655.514	-0.058	-0.146
-397.165	335.930	0.049	0.093
-396.150	-98.944	-0.245	0.061
-395.136	-75.643	0.237	0.083
-394.121	-200.000	-0.024	0.136
-393.106	-41.656	0.126	-0.064
-392.092	88.670	0.184	-0.203
-391.077	-83.382	-0.184	0.058
-390.063	-181.423	-0.108	0.002
-389.048	53.679	0.097	-0.092
-388.033	119.110	0.236	0.289
-387.019	-133.186	-0.086	0.011
-386.004	140.771	-0.205	-0.267
-384.990	-99.209	-0.595	0.149
-383.975	-97.383	-0.325	0.083
-382.960	163.340	-0.223	0.310
-381.946	-200.000	-0.048	-0.365
-380.931	-167.607	0.395	0.016
-379.917	270.261	0.187	0.325
-378.902	-200.000	-0.016	-0.178
-377.888	-0.770	-0.231	-0.162
-376.873	-200.000	-0.076	0.524
-375.858	-10.343	-0.156	0.102
-374.844	-123.512	-0.548	0.086
-373.829	113.106	-0.071	0.085
-372.815	73.426	-0.136	0.140
-371.800	-31.399	-0.402	0.223
-370.785	-200.000	0.020	-0.150
-369.771	223.624	0.076	0.121
-368.756	-134.945	-0.223	-0.027
-367.742	631.586	0.152	-0.381
-366.727	800.000	-0.055	0.232
-365.712	65.236	-0.134	-0.134
-364.698	110.274	-0.167	-0.198
-363.683	42.061	0.200	-0.180
-362.669	-117.855	-0.109	0.019
-361.654	-48.132	0.206	-0.098
-360.639	184.190	0.062	-0.091
-359.625	-42.922	-0.297	-0.149
-358.610	-107.431	0.140	0.030
-357.596	-39.178	0.323	0.168
-356.581	275.970	0.080	0.140
-355.566	221.306	-0.098	-0.155
-354.552	176.534	-0.161	0.230
-353.537	-46.014	-0.322	-0.157
-352.523	171.709	0.062	0.088
-351.508	-19.851	0.170	-0.103
-350.493	-200.000	0.011	-0.047
-349.479	121.472	-0.066	-0.081
-348.464	-200.000	-0.038	-0.165
-347.450	-32.966	0.070	0.038
-346.435	-43.170	0.205	-0.102
-345.420	60.901	0.126	0.123
-344.406	384.804	0.140	-0.286
-343.391	-22.115	-0.362	-0.217
-342.377	-136.588	0.253	-0.029
-341.362	-200.000	0.018	0.136
-340.348	800.000	0.024	-0.088
-339.333	430.018	-0.177	0.377
-338.318	99.298	-0.376	0.429
-337.304	269.204	-0.076	-0.132
-336.289	92.098	0.123	-0.136
-335.275	10.125	-0.166	0.125
-334.260	-123.321	-0.266	0.042
-333.245	-63.373	-0.070	0.028
-332.231	159.917	-0.112	0.154
-331.216	-200.000	-0.034	-0.335
-330.202	269.435	-0.103	-0.178
-329.187	800.000	-0.086	-0.262
-328.172	-200.000	0.019	0.133
-327.158	-96.147	-0.126	0.033
-326.143	16.907	0.222	-0.174
-325.129	-200.000	-0.005	-0.027
-324.114	-84.865	-0.179	-0.055
-323.099	-67.328	-0.424	-0.164
-322.085	-115.476	0.239	0.044
-321.070	54.376	-0.162	0.154
-320.056	-200.000	-0.011	0.282
-319.041	800.000	0.137	-0.450
-318.026	-134.661	0.327	-0.039
-317.012	-80.646	-0.172	-0.056
-315.997	-78.442	0.076	-0.026
-314.983	-156.688	0.173	0.011
-313.968	-200.000	-0.014	0.076
-312.953	-103.493	-0.185	-0.043
-311.939	-152.725	0.111	0.008
-310.924	-184.856	0.341	-0.005
-309.910	-34.875	-0.213	-0.114
-308.895	-112.948	0.162	0.032
-307.880	-109.442	0.183	0.038
-306.866	241.909	-0.121	0.199
-305.851	-200.000	-0.034	-0.317
-304.837	800.000	-0.076	-0.308
-303.822	248.630	-0.049	0.081
-302.807	800.000	0.087	0.249
-301.793	-106.823	-0.197	0.043
-300.778	-200.000	-0.002	-0.013
-299.764	682.767	0.074	-0.190
-298.749	97.157	-0.176	-0.198
-297.735	30.521	0.268	0.226
-296.720	800.000	-0.015	0.059
-295.705	-60.335	-0.246	-0.103
-294.691	-152.199	-0.400	0.029
-293.676	-29.544	0.052	-0.029
-292.662	800.000	-0.124	0.356
-291.647	523.142	-0.045	-0.104
-290.632	-167.007	-0.180	-0.007
-289.618	-32.010	0.204	0.112
-288.603	66.494	-0.147	0.147
-287.589	800.000	0.107	0.302
-286.574	8.554	0.331	-0.245
-285.559	691.388	0.143	0.369
-284.545	-200.000	-0.016	0.133
-283.530	-200.000	-0.020	0.144
-282.516	56.044	0.117	-0.111
-281.501	126.763	0.240	0.299
-280.486	800.000	-0.130	0.367
-279.472	9.319	0.241	-0.179
-278.457	-26.272	0.086	-0.049
-277.443	357.646	-0.212	0.416
-276.428	372.313	-0.094	0.188
-275.413	-200.000	-0.089	0.595
-274.399	28.319	0.044	0.037
-273.384	-50.857	0.267	0.123
-272.370	800.000	-0.057	0.164
-271.355	129.303	0.236	-0.297
-270.340	335.982	0.171	0.326
-269.326	-65.915	0.288	0.113
-268.311	-108.095	-0.372	-0.079
-267.297	-200.000	0.017	0.241
-266.282	-200.000	-0.013	0.322
-265.267	-95.367	-0.053	-0.014
-264.253	-98.971	0.348	0.087
-263.238	-109.417	-0.252	-0.052
-262.224	182.278	0.099	-0.144
-261.209	-123.290	-0.283	-0.044
-260.195	-32.185	0.278	0.153
-259.180	-71.149	0.088	0.033
-258.165	319.962	-0.097	0.182
-257.151	70.857	-0.272	-0.276
-256.136	800.000	0.057	-0.167
-255.122	36.006	0.266	0.230
-254.107	159.373	-0.218	0.298
-253.092	9.195	-0.051	-0.038
-252.078	-118.732	0.358	0.062
-251.063	-138.291	-0.356	0.039
-250.049	43.137	0.042	0.038
-249.034	-7.750	0.226	0.150
-248.019	27.232	-0.082	-0.068
-247.005	-200.000	-0.031	0.320
-245.990	-109.275	0.364	-0.076
-244.976	-139.192	0.162	0.017
-243.961	463.051	-0.008	-0.018
-242.946	-200.000	-0.045	-0.403
-241.932	-121.129	-0.144	-0.024
-240.917	-200.000	0.008	-0.159
-239.903	-200.000	-0.033	0.216
-238.888	-41.958	0.092	-0.046
-237.873	202.517	-0.111	0.168
-236.859	-200.000	-0.005	-0.170
-235.844	-200.000	0.017	-0.231
-234.830	79.530	-0.176	0.185
-233.815	188.984	0.232	-0.341
-232.800	243.737	-0.013	-0.022
-231.786	39.773	0.025	0.022
-230.771	-200.000	-0.027	0.201
-229.757	108.455	-0.295	0.346
-228.742	-32.447	0.372	-0.204
-227.727	-33.387	-0.040	-0.022
-226.713	-10.415	0.106	0.069
-225.698	-131.667	0.326	0.042
-224.684	-22.844	-0.036	0.021
-223.669	-200.000	0.020	-0.114
-222.655	800.000	0.118	0.370
-221.640	-200.000	-0.011	-0.169
-220.625	-38.952	0.342	0.177
-219.611	-55.911	-0.141	0.062
-218.596	-46.101	-0.098	0.048
-217.582	550.380	-0.126	0.297
-216.567	800.000	0.029	-0.097
-215.552	800.000	-0.032	0.106
-214.538	-200.000	-0.100	-0.502
-213.523	-200.000	-0.009	0.333
-212.509	-62.617	0.353	-0.144
-211.494	171.100	-0.216	-0.303
-210.479	-101.925	0.216	0.051
-209.465	-102.560	-0.196	0.046
-208.450	-14.403	-0.111	0.070
-207.436	64.148	0.122	-0.120
-206.421	91.817	0.166	0.184
-205.406	-51.820	0.401	0.183
-204.392	314.744	0.132	0.244
-203.377	-17.170	0.316	0.196
-202.363	366.237	-0.141	-0.278
-201.348	11.586	0.321	-0.241
-200.333	800.000	0.027	-0.111
-199.319	-100.604	0.229	0.055
-198.304	-94.760	0.121	0.032
-197.290	800.000	0.118	-0.454
-196.275	-70.485	-0.273	-0.101
-195.260	-128.632	0.238	-0.033
-194.246	171.070	0.188	0.264
-193.231	-200.000	-0.077	0.371
-192.217	-200.000	-0.068	0.296
-191.202	-54.264	0.108	0.048
-190.187	-200.000	0.025	-0.146
-189.173	101.066	-0.112	-0.128
-188.158	800.000	0.017	-0.065
-187.144	-129.899	0.569	-0.076
-186.129	177.758	0.044	0.062
-185.114	-69.614	-0.225	-0.084
-184.100	209.943	0.099	0.153
-183.085	800.000	0.043	-0.158
-182.071	-126.313	0.233	0.034
-181.056	606.820	0.069	-0.170
-180.042	-200.000	0.044	0.304
-179.027	634.010	0.083	-0.206
-178.012	-200.000	0.008	0.122
-176.998	-82.108	-0.216	0.069
-175.983	12.479	-0.165	-0.125
-174.969	-132.806	0.158	-0.020
-173.954	109.364	-0.045	-0.053
-172.939	800.000	0.076	-0.230
-171.925	0.741	-0.498	-0.349
-170.910	-97.940	0.229	0.058
-169.896	266.178	0.169	0.289
-168.881	-10.401	0.237	-0.154
-167.866	-14.638	-0.150	0.094
-166.852	64.639	0.136	0.135
-165.837	-62.166	-0.326	-0.133
-164.823	25.952	0.232	-0.190
-163.808	-173.878	-0.377	-0.011
-162.793	151.101	-0.156	0.208
-161.779	-200.000	-0.035	-0.273
-160.764	800.000	-0.070	-0.287
-159.750	800.000	-0.070	0.273
-158.735	-57.852	0.169	-0.072
-157.720	573.486	0.146	-0.350
-156.706	-30.252	0.257	-0.143
-155.691	156.909	0.122	-0.165
-154.677	-51.330	-0.118	-0.054
-153.662	-148.541	0.173	0.014
-152.647	800.000	0.017	0.062
-151.633	104.765	-0.098	-0.113
-150.618	86.545	-0.094	0.102
-149.604	-165.003	-0.203	-0.009
-148.589	800.000	0.172	-0.535
-147.574	-200.000	-0.007	-0.101
-146.560	800.000	-0.049	0.190
-145.545	800.000	-0.015	-0.053
-144.531	-168.009	0.198	0.008
-143.516	18.206	-0.163	-0.128
-142.502	800.000	-0.044	-0.153
-141.487	-33.871	0.110	-0.059
-140.472	189.114	0.079	0.116
-139.458	-200.000	-0.022	0.157
-138.443	729.849	-0.051	0.135
-137.429	-105.989	0.221	-0.049
-136.414	-160.421	0.176	0.009
-135.399	-200.000	0.008	0.153
-134.385	113.552	0.221	-0.262
-133.370	36.853	0.188	-0.163
-132.356	-200.000	0.014	-0.405
-131.341	-123.109	-0.029	-0.005
-130.326	43.336	-0.466	0.417
-129.312	-84.711	0.179	0.055
-128.297	-200.000	0.017	0.249
-127.283	-59.340	0.105	-0.044
-126.268	22.912	0.070	0.056
-125.253	-200.000	-0.006	0.117
-124.239	512.235	0.106	-0.241
-123.224	-59.107	-0.095	-0.040
-122.210	92.810	0.095	0.105
-121.195	-64.579	0.081	-0.032
-120.180	-27.065	0.278	0.158
-119.166	113.476	-0.165	0.196
-118.151	-177.336	0.209	-0.005
-117.137	-46.986	0.185	0.089
-116.122	124.012	0.236	0.289
-115.107	-200.000	-0.045	-0.256
-114.093	29.288	0.072	0.060
-113.078	800.000	-0.072	-0.230
-112.064	-200.000	-0.012	0.284
-111.049	-38.150	0.181	-0.094
-110.034	-200.000	0.000	0.261
-109.020	407.912	0.163	0.337
-108.005	35.372	0.160	-0.137
-106.991	190.304	-0.053	-0.078
-105.976	285.632	-0.114	-0.201
-104.962	-82.646	-0.322	0.102
-103.947	-105.450	0.304	-0.068
-102.932	-200.000	0.038	-0.201
-101.918	-200.000	0.072	-0.474
-100.903	-46.017	0.070	0.034
-99.889	-52.401	0.365	0.165
-98.874	-54.989	0.187	0.082
-97.859	39.331	0.244	-0.214
-96.845	-57.657	-0.147	0.063
-95.830	-171.052	-0.232	-0.008
-94.816	51.435	0.230	-0.213
-93.801	487.932	0.173	-0.385
-92.786	-200.000	-0.034	-0.324
-91.772	800.000	0.032	-0.101
-90.757	62.201	0.154	-0.150
-89.743	-200.000	-0.025	0.182
-88.728	-110.816	-0.267	0.054
-87.713	-82.042	0.346	0.110
-86.699	-109.598	-0.379	-0.078
-85.684	369.654	-0.104	0.206
-84.670	-200.000	-0.020	0.174
-83.655	169.366	0.116	0.162
-82.640	-200.000	-0.161	0.000
-81.626	267.412	0.155	-0.265
-80.611	429.675	-0.099	0.208
-79.597	800.000	0.165	-0.515
-78.582	3.954	-0.085	0.061
-77.567	-16.932	0.255	0.157
-76.553	800.000	-0.017	0.058
-75.538	242.990	-0.092	0.151
-74.524	70.821	-0.124	-0.125
-73.509	-60.047	0.089	-0.037
-72.494	-132.148	0.294	-0.037
-71.480	-172.498	-0.081	-0.003
-70.465	-200.000	-0.012	-0.098
-69.451	-49.154	0.394	-0.184
-68.436	800.000	0.097	-0.338
-67.422	76.765	0.213	-0.220
-66.407	800.000	0.155	-0.451
-65.392	-3.235	-0.060	0.041
-64.378	15.696	0.030	-0.023
-63.363	-139.745	0.294	0.030
-62.349	34.310	-0.446	0.379
-61.334	442.396	-0.544	-1.162
-60.319	14.237	0.972	0.739
-59.305	385.472	-0.607	-1.221
-58.290	378.478	0.709	1.415
-57.276	314.940	0.625	1.149
-56.261	-200.000	124.960	637.336
-55.246	384.739	1590.277	3196.264
-54.232	138.427	2763.044	3535.921
-53.217	93.577	2185.125	2412.888
-52.203	34.510	1609.189	1370.346
-51.188	25.793	1350.934	1097.527
-50.173	23.319	1312.962	1051.962
-49.159	50.717	1382.332	1275.958
-48.144	47.659	1393.714	1267.760
-47.130	26.023	1341.787	1091.316
-46.115	22.707	1322.779	1055.995
-45.100	22.653	1317.096	1051.095
-44.086	22.563	1314.662	1048.579
-43.071	22.565	1312.274	1046.643
-42.057	22.477	1310.175	1044.406
-41.042	22.512	1308.779	1043.459
-40.027	22.580	1307.416	1042.734
-39.013	22.691	1304.816	1041.273
-37.998	22.591	1303.505	1039.594
-36.984	22.632	1301.943	1038.552
-35.969	22.652	1299.846	1036.952
-34.954	22.647	1298.220	1035.584
-33.940	22.614	1297.300	1034.616
-32.925	22.688	1295.811	1033.822
-31.911	22.585	1294.285	1031.959
-30.896	22.721	1293.123	1031.790
-29.881	22.770	1291.365	1030.633
-28.867	22.704	1289.898	1029.034
-27.852	22.711	1289.359	1028.607
-26.838	22.811	1287.209	1027.431
-25.823	22.754	1286.283	1026.320
-24.809	22.736	1284.375	1024.652
-23.794	22.672	1283.379	1023.444
-22.779	22.679	1281.954	1022.311
-21.765	22.706	1280.942	1021.617
-20.750	22.662	1279.594	1020.247
-19.736	22.607	1277.981	1018.601
-18.721	22.621	1276.714	1017.635
-17.706	22.602	1275.630	1016.620
-16.692	22.488	1274.908	1015.347
-15.677	22.634	1272.994	1014.625
-14.663	22.622	1272.299	1013.957
-13.648	22.597	1271.133	1012.847
-12.633	22.653	1270.119	1012.320
-11.619	22.594	1269.652	1011.566
-10.604	22.609	1268.638	1010.807
-9.590	22.576	1267.863	1009.957
-8.575	22.655	1266.349	1009.164
-7.560	22.632	1265.712	1008.486
-6.546	22.564	1265.414	1007.820
-5.531	22.522	1264.275	1006.632
-4.517	22.485	1263.556	1005.807
-3.502	22.589	1262.950	1005.878
-2.487	22.511	1261.649	1004.359
-1.473	22.630	1257.628	1001.793
-0.458	21.502	1243.080	983.828
0.556	17.375	1228.947	951.143
1.571	14.399	1237.521	940.916
2.586	13.736	1253.134	948.910
3.600	13.539	1240.114	937.851
4.615	9.970	1166.779	863.271
5.629	3.559	1095.875	778.478
6.644	0.720	1078.944	752.264
7.659	0.658	1076.884	750.453
8.673	0.609	1076.141	749.627
9.688	0.505	1074.472	747.882
10.702	0.650	1072.302	747.027
11.717	4.425	1076.707	768.744
12.731	11.092	1085.017	807.777
13.746	15.576	1091.474	834.846
14.761	16.998	1092.572	842.678
15.775	16.367	1091.214	838.427
16.790	15.402	1088.871	831.767
17.804	14.728	1087.426	827.253
18.819	14.361	1086.242	824.466
19.834	14.212	1085.251	822.903
20.848	13.928	1084.408	820.789
21.863	13.743	1083.377	819.023
22.877	13.468	1082.718	817.093
23.892	13.484	1082.201	816.707
24.907	13.516	1081.510	816.274
25.921	13.524	1080.709	815.637
26.936	13.491	1079.759	814.686
27.950	13.372	1079.314	813.691
28.965	13.539	1077.445	813.029
29.980	13.626	1076.106	812.374
30.994	13.654	1075.394	811.902
32.009	13.685	1074.716	811.468
33.023	13.722	1073.296	810.507
34.038	13.774	1071.980	809.696
35.053	13.595	1071.713	808.551
36.067	13.620	1070.690	807.827
37.082	13.643	1069.479	806.956
38.096	13.635	1069.298	806.706
39.111	13.682	1067.948	805.844
40.126	13.677	1066.862	804.931
41.140	13.554	1065.782	803.448
42.155	13.527	1064.603	802.356
43.169	13.524	1063.575	801.496
44.184	13.541	1062.578	800.755
45.199	13.487	1061.549	799.653
46.213	13.540	1060.421	798.988
47.228	13.578	1059.434	798.352
48.242	13.641	1058.492	797.880
49.257	13.644	1057.484	797.060
50.271	13.613	1057.123	796.571
51.286	13.570	1056.096	795.518
52.301	13.591	1055.208	794.879
53.315	13.582	1053.793	793.700
54.330	13.673	1052.900	793.396
55.344	13.568	1051.750	791.955
56.359	13.603	1050.716	791.275
57.374	13.465	1050.198	790.155
58.388	13.449	1049.334	789.359
59.403	13.333	1048.987	788.475
60.417	13.502	1047.146	787.826
61.432	13.379	1047.140	787.165
62.447	13.510	1045.735	786.662
63.461	13.513	1044.983	786.039
64.476	13.501	1043.856	785.066
65.490	13.361	1043.659	784.187
66.505	13.479	1042.965	784.156
67.520	13.570	1042.218	783.955
68.534	13.466	1041.562	782.897
69.549	13.446	1040.979	782.298
70.563	13.527	1039.927	781.822
71.578	13.428	1039.186	780.726
72.593	13.400	1038.530	780.031
73.607	13.343	1038.242	779.481
74.622	13.393	1037.175	778.844
75.636	13.371	1036.717	778.325
76.651	13.510	1035.569	778.052
77.666	13.470	1034.797	777.211
78.680	13.448	1033.900	776.366
79.695	13.477	1033.490	776.126
80.709	13.517	1032.993	775.872
81.724	13.499	1032.015	774.986
82.739	13.514	1031.717	774.764
83.753	13.603	1030.715	774.357
84.768	13.551	1030.157	773.625
85.782	13.625	1028.931	772.985
86.797	13.519	1028.409	772.030
87.812	13.669	1027.106	771.679
88.826	13.559	1026.247	770.456
89.841	13.486	1025.155	769.227
90.855	13.585	1024.646	769.239
91.870	13.706	1023.639	768.972
92.884	13.673	1022.193	767.668
93.899	13.668	1021.941	767.386
94.914	13.844	1021.305	767.656
95.928	13.817	1019.990	766.474
96.943	13.703	1019.460	765.484
97.957	13.717	1018.313	764.616
98.972	13.638	1017.538	763.606
99.987	13.714	1016.393	763.028
101.001	13.672	1015.474	762.079
102.016	13.824	1014.457	761.946
103.030	13.630	1013.989	760.634
104.045	13.600	1013.155	759.802
105.060	13.510	1012.328	758.707
106.074	13.531	1011.302	757.965
107.089	13.636	1009.980	757.385
108.103	13.638	1008.899	756.520
109.118	13.596	1007.794	755.432
110.133	13.589	1007.572	755.164
111.147	13.656	1006.022	754.244
112.162	13.654	1005.425	753.720
113.176	13.645	1004.858	753.185
114.191	13.656	1004.216	752.690
115.206	13.703	1003.376	752.207
116.220	13.703	1002.277	751.317
117.235	13.604	1001.539	750.246
118.249	13.599	1000.889	749.672
119.264	13.660	999.863	749.111
120.279	13.599	999.349	748.386
121.293	13.752	998.062	748.045
122.308	13.588	997.753	747.006
123.322	13.649	996.238	746.084
124.337	13.623	995.593	745.415
125.352	13.636	994.496	744.587
126.366	13.697	993.366	743.951
127.381	13.637	992.443	742.925
128.395	13.628	991.423	742.054
129.410	13.828	990.050	741.853
130.424	13.631	989.898	740.797
131.439	13.770	988.818	740.542
132.454	13.755	987.890	739.716
133.468	13.720	987.363	739.098
134.483	13.649	986.754	738.259
135.497	13.704	985.938	737.828
136.512	13.721	984.752	736.953
137.527	13.605	983.815	735.669
138.541	13.652	983.229	735.377
139.556	13.667	982.779	735.041
140.570	13.738	981.795	734.556
141.585	13.926	980.525	734.371
142.600	13.820	979.720	733.234
143.614	13.884	979.089	732.980
144.629	13.829	978.349	732.117
145.643	13.881	977.446	731.608
146.658	13.775	976.474	730.348
147.673	13.718	975.451	729.269
148.687	13.771	974.771	728.927
149.702	13.772	973.814	728.150
150.716	13.799	972.757	727.418
151.731	13.724	972.438	726.782
152.746	13.865	971.712	726.794
153.760	13.974	970.989	726.666
154.775	13.855	970.367	725.615
155.789	13.812	970.242	725.271
156.804	13.989	968.713	724.837
157.819	13.981	968.248	724.389
158.833	13.989	967.554	723.840
159.848	14.020	966.725	723.290
160.862	13.916	966.025	722.252
161.877	14.087	965.147	722.273
162.892	13.909	964.323	720.819
163.906	13.841	963.569	719.898
164.921	13.817	962.767	719.133
165.935	13.899	961.820	718.716
166.950	13.992	960.909	718.372
167.964	13.899	960.047	717.263
168.979	13.950	958.716	716.425
169.994	13.982	957.821	715.832
171.008	13.969	957.156	715.216
172.023	14.077	956.531	715.150
173.037	14.284	955.846	715.465
174.052	14.013	955.388	713.894
175.067	14.125	954.689	713.790
176.081	14.015	954.018	712.751
177.096	14.112	953.676	712.851
178.110	14.052	952.964	711.997
179.125	14.005	952.388	711.302
180.140	14.099	951.588	711.044
181.154	14.201	951.145	711.088
182.169	14.215	950.496	710.599
183.183	14.199	949.922	710.038
184.198	14.179	949.185	709.338
185.213	14.357	948.231	709.320
186.227	14.352	947.833	708.937
187.242	14.316	947.304	708.327
188.256	14.340	946.264	707.589
189.271	14.308	945.643	706.927
190.286	14.263	944.590	705.886
191.300	14.165	944.120	705.058
192.315	14.108	943.533	704.314
193.329	14.097	943.570	704.234
194.344	14.198	941.783	703.263
195.359	14.328	941.783	703.754
196.373	14.237	941.480	703.077
197.388	14.294	940.560	702.570
198.402	14.396	939.776	702.351
199.417	14.584	938.914	702.436
200.432	14.489	938.670	701.794
201.446	14.497	938.212	701.423
202.461	14.434	938.147	701.047
203.475	14.583	937.252	700.939
204.490	14.558	936.198	699.988
205.504	14.568	935.429	699.393
206.519	14.545	934.556	698.580
207.534	14.557	934.076	698.210
208.548	14.481	933.463	697.370
209.563	14.535	933.237	697.366
210.577	14.548	931.934	696.385
211.592	14.604	931.585	696.299
212.607	14.673	930.661	695.834
213.621	14.576	930.346	695.134
214.636	14.682	928.937	694.460
215.650	14.800	928.547	694.597
216.665	14.758	927.789	693.794
217.680	14.954	926.654	693.697
218.694	14.827	926.449	692.953
219.709	14.773	925.753	692.148
220.723	14.798	925.095	691.699
221.738	14.737	923.788	690.408
222.753	14.835	923.472	690.515
223.767	14.782	923.079	689.941
224.782	14.908	922.653	690.081
225.796	15.029	921.695	689.802
226.811	14.812	921.403	688.631
227.826	14.873	920.691	688.289
228.840	14.772	919.736	687.098
229.855	14.921	918.714	686.885
230.869	14.771	918.354	685.941
231.884	14.841	917.776	685.736
232.899	14.937	916.942	685.445
233.913	14.841	916.377	684.568
234.928	14.819	915.742	683.942
235.942	14.850	914.942	683.413
236.957	14.834	914.341	682.838
237.972	14.920	913.951	682.835
238.986	14.876	913.184	682.023
240.001	14.865	912.835	681.657
241.015	14.875	912.157	681.134
242.030	14.926	911.253	680.603
243.045	14.935	911.172	680.520
244.059	14.961	910.401	679.989
245.074	15.098	909.502	679.816
246.088	14.962	908.488	678.443
247.103	15.086	908.221	678.689
248.117	15.162	907.508	678.404
249.132	15.165	907.044	678.008
250.147	15.189	906.388	677.557
251.161	15.306	905.206	677.083
252.176	15.339	904.902	676.928
253.190	15.305	904.026	676.078
254.205	15.213	904.005	675.632
255.220	15.395	902.650	675.291
256.234	15.302	902.275	674.575
257.249	15.463	901.634	674.683
258.263	15.463	900.593	673.847
259.278	15.393	900.295	673.284
260.293	15.403	899.507	672.673
261.307	15.439	899.061	672.427
262.322	15.452	898.478	671.981
263.336	15.543	897.453	671.522
264.351	15.576	896.661	670.999
265.366	15.495	896.528	670.519
266.380	15.659	895.501	670.345
267.395	15.551	895.220	669.642
268.409	15.518	894.106	668.619
269.424	15.656	893.282	668.495
270.439	15.648	892.897	668.116
271.453	15.359	892.284	666.449
272.468	15.552	891.654	666.684
273.482	15.384	891.675	665.977
274.497	15.593	890.349	665.753
275.512	15.748	889.617	665.760
276.526	15.652	889.524	665.253
277.541	15.583	888.802	664.381
278.555	15.833	888.179	664.845
279.570	15.754	887.463	663.937
280.585	15.811	886.488	663.374
281.599	15.761	886.278	662.961
282.614	15.690	885.273	661.872
283.628	15.723	884.602	661.441
284.643	15.784	884.637	661.647
285.657	15.839	883.363	660.853
286.672	15.761	882.605	659.923
287.687	15.780	881.941	659.440
288.701	15.818	881.854	659.469
289.716	15.912	881.150	659.252
290.730	15.920	880.507	658.742
291.745	15.990	879.629	658.300
292.760	15.733	879.640	657.246
293.774	16.025	878.621	657.567
294.789	15.999	878.068	656.994
295.803	15.953	877.268	656.156
296.818	15.945	876.715	655.652
297.833	16.140	875.560	655.490
298.847	16.046	875.381	654.931
299.862	16.082	874.865	654.630
300.876	16.111	874.329	654.281
301.891	16.145	873.748	653.922
302.906	16.110	872.913	653.104
303.920	16.114	872.649	652.864
304.935	16.215	871.855	652.602
305.949	16.211	871.126	651.984
306.964	16.237	870.833	651.805
307.979	16.168	870.164	650.980
308.993	16.296	869.437	650.872
310.008	16.147	868.843	649.799
311.022	16.311	868.644	650.223
312.037	16.246	867.739	649.237
313.052	16.301	867.225	649.007
314.066	16.221	866.649	648.211
315.081	16.211	866.294	647.849
316.095	16.089	865.624	646.824
317.110	16.237	865.040	646.896
318.125	16.261	864.519	646.544
319.139	16.307	863.926	646.218
320.154	16.364	863.414	645.995
321.168	16.234	863.141	645.238
322.183	16.434	862.299	645.316
323.197	16.362	862.054	644.799
324.212	16.292	861.342	643.942
325.227	16.397	860.532	643.679
326.241	16.431	860.062	643.401
327.256	16.282	859.444	642.315
328.270	16.458	858.773	642.426
329.285	16.363	858.380	641.714
330.300	16.389	857.575	641.153
331.314	16.392	857.149	640.792
332.329	16.475	856.585	640.625
333.343	16.494	856.213	640.365
334.358	16.519	855.745	640.051
335.373	16.593	855.658	640.209
336.387	16.696	855.150	640.162
337.402	16.582	854.643	639.295
338.416	16.671	854.372	639.374
339.431	16.690	854.043	639.143
340.446	16.676	853.743	638.809
341.460	16.587	853.483	638.220
342.475	16.748	852.884	638.324
343.489	16.665	852.188	637.434
344.504	16.860	851.748	637.782
345.519	16.830	851.421	637.366
346.533	16.816	850.732	636.742
347.548	16.860	850.259	636.497
348.562	16.876	849.741	636.115
349.577	16.732	849.531	635.358
350.592	16.745	848.856	634.846
351.606	16.833	848.161	634.601
352.621	16.757	847.351	633.653
353.635	16.721	846.948	633.161
354.650	16.801	846.160	632.816
355.665	16.919	845.527	632.728
356.679	16.825	844.850	631.813
357.694	16.842	844.039	631.217
358.708	16.902	843.420	630.920
359.723	17.019	842.954	630.948
360.738	17.044	842.326	630.517
361.752	16.992	841.523	629.668
362.767	16.871	841.232	628.945
363.781	17.001	840.940	629.155
364.796	17.028	840.407	628.800
365.810	17.181	839.657	628.748
366.825	17.282	838.962	628.547
367.840	17.252	838.898	628.332
368.854	17.132	838.641	627.638
369.869	16.961	838.567	626.895
370.883	17.225	837.592	627.087
371.898	17.278	837.243	626.965
372.913	17.188	836.878	626.306
373.927	17.219	836.828	626.327
374.942	17.200	835.847	625.468
375.956	17.141	835.717	625.096
376.971	17.152	835.305	624.774
377.986	17.305	834.620	624.767
379.000	17.485	833.688	624.678
380.015	17.434	833.473	624.272
381.029	17.239	833.215	623.309
382.044	17.534	832.301	623.651
383.059	17.416	831.681	622.699
384.073	17.594	830.841	622.664
385.088	17.519	830.444	622.038
386.102	17.422	829.675	621.053
387.117	17.349	829.466	620.578
388.132	17.419	828.956	620.394
389.146	17.461	828.247	619.963
390.161	17.503	828.117	619.964
391.175	17.548	827.554	619.652
392.190	17.607	826.905	619.325
393.205	17.336	826.512	617.989
394.219	17.582	825.872	618.349
395.234	17.600	825.786	618.298
396.248	17.519	825.123	617.452
397.263	17.470	824.798	616.976
398.278	17.560	824.582	617.087
399.292	17.403	824.412	616.335
400.307	17.430	823.390	615.613
401.321	17.604	822.837	615.777
402.336	17.618	822.748	615.704
403.350	17.616	822.238	615.263
404.365	17.693	821.812	615.166
405.380	17.773	821.150	614.905
406.394	17.627	820.941	614.167
407.409	17.713	820.410	614.027
408.423	17.805	819.994	613.992
409.438	17.745	819.436	613.303
410.453	17.797	819.397	613.407
411.467	17.855	818.429	612.839
412.482	17.835	818.177	612.523
413.496	17.906	817.962	612.561
414.511	17.801	817.615	611.872
415.526	18.034	816.555	611.858
416.540	17.827	816.831	611.270
417.555	17.949	815.826	610.899
418.569	17.863	815.562	610.339
419.584	17.855	815.292	610.056
420.599	17.979	814.486	609.841
421.613	114.881	1299.217	1488.796
422.628	99.509	1369.791	1488.880
