DTS Sentinel unit serial number:	SN413079Multiplexer serial number:	ORYXHardware model number:	OX4-SRSoftware version number:	ORYX F/W v4.00 Oryx Data Collector v3.7.2.0data status	okinstallation	princeton_trtdifferential loss correction	single-endedforward channel	channel 1reverse channel	N/Adate	2019/09/19time	11:06:35forward acquisition time	60.00reverse acquisition time	0.00gamma	496.2192k internal	0.2339k external	0.2339temperature offset calibration	1.0008default loss term (dB/km)	0.3790temperature slope calibration	1.0000multiplexer offset coefficient	1.0000multiplexer slope coefficient	1.0000fibre end	0.00T internal ref (°C)	25.00T ext. ref 1 (°C)	0.77T ext. ref 2 (°C)	20.56length (m)	temperature (°C)	Stokes	anti-Stokes-747.200	-35.599	0.242	-0.132
-746.185	144.446	-0.222	0.297
-745.171	-65.705	-0.222	0.089
-744.156	173.283	-0.266	0.385
-743.142	337.445	-0.093	0.182
-742.127	-14.461	-0.134	0.086
-741.112	-124.862	-0.195	0.030
-740.098	800.000	-0.134	0.489
-739.083	-123.170	-0.181	0.029
-738.069	210.119	-0.088	0.138
-737.054	356.061	-0.122	0.243
-736.039	-19.844	0.145	-0.090
-735.025	-110.798	0.463	-0.096
-734.010	-4.210	-0.310	0.215
-732.996	-114.057	-0.163	-0.032
-731.981	-45.353	0.026	0.013
-730.966	435.264	-0.093	-0.203
-729.952	-70.891	-0.420	-0.159
-728.937	-200.000	0.013	0.169
-727.923	72.557	-0.170	0.178
-726.908	-45.611	-0.088	-0.044
-725.894	-139.433	-0.143	-0.015
-724.879	139.609	-0.188	-0.248
-723.864	-22.844	0.060	0.036
-722.850	450.186	-0.117	0.259
-721.835	150.269	-0.214	0.292
-720.821	-200.000	0.026	-0.119
-719.806	-136.236	0.158	-0.019
-718.791	-159.895	0.255	-0.014
-717.777	740.301	-0.066	0.176
-716.762	-63.465	-0.149	0.061
-715.748	-83.861	0.158	-0.050
-714.733	41.959	0.084	0.076
-713.718	97.150	-0.019	0.022
-712.704	-119.781	-0.227	0.039
-711.689	140.822	-0.210	0.279
-710.675	57.004	0.093	-0.091
-709.660	435.576	-0.074	-0.161
-708.645	119.980	0.279	-0.347
-707.631	-79.887	-0.261	0.088
-706.616	-80.338	-0.114	0.038
-705.602	46.293	0.111	0.103
-704.587	-48.284	-0.020	-0.010
-703.572	427.753	0.150	0.325
-702.558	-200.000	-0.066	0.354
-701.543	-2.203	0.091	0.064
-700.529	40.508	0.142	-0.128
-699.514	-200.000	0.052	-0.293
-698.499	-111.903	-0.151	-0.031
-697.485	-62.111	0.275	-0.115
-696.470	800.000	0.063	0.190
-695.456	-67.034	-0.171	-0.068
-694.441	-11.686	0.110	-0.072
-693.426	-89.880	0.103	-0.030
-692.412	-6.480	0.112	0.076
-691.397	-200.000	-0.058	-0.281
-690.383	-141.224	-0.286	-0.029
-689.368	75.854	0.285	-0.302
-688.354	98.214	-0.222	-0.256
-687.339	-12.482	0.315	0.206
-686.324	-200.000	0.009	-0.080
-685.310	-59.047	-0.312	-0.135
-684.295	-123.685	-0.181	0.029
-683.281	-93.223	-0.166	-0.046
-682.266	-46.233	0.052	0.026
-681.251	69.062	0.009	0.009
-680.237	414.150	-0.029	-0.061
-679.222	-14.095	-0.261	-0.169
-678.208	-56.941	0.003	-0.001
-677.193	-35.135	0.147	-0.080
-676.178	797.714	0.131	-0.362
-675.164	-176.033	-0.098	0.003
-674.149	256.735	-0.038	0.066
-673.135	61.026	0.112	0.111
-672.120	-62.971	0.084	0.035
-671.105	-69.651	-0.355	0.136
-670.091	6.428	-0.132	0.098
-669.076	-28.948	-0.134	-0.077
-668.062	-114.254	0.009	0.002
-667.047	-67.731	0.185	-0.072
-666.032	800.000	0.076	-0.236
-665.018	800.000	0.081	-0.290
-664.003	261.374	0.021	-0.037
-662.989	-200.000	-0.055	0.449
-661.974	800.000	0.006	0.025
-660.959	111.080	0.115	0.139
-659.945	463.988	-0.148	0.330
-658.930	-16.602	-0.120	0.076
-657.916	-158.279	-0.492	-0.029
-656.901	-200.000	0.003	0.131
-655.886	-200.000	-0.037	0.233
-654.872	800.000	-0.067	0.260
-653.857	293.619	0.082	0.149
-652.843	368.175	-0.059	-0.119
-651.828	800.000	0.108	-0.343
-650.814	-170.435	-0.194	-0.007
-649.799	58.055	0.132	-0.129
-648.784	-79.230	0.067	0.023
-647.770	-155.087	-0.097	0.006
-646.755	48.953	-0.182	0.171
-645.741	-200.000	0.008	0.133
-644.726	268.709	0.049	-0.085
-643.711	-200.000	0.013	0.412
-642.697	225.486	-0.042	0.068
-641.682	68.892	0.175	0.180
-640.668	10.722	-0.145	0.111
-639.653	-200.000	-0.025	-0.261
-638.638	33.280	-0.062	0.054
-637.624	-69.957	0.173	0.066
-636.609	-67.830	-0.139	-0.054
-635.595	-64.771	-0.470	-0.190
-634.580	41.824	-0.204	-0.185
-633.565	411.438	-0.042	-0.089
-632.551	360.760	0.017	-0.035
-631.536	-83.843	-0.198	-0.063
-630.522	213.591	0.223	0.352
-629.507	-200.000	0.003	0.223
-628.492	-45.951	0.140	0.069
-627.478	-90.899	0.334	0.096
-626.463	-22.657	-0.315	0.190
-625.449	800.000	0.060	0.205
-624.434	-130.806	-0.232	0.031
-623.419	800.000	0.039	-0.171
-622.405	206.469	-0.093	-0.145
-621.390	-93.450	-0.248	0.069
-620.376	214.829	-0.057	-0.091
-619.361	-106.563	-0.326	0.073
-618.346	-1.595	0.118	0.083
-617.332	-49.992	0.107	0.051
-616.317	-94.602	-0.369	0.100
-615.303	800.000	0.039	0.145
-614.288	699.340	0.109	-0.285
-613.273	204.204	-0.020	-0.030
-612.259	14.336	-0.074	-0.058
-611.244	-88.882	-0.315	0.093
-610.230	158.896	-0.070	-0.098
-609.215	432.461	0.159	-0.345
-608.201	48.982	-0.173	-0.163
-607.186	176.119	-0.175	-0.254
-606.171	800.000	0.053	0.213
-605.157	688.824	0.114	-0.298
-604.142	-200.000	-0.016	-0.194
-603.128	50.986	-0.131	-0.124
-602.113	501.825	-0.141	-0.325
-601.098	-200.000	-0.030	-0.185
-600.084	-200.000	-0.038	-0.234
-599.069	800.000	-0.168	-0.532
-598.055	-86.387	0.212	0.065
-597.040	153.601	-0.141	0.193
-596.025	800.000	-0.123	-0.521
-595.011	36.458	-0.074	-0.065
-593.996	80.574	-0.148	-0.159
-592.982	10.450	0.394	0.299
-591.967	-200.000	-0.025	0.111
-590.952	-21.676	0.133	0.081
-589.938	-49.892	-0.262	-0.124
-588.923	-12.893	-0.279	0.181
-587.909	-200.000	-0.046	-0.414
-586.894	-24.070	0.279	0.166
-585.879	-74.033	-0.460	0.166
-584.865	-110.261	0.060	-0.012
-583.850	23.736	0.090	-0.074
-582.836	-200.000	0.012	-0.135
-581.821	-151.174	-0.253	0.019
-580.806	-200.000	0.007	-0.184
-579.792	-200.000	-0.001	-0.348
-578.777	-47.702	0.056	0.027
-577.763	800.000	-0.064	0.195
-576.748	344.030	0.241	0.471
-575.733	61.621	0.003	-0.003
-574.719	752.296	-0.047	0.128
-573.704	-200.000	-0.040	0.370
-572.690	-55.371	-0.233	0.104
-571.675	-200.000	-0.026	0.312
-570.661	-77.992	-0.252	0.086
-569.646	-135.187	0.193	0.023
-568.631	112.989	-0.052	0.063
-567.617	-200.000	-0.029	0.218
-566.602	-200.000	-0.032	0.185
-565.588	200.863	0.007	-0.010
-564.573	800.000	-0.046	-0.173
-563.558	-200.000	-0.010	0.075
-562.544	-14.550	0.023	-0.015
-561.529	-10.068	-0.023	0.015
-560.515	179.096	0.155	-0.226
-559.500	-140.770	0.232	0.024
-558.485	219.211	-0.113	-0.180
-557.471	-86.047	0.333	-0.103
-556.456	74.121	0.057	-0.059
-555.442	289.884	-0.144	0.261
-554.427	-133.667	-0.364	-0.045
-553.412	-58.353	-0.232	-0.100
-552.398	-117.278	-0.216	-0.039
-551.383	800.000	0.073	0.246
-550.369	-145.662	-0.160	0.014
-549.354	400.599	-0.134	-0.280
-548.339	432.140	-0.223	-0.482
-547.325	189.260	-0.069	0.103
-546.310	397.698	-0.139	0.290
-545.296	-59.038	-0.122	-0.052
-544.281	51.531	0.112	-0.106
-543.266	-115.560	0.265	-0.050
-542.252	52.260	-0.090	-0.085
-541.237	10.092	0.184	0.139
-540.223	-40.278	-0.236	0.122
-539.208	51.461	-0.367	0.347
-538.193	800.000	-0.071	-0.200
-537.179	-200.000	0.018	-0.183
-536.164	112.451	-0.161	0.194
-535.150	126.954	-0.047	0.060
-534.135	-74.872	-0.128	0.046
-533.121	-200.000	-0.033	-0.232
-532.106	215.025	-0.132	0.208
-531.091	-112.367	-0.110	-0.022
-530.077	-19.580	0.087	-0.053
-529.062	-200.000	-0.013	-0.180
-528.048	752.626	-0.080	0.215
-527.033	-200.000	-0.024	-0.171
-526.018	67.816	-0.230	-0.234
-525.004	532.415	-0.074	0.174
-523.989	9.124	0.234	-0.176
-522.975	-19.763	-0.281	-0.173
-521.960	115.112	-0.168	-0.204
-520.945	-200.000	-0.009	-0.265
-519.931	4.487	0.198	0.145
-518.916	-109.447	-0.233	-0.049
-517.902	800.000	-0.107	0.299
-516.887	356.983	0.167	-0.330
-515.872	800.000	0.066	-0.190
-514.858	80.510	0.242	0.259
-513.843	-200.000	0.009	0.090
-512.829	131.613	0.141	0.181
-511.814	284.956	-0.047	-0.085
-510.799	30.421	-0.109	-0.093
-509.785	-67.185	-0.213	-0.083
-508.770	-200.000	0.013	-0.197
-507.756	-114.655	-0.544	-0.104
-506.741	-200.000	0.056	-0.355
-505.726	329.312	0.044	-0.085
-504.712	521.336	-0.081	0.188
-503.697	-59.284	-0.185	-0.079
-502.683	-84.113	0.137	0.043
-501.668	800.000	-0.060	-0.171
-500.653	-118.721	0.449	-0.079
-499.639	485.483	-0.064	0.145
-498.624	-200.000	0.027	-0.152
-497.610	49.794	-0.357	-0.335
-496.595	50.489	0.121	-0.114
-495.581	152.406	0.157	-0.213
-494.566	-200.000	-0.008	-0.159
-493.551	158.466	-0.046	-0.064
-492.537	-101.336	-0.056	0.014
-491.522	-141.730	-0.089	0.009
-490.508	-200.000	-0.002	0.046
-489.493	-130.060	0.066	-0.009
-488.478	102.298	0.394	-0.457
-487.464	-66.314	-0.560	-0.221
-486.449	-57.671	-0.205	-0.089
-485.435	-125.982	0.260	-0.039
-484.420	-122.760	0.167	0.027
-483.405	-133.181	-0.156	-0.020
-482.391	48.157	-0.100	0.092
-481.376	800.000	-0.121	-0.352
-480.362	182.346	-0.140	-0.205
-479.347	45.052	0.216	0.198
-478.332	174.446	-0.171	-0.246
-477.318	-20.837	0.203	0.123
-476.303	-81.506	-0.241	0.079
-475.289	-70.242	-0.274	0.103
-474.274	37.355	-0.061	-0.054
-473.259	1.453	0.203	-0.145
-472.245	-200.000	0.047	0.497
-471.230	-115.662	-0.439	-0.082
-470.216	-114.598	0.165	0.031
-469.201	-200.000	-0.048	-0.283
-468.186	-136.577	-0.095	-0.011
-467.172	279.893	-0.169	-0.300
-466.157	-200.000	0.023	-0.126
-465.143	167.422	0.119	-0.167
-464.128	68.957	-0.224	0.228
-463.113	-200.000	0.006	-0.163
-462.099	-195.294	0.312	-0.002
-461.084	95.017	-0.132	0.149
-460.070	82.758	-0.206	0.222
-459.055	97.809	0.050	-0.057
-458.040	391.186	-0.130	-0.268
-457.026	800.000	0.050	0.153
-456.011	187.232	0.151	0.224
-454.997	77.725	-0.056	-0.059
-453.982	800.000	0.054	-0.212
-452.968	-200.000	-0.015	-0.156
-451.953	201.959	-0.196	0.300
-450.938	13.649	0.309	-0.238
-449.924	259.158	-0.217	-0.370
-448.909	-127.785	0.086	-0.012
-447.895	182.649	0.087	0.127
-446.880	800.000	0.049	0.206
-445.865	418.411	-0.054	0.115
-444.851	-35.031	0.292	0.158
-443.836	-136.053	0.334	0.039
-442.822	184.716	0.223	0.328
-441.807	41.648	0.110	0.099
-440.792	321.624	0.098	-0.186
-439.778	132.099	0.202	0.258
-438.763	-200.000	0.061	0.385
-437.749	-70.084	0.266	-0.100
-436.734	800.000	0.044	0.146
-435.719	-66.114	-0.227	0.090
-434.705	80.585	0.181	0.193
-433.690	49.767	0.070	-0.066
-432.676	-200.000	-0.004	0.019
-431.661	197.447	-0.047	0.071
-430.646	-200.000	-0.003	0.206
-429.632	206.095	0.190	0.293
-428.617	73.483	0.164	-0.170
-427.603	130.565	-0.188	0.238
-426.588	11.697	0.189	-0.144
-425.573	238.349	-0.055	-0.090
-424.559	194.679	-0.237	0.356
-423.544	487.070	0.262	0.593
-422.530	-27.768	0.155	0.089
-421.515	154.442	0.141	-0.191
-420.500	436.306	0.055	0.118
-419.486	26.365	-0.259	0.214
-418.471	10.308	0.112	0.085
-417.457	154.760	-0.138	-0.187
-416.442	-10.953	-0.108	0.071
-415.428	249.042	0.009	-0.015
-414.413	444.802	0.110	-0.240
-413.398	38.856	0.173	0.153
-412.384	-200.000	-0.045	-0.230
-411.369	-200.000	-0.020	0.121
-410.355	-200.000	-0.008	0.135
-409.340	-112.509	0.061	-0.012
-408.325	800.000	-0.051	0.201
-407.311	-38.362	-0.338	0.177
-406.296	-200.000	-0.015	0.142
-405.282	-200.000	-0.038	0.517
-404.267	212.862	-0.053	-0.082
-403.252	78.289	0.174	0.184
-402.238	-160.157	0.269	-0.014
-401.223	-66.314	0.190	-0.075
-400.209	93.245	0.101	-0.113
-399.194	800.000	0.059	-0.199
-398.179	475.031	0.131	0.293
-397.165	-41.126	0.322	0.164
-396.150	-85.296	-0.080	-0.025
-395.136	33.854	0.210	-0.181
-394.121	617.273	0.036	-0.090
-393.106	-106.679	0.315	0.069
-392.092	197.668	-0.095	0.144
-391.077	102.944	-0.136	0.157
-390.063	636.141	-0.101	0.254
-389.048	-200.000	-0.093	-0.440
-388.033	-200.000	0.052	0.362
-387.019	-25.700	-0.158	-0.092
-386.004	-144.953	-0.445	0.040
-384.990	800.000	-0.037	-0.117
-383.975	800.000	-0.026	-0.077
-382.960	25.481	-0.178	0.147
-381.946	-200.000	-0.004	-0.251
-380.931	63.593	0.149	-0.148
-379.917	34.593	-0.249	-0.215
-378.902	-173.546	0.093	-0.003
-377.888	-28.247	0.123	-0.070
-376.873	196.913	0.035	0.052
-375.858	-63.538	0.223	0.091
-374.844	186.018	0.288	-0.423
-373.829	800.000	0.073	0.285
-372.815	-200.000	0.006	0.311
-371.800	96.357	-0.087	-0.099
-370.785	497.004	0.073	-0.165
-369.771	451.700	0.053	-0.117
-368.756	-53.973	-0.094	0.043
-367.742	-200.000	0.045	0.405
-366.727	-200.000	0.033	-0.146
-365.712	-200.000	-0.004	0.084
-364.698	800.000	0.122	-0.336
-363.683	-64.392	0.213	-0.086
-362.669	-166.783	-0.130	-0.005
-361.654	-89.694	0.337	-0.097
-360.639	-122.202	0.213	-0.034
-359.625	-38.166	0.085	-0.045
-358.610	-67.050	0.196	0.076
-357.596	26.058	-0.252	-0.208
-356.581	32.089	-0.181	0.155
-355.566	-115.505	0.202	-0.038
-354.552	359.429	0.080	0.158
-353.537	209.828	0.276	0.428
-352.523	-200.000	-0.009	0.131
-351.508	634.895	0.070	-0.176
-350.493	-44.612	0.192	-0.095
-349.479	164.694	-0.132	0.183
-348.464	-145.301	-0.122	-0.011
-347.450	-49.035	0.206	0.097
-346.435	-166.121	-0.175	0.007
-345.420	58.528	-0.033	-0.032
-344.406	-200.000	-0.002	-0.348
-343.391	-200.000	0.015	0.245
-342.377	145.594	-0.161	0.212
-341.362	263.656	-0.192	0.329
-340.348	-89.096	-0.203	0.059
-339.333	107.057	0.305	0.358
-338.318	-11.572	-0.036	-0.023
-337.304	100.056	0.064	-0.073
-336.289	7.320	-0.077	0.057
-335.275	510.695	-0.119	-0.274
-334.260	800.000	-0.115	-0.395
-333.245	155.381	0.211	0.287
-332.231	567.689	-0.099	-0.238
-331.216	-111.987	0.312	-0.062
-330.202	-50.315	0.406	0.189
-329.187	-200.000	-0.019	0.200
-328.172	800.000	-0.037	0.131
-327.158	-200.000	-0.028	-0.145
-326.143	-25.908	0.125	0.072
-325.129	-50.664	0.298	0.139
-324.114	-73.274	-0.137	0.050
-323.099	-68.999	-0.147	-0.056
-322.085	800.000	-0.091	-0.256
-321.070	314.289	-0.030	-0.056
-320.056	158.942	-0.081	-0.111
-319.041	104.596	0.084	-0.097
-318.026	20.832	0.310	-0.248
-317.012	-88.460	-0.715	0.211
-315.997	-200.000	0.048	-0.396
-314.983	-200.000	0.002	-0.040
-313.968	-200.000	-0.023	-0.166
-312.953	800.000	0.021	-0.063
-311.939	-10.638	0.399	0.260
-310.924	800.000	-0.063	0.247
-309.910	394.821	-0.077	0.158
-308.895	-103.886	0.333	-0.077
-307.880	272.407	-0.218	0.380
-306.866	-98.524	0.218	-0.055
-305.851	-116.754	0.093	0.017
-304.837	0.445	0.239	0.168
-303.822	-45.450	-0.113	-0.055
-302.807	44.922	-0.042	-0.038
-301.793	-130.016	0.182	-0.025
-300.778	800.000	-0.054	-0.201
-299.764	-147.271	0.198	-0.017
-298.749	-72.770	0.276	-0.100
-297.735	38.098	0.155	-0.136
-296.720	69.191	0.172	0.174
-295.705	299.265	-0.143	0.260
-294.691	-103.347	-0.112	-0.026
-293.676	-109.603	-0.247	0.051
-292.662	363.576	0.091	-0.180
-291.647	-79.364	0.444	0.148
-290.632	-200.000	-0.037	0.245
-289.618	-200.000	0.008	0.489
-288.603	182.889	0.165	0.240
-287.589	36.941	0.132	-0.115
-286.574	3.742	-0.266	-0.191
-285.559	63.193	-0.067	-0.066
-284.545	-200.000	-0.001	0.061
-283.530	-50.164	-0.045	0.021
-282.516	338.725	0.038	-0.072
-281.501	201.341	-0.097	0.147
-280.486	9.901	-0.153	0.115
-279.472	-184.284	-0.269	0.004
-278.457	-200.000	0.023	0.117
-277.443	348.684	-0.183	-0.355
-276.428	-162.260	0.143	-0.007
-275.413	271.119	0.184	0.320
-274.399	-144.544	0.157	-0.014
-273.384	229.874	0.173	0.278
-272.370	-88.992	0.204	0.059
-271.355	45.097	0.010	-0.009
-270.340	-82.342	-0.454	0.146
-269.326	17.102	-0.109	0.085
-268.311	42.370	-0.164	-0.147
-267.297	379.426	-0.142	-0.286
-266.282	31.572	0.261	-0.221
-265.267	-200.000	0.011	0.196
-264.253	72.636	0.141	0.145
-263.238	800.000	-0.127	0.374
-262.224	-161.210	-0.657	0.034
-261.209	800.000	-0.018	-0.066
-260.195	800.000	-0.079	0.251
-259.180	-200.000	0.099	0.483
-258.165	398.401	0.091	0.188
-257.151	711.528	-0.075	-0.194
-256.136	-200.000	-0.021	0.107
-255.122	-73.522	0.289	-0.104
-254.107	-9.170	-0.200	-0.131
-253.092	-120.388	0.113	-0.019
-252.078	109.252	-0.197	0.232
-251.063	473.148	-0.119	-0.264
-250.049	800.000	0.031	-0.093
-249.034	-147.721	-0.210	0.017
-248.019	-30.785	0.201	-0.112
-247.005	800.000	-0.033	-0.124
-245.990	-111.466	0.130	-0.026
-244.976	800.000	0.054	0.154
-243.961	-200.000	0.006	-0.263
-242.946	-106.176	0.224	-0.049
-241.932	51.482	0.141	0.132
-240.917	-140.870	0.084	-0.009
-239.903	-93.660	0.083	0.023
-238.888	50.572	0.161	-0.149
-237.873	559.674	0.109	0.260
-236.859	43.110	0.255	-0.229
-235.844	-81.136	-0.189	-0.061
-234.830	1.683	-0.168	-0.119
-233.815	-107.927	-0.127	-0.027
-232.800	-36.687	-0.315	0.167
-231.786	-200.000	0.023	0.138
-230.771	-59.061	-0.202	0.086
-229.757	-167.258	0.089	0.004
-228.742	800.000	-0.029	0.107
-227.727	-25.001	0.324	-0.189
-226.713	800.000	-0.043	0.132
-225.698	27.814	0.448	-0.371
-224.684	191.956	0.162	0.240
-223.669	283.024	-0.107	-0.188
-222.655	800.000	-0.061	0.193
-221.640	50.225	0.489	0.454
-220.625	215.634	0.060	0.093
-219.611	-200.000	-0.006	-0.230
-218.596	194.684	0.011	0.017
-217.582	-100.058	0.336	0.082
-216.567	-118.658	0.277	-0.048
-215.552	19.986	-0.255	0.202
-214.538	-28.796	-0.193	0.109
-213.523	33.635	0.204	-0.175
-212.509	589.930	0.031	-0.076
-211.494	14.710	-0.397	-0.305
-210.479	305.189	0.146	-0.267
-209.465	-27.682	0.057	0.032
-208.450	-70.259	0.128	-0.048
-207.436	-156.680	-0.085	0.005
-206.421	800.000	0.114	0.369
-205.406	201.485	-0.128	-0.194
-204.392	87.392	-0.091	0.099
-203.377	800.000	-0.018	-0.073
-202.363	66.601	-0.237	0.236
-201.348	-65.505	-0.039	0.015
-200.333	88.512	0.112	-0.122
-199.319	-200.000	-0.041	-0.341
-198.304	-200.000	-0.067	-0.431
-197.290	150.036	0.348	-0.464
-196.275	-128.409	0.173	0.024
-195.260	-97.158	-0.187	-0.048
-194.246	-49.562	-0.200	0.093
-193.231	206.209	0.119	0.182
-192.217	-200.000	0.013	0.061
-191.202	-46.373	-0.237	0.114
-190.187	-113.764	-0.213	0.041
-189.173	-33.378	0.125	-0.068
-188.158	-32.370	0.279	0.153
-187.144	-200.000	-0.022	-0.129
-186.129	-186.412	-0.015	0.000
-185.114	-200.000	-0.004	-0.105
-184.100	-26.282	-0.175	0.101
-183.085	510.232	-0.037	0.085
-182.071	800.000	0.122	-0.352
-181.056	8.937	-0.086	0.064
-180.042	-167.752	-0.273	0.011
-179.027	-6.732	0.207	-0.138
-178.012	19.215	-0.134	-0.106
-176.998	201.057	0.089	0.134
-175.983	298.494	-0.181	-0.326
-174.969	-40.513	-0.091	-0.046
-173.954	-200.000	0.035	-0.177
-172.939	-200.000	-0.003	0.098
-171.925	-162.160	0.286	-0.014
-170.910	78.395	0.241	-0.252
-169.896	-17.050	-0.088	0.054
-168.881	800.000	0.075	0.254
-167.866	-124.386	0.219	0.033
-166.852	800.000	0.035	-0.133
-165.837	800.000	-0.074	-0.279
-164.823	-177.332	0.121	0.003
-163.808	-200.000	0.065	-0.324
-162.793	-164.101	-0.238	0.011
-161.779	-200.000	0.033	0.650
-160.764	-79.406	0.037	-0.012
-159.750	116.936	0.233	-0.280
-158.735	595.812	-0.020	-0.049
-157.720	-0.779	-0.273	0.190
-156.706	450.953	0.086	0.185
-155.691	-95.960	0.687	0.179
-154.677	33.217	0.344	-0.292
-153.662	-200.000	0.035	-0.305
-152.647	-75.406	-0.144	0.050
-151.633	-200.000	-0.019	0.204
-150.618	-24.531	-0.298	0.174
-149.604	-200.000	0.013	-0.163
-148.589	-200.000	-0.002	0.049
-147.574	800.000	-0.071	0.207
-146.560	580.475	0.104	0.251
-145.545	276.232	-0.086	0.150
-144.531	-98.550	-0.314	0.079
-143.516	-60.016	-0.140	-0.059
-142.502	-200.000	-0.022	-0.173
-141.487	-200.000	0.017	-0.280
-140.472	34.488	0.117	-0.100
-139.458	45.454	-0.180	-0.162
-138.443	-200.000	0.005	0.042
-137.429	139.645	-0.128	0.165
-136.414	-150.297	0.093	-0.007
-135.399	93.394	-0.222	-0.246
-134.385	50.831	0.110	-0.103
-133.370	800.000	0.018	0.076
-132.356	-200.000	0.035	-0.400
-131.341	-54.145	-0.292	0.130
-130.326	524.933	0.055	0.127
-129.312	-58.980	0.218	-0.092
-128.297	420.033	-0.131	0.274
-127.283	800.000	0.088	0.239
-126.268	-36.457	-0.219	0.116
-125.253	-65.552	-0.113	-0.044
-124.239	-20.826	-0.136	0.082
-123.224	-58.863	0.162	0.069
-122.210	-116.626	0.260	-0.047
-121.195	800.000	0.025	-0.087
-120.180	102.698	0.155	0.177
-119.166	800.000	-0.197	-0.535
-118.151	-26.715	0.087	-0.050
-117.137	63.154	0.311	0.305
-116.122	-133.304	-0.476	0.059
-115.107	-115.822	0.157	0.029
-114.093	-83.345	0.191	0.060
-113.078	-200.000	-0.011	-0.148
-112.064	-27.992	-0.095	0.054
-111.049	-200.000	0.039	-0.239
-110.034	-200.000	0.003	0.017
-109.020	62.710	-0.282	0.276
-108.005	103.882	0.197	-0.226
-106.991	-8.953	0.238	0.156
-105.976	-14.773	0.258	0.162
-104.962	119.776	-0.206	0.249
-103.947	-1.006	-0.232	-0.160
-102.932	-36.500	0.076	0.040
-101.918	18.254	0.299	0.233
-100.903	-137.344	0.193	-0.021
-99.889	305.749	0.244	-0.444
-98.874	141.201	0.029	0.037
-97.859	3.733	-0.083	0.059
-96.845	209.996	0.172	-0.264
-95.830	-178.977	0.039	0.001
-94.816	-200.000	0.063	-0.461
-93.801	15.334	0.106	0.081
-92.786	-33.555	-0.171	0.093
-91.772	-81.584	0.069	0.022
-90.757	-171.807	0.221	-0.007
-89.743	4.813	0.336	-0.242
-88.728	-147.024	0.437	0.037
-87.713	-54.404	-0.289	0.128
-86.699	172.234	0.142	-0.200
-85.684	-1.575	0.127	0.087
-84.670	800.000	0.061	0.223
-83.655	194.629	-0.137	0.203
-82.640	-79.114	-0.277	-0.092
-81.626	-60.574	-0.096	-0.040
-80.611	800.000	0.124	0.431
-79.597	515.785	0.083	0.190
-78.582	284.044	0.026	0.046
-77.567	-53.935	-0.120	-0.053
-76.553	-83.179	0.113	0.035
-75.538	323.607	0.151	0.282
-74.524	65.817	-0.263	0.261
-73.509	800.000	-0.021	-0.061
-72.494	444.628	0.032	0.068
-71.480	356.115	-0.146	0.285
-70.465	-13.391	0.239	-0.151
-69.451	673.729	0.055	-0.140
-68.436	-92.819	-0.286	0.078
-67.422	-144.268	-0.131	-0.012
-66.407	-126.203	-0.202	-0.029
-65.392	800.000	-0.031	0.101
-64.378	201.366	-0.025	-0.037
-63.363	-15.094	0.264	-0.165
-62.349	-76.079	-0.251	-0.087
-61.334	52.504	-1.188	-1.107
-60.319	11.771	0.906	0.680
-59.305	375.187	-0.581	-1.157
-58.290	429.930	0.703	1.486
-57.276	595.268	0.760	1.837
-56.261	-200.000	122.151	619.174
-55.246	381.724	1586.309	3181.374
-54.232	138.737	2755.568	3534.157
-53.217	95.902	2188.867	2440.888
-52.203	36.535	1614.457	1391.221
-51.188	28.132	1355.269	1116.782
-50.173	25.475	1317.099	1069.499
-49.159	51.265	1380.915	1279.622
-48.144	49.308	1394.430	1280.151
-47.130	28.468	1344.024	1109.375
-46.115	25.231	1325.483	1074.675
-45.100	25.005	1320.365	1069.130
-44.086	24.950	1317.759	1066.654
-43.071	24.842	1315.718	1064.313
-42.057	24.853	1314.193	1063.106
-41.042	24.834	1311.928	1061.119
-40.027	24.896	1310.854	1060.576
-39.013	24.896	1309.002	1059.033
-37.998	24.899	1307.121	1057.489
-36.984	24.965	1305.097	1056.198
-35.969	24.993	1303.494	1055.024
-34.954	24.975	1301.865	1053.556
-33.940	24.930	1300.796	1052.383
-32.925	25.113	1299.394	1052.284
-31.911	25.117	1297.101	1050.411
-30.896	25.002	1296.317	1049.058
-29.881	25.096	1294.863	1048.391
-28.867	25.125	1293.137	1047.122
-27.852	25.190	1291.764	1046.348
-26.838	25.044	1290.822	1044.693
-25.823	25.089	1289.109	1043.525
-24.809	25.025	1288.158	1042.344
-23.794	25.094	1286.611	1041.451
-22.779	25.220	1285.157	1040.964
-21.765	25.074	1283.770	1038.954
-20.750	25.091	1282.576	1038.041
-19.736	24.907	1281.759	1036.274
-18.721	24.970	1280.356	1035.464
-17.706	24.942	1279.100	1034.246
-16.692	24.989	1277.673	1033.322
-15.677	24.951	1276.644	1032.231
-14.663	24.941	1275.775	1031.430
-13.648	25.030	1274.282	1030.690
-12.633	25.040	1273.190	1029.823
-11.619	24.977	1272.731	1029.050
-10.604	24.944	1271.544	1027.864
-9.590	24.918	1270.973	1027.211
-8.575	24.867	1270.059	1026.140
-7.560	24.918	1268.906	1025.457
-6.546	24.979	1267.728	1024.815
-5.531	24.919	1267.175	1023.982
-4.517	24.972	1266.466	1023.676
-3.502	24.927	1266.166	1023.135
-2.487	25.028	1264.318	1022.173
-1.473	24.962	1260.693	1018.829
-0.458	23.678	1245.587	999.361
0.556	19.233	1230.134	962.893
1.571	15.815	1236.866	948.836
2.586	14.985	1251.835	955.499
3.600	14.617	1240.423	944.623
4.615	10.963	1166.704	868.916
5.629	4.128	1093.774	780.205
6.644	0.965	1075.754	751.604
7.659	0.786	1074.007	749.427
8.673	0.576	1073.438	747.923
9.688	0.754	1072.038	747.761
10.702	0.872	1069.704	746.651
11.717	5.088	1074.182	770.568
12.731	11.916	1084.162	811.597
13.746	16.122	1088.832	835.910
14.761	17.182	1089.818	841.850
15.775	16.557	1087.921	837.219
16.790	15.487	1085.911	830.311
17.804	14.888	1084.280	826.028
18.819	14.690	1082.689	823.767
19.834	14.322	1082.248	821.543
20.848	14.031	1081.823	819.713
21.863	13.663	1080.484	816.813
22.877	13.582	1080.018	815.988
23.892	13.554	1079.251	815.203
24.907	13.533	1078.313	814.315
25.921	13.652	1077.504	814.219
26.936	13.699	1076.677	813.752
27.950	13.764	1075.654	813.223
28.965	13.731	1074.768	812.320
29.980	13.673	1073.236	810.810
30.994	13.836	1072.051	810.640
32.009	13.794	1071.282	809.779
33.023	13.831	1070.086	808.984
34.038	13.747	1068.796	807.531
35.053	13.705	1068.353	806.918
36.067	13.540	1067.615	805.486
37.082	13.760	1066.298	805.490
38.096	13.727	1066.111	805.118
39.111	13.637	1065.049	803.807
40.126	13.656	1063.708	802.818
41.140	13.614	1062.500	801.631
42.155	13.543	1061.695	800.609
43.169	13.589	1060.182	799.620
44.184	13.613	1059.550	799.188
45.199	13.574	1058.468	798.114
46.213	13.576	1057.556	797.365
47.228	13.643	1056.464	796.792
48.242	13.570	1055.509	795.653
49.257	13.629	1054.403	795.032
50.271	13.605	1053.311	794.023
51.286	13.697	1052.584	793.845
52.301	13.719	1051.687	793.201
53.315	13.575	1050.557	791.591
54.330	13.623	1049.516	790.969
55.344	13.642	1048.607	790.305
56.359	13.638	1047.398	789.301
57.374	13.624	1046.485	788.479
58.388	13.561	1045.748	787.554
59.403	13.596	1044.780	786.920
60.417	13.519	1044.465	786.248
61.432	13.489	1043.599	785.383
62.447	13.520	1042.315	784.498
63.461	13.559	1041.471	783.975
64.476	13.624	1040.524	783.499
65.490	13.585	1039.645	782.585
66.505	13.546	1039.347	782.110
67.520	13.701	1038.295	781.980
68.534	13.713	1037.438	781.318
69.549	13.641	1036.807	780.438
70.563	13.539	1036.622	779.747
71.578	13.491	1035.510	778.615
72.593	13.523	1034.918	778.252
73.607	13.444	1034.210	777.283
74.622	13.494	1033.695	777.058
75.636	13.650	1032.311	776.683
76.651	13.486	1032.004	775.615
77.666	13.414	1031.634	774.931
78.680	13.464	1030.546	774.279
79.695	13.480	1030.244	774.057
80.709	13.493	1029.363	773.389
81.724	13.645	1028.293	773.226
82.739	13.609	1027.867	772.666
83.753	13.592	1027.170	771.998
84.768	13.689	1026.033	771.525
85.782	13.736	1024.921	770.840
86.797	13.714	1024.427	770.297
87.812	13.607	1023.734	769.210
88.826	13.640	1022.591	768.436
89.841	13.560	1021.787	767.394
90.855	13.715	1020.353	766.967
91.870	13.785	1019.708	766.739
92.884	13.790	1019.123	766.252
93.899	13.851	1017.821	765.486
94.914	13.868	1017.083	764.942
95.928	13.913	1016.076	764.323
96.943	13.793	1015.645	763.383
97.957	13.793	1014.709	762.609
98.972	13.759	1014.112	761.937
99.987	13.758	1013.116	761.116
101.001	13.859	1011.919	760.612
102.016	13.851	1010.893	759.737
103.030	13.847	1010.363	759.257
104.045	13.745	1009.762	758.267
105.060	13.714	1008.813	757.350
106.074	13.692	1007.995	756.569
107.089	13.716	1006.798	755.712
108.103	13.617	1006.113	754.680
109.118	13.673	1004.782	753.869
110.133	13.668	1003.644	752.928
111.147	13.674	1002.814	752.263
112.162	13.731	1001.996	751.842
113.176	13.710	1001.504	751.313
114.191	13.758	1000.804	750.936
115.206	13.702	999.866	749.911
116.220	13.772	999.094	749.585
117.235	13.731	998.288	748.727
118.249	13.723	997.608	748.118
119.264	13.744	996.435	747.263
120.279	13.533	996.008	745.928
121.293	13.726	994.785	745.816
122.308	13.684	994.119	745.061
123.322	13.645	992.901	743.905
124.337	13.766	991.483	743.322
125.352	13.726	990.530	742.363
126.366	13.621	989.862	741.326
127.381	13.703	988.575	740.662
128.395	13.868	987.517	740.540
129.410	13.776	986.594	739.373
130.424	13.834	985.743	738.928
131.439	13.804	985.001	738.170
132.454	13.839	984.273	737.716
133.468	13.795	983.378	736.786
134.483	13.816	982.772	736.357
135.497	13.823	981.970	735.726
136.512	13.766	981.177	734.813
137.527	13.718	980.102	733.731
138.541	13.849	979.486	733.782
139.556	13.921	978.369	733.197
140.570	13.873	978.378	732.931
141.585	13.881	977.297	732.092
142.600	13.909	976.232	731.350
143.614	13.884	975.441	730.582
144.629	13.942	974.763	730.268
145.643	13.997	973.667	729.620
146.658	13.935	973.249	728.974
147.673	13.978	971.858	728.054
148.687	13.870	970.982	726.859
149.702	14.001	969.967	726.611
150.716	13.893	969.375	725.631
151.731	13.902	968.507	724.956
152.746	13.986	968.115	724.963
153.760	13.960	967.360	724.222
154.775	13.981	966.659	723.724
155.789	14.060	966.126	723.603
156.804	14.007	965.728	723.012
157.819	14.098	964.866	722.699
158.833	14.007	964.272	721.794
159.848	14.133	963.570	721.752
160.862	14.049	962.504	720.527
161.877	13.998	961.278	719.321
162.892	14.002	960.152	718.433
163.906	13.995	959.460	717.822
164.921	13.934	958.650	716.891
165.935	13.966	957.848	716.363
166.950	14.133	956.771	716.216
167.964	14.096	955.910	715.346
168.979	14.079	955.540	714.932
169.994	14.051	954.385	713.887
171.008	14.072	953.878	713.534
172.023	14.181	952.782	713.120
173.037	14.170	952.266	712.624
174.052	14.310	951.660	712.707
175.067	14.175	950.817	711.433
176.081	14.224	950.602	711.417
177.096	14.293	949.637	710.929
178.110	14.251	949.421	710.524
179.125	14.248	948.750	709.946
180.140	14.378	947.918	709.813
181.154	14.075	947.987	708.515
182.169	14.274	946.985	708.550
183.183	14.200	946.382	707.719
184.198	14.441	945.643	708.128
185.213	14.315	944.803	706.902
186.227	14.194	944.535	706.124
187.242	14.321	943.716	705.989
188.256	14.385	943.178	705.797
189.271	14.301	942.313	704.729
190.286	14.348	941.183	704.021
191.300	14.152	940.863	702.892
192.315	14.109	940.554	702.417
193.329	14.229	939.645	702.182
194.344	14.401	938.741	702.169
195.359	14.384	937.881	701.392
196.373	14.432	937.839	701.501
197.388	14.357	937.193	700.642
198.402	14.520	936.582	700.806
199.417	14.609	936.003	700.685
200.432	14.528	935.608	699.987
201.446	14.553	934.787	699.416
202.461	14.750	934.088	699.657
203.475	14.550	934.013	698.699
204.490	14.631	932.524	697.862
205.504	14.629	932.258	697.594
206.519	14.530	931.757	696.745
207.534	14.568	931.130	696.374
208.548	14.564	930.454	695.788
209.563	14.609	929.528	695.220
210.577	14.807	928.639	695.319
211.592	14.735	928.159	694.599
212.607	14.771	927.607	694.275
213.621	14.904	926.309	693.794
214.636	14.700	926.090	692.723
215.650	14.686	925.361	692.055
216.665	14.819	924.330	691.774
217.680	14.927	923.664	691.663
218.694	15.007	923.329	691.681
219.709	14.868	922.578	690.482
220.723	14.888	921.774	689.902
221.738	14.768	921.215	688.928
222.753	14.808	920.701	688.650
223.767	14.882	919.646	688.101
224.782	14.899	919.493	687.998
225.796	15.036	919.237	688.308
226.811	14.886	918.426	687.024
227.826	14.928	917.631	686.540
228.840	14.974	917.004	686.200
229.855	15.005	915.884	685.430
230.869	15.039	915.309	685.075
231.884	14.924	914.765	684.136
232.899	14.871	914.075	683.343
233.913	14.961	913.211	683.005
234.928	14.855	912.683	682.116
235.942	14.985	911.952	682.041
236.957	15.017	911.075	681.457
237.972	15.026	910.809	681.232
238.986	14.944	909.881	680.143
240.001	15.017	909.480	680.080
241.015	14.900	909.067	679.239
242.030	15.147	907.775	679.214
243.045	15.177	907.358	678.961
244.059	15.060	906.955	678.127
245.074	15.039	906.536	677.670
246.088	15.110	905.910	677.426
247.103	15.142	905.050	676.856
248.117	15.194	904.597	676.667
249.132	15.342	903.845	676.641
250.147	15.334	902.689	675.684
251.161	15.256	902.618	675.255
252.176	15.406	901.711	675.122
253.190	15.351	900.918	674.248
254.205	15.504	900.442	674.446
255.220	15.412	899.868	673.587
256.234	15.432	899.362	673.228
257.249	15.477	898.422	672.645
258.263	15.432	897.576	671.772
259.278	15.466	896.789	671.261
260.293	15.464	896.727	671.145
261.307	15.524	896.151	670.897
262.322	15.658	895.113	670.594
263.336	15.597	894.613	669.918
264.351	15.713	893.634	669.587
265.366	15.633	893.031	668.758
266.380	15.624	892.730	668.435
267.395	15.680	892.173	668.183
268.409	15.665	891.386	667.476
269.424	15.765	890.291	666.992
270.439	15.730	889.803	666.429
271.453	15.569	889.470	665.482
272.468	15.666	888.709	665.240
273.482	15.651	888.013	664.599
274.497	15.585	887.743	664.076
275.512	15.670	887.366	664.072
276.526	15.711	886.059	663.197
277.541	15.863	885.667	663.443
278.555	15.891	885.363	663.268
279.570	15.799	884.863	662.472
280.585	15.925	883.792	662.107
281.599	15.926	882.640	661.192
282.614	15.967	882.000	660.812
283.628	15.965	881.743	660.554
284.643	15.820	881.235	659.546
285.657	15.947	880.284	659.272
286.672	15.913	880.104	658.947
287.687	15.937	879.645	658.640
288.701	15.914	878.974	657.989
289.716	16.071	878.151	657.927
290.730	15.969	877.582	657.047
291.745	16.009	876.849	656.594
292.760	16.065	876.388	656.407
293.774	16.038	875.789	655.796
294.789	16.170	874.854	655.551
295.803	16.027	873.993	654.293
296.818	16.022	873.688	653.989
297.833	16.093	872.735	653.491
298.847	16.034	872.028	652.677
299.862	16.242	871.798	653.251
300.876	16.255	871.050	652.685
301.891	16.131	870.557	651.778
302.906	16.267	869.561	651.500
303.920	16.315	869.443	651.538
304.935	16.187	868.870	650.556
305.949	16.303	868.256	650.487
306.964	16.278	867.441	649.724
307.979	16.282	867.256	649.540
308.993	16.346	866.339	649.044
310.008	16.401	865.608	648.649
311.022	16.400	864.942	648.089
312.037	16.344	864.307	647.342
313.052	16.345	864.107	647.138
314.066	16.345	863.161	646.374
315.081	16.337	862.885	646.080
316.095	16.326	862.243	645.498
317.110	16.270	862.011	645.052
318.125	16.339	861.105	644.583
319.139	16.421	860.986	644.749
320.154	16.422	860.323	644.199
321.168	16.418	859.709	643.666
322.183	16.493	859.239	643.545
323.197	16.488	859.064	643.338
324.212	16.450	858.705	642.864
325.227	16.518	857.521	642.182
326.241	16.349	857.044	641.127
327.256	16.467	856.420	641.049
328.270	16.523	855.804	640.742
329.285	16.665	854.773	640.452
330.300	16.567	854.398	639.744
331.314	16.486	854.173	639.215
332.329	16.445	853.934	638.822
333.343	16.646	853.126	638.920
334.358	16.465	852.786	637.925
335.373	16.555	852.595	638.067
336.387	16.671	852.088	638.067
337.402	16.685	851.953	637.963
338.416	16.796	851.128	637.707
339.431	16.779	851.077	637.550
340.446	16.714	851.038	637.218
341.460	16.720	850.352	636.673
342.475	16.918	849.627	636.814
343.489	16.812	849.424	636.210
344.504	16.943	848.792	636.170
345.519	16.961	848.485	635.952
346.533	16.920	847.874	635.283
347.548	16.918	846.981	634.551
348.562	16.921	846.599	634.220
349.577	16.844	846.389	633.719
350.592	16.648	846.133	632.737
351.606	16.822	844.617	632.197
352.621	16.922	844.118	632.140
353.635	16.771	843.821	631.300
354.650	16.858	843.154	631.068
355.665	17.055	842.153	630.996
356.679	17.023	841.730	630.505
357.694	17.008	841.135	629.949
358.708	17.058	840.543	629.634
359.723	16.937	839.918	628.663
360.738	17.023	839.368	628.512
361.752	17.053	838.792	628.138
362.767	17.040	837.914	627.376
363.781	17.214	837.607	627.734
364.796	17.084	837.444	627.075
365.810	17.320	836.555	627.226
366.825	17.322	836.161	626.881
367.840	17.120	835.892	625.880
368.854	17.178	835.805	625.974
369.869	17.309	835.096	625.871
370.883	17.363	834.378	625.474
371.898	17.263	834.203	624.919
372.913	17.370	833.618	624.821
373.927	17.312	832.878	623.995
374.942	17.497	832.468	624.311
375.956	17.452	832.407	624.047
376.971	17.513	831.597	623.608
377.986	17.365	831.504	622.942
379.000	17.652	830.827	623.427
380.015	17.499	830.200	622.345
381.029	17.496	829.777	621.962
382.044	17.497	829.594	621.773
383.059	17.499	828.695	621.049
384.073	17.481	828.337	620.663
385.088	17.553	827.713	620.400
386.102	17.642	827.041	620.166
387.117	17.522	826.291	619.113
388.132	17.515	825.922	618.755
389.146	17.551	825.430	618.466
390.161	17.817	824.576	618.735
391.175	17.520	824.558	617.589
392.190	17.581	823.961	617.308
393.205	17.653	823.479	617.152
394.219	17.532	823.291	616.520
395.234	17.588	822.741	616.254
396.248	17.503	822.375	615.618
397.263	17.459	822.038	615.155
398.278	17.620	821.520	615.292
399.292	17.665	821.088	615.079
400.307	17.716	820.408	614.699
401.321	17.726	819.968	614.350
402.336	17.830	819.222	614.109
403.350	17.593	819.212	613.195
404.365	17.755	818.688	613.332
405.380	17.695	818.402	612.849
406.394	17.788	817.400	612.378
407.409	17.916	817.140	612.586
408.423	18.001	817.177	612.867
409.438	17.785	817.018	611.919
410.453	17.901	816.028	611.538
411.467	17.943	815.524	611.256
412.482	17.973	815.170	611.046
413.496	17.957	814.902	610.732
414.511	17.991	814.560	610.542
415.526	17.891	814.280	609.923
416.540	18.053	813.571	609.916
417.555	17.930	812.996	608.992
418.569	18.060	812.881	609.313
419.584	18.004	812.261	608.595
420.599	18.036	811.708	608.244
421.613	114.587	1298.162	1486.826
422.628	99.175	1368.992	1486.914
