DTS Sentinel unit serial number:	SN413079Multiplexer serial number:	ORYXHardware model number:	OX4-SRSoftware version number:	ORYX F/W v4.00 Oryx Data Collector v3.7.2.0data status	okinstallation	princeton_trtdifferential loss correction	single-endedforward channel	channel 1reverse channel	N/Adate	2019/09/18time	19:14:35forward acquisition time	60.00reverse acquisition time	0.00gamma	496.2192k internal	0.2317k external	0.2317temperature offset calibration	1.0034default loss term (dB/km)	0.3790temperature slope calibration	1.0000multiplexer offset coefficient	1.0000multiplexer slope coefficient	1.0000fibre end	0.00T internal ref (°C)	34.50T ext. ref 1 (°C)	1.17T ext. ref 2 (°C)	23.81length (m)	temperature (°C)	Stokes	anti-Stokes-747.200	52.220	0.528	0.510
-746.185	215.788	-0.325	0.522
-745.171	253.239	0.116	-0.201
-744.156	192.585	0.074	0.113
-743.142	-156.312	-0.156	-0.010
-742.127	-200.000	-0.005	0.312
-741.112	800.000	0.024	0.074
-740.098	269.699	0.113	0.202
-739.083	-28.549	0.100	-0.058
-738.069	68.720	-0.167	0.174
-737.054	13.495	0.066	-0.051
-736.039	65.745	-0.317	-0.325
-735.025	-128.760	0.546	-0.078
-734.010	23.575	-0.106	0.088
-732.996	-200.000	0.021	0.215
-731.981	800.000	-0.036	-0.152
-730.966	-200.000	-0.083	-0.381
-729.952	18.611	-0.164	0.133
-728.937	-130.995	-0.194	-0.026
-727.923	-157.590	-0.058	0.003
-726.908	-200.000	0.056	-0.345
-725.894	-200.000	-0.086	-0.410
-724.879	-60.338	0.209	-0.090
-723.864	364.412	0.195	-0.397
-722.850	15.010	0.201	-0.159
-721.835	-200.000	-0.009	-0.071
-720.821	-200.000	-0.014	-0.312
-719.806	-9.619	0.136	-0.091
-718.791	-40.306	-0.235	0.124
-717.777	800.000	0.050	-0.182
-716.762	220.524	0.028	-0.046
-715.748	-46.258	0.114	0.057
-714.733	71.486	0.217	-0.228
-713.718	365.644	0.051	-0.105
-712.704	-56.412	0.089	-0.040
-711.689	800.000	-0.055	-0.217
-710.675	-104.358	0.127	-0.030
-709.660	-123.315	-0.196	0.032
-708.645	-147.955	-0.156	0.013
-707.631	-79.372	-0.199	0.068
-706.616	768.172	-0.031	0.085
-705.602	326.468	0.164	0.318
-704.587	-134.519	0.044	0.005
-703.572	-129.300	0.134	0.019
-702.558	800.000	-0.041	-0.135
-701.543	-135.854	0.368	-0.044
-700.529	586.320	0.022	-0.056
-699.514	-87.967	-0.091	0.028
-698.499	-198.322	-0.187	0.001
-697.485	800.000	-0.049	0.147
-696.470	-19.027	-0.060	-0.038
-695.456	-3.696	0.445	-0.313
-694.441	-90.860	0.275	0.080
-693.426	-167.868	-0.147	0.006
-692.412	170.594	0.167	-0.242
-691.397	78.148	-0.055	-0.060
-690.383	-200.000	0.018	0.184
-689.368	413.815	-0.190	-0.408
-688.354	800.000	-0.093	-0.287
-687.339	86.730	-0.075	0.084
-686.324	-200.000	0.025	-0.276
-685.310	-36.985	-0.144	-0.078
-684.295	39.715	0.201	-0.182
-683.281	-200.000	-0.001	-0.151
-682.266	6.004	-0.060	-0.045
-681.251	-200.000	0.040	-0.242
-680.237	267.676	0.058	-0.103
-679.222	413.437	-0.166	0.356
-678.208	546.660	-0.080	0.193
-677.193	53.210	-0.155	-0.150
-676.178	23.967	0.086	0.072
-675.164	800.000	-0.069	0.201
-674.149	-151.729	0.323	0.024
-673.135	-57.891	-0.237	-0.105
-672.120	317.131	0.124	-0.237
-671.105	610.080	0.177	0.447
-670.091	199.018	0.176	0.272
-669.076	124.641	-0.116	-0.148
-668.062	-200.000	-0.001	0.135
-667.047	126.460	-0.263	-0.336
-666.032	66.279	0.082	0.085
-665.018	-200.000	0.021	-0.581
-664.003	-107.937	-0.280	-0.061
-662.989	800.000	0.043	0.156
-661.974	77.628	-0.051	0.055
-660.959	12.890	0.129	0.101
-659.945	800.000	0.078	-0.228
-658.930	-21.129	0.169	-0.104
-657.916	162.825	-0.070	-0.099
-656.901	-200.000	-0.006	0.082
-655.886	-37.627	-0.310	0.167
-654.872	-200.000	-0.038	0.236
-653.857	800.000	0.026	-0.074
-652.843	-200.000	0.013	0.210
-651.828	371.778	0.117	-0.240
-650.814	-85.466	-0.127	0.040
-649.799	-73.989	-0.252	0.092
-648.784	-9.314	0.181	0.122
-647.770	-182.750	0.192	-0.004
-646.755	800.000	-0.100	-0.358
-645.741	14.041	0.115	-0.091
-644.726	800.000	-0.037	0.117
-643.711	-9.383	0.310	-0.209
-642.697	230.440	0.092	0.151
-641.682	-154.359	-0.145	0.010
-640.668	83.954	-0.112	-0.123
-639.653	120.632	-0.138	0.173
-638.638	191.220	-0.094	0.143
-637.624	251.747	0.132	0.226
-636.609	-101.716	-0.132	0.032
-635.595	26.341	-0.194	-0.163
-634.580	23.890	0.117	0.098
-633.565	-176.119	0.317	-0.008
-632.551	-46.991	-0.142	0.070
-631.536	800.000	0.081	0.324
-630.522	-104.421	0.108	-0.025
-629.507	-106.164	-0.262	-0.059
-628.492	114.897	-0.139	-0.170
-627.478	32.758	0.165	0.144
-626.463	-199.826	-0.308	-0.002
-625.449	48.242	-0.105	-0.099
-624.434	-60.214	0.343	0.147
-623.419	15.282	0.170	0.134
-622.405	-200.000	0.053	0.254
-621.390	279.022	-0.141	0.254
-620.376	-15.149	0.208	0.134
-619.361	46.331	0.117	0.110
-618.346	800.000	-0.112	0.478
-617.332	3.886	-0.187	0.138
-616.317	-30.472	-0.161	0.092
-615.303	256.126	0.182	0.315
-614.288	-182.404	-0.116	-0.002
-613.273	397.740	-0.145	0.306
-612.259	126.944	0.012	0.015
-611.244	-150.752	-0.120	-0.009
-610.230	800.000	0.089	-0.280
-609.215	-47.239	-0.157	-0.077
-608.201	24.503	-0.156	0.130
-607.186	-123.062	-0.096	-0.016
-606.171	435.047	-0.049	-0.107
-605.157	44.497	-0.023	0.021
-604.142	196.566	-0.135	0.208
-603.128	-72.258	-0.333	0.124
-602.113	283.061	-0.138	-0.250
-601.098	-60.174	0.126	-0.054
-600.084	25.382	-0.256	-0.214
-599.069	-28.324	-0.234	-0.136
-598.055	107.763	-0.126	-0.151
-597.040	-200.000	-0.022	-0.266
-596.025	61.846	0.137	0.138
-595.011	232.514	-0.018	-0.030
-593.996	-29.662	-0.142	-0.081
-592.982	-175.295	-0.217	0.006
-591.967	92.539	-0.046	0.052
-590.952	-200.000	-0.038	0.278
-589.938	800.000	0.023	0.079
-588.923	181.487	-0.079	0.117
-587.909	-5.131	0.212	-0.147
-586.894	63.150	-0.068	-0.069
-585.879	209.510	0.212	0.334
-584.865	-200.000	-0.023	-0.136
-583.850	646.215	0.059	-0.151
-582.836	-200.000	0.043	-0.211
-581.821	722.585	-0.018	0.049
-580.806	-200.000	0.008	-0.108
-579.792	800.000	-0.108	0.414
-578.777	-87.131	-0.336	-0.103
-577.763	38.229	-0.158	0.142
-576.748	-112.597	0.232	0.047
-575.733	-52.744	0.177	0.082
-574.719	-38.264	-0.092	0.049
-573.704	800.000	0.091	0.293
-572.690	-200.000	-0.033	-0.214
-571.675	-46.501	0.064	-0.032
-570.661	-176.703	-0.343	0.009
-569.646	-140.065	-0.121	-0.013
-568.631	46.769	0.151	-0.141
-567.617	90.688	-0.130	-0.147
-566.602	159.996	-0.333	0.467
-565.588	572.789	-0.083	0.204
-564.573	-80.037	0.143	-0.048
-563.558	-90.643	-0.092	-0.027
-562.544	800.000	-0.148	0.423
-561.529	-64.460	-0.469	-0.192
-560.515	-123.256	0.406	0.065
-559.500	-200.000	0.016	0.099
-558.485	279.467	0.045	-0.082
-557.471	189.325	0.090	0.136
-556.456	405.334	-0.083	-0.176
-555.442	-110.973	-0.266	0.055
-554.427	-8.885	-0.217	0.146
-553.412	-200.000	0.019	-0.098
-552.398	-200.000	-0.044	-0.271
-551.383	-70.035	0.257	-0.098
-550.369	-200.000	0.018	-0.098
-549.354	-3.805	-0.221	0.154
-548.339	327.523	-0.136	0.262
-547.325	-60.767	-0.183	0.078
-546.310	800.000	-0.149	-0.495
-545.296	-145.161	0.068	-0.006
-544.281	-92.847	0.118	-0.033
-543.266	-200.000	0.007	0.146
-542.252	-200.000	-0.022	-0.352
-541.237	38.950	0.098	0.088
-540.223	253.044	-0.074	0.127
-539.208	-200.000	0.438	-0.001
-538.193	143.324	-0.182	0.243
-537.179	116.185	0.182	0.224
-536.164	191.524	0.043	-0.065
-535.150	-35.731	0.269	-0.146
-534.135	-25.826	-0.100	0.059
-533.121	-14.456	-0.218	-0.141
-532.106	-200.000	0.380	0.001
-531.091	-181.486	0.246	0.005
-530.077	-26.779	-0.149	-0.087
-529.062	-200.000	0.031	0.269
-528.048	49.199	-0.445	-0.420
-527.033	-200.000	-0.022	0.374
-526.018	-141.128	0.381	0.039
-525.004	-200.000	0.020	0.260
-523.989	-154.384	-0.504	-0.034
-522.975	-0.845	-0.250	-0.178
-521.960	-33.285	0.208	0.116
-520.945	-36.641	-0.275	-0.148
-519.931	-53.257	0.276	0.127
-518.916	321.433	0.045	-0.087
-517.902	85.407	-0.321	0.353
-516.887	75.639	0.281	-0.298
-515.872	22.671	-0.199	-0.164
-514.858	11.653	-0.145	0.112
-513.843	-106.960	-0.186	-0.041
-512.829	-79.818	-0.254	-0.086
-511.814	-193.827	0.293	-0.002
-510.799	102.119	-0.159	-0.187
-509.785	-63.015	0.347	0.144
-508.770	163.030	-0.099	0.140
-507.756	-30.437	-0.060	0.034
-506.741	-148.291	-0.170	-0.014
-505.726	135.543	-0.048	0.063
-504.712	1.629	0.070	-0.050
-503.697	-111.186	-0.069	-0.014
-502.683	-59.188	-0.254	0.110
-501.668	-99.913	-0.226	-0.057
-500.653	-110.815	0.328	0.068
-499.639	58.664	-0.492	-0.484
-498.624	-90.114	-0.071	0.021
-497.610	236.123	-0.136	0.225
-496.595	-200.000	0.001	-0.384
-495.581	-53.481	-0.351	-0.161
-494.566	37.365	0.286	-0.255
-493.551	185.746	-0.141	0.211
-492.537	-200.000	-0.036	-0.270
-491.522	-154.858	0.131	0.009
-490.508	800.000	0.039	0.161
-489.493	800.000	0.039	-0.154
-488.478	195.821	0.259	0.394
-487.464	215.088	0.171	-0.271
-486.449	-33.097	-0.188	-0.105
-485.435	-127.187	0.108	0.016
-484.420	-127.510	-0.109	0.016
-483.405	108.856	0.203	0.243
-482.391	17.230	0.047	0.037
-481.376	17.225	0.130	-0.104
-480.362	50.603	0.139	0.132
-479.347	96.891	0.119	-0.137
-478.332	-200.000	0.048	-0.230
-477.318	-145.811	0.219	-0.020
-476.303	242.591	-0.092	0.154
-475.289	-200.000	0.029	-0.201
-474.274	-81.364	-0.081	0.027
-473.259	-27.579	-0.336	-0.196
-472.245	28.504	0.243	-0.206
-471.230	202.248	0.115	0.178
-470.216	156.254	-0.232	0.321
-469.201	209.592	-0.089	0.140
-468.186	222.754	-0.059	0.095
-467.172	-168.155	0.163	-0.006
-466.157	-200.000	-0.004	-0.266
-465.143	17.499	0.084	0.067
-464.128	172.975	0.109	0.157
-463.113	800.000	0.032	0.121
-462.099	-160.281	-0.152	0.008
-461.084	-141.889	0.267	-0.027
-460.070	150.552	0.029	0.039
-459.055	-200.000	-0.019	0.206
-458.040	94.937	0.190	0.217
-457.026	524.199	-0.096	0.226
-456.011	63.292	-0.159	-0.160
-454.997	7.818	0.246	0.184
-453.982	-145.481	0.097	-0.009
-452.968	-121.146	0.173	0.029
-451.953	-200.000	0.019	-0.220
-450.938	224.655	0.204	-0.330
-449.924	21.881	0.190	-0.155
-448.909	189.341	-0.161	0.242
-447.895	-4.672	0.137	0.095
-446.880	206.251	-0.094	0.147
-445.865	-44.610	-0.261	0.131
-444.851	83.128	-0.157	0.171
-443.836	233.125	-0.130	-0.215
-442.822	501.225	-0.064	0.147
-441.807	-200.000	0.027	0.136
-440.792	-0.177	-0.268	-0.191
-439.778	-200.000	-0.069	-0.309
-438.763	800.000	0.033	-0.105
-437.749	-200.000	-0.019	0.253
-436.734	-4.414	-0.235	0.163
-435.719	119.494	-0.152	-0.189
-434.705	166.217	0.048	-0.068
-433.690	469.023	0.182	-0.409
-432.676	-8.811	0.065	-0.044
-431.661	800.000	-0.018	0.052
-430.646	-123.133	-0.224	0.036
-429.632	-172.735	-0.107	-0.003
-428.617	800.000	0.074	-0.235
-427.603	-200.000	-0.036	0.168
-426.588	-22.711	-0.236	-0.143
-425.573	7.587	0.157	0.118
-424.559	-170.052	0.153	-0.005
-423.544	96.170	-0.150	0.172
-422.530	-75.860	0.378	0.134
-421.515	-200.000	-0.027	0.209
-420.500	800.000	-0.055	0.157
-419.486	42.409	0.117	0.106
-418.471	63.970	-0.208	0.210
-417.457	87.579	-0.088	-0.097
-416.442	-16.382	-0.143	-0.091
-415.428	185.688	0.225	-0.334
-414.413	-200.000	-0.037	-0.182
-413.398	-200.000	-0.003	-0.083
-412.384	-114.247	0.192	-0.037
-411.369	-155.657	0.237	0.015
-410.355	-50.515	0.173	0.082
-409.340	-4.045	-0.058	0.040
-408.325	120.485	-0.189	-0.235
-407.311	627.694	-0.016	0.039
-406.296	-16.899	0.223	0.141
-405.282	-86.458	-0.114	0.035
-404.267	-127.346	0.085	-0.012
-403.252	-90.371	-0.318	-0.092
-402.238	123.687	0.107	0.134
-401.223	-200.000	0.007	0.121
-400.209	210.799	-0.111	-0.174
-399.194	800.000	0.019	-0.067
-398.179	-81.860	-0.085	0.028
-397.165	-66.444	0.129	-0.051
-396.150	-200.000	0.014	0.177
-395.136	-78.893	-0.095	-0.032
-394.121	243.447	0.212	0.355
-393.106	-200.000	0.025	0.208
-392.092	-47.763	0.164	-0.079
-391.077	800.000	-0.104	-0.328
-390.063	518.567	0.022	-0.050
-389.048	800.000	0.025	0.083
-388.033	-72.893	0.150	0.055
-387.019	144.519	-0.096	0.128
-386.004	54.843	0.221	0.213
-384.990	25.510	0.161	-0.133
-383.975	183.590	0.160	0.236
-382.960	-24.759	0.080	0.048
-381.946	800.000	0.018	0.056
-380.931	-155.942	0.214	0.014
-379.917	-186.921	-0.186	0.003
-378.902	401.026	0.075	0.157
-377.888	-20.455	0.253	0.155
-376.873	139.543	-0.124	-0.163
-375.858	302.354	-0.132	-0.243
-374.844	-152.342	0.166	-0.012
-373.829	-25.241	-0.355	-0.210
-372.815	541.431	0.064	0.151
-371.800	798.358	0.164	-0.452
-370.785	12.081	0.161	-0.124
-369.771	93.396	0.317	0.358
-368.756	353.978	-0.077	0.152
-367.742	288.632	-0.017	-0.031
-366.727	5.453	-0.278	-0.205
-365.712	51.043	-0.042	-0.039
-364.698	92.823	-0.055	-0.062
-363.683	-78.217	0.176	0.060
-362.669	-200.000	0.045	-0.199
-361.654	256.327	-0.112	-0.191
-360.639	-123.624	0.207	-0.033
-359.625	36.187	-0.324	-0.285
-358.610	-200.000	0.010	0.166
-357.596	-99.428	-0.361	-0.091
-356.581	37.014	-0.226	-0.200
-355.566	-49.461	-0.089	-0.042
-354.552	756.181	-0.079	-0.212
-353.537	-200.000	0.070	-0.515
-352.523	800.000	-0.023	0.076
-351.508	-200.000	-0.052	-0.369
-350.493	-144.858	0.235	-0.021
-349.479	-156.718	-0.149	-0.009
-348.464	317.001	0.138	0.259
-347.450	-75.451	-0.148	-0.053
-346.435	-200.000	-0.038	-0.349
-345.420	-90.692	0.068	-0.020
-344.406	-62.547	-0.053	-0.022
-343.391	92.890	0.130	0.146
-342.377	-97.567	0.098	0.025
-341.362	47.738	0.172	-0.160
-340.348	-64.224	0.438	0.178
-339.333	-27.760	0.264	0.152
-338.318	66.597	-0.066	0.067
-337.304	105.001	0.231	-0.272
-336.289	11.266	0.124	-0.095
-335.275	-86.275	-0.309	-0.095
-334.260	-34.427	-0.224	-0.122
-333.245	-200.000	-0.037	0.208
-332.231	493.714	-0.009	-0.021
-331.216	38.183	0.214	0.190
-330.202	13.499	-0.416	-0.322
-329.187	206.068	-0.240	0.373
-328.172	-200.000	0.006	0.181
-327.158	78.381	-0.132	-0.140
-326.143	-200.000	0.006	-0.120
-325.129	-8.991	-0.267	-0.178
-324.114	-200.000	-0.008	-0.354
-323.099	-200.000	0.016	-0.125
-322.085	-200.000	0.043	0.317
-321.070	20.010	-0.339	0.273
-320.056	189.170	0.280	-0.417
-319.041	-50.837	0.108	-0.050
-318.026	54.766	-0.254	-0.244
-317.012	800.000	0.119	0.383
-315.997	800.000	0.125	0.405
-314.983	21.568	0.296	-0.240
-313.968	-34.480	0.190	-0.103
-312.953	34.030	-0.171	0.148
-311.939	-25.354	0.081	-0.048
-310.924	800.000	0.110	-0.384
-309.910	63.481	0.030	0.030
-308.895	402.182	0.051	0.107
-307.880	800.000	0.059	-0.202
-306.866	-200.000	-0.027	-0.247
-305.851	-130.859	0.154	-0.021
-304.837	-81.949	0.179	-0.058
-303.822	-200.000	0.011	-0.076
-302.807	95.148	0.203	-0.230
-301.793	-119.025	-0.263	0.046
-300.778	-73.367	0.204	0.074
-299.764	-118.178	-0.161	-0.029
-298.749	526.143	-0.092	-0.215
-297.735	800.000	0.060	0.180
-296.720	-12.860	0.129	-0.084
-295.705	380.840	0.133	-0.271
-294.691	-12.671	-0.246	0.160
-293.676	800.000	-0.125	-0.355
-292.662	-27.748	-0.131	-0.076
-291.647	356.952	-0.001	-0.003
-290.632	66.659	0.063	0.063
-289.618	-26.452	-0.259	-0.151
-288.603	-200.000	0.006	0.068
-287.589	-200.000	0.013	-0.066
-286.574	-200.000	0.006	0.210
-285.559	-50.153	0.201	0.095
-284.545	-89.751	0.368	0.107
-283.530	-115.288	-0.169	0.032
-282.516	-200.000	0.020	0.177
-281.501	10.900	-0.127	0.096
-280.486	-200.000	0.014	0.221
-279.472	-44.713	0.364	-0.181
-278.457	351.111	-0.149	0.293
-277.443	800.000	-0.045	0.191
-276.428	-115.455	-0.237	0.044
-275.413	-165.651	0.295	0.013
-274.399	121.958	0.109	0.135
-273.384	156.485	-0.155	0.213
-272.370	800.000	-0.035	-0.124
-271.355	-118.718	-0.501	0.088
-270.340	-16.000	-0.274	0.173
-269.326	102.696	0.188	0.219
-268.311	-200.000	-0.023	0.234
-267.297	-90.355	-0.343	0.099
-266.282	46.894	0.166	0.153
-265.267	800.000	-0.075	-0.314
-264.253	-200.000	-0.042	-0.192
-263.238	-166.970	0.134	-0.005
-262.224	-41.522	0.307	-0.157
-261.209	-200.000	0.068	-0.417
-260.195	-79.400	0.237	0.080
-259.180	26.286	0.258	0.214
-258.165	-83.186	0.144	-0.046
-257.151	-200.000	0.039	-0.192
-256.136	1.584	-0.039	-0.028
-255.122	-131.894	0.159	-0.021
-254.107	-145.929	-0.347	-0.031
-253.092	-25.735	0.170	-0.100
-252.078	430.208	0.092	-0.199
-251.063	120.263	0.088	0.109
-250.049	464.277	0.108	0.239
-249.034	165.601	-0.220	0.308
-248.019	-13.117	0.093	-0.060
-247.005	40.842	0.172	-0.154
-245.990	800.000	-0.061	-0.207
-244.976	-52.759	-0.172	-0.079
-243.961	28.656	0.292	-0.246
-242.946	410.942	-0.081	-0.170
-241.932	86.417	-0.033	-0.036
-240.917	800.000	-0.048	-0.157
-239.903	-78.542	0.222	0.075
-238.888	-150.760	0.121	-0.009
-237.873	411.121	0.097	0.205
-236.859	49.275	0.298	0.278
-235.844	-118.261	0.281	-0.050
-234.830	-7.509	-0.094	0.063
-233.815	245.807	0.169	-0.283
-232.800	135.288	0.103	-0.133
-231.786	-200.000	-0.024	-0.124
-230.771	40.843	-0.065	-0.058
-229.757	-45.277	-0.444	0.219
-228.742	-100.426	0.340	0.084
-227.727	-200.000	0.023	0.190
-226.713	-112.667	0.274	0.054
-225.698	-200.000	0.032	0.163
-224.684	-124.239	-0.121	0.019
-223.669	235.122	0.092	0.150
-222.655	-200.000	0.006	0.058
-221.640	-38.733	0.194	0.102
-220.625	800.000	0.185	-0.549
-219.611	48.722	-0.110	0.102
-218.596	66.142	0.357	-0.360
-217.582	-59.687	-0.093	0.040
-216.567	-200.000	-0.003	-0.117
-215.552	160.137	-0.250	-0.345
-214.538	118.847	-0.020	0.024
-213.523	-109.939	-0.198	0.041
-212.509	-200.000	0.015	0.195
-211.494	63.422	0.164	-0.163
-210.479	25.735	0.181	-0.150
-209.465	-92.810	-0.267	0.074
-208.450	85.597	-0.095	0.103
-207.436	53.517	0.091	0.087
-206.421	129.489	-0.152	-0.193
-205.406	-200.000	-0.027	0.137
-204.392	800.000	-0.088	0.308
-203.377	-97.480	0.136	-0.035
-202.363	-131.601	0.136	0.018
-201.348	112.435	0.078	-0.093
-200.333	200.380	-0.096	-0.146
-199.319	-115.424	0.260	-0.049
-198.304	-112.785	0.129	-0.025
-197.290	-17.661	0.169	-0.105
-196.275	38.484	-0.227	0.201
-195.260	175.149	0.094	-0.135
-194.246	-28.248	0.160	0.092
-193.231	528.145	-0.030	0.071
-192.217	35.591	-0.163	0.142
-191.202	-2.493	0.121	0.084
-190.187	27.925	-0.115	0.096
-189.173	271.206	-0.089	0.156
-188.158	376.695	-0.113	0.229
-187.144	-200.000	0.026	-0.236
-186.129	-27.220	0.086	0.050
-185.114	381.015	-0.103	-0.210
-184.100	344.469	-0.059	-0.114
-183.085	-200.000	0.046	-0.384
-182.071	118.769	-0.252	0.309
-181.056	236.631	-0.085	-0.139
-180.042	-121.135	0.131	0.022
-179.027	-200.000	-0.020	-0.225
-178.012	242.658	0.167	-0.277
-176.998	-120.680	0.162	-0.027
-175.983	-111.009	-0.208	0.042
-174.969	-142.900	0.250	-0.024
-173.954	-13.755	-0.239	0.153
-172.939	800.000	0.028	0.090
-171.925	116.781	0.076	0.092
-170.910	-66.814	0.237	-0.093
-169.896	-200.000	-0.020	0.270
-168.881	69.686	-0.174	-0.178
-167.866	-79.738	-0.363	-0.121
-166.852	-177.001	-0.171	-0.004
-165.837	-164.842	0.179	-0.008
-164.823	161.748	-0.109	0.151
-163.808	800.000	0.051	-0.207
-162.793	41.374	0.287	0.257
-161.779	28.802	0.334	0.280
-160.764	-200.000	0.025	-0.215
-159.750	287.453	-0.201	-0.359
-158.735	-60.065	0.130	-0.055
-157.720	800.000	0.115	0.329
-156.706	-108.723	0.197	-0.042
-155.691	267.634	-0.172	0.297
-154.677	800.000	-0.102	0.279
-153.662	800.000	-0.033	0.114
-152.647	-0.623	-0.116	0.081
-151.633	303.304	0.206	-0.378
-150.618	-200.000	0.019	0.202
-149.604	800.000	0.059	0.166
-148.589	-126.907	0.047	0.007
-147.574	179.390	0.117	0.170
-146.560	77.039	0.079	0.083
-145.545	-62.779	-0.163	0.067
-144.531	-200.000	-0.008	-0.131
-143.516	739.191	-0.082	0.218
-142.502	-61.507	0.304	-0.127
-141.487	96.615	0.166	0.188
-140.472	158.203	-0.041	-0.056
-139.458	-120.214	-0.189	0.032
-138.443	5.212	0.136	-0.099
-137.429	74.145	0.132	-0.137
-136.414	-200.000	-0.027	0.290
-135.399	-200.000	-0.018	-0.225
-134.385	-36.014	-0.248	-0.133
-133.370	-57.240	-0.058	-0.025
-132.356	139.416	-0.178	0.231
-131.341	272.269	0.075	0.132
-130.326	115.204	0.146	0.176
-129.312	800.000	0.072	0.251
-128.297	-200.000	0.071	-0.484
-127.283	-44.618	0.070	0.035
-126.268	139.797	0.239	0.311
-125.253	741.293	0.031	0.082
-124.239	-200.000	-0.010	0.070
-123.224	228.640	-0.183	-0.294
-122.210	70.401	-0.376	0.384
-121.195	-200.000	0.023	-0.107
-120.180	471.023	0.103	-0.228
-119.166	109.502	0.152	-0.180
-118.151	-83.086	-0.061	-0.020
-117.137	-129.320	0.410	0.056
-116.122	-114.674	0.072	0.014
-115.107	66.546	-0.133	-0.133
-114.093	-148.967	-0.245	0.020
-113.078	13.784	0.142	0.109
-112.064	147.077	0.116	0.154
-111.049	800.000	0.079	-0.261
-110.034	200.112	-0.120	0.182
-109.020	-200.000	0.059	0.316
-108.005	316.693	-0.083	0.156
-106.991	6.117	0.428	0.313
-105.976	6.749	0.088	0.065
-104.962	141.710	0.149	0.195
-103.947	123.221	-0.052	0.064
-102.932	59.816	-0.159	-0.155
-101.918	-181.978	-0.219	-0.004
-100.903	-200.000	0.012	-0.084
-99.889	-0.334	-0.170	0.119
-98.874	137.054	-0.089	-0.115
-97.859	48.112	-0.185	0.171
-96.845	-67.757	0.210	0.081
-95.830	144.073	0.024	0.032
-94.816	-59.317	0.109	0.046
-93.801	-83.954	-0.130	0.041
-92.786	-18.483	-0.069	0.043
-91.772	-34.856	0.220	-0.119
-90.757	800.000	0.028	-0.099
-89.743	800.000	0.029	-0.107
-88.728	5.271	0.317	0.231
-87.713	-133.092	-0.193	0.024
-86.699	136.634	0.243	-0.313
-85.684	1.915	0.062	0.044
-84.670	-200.000	0.003	0.264
-83.655	4.466	0.027	0.020
-82.640	-63.572	0.188	-0.076
-81.626	-9.152	0.101	-0.067
-80.611	-54.234	-0.171	0.077
-79.597	-80.562	-0.233	0.077
-78.582	-124.480	-0.549	0.084
-77.567	254.098	0.135	0.227
-76.553	78.342	-0.239	-0.252
-75.538	86.198	-0.044	0.048
-74.524	-165.972	0.069	-0.003
-73.509	73.779	0.010	-0.011
-72.494	59.598	0.144	0.140
-71.480	370.330	-0.121	-0.241
-70.465	-200.000	0.035	-0.239
-69.451	24.495	0.007	0.006
-68.436	-200.000	-0.060	-0.361
-67.422	800.000	0.041	-0.159
-66.407	-26.604	0.139	0.080
-65.392	800.000	-0.068	0.209
-64.378	-44.274	0.245	0.121
-63.363	800.000	0.093	0.311
-62.349	-102.349	-0.146	-0.035
-61.334	110.071	-0.991	-1.173
-60.319	12.076	0.336	0.255
-59.305	800.000	-0.286	-0.863
-58.290	421.772	0.365	0.772
-57.276	377.359	0.684	1.377
-56.261	-200.000	93.362	563.989
-55.246	550.368	1376.886	3255.636
-54.232	158.827	2556.132	3500.351
-53.217	112.949	2160.773	2581.309
-52.203	46.039	1624.432	1482.216
-51.188	37.942	1362.793	1194.125
-50.173	34.725	1321.224	1138.522
-49.159	56.531	1366.213	1309.672
-48.144	59.118	1382.726	1341.072
-47.130	38.186	1342.784	1177.877
-46.115	34.703	1325.537	1141.921
-45.100	34.481	1321.234	1136.850
-44.086	34.397	1318.273	1133.757
-43.071	34.324	1316.056	1131.369
-42.057	34.344	1314.394	1130.013
-41.042	34.353	1312.199	1128.137
-40.027	34.449	1311.089	1127.704
-39.013	34.418	1309.082	1125.752
-37.998	34.381	1307.407	1124.045
-36.984	34.410	1305.378	1122.429
-35.969	34.500	1303.920	1121.660
-34.954	34.461	1302.619	1120.271
-33.940	34.488	1301.385	1119.321
-32.925	34.605	1299.611	1118.436
-31.911	34.578	1298.244	1117.056
-30.896	34.639	1296.650	1116.000
-29.881	34.540	1296.011	1114.826
-28.867	34.541	1294.320	1113.335
-27.852	34.675	1292.198	1112.241
-26.838	34.602	1291.246	1110.954
-25.823	34.601	1289.835	1109.689
-24.809	34.581	1288.773	1108.618
-23.794	34.431	1287.800	1106.864
-22.779	34.689	1285.635	1106.458
-21.765	34.608	1284.826	1105.246
-20.750	34.544	1283.502	1103.695
-19.736	34.565	1282.096	1102.563
-18.721	34.437	1281.015	1100.852
-17.706	34.566	1279.759	1100.469
-16.692	34.542	1278.374	1099.097
-15.677	34.451	1277.331	1097.636
-14.663	34.502	1276.448	1097.124
-13.648	34.408	1275.752	1095.942
-12.633	34.451	1274.533	1095.099
-11.619	34.477	1273.780	1094.557
-10.604	34.390	1273.073	1093.406
-9.590	34.505	1271.572	1092.734
-8.575	34.376	1270.862	1091.342
-7.560	34.427	1269.910	1090.770
-6.546	34.418	1269.309	1090.163
-5.531	34.431	1268.245	1089.278
-4.517	34.396	1267.499	1088.395
-3.502	34.474	1266.613	1088.037
-2.487	34.400	1265.785	1086.858
-1.473	34.190	1261.236	1081.718
-0.458	31.683	1243.903	1052.738
0.556	25.343	1223.340	998.285
1.571	19.698	1226.436	969.164
2.586	17.846	1240.941	970.019
3.600	17.355	1229.562	958.274
4.615	13.123	1158.553	880.339
5.629	5.361	1083.439	784.371
6.644	1.370	1063.593	750.248
7.659	1.175	1060.966	747.365
8.673	1.048	1060.170	746.115
9.688	1.077	1058.854	745.265
10.702	1.209	1057.262	744.728
11.717	5.721	1062.370	770.476
12.731	13.283	1072.569	815.216
13.746	17.310	1077.537	838.829
14.761	17.848	1077.170	841.118
15.775	17.070	1075.650	836.027
16.790	16.051	1073.570	829.324
17.804	15.417	1071.867	824.822
18.819	15.007	1070.858	821.959
19.834	14.750	1069.768	819.790
20.848	14.321	1069.103	817.103
21.863	14.182	1068.139	815.613
22.877	13.973	1067.630	814.126
23.892	13.953	1066.598	813.167
24.907	13.937	1066.281	812.775
25.921	13.939	1065.445	812.079
26.936	14.087	1063.984	811.614
27.950	14.158	1062.897	811.059
28.965	14.263	1061.676	810.570
29.980	14.194	1060.279	809.092
30.994	14.152	1059.745	808.410
32.009	14.219	1058.711	807.875
33.023	14.125	1057.818	806.666
34.038	14.276	1055.997	805.940
35.053	14.152	1055.883	805.179
36.067	14.009	1055.098	803.818
37.082	14.128	1054.102	803.564
38.096	14.281	1053.071	803.445
39.111	14.221	1052.545	802.681
40.126	13.991	1051.346	800.588
41.140	14.046	1050.175	799.891
42.155	13.946	1049.147	798.556
43.169	13.931	1047.877	797.446
44.184	13.872	1047.504	796.811
45.199	13.971	1046.567	796.502
46.213	14.071	1045.047	795.754
47.228	13.916	1044.469	794.502
48.242	14.089	1043.313	794.379
49.257	14.101	1042.375	793.648
50.271	14.109	1041.281	792.788
51.286	14.100	1040.692	792.223
52.301	14.060	1040.208	791.595
53.315	14.050	1038.793	790.402
54.330	14.044	1037.426	789.261
55.344	14.047	1036.412	788.436
56.359	14.071	1035.843	788.048
57.374	14.187	1034.450	787.467
58.388	14.004	1033.935	786.140
59.403	13.865	1033.577	785.142
60.417	13.985	1032.482	784.805
61.432	13.910	1031.755	783.827
62.447	13.873	1030.728	782.808
63.461	13.924	1029.962	782.392
64.476	13.897	1029.143	781.574
65.490	13.879	1028.386	780.847
66.505	13.913	1027.639	780.370
67.520	13.982	1027.184	780.280
68.534	13.981	1026.366	779.587
69.549	13.920	1025.314	778.431
70.563	13.939	1024.491	777.826
71.578	13.874	1024.079	777.143
72.593	13.915	1023.239	776.626
73.607	13.869	1022.424	775.726
74.622	13.851	1021.723	775.039
75.636	13.808	1021.237	774.402
76.651	13.785	1020.839	773.924
77.666	13.867	1019.624	773.318
78.680	13.907	1019.059	773.006
79.695	13.984	1018.555	772.914
80.709	13.943	1017.941	772.188
81.724	14.064	1017.231	772.145
82.739	14.004	1016.105	770.943
83.753	14.077	1015.482	770.737
84.768	14.194	1014.756	770.661
85.782	14.079	1013.988	769.478
86.797	14.167	1012.534	768.712
87.812	14.189	1011.619	768.055
88.826	14.166	1010.551	767.067
89.841	13.999	1010.453	766.156
90.855	14.126	1009.294	765.792
91.870	14.135	1008.563	765.214
92.884	14.309	1007.061	764.806
93.899	14.142	1006.829	763.795
94.914	14.248	1005.848	763.470
95.928	14.203	1005.363	762.825
96.943	14.212	1004.176	761.901
97.957	14.152	1003.254	760.858
98.972	14.156	1002.440	760.193
99.987	14.112	1001.570	759.266
101.001	14.129	1000.752	758.656
102.016	14.188	999.565	757.958
103.030	14.166	999.147	757.471
104.045	14.143	998.403	756.738
105.060	14.218	997.463	756.299
106.074	14.033	996.584	754.727
107.089	14.118	995.748	754.412
108.103	14.028	994.517	753.005
109.118	14.019	993.567	752.178
110.133	14.050	992.913	751.756
111.147	13.932	991.994	750.458
112.162	13.945	991.372	749.979
113.176	14.135	990.398	750.034
114.191	14.182	989.683	749.638
115.206	14.214	988.818	749.063
116.220	14.133	988.233	748.186
117.235	14.180	987.108	747.479
118.249	14.137	986.538	746.791
119.264	14.160	985.291	745.884
120.279	14.074	984.932	745.158
121.293	14.135	983.802	744.513
122.308	14.161	983.166	744.080
123.322	14.188	981.889	743.170
124.337	14.202	980.916	742.429
125.352	14.089	980.300	741.394
126.366	14.134	978.471	740.148
127.381	14.036	978.197	739.436
128.395	14.146	976.951	738.920
129.410	14.156	976.431	738.504
130.424	14.202	975.327	737.808
131.439	14.307	973.981	737.189
132.454	14.270	973.896	736.894
133.468	14.168	973.478	736.065
134.483	14.269	972.275	735.534
135.497	14.252	971.075	734.488
136.512	14.052	970.382	733.014
137.527	14.188	969.424	732.828
138.541	14.279	968.805	732.694
139.556	14.221	968.410	732.073
140.570	14.329	967.406	731.726
141.585	14.350	966.997	731.444
142.600	14.372	965.837	730.599
143.614	14.306	965.069	729.662
144.629	14.483	964.016	729.577
145.643	14.527	962.888	728.851
146.658	14.307	962.130	727.252
147.673	14.341	961.407	726.791
148.687	14.199	960.780	725.635
149.702	14.348	959.460	725.219
150.716	14.331	958.804	724.585
151.731	14.319	958.235	724.041
152.746	14.340	957.375	723.417
153.760	14.356	956.636	722.864
154.775	14.308	956.594	722.563
155.789	14.466	955.723	722.524
156.804	14.414	954.797	721.533
157.819	14.478	954.283	721.359
158.833	14.495	953.392	720.694
159.848	14.473	952.711	720.024
160.862	14.366	952.101	719.034
161.877	14.543	951.085	718.966
162.892	14.442	949.800	717.497
163.906	14.418	949.035	716.754
164.921	14.412	948.097	715.954
165.935	14.395	947.360	715.264
166.950	14.509	946.161	714.782
167.964	14.512	945.437	714.187
168.979	14.472	944.303	713.093
169.994	14.510	944.061	713.013
171.008	14.473	943.208	712.146
172.023	14.435	942.597	711.460
173.037	14.546	941.709	711.201
174.052	14.613	940.890	710.804
175.067	14.576	940.276	710.117
176.081	14.496	940.302	709.735
177.096	14.451	939.644	708.986
178.110	14.551	938.631	708.581
179.125	14.536	938.016	707.993
180.140	14.518	937.805	707.694
181.154	14.602	937.162	707.501
182.169	14.701	936.460	707.326
183.183	14.639	936.058	706.698
184.198	14.753	935.089	706.389
185.213	14.761	934.296	705.761
186.227	14.847	933.611	705.543
187.242	14.645	933.488	704.535
188.256	14.733	932.944	704.433
189.271	14.720	932.064	703.652
190.286	14.733	930.858	702.736
191.300	14.590	930.564	701.850
192.315	14.611	929.998	701.448
193.329	14.686	929.101	701.023
194.344	14.625	928.732	700.428
195.359	14.759	927.743	700.181
196.373	14.772	927.317	699.852
197.388	14.931	926.664	699.962
198.402	14.874	926.034	699.186
199.417	14.985	925.597	699.259
200.432	14.980	925.029	698.746
201.446	14.979	924.315	698.141
202.461	14.916	924.218	697.744
203.475	15.073	923.360	697.691
204.490	14.957	922.810	696.727
205.504	14.998	921.768	696.052
206.519	14.965	921.201	695.423
207.534	15.041	920.220	694.935
208.548	14.986	919.888	694.397
209.563	14.871	919.276	693.395
210.577	14.967	918.769	693.349
211.592	15.038	918.100	693.079
212.607	15.124	917.189	692.684
213.621	15.139	916.000	691.789
214.636	15.165	915.587	691.523
215.650	15.093	914.851	690.609
216.665	15.130	914.284	690.270
217.680	15.296	913.646	690.412
218.694	15.117	913.256	689.321
219.709	15.106	912.196	688.414
220.723	15.251	911.552	688.462
221.738	15.273	910.943	688.033
222.753	15.236	910.108	687.190
223.767	15.272	909.526	686.837
224.782	15.220	909.418	686.479
225.796	15.329	908.513	686.184
226.811	15.346	907.630	685.522
227.826	15.270	906.643	684.410
228.840	15.250	906.147	683.890
229.855	15.384	905.652	684.002
230.869	15.422	904.783	683.443
231.884	15.300	904.532	682.696
232.899	15.311	903.484	681.888
233.913	15.291	902.748	681.189
234.928	15.316	902.084	680.729
235.942	15.322	901.934	680.583
236.957	15.289	901.376	679.968
237.972	15.426	900.468	679.776
238.986	15.332	899.849	678.867
240.001	15.177	899.521	677.934
241.015	15.181	898.944	677.457
242.030	15.434	897.839	677.585
243.045	15.466	897.326	677.264
244.059	15.372	897.152	676.697
245.074	15.468	896.383	676.441
246.088	15.455	895.616	675.751
247.103	15.391	894.826	674.838
248.117	15.559	894.480	675.195
249.132	15.676	893.515	674.877
250.147	15.571	893.464	674.355
251.161	15.677	892.762	674.191
252.176	15.643	891.944	673.377
253.190	15.762	891.139	673.185
254.205	15.711	890.494	672.435
255.220	15.769	889.674	671.987
256.234	15.841	889.045	671.741
257.249	15.895	888.139	671.213
258.263	15.758	887.822	670.368
259.278	15.856	886.802	669.929
260.293	15.954	886.137	669.757
261.307	16.034	885.768	669.736
262.322	15.917	885.365	668.906
263.336	15.973	884.371	668.320
264.351	15.981	883.682	667.773
265.366	16.116	883.034	667.756
266.380	16.051	882.494	667.031
267.395	16.072	882.054	666.723
268.409	16.100	881.207	666.134
269.424	16.064	880.420	665.341
270.439	16.034	879.777	664.676
271.453	16.055	879.425	664.434
272.468	16.170	878.326	663.997
273.482	16.106	877.621	663.155
274.497	16.131	877.107	662.805
275.512	16.152	876.738	662.552
276.526	16.120	876.754	662.379
277.541	16.042	875.990	661.436
278.555	16.399	875.000	662.028
279.570	16.290	874.303	661.016
280.585	16.218	873.724	660.238
281.599	16.160	872.871	659.308
282.614	16.279	872.323	659.303
283.628	16.207	871.855	658.609
284.643	16.282	871.260	658.394
285.657	16.179	870.778	657.568
286.672	16.319	870.045	657.502
287.687	16.315	869.328	656.887
288.701	16.398	868.795	656.750
289.716	16.357	868.086	655.994
290.730	16.318	867.632	655.443
291.745	16.390	867.302	655.415
292.760	16.253	866.897	654.519
293.774	16.481	865.813	654.527
294.789	16.400	865.372	653.823
295.803	16.495	864.408	653.401
296.818	16.414	863.682	652.484
297.833	16.364	863.388	652.012
298.847	16.360	862.476	651.249
299.862	16.430	862.144	651.209
300.876	16.439	861.784	650.917
301.891	16.467	861.227	650.543
302.906	16.625	860.458	650.515
303.920	16.618	859.899	650.007
304.935	16.654	859.136	649.511
305.949	16.722	858.658	649.351
306.964	16.478	858.303	648.090
307.979	16.621	857.525	647.993
308.993	16.689	857.032	647.823
310.008	16.623	856.522	647.129
311.022	16.843	855.574	647.195
312.037	16.720	855.040	646.268
313.052	16.823	854.386	646.108
314.066	16.636	853.912	644.979
315.081	16.719	853.490	644.920
316.095	16.667	853.152	644.410
317.110	16.681	852.449	643.873
318.125	16.640	851.863	643.219
319.139	16.613	851.415	642.719
320.154	16.755	850.854	642.779
321.168	16.750	850.192	642.203
322.183	16.892	849.733	642.336
323.197	16.812	849.286	641.638
324.212	16.723	848.896	640.950
325.227	16.779	848.181	640.568
326.241	16.961	847.722	640.853
327.256	16.861	847.133	639.970
328.270	16.807	846.947	639.570
329.285	16.830	846.119	638.974
330.300	16.800	845.176	638.092
331.314	16.824	844.837	637.872
332.329	16.848	844.403	637.579
333.343	16.988	843.903	637.672
334.358	16.936	843.415	637.050
335.373	16.894	843.308	636.754
336.387	17.046	842.528	636.680
337.402	17.105	842.221	636.611
338.416	16.986	841.988	635.933
339.431	17.006	841.728	635.756
340.446	17.120	841.502	635.959
341.460	17.205	841.044	635.872
342.475	17.177	840.606	635.381
343.489	17.139	839.752	634.537
344.504	17.150	839.853	634.600
345.519	17.140	839.243	634.046
346.533	17.418	838.333	634.335
347.548	17.118	838.118	633.000
348.562	17.326	837.201	633.027
349.577	17.339	836.901	632.791
350.592	17.337	836.209	632.202
351.606	17.198	835.756	631.290
352.621	17.337	834.959	631.146
353.635	17.315	834.492	630.656
354.650	17.333	833.697	630.067
355.665	17.278	833.299	629.505
356.679	17.348	832.549	629.142
357.694	17.366	832.041	628.769
358.708	17.296	831.477	628.030
359.723	17.380	830.804	627.775
360.738	17.488	830.314	627.749
361.752	17.365	829.658	626.743
362.767	17.349	829.010	626.139
363.781	17.363	828.529	625.774
364.796	17.435	828.038	625.611
365.810	17.456	827.542	625.260
366.825	17.595	826.935	625.254
367.840	17.519	826.952	624.932
368.854	17.612	826.060	624.547
369.869	17.474	825.799	623.785
370.883	17.584	825.463	623.880
371.898	17.567	825.163	623.537
372.913	17.780	824.386	623.673
373.927	17.735	823.778	622.994
374.942	17.751	823.488	622.777
375.956	17.716	823.033	622.251
376.971	17.735	822.668	621.989
377.986	17.702	822.290	621.529
379.000	17.900	821.502	621.599
380.015	17.953	821.246	621.542
381.029	17.932	820.581	620.908
382.044	18.066	819.858	620.790
383.059	18.011	819.156	620.005
384.073	17.850	819.071	619.304
385.088	17.826	818.749	618.916
386.102	17.757	818.088	618.113
387.117	17.848	817.535	617.970
388.132	17.899	816.743	617.501
389.146	17.841	816.102	616.751
390.161	17.847	815.959	616.611
391.175	17.999	814.784	616.218
392.190	18.032	814.618	616.155
393.205	18.059	814.160	615.853
394.219	17.883	814.122	615.134
395.234	17.979	813.501	614.957
396.248	17.932	813.333	614.607
397.263	18.040	812.730	614.485
398.278	17.963	812.354	613.868
399.292	18.061	811.811	613.757
400.307	17.995	811.242	613.037
401.321	17.955	811.051	612.694
402.336	18.095	810.236	612.526
403.350	18.018	809.911	611.949
404.365	18.050	809.760	611.897
405.380	18.015	809.418	611.458
406.394	18.049	808.749	611.019
407.409	18.246	808.458	611.451
408.423	18.345	807.981	611.387
409.438	18.213	807.617	610.586
410.453	18.299	807.196	610.522
411.467	18.344	806.463	610.074
412.482	18.300	806.361	609.787
413.496	18.374	805.678	609.479
414.511	18.291	805.594	609.066
415.526	18.345	805.055	608.798
416.540	18.403	804.455	608.496
417.555	18.499	803.711	608.220
418.569	18.672	803.541	608.649
419.584	18.482	803.394	607.813
420.599	18.414	802.923	607.161
421.613	108.033	1287.377	1452.358
422.628	93.062	1357.959	1452.459
