DTS Sentinel unit serial number:	SN413079Multiplexer serial number:	ORYXHardware model number:	OX4-SRSoftware version number:	ORYX F/W v4.00 Oryx Data Collector v3.7.2.0data status	okinstallation	princeton_trtdifferential loss correction	single-endedforward channel	channel 1reverse channel	N/Adate	2019/09/15time	01:18:35forward acquisition time	60.00reverse acquisition time	0.00gamma	496.2192k internal	0.2321k external	0.2321temperature offset calibration	0.9982default loss term (dB/km)	0.3790temperature slope calibration	1.0000multiplexer offset coefficient	1.0000multiplexer slope coefficient	1.0000fibre end	0.00T internal ref (°C)	31.94T ext. ref 1 (°C)	4.51T ext. ref 2 (°C)	26.83length (m)	temperature (°C)	Stokes	anti-Stokes-747.200	-136.568	0.254	-0.030
-746.185	800.000	0.117	0.366
-745.171	69.549	0.180	0.187
-744.156	289.955	0.033	0.060
-743.142	4.507	-0.195	0.144
-742.127	-19.097	-0.128	-0.080
-741.112	-103.713	0.200	0.047
-740.098	326.775	0.061	0.118
-739.083	-148.770	-0.205	0.017
-738.069	800.000	0.055	0.244
-737.054	800.000	0.088	0.251
-736.039	15.968	-0.373	-0.296
-735.025	-200.000	0.053	0.331
-734.010	-164.914	-0.246	-0.011
-732.996	392.006	0.142	-0.299
-731.981	-78.277	-0.108	0.037
-730.966	487.615	-0.087	-0.200
-729.952	171.301	-0.120	-0.173
-728.937	-87.231	-0.122	-0.037
-727.923	414.790	0.074	0.160
-726.908	-147.982	0.276	0.023
-725.894	166.964	-0.131	0.188
-724.879	-11.018	0.136	-0.091
-723.864	800.000	-0.066	-0.255
-722.850	-17.158	0.140	-0.089
-721.835	20.513	-0.168	-0.137
-720.821	36.818	-0.155	0.138
-719.806	-119.782	-0.157	0.027
-718.791	57.514	-0.342	0.337
-717.777	-86.015	0.141	0.044
-716.762	-35.990	-0.083	0.045
-715.748	-102.027	-0.098	0.024
-714.733	114.033	-0.090	0.110
-713.718	-200.000	0.009	0.164
-712.704	-200.000	-0.030	-0.327
-711.689	-55.633	0.255	-0.115
-710.675	-37.571	0.216	0.116
-709.660	-154.350	-0.289	0.020
-708.645	-152.547	-0.128	0.009
-707.631	230.523	0.075	0.124
-706.616	-30.595	0.158	-0.090
-705.602	-170.877	-0.326	-0.011
-704.587	-0.446	0.109	0.078
-703.572	318.909	0.178	0.341
-702.558	45.684	0.253	0.236
-701.543	-147.824	0.141	0.012
-700.529	-200.000	-0.018	0.260
-699.514	138.425	-0.202	0.268
-698.499	-38.511	0.274	0.146
-697.485	101.905	-0.120	-0.141
-696.470	800.000	-0.029	-0.099
-695.456	-149.638	0.100	-0.008
-694.441	183.393	0.173	-0.257
-693.426	-24.516	-0.208	-0.125
-692.412	145.793	0.128	0.174
-691.397	-200.000	-0.017	0.103
-690.383	-74.760	-0.107	0.039
-689.368	-27.956	0.039	-0.023
-688.354	365.891	0.169	-0.344
-687.339	-23.256	-0.152	-0.092
-686.324	15.292	-0.180	0.142
-685.310	-200.000	0.014	-0.143
-684.295	-66.729	-0.104	-0.041
-683.281	-38.538	-0.321	0.171
-682.266	-16.037	0.221	-0.142
-681.251	-121.885	-0.197	0.033
-680.237	-123.501	0.278	-0.045
-679.222	-99.616	-0.199	-0.050
-678.208	800.000	0.059	0.249
-677.193	800.000	0.022	-0.068
-676.178	245.495	-0.140	-0.238
-675.164	196.470	-0.288	-0.442
-674.149	-200.000	-0.050	-0.353
-673.135	-12.105	0.220	-0.145
-672.120	800.000	0.099	0.425
-671.105	-200.000	0.005	-0.260
-670.091	800.000	0.084	-0.253
-669.076	82.154	0.106	0.115
-668.062	800.000	-0.063	0.227
-667.047	-200.000	0.044	0.217
-666.032	215.447	-0.039	0.063
-665.018	70.398	-0.040	0.042
-664.003	-200.000	-0.001	-0.077
-662.989	-133.347	0.491	0.062
-661.974	-69.590	-0.179	-0.069
-660.959	433.934	-0.112	-0.245
-659.945	-200.000	0.016	0.165
-658.930	-50.853	-0.191	-0.091
-657.916	99.001	-0.158	-0.184
-656.901	2.742	-0.134	0.098
-655.886	-111.871	-0.448	-0.091
-654.872	168.055	-0.104	0.148
-653.857	-42.208	-0.274	0.141
-652.843	-37.177	-0.348	-0.187
-651.828	-63.641	0.386	-0.160
-650.814	-59.623	-0.098	-0.042
-649.799	-26.895	-0.050	-0.030
-648.784	-185.456	0.240	-0.004
-647.770	-200.000	-0.011	-0.138
-646.755	253.523	0.074	0.128
-645.741	67.879	0.059	0.061
-644.726	282.349	0.135	-0.243
-643.711	-82.351	-0.094	0.031
-642.697	-115.310	-0.397	0.076
-641.682	269.795	0.068	-0.121
-640.668	123.411	-0.109	0.137
-639.653	-200.000	-0.013	0.104
-638.638	-44.108	0.209	0.106
-637.624	345.180	-0.185	-0.367
-636.609	800.000	-0.027	-0.098
-635.595	15.823	-0.072	0.057
-634.580	-74.557	-0.168	-0.061
-633.565	-99.474	-0.047	-0.012
-632.551	-53.618	-0.110	0.051
-631.536	-16.148	-0.244	-0.156
-630.522	-44.707	-0.157	-0.079
-629.507	-93.225	0.041	-0.012
-628.492	10.498	0.237	-0.182
-627.478	-103.540	0.186	-0.044
-626.463	-200.000	0.091	-0.429
-625.449	-118.577	-0.329	0.059
-624.434	-121.440	-0.253	-0.042
-623.419	-200.000	0.003	-0.267
-622.405	-1.618	0.163	0.116
-621.390	-25.752	0.257	0.152
-620.376	800.000	0.015	-0.052
-619.361	-200.000	0.019	-0.165
-618.346	800.000	0.075	-0.315
-617.332	-200.000	-0.001	0.232
-616.317	800.000	0.019	0.056
-615.303	686.977	0.121	0.319
-614.288	226.270	0.086	0.141
-613.273	-120.346	0.051	0.009
-612.259	-61.051	0.190	0.081
-611.244	-200.000	0.012	-0.232
-610.230	84.365	0.074	-0.081
-609.215	800.000	0.044	0.172
-608.201	2.015	0.035	0.026
-607.186	15.660	-0.215	0.170
-606.171	7.626	0.095	-0.072
-605.157	-115.935	-0.116	0.022
-604.142	-78.570	-0.163	0.056
-603.128	-67.973	-0.336	0.132
-602.113	601.453	-0.090	-0.225
-601.098	-5.429	-0.104	0.072
-600.084	38.950	-0.217	-0.195
-599.069	189.300	-0.052	-0.078
-598.055	153.335	0.031	-0.043
-597.040	-78.725	-0.237	-0.081
-596.025	-200.000	0.047	-0.257
-595.011	222.400	-0.070	-0.112
-593.996	168.483	0.328	-0.470
-592.982	-51.918	0.505	-0.236
-591.967	-44.881	-0.146	0.073
-590.952	51.925	0.140	-0.134
-589.938	-111.300	-0.171	0.035
-588.923	3.777	0.163	0.120
-587.909	800.000	-0.079	-0.277
-586.894	-91.650	-0.271	-0.077
-585.879	223.956	0.179	-0.290
-584.865	127.562	0.162	-0.207
-583.850	525.274	-0.046	0.109
-582.836	-67.703	0.543	-0.214
-581.821	-60.242	-0.109	0.046
-580.806	-200.000	-0.012	0.081
-579.792	103.878	-0.099	-0.117
-578.777	-114.561	-0.218	0.042
-577.763	800.000	0.094	0.312
-576.748	-200.000	0.003	-0.206
-575.733	430.172	-0.211	-0.458
-574.719	-200.000	0.027	0.292
-573.704	186.540	-0.053	-0.079
-572.690	-127.867	-0.115	0.017
-571.675	-30.963	0.205	-0.116
-570.661	-120.477	0.078	-0.013
-569.646	159.253	-0.192	0.267
-568.631	317.992	-0.091	0.173
-567.617	800.000	-0.014	-0.061
-566.602	-200.000	-0.072	0.472
-565.588	79.180	-0.124	-0.133
-564.573	30.985	-0.076	0.066
-563.558	-127.385	0.329	-0.048
-562.544	50.369	-0.173	0.164
-561.529	290.873	-0.069	0.126
-560.515	10.950	0.213	-0.163
-559.500	-200.000	-0.060	-0.442
-558.485	-42.300	-0.137	-0.070
-557.471	50.385	-0.261	0.248
-556.456	-174.025	0.240	-0.007
-555.442	-200.000	0.006	0.096
-554.427	677.091	-0.034	0.090
-553.412	-200.000	-0.022	0.245
-552.398	145.865	-0.267	0.359
-551.383	-3.759	-0.227	-0.158
-550.369	114.990	-0.117	0.144
-549.354	-22.512	-0.279	0.169
-548.339	212.007	0.159	0.251
-547.325	29.457	-0.122	-0.104
-546.310	-200.000	-0.013	0.059
-545.296	-29.063	0.208	0.119
-544.281	695.859	-0.161	0.424
-543.266	24.704	-0.138	-0.115
-542.252	-200.000	-0.015	-0.316
-541.237	-0.975	-0.270	0.192
-540.223	-40.522	0.249	-0.129
-539.208	-70.845	-0.088	-0.033
-538.193	380.329	0.036	-0.073
-537.179	410.883	-0.142	0.303
-536.164	27.488	0.295	0.248
-535.150	267.496	-0.040	-0.071
-534.135	42.324	-0.165	0.151
-533.121	129.591	-0.108	-0.138
-532.106	-167.021	-0.139	0.006
-531.091	75.037	0.089	-0.094
-530.077	-1.826	-0.135	0.095
-529.062	-41.656	0.098	-0.050
-528.048	-186.546	-0.045	0.001
-527.033	-146.145	0.191	-0.017
-526.018	-54.221	-0.206	-0.094
-525.004	800.000	-0.022	0.086
-523.989	-21.901	0.205	0.125
-522.975	108.151	0.107	0.128
-521.960	165.701	-0.049	-0.070
-520.945	8.512	-0.336	0.253
-519.931	800.000	-0.056	-0.173
-518.916	44.362	0.251	-0.230
-517.902	800.000	0.082	-0.294
-516.887	-149.742	-0.417	0.033
-515.872	800.000	-0.051	-0.194
-514.858	-199.815	0.172	-0.001
-513.843	-200.000	0.008	-0.111
-512.829	104.458	0.145	-0.170
-511.814	-158.818	-0.157	0.009
-510.799	90.895	0.233	0.262
-509.785	168.311	0.082	-0.117
-508.770	-200.000	-0.067	0.296
-507.756	-200.000	0.007	0.279
-506.741	-137.554	-0.134	-0.015
-505.726	398.758	-0.110	0.231
-504.712	32.051	0.080	0.069
-503.697	461.598	0.133	0.297
-502.683	50.416	-0.144	-0.137
-501.668	-41.786	-0.262	0.135
-500.653	-70.344	-0.181	-0.069
-499.639	120.324	-0.007	0.009
-498.624	-72.081	0.200	0.074
-497.610	-200.000	-0.039	-0.281
-496.595	-2.366	-0.107	-0.075
-495.581	-165.716	-0.176	0.008
-494.566	-200.000	-0.045	-0.255
-493.551	114.615	-0.304	-0.371
-492.537	800.000	-0.056	0.175
-491.522	462.383	0.059	-0.131
-490.508	-200.000	-0.017	0.179
-489.493	-149.164	-0.112	0.009
-488.478	-62.067	0.094	0.039
-487.464	253.203	0.080	0.137
-486.449	-92.843	0.339	-0.095
-485.435	252.823	0.106	-0.181
-484.420	-7.280	-0.124	0.084
-483.405	-38.983	0.195	0.103
-482.391	800.000	-0.055	-0.170
-481.376	-200.000	-0.043	0.315
-480.362	239.523	-0.147	0.245
-479.347	-86.119	-0.053	-0.016
-478.332	-66.173	-0.049	-0.020
-477.318	-125.553	-0.220	0.033
-476.303	-145.504	0.260	0.023
-475.289	-200.000	-0.030	0.162
-474.274	-115.708	0.297	0.056
-473.259	13.636	0.228	-0.177
-472.245	-73.092	0.212	-0.078
-471.230	-200.000	0.039	0.199
-470.216	800.000	0.018	-0.077
-469.201	654.343	-0.106	0.271
-468.186	-116.460	0.311	0.057
-467.172	40.145	0.105	0.094
-466.157	633.888	0.071	0.180
-465.143	9.003	0.053	0.040
-464.128	416.733	0.008	-0.018
-463.113	-126.343	0.206	-0.031
-462.099	176.262	-0.165	-0.239
-461.084	257.811	-0.192	-0.330
-460.070	-200.000	0.018	0.381
-459.055	704.780	-0.117	-0.310
-458.040	-27.121	-0.361	0.210
-457.026	-146.010	0.105	-0.009
-456.011	-118.200	-0.227	-0.040
-454.997	-156.267	0.086	0.005
-453.982	-88.452	-0.057	-0.017
-452.968	-200.000	-0.006	0.242
-451.953	37.357	0.231	0.205
-450.938	-69.902	0.126	0.048
-449.924	328.751	-0.202	0.389
-448.909	-200.000	-0.007	0.152
-447.895	-86.054	0.045	-0.014
-446.880	33.535	-0.318	0.276
-445.865	-200.000	-0.042	0.196
-444.851	-88.553	0.404	0.120
-443.836	-104.871	-0.250	0.057
-442.822	485.748	0.058	-0.133
-441.807	-52.632	0.202	0.093
-440.792	800.000	-0.196	0.751
-439.778	-116.864	-0.300	0.055
-438.763	-200.000	-0.027	-0.180
-437.749	171.736	0.125	0.179
-436.734	-200.000	-0.016	0.213
-435.719	55.183	-0.124	-0.120
-434.705	365.746	-0.034	-0.069
-433.690	-62.457	0.289	-0.120
-432.676	800.000	-0.072	-0.237
-431.661	-65.022	0.139	-0.056
-430.646	750.554	0.072	0.194
-429.632	-29.614	0.169	0.096
-428.617	-62.244	-0.141	0.059
-427.603	-96.138	0.106	-0.028
-426.588	-200.000	0.069	-0.312
-425.573	-124.146	-0.135	-0.021
-424.559	-102.728	-0.134	-0.032
-423.544	-200.000	-0.075	-0.420
-422.530	800.000	-0.039	-0.113
-421.515	69.742	-0.193	0.198
-420.500	396.727	0.067	-0.140
-419.486	-117.468	0.111	-0.020
-418.471	51.001	-0.182	0.172
-417.457	-86.168	0.257	0.079
-416.442	-200.000	0.015	0.132
-415.428	-195.124	-0.238	0.002
-414.413	800.000	-0.065	-0.208
-413.398	-177.645	0.295	0.007
-412.384	-128.288	-0.368	-0.052
-411.369	26.175	0.312	0.260
-410.355	581.140	0.036	-0.089
-409.340	-35.127	-0.243	0.132
-408.325	-108.241	0.310	-0.067
-407.311	295.066	-0.133	0.242
-406.296	800.000	-0.075	0.248
-405.282	-106.589	0.136	-0.030
-404.267	56.443	0.186	-0.181
-403.252	-26.323	0.228	0.133
-402.238	-70.682	0.086	-0.032
-401.223	-70.287	-0.154	-0.058
-400.209	104.748	0.150	-0.176
-399.194	800.000	-0.052	0.189
-398.179	-152.727	0.081	-0.006
-397.165	-176.715	0.042	0.001
-396.150	176.392	-0.131	-0.190
-395.136	52.402	0.199	0.189
-394.121	46.242	0.072	-0.067
-393.106	-78.341	-0.255	-0.087
-392.092	16.513	0.022	-0.018
-391.077	-200.000	0.005	-0.031
-390.063	305.898	-0.108	-0.200
-389.048	-127.480	0.355	-0.051
-388.033	800.000	-0.086	-0.314
-387.019	-73.052	-0.387	0.141
-386.004	800.000	0.142	0.433
-384.990	157.311	0.062	-0.085
-383.975	176.459	-0.120	0.173
-382.960	-133.801	0.359	-0.045
-381.946	-163.597	-0.232	-0.011
-380.931	-23.277	0.080	0.048
-379.917	-71.414	0.096	-0.036
-378.902	213.629	0.167	-0.263
-377.888	-44.380	0.025	-0.012
-376.873	116.465	-0.224	-0.273
-375.858	800.000	-0.061	-0.221
-374.844	129.706	0.073	-0.093
-373.829	103.399	-0.212	0.248
-372.815	46.449	0.107	0.099
-371.800	-176.506	-0.125	-0.003
-370.785	-200.000	0.019	0.329
-369.771	1.668	0.265	0.190
-368.756	800.000	0.041	0.139
-367.742	154.884	-0.112	0.153
-366.727	-32.893	-0.184	-0.102
-365.712	800.000	-0.057	-0.213
-364.698	-103.983	-0.234	-0.054
-363.683	381.487	0.161	-0.329
-362.669	800.000	0.033	-0.129
-361.654	-86.861	-0.174	0.053
-360.639	25.779	-0.334	0.277
-359.625	-31.140	0.129	-0.072
-358.610	-200.000	0.040	0.192
-357.596	18.962	-0.052	0.042
-356.581	618.495	0.087	0.217
-355.566	-122.893	0.187	-0.030
-354.552	800.000	-0.043	-0.166
-353.537	24.047	0.359	-0.295
-352.523	377.006	0.075	0.153
-351.508	-10.779	0.088	-0.058
-350.493	-57.164	-0.212	-0.093
-349.479	-200.000	-0.016	-0.082
-348.464	179.523	0.030	0.044
-347.450	166.698	-0.020	-0.028
-346.435	61.349	0.168	-0.166
-345.420	-200.000	-0.019	0.208
-344.406	203.377	0.037	-0.056
-343.391	57.076	0.345	0.335
-342.377	292.054	-0.222	-0.403
-341.362	-200.000	-0.008	0.334
-340.348	-26.746	0.039	0.023
-339.333	13.606	0.185	-0.143
-338.318	-81.526	0.230	0.075
-337.304	-150.732	-0.313	-0.024
-336.289	-112.797	-0.167	-0.033
-335.275	-17.257	0.151	-0.094
-334.260	800.000	-0.067	0.239
-333.245	216.971	0.100	0.159
-332.231	-69.772	-0.226	-0.086
-331.216	-184.582	-0.225	0.004
-330.202	369.856	0.058	-0.117
-329.187	595.793	0.077	-0.189
-328.172	-92.835	0.325	-0.090
-327.158	-200.000	0.017	0.314
-326.143	800.000	0.044	0.186
-325.129	-1.526	0.166	-0.117
-324.114	32.627	-0.190	-0.164
-323.099	800.000	-0.026	0.079
-322.085	149.581	0.113	0.152
-321.070	196.834	0.143	0.217
-320.056	-55.853	0.145	0.065
-319.041	-121.285	0.307	-0.051
-318.026	47.234	0.040	0.037
-317.012	66.715	0.169	-0.171
-315.997	276.170	-0.024	-0.043
-314.983	-28.038	0.246	-0.141
-313.968	-192.617	0.273	-0.003
-312.953	-27.718	-0.188	-0.108
-311.939	-14.780	-0.031	-0.020
-310.924	-124.622	0.364	-0.056
-309.910	69.674	0.148	0.152
-308.895	114.965	-0.084	-0.102
-307.880	-86.297	0.255	0.078
-306.866	516.852	0.074	-0.172
-305.851	329.931	-0.160	-0.306
-304.837	457.386	0.063	0.139
-303.822	439.594	-0.086	0.187
-302.807	-10.867	0.269	0.176
-301.793	43.165	-0.291	0.263
-300.778	-129.313	0.115	-0.016
-299.764	-135.664	-0.268	0.032
-298.749	-74.473	-0.247	0.089
-297.735	-200.000	0.002	-0.161
-296.720	514.778	0.037	0.086
-295.705	-50.648	0.183	-0.086
-294.691	-92.849	0.142	0.040
-293.676	-125.878	-0.056	-0.008
-292.662	393.553	0.118	-0.244
-291.647	103.355	0.075	-0.087
-290.632	372.520	-0.073	0.148
-289.618	-200.000	0.023	-0.126
-288.603	800.000	-0.045	-0.168
-287.589	-116.151	0.284	-0.052
-286.574	-200.000	-0.015	-0.176
-285.559	-89.584	-0.363	0.106
-284.545	800.000	-0.080	-0.296
-283.530	2.892	0.246	-0.177
-282.516	-138.604	-0.106	-0.012
-281.501	302.888	0.188	0.345
-280.486	-84.427	0.243	0.076
-279.472	424.154	0.185	0.395
-278.457	-200.000	-0.118	-0.521
-277.443	-174.132	-0.211	0.006
-276.428	-120.958	0.222	0.037
-275.413	-14.859	-0.280	0.178
-274.399	-200.000	-0.034	0.218
-273.384	-143.753	0.390	-0.037
-272.370	800.000	0.059	-0.183
-271.355	-119.373	-0.656	0.113
-270.340	-200.000	-0.006	-0.287
-269.326	-200.000	-0.026	-0.126
-268.311	196.553	0.120	-0.181
-267.297	-99.498	0.140	-0.035
-266.282	-139.926	-0.274	0.029
-265.267	338.610	0.142	-0.273
-264.253	800.000	-0.046	0.186
-263.238	-137.305	0.356	0.040
-262.224	72.104	0.169	-0.174
-261.209	-98.508	-0.226	0.057
-260.195	64.434	0.050	0.050
-259.180	-52.187	-0.147	0.068
-258.165	103.198	0.214	0.249
-257.151	272.776	-0.078	0.137
-256.136	-176.252	-0.067	-0.002
-255.122	-10.838	0.133	-0.087
-254.107	99.820	0.175	0.201
-253.092	-200.000	0.042	0.271
-252.078	-162.166	-0.389	0.019
-251.063	-200.000	0.033	0.163
-250.049	304.576	-0.053	-0.098
-249.034	207.947	0.094	0.146
-248.019	179.151	0.120	-0.174
-247.005	-76.921	-0.116	-0.040
-245.990	-31.834	-0.257	-0.143
-244.976	800.000	0.052	-0.200
-243.961	-101.146	-0.104	-0.025
-242.946	297.140	0.069	-0.126
-241.932	-64.100	0.124	0.050
-240.917	4.718	0.232	-0.169
-239.903	98.684	-0.149	0.171
-238.888	183.910	-0.120	-0.176
-237.873	-200.000	-0.006	-0.235
-236.859	233.235	0.043	0.071
-235.844	-200.000	-0.079	-0.385
-234.830	143.937	-0.164	-0.217
-233.815	-107.503	-0.375	-0.081
-232.800	23.799	-0.072	0.058
-231.786	800.000	-0.071	0.207
-230.771	-94.188	-0.073	0.020
-229.757	11.954	-0.021	0.016
-228.742	286.844	-0.102	0.182
-227.727	69.075	-0.197	0.201
-226.713	43.516	-0.200	-0.181
-225.698	135.851	0.096	0.124
-224.684	-145.657	-0.275	0.024
-223.669	-63.261	0.202	0.083
-222.655	-200.000	0.026	0.113
-221.640	646.322	0.010	-0.027
-220.625	-144.869	0.206	0.019
-219.611	210.377	0.043	-0.066
-218.596	-13.797	-0.196	0.125
-217.582	-52.442	0.332	0.152
-216.567	131.962	0.083	0.105
-215.552	-200.000	0.022	0.167
-214.538	313.780	0.093	0.173
-213.523	289.799	-0.108	0.194
-212.509	800.000	-0.072	0.271
-211.494	800.000	-0.119	0.389
-210.479	-65.130	-0.346	0.138
-209.465	45.576	-0.109	0.100
-208.450	-200.000	0.028	0.243
-207.436	159.453	0.180	-0.248
-206.421	36.253	0.320	-0.279
-205.406	116.814	-0.076	-0.093
-204.392	41.835	-0.113	-0.101
-203.377	93.483	-0.286	0.321
-202.363	-105.352	-0.212	0.048
-201.348	442.843	0.142	-0.307
-200.333	387.898	-0.078	0.160
-199.319	-200.000	-0.058	-0.397
-198.304	537.434	0.088	0.206
-197.290	-200.000	-0.004	-0.087
-196.275	800.000	-0.021	-0.059
-195.260	-56.445	-0.295	0.130
-194.246	800.000	0.052	0.159
-193.231	-131.107	0.235	-0.031
-192.217	-200.000	-0.015	-0.285
-191.202	789.946	0.064	-0.174
-190.187	492.371	-0.043	0.098
-189.173	-15.594	0.127	-0.080
-188.158	93.005	-0.110	0.123
-187.144	-118.972	-0.249	0.043
-186.129	163.812	-0.155	-0.216
-185.114	-73.201	0.109	0.039
-184.100	-200.000	-0.004	0.152
-183.085	800.000	0.101	0.402
-182.071	-200.000	0.030	-0.338
-181.056	800.000	0.042	-0.163
-180.042	-54.169	-0.198	-0.089
-179.027	13.353	0.139	-0.107
-178.012	143.700	-0.257	-0.339
-176.998	-102.814	-0.085	-0.020
-175.983	748.120	0.089	0.236
-174.969	-152.538	0.055	0.004
-173.954	-163.507	0.130	0.006
-172.939	-200.000	-0.053	-0.255
-171.925	362.187	0.207	-0.410
-170.910	-34.817	-0.139	-0.075
-169.896	85.851	0.353	-0.383
-168.881	138.645	-0.155	0.201
-167.866	174.309	0.134	0.191
-166.852	800.000	-0.070	0.217
-165.837	-12.843	0.106	-0.068
-164.823	-60.733	0.119	-0.050
-163.808	131.272	0.246	-0.313
-162.793	-103.349	-0.232	-0.054
-161.779	-72.086	0.123	0.045
-160.764	620.248	-0.028	0.071
-159.750	-46.315	0.020	0.010
-158.735	-38.912	0.079	-0.041
-157.720	-113.309	0.287	-0.056
-156.706	-200.000	0.034	0.177
-155.691	-200.000	-0.038	-0.377
-154.677	-116.185	0.172	-0.032
-153.662	-90.601	0.038	-0.011
-152.647	390.555	0.107	-0.220
-151.633	-200.000	0.020	-0.090
-150.618	-65.867	-0.128	0.051
-149.604	-182.998	0.338	0.006
-148.589	95.082	-0.249	0.280
-147.574	24.847	-0.149	-0.122
-146.560	-35.048	0.312	0.168
-145.545	16.430	-0.115	-0.090
-144.531	136.008	0.117	-0.150
-143.516	-119.077	0.123	-0.021
-142.502	37.837	0.083	-0.073
-141.487	-47.182	0.037	-0.018
-140.472	800.000	0.059	-0.199
-139.458	448.729	0.041	-0.089
-138.443	-89.428	0.268	-0.078
-137.429	109.510	-0.058	0.069
-136.414	286.569	0.129	0.229
-135.399	222.045	-0.125	-0.198
-134.385	79.370	-0.112	0.119
-133.370	800.000	-0.120	0.424
-132.356	138.501	0.181	-0.235
-131.341	44.082	0.091	-0.082
-130.326	-200.000	0.005	-0.197
-129.312	-83.581	0.238	0.075
-128.297	-74.826	0.284	-0.100
-127.283	240.328	0.034	-0.057
-126.268	665.770	0.079	0.202
-125.253	-41.494	0.222	-0.113
-124.239	14.620	-0.193	0.149
-123.224	351.638	-0.079	-0.154
-122.210	-171.495	0.386	0.013
-121.195	-119.985	0.347	-0.059
-120.180	-149.547	-0.271	-0.021
-119.166	55.485	-0.114	0.109
-118.151	-51.691	0.254	0.117
-117.137	800.000	-0.045	0.166
-116.122	204.723	0.058	-0.089
-115.107	-148.143	0.097	0.008
-114.093	143.211	-0.216	-0.283
-113.078	97.417	0.187	-0.212
-112.064	-200.000	0.028	-0.290
-111.049	226.588	-0.055	0.088
-110.034	560.786	0.125	0.298
-109.020	-194.694	0.247	-0.002
-108.005	-6.319	0.243	-0.164
-106.991	800.000	-0.022	-0.066
-105.976	-85.087	0.413	-0.127
-104.962	613.124	-0.094	-0.233
-103.947	-200.000	-0.041	0.422
-102.932	-89.724	-0.334	-0.096
-101.918	-200.000	-0.003	-0.043
-100.903	-200.000	-0.005	-0.441
-99.889	-15.782	0.195	0.122
-98.874	737.278	0.016	-0.042
-97.859	314.554	-0.108	0.200
-96.845	-200.000	-0.054	0.433
-95.830	-66.494	0.462	0.181
-94.816	-200.000	-0.006	0.194
-93.801	-136.211	0.113	-0.013
-92.786	-20.576	0.107	0.065
-91.772	-74.036	0.040	0.014
-90.757	-190.270	-0.299	-0.003
-89.743	-166.322	0.017	-0.001
-88.728	-7.862	-0.065	0.043
-87.713	-150.691	-0.149	0.011
-86.699	604.013	0.109	-0.266
-85.684	-200.000	-0.018	0.215
-84.670	-125.468	-0.304	0.046
-83.655	338.005	0.160	-0.307
-82.640	-71.120	0.196	-0.072
-81.626	-85.139	0.105	0.032
-80.611	800.000	-0.021	-0.086
-79.597	66.687	0.058	0.058
-78.582	-112.982	0.355	-0.069
-77.567	-62.361	0.129	0.053
-76.553	-146.860	0.061	0.005
-75.538	34.320	-0.024	-0.021
-74.524	-76.060	-0.121	0.042
-73.509	-200.000	-0.013	-0.144
-72.494	-87.164	0.282	-0.084
-71.480	39.705	0.157	-0.139
-70.465	-200.000	-0.054	0.293
-69.451	-123.953	-0.239	-0.037
-68.436	60.354	0.040	0.039
-67.422	-129.910	0.242	0.033
-66.407	-17.218	-0.193	-0.120
-65.392	171.418	0.178	-0.251
-64.378	-26.573	0.270	-0.155
-63.363	-68.732	-0.235	-0.089
-62.349	-35.905	0.101	0.054
-61.334	73.540	-1.158	-1.193
-60.319	66.156	0.407	0.406
-59.305	800.000	-0.461	-1.392
-58.290	246.583	0.520	0.862
-57.276	276.160	0.776	1.356
-56.261	-200.000	96.169	596.361
-55.246	653.588	1371.486	3461.108
-54.232	199.707	2545.904	3842.721
-53.217	120.379	2137.738	2611.339
-52.203	44.016	1601.158	1443.695
-51.188	35.441	1339.498	1156.342
-50.173	32.327	1297.877	1102.153
-49.159	54.645	1344.685	1275.389
-48.144	56.702	1361.710	1303.738
-47.130	35.548	1320.797	1140.652
-46.115	32.099	1303.291	1105.230
-45.100	31.927	1298.412	1100.042
-44.086	31.868	1295.715	1097.366
-43.071	31.799	1293.598	1095.130
-42.057	31.888	1290.780	1093.217
-41.042	31.845	1289.538	1091.871
-40.027	31.991	1287.612	1091.047
-39.013	31.817	1286.583	1089.122
-37.998	32.016	1283.791	1087.870
-36.984	31.979	1282.901	1086.858
-35.969	31.898	1281.011	1084.746
-34.954	31.958	1278.734	1083.121
-33.940	32.036	1277.739	1082.681
-32.925	32.073	1276.723	1081.992
-31.911	32.130	1274.600	1080.478
-30.896	31.981	1273.512	1078.658
-29.881	31.941	1272.734	1077.726
-28.867	32.055	1270.874	1076.760
-27.852	31.950	1269.823	1075.224
-26.838	32.123	1267.802	1074.460
-25.823	31.995	1267.341	1073.299
-24.809	31.994	1265.595	1071.768
-23.794	32.034	1264.493	1071.022
-22.779	32.002	1263.178	1069.684
-21.765	31.989	1262.005	1068.574
-20.750	31.915	1260.322	1066.689
-19.736	32.032	1258.713	1065.947
-18.721	32.032	1257.529	1064.900
-17.706	31.873	1256.950	1063.469
-16.692	31.835	1255.910	1062.331
-15.677	31.822	1254.711	1061.201
-14.663	31.915	1253.564	1060.713
-13.648	31.907	1252.188	1059.463
-12.633	31.861	1251.472	1058.552
-11.619	31.825	1250.464	1057.455
-10.604	31.924	1249.437	1057.103
-9.590	31.680	1248.879	1055.215
-8.575	31.859	1247.652	1055.145
-7.560	31.884	1246.984	1054.677
-6.546	31.948	1245.915	1054.094
-5.531	31.810	1245.044	1052.540
-4.517	31.837	1244.370	1052.078
-3.502	31.968	1243.258	1051.829
-2.487	31.867	1242.633	1050.697
-1.473	31.779	1238.459	1046.633
-0.458	30.426	1223.435	1026.419
0.556	25.626	1206.447	989.155
1.571	21.903	1211.828	972.878
2.586	20.996	1226.670	979.612
3.600	20.398	1215.909	967.598
4.615	15.530	1144.301	884.944
5.629	7.898	1072.072	791.208
6.644	4.718	1052.592	761.224
7.659	4.433	1050.347	758.143
8.673	4.403	1049.215	757.110
9.688	4.467	1047.295	755.968
10.702	4.615	1045.980	755.674
11.717	8.866	1051.937	780.651
12.731	15.872	1061.775	822.215
13.746	18.806	1064.241	838.393
14.761	17.894	1063.061	832.939
15.775	16.806	1060.945	825.908
16.790	15.868	1058.796	819.597
17.804	15.139	1057.214	814.757
18.819	14.739	1056.069	811.858
19.834	14.388	1055.518	809.655
20.848	14.382	1054.379	808.682
21.863	14.095	1053.988	806.920
22.877	13.924	1052.815	805.121
23.892	13.877	1052.459	804.548
24.907	13.927	1051.346	803.870
25.921	13.986	1050.598	803.512
26.936	14.027	1049.363	802.692
27.950	14.015	1047.553	801.180
28.965	14.107	1046.194	800.511
29.980	14.317	1044.867	800.435
30.994	14.313	1044.001	799.680
32.009	14.234	1042.922	798.405
33.023	14.236	1041.866	797.535
34.038	14.109	1041.022	796.212
35.053	14.131	1039.505	795.085
36.067	14.000	1039.356	794.275
37.082	14.038	1038.221	793.520
38.096	14.212	1037.270	793.554
39.111	14.116	1036.610	792.520
40.126	14.031	1035.397	791.115
41.140	14.025	1033.940	789.907
42.155	13.973	1032.881	788.779
43.169	13.913	1031.966	787.728
44.184	13.829	1030.982	786.509
45.199	13.856	1030.225	785.987
46.213	13.864	1029.362	785.300
47.228	13.982	1028.248	784.937
48.242	14.064	1026.822	784.166
49.257	14.066	1025.876	783.382
50.271	14.027	1025.005	782.465
51.286	14.195	1024.441	782.754
52.301	14.156	1023.222	781.573
53.315	14.004	1022.186	780.000
54.330	14.076	1021.109	779.445
55.344	13.983	1020.266	778.297
56.359	13.995	1019.374	777.604
57.374	13.923	1018.825	776.780
58.388	13.889	1017.985	775.913
59.403	13.787	1017.227	774.790
60.417	13.821	1016.029	773.968
61.432	13.798	1015.596	773.461
62.447	13.891	1014.488	772.983
63.461	13.698	1013.956	771.610
64.476	13.639	1013.219	770.708
65.490	13.759	1012.234	770.445
66.505	13.842	1011.533	770.231
67.520	13.807	1010.913	769.528
68.534	13.774	1010.321	768.856
69.549	13.820	1009.304	768.224
70.563	13.832	1008.844	767.866
71.578	13.686	1007.930	766.425
72.593	13.709	1007.142	765.865
73.607	13.770	1006.345	765.473
74.622	13.711	1006.086	764.937
75.636	13.730	1005.294	764.352
76.651	13.747	1004.635	763.863
77.666	13.675	1003.942	762.939
78.680	13.689	1003.457	762.565
79.695	13.617	1002.831	761.692
80.709	13.840	1002.031	762.040
81.724	13.885	1001.485	761.763
82.739	14.028	1000.356	761.494
83.753	14.164	999.718	761.562
84.768	14.222	998.682	760.970
85.782	14.182	998.490	760.573
86.797	14.254	997.218	759.866
87.812	14.189	996.236	758.757
88.826	14.199	995.125	757.886
89.841	14.223	994.125	757.166
90.855	14.186	993.708	756.616
91.870	14.162	992.906	755.830
92.884	14.212	991.786	755.137
93.899	14.326	991.136	755.092
94.914	14.312	990.547	754.510
95.928	14.266	989.482	753.425
96.943	14.324	988.497	752.874
97.957	14.113	988.156	751.590
98.972	14.230	986.901	751.101
99.987	14.190	986.134	750.270
101.001	14.251	985.012	749.624
102.016	14.232	984.274	748.908
103.030	14.180	984.146	748.512
104.045	14.230	982.992	747.794
105.060	14.128	982.158	746.633
106.074	13.941	981.287	745.068
107.089	14.010	979.717	744.119
108.103	13.793	979.737	743.096
109.118	13.902	978.452	742.542
110.133	13.847	977.599	741.583
111.147	13.995	976.392	741.262
112.162	13.908	975.534	740.157
113.176	13.904	975.127	739.766
114.191	13.995	974.234	739.427
115.206	13.945	973.420	738.523
116.220	14.006	972.353	737.919
117.235	13.971	971.672	737.181
118.249	13.907	971.007	736.328
119.264	13.870	970.251	735.527
120.279	13.906	969.220	734.837
121.293	13.911	967.984	733.857
122.308	13.819	967.274	732.847
123.322	13.836	966.480	732.257
124.337	13.848	965.157	731.245
125.352	13.765	964.504	730.319
126.366	13.789	963.415	729.535
127.381	13.919	962.415	729.282
128.395	13.870	961.551	728.349
129.410	13.879	960.433	727.477
130.424	13.989	959.323	727.055
131.439	13.949	959.158	726.691
132.454	14.074	958.611	726.758
133.468	13.952	957.516	725.329
134.483	14.018	956.583	724.849
135.497	14.104	955.713	724.500
136.512	14.060	955.280	723.915
137.527	13.981	953.987	722.526
138.541	14.095	953.480	722.575
139.556	14.156	952.612	722.117
140.570	14.237	952.045	721.975
141.585	14.332	951.288	721.751
142.600	14.282	950.457	720.837
143.614	14.335	949.449	720.239
144.629	14.252	948.705	719.251
145.643	14.180	948.150	718.456
146.658	14.100	946.607	716.880
147.673	14.169	945.531	716.298
148.687	14.119	944.892	715.538
149.702	13.981	944.084	714.269
150.716	14.224	943.197	714.579
151.731	14.021	942.832	713.367
152.746	14.150	942.085	713.292
153.760	14.157	941.390	712.733
154.775	14.201	940.752	712.374
155.789	14.180	940.129	711.751
156.804	14.238	939.283	711.292
157.819	14.300	938.783	711.117
158.833	14.303	938.095	710.548
159.848	14.366	937.446	710.262
160.862	14.348	936.138	709.127
161.877	14.174	935.515	707.854
162.892	14.156	934.415	706.885
163.906	14.215	933.049	706.039
164.921	14.098	932.833	705.317
165.935	14.275	931.448	704.955
166.950	14.316	931.002	704.730
167.964	14.356	929.953	704.042
168.979	14.038	929.522	702.310
169.994	14.269	928.490	702.441
171.008	14.372	927.713	702.226
172.023	14.489	926.903	702.044
173.037	14.506	926.071	701.422
174.052	14.469	925.674	700.906
175.067	14.183	925.151	699.246
176.081	14.167	924.680	698.762
177.096	14.289	923.806	698.548
178.110	14.102	923.259	697.290
179.125	14.198	922.521	697.075
180.140	14.399	921.820	697.324
181.154	14.411	921.609	697.150
182.169	14.547	920.631	696.920
183.183	14.700	919.925	696.961
184.198	14.488	919.625	695.788
185.213	14.519	918.912	695.317
186.227	14.558	917.825	694.593
187.242	14.725	917.330	694.854
188.256	14.683	917.011	694.376
189.271	14.641	916.030	693.399
190.286	14.395	915.293	691.758
191.300	14.307	914.188	690.494
192.315	14.230	913.952	689.937
193.329	14.316	913.443	689.847
194.344	14.403	912.794	689.655
195.359	14.490	912.193	689.500
196.373	14.560	911.726	689.375
197.388	14.638	911.039	689.118
198.402	14.716	910.801	689.197
199.417	14.727	910.782	689.168
200.432	15.014	909.351	689.205
201.446	14.784	909.355	688.204
202.461	14.791	909.011	687.910
203.475	14.971	907.850	687.710
204.490	14.842	907.165	686.599
205.504	14.808	906.568	685.949
206.519	14.914	905.988	685.885
207.534	14.785	905.064	684.596
208.548	14.707	904.594	683.861
209.563	14.827	903.740	683.646
210.577	14.938	903.183	683.616
211.592	14.890	902.715	683.005
212.607	14.963	901.719	682.489
213.621	14.806	901.564	681.671
214.636	14.956	900.367	681.316
215.650	14.862	900.040	680.625
216.665	15.137	898.694	680.666
217.680	15.036	898.234	679.847
218.694	15.146	897.751	679.870
219.709	15.001	897.404	678.959
220.723	15.046	896.316	678.255
221.738	15.009	895.736	677.609
222.753	15.022	894.871	676.944
223.767	15.101	894.604	677.002
224.782	15.006	894.287	676.319
225.796	15.237	893.484	676.584
226.811	15.160	892.940	675.804
227.826	15.091	892.039	674.784
228.840	15.177	891.444	674.619
229.855	15.180	890.281	673.691
230.869	15.028	889.844	672.691
231.884	14.945	889.315	671.896
232.899	15.169	888.592	672.190
233.913	15.100	887.228	670.824
234.928	15.031	887.156	670.434
235.942	14.926	886.826	669.701
236.957	15.053	885.946	669.486
237.972	14.969	885.474	668.735
238.986	15.020	885.139	668.626
240.001	14.986	884.515	667.962
241.015	15.179	883.995	668.278
242.030	15.199	883.113	667.631
243.045	15.292	882.371	667.384
244.059	15.147	882.208	666.622
245.074	15.136	881.655	666.103
246.088	15.261	880.833	665.922
247.103	15.270	880.149	665.382
248.117	15.421	879.524	665.445
249.132	15.565	879.524	665.958
250.147	15.560	879.206	665.640
251.161	15.678	878.253	665.325
252.176	15.704	877.414	664.736
253.190	15.704	876.706	664.141
254.205	15.613	876.543	663.597
255.220	15.665	875.163	662.698
256.234	15.671	874.830	662.412
257.249	15.773	874.235	662.304
258.263	15.644	873.565	661.231
259.278	15.708	873.215	661.161
260.293	15.584	872.710	660.231
261.307	15.803	872.013	660.505
262.322	15.954	870.955	660.235
263.336	16.030	869.986	659.742
264.351	15.927	869.612	658.997
265.366	16.051	869.185	659.100
266.380	15.880	868.562	657.900
267.395	15.987	867.432	657.406
268.409	15.917	866.888	656.659
269.424	15.870	866.313	655.986
270.439	15.916	865.462	655.461
271.453	15.677	864.922	654.063
272.468	15.861	864.077	654.081
273.482	15.846	864.013	653.917
274.497	15.906	863.619	653.793
275.512	15.902	862.847	653.138
276.526	15.840	862.456	652.541
277.541	15.913	861.613	652.132
278.555	16.017	861.335	652.263
279.570	16.118	860.628	652.063
280.585	16.061	860.077	651.367
281.599	16.013	859.018	650.322
282.614	15.928	858.545	649.578
283.628	15.958	858.002	649.226
284.643	15.956	857.769	648.986
285.657	16.023	856.784	648.440
286.672	15.941	856.364	647.749
287.687	16.087	855.249	647.407
288.701	16.020	854.959	646.873
289.716	16.124	854.693	647.013
290.730	16.212	853.784	646.607
291.745	16.254	852.960	646.085
292.760	16.112	852.734	645.314
293.774	16.343	852.208	645.742
294.789	16.174	851.517	644.517
295.803	16.090	850.421	643.308
296.818	16.330	849.837	643.725
297.833	16.217	849.532	643.008
298.847	16.243	848.666	642.396
299.862	16.149	848.699	642.003
300.876	16.364	847.464	641.831
301.891	16.355	847.006	641.393
302.906	16.346	846.481	640.902
303.920	16.450	846.506	641.259
304.935	16.495	845.720	640.778
305.949	16.477	844.914	640.043
306.964	16.380	844.243	639.110
307.979	16.485	843.639	638.993
308.993	16.449	843.119	638.408
310.008	16.468	842.702	638.110
311.022	16.495	842.244	637.808
312.037	16.518	841.450	637.235
313.052	16.354	841.154	636.336
314.066	16.325	840.236	635.478
315.081	16.273	840.139	635.150
316.095	16.498	838.852	634.969
317.110	16.353	838.811	634.337
318.125	16.322	838.367	633.827
319.139	16.371	837.763	633.500
320.154	16.434	837.314	633.337
321.168	16.409	836.788	632.791
322.183	16.504	836.118	632.584
323.197	16.475	835.646	632.064
324.212	16.306	835.480	631.249
325.227	16.516	834.310	631.092
326.241	16.326	834.137	630.199
327.256	16.416	833.376	629.901
328.270	16.432	832.773	629.452
329.285	16.369	832.747	629.142
330.300	16.576	831.379	628.822
331.314	16.524	831.039	628.316
332.329	16.520	831.098	628.290
333.343	16.492	830.447	627.638
334.358	16.588	829.949	627.563
335.373	16.672	829.780	627.691
336.387	16.689	829.353	627.376
337.402	16.747	828.944	627.223
338.416	16.771	828.815	627.160
339.431	16.948	828.420	627.459
340.446	16.904	827.776	626.757
341.460	16.934	827.781	626.813
342.475	17.011	826.971	626.428
343.489	17.042	826.682	626.270
344.504	17.171	825.782	626.007
345.519	17.117	825.199	625.313
346.533	17.088	825.025	625.018
347.548	17.056	824.286	624.286
348.562	16.686	823.999	622.651
349.577	16.826	823.497	622.732
350.592	16.838	822.624	622.061
351.606	16.776	822.089	621.372
352.621	16.897	821.153	621.054
353.635	16.887	820.781	620.683
354.650	16.923	820.120	620.259
355.665	17.013	819.354	619.953
356.679	17.107	819.010	619.981
357.694	17.064	818.079	619.067
358.708	17.150	817.830	619.136
359.723	16.946	817.108	617.791
360.738	17.044	816.957	617.977
361.752	17.039	815.979	617.167
362.767	17.206	815.283	617.194
363.781	17.152	814.947	616.688
364.796	17.265	814.877	616.988
365.810	17.273	814.628	616.774
366.825	17.242	814.198	616.283
367.840	17.360	813.495	616.125
368.854	17.313	813.200	615.677
369.869	17.296	812.511	615.037
370.883	17.291	812.363	614.854
371.898	17.372	812.167	614.945
372.913	17.600	811.282	615.042
373.927	17.301	811.085	613.758
374.942	17.393	810.841	613.853
375.956	17.581	810.125	613.934
376.971	17.499	809.701	613.262
377.986	17.568	809.450	613.268
379.000	17.511	808.845	612.548
380.015	17.631	808.140	612.390
381.029	17.683	807.414	611.974
382.044	17.571	807.099	611.279
383.059	17.772	806.428	611.438
384.073	17.514	806.184	610.274
385.088	17.423	805.611	609.461
386.102	17.449	804.847	608.922
387.117	17.492	804.221	608.549
388.132	17.495	803.973	608.316
389.146	17.617	803.078	608.021
390.161	17.590	802.900	607.737
391.175	17.698	802.679	607.900
392.190	17.533	801.788	606.583
393.205	17.694	801.153	606.624
394.219	17.535	801.042	605.921
395.234	17.595	800.528	605.691
396.248	17.446	800.409	605.019
397.263	17.484	799.691	604.557
398.278	17.616	799.367	604.728
399.292	17.670	798.432	604.158
400.307	17.552	798.175	603.492
401.321	17.549	797.778	603.125
402.336	17.523	797.403	602.698
403.350	17.697	797.103	603.034
404.365	17.803	796.774	603.106
405.380	17.799	796.265	602.654
406.394	17.862	795.418	602.181
407.409	17.793	795.455	601.913
408.423	18.029	795.157	602.464
409.438	17.893	794.862	601.707
410.453	17.926	794.228	601.293
411.467	17.958	793.757	600.994
412.482	18.025	793.221	600.773
413.496	18.043	793.166	600.739
414.511	18.143	792.571	600.587
415.526	18.195	792.377	600.570
416.540	18.223	791.616	600.038
417.555	18.203	791.051	599.488
418.569	18.157	790.624	598.950
419.584	18.213	790.241	598.800
420.599	18.226	789.747	598.421
421.613	156.371	1370.377	1795.549
422.628	135.246	1454.969	1795.644
