DTS Sentinel unit serial number:	SN413079Multiplexer serial number:	ORYXHardware model number:	OX4-SRSoftware version number:	ORYX F/W v4.00 Oryx Data Collector v3.7.2.0data status	okinstallation	princeton_trtdifferential loss correction	single-endedforward channel	channel 1reverse channel	N/Adate	2019/09/13time	15:34:35forward acquisition time	60.00reverse acquisition time	0.00gamma	496.2192k internal	0.2306k external	0.2306temperature offset calibration	1.0162default loss term (dB/km)	0.3790temperature slope calibration	1.0000multiplexer offset coefficient	1.0000multiplexer slope coefficient	1.0000fibre end	0.00T internal ref (°C)	35.02T ext. ref 1 (°C)	4.75T ext. ref 2 (°C)	29.55length (m)	temperature (°C)	Stokes	anti-Stokes-747.200	-30.598	0.419	0.241
-746.185	68.771	0.187	0.195
-745.171	-65.261	-0.215	0.088
-744.156	-135.672	0.370	-0.045
-743.142	134.343	-0.219	0.288
-742.127	-15.724	-0.362	-0.235
-741.112	-94.269	0.369	-0.103
-740.098	-68.521	0.400	0.158
-739.083	54.749	0.085	0.083
-738.069	317.023	0.039	0.076
-737.054	-86.353	-0.027	-0.008
-736.039	-110.988	0.092	0.019
-735.025	800.000	0.024	0.085
-734.010	499.008	-0.038	-0.089
-732.996	-13.922	0.214	-0.140
-731.981	99.750	-0.136	-0.160
-730.966	80.365	-0.069	-0.075
-729.952	101.797	0.071	-0.084
-728.937	-32.955	0.402	-0.227
-727.923	-137.388	-0.389	0.045
-726.908	-61.750	-0.100	-0.043
-725.894	800.000	0.026	-0.117
-724.879	-139.437	-0.152	0.017
-723.864	-61.845	-0.265	0.113
-722.850	304.100	-0.021	0.039
-721.835	-200.000	-0.005	0.385
-720.821	-200.000	0.022	-0.117
-719.806	800.000	-0.018	0.077
-718.791	-132.577	-0.235	-0.031
-717.777	-9.506	-0.093	-0.063
-716.762	-41.133	-0.198	0.104
-715.748	800.000	-0.053	-0.236
-714.733	129.995	-0.202	0.262
-713.718	-200.000	-0.007	0.211
-712.704	-200.000	-0.063	-0.289
-711.689	-170.553	-0.440	-0.016
-710.675	-101.322	-0.085	0.021
-709.660	175.485	-0.267	0.393
-708.645	228.391	-0.175	-0.290
-707.631	198.871	0.060	0.094
-706.616	11.840	0.136	0.106
-705.602	-100.591	0.301	0.076
-704.587	-6.080	0.246	0.171
-703.572	-49.696	0.061	0.030
-702.558	-200.000	0.021	0.295
-701.543	34.469	0.195	-0.173
-700.529	36.818	-0.139	-0.125
-699.514	519.706	-0.224	-0.532
-698.499	-95.613	0.247	-0.067
-697.485	-159.390	0.189	0.011
-696.470	57.949	-0.103	0.103
-695.456	-200.000	0.001	0.191
-694.441	193.084	0.174	-0.268
-693.426	-33.912	0.235	0.131
-692.412	-200.000	-0.014	0.119
-691.397	140.423	0.052	0.069
-690.383	-95.458	-0.314	0.086
-689.368	555.179	-0.115	-0.281
-688.354	800.000	0.050	-0.218
-687.339	-62.310	-0.342	-0.145
-686.324	-96.320	-0.206	0.055
-685.310	-200.000	0.028	-0.149
-684.295	-89.337	-0.284	-0.085
-683.281	800.000	0.051	-0.144
-682.266	-15.135	-0.052	-0.034
-681.251	-139.913	0.085	0.009
-680.237	443.081	0.168	-0.375
-679.222	244.977	-0.105	0.179
-678.208	56.584	-0.174	-0.172
-677.193	800.000	0.060	0.174
-676.178	800.000	0.055	-0.201
-675.164	800.000	0.063	-0.263
-674.149	800.000	0.112	0.322
-673.135	-15.776	0.028	-0.018
-672.120	343.120	-0.044	0.087
-671.105	550.238	0.023	-0.055
-670.091	-64.782	-0.330	-0.136
-669.076	405.998	-0.055	-0.117
-668.062	-200.000	0.006	-0.239
-667.047	229.443	0.217	-0.359
-666.032	-166.363	0.176	-0.007
-665.018	5.229	0.315	-0.236
-664.003	583.888	-0.080	0.198
-662.989	-200.000	-0.054	0.356
-661.974	-116.770	-0.247	0.046
-660.959	-200.000	-0.025	-0.168
-659.945	64.469	0.152	-0.156
-658.930	-70.248	0.237	0.091
-657.916	-127.232	0.142	-0.021
-656.901	-33.853	-0.142	0.079
-655.886	-200.000	-0.005	-0.078
-654.872	-42.040	-0.272	-0.141
-653.857	-200.000	0.014	0.343
-652.843	-98.181	0.476	-0.124
-651.828	-140.673	0.015	-0.002
-650.814	137.297	0.072	-0.096
-649.799	193.973	0.147	-0.225
-648.784	305.150	0.056	-0.105
-647.770	-34.304	0.168	-0.093
-646.755	128.842	-0.174	0.224
-645.741	263.717	-0.151	-0.267
-644.726	-108.693	-0.326	0.071
-643.711	-200.000	0.003	-0.022
-642.697	-200.000	0.003	0.049
-641.682	-136.104	0.187	0.022
-640.668	41.720	-0.182	0.167
-639.653	800.000	0.046	0.189
-638.638	40.944	0.160	0.146
-637.624	165.677	0.075	0.107
-636.609	-82.208	0.181	-0.060
-635.595	-72.237	-0.149	0.056
-634.580	134.657	0.077	-0.101
-633.565	-23.687	-0.297	-0.180
-632.551	638.287	0.079	0.203
-631.536	55.887	0.173	0.170
-630.522	541.297	-0.084	-0.204
-629.507	157.930	0.022	-0.031
-628.492	-200.000	0.012	-0.277
-627.478	800.000	-0.060	0.181
-626.463	-123.865	-0.059	0.009
-625.449	-76.862	-0.133	-0.047
-624.434	-120.475	-0.180	0.031
-623.419	-200.000	0.058	0.318
-622.405	8.557	0.209	-0.159
-621.390	218.806	0.153	0.247
-620.376	215.843	0.116	0.187
-619.361	-200.000	0.069	-0.346
-618.346	-62.303	-0.238	0.100
-617.332	-90.681	0.372	0.109
-616.317	169.755	0.105	-0.152
-615.303	-51.479	-0.187	-0.089
-614.288	-144.758	-0.172	-0.016
-613.273	268.701	-0.170	0.302
-612.259	-88.030	-0.032	-0.010
-611.244	127.415	-0.270	-0.347
-610.230	-5.874	-0.230	-0.159
-609.215	-21.742	0.233	0.144
-608.201	-34.558	0.119	0.066
-607.186	96.834	0.287	-0.333
-606.171	-158.206	-0.060	-0.004
-605.157	35.029	0.365	-0.324
-604.142	-173.731	0.262	0.008
-603.128	351.184	-0.078	0.157
-602.113	-99.070	-0.167	0.043
-601.098	-1.692	0.137	0.098
-600.084	-119.457	0.101	-0.018
-599.069	309.059	-0.047	-0.089
-598.055	-172.277	0.233	-0.008
-597.040	18.039	0.069	-0.055
-596.025	183.265	0.182	-0.272
-595.011	-32.936	-0.172	-0.096
-593.996	1.581	0.096	-0.070
-592.982	-36.691	0.232	-0.126
-591.967	237.086	-0.033	0.055
-590.952	-49.898	-0.290	-0.139
-589.938	631.431	0.081	-0.208
-588.923	-14.853	0.067	0.043
-587.909	39.736	-0.076	0.069
-586.894	0.067	-0.152	-0.109
-585.879	-200.000	0.037	-0.528
-584.865	306.501	0.063	-0.118
-583.850	-75.194	0.290	-0.105
-582.836	-200.000	-0.043	0.266
-581.821	-129.253	0.288	-0.041
-580.806	24.953	0.119	0.100
-579.792	577.582	0.076	-0.189
-578.777	559.300	0.171	0.416
-577.763	800.000	0.099	0.294
-576.748	19.163	0.255	-0.207
-575.733	-196.301	-0.081	-0.001
-574.719	-134.756	0.091	-0.011
-573.704	-101.753	0.194	-0.047
-572.690	800.000	0.149	0.420
-571.675	-32.810	0.241	0.135
-570.661	-192.463	-0.055	-0.001
-569.646	452.723	0.088	-0.196
-568.631	47.657	-0.127	0.120
-567.617	417.922	-0.151	0.325
-566.602	254.234	-0.090	0.156
-565.588	-77.724	0.093	0.033
-564.573	7.482	0.137	-0.103
-563.558	-86.025	-0.231	0.072
-562.544	800.000	-0.048	0.175
-561.529	-200.000	0.053	0.465
-560.515	-200.000	-0.007	-0.364
-559.500	65.096	0.231	0.235
-558.485	354.153	0.096	-0.193
-557.471	235.780	0.032	0.054
-556.456	-200.000	0.214	-0.001
-555.442	136.935	0.078	-0.103
-554.427	-39.539	0.099	0.053
-553.412	25.036	0.136	0.114
-552.398	45.993	0.291	-0.272
-551.383	-127.140	-0.343	0.051
-550.369	75.206	0.258	0.275
-549.354	122.672	0.323	-0.408
-548.339	355.637	-0.067	0.135
-547.325	182.741	-0.106	0.158
-546.310	-200.000	-0.024	0.292
-545.296	-200.000	-0.013	-0.165
-544.281	-140.011	-0.303	0.032
-543.266	-94.932	0.313	0.085
-542.252	800.000	-0.017	0.051
-541.237	-200.000	0.023	-0.217
-540.223	270.794	-0.177	-0.315
-539.208	180.160	0.051	0.075
-538.193	1.978	-0.242	0.176
-537.179	-98.833	-0.223	-0.057
-536.164	451.710	0.043	-0.095
-535.150	78.513	-0.052	-0.056
-534.135	-50.532	0.160	0.076
-533.121	221.257	0.070	0.113
-532.106	-121.449	-0.244	-0.041
-531.091	-200.000	-0.020	-0.383
-530.077	-22.522	0.233	-0.142
-529.062	281.010	-0.162	0.293
-528.048	-200.000	-0.008	-0.047
-527.033	34.223	-0.146	-0.129
-526.018	-35.928	0.131	0.072
-525.004	404.424	0.071	0.150
-523.989	-3.893	-0.317	-0.222
-522.975	-81.710	0.059	-0.020
-521.960	-200.000	-0.066	0.364
-520.945	534.052	-0.080	0.191
-519.931	800.000	0.054	-0.153
-518.916	-39.930	-0.291	-0.153
-517.902	800.000	0.068	-0.199
-516.887	-90.344	-0.289	0.085
-515.872	-87.272	-0.107	0.033
-514.858	-200.000	-0.056	-0.281
-513.843	239.441	-0.167	-0.279
-512.829	-118.586	-0.322	0.057
-511.814	-46.152	0.224	-0.111
-510.799	-42.473	-0.085	0.043
-509.785	-100.316	0.178	0.045
-508.770	-108.132	-0.185	-0.040
-507.756	-88.202	0.135	0.041
-506.741	-89.550	-0.127	-0.038
-505.726	97.958	0.084	0.097
-504.712	786.333	0.077	-0.213
-503.697	586.949	-0.108	-0.267
-502.683	166.017	0.054	-0.077
-501.668	149.057	0.249	-0.339
-500.653	55.914	-0.103	-0.100
-499.639	180.838	0.128	-0.189
-498.624	-200.000	0.065	-0.396
-497.610	19.675	-0.040	0.033
-496.595	330.166	0.068	0.131
-495.581	418.831	0.093	0.200
-494.566	-112.558	-0.155	0.031
-493.551	228.252	-0.142	0.233
-492.537	120.675	-0.138	0.173
-491.522	-96.138	0.220	0.059
-490.508	-200.000	-0.068	0.310
-489.493	66.598	0.227	0.233
-488.478	671.283	-0.124	0.323
-487.464	-200.000	0.006	0.093
-486.449	-79.883	-0.305	0.103
-485.435	800.000	-0.086	-0.344
-484.420	-134.362	-0.039	0.005
-483.405	22.927	-0.351	0.290
-482.391	-10.729	-0.104	-0.069
-481.376	-200.000	0.022	0.239
-480.362	639.358	0.055	0.141
-479.347	-71.975	-0.097	0.036
-478.332	-153.077	0.340	0.024
-477.318	-200.000	-0.006	0.067
-476.303	-200.000	0.018	-0.153
-475.289	-169.350	-0.347	0.013
-474.274	-34.234	-0.207	-0.115
-473.259	131.639	-0.092	-0.119
-472.245	-200.000	-0.045	-0.360
-471.230	-200.000	0.034	-0.208
-470.216	800.000	-0.062	0.238
-469.201	-139.523	-0.135	-0.014
-468.186	-62.731	0.214	-0.089
-467.172	-106.990	-0.240	-0.053
-466.157	-148.493	-0.097	-0.008
-465.143	-200.000	-0.019	-0.092
-464.128	108.716	0.162	0.195
-463.113	206.580	0.131	0.205
-462.099	-59.317	-0.179	-0.078
-461.084	-13.088	-0.199	0.130
-460.070	-176.189	-0.130	0.003
-459.055	-200.000	-0.060	0.451
-458.040	277.102	-0.118	-0.211
-457.026	103.371	-0.105	0.124
-456.011	-200.000	0.012	-0.146
-454.997	22.448	-0.336	0.276
-453.982	800.000	0.064	-0.198
-452.968	-156.164	-0.158	0.010
-451.953	-200.000	-0.003	0.458
-450.938	-95.172	-0.234	-0.063
-449.924	628.941	0.052	0.132
-448.909	125.856	-0.099	0.126
-447.895	800.000	0.099	0.285
-446.880	-142.225	0.290	-0.029
-445.865	-19.368	-0.100	-0.063
-444.851	-161.949	0.165	-0.008
-443.836	78.736	0.113	-0.122
-442.822	168.259	-0.215	-0.307
-441.807	-35.934	0.076	0.041
-440.792	-99.675	-0.425	0.107
-439.778	-67.927	0.152	-0.060
-438.763	85.179	-0.163	0.180
-437.749	311.636	-0.230	0.433
-436.734	31.324	-0.119	0.103
-435.719	-181.112	-0.356	0.007
-434.705	-140.066	0.242	0.026
-433.690	193.458	-0.088	-0.133
-432.676	-127.687	-0.165	-0.024
-431.661	-91.068	-0.125	-0.036
-430.646	-137.276	0.093	-0.011
-429.632	-84.638	-0.313	0.099
-428.617	800.000	0.041	0.149
-427.603	-151.859	0.148	0.011
-426.588	-65.860	-0.230	0.093
-425.573	24.515	0.121	0.100
-424.559	570.347	0.091	-0.222
-423.544	-116.167	-0.339	0.063
-422.530	493.170	0.080	0.185
-421.515	800.000	0.069	0.202
-420.500	-48.665	-0.097	0.047
-419.486	-26.974	0.120	-0.070
-418.471	353.782	-0.124	-0.248
-417.457	-118.719	0.081	0.014
-416.442	800.000	-0.010	-0.029
-415.428	-26.749	-0.258	0.152
-414.413	77.196	0.406	-0.433
-413.398	-200.000	-0.014	0.086
-412.384	3.173	0.256	-0.187
-411.369	2.536	-0.220	0.160
-410.355	-110.188	0.029	-0.006
-409.340	5.923	-0.091	-0.067
-408.325	800.000	0.032	0.138
-407.311	234.455	0.091	-0.151
-406.296	-140.727	-0.088	0.009
-405.282	-13.733	0.338	-0.219
-404.267	418.928	0.043	0.093
-403.252	7.747	0.282	-0.212
-402.238	7.054	0.138	0.103
-401.223	-66.803	0.239	0.095
-400.209	139.487	-0.118	-0.156
-399.194	151.867	0.079	-0.108
-398.179	-1.286	0.107	0.076
-397.165	-2.926	0.101	0.071
-396.150	4.922	0.231	0.171
-395.136	8.180	-0.265	0.200
-394.121	800.000	-0.021	0.069
-393.106	-15.550	0.290	-0.185
-392.092	249.084	-0.164	0.279
-391.077	-17.472	0.193	0.122
-390.063	79.441	0.176	0.189
-389.048	15.167	-0.145	-0.114
-388.033	-200.000	0.045	-0.214
-387.019	-109.312	0.102	-0.022
-386.004	-52.027	0.219	-0.102
-384.990	150.954	0.294	0.401
-383.975	-98.786	0.146	0.037
-382.960	-200.000	0.016	0.233
-381.946	252.772	0.208	0.355
-380.931	-86.811	-0.180	-0.055
-379.917	-72.905	0.301	-0.111
-378.902	-200.000	-0.011	-0.066
-377.888	-105.220	-0.273	-0.062
-376.873	-72.954	-0.147	0.054
-375.858	800.000	0.058	-0.186
-374.844	14.422	0.249	-0.195
-373.829	-38.808	-0.543	0.287
-372.815	-82.922	0.337	-0.109
-371.800	28.421	0.236	-0.200
-370.785	55.316	0.355	-0.344
-369.771	-60.228	-0.429	-0.183
-368.756	-200.000	0.035	-0.192
-367.742	-88.968	0.072	0.021
-366.727	800.000	-0.020	0.064
-365.712	0.625	-0.091	-0.065
-364.698	39.278	-0.312	-0.280
-363.683	-88.595	-0.363	-0.108
-362.669	-200.000	0.020	0.241
-361.654	-134.093	0.190	-0.024
-360.639	214.855	-0.150	-0.239
-359.625	-178.217	-0.192	-0.005
-358.610	-85.551	-0.231	-0.072
-357.596	-200.000	-0.011	-0.177
-356.581	-22.824	0.067	-0.041
-355.566	-82.422	-0.328	-0.107
-354.552	336.157	-0.099	-0.193
-353.537	87.924	-0.108	-0.120
-352.523	47.542	-0.039	0.037
-351.508	783.847	-0.082	0.224
-350.493	-200.000	0.006	0.417
-349.479	315.873	-0.186	-0.352
-348.464	-145.286	-0.166	0.015
-347.450	100.945	0.067	0.078
-346.435	260.661	0.041	-0.071
-345.420	-19.519	-0.270	0.167
-344.406	-19.869	-0.203	-0.126
-343.391	399.683	-0.114	-0.240
-342.377	-200.000	-0.006	0.186
-341.362	67.126	-0.070	0.072
-340.348	230.996	0.311	0.509
-339.333	405.113	0.056	0.118
-338.318	458.857	-0.131	-0.292
-337.304	-74.347	0.771	0.279
-336.289	205.647	0.297	-0.462
-335.275	531.790	0.114	-0.269
-334.260	261.735	0.065	0.113
-333.245	104.932	0.184	-0.218
-332.231	-107.835	-0.233	-0.051
-331.216	-3.673	-0.249	0.173
-330.202	455.871	0.090	0.199
-329.187	-200.000	0.023	0.261
-328.172	-30.253	0.119	0.068
-327.158	800.000	0.019	0.082
-326.143	800.000	0.064	-0.237
-325.129	-116.289	0.217	-0.040
-324.114	-46.513	0.072	-0.035
-323.099	41.091	0.273	-0.247
-322.085	-19.425	0.256	-0.159
-321.070	8.350	0.140	0.105
-320.056	516.139	-0.151	-0.352
-319.041	69.585	-0.087	-0.089
-318.026	800.000	0.030	0.090
-317.012	-141.545	0.353	0.036
-315.997	-142.605	-0.170	0.017
-314.983	-87.001	-0.165	0.050
-313.968	-200.000	-0.063	-0.336
-312.953	-78.056	-0.115	0.040
-311.939	-83.841	0.148	0.047
-310.924	-93.273	-0.271	0.075
-309.910	17.342	0.259	-0.206
-308.895	-114.888	-0.326	-0.062
-307.880	193.045	-0.078	-0.118
-306.866	69.541	-0.094	-0.097
-305.851	-200.000	0.011	-0.144
-304.837	-21.653	0.094	-0.057
-303.822	39.606	0.210	-0.188
-302.807	-65.214	0.229	-0.092
-301.793	294.263	-0.074	0.135
-300.778	-200.000	0.038	0.214
-299.764	-7.902	0.097	-0.066
-298.749	-200.000	0.006	0.082
-297.735	90.315	-0.189	-0.211
-296.720	92.484	0.198	-0.224
-295.705	-200.000	0.023	0.287
-294.691	470.002	-0.191	0.428
-293.676	280.213	0.222	0.396
-292.662	64.801	-0.188	-0.190
-291.647	96.422	0.074	-0.084
-290.632	-172.381	0.068	-0.002
-289.618	-39.799	-0.137	0.071
-288.603	-83.619	-0.230	-0.074
-287.589	12.850	0.053	-0.041
-286.574	-200.000	-0.021	0.155
-285.559	-45.634	-0.042	0.021
-284.545	114.614	-0.018	-0.021
-283.530	20.880	0.205	-0.166
-282.516	219.981	0.133	0.213
-281.501	-1.641	-0.027	0.019
-280.486	-139.746	-0.192	0.020
-279.472	-74.659	0.463	-0.166
-278.457	89.719	0.234	-0.261
-277.443	-106.815	0.191	-0.042
-276.428	1.472	-0.264	-0.190
-275.413	-190.558	-0.066	-0.001
-274.399	-147.943	0.274	-0.023
-273.384	-59.537	0.181	-0.078
-272.370	-105.671	0.193	-0.044
-271.355	-77.439	0.145	-0.050
-270.340	-200.000	0.018	-0.230
-269.326	-61.234	-0.141	-0.059
-268.311	-200.000	-0.044	-0.204
-267.297	-21.242	-0.389	0.237
-266.282	391.040	-0.070	-0.145
-265.267	7.093	0.147	0.110
-264.253	-82.575	0.076	0.025
-263.238	522.181	0.088	-0.205
-262.224	-128.710	-0.196	0.028
-261.209	-37.015	-0.205	-0.109
-260.195	10.646	-0.280	-0.213
-259.180	-63.475	0.353	-0.145
-258.165	245.136	0.058	-0.097
-257.151	-112.778	0.102	-0.020
-256.136	0.344	-0.096	0.068
-255.122	59.976	-0.098	0.097
-254.107	-56.076	-0.325	0.144
-253.092	800.000	-0.037	0.119
-252.078	-200.000	0.009	0.314
-251.063	143.598	-0.113	0.150
-250.049	-179.156	0.123	-0.003
-249.034	-200.000	0.011	-0.058
-248.019	-54.804	0.226	0.102
-247.005	800.000	-0.081	-0.271
-245.990	800.000	0.140	-0.441
-244.976	296.124	0.111	0.203
-243.961	-4.486	-0.267	-0.184
-242.946	-200.000	-0.052	-0.252
-241.932	-30.524	-0.198	-0.112
-240.917	67.503	0.149	-0.152
-239.903	77.854	0.180	-0.191
-238.888	22.145	0.235	0.191
-237.873	172.619	0.221	-0.317
-236.859	-143.757	-0.110	-0.010
-235.844	57.247	-0.062	0.060
-234.830	-77.210	0.029	-0.010
-233.815	-141.808	0.167	-0.017
-232.800	109.094	0.093	0.111
-231.786	-167.268	-0.072	0.003
-230.771	9.636	0.094	-0.071
-229.757	-36.613	-0.243	-0.130
-228.742	140.565	-0.113	0.149
-227.727	-142.935	0.121	-0.012
-226.713	-47.702	-0.288	0.139
-225.698	2.109	-0.112	-0.081
-224.684	-200.000	0.033	-0.274
-223.669	-56.771	0.133	-0.059
-222.655	-112.206	-0.213	-0.043
-221.640	-200.000	-0.040	0.334
-220.625	-159.873	-0.231	0.013
-219.611	-59.461	-0.150	0.064
-218.596	158.314	0.295	0.408
-217.582	-63.972	0.135	-0.055
-216.567	132.344	-0.104	0.134
-215.552	36.537	-0.072	0.063
-214.538	82.116	0.247	-0.267
-213.523	81.071	0.128	-0.138
-212.509	-136.182	-0.308	0.036
-211.494	30.208	0.231	-0.196
-210.479	-171.235	-0.134	0.004
-209.465	800.000	-0.049	0.174
-208.450	800.000	-0.064	-0.225
-207.436	-200.000	0.051	0.246
-206.421	-142.081	0.158	0.016
-205.406	505.435	-0.100	0.230
-204.392	-141.146	0.408	-0.042
-203.377	-200.000	-0.031	-0.166
-202.363	-77.584	-0.448	0.154
-201.348	-87.032	-0.056	0.017
-200.333	-163.276	-0.034	-0.002
-199.319	800.000	0.075	-0.320
-198.304	236.030	0.080	-0.131
-197.290	-92.744	0.268	0.075
-196.275	-65.342	-0.248	0.099
-195.260	-152.388	-0.279	-0.020
-194.246	-89.623	0.264	-0.077
-193.231	116.931	-0.141	0.172
-192.217	55.745	-0.233	0.225
-191.202	-122.453	0.354	0.057
-190.187	-123.326	0.167	0.027
-189.173	296.453	-0.106	-0.193
-188.158	442.082	-0.214	0.466
-187.144	-200.000	-0.027	-0.120
-186.129	-78.648	-0.169	0.057
-185.114	149.626	-0.065	0.087
-184.100	-38.777	0.098	0.052
-183.085	-92.608	0.043	0.012
-182.071	477.851	-0.116	0.261
-181.056	-27.615	0.373	0.216
-180.042	29.819	0.099	0.084
-179.027	43.235	-0.096	0.087
-178.012	242.744	-0.182	0.303
-176.998	-82.001	-0.234	-0.076
-175.983	-200.000	0.006	-0.142
-174.969	660.000	-0.082	-0.210
-173.954	497.169	-0.025	-0.057
-172.939	157.425	-0.068	0.094
-171.925	12.765	0.158	0.122
-170.910	249.975	0.065	0.110
-169.896	-177.382	-0.447	-0.011
-168.881	-78.768	0.134	0.045
-167.866	80.193	0.067	0.072
-166.852	800.000	0.038	0.127
-165.837	-200.000	-0.014	0.195
-164.823	-20.014	-0.165	0.101
-163.808	800.000	-0.076	0.236
-162.793	76.245	0.186	0.196
-161.779	158.160	-0.183	-0.252
-160.764	-33.825	-0.062	0.034
-159.750	47.425	0.067	0.062
-158.735	49.103	-0.317	0.296
-157.720	-88.245	0.112	0.033
-156.706	-97.873	0.130	-0.033
-155.691	55.395	0.022	-0.021
-154.677	-37.820	0.211	0.111
-153.662	-84.041	-0.133	0.042
-152.647	114.463	-0.060	-0.072
-151.633	70.142	0.033	0.034
-150.618	-80.240	-0.261	0.087
-149.604	-92.082	0.242	0.068
-148.589	-110.663	0.351	0.072
-147.574	116.749	0.157	0.192
-146.560	336.330	0.050	-0.097
-145.545	485.435	0.158	-0.357
-144.531	-200.000	-0.055	-0.350
-143.516	-82.112	-0.098	-0.032
-142.502	-200.000	-0.004	-0.323
-141.487	631.159	0.097	0.244
-140.472	-119.684	0.218	0.037
-139.458	-90.050	-0.105	0.030
-138.443	800.000	-0.013	-0.051
-137.429	-159.682	-0.272	-0.015
-136.414	-200.000	0.014	-0.063
-135.399	-16.600	0.245	0.154
-134.385	281.759	-0.046	0.083
-133.370	-162.954	0.079	-0.004
-132.356	79.802	0.165	0.176
-131.341	-34.798	0.197	-0.107
-130.326	-200.000	-0.002	-0.052
-129.312	-84.537	0.331	0.104
-128.297	-58.901	-0.070	0.030
-127.283	620.760	0.071	-0.177
-126.268	502.537	-0.045	0.104
-125.253	800.000	-0.058	-0.248
-124.239	-154.751	0.402	-0.026
-123.224	743.444	0.105	-0.281
-122.210	-107.062	-0.193	-0.042
-121.195	144.167	0.287	-0.380
-120.180	-200.000	-0.004	0.019
-119.166	-95.393	0.218	0.058
-118.151	-200.000	0.029	0.428
-117.137	-200.000	-0.043	0.195
-116.122	-200.000	0.054	-0.409
-115.107	503.475	0.078	0.178
-114.093	-100.125	-0.187	0.046
-113.078	-200.000	-0.011	0.165
-112.064	12.535	-0.162	0.124
-111.049	-200.000	-0.018	-0.269
-110.034	255.343	-0.075	0.128
-109.020	74.858	0.222	0.231
-108.005	-200.000	0.002	-0.071
-106.991	125.160	-0.223	-0.278
-105.976	130.136	0.206	0.262
-104.962	-34.756	-0.279	-0.151
-103.947	-200.000	0.004	0.216
-102.932	800.000	-0.032	-0.108
-101.918	-200.000	0.041	-0.202
-100.903	-0.567	-0.290	-0.204
-99.889	28.959	0.308	0.259
-98.874	-200.000	0.035	0.166
-97.859	-82.548	0.312	-0.101
-96.845	-81.162	0.053	-0.017
-95.830	-200.000	-0.132	0.000
-94.816	225.504	-0.180	0.290
-93.801	800.000	-0.047	-0.202
-92.786	-11.750	0.152	0.099
-91.772	-55.438	0.186	0.083
-90.757	-97.774	-0.061	-0.016
-89.743	800.000	0.055	0.202
-88.728	-107.938	0.223	-0.048
-87.713	-3.040	0.333	-0.230
-86.699	180.532	-0.129	0.188
-85.684	86.849	-0.119	0.130
-84.670	800.000	0.067	0.264
-83.655	-58.358	-0.132	0.057
-82.640	-123.767	0.125	0.020
-81.626	100.743	-0.085	-0.098
-80.611	-103.014	0.358	0.084
-79.597	37.619	-0.037	-0.033
-78.582	376.516	-0.114	-0.230
-77.567	-200.000	0.011	-0.250
-76.553	-114.118	0.112	-0.021
-75.538	-60.901	0.135	-0.057
-74.524	-1.957	-0.154	-0.107
-73.509	-80.031	0.160	0.053
-72.494	250.988	0.115	0.194
-71.480	-70.821	-0.227	0.085
-70.465	250.322	-0.126	0.211
-69.451	-200.000	-0.004	0.202
-68.436	-16.888	-0.171	-0.107
-67.422	-116.075	0.185	-0.034
-66.407	134.840	0.107	0.138
-65.392	6.477	0.241	-0.178
-64.378	-36.980	0.122	0.065
-63.363	-200.000	-0.009	0.107
-62.349	-26.706	-0.536	0.311
-61.334	800.000	-0.262	-1.052
-60.319	-29.362	0.460	0.261
-59.305	452.002	-0.418	-0.915
-58.290	190.968	0.552	0.823
-57.276	503.303	0.591	1.352
-56.261	-200.000	96.703	580.912
-55.246	653.820	1388.779	3527.625
-54.232	186.303	2604.347	3836.784
-53.217	123.705	2184.075	2713.519
-52.203	47.084	1635.463	1506.467
-51.188	38.575	1370.548	1210.116
-50.173	35.221	1327.370	1151.830
-49.159	56.793	1376.589	1327.013
-48.144	61.338	1394.373	1371.853
-47.130	38.772	1348.765	1191.887
-46.115	35.147	1330.860	1154.228
-45.100	34.795	1326.365	1148.171
-44.086	34.880	1323.388	1146.055
-43.071	34.856	1321.377	1144.126
-42.057	34.939	1319.188	1142.679
-41.042	34.917	1317.482	1141.025
-40.027	35.004	1315.980	1140.197
-39.013	34.966	1313.815	1138.049
-37.998	34.896	1312.375	1136.343
-36.984	35.039	1310.406	1135.442
-35.969	34.992	1308.761	1133.691
-34.954	35.149	1306.798	1132.878
-33.940	35.033	1305.617	1131.123
-32.925	35.115	1303.828	1130.011
-31.911	35.140	1302.826	1129.247
-30.896	35.133	1301.326	1127.861
-29.881	35.083	1299.865	1126.253
-28.867	35.146	1298.535	1125.426
-27.852	35.198	1296.655	1124.059
-26.838	35.164	1295.471	1122.787
-25.823	35.039	1294.396	1121.080
-24.809	35.198	1292.544	1120.361
-23.794	35.113	1291.368	1118.799
-22.779	34.998	1290.347	1117.201
-21.765	35.056	1289.079	1116.394
-20.750	35.122	1287.576	1115.434
-19.736	34.904	1286.818	1113.465
-18.721	34.956	1285.348	1112.453
-17.706	34.990	1283.565	1111.059
-16.692	35.059	1282.108	1110.155
-15.677	35.021	1281.388	1109.265
-14.663	34.911	1280.673	1107.966
-13.648	35.033	1279.078	1107.249
-12.633	34.889	1278.880	1106.204
-11.619	34.904	1277.564	1105.105
-10.604	34.975	1276.621	1104.659
-9.590	34.878	1276.115	1103.614
-8.575	34.963	1275.096	1103.178
-7.560	34.977	1273.983	1102.252
-6.546	34.861	1273.223	1100.885
-5.531	34.868	1272.576	1100.325
-4.517	34.819	1271.365	1098.949
-3.502	35.002	1270.480	1099.193
-2.487	34.850	1269.893	1097.767
-1.473	34.818	1265.651	1093.873
-0.458	33.398	1249.652	1071.972
0.556	30.964	1230.071	1026.565
1.571	26.307	1233.729	1003.727
2.586	24.869	1247.490	1006.754
3.600	23.352	1235.081	988.196
4.615	17.869	1162.600	901.248
5.629	9.036	1086.745	798.591
6.644	5.091	1065.561	763.673
7.659	4.726	1063.210	760.140
8.673	4.611	1061.321	758.163
9.688	4.563	1060.393	757.197
10.702	5.199	1059.748	759.767
11.717	10.590	1067.377	791.527
12.731	18.831	1078.355	840.058
13.746	22.064	1082.234	858.839
14.761	21.884	1080.971	856.886
15.775	20.921	1079.074	850.605
16.790	19.907	1076.775	843.779
17.804	19.195	1075.469	839.214
18.819	18.799	1074.771	836.664
19.834	18.662	1074.117	835.414
20.848	18.511	1073.319	833.986
21.863	18.425	1072.680	832.997
22.877	18.200	1072.052	831.341
23.892	18.211	1070.910	830.436
24.907	18.195	1070.543	830.003
25.921	18.169	1068.932	828.551
26.936	18.258	1067.487	827.790
27.950	18.348	1066.052	827.037
28.965	18.310	1064.970	825.944
29.980	18.611	1063.263	825.995
30.994	18.604	1062.189	825.056
32.009	18.614	1061.425	824.437
33.023	18.483	1060.515	823.025
34.038	18.451	1059.440	821.965
35.053	18.296	1058.692	820.568
36.067	18.326	1057.302	819.562
37.082	18.324	1056.557	818.906
38.096	18.626	1056.203	819.999
39.111	18.539	1055.500	818.969
40.126	18.369	1053.947	816.877
41.140	18.036	1052.585	814.167
42.155	17.903	1051.576	812.682
43.169	17.847	1050.315	811.367
44.184	17.881	1049.620	810.918
45.199	18.049	1047.698	810.159
46.213	18.056	1047.259	809.781
47.228	18.249	1046.310	809.888
48.242	18.294	1045.461	809.375
49.257	18.293	1044.587	808.619
50.271	18.365	1043.753	808.245
51.286	18.331	1043.067	807.481
52.301	18.374	1041.519	806.412
53.315	18.168	1040.940	804.924
54.330	17.997	1039.936	803.271
55.344	18.145	1038.726	802.962
56.359	18.161	1037.914	802.336
57.374	18.189	1037.009	801.697
58.388	18.030	1035.959	800.071
59.403	17.977	1035.576	799.455
60.417	17.916	1034.745	798.458
61.432	18.040	1033.508	798.015
62.447	17.884	1033.145	796.933
63.461	17.730	1032.389	795.562
64.476	17.762	1031.215	794.735
65.490	17.785	1030.033	793.860
66.505	17.711	1029.723	793.210
67.520	17.762	1028.864	792.715
68.534	17.955	1027.612	792.576
69.549	17.827	1027.306	791.676
70.563	17.852	1026.503	791.099
71.578	17.675	1025.298	789.283
72.593	17.550	1025.059	788.450
73.607	17.620	1024.015	787.901
74.622	17.754	1023.448	788.015
75.636	17.658	1022.826	787.023
76.651	17.754	1022.598	787.220
77.666	17.778	1021.898	786.726
78.680	17.656	1021.134	785.503
79.695	17.694	1020.510	785.130
80.709	17.800	1020.052	785.193
81.724	17.838	1019.579	784.936
82.739	17.949	1018.601	784.624
83.753	18.147	1018.583	785.452
84.768	18.519	1017.423	786.191
85.782	18.635	1016.266	785.759
86.797	18.519	1015.215	784.345
87.812	18.358	1014.472	782.967
88.826	18.482	1013.536	782.743
89.841	18.475	1012.687	781.984
90.855	18.393	1012.054	781.054
91.870	18.512	1011.352	780.983
92.884	18.549	1010.039	780.068
93.899	18.519	1009.307	779.298
94.914	18.735	1008.219	779.370
95.928	18.592	1007.605	778.181
96.943	18.542	1006.514	777.039
97.957	18.353	1006.010	775.725
98.972	18.452	1004.958	775.295
99.987	18.485	1004.287	774.858
101.001	18.509	1002.984	773.893
102.016	18.343	1002.523	772.719
103.030	18.584	1001.648	773.065
104.045	18.540	1000.485	771.897
105.060	18.432	999.630	770.686
106.074	18.137	998.670	768.552
107.089	18.020	997.240	766.857
108.103	17.860	996.481	765.490
109.118	17.751	995.798	764.406
110.133	17.785	994.879	763.786
111.147	17.828	994.275	763.447
112.162	17.905	993.376	763.033
113.176	18.010	992.857	763.036
114.191	18.103	991.965	762.697
115.206	18.099	990.909	761.802
116.220	18.045	989.948	760.757
117.235	17.959	989.597	760.037
118.249	17.930	988.513	759.008
119.264	17.792	987.909	757.861
120.279	17.899	986.874	757.478
121.293	17.856	985.683	756.305
122.308	17.694	984.630	754.713
123.322	17.820	983.519	754.350
124.337	17.564	983.008	752.760
125.352	17.694	981.779	752.328
126.366	17.653	981.050	751.523
127.381	17.660	979.949	750.641
128.395	17.667	979.165	750.007
129.410	17.756	978.551	749.862
130.424	17.806	977.564	749.258
131.439	18.086	976.662	749.730
132.454	18.137	976.017	749.391
133.468	18.073	975.243	748.450
134.483	18.115	974.187	747.756
135.497	18.068	973.276	746.786
136.512	18.015	972.736	746.074
137.527	18.166	971.510	745.727
138.541	18.228	970.863	745.435
139.556	18.105	971.017	744.951
140.570	18.300	969.916	744.887
141.585	18.480	969.281	745.119
142.600	18.546	968.088	744.422
143.614	18.611	967.474	744.167
144.629	18.637	966.997	743.843
145.643	18.521	965.928	742.454
146.658	18.238	964.950	740.413
147.673	18.429	962.946	739.634
148.687	18.106	962.721	738.004
149.702	18.063	961.970	737.177
150.716	18.140	960.909	736.630
151.731	18.100	960.393	735.996
152.746	18.123	959.612	735.430
153.760	18.202	959.068	735.288
154.775	18.317	958.852	735.553
155.789	18.249	957.804	734.389
156.804	18.442	957.349	734.804
157.819	18.338	957.073	734.081
158.833	18.619	956.130	734.498
159.848	18.644	955.297	733.901
160.862	18.524	954.568	732.760
161.877	18.334	952.958	730.650
162.892	18.179	951.650	728.923
163.906	18.084	950.736	727.752
164.921	18.279	949.628	727.669
165.935	18.283	949.139	727.246
166.950	18.336	948.351	726.805
167.964	18.211	947.534	725.584
168.979	18.181	946.510	724.610
169.994	18.253	945.552	724.116
171.008	18.154	945.480	723.580
172.023	18.492	944.552	724.232
173.037	18.536	944.392	724.232
174.052	18.455	943.248	722.950
175.067	18.114	942.645	720.984
176.081	18.009	941.739	719.785
177.096	17.985	941.465	719.411
178.110	18.255	940.241	719.546
179.125	18.164	939.859	718.808
180.140	18.319	938.986	718.726
181.154	18.355	939.453	719.173
182.169	18.537	938.684	719.284
183.183	18.619	937.846	718.921
184.198	18.694	936.811	718.378
185.213	18.644	936.568	717.921
186.227	18.709	935.890	717.611
187.242	18.642	935.674	717.101
188.256	18.834	934.824	717.188
189.271	18.900	933.591	716.451
190.286	18.437	933.067	714.059
191.300	18.112	931.912	711.758
192.315	17.945	931.391	710.603
193.329	18.164	930.776	710.979
194.344	18.309	930.260	711.127
195.359	18.393	929.509	710.838
196.373	18.617	929.222	711.485
197.388	18.595	929.194	711.306
198.402	18.892	928.051	711.600
199.417	18.850	928.308	711.561
200.432	19.019	927.212	711.354
201.446	19.179	926.966	711.766
202.461	19.243	926.290	711.450
203.475	19.001	925.865	710.060
204.490	18.811	924.741	708.351
205.504	18.822	923.849	707.649
206.519	18.792	923.284	707.034
207.534	18.715	922.584	706.115
208.548	18.653	921.876	705.256
209.563	18.610	921.492	704.725
210.577	18.775	920.645	704.693
211.592	19.197	919.917	705.802
212.607	19.037	919.646	704.876
213.621	18.967	918.846	703.913
214.636	19.014	918.173	703.526
215.650	19.081	917.103	702.922
216.665	19.178	916.314	702.648
217.680	19.201	915.786	702.275
218.694	19.162	915.585	701.901
219.709	19.135	914.872	701.182
220.723	19.199	914.183	700.850
221.738	19.021	913.269	699.368
222.753	19.076	912.913	699.253
223.767	19.099	912.591	699.040
224.782	19.209	912.318	699.215
225.796	19.320	911.242	698.781
226.811	19.253	910.616	697.965
227.826	19.144	909.673	696.738
228.840	19.149	908.533	695.826
229.855	19.173	907.995	695.448
230.869	19.163	907.273	694.792
231.884	18.940	906.657	693.363
232.899	19.018	905.739	692.911
233.913	18.903	905.154	691.942
234.928	18.922	904.120	691.166
235.942	18.806	904.112	690.632
236.957	18.922	903.310	690.423
237.972	18.804	902.971	689.630
238.986	18.809	902.511	689.236
240.001	18.977	901.408	689.009
241.015	18.904	901.210	688.502
242.030	19.274	900.213	689.159
243.045	19.213	899.881	688.601
244.059	19.219	899.303	688.121
245.074	19.233	898.912	687.818
246.088	19.335	897.739	687.265
247.103	19.436	897.787	687.645
248.117	19.522	897.220	687.493
249.132	19.790	896.949	688.290
250.147	19.926	896.469	688.401
251.161	19.962	895.881	688.034
252.176	20.063	894.808	687.550
253.190	19.900	894.318	686.463
254.205	20.026	893.682	686.416
255.220	20.004	893.197	685.895
256.234	19.967	892.431	685.098
257.249	19.912	891.890	684.404
258.263	19.873	890.742	683.310
259.278	19.932	890.197	683.066
260.293	19.917	889.730	682.586
261.307	20.087	889.227	682.812
262.322	20.155	888.698	682.612
263.336	20.284	887.949	682.483
264.351	20.139	887.312	681.363
265.366	20.232	886.753	681.237
266.380	20.048	886.089	679.945
267.395	20.013	885.099	678.991
268.409	19.946	884.517	678.221
269.424	19.962	883.523	677.462
270.439	20.012	882.702	676.967
271.453	19.876	882.173	675.970
272.468	19.839	881.745	675.439
273.482	19.759	881.082	674.558
274.497	19.921	880.531	674.710
275.512	19.879	879.940	674.033
276.526	19.985	879.193	673.812
277.541	19.959	879.259	673.703
278.555	20.094	878.889	673.883
279.570	20.234	878.221	673.858
280.585	20.261	877.089	673.033
281.599	20.038	876.378	671.562
282.614	19.992	875.565	670.703
283.628	20.027	875.065	670.394
284.643	20.023	874.502	669.888
285.657	20.067	873.576	669.290
286.672	20.059	872.863	668.654
287.687	20.073	872.615	668.459
288.701	20.028	872.330	668.007
289.716	20.226	871.186	667.835
290.730	20.041	871.170	667.051
291.745	20.143	870.429	666.819
292.760	20.196	869.858	666.527
293.774	20.314	869.548	666.681
294.789	20.222	868.782	665.684
295.803	20.125	867.744	664.457
296.818	20.029	867.257	663.655
297.833	19.965	867.119	663.248
298.847	20.083	865.850	662.671
299.862	20.320	865.087	662.933
300.876	20.175	865.096	662.328
301.891	20.389	864.471	662.605
302.906	20.619	863.742	662.866
303.920	20.604	863.475	662.544
304.935	20.696	862.823	662.336
305.949	20.821	861.633	661.839
306.964	20.444	861.468	660.222
307.979	20.508	861.029	660.071
308.993	20.589	860.386	659.827
310.008	20.451	859.946	658.908
311.022	20.505	859.126	658.427
312.037	20.600	858.024	657.881
313.052	20.265	857.690	656.299
314.066	20.264	856.765	655.529
315.081	20.165	856.561	654.941
316.095	20.204	856.267	654.808
317.110	20.230	855.129	653.977
318.125	20.161	854.813	653.417
319.139	20.055	854.745	652.908
320.154	20.191	854.317	653.037
321.168	20.300	853.744	652.950
322.183	20.252	852.834	652.015
323.197	20.428	852.446	652.322
324.212	20.380	851.923	651.684
325.227	20.324	851.202	650.865
326.241	20.246	850.683	650.117
327.256	20.321	850.264	650.022
328.270	20.333	849.585	649.492
329.285	20.271	849.071	648.808
330.300	20.320	848.289	648.335
331.314	20.323	847.962	648.040
332.329	20.538	847.450	648.394
333.343	20.666	847.184	648.608
334.358	20.494	846.596	647.460
335.373	20.584	846.382	647.573
336.387	20.572	846.642	647.672
337.402	20.698	846.218	647.759
338.416	20.883	845.614	647.928
339.431	20.924	845.173	647.685
340.446	20.946	844.885	647.488
341.460	21.033	844.779	647.674
342.475	21.139	844.169	647.541
343.489	21.023	843.735	646.720
344.504	21.190	842.907	646.648
345.519	21.351	842.682	647.014
346.533	21.204	842.206	646.048
347.548	20.933	841.383	644.357
348.562	20.836	840.666	643.393
349.577	20.595	840.452	642.284
350.592	20.730	839.331	641.866
351.606	20.723	838.873	641.432
352.621	20.856	837.910	641.131
353.635	20.796	837.531	640.561
354.650	20.880	836.971	640.388
355.665	20.947	836.428	640.161
356.679	20.979	835.839	639.769
357.694	20.985	834.796	638.939
358.708	20.979	834.375	638.537
359.723	21.136	833.641	638.493
360.738	20.971	833.190	637.489
361.752	21.095	832.226	637.146
362.767	21.298	832.068	637.711
363.781	21.296	832.018	637.609
364.796	21.512	831.185	637.699
365.810	21.488	831.039	637.444
366.825	21.533	830.926	637.467
367.840	21.504	829.966	636.568
368.854	21.442	829.729	636.105
369.869	21.373	829.117	635.329
370.883	21.324	828.776	634.832
371.898	21.488	828.441	635.116
372.913	21.421	828.151	634.594
373.927	21.417	827.496	634.021
374.942	21.482	826.945	633.776
375.956	21.748	826.101	634.036
376.971	21.456	826.585	633.296
377.986	21.564	826.388	633.479
379.000	21.652	825.034	632.704
380.015	21.705	824.600	632.507
381.029	21.644	824.014	631.779
382.044	21.725	823.443	631.577
383.059	21.739	822.662	630.973
384.073	21.553	822.071	629.794
385.088	21.493	821.294	628.928
386.102	21.478	820.588	628.280
387.117	21.339	820.109	627.358
388.132	21.390	819.287	626.857
389.146	21.446	819.352	627.050
390.161	21.550	818.877	627.003
391.175	21.683	818.289	626.975
392.190	21.541	817.764	626.008
393.205	21.384	817.360	625.082
394.219	21.397	817.196	624.948
395.234	21.358	816.477	624.204
396.248	21.280	815.753	623.317
397.263	21.254	815.382	622.885
398.278	21.144	815.249	622.339
399.292	21.116	814.837	621.867
400.307	21.222	814.069	621.605
401.321	21.367	813.528	621.652
402.336	21.362	813.185	621.318
403.350	21.592	812.685	621.698
404.365	21.673	812.009	621.414
405.380	21.857	811.989	621.995
406.394	21.815	811.883	621.711
407.409	21.951	811.048	621.498
408.423	21.957	810.660	621.165
409.438	22.008	810.675	621.303
410.453	22.035	810.543	621.243
411.467	22.071	809.887	620.811
412.482	22.140	809.336	620.579
413.496	22.158	809.289	620.551
414.511	22.261	808.486	620.242
415.526	22.222	808.130	619.778
416.540	22.150	807.369	618.884
417.555	22.158	807.151	618.693
418.569	21.954	807.105	617.882
419.584	22.175	806.476	618.124
420.599	22.060	805.800	617.147
421.613	159.463	1369.790	1789.108
422.628	138.595	1451.990	1789.206
