DTS Sentinel unit serial number:	SN413079Multiplexer serial number:	ORYXHardware model number:	OX4-SRSoftware version number:	ORYX F/W v4.00 Oryx Data Collector v3.7.2.0data status	okinstallation	princeton_trtdifferential loss correction	single-endedforward channel	channel 1reverse channel	N/Adate	2019/09/12time	20:08:34forward acquisition time	15.00reverse acquisition time	0.00gamma	496.2192k internal	0.2324k external	0.2324temperature offset calibration	1.0130default loss term (dB/km)	0.3790temperature slope calibration	1.0000multiplexer offset coefficient	1.0000multiplexer slope coefficient	1.0000fibre end	0.00T internal ref (°C)	31.62T ext. ref 1 (°C)	3.40T ext. ref 2 (°C)	26.34length (m)	temperature (°C)	Stokes	anti-Stokes-747.200	800.000	0.027	0.105
-746.185	-4.694	-0.353	-0.246
-745.171	-36.583	0.232	-0.126
-744.156	-23.841	-0.162	-0.098
-743.142	98.641	-0.389	-0.453
-742.127	-119.120	-0.449	0.079
-741.112	22.706	0.613	-0.506
-740.098	154.821	0.567	-0.786
-739.083	-200.000	-0.003	-0.311
-738.069	-200.000	-0.158	0.950
-737.054	78.471	-0.208	0.224
-736.039	-47.652	0.348	0.171
-735.025	409.029	0.162	-0.346
-734.010	277.199	0.130	-0.233
-732.996	504.088	-0.229	-0.534
-731.981	65.888	-0.136	-0.139
-730.966	378.346	0.336	0.694
-729.952	-104.210	-0.100	-0.023
-728.937	800.000	0.045	-0.164
-727.923	-106.107	-0.817	0.185
-726.908	-46.064	-0.299	-0.149
-725.894	336.532	0.199	0.390
-724.879	289.774	-0.096	-0.175
-723.864	-113.949	-1.065	0.209
-722.850	455.522	-0.132	-0.296
-721.835	-33.638	-0.157	-0.088
-720.821	-33.329	0.626	-0.350
-719.806	-92.767	-0.208	0.059
-718.791	-0.449	0.283	-0.203
-717.777	-69.684	-0.319	-0.123
-716.762	-200.000	-0.021	-0.189
-715.748	446.164	0.231	-0.511
-714.733	-87.279	0.612	0.187
-713.718	479.849	-0.244	0.558
-712.704	293.348	0.221	-0.406
-711.689	800.000	-0.161	0.537
-710.675	38.516	-0.448	-0.402
-709.660	127.129	-0.093	0.118
-708.645	64.230	-0.154	-0.156
-707.631	-200.000	-0.020	-0.126
-706.616	-63.686	0.170	0.070
-705.602	293.867	-0.376	0.691
-704.587	-77.481	-0.317	-0.111
-703.572	180.580	-0.270	0.400
-702.558	-52.535	-0.577	-0.269
-701.543	800.000	0.089	0.327
-700.529	-93.606	-0.189	-0.053
-699.514	42.810	0.392	0.360
-698.499	-115.893	-0.988	-0.186
-697.485	-63.601	-0.861	-0.356
-696.470	25.866	0.223	-0.187
-695.456	-200.000	-0.044	0.409
-694.441	372.325	-0.293	0.599
-693.426	4.983	0.128	-0.095
-692.412	54.149	0.543	-0.526
-691.397	87.128	-0.156	-0.174
-690.383	-200.000	0.098	0.599
-689.368	282.109	-0.147	-0.266
-688.354	360.670	-0.278	0.561
-687.339	19.420	0.265	0.215
-686.324	382.625	-0.405	0.839
-685.310	-200.000	-0.555	-0.001
-684.295	394.239	0.409	-0.858
-683.281	-75.539	-0.166	0.060
-682.266	-75.346	1.104	-0.396
-681.251	-200.000	-0.048	-0.406
-680.237	-156.577	-0.731	0.046
-679.222	-45.849	-1.032	-0.513
-678.208	259.808	0.314	0.546
-677.193	786.659	-0.139	0.384
-676.178	291.739	-0.326	-0.598
-675.164	69.501	-0.298	0.309
-674.149	564.850	0.266	0.650
-673.135	112.562	0.441	0.538
-672.120	-200.000	0.072	-1.162
-671.105	-200.000	-0.048	0.357
-670.091	800.000	0.139	0.408
-669.076	642.536	-0.187	-0.479
-668.062	39.182	-0.234	-0.210
-667.047	-151.590	0.130	-0.010
-666.032	-23.104	0.683	0.414
-665.018	76.817	-0.226	-0.241
-664.003	-200.000	0.009	-0.098
-662.989	-32.180	-0.703	0.395
-661.974	103.453	-0.242	-0.285
-660.959	-200.000	-0.086	-0.385
-659.945	181.285	0.134	-0.198
-658.930	-27.502	0.569	0.333
-657.916	77.294	-0.219	0.234
-656.901	524.455	0.128	0.303
-655.886	-66.344	0.219	0.088
-654.872	800.000	0.248	-0.755
-653.857	800.000	-0.144	-0.585
-652.843	-200.000	0.023	-0.363
-651.828	-59.680	-1.031	-0.445
-650.814	344.322	-0.136	-0.267
-649.799	683.517	0.279	-0.733
-648.784	800.000	-0.051	0.154
-647.770	34.250	-0.243	0.213
-646.755	82.858	0.182	0.199
-645.741	-144.058	0.782	0.074
-644.726	-89.758	-0.486	0.143
-643.711	30.489	-0.280	-0.241
-642.697	-111.457	1.373	-0.281
-641.682	-200.000	-0.044	0.255
-640.668	16.773	-0.556	-0.442
-639.653	-200.000	-0.004	0.162
-638.638	-200.000	-0.075	1.060
-637.624	-200.000	-0.112	1.257
-636.609	60.499	-0.443	-0.441
-635.595	-90.603	-0.376	0.109
-634.580	-42.684	0.892	0.456
-633.565	-200.000	0.188	1.453
-632.551	-62.889	0.111	0.046
-631.536	800.000	0.238	-0.958
-630.522	-200.000	-0.093	-0.582
-629.507	248.734	0.354	-0.602
-628.492	15.441	0.533	-0.421
-627.478	-48.000	-0.163	0.079
-626.463	-139.569	0.374	-0.040
-625.449	0.196	-0.912	0.653
-624.434	-132.967	-0.356	-0.045
-623.419	-91.236	-0.375	-0.108
-622.405	-178.780	0.253	0.006
-621.390	-122.847	0.676	-0.110
-620.376	-33.636	0.226	0.125
-619.361	-200.000	-0.011	0.145
-618.346	800.000	0.143	0.491
-617.332	800.000	0.249	0.782
-616.317	12.344	-0.568	-0.440
-615.303	-71.125	0.135	-0.051
-614.288	1.616	-0.082	0.059
-613.273	-35.950	0.224	-0.122
-612.259	477.694	-0.281	0.638
-611.244	-111.588	-0.945	0.193
-610.230	-12.215	0.544	0.357
-609.215	47.420	-0.194	-0.181
-608.201	284.022	0.030	0.053
-607.186	-200.000	0.078	-0.789
-606.171	800.000	0.123	-0.392
-605.157	-50.546	0.860	0.407
-604.142	147.697	0.487	0.659
-603.128	316.986	-0.044	-0.083
-602.113	409.325	0.340	-0.722
-601.098	800.000	-0.069	0.295
-600.084	44.606	-0.638	0.589
-599.069	-178.559	-1.087	0.025
-598.055	-20.746	-0.484	-0.298
-597.040	-141.599	0.399	0.040
-596.025	502.621	0.244	-0.566
-595.011	131.992	-0.305	-0.394
-593.996	356.668	0.293	-0.585
-592.982	-200.000	-0.003	-0.052
-591.967	-95.502	0.493	0.133
-590.952	-78.192	-0.380	-0.131
-589.938	800.000	-0.058	-0.175
-588.923	-40.251	0.233	-0.122
-587.909	-134.849	0.285	-0.035
-586.894	800.000	0.155	-0.662
-585.879	-83.806	0.351	-0.112
-584.865	-200.000	-0.096	-0.863
-583.850	163.854	0.681	-0.962
-582.836	313.414	0.187	-0.353
-581.821	800.000	0.056	0.230
-580.806	104.521	-0.579	0.684
-579.792	337.447	0.341	-0.665
-578.777	800.000	0.246	-0.881
-577.763	-35.985	-0.432	-0.234
-576.748	-92.596	0.738	-0.208
-575.733	-110.952	-0.258	0.053
-574.719	108.338	0.662	-0.792
-573.704	1.439	0.527	0.380
-572.690	-200.000	0.051	0.305
-571.675	203.152	-0.057	-0.089
-570.661	800.000	0.143	0.410
-569.646	800.000	-0.096	0.343
-568.631	-98.595	-0.648	-0.166
-567.617	800.000	-0.153	0.516
-566.602	800.000	-0.237	-0.802
-565.588	177.270	-0.314	-0.458
-564.573	-107.793	0.222	-0.049
-563.558	800.000	-0.082	-0.247
-562.544	38.802	-0.360	0.322
-561.529	717.367	0.166	-0.441
-560.515	13.528	0.382	-0.297
-559.500	281.119	-0.034	0.062
-558.485	-147.715	-0.555	-0.047
-557.471	70.001	0.459	0.475
-556.456	457.674	-0.255	0.568
-555.442	-200.000	-0.010	-0.156
-554.427	239.822	-0.494	-0.825
-553.412	-200.000	0.116	0.602
-552.398	255.047	0.585	1.005
-551.383	-60.980	0.308	0.130
-550.369	49.880	0.357	0.337
-549.354	800.000	-0.158	-0.466
-548.339	-159.837	0.328	0.018
-547.325	-102.596	0.528	-0.126
-546.310	-85.231	-0.755	0.236
-545.296	-200.000	0.157	0.861
-544.281	239.548	0.249	-0.415
-543.266	113.078	0.276	0.336
-542.252	-56.699	0.427	-0.189
-541.237	800.000	0.106	0.369
-540.223	-103.450	0.414	0.098
-539.208	41.636	-0.566	-0.513
-538.193	210.433	-0.455	-0.716
-537.179	-65.861	-0.080	0.032
-536.164	800.000	-0.174	-0.612
-535.150	29.320	-0.558	0.475
-534.135	-111.219	-0.790	0.162
-533.121	363.732	-0.343	0.690
-532.106	-0.581	0.300	-0.213
-531.091	-67.707	0.739	0.290
-530.077	655.867	-0.153	0.393
-529.062	-200.000	-0.054	1.146
-528.048	-200.000	0.095	-0.728
-527.033	-111.806	-0.785	0.159
-526.018	-200.000	-0.112	-1.029
-525.004	800.000	0.160	0.453
-523.989	-57.033	-0.439	0.194
-522.975	29.222	-0.556	-0.472
-521.960	-57.190	-0.376	0.166
-520.945	-32.324	-0.972	-0.543
-519.931	342.895	-0.188	0.369
-518.916	462.839	-0.124	-0.277
-517.902	100.368	-0.409	-0.475
-516.887	-116.444	0.371	0.069
-515.872	376.134	-0.257	-0.524
-514.858	-171.053	-0.667	0.023
-513.843	-117.026	-0.300	0.055
-512.829	56.525	0.706	-0.687
-511.814	800.000	0.226	-0.641
-510.799	-9.506	-0.503	-0.336
-509.785	84.480	0.512	-0.560
-508.770	288.617	-0.055	0.100
-507.756	-153.020	0.616	0.043
-506.741	11.387	0.604	-0.463
-505.726	-39.217	0.384	-0.202
-504.712	-166.067	-0.568	0.024
-503.697	-93.654	-0.239	-0.066
-502.683	118.881	-0.367	0.454
-501.668	-200.000	0.050	0.600
-500.653	34.957	-0.792	-0.693
-499.639	121.780	-0.638	-0.795
-498.624	150.290	-0.291	0.395
-497.610	207.150	-0.374	-0.584
-496.595	-171.251	1.008	-0.034
-495.581	-87.654	-0.675	-0.204
-494.566	288.459	0.270	0.489
-493.551	800.000	0.272	0.786
-492.537	800.000	0.190	0.660
-491.522	-53.009	0.938	0.431
-490.508	386.295	-0.158	-0.326
-489.493	-33.742	-0.441	-0.243
-488.478	-124.430	-0.170	0.027
-487.464	800.000	-0.026	0.098
-486.449	-166.628	0.121	0.005
-485.435	530.366	-0.371	0.875
-484.420	528.545	-0.328	0.773
-483.405	-52.180	0.503	-0.233
-482.391	-118.668	-0.588	0.104
-481.376	-90.056	0.244	-0.071
-480.362	-104.983	0.264	0.060
-479.347	348.448	0.241	-0.476
-478.332	-200.000	0.066	0.576
-477.318	-200.000	0.093	-1.182
-476.303	-200.000	-0.076	-0.564
-475.289	-165.009	0.173	-0.008
-474.274	225.249	-0.367	0.594
-473.259	105.879	0.382	-0.452
-472.245	3.357	-0.223	0.162
-471.230	796.182	-0.148	-0.406
-470.216	459.645	0.382	0.850
-469.201	-100.594	-0.681	-0.168
-468.186	-188.514	-0.232	-0.003
-467.172	-131.029	0.765	-0.102
-466.157	-93.392	0.208	0.058
-465.143	304.742	0.475	-0.881
-464.128	-34.893	-0.319	0.174
-463.113	-200.000	-0.038	0.785
-462.099	319.398	0.127	0.241
-461.084	800.000	-0.179	0.645
-460.070	46.661	0.496	0.459
-459.055	-104.070	-0.630	0.146
-458.040	-62.795	-1.004	-0.415
-457.026	68.709	-0.511	0.524
-456.011	354.188	0.202	0.401
-454.997	800.000	0.203	-0.853
-453.982	63.840	-0.401	-0.403
-452.968	162.456	0.879	-1.231
-451.953	271.186	-0.248	0.435
-450.938	-133.143	-0.431	-0.054
-449.924	168.462	-0.832	-1.182
-448.909	800.000	-0.126	0.482
-447.895	631.880	-0.303	-0.765
-446.880	41.884	-0.354	0.321
-445.865	270.414	-0.101	-0.178
-444.851	-107.913	0.520	-0.113
-443.836	-68.495	0.629	-0.243
-442.822	-115.367	0.111	0.021
-441.807	82.890	0.240	-0.260
-440.792	6.380	0.352	-0.261
-439.778	251.834	-0.033	-0.056
-438.763	36.179	0.203	0.178
-437.749	-11.261	0.299	0.197
-436.734	800.000	0.149	0.438
-435.719	-9.505	0.230	0.153
-434.705	106.872	0.045	-0.054
-433.690	200.692	-0.368	-0.565
-432.676	86.154	0.526	0.578
-431.661	-200.000	-0.055	0.339
-430.646	-200.000	0.003	0.354
-429.632	-86.286	-0.353	-0.108
-428.617	363.000	0.242	-0.485
-427.603	-140.547	0.207	-0.021
-426.588	38.179	-0.249	0.221
-425.573	-101.941	-0.132	0.032
-424.559	-133.948	-0.866	0.107
-423.544	-35.564	0.772	0.418
-422.530	7.259	0.344	-0.256
-421.515	800.000	-0.158	-0.648
-420.500	-200.000	0.037	-0.421
-419.486	800.000	0.402	1.333
-418.471	-89.251	-0.308	-0.091
-417.457	179.164	-0.175	-0.255
-416.442	579.961	0.186	0.455
-415.428	-98.112	-0.460	0.118
-414.413	8.102	0.576	0.431
-413.398	-200.000	0.074	-0.336
-412.384	-49.353	-0.247	-0.117
-411.369	33.133	0.718	0.620
-410.355	-44.700	0.490	-0.244
-409.340	-65.222	0.412	-0.165
-408.325	144.396	-0.465	-0.618
-407.311	800.000	0.068	0.190
-406.296	8.441	0.428	0.321
-405.282	-41.727	-0.259	-0.132
-404.267	40.182	-0.444	0.398
-403.252	-80.974	-0.067	-0.022
-402.238	-116.606	0.697	0.128
-401.223	277.247	0.386	-0.684
-400.209	-24.268	0.255	-0.152
-399.194	-162.014	-0.120	0.006
-398.179	27.898	-0.419	0.352
-397.165	95.338	-0.164	0.186
-396.150	-200.000	-0.011	-0.324
-395.136	26.775	0.521	0.435
-394.121	41.765	-0.296	0.267
-393.106	-200.000	0.085	0.531
-392.092	213.617	0.097	-0.152
-391.077	-58.149	-0.549	-0.238
-390.063	271.342	-0.373	0.655
-389.048	632.555	-0.220	-0.555
-388.033	-170.488	0.842	-0.029
-387.019	-200.000	0.084	-1.002
-386.004	741.862	-0.137	-0.366
-384.990	87.472	0.296	0.326
-383.975	18.136	0.338	-0.269
-382.960	-151.600	-0.870	-0.064
-381.946	47.648	-0.761	0.706
-380.931	-60.148	0.803	-0.341
-379.917	67.808	-0.335	-0.341
-378.902	-66.346	0.090	-0.036
-377.888	800.000	-0.093	-0.363
-376.873	-42.606	0.444	-0.225
-375.858	-200.000	-0.106	0.594
-374.844	-91.019	-0.293	0.084
-373.829	-165.351	0.526	-0.023
-372.815	-140.914	-0.596	-0.061
-371.800	123.293	0.485	-0.605
-370.785	-144.209	-0.919	0.085
-369.771	-117.084	-0.238	0.043
-368.756	109.434	0.194	0.231
-367.742	-85.811	0.428	0.132
-366.727	-42.775	-0.598	0.302
-365.712	13.088	-0.342	0.263
-364.698	76.253	0.146	0.154
-363.683	-24.815	0.440	-0.260
-362.669	-106.028	-0.891	-0.199
-361.654	38.151	0.400	-0.354
-360.639	800.000	0.102	-0.323
-359.625	-76.500	-0.071	-0.025
-358.610	38.517	0.290	0.258
-357.596	-48.344	0.717	0.344
-356.581	624.426	-0.196	0.492
-355.566	771.439	-0.168	0.455
-354.552	281.232	-0.268	0.478
-353.537	-94.291	-0.496	-0.135
-352.523	106.985	0.370	0.437
-351.508	-112.655	0.071	-0.014
-350.493	-80.616	0.645	0.214
-349.479	-148.683	0.067	0.005
-348.464	-189.608	0.330	-0.004
-347.450	-94.319	-0.340	0.092
-346.435	149.169	-0.095	-0.128
-345.420	263.415	-0.353	-0.609
-344.406	276.098	0.253	-0.447
-343.391	539.186	0.151	0.358
-342.377	30.184	0.688	-0.583
-341.362	27.600	-0.449	0.375
-340.348	122.048	-0.866	-1.074
-339.333	800.000	-0.101	0.312
-338.318	238.702	0.083	0.138
-337.304	-52.080	-0.919	0.424
-336.289	-114.198	-0.447	0.086
-335.275	-200.000	0.027	0.662
-334.260	-3.534	0.592	-0.409
-333.245	26.698	-0.369	-0.307
-332.231	154.786	0.139	-0.189
-331.216	485.448	0.143	-0.324
-330.202	17.123	-0.688	0.542
-329.187	202.564	0.131	-0.201
-328.172	28.908	0.363	0.305
-327.158	-36.545	-0.191	-0.102
-326.143	-200.000	0.025	-0.488
-325.129	-70.748	-0.565	0.212
-324.114	-200.000	-0.110	0.630
-323.099	-107.407	0.581	-0.127
-322.085	-200.000	0.054	-0.877
-321.070	800.000	-0.025	-0.090
-320.056	-81.988	0.276	-0.090
-319.041	369.629	0.439	0.882
-318.026	69.670	-0.045	0.046
-317.012	373.743	0.382	0.771
-315.997	-200.000	-0.111	0.506
-314.983	-123.273	-0.567	-0.090
-313.968	-200.000	0.057	-0.660
-312.953	-120.232	-0.697	-0.118
-311.939	79.177	-0.516	-0.549
-310.924	150.245	-0.275	0.370
-309.910	800.000	0.160	-0.569
-308.895	374.154	-0.185	-0.374
-307.880	-200.000	0.167	-0.863
-306.866	-88.758	-0.261	-0.077
-305.851	161.782	0.270	0.375
-304.837	-200.000	0.011	-0.457
-303.822	-81.826	0.235	-0.076
-302.807	250.576	0.251	-0.424
-301.793	-30.913	-0.188	-0.105
-300.778	-103.260	-0.834	-0.195
-299.764	-200.000	0.094	-0.499
-298.749	255.887	0.180	-0.306
-297.735	-200.000	-0.012	-0.344
-296.720	-200.000	0.044	-0.192
-295.705	-200.000	0.028	0.877
-294.691	-153.701	-0.377	0.026
-293.676	174.337	-0.436	0.625
-292.662	-53.641	-0.585	0.265
-291.647	-200.000	0.405	-0.000
-290.632	-200.000	-0.031	0.167
-289.618	-128.391	0.874	0.123
-288.603	145.905	-0.340	0.452
-287.589	-102.598	0.754	0.179
-286.574	-3.039	0.371	-0.256
-285.559	-200.000	0.005	-0.185
-284.545	0.339	0.456	-0.323
-283.530	122.293	-0.252	-0.313
-282.516	-134.173	0.481	0.059
-281.501	-9.162	0.518	-0.343
-280.486	114.692	0.144	-0.174
-279.472	-46.985	-0.363	-0.176
-278.457	-72.724	0.417	0.152
-277.443	42.656	-0.303	0.273
-276.428	153.819	0.573	0.778
-275.413	-200.000	-0.093	1.005
-274.399	-41.367	0.478	0.244
-273.384	-52.228	0.536	-0.246
-272.370	-20.811	0.389	-0.236
-271.355	223.218	-0.778	-1.243
-270.340	-62.049	-0.670	-0.277
-269.326	-112.136	0.138	0.027
-268.311	-121.625	-0.766	0.126
-267.297	-106.189	0.884	0.197
-266.282	256.743	0.308	-0.525
-265.267	-89.115	-0.344	0.101
-264.253	-113.305	0.870	0.169
-263.238	800.000	-0.167	0.526
-262.224	-136.679	-0.436	0.050
-261.209	46.429	-0.290	-0.266
-260.195	-200.000	0.072	0.720
-259.180	-31.060	0.809	-0.452
-258.165	82.191	0.198	0.212
-257.151	47.985	-0.316	-0.292
-256.136	-52.520	0.468	-0.214
-255.122	-44.696	0.527	0.261
-254.107	34.059	0.964	0.832
-253.092	61.597	-0.413	-0.407
-252.078	-81.865	-0.488	0.158
-251.063	-148.457	0.143	-0.012
-250.049	-112.944	0.610	0.120
-249.034	800.000	0.097	0.277
-248.019	-200.000	0.181	0.953
-247.005	-125.082	0.195	0.030
-245.990	-184.336	-0.536	-0.009
-244.976	800.000	-0.039	0.137
-243.961	-200.000	0.159	0.869
-242.946	98.936	0.213	0.244
-241.932	315.586	-0.069	0.129
-240.917	800.000	-0.145	0.565
-239.903	800.000	-0.393	-1.357
-238.888	-173.710	-0.461	-0.014
-237.873	240.862	-0.140	-0.230
-236.859	-135.076	-0.302	0.036
-235.844	-3.112	-0.217	0.150
-234.830	-200.000	0.015	0.115
-233.815	-200.000	-0.065	0.804
-232.800	800.000	-0.213	-0.687
-231.786	91.868	-0.521	0.580
-230.771	-118.304	-0.608	0.107
-229.757	314.423	0.304	-0.566
-228.742	800.000	0.128	0.501
-227.727	-200.000	-0.013	-0.286
-226.713	-187.981	0.636	-0.008
-225.698	-89.847	0.920	-0.266
-224.684	800.000	-0.172	-0.522
-223.669	2.715	-0.596	-0.428
-222.655	-200.000	-0.021	0.423
-221.640	-143.662	-0.697	-0.065
-220.625	-200.000	-0.019	0.120
-219.611	800.000	-0.151	0.557
-218.596	186.358	-0.331	-0.487
-217.582	-146.641	0.819	-0.070
-216.567	42.292	-0.239	-0.215
-215.552	-103.047	0.508	0.119
-214.538	622.486	-0.162	-0.404
-213.523	711.607	0.261	-0.682
-212.509	0.144	-0.406	0.286
-211.494	41.789	0.173	0.155
-210.479	-14.892	0.694	0.440
-209.465	-114.930	-0.457	-0.086
-208.450	800.000	0.232	0.844
-207.436	800.000	0.088	0.287
-206.421	8.005	0.842	-0.624
-205.406	43.116	-0.141	0.127
-204.392	773.884	-0.396	-1.069
-203.377	-141.714	-0.228	-0.023
-202.363	-200.000	-0.209	-1.072
-201.348	-200.000	0.021	-0.259
-200.333	-15.471	0.584	0.369
-199.319	261.344	-0.265	0.454
-198.304	-107.769	-0.323	0.070
-197.290	800.000	0.084	0.286
-196.275	544.318	-0.231	0.544
-195.260	416.495	-0.479	-1.010
-194.246	119.744	0.286	0.350
-193.231	337.420	-0.535	1.027
-192.217	59.866	0.440	0.429
-191.202	39.084	-0.254	0.225
-190.187	21.411	-0.941	0.756
-189.173	45.377	0.173	0.158
-188.158	-31.152	-0.968	0.539
-187.144	800.000	0.302	-1.231
-186.129	-44.165	0.360	0.178
-185.114	-78.677	-0.273	-0.092
-184.100	65.580	-0.349	0.349
-183.085	-156.885	0.392	-0.024
-182.071	440.597	0.145	-0.312
-181.056	-152.072	0.284	-0.020
-180.042	-108.410	1.188	-0.253
-179.027	-118.894	0.555	0.096
-178.012	-200.000	-0.043	-0.283
-176.998	-48.233	-0.361	0.172
-175.983	800.000	0.160	-0.582
-174.969	800.000	0.367	1.454
-173.954	-200.000	0.009	0.199
-172.939	-52.124	-0.599	-0.275
-171.925	-165.576	-0.522	-0.022
-170.910	-200.000	-0.032	-0.255
-169.896	800.000	-0.180	-0.547
-168.881	15.681	0.278	0.215
-167.866	-160.544	0.357	0.019
-166.852	800.000	0.224	0.805
-165.837	-80.249	-0.663	-0.219
-164.823	18.016	-0.175	0.138
-163.808	-200.000	0.020	0.255
-162.793	-78.420	0.570	0.193
-161.779	-34.992	-0.496	0.267
-160.764	-176.609	1.026	-0.026
-159.750	800.000	0.167	-0.494
-158.735	-200.000	-0.085	0.772
-157.720	-200.000	-0.220	0.960
-156.706	-200.000	0.059	-0.348
-155.691	324.603	0.202	-0.380
-154.677	192.506	-0.365	-0.543
-153.662	493.860	0.102	-0.230
-152.647	91.702	-0.718	0.797
-151.633	174.510	-0.267	0.380
-150.618	-200.000	0.053	-0.492
-149.604	-52.811	0.081	0.037
-148.589	-117.165	0.396	0.071
-147.574	-200.000	0.126	0.631
-146.560	-200.000	-0.085	0.516
-145.545	-109.039	0.842	-0.177
-144.531	-132.513	-0.367	0.047
-143.516	800.000	-0.163	-0.662
-142.502	723.650	0.169	-0.444
-141.487	-200.000	0.142	0.704
-140.472	349.125	-0.349	-0.679
-139.458	454.293	0.141	-0.309
-138.443	80.662	-0.531	-0.565
-137.429	484.625	0.331	-0.742
-136.414	800.000	0.212	0.772
-135.399	127.484	0.462	-0.578
-134.385	-81.636	0.544	0.176
-133.370	219.989	0.325	-0.513
-132.356	-84.235	0.540	0.169
-131.341	216.531	0.253	0.397
-130.326	21.179	0.102	0.082
-129.312	-158.294	-0.431	0.025
-128.297	448.022	0.446	0.968
-127.283	-137.275	0.212	0.024
-126.268	533.627	0.087	-0.203
-125.253	102.749	0.175	0.202
-124.239	-133.158	-1.692	-0.211
-123.224	-127.651	-0.134	0.019
-122.210	-200.000	-0.002	0.074
-121.195	-200.000	0.083	0.537
-120.180	74.600	0.098	-0.101
-119.166	-82.780	0.497	0.158
-118.151	183.144	0.264	0.385
-117.137	-97.957	-0.628	0.159
-116.122	800.000	-0.130	-0.448
-115.107	-120.183	-0.141	-0.024
-114.093	-64.823	-0.652	0.260
-113.078	-182.316	-0.031	0.001
-112.064	800.000	0.195	-0.580
-111.049	680.589	0.176	0.451
-110.034	502.978	0.166	0.377
-109.020	207.900	-0.286	0.441
-108.005	-34.447	0.143	-0.077
-106.991	-11.255	-0.331	-0.215
-105.976	-101.636	0.914	-0.219
-104.962	-200.000	-0.056	-0.844
-103.947	-200.000	0.008	-0.218
-102.932	-158.052	-0.200	-0.012
-101.918	-200.000	-0.015	0.719
-100.903	174.030	-0.021	0.031
-99.889	52.716	-0.290	0.272
-98.874	-200.000	0.057	0.390
-97.859	-131.297	-0.701	0.092
-96.845	712.465	0.100	-0.260
-95.830	-200.000	-0.120	-0.562
-94.816	-133.241	-0.571	-0.071
-93.801	149.884	0.363	0.484
-92.786	312.369	-0.623	-1.151
-91.772	532.122	-0.149	0.346
-90.757	194.356	0.114	0.169
-89.743	-200.000	-0.028	1.164
-88.728	132.495	-0.440	-0.559
-87.713	46.660	0.353	-0.322
-86.699	800.000	-0.087	-0.239
-85.684	-127.857	0.759	-0.108
-84.670	346.528	0.423	-0.819
-83.655	184.947	-0.164	0.239
-82.640	-167.835	-0.368	-0.014
-81.626	-69.573	-0.647	0.244
-80.611	-24.108	0.501	-0.295
-79.597	-200.000	-0.105	-0.483
-78.582	-200.000	-0.038	-0.252
-77.567	252.482	-0.394	-0.661
-76.553	-200.000	-0.095	-0.820
-75.538	800.000	0.203	0.562
-74.524	302.025	0.257	0.468
-73.509	48.921	0.628	-0.580
-72.494	111.108	0.147	-0.174
-71.480	800.000	-0.151	0.561
-70.465	117.740	-0.474	0.574
-69.451	262.056	0.262	0.447
-68.436	366.593	-0.158	0.314
-67.422	277.824	-0.100	0.175
-66.407	-183.167	-0.398	-0.007
-65.392	259.847	0.407	0.691
-64.378	52.232	0.289	-0.271
-63.363	-93.845	0.646	0.175
-62.349	50.303	-0.618	-0.574
-61.334	747.792	-0.646	-1.712
-60.319	133.913	-0.246	0.313
-59.305	742.104	-0.334	-0.883
-58.290	800.000	0.205	0.721
-57.276	800.000	0.491	1.860
-56.261	-200.000	98.573	608.096
-55.246	618.641	1380.261	3407.059
-54.232	199.552	2548.435	3840.860
-53.217	118.114	2119.251	2567.011
-52.203	43.476	1583.562	1422.412
-51.188	35.310	1323.008	1140.033
-50.173	32.073	1282.391	1086.295
-49.159	56.066	1332.754	1270.921
-48.144	56.563	1349.409	1289.679
-47.130	35.302	1307.413	1126.369
-46.115	31.503	1288.991	1088.399
-45.100	31.629	1284.000	1084.870
-44.086	31.514	1281.814	1082.318
-43.071	31.573	1278.669	1079.958
-42.057	31.601	1276.720	1078.432
-41.042	31.579	1275.075	1076.871
-40.027	31.670	1274.251	1076.656
-39.013	31.787	1271.013	1074.548
-37.998	31.422	1271.268	1072.627
-36.984	31.696	1268.278	1071.629
-35.969	31.594	1266.820	1069.773
-34.954	31.511	1265.649	1068.266
-33.940	31.774	1263.921	1068.266
-32.925	31.840	1262.024	1066.994
-31.911	31.529	1262.310	1065.426
-30.896	31.624	1261.289	1065.062
-29.881	31.586	1259.443	1063.245
-28.867	31.505	1258.596	1062.030
-27.852	31.900	1255.816	1061.876
-26.838	32.097	1253.707	1061.165
-25.823	31.908	1253.008	1059.462
-24.809	31.667	1251.790	1057.030
-23.794	31.558	1250.881	1055.609
-22.779	31.745	1249.249	1055.241
-21.765	31.808	1247.448	1054.034
-20.750	31.701	1245.988	1052.155
-19.736	31.719	1244.950	1051.342
-18.721	31.343	1245.090	1049.306
-17.706	31.522	1243.425	1048.863
-16.692	31.553	1242.409	1048.139
-15.677	31.699	1241.516	1048.158
-14.663	31.746	1238.672	1045.979
-13.648	31.295	1238.745	1043.481
-12.633	31.602	1237.668	1044.248
-11.619	31.659	1236.782	1043.777
-10.604	31.514	1236.409	1042.609
-9.590	31.526	1234.629	1041.137
-8.575	31.468	1232.781	1039.215
-7.560	31.599	1232.959	1040.048
-6.546	31.544	1231.922	1038.830
-5.531	31.447	1231.233	1037.670
-4.517	31.596	1230.799	1038.087
-3.502	31.656	1229.882	1037.607
-2.487	31.433	1229.480	1035.990
-1.473	31.600	1224.419	1032.607
-0.458	30.126	1209.643	1012.064
0.556	27.624	1192.157	972.812
1.571	23.829	1196.597	955.978
2.586	22.882	1209.893	961.364
3.600	22.066	1200.719	949.580
4.615	16.950	1129.001	866.706
5.629	7.607	1054.767	764.850
6.644	3.518	1035.563	731.495
7.659	3.351	1033.709	729.331
8.673	3.363	1031.752	727.945
9.688	3.368	1030.076	726.721
10.702	3.547	1028.045	726.065
11.717	9.739	1035.236	760.349
12.731	18.912	1048.803	813.868
13.746	23.121	1054.894	838.522
14.761	23.970	1055.369	842.847
15.775	23.404	1055.131	839.904
16.790	23.415	1051.477	836.971
17.804	23.052	1051.748	835.396
18.819	22.894	1051.482	834.367
19.834	22.859	1050.518	833.362
20.848	22.813	1051.342	833.727
21.863	22.985	1049.611	833.092
22.877	22.712	1049.877	831.941
23.892	22.286	1049.279	829.383
24.907	22.879	1047.806	830.938
25.921	22.712	1047.295	829.673
26.936	22.679	1044.065	826.885
27.950	22.236	1044.136	824.792
28.965	22.566	1042.051	824.616
29.980	22.685	1041.250	824.465
30.994	22.684	1040.007	823.403
32.009	22.724	1039.491	823.108
33.023	22.612	1038.630	821.833
34.038	22.866	1036.969	821.626
35.053	22.619	1035.715	819.415
36.067	22.318	1036.084	818.232
37.082	22.601	1034.750	818.420
38.096	22.782	1033.948	818.552
39.111	22.912	1033.549	818.767
40.126	22.700	1031.560	816.141
41.140	22.322	1029.994	813.081
42.155	22.116	1028.806	811.119
43.169	21.957	1027.208	809.057
44.184	21.802	1026.566	807.767
45.199	21.975	1025.231	807.440
46.213	22.332	1025.073	808.885
47.228	22.471	1025.102	809.475
48.242	22.631	1025.479	810.435
49.257	22.829	1023.727	809.891
50.271	22.751	1023.101	808.963
51.286	23.216	1021.493	809.751
52.301	23.254	1021.290	809.693
53.315	22.684	1020.762	806.597
54.330	22.485	1019.765	804.826
55.344	22.439	1018.796	803.779
56.359	22.365	1018.073	802.801
57.374	22.008	1017.147	800.374
58.388	22.395	1015.328	800.632
59.403	22.077	1015.807	799.493
60.417	21.862	1015.887	798.505
61.432	21.949	1013.679	797.093
62.447	22.099	1013.053	797.211
63.461	22.199	1012.406	797.084
64.476	21.703	1011.309	793.903
65.490	21.823	1010.470	793.719
66.505	21.814	1009.697	793.000
67.520	22.095	1008.831	793.522
68.534	21.914	1008.933	792.712
69.549	21.746	1008.040	791.184
70.563	21.278	1007.341	788.450
71.578	21.545	1004.777	787.577
72.593	21.264	1003.675	785.380
73.607	21.367	1003.236	785.429
74.622	21.524	1003.491	786.267
75.636	21.558	1002.373	785.475
76.651	21.630	1001.754	785.241
77.666	21.746	1001.400	785.416
78.680	21.763	1000.862	784.998
79.695	21.470	999.963	782.913
80.709	21.849	999.564	784.227
81.724	21.980	999.009	784.307
82.739	21.918	999.263	784.160
83.753	22.712	998.487	787.026
84.768	23.144	998.071	788.553
85.782	23.309	997.018	788.387
86.797	23.247	996.359	787.522
87.812	22.714	995.603	784.483
88.826	22.666	995.013	783.733
89.841	23.183	993.294	784.606
90.855	23.211	992.823	784.288
91.870	23.316	991.320	783.496
92.884	22.912	991.614	781.869
93.899	22.670	991.300	780.481
94.914	22.981	989.558	780.419
95.928	23.193	988.295	780.286
96.943	22.716	987.526	777.509
97.957	22.678	986.667	776.594
98.972	22.638	986.393	776.135
99.987	22.836	984.676	775.586
101.001	23.050	983.187	775.283
102.016	22.491	983.049	772.655
103.030	22.635	982.640	772.897
104.045	22.807	982.171	773.212
105.060	23.145	979.548	772.555
106.074	22.207	980.349	769.016
107.089	22.347	978.214	767.886
108.103	22.051	977.567	766.016
109.118	22.420	975.188	765.691
110.133	21.463	975.709	761.865
111.147	21.625	974.581	761.625
112.162	21.783	974.044	761.824
113.176	21.934	973.004	761.597
114.191	22.170	972.650	762.277
115.206	22.101	971.578	761.072
116.220	21.787	970.834	759.059
117.235	21.848	969.627	758.313
118.249	21.926	968.332	757.571
119.264	21.727	967.785	756.218
120.279	21.499	967.329	754.809
121.293	21.628	966.417	754.585
122.308	21.490	965.438	753.160
123.322	21.065	965.077	750.984
124.337	21.226	963.834	750.644
125.352	21.403	962.251	750.103
126.366	21.290	961.987	749.347
127.381	21.499	961.029	749.430
128.395	22.170	960.039	751.459
129.410	21.962	959.612	750.172
130.424	21.855	958.968	749.145
131.439	22.035	958.485	749.467
132.454	22.289	957.249	749.518
133.468	22.314	955.842	748.457
134.483	22.037	955.596	747.022
135.497	22.346	954.426	747.350
136.512	22.051	953.670	745.443
137.527	22.331	953.290	746.266
138.541	22.461	952.105	745.824
139.556	22.249	952.506	745.172
140.570	22.639	951.143	745.693
141.585	22.895	950.759	746.405
142.600	22.755	950.577	745.606
143.614	23.006	950.019	746.161
144.629	23.193	949.356	746.366
145.643	22.877	948.054	743.944
146.658	22.771	946.126	741.917
147.673	22.721	944.876	740.661
148.687	22.520	944.192	739.218
149.702	22.025	943.194	736.298
150.716	22.186	942.753	736.563
151.731	22.550	940.999	736.649
152.746	22.195	941.635	735.596
153.760	22.441	940.505	735.674
154.775	22.709	940.997	737.117
155.789	22.547	939.006	734.817
156.804	22.413	939.021	734.202
157.819	22.666	938.981	735.162
158.833	22.816	937.516	734.573
159.848	23.138	936.805	735.289
160.862	23.026	935.832	733.995
161.877	22.592	933.819	730.553
162.892	22.320	931.852	727.825
163.906	22.217	930.913	726.603
164.921	22.033	931.149	725.962
165.935	22.437	929.953	726.632
166.950	22.212	929.675	725.424
167.964	22.589	928.317	725.854
168.979	22.408	927.246	724.206
169.994	22.472	926.113	723.522
171.008	22.049	927.196	722.561
172.023	22.732	926.262	724.578
173.037	22.932	925.518	724.750
174.052	22.932	923.646	723.220
175.067	22.357	923.053	720.339
176.081	21.895	922.557	718.000
177.096	21.563	922.583	716.595
178.110	22.172	920.481	717.385
179.125	22.156	919.869	716.781
180.140	22.241	920.221	717.339
181.154	22.553	919.595	718.059
182.169	22.466	920.944	718.693
183.183	22.747	919.045	718.292
184.198	22.404	918.394	716.326
185.213	22.431	918.090	716.133
186.227	23.030	916.005	716.875
187.242	22.876	916.578	716.635
188.256	23.280	915.427	717.305
189.271	23.282	914.606	716.608
190.286	22.657	914.930	714.270
191.300	21.831	913.123	709.452
192.315	21.753	912.475	708.572
193.329	21.714	912.254	708.182
194.344	22.069	912.326	709.608
195.359	22.430	910.320	709.439
196.373	22.615	910.866	710.550
197.388	22.528	910.936	710.188
198.402	23.150	909.555	711.551
199.417	23.103	910.935	712.378
200.432	23.180	909.516	711.518
201.446	23.354	909.010	711.759
202.461	23.128	909.256	710.978
203.475	22.898	907.349	708.503
204.490	22.722	905.463	706.260
205.504	22.814	903.756	705.235
206.519	22.825	904.139	705.516
207.534	22.714	905.098	705.758
208.548	22.923	903.274	705.106
209.563	22.705	902.590	703.642
210.577	22.656	902.647	703.428
211.592	23.152	903.066	705.672
212.607	23.342	901.260	704.953
213.621	22.869	901.597	703.270
214.636	22.923	900.277	702.394
215.650	23.263	898.232	702.084
216.665	23.056	898.063	701.069
217.680	23.155	898.231	701.534
218.694	22.952	897.801	700.328
219.709	23.097	896.334	699.696
220.723	22.707	895.938	697.783
221.738	22.675	895.014	696.875
222.753	22.638	894.554	696.309
223.767	22.903	893.314	696.327
224.782	23.062	893.235	696.832
225.796	23.234	893.997	698.041
226.811	22.945	893.209	696.225
227.826	22.715	891.503	693.931
228.840	22.983	891.379	694.825
229.855	22.760	889.781	692.643
230.869	22.680	888.802	691.507
231.884	22.657	888.940	691.462
232.899	22.301	888.293	689.503
233.913	22.596	887.737	690.165
234.928	22.217	886.493	687.657
235.942	22.285	885.656	687.210
236.957	22.108	886.006	686.732
237.972	22.223	884.620	686.043
238.986	22.160	884.423	685.584
240.001	22.494	882.382	685.244
241.015	22.333	883.400	685.345
242.030	22.334	883.034	685.003
243.045	22.691	882.516	685.929
244.059	22.434	881.607	684.165
245.074	22.611	881.516	684.720
246.088	22.628	881.513	684.723
247.103	23.055	881.540	686.343
248.117	23.739	879.590	687.411
249.132	23.924	879.905	688.313
250.147	23.946	880.166	688.539
251.161	24.511	879.115	689.843
252.176	24.147	878.276	687.718
253.190	24.044	878.637	687.542
254.205	23.990	878.536	687.191
255.220	23.275	877.981	683.939
256.234	23.829	876.408	684.786
257.249	23.475	876.691	683.584
258.263	23.687	875.023	683.036
259.278	23.723	874.580	682.769
260.293	24.141	873.256	683.277
261.307	23.999	873.904	683.179
262.322	23.877	872.410	681.484
263.336	24.118	871.526	681.658
264.351	23.961	870.449	680.153
265.366	23.715	869.700	678.568
266.380	23.599	869.975	678.281
267.395	24.011	869.547	679.461
268.409	23.911	868.437	678.152
269.424	23.948	867.523	677.516
270.439	23.737	866.416	675.792
271.453	23.785	865.636	675.303
272.468	23.740	866.016	675.369
273.482	23.580	865.369	674.198
274.497	23.755	864.565	674.177
275.512	23.665	864.758	673.924
276.526	23.702	864.199	673.570
277.541	23.922	863.023	673.429
278.555	23.994	863.843	674.281
279.570	23.721	863.545	672.953
280.585	23.959	861.881	672.497
281.599	23.605	860.826	670.279
282.614	23.298	860.525	668.825
283.628	23.626	859.417	669.142
284.643	23.692	858.137	668.335
285.657	23.862	857.010	668.038
286.672	23.438	857.439	666.717
287.687	23.789	857.079	667.696
288.701	23.832	856.808	667.588
289.716	23.688	856.960	667.106
290.730	23.725	855.188	665.808
291.745	23.594	854.968	665.086
292.760	23.639	854.885	665.130
293.774	24.415	853.813	667.142
294.789	24.298	853.148	666.124
295.803	23.962	852.602	664.385
296.818	23.975	851.305	663.367
297.833	23.907	850.961	662.784
298.847	23.788	850.929	662.258
299.862	23.900	850.835	662.542
300.876	23.972	850.436	662.441
301.891	24.227	849.719	662.774
302.906	24.273	849.070	662.381
303.920	24.870	849.033	664.510
304.935	24.557	848.654	662.992
305.949	24.212	848.127	661.243
306.964	23.824	847.612	659.342
307.979	23.829	845.949	658.011
308.993	24.743	845.611	661.069
310.008	24.418	845.385	659.633
311.022	24.567	843.663	658.781
312.037	23.865	843.753	656.201
313.052	23.468	841.744	653.121
314.066	23.515	842.712	653.987
315.081	23.198	841.945	652.166
316.095	23.714	840.881	653.180
317.110	23.590	840.164	652.111
318.125	23.676	840.031	652.264
319.139	23.162	838.867	649.417
320.154	23.461	838.481	650.159
321.168	23.242	838.551	649.353
322.183	23.608	837.974	650.188
323.197	23.370	838.203	649.438
324.212	23.671	837.634	650.042
325.227	23.309	836.473	647.760
326.241	23.708	835.971	648.771
327.256	23.200	835.093	646.177
328.270	23.542	834.235	646.704
329.285	23.235	833.816	645.203
330.300	22.790	833.540	643.309
331.314	23.344	832.587	644.536
332.329	23.573	833.182	645.772
333.343	23.913	833.439	647.150
334.358	23.950	832.470	646.476
335.373	24.289	831.252	646.703
336.387	23.812	832.724	646.058
337.402	24.211	831.985	646.874
338.416	24.325	831.260	646.667
339.431	24.748	830.422	647.491
340.446	24.671	831.496	647.991
341.460	25.076	829.713	648.009
342.475	24.883	829.238	646.884
343.489	24.951	829.870	647.563
344.504	24.950	829.580	647.279
345.519	24.846	829.275	646.606
346.533	24.699	828.328	645.279
347.548	24.270	827.392	642.946
348.562	24.170	827.329	642.480
349.577	24.249	826.492	642.058
350.592	24.237	824.046	640.057
351.606	24.313	823.524	639.869
352.621	24.279	823.150	639.402
353.635	23.982	823.369	638.450
354.650	23.985	823.092	638.188
355.665	24.240	821.368	637.706
356.679	24.423	821.850	638.681
357.694	24.442	820.642	637.753
358.708	24.201	819.928	636.279
359.723	24.402	819.025	636.242
360.738	24.263	818.317	635.137
361.752	24.215	817.915	634.598
362.767	24.700	818.190	636.485
363.781	25.058	817.799	637.398
364.796	24.870	817.628	636.538
365.810	25.177	817.066	637.137
366.825	25.193	817.256	637.285
367.840	25.057	815.902	635.689
368.854	24.473	815.363	633.143
369.869	24.540	815.880	633.728
370.883	24.375	815.136	632.509
371.898	24.949	814.240	633.787
372.913	24.819	813.795	632.927
373.927	25.030	812.585	632.675
374.942	24.671	813.020	631.687
375.956	25.008	812.342	632.295
376.971	25.094	812.275	632.490
377.986	25.039	812.533	632.440
379.000	25.477	811.257	632.933
380.015	25.280	810.431	631.542
381.029	24.970	810.911	630.768
382.044	25.085	810.393	630.715
383.059	25.284	809.225	630.448
384.073	25.233	808.123	629.354
385.088	24.710	807.535	627.007
386.102	24.932	805.811	626.389
387.117	24.522	806.339	625.309
388.132	24.111	805.933	623.501
389.146	24.576	804.512	623.972
390.161	25.231	804.721	626.366
391.175	25.040	804.949	625.821
392.190	24.748	804.111	624.094
393.205	24.585	802.323	622.084
394.219	24.094	803.079	620.906
395.234	24.278	802.145	620.769
396.248	24.326	801.298	620.225
397.263	24.173	801.965	620.154
398.278	24.027	801.003	618.845
399.292	23.739	800.044	617.051
400.307	24.140	799.350	617.852
401.321	24.209	798.487	617.369
402.336	24.453	798.149	617.897
403.350	24.755	799.503	619.938
404.365	24.948	798.651	619.892
405.380	25.189	798.323	620.415
406.394	25.973	797.552	622.471
407.409	25.523	798.432	621.547
408.423	25.568	797.244	620.722
409.438	25.540	796.611	620.077
410.453	25.323	796.709	619.350
411.467	26.021	795.717	620.928
412.482	25.353	796.149	618.910
413.496	25.719	794.886	619.131
414.511	25.596	794.545	618.388
415.526	25.386	793.923	617.129
416.540	25.344	793.290	616.435
417.555	25.516	793.355	617.024
418.569	25.429	792.655	616.125
419.584	25.512	792.500	616.235
420.599	25.191	791.993	614.687
421.613	162.175	1370.107	1794.526
422.628	140.568	1454.307	1794.560
