DTS Sentinel unit serial number:	SN413079Multiplexer serial number:	ORYXHardware model number:	OX4-SRSoftware version number:	ORYX F/W v4.00 Oryx Data Collector v3.7.2.0data status	okinstallation	princeton_trtdifferential loss correction	single-endedforward channel	channel 1reverse channel	N/Adate	2019/09/12time	22:14:35forward acquisition time	60.00reverse acquisition time	0.00gamma	496.2192k internal	0.2327k external	0.2327temperature offset calibration	1.0151default loss term (dB/km)	0.3790temperature slope calibration	1.0000multiplexer offset coefficient	1.0000multiplexer slope coefficient	1.0000fibre end	0.00T internal ref (°C)	29.87T ext. ref 1 (°C)	3.73T ext. ref 2 (°C)	24.41length (m)	temperature (°C)	Stokes	anti-Stokes-747.200	257.256	0.121	0.209
-746.185	-73.096	0.056	0.021
-745.171	53.157	0.147	0.142
-744.156	-18.513	-0.325	0.205
-743.142	800.000	-0.053	-0.175
-742.127	63.246	-0.060	-0.060
-741.112	-115.556	0.211	-0.040
-740.098	-147.820	-0.237	0.020
-739.083	634.443	0.050	0.127
-738.069	17.087	-0.208	0.166
-737.054	-8.540	0.093	0.063
-736.039	-106.521	-0.497	-0.112
-735.025	-126.179	0.061	-0.009
-734.010	246.410	-0.058	-0.098
-732.996	-200.000	-0.007	-0.117
-731.981	201.686	-0.093	-0.144
-730.966	-200.000	-0.012	-0.134
-729.952	-136.860	0.306	0.035
-728.937	204.469	-0.253	-0.395
-727.923	231.527	-0.165	-0.273
-726.908	-200.000	-0.018	-0.125
-725.894	674.008	0.032	-0.084
-724.879	341.530	0.087	-0.172
-723.864	241.371	-0.228	0.384
-722.850	34.746	0.548	-0.482
-721.835	75.176	0.043	-0.045
-720.821	54.620	-0.169	0.164
-719.806	-200.000	0.014	-0.120
-718.791	37.807	-0.148	-0.133
-717.777	-158.221	-0.049	0.003
-716.762	77.359	-0.322	-0.345
-715.748	278.468	-0.033	0.060
-714.733	-200.000	-0.035	-0.236
-713.718	223.640	-0.035	0.057
-712.704	-112.483	-0.170	0.034
-711.689	800.000	0.117	-0.357
-710.675	-124.345	0.196	-0.031
-709.660	-109.130	-0.179	-0.038
-708.645	-200.000	0.010	-0.073
-707.631	-99.065	-0.138	-0.035
-706.616	800.000	0.105	-0.303
-705.602	-147.119	-0.213	-0.018
-704.587	31.001	-0.195	-0.168
-703.572	-164.835	-0.242	-0.011
-702.558	60.095	0.222	-0.221
-701.543	-200.000	0.005	-0.257
-700.529	79.131	-0.232	0.250
-699.514	504.307	-0.059	-0.138
-698.499	174.830	0.030	0.044
-697.485	-189.403	0.259	-0.003
-696.470	-108.572	-0.241	0.052
-695.456	-163.441	0.200	-0.010
-694.441	92.793	0.111	0.126
-693.426	-78.196	-0.328	-0.113
-692.412	-163.209	0.104	0.005
-691.397	24.853	-0.175	-0.146
-690.383	-200.000	0.027	-0.227
-689.368	64.179	0.257	-0.260
-688.354	-15.914	-0.346	-0.221
-687.339	-76.887	0.174	0.061
-686.324	-56.653	-0.320	-0.142
-685.310	-105.476	-0.121	-0.028
-684.295	536.146	-0.091	-0.217
-683.281	800.000	0.047	-0.160
-682.266	438.432	0.178	-0.390
-681.251	41.442	0.088	-0.080
-680.237	-21.152	-0.175	-0.108
-679.222	-117.239	0.275	0.050
-678.208	-200.000	-0.025	-0.296
-677.193	241.394	0.228	0.383
-676.178	-200.000	-0.002	0.272
-675.164	-88.050	0.108	-0.033
-674.149	-200.000	0.020	0.107
-673.135	557.587	0.092	0.223
-672.120	-200.000	0.005	0.158
-671.105	111.928	0.115	-0.139
-670.091	525.764	0.063	-0.149
-669.076	48.378	0.154	-0.145
-668.062	-69.890	0.419	0.161
-667.047	-103.753	0.361	-0.085
-666.032	-129.308	-0.250	0.035
-665.018	-98.357	-0.107	-0.028
-664.003	41.282	0.095	-0.086
-662.989	-66.670	0.128	-0.051
-661.974	-200.000	0.021	-0.109
-660.959	-192.558	0.327	-0.003
-659.945	188.035	-0.030	-0.044
-658.930	-11.915	-0.124	0.081
-657.916	85.243	-0.127	-0.140
-656.901	800.000	0.050	-0.147
-655.886	-149.804	-0.287	-0.023
-654.872	-12.542	-0.428	-0.281
-653.857	538.920	0.090	0.215
-652.843	360.645	-0.060	-0.122
-651.828	349.252	0.036	-0.072
-650.814	9.262	-0.108	0.082
-649.799	-142.468	-0.387	-0.038
-648.784	397.878	-0.117	-0.246
-647.770	-91.525	0.104	0.030
-646.755	-89.550	0.132	-0.039
-645.741	-36.007	0.221	-0.120
-644.726	-122.871	0.175	0.028
-643.711	-200.000	-0.020	0.124
-642.697	-45.425	0.318	0.158
-641.682	800.000	-0.023	0.076
-640.668	478.347	0.091	-0.207
-639.653	-200.000	0.038	-0.198
-638.638	-200.000	0.036	0.238
-637.624	-50.921	0.158	-0.074
-636.609	51.162	-0.215	-0.205
-635.595	378.168	0.098	0.201
-634.580	170.642	-0.067	-0.096
-633.565	107.518	-0.124	0.148
-632.551	-200.000	-0.012	0.077
-631.536	800.000	0.083	0.359
-630.522	-19.328	0.144	0.090
-629.507	-74.244	-0.140	-0.051
-628.492	329.280	-0.136	-0.262
-627.478	-97.633	0.319	0.083
-626.463	-157.116	-0.220	0.013
-625.449	800.000	0.011	-0.042
-624.434	159.683	0.177	0.247
-623.419	120.297	0.146	0.182
-622.405	-83.485	-0.206	0.066
-621.390	64.691	-0.114	0.116
-620.376	-33.281	0.252	-0.140
-619.361	-200.000	0.013	-0.196
-618.346	10.802	-0.184	0.141
-617.332	-200.000	-0.022	-0.207
-616.317	-22.905	0.023	0.014
-615.303	-113.397	0.086	-0.017
-614.288	-200.000	0.000	0.037
-613.273	-29.275	-0.146	0.084
-612.259	35.172	0.180	0.158
-611.244	592.436	-0.050	0.124
-610.230	-200.000	-0.025	-0.146
-609.215	-200.000	0.035	0.185
-608.201	-200.000	0.000	0.055
-607.186	347.937	-0.015	-0.030
-606.171	-27.618	0.115	-0.067
-605.157	-57.278	0.096	0.042
-604.142	-154.530	-0.212	-0.014
-603.128	77.661	0.142	0.152
-602.113	800.000	-0.020	-0.083
-601.098	-131.719	0.365	-0.048
-600.084	624.686	-0.057	0.143
-599.069	-165.936	0.305	-0.013
-598.055	-45.634	0.105	-0.052
-597.040	-185.828	-0.344	0.005
-596.025	-85.939	0.220	-0.068
-595.011	-200.000	0.018	0.449
-593.996	-200.000	0.038	-0.301
-592.982	800.000	-0.018	0.067
-591.967	-159.583	0.487	-0.027
-590.952	-19.816	-0.186	-0.115
-589.938	555.552	-0.094	0.228
-588.923	-183.278	0.352	0.006
-587.909	-144.714	0.149	0.014
-586.894	209.242	-0.057	-0.090
-585.879	-18.820	0.134	0.083
-584.865	132.917	0.088	0.114
-583.850	-200.000	0.002	-0.065
-582.836	800.000	-0.033	-0.123
-581.821	-84.072	0.171	0.055
-580.806	38.321	-0.098	-0.087
-579.792	61.106	0.060	-0.060
-578.777	590.857	-0.087	0.215
-577.763	262.962	0.116	-0.201
-576.748	532.009	0.114	0.270
-575.733	-63.761	0.140	0.057
-574.719	-56.897	-0.144	0.064
-573.704	800.000	0.065	-0.194
-572.690	-200.000	-0.081	-0.371
-571.675	-49.082	-0.148	0.071
-570.661	-124.770	-0.121	0.019
-569.646	-88.463	-0.271	0.081
-568.631	-24.996	-0.107	-0.064
-567.617	64.012	0.081	-0.082
-566.602	-39.060	-0.125	-0.066
-565.588	800.000	0.029	0.090
-564.573	-174.303	-0.050	0.001
-563.558	-152.215	-0.120	0.009
-562.544	121.629	-0.155	0.194
-561.529	559.696	0.106	-0.255
-560.515	800.000	-0.066	-0.211
-559.500	93.591	0.211	0.239
-558.485	-200.000	-0.005	-0.047
-557.471	7.240	0.208	0.155
-556.456	-191.765	-0.064	-0.001
-555.442	-72.766	0.057	0.021
-554.427	-126.377	0.152	0.023
-553.412	-143.007	-0.107	-0.010
-552.398	185.368	-0.186	-0.276
-551.383	-85.920	-0.114	-0.035
-550.369	361.728	-0.079	-0.159
-549.354	800.000	0.008	0.032
-548.339	-14.258	-0.156	0.100
-547.325	-116.816	-0.027	0.005
-546.310	30.390	-0.074	0.063
-545.296	-74.491	0.148	0.053
-544.281	170.520	0.204	0.292
-543.266	-200.000	-0.020	0.169
-542.252	6.311	0.260	-0.193
-541.237	159.772	-0.078	0.108
-540.223	245.631	-0.066	-0.111
-539.208	800.000	-0.032	-0.106
-538.193	220.986	-0.021	0.034
-537.179	-85.480	-0.317	0.099
-536.164	203.255	0.084	0.129
-535.150	31.061	0.228	-0.196
-534.135	-37.408	0.240	0.128
-533.121	800.000	-0.088	-0.368
-532.106	54.538	-0.316	-0.304
-531.091	-9.693	-0.332	-0.221
-530.077	20.539	0.213	0.173
-529.062	-15.981	0.007	0.004
-528.048	800.000	0.082	-0.254
-527.033	800.000	-0.080	-0.244
-526.018	-78.022	-0.051	-0.018
-525.004	452.158	0.058	0.128
-523.989	110.474	-0.245	0.294
-522.975	3.917	-0.190	-0.139
-521.960	-143.396	-0.242	0.023
-520.945	-20.549	0.135	-0.083
-519.931	-133.992	0.148	-0.018
-518.916	-200.000	0.003	0.206
-517.902	430.033	0.083	0.179
-516.887	90.393	0.075	0.084
-515.872	-101.796	-0.415	-0.100
-514.858	800.000	-0.095	-0.346
-513.843	-200.000	-0.048	0.243
-512.829	-92.144	-0.134	-0.038
-511.814	-50.594	-0.104	-0.049
-510.799	58.418	0.106	-0.104
-509.785	800.000	0.035	-0.098
-508.770	-64.635	-0.137	-0.056
-507.756	310.360	-0.082	0.154
-506.741	54.716	0.156	0.150
-505.726	800.000	0.154	-0.426
-504.712	800.000	-0.069	-0.231
-503.697	553.627	-0.202	0.486
-502.683	-200.000	0.008	0.035
-501.668	-200.000	0.015	-0.101
-500.653	-10.087	0.091	-0.060
-499.639	-167.448	-0.170	0.007
-498.624	800.000	0.023	0.093
-497.610	134.810	-0.256	0.332
-496.595	-136.456	-0.393	-0.046
-495.581	-200.000	-0.017	0.216
-494.566	89.396	-0.055	-0.062
-493.551	229.941	0.114	-0.185
-492.537	-37.952	-0.157	0.083
-491.522	492.108	0.029	0.065
-490.508	-99.019	0.215	0.054
-489.493	-65.989	-0.050	-0.020
-488.478	36.230	-0.228	-0.200
-487.464	228.011	0.247	-0.401
-486.449	-73.227	0.193	0.071
-485.435	-62.050	0.155	0.065
-484.420	-134.201	-0.247	-0.030
-483.405	137.529	0.040	-0.052
-482.391	-200.000	0.023	0.129
-481.376	336.040	-0.097	-0.187
-480.362	9.333	0.024	-0.018
-479.347	98.529	0.347	0.399
-478.332	-68.952	-0.085	0.033
-477.318	-38.290	0.020	0.011
-476.303	-116.070	0.213	-0.040
-475.289	-200.000	-0.007	-0.052
-474.274	8.289	0.212	0.159
-473.259	597.996	-0.025	0.063
-472.245	800.000	-0.029	-0.124
-471.230	-79.263	0.310	-0.105
-470.216	-154.569	-0.077	-0.005
-469.201	800.000	-0.031	-0.114
-468.186	18.875	-0.128	0.102
-467.172	-200.000	0.001	-0.126
-466.157	12.855	0.214	0.165
-465.143	-161.864	-0.140	0.007
-464.128	800.000	0.104	-0.322
-463.113	-61.580	-0.056	0.023
-462.099	800.000	-0.033	0.118
-461.084	-27.658	-0.281	0.163
-460.070	-31.236	-0.234	0.131
-459.055	-54.602	-0.106	0.048
-458.040	-82.890	-0.262	-0.084
-457.026	-25.518	-0.284	0.167
-456.011	-200.000	-0.069	0.377
-454.997	253.519	-0.086	0.146
-453.982	-121.294	0.102	0.017
-452.968	113.281	0.207	-0.251
-451.953	-200.000	0.033	-0.205
-450.938	52.544	0.199	-0.189
-449.924	-126.337	-0.136	-0.020
-448.909	800.000	-0.082	0.231
-447.895	-94.472	-0.193	-0.052
-446.880	-200.000	0.005	0.179
-445.865	559.227	-0.150	0.361
-444.851	126.888	0.257	-0.325
-443.836	-32.142	0.173	0.096
-442.822	-85.230	0.049	-0.015
-441.807	-176.119	0.127	0.003
-440.792	157.029	-0.120	-0.166
-439.778	120.249	-0.206	0.254
-438.763	-55.644	0.066	-0.029
-437.749	785.276	0.046	0.126
-436.734	113.683	0.176	0.214
-435.719	-48.737	0.077	-0.037
-434.705	311.421	-0.059	0.111
-433.690	-103.234	-0.142	-0.033
-432.676	-101.509	0.085	-0.021
-431.661	543.100	0.059	0.141
-430.646	-100.991	0.196	-0.048
-429.632	-200.000	0.003	0.384
-428.617	100.207	-0.186	0.215
-427.603	-74.998	0.335	-0.119
-426.588	-26.407	0.170	-0.099
-425.573	292.705	-0.026	0.047
-424.559	-160.761	-0.258	0.014
-423.544	-200.000	-0.004	0.148
-422.530	-6.932	-0.036	-0.025
-421.515	67.922	0.014	0.014
-420.500	-200.000	0.028	0.149
-419.486	-101.593	-0.241	-0.058
-418.471	-200.000	-0.021	-0.266
-417.457	800.000	-0.049	0.193
-416.442	800.000	0.050	-0.190
-415.428	-10.332	-0.316	0.208
-414.413	-200.000	0.008	0.362
-413.398	-21.244	0.093	0.057
-412.384	94.763	-0.230	0.260
-411.369	-200.000	0.005	-0.133
-410.355	-200.000	-0.026	-0.236
-409.340	308.193	0.183	0.339
-408.325	-80.029	0.127	0.043
-407.311	-40.122	-0.215	0.112
-406.296	-81.140	-0.216	0.071
-405.282	483.441	-0.078	0.177
-404.267	23.656	0.105	0.086
-403.252	-200.000	-0.004	0.089
-402.238	207.270	-0.085	0.132
-401.223	800.000	0.015	-0.054
-400.209	183.647	-0.075	-0.111
-399.194	-60.508	-0.035	0.015
-398.179	-45.813	0.259	-0.127
-397.165	-150.591	0.157	-0.012
-396.150	-46.722	0.258	-0.126
-395.136	57.168	-0.198	-0.192
-394.121	-200.000	0.010	0.049
-393.106	118.116	0.200	-0.245
-392.092	800.000	0.048	-0.137
-391.077	-46.587	0.160	0.078
-390.063	167.655	-0.365	-0.515
-389.048	-135.299	0.217	0.026
-388.033	-73.684	-0.437	-0.158
-387.019	-200.000	-0.005	-0.251
-386.004	800.000	-0.052	0.175
-384.990	225.010	0.009	0.014
-383.975	351.480	0.028	-0.056
-382.960	-81.175	0.184	-0.060
-381.946	536.007	-0.109	0.257
-380.931	8.393	-0.287	0.214
-379.917	528.473	0.150	0.351
-378.902	-60.941	0.138	0.058
-377.888	-200.000	-0.042	-0.317
-376.873	58.861	-0.276	-0.270
-375.858	261.804	-0.155	-0.266
-374.844	800.000	0.059	0.179
-373.829	-153.975	0.267	0.018
-372.815	413.969	-0.101	0.213
-371.800	-80.802	0.320	0.105
-370.785	-147.374	-0.158	-0.013
-369.771	-193.676	-0.128	-0.001
-368.756	530.179	0.138	0.325
-367.742	51.976	0.171	0.162
-366.727	-7.004	0.154	0.104
-365.712	-80.450	-0.406	0.135
-364.698	7.803	0.038	-0.028
-363.683	-84.026	-0.214	0.067
-362.669	186.351	0.147	-0.217
-361.654	105.105	-0.114	-0.133
-360.639	-79.149	0.072	0.024
-359.625	-34.363	-0.118	0.064
-358.610	-125.652	0.158	-0.024
-357.596	-131.653	-0.145	-0.019
-356.581	800.000	0.064	0.204
-355.566	-30.337	0.281	0.159
-354.552	-200.000	-0.020	0.095
-353.537	51.465	0.212	0.200
-352.523	292.132	0.043	-0.078
-351.508	-200.000	0.025	-0.550
-350.493	481.345	-0.073	-0.165
-349.479	-37.901	-0.043	-0.023
-348.464	345.696	-0.085	-0.166
-347.450	-120.405	0.311	-0.053
-346.435	85.805	-0.093	-0.101
-345.420	-106.178	-0.153	0.034
-344.406	12.393	-0.248	0.189
-343.391	-84.566	0.222	-0.069
-342.377	-137.826	-0.282	0.031
-341.362	800.000	0.063	-0.227
-340.348	85.994	-0.092	0.100
-339.333	62.375	-0.043	0.043
-338.318	-62.889	0.127	-0.052
-337.304	-100.909	0.114	0.028
-336.289	118.808	-0.278	0.341
-335.275	438.932	0.016	0.036
-334.260	-200.000	0.021	0.230
-333.245	-112.169	0.266	0.053
-332.231	-53.446	-0.129	-0.058
-331.216	348.001	-0.267	0.522
-330.202	477.311	-0.056	0.127
-329.187	-147.107	0.125	0.011
-328.172	-62.457	-0.304	-0.125
-327.158	65.086	0.167	-0.167
-326.143	249.528	0.185	-0.311
-325.129	362.362	-0.182	-0.362
-324.114	-53.741	-0.144	0.065
-323.099	-174.736	0.245	-0.007
-322.085	800.000	-0.083	0.350
-321.070	-141.950	0.265	0.026
-320.056	-41.752	0.150	0.076
-319.041	36.006	-0.163	-0.143
-318.026	-200.000	-0.011	0.226
-317.012	29.921	-0.100	0.085
-315.997	-145.825	-0.327	-0.029
-314.983	-148.151	0.105	-0.009
-313.968	12.363	-0.224	0.171
-312.953	107.070	-0.286	0.336
-311.939	-200.000	0.000	-0.071
-310.924	-99.446	0.074	0.018
-309.910	222.030	-0.122	0.195
-308.895	-53.646	-0.072	-0.033
-307.880	-28.861	0.182	-0.104
-306.866	-3.157	0.182	-0.126
-305.851	31.330	-0.120	0.102
-304.837	32.104	0.331	0.283
-303.822	-187.136	0.191	0.003
-302.807	800.000	-0.087	0.303
-301.793	282.815	-0.078	-0.138
-300.778	335.054	0.129	-0.247
-299.764	-200.000	0.022	0.184
-298.749	-200.000	0.040	0.290
-297.735	237.235	-0.193	-0.317
-296.720	110.005	0.048	-0.057
-295.705	-76.122	0.167	0.058
-294.691	-200.000	-0.066	0.320
-293.676	117.418	0.155	-0.189
-292.662	201.758	-0.068	0.103
-291.647	193.262	-0.110	0.165
-290.632	-14.081	-0.035	0.023
-289.618	-139.215	0.304	0.032
-288.603	121.435	-0.071	-0.088
-287.589	-0.253	-0.206	0.145
-286.574	3.172	0.222	0.160
-285.559	800.000	0.016	-0.045
-284.545	800.000	-0.112	-0.457
-283.530	4.378	-0.227	0.165
-282.516	800.000	0.076	0.266
-281.501	-42.009	0.256	0.130
-280.486	-200.000	-0.024	-0.254
-279.472	-63.941	-0.337	0.136
-278.457	-198.751	0.127	0.001
-277.443	-200.000	-0.059	-0.257
-276.428	-105.303	-0.145	0.033
-275.413	-200.000	0.055	-0.286
-274.399	-38.729	0.145	0.076
-273.384	-61.457	-0.155	-0.064
-272.370	558.854	0.045	-0.107
-271.355	250.014	0.014	0.024
-270.340	-200.000	0.057	0.256
-269.326	-135.576	0.287	0.034
-268.311	-3.785	-0.272	-0.187
-267.297	-150.505	-0.050	0.004
-266.282	-70.648	0.216	0.081
-265.267	-58.485	0.276	0.119
-264.253	-50.376	-0.209	-0.098
-263.238	-169.909	-0.328	0.012
-262.224	8.611	0.202	-0.151
-261.209	-105.581	-0.065	-0.015
-260.195	-200.000	0.021	-0.186
-259.180	-17.943	-0.289	-0.179
-258.165	-200.000	0.038	0.275
-257.151	57.813	0.301	-0.291
-256.136	55.771	0.063	-0.060
-255.122	-122.986	-0.167	-0.027
-254.107	17.204	0.138	-0.108
-253.092	-200.000	0.061	0.321
-252.078	800.000	0.039	-0.135
-251.063	365.476	0.079	0.157
-250.049	800.000	0.061	-0.183
-249.034	330.574	-0.069	0.131
-248.019	-163.777	-0.140	0.006
-247.005	-43.906	0.340	0.169
-245.990	-45.074	0.093	-0.046
-244.976	-117.662	0.237	0.042
-243.961	220.882	-0.108	-0.172
-242.946	48.942	0.139	0.129
-241.932	-162.485	-0.257	0.013
-240.917	800.000	0.082	0.253
-239.903	188.074	0.083	-0.122
-238.888	800.000	-0.071	-0.195
-237.873	190.784	0.144	0.215
-236.859	514.436	0.047	0.109
-235.844	93.404	-0.137	0.153
-234.830	16.428	-0.090	-0.071
-233.815	-200.000	-0.000	0.243
-232.800	-69.794	0.204	0.077
-231.786	-100.161	-0.158	0.039
-230.771	-153.796	0.281	0.019
-229.757	-200.000	-0.039	-0.209
-228.742	190.956	0.054	-0.081
-227.727	-17.530	0.063	-0.039
-226.713	70.233	-0.138	0.141
-225.698	-70.849	0.036	-0.013
-224.684	72.708	0.228	-0.235
-223.669	49.559	-0.203	0.189
-222.655	22.709	0.145	-0.117
-221.640	-200.000	-0.005	-0.094
-220.625	-200.000	-0.038	-0.302
-219.611	-200.000	0.037	0.304
-218.596	-29.907	0.159	-0.089
-217.582	-63.767	0.136	0.055
-216.567	-170.124	-0.290	0.010
-215.552	317.322	0.041	0.077
-214.538	-200.000	-0.003	-0.094
-213.523	-42.448	0.039	-0.020
-212.509	363.290	-0.132	-0.262
-211.494	-21.799	0.212	-0.128
-210.479	64.482	-0.236	-0.235
-209.465	185.421	-0.065	-0.095
-208.450	-200.000	0.026	0.437
-207.436	-124.540	0.291	0.045
-206.421	408.854	-0.053	0.110
-205.406	-108.925	-0.290	0.061
-204.392	38.752	0.290	0.256
-203.377	44.272	-0.270	-0.245
-202.363	154.967	0.099	-0.135
-201.348	-124.631	-0.221	0.034
-200.333	800.000	0.055	0.232
-199.319	-102.118	0.360	0.086
-198.304	-146.628	0.207	0.018
-197.290	9.244	0.097	0.072
-196.275	-200.000	0.026	0.160
-195.260	-83.932	0.110	-0.034
-194.246	-130.716	0.327	-0.043
-193.231	-70.607	-0.172	0.064
-192.217	353.750	0.058	0.114
-191.202	724.978	-0.067	-0.176
-190.187	670.528	0.083	-0.211
-189.173	-200.000	-0.019	-0.343
-188.158	-28.274	-0.409	-0.233
-187.144	164.622	-0.119	-0.165
-186.129	257.481	0.051	-0.087
-185.114	748.174	-0.101	0.268
-184.100	-12.410	0.163	0.105
-183.085	70.911	0.134	-0.137
-182.071	52.323	-0.009	-0.009
-181.056	-145.884	0.300	-0.026
-180.042	-126.206	-0.218	-0.032
-179.027	-111.631	0.134	-0.027
-178.012	800.000	0.036	-0.100
-176.998	134.057	-0.142	-0.182
-175.983	800.000	0.095	-0.284
-174.969	800.000	0.077	-0.245
-173.954	223.204	0.146	-0.232
-172.939	5.621	0.256	-0.187
-171.925	185.005	-0.113	0.166
-170.910	246.818	-0.166	0.277
-169.896	-200.000	0.003	-0.156
-168.881	115.162	-0.243	-0.293
-167.866	-18.380	-0.218	0.134
-166.852	35.985	0.093	-0.081
-165.837	-108.751	0.201	0.043
-164.823	97.035	0.023	0.026
-163.808	73.352	0.340	-0.350
-162.793	155.400	-0.272	-0.369
-161.779	178.209	-0.237	-0.341
-160.764	84.229	0.163	-0.175
-159.750	-200.000	0.120	-0.555
-158.735	-35.373	-0.246	-0.132
-157.720	194.420	-0.097	-0.145
-156.706	-139.504	-0.261	-0.027
-155.691	21.637	-0.230	-0.184
-154.677	60.626	-0.235	0.229
-153.662	284.852	-0.168	-0.297
-152.647	-130.434	0.134	-0.018
-151.633	228.869	-0.043	-0.068
-150.618	-136.825	-0.240	-0.027
-149.604	-64.936	-0.173	0.069
-148.589	-168.882	-0.298	-0.011
-147.574	93.730	0.037	-0.041
-146.560	-155.638	0.142	0.009
-145.545	132.455	0.358	0.454
-144.531	-200.000	-0.032	-0.428
-143.516	-63.772	0.281	-0.113
-142.502	159.265	0.126	0.172
-141.487	-99.835	-0.118	0.029
-140.472	421.062	0.073	-0.155
-139.458	-200.000	0.007	0.287
-138.443	-56.271	0.145	0.063
-137.429	81.826	0.352	0.375
-136.414	-65.549	-0.008	-0.003
-135.399	-85.743	-0.045	-0.014
-134.385	36.508	0.138	0.120
-133.370	238.191	0.179	0.293
-132.356	-52.252	0.150	0.068
-131.341	160.542	0.122	-0.168
-130.326	48.605	0.135	-0.125
-129.312	52.256	0.059	0.055
-128.297	85.518	-0.117	-0.126
-127.283	580.954	-0.111	-0.268
-126.268	-88.188	0.164	0.048
-125.253	-124.299	0.152	0.023
-124.239	141.643	-0.118	0.154
-123.224	40.366	0.065	-0.058
-122.210	-104.754	-0.082	-0.019
-121.195	-104.047	0.253	0.058
-120.180	234.791	-0.126	0.204
-119.166	-69.765	-0.121	-0.046
-118.151	88.037	0.037	-0.040
-117.137	6.712	-0.107	-0.078
-116.122	-200.000	-0.013	0.190
-115.107	-93.728	0.149	-0.040
-114.093	-152.005	-0.170	-0.012
-113.078	-22.722	0.254	-0.151
-112.064	800.000	-0.037	0.130
-111.049	463.384	-0.136	-0.299
-110.034	236.611	0.102	-0.166
-109.020	-144.542	0.456	0.041
-108.005	-200.000	0.010	0.200
-106.991	657.147	0.060	0.151
-105.976	-6.086	0.243	0.163
-104.962	800.000	0.026	0.076
-103.947	-200.000	-0.010	0.339
-102.932	800.000	0.104	-0.312
-101.918	-131.923	0.075	-0.010
-100.903	-200.000	0.043	0.354
-99.889	304.184	0.048	0.087
-98.874	-200.000	-0.013	0.100
-97.859	800.000	-0.049	-0.143
-96.845	118.246	0.070	0.085
-95.830	134.287	0.080	-0.102
-94.816	-200.000	0.027	0.366
-93.801	788.072	0.057	0.154
-92.786	116.294	0.104	-0.125
-91.772	-200.000	0.089	-0.393
-90.757	105.381	0.105	0.122
-89.743	267.537	-0.140	0.242
-88.728	7.602	-0.192	-0.141
-87.713	-40.215	-0.084	0.043
-86.699	-200.000	0.223	0.001
-85.684	92.443	0.050	-0.056
-84.670	18.853	-0.187	-0.147
-83.655	521.272	-0.098	-0.226
-82.640	-71.611	0.253	-0.093
-81.626	194.484	-0.150	0.223
-80.611	-140.623	0.348	0.035
-79.597	151.492	0.101	0.135
-78.582	-88.421	0.150	-0.044
-77.567	-84.936	0.327	-0.101
-76.553	390.813	-0.281	0.572
-75.538	89.340	-0.252	0.276
-74.524	-200.000	0.014	-0.172
-73.509	114.059	0.258	-0.308
-72.494	-200.000	-0.010	-0.257
-71.480	-200.000	0.014	-0.117
-70.465	-131.350	0.373	-0.048
-69.451	800.000	0.058	0.219
-68.436	800.000	-0.048	-0.153
-67.422	-200.000	-0.004	-0.114
-66.407	-101.460	-0.368	0.088
-65.392	-200.000	-0.003	-0.183
-64.378	386.186	-0.054	0.110
-63.363	339.989	-0.102	-0.195
-62.349	27.908	-0.077	0.064
-61.334	47.303	-0.993	-0.908
-60.319	-20.626	0.574	0.346
-59.305	800.000	-0.365	-1.166
-58.290	382.541	0.521	1.052
-57.276	436.103	0.633	1.352
-56.261	-200.000	106.607	588.778
-55.246	521.116	1470.764	3386.451
-54.232	182.700	2654.155	3843.106
-53.217	112.027	2143.877	2542.124
-52.203	41.431	1595.024	1416.412
-51.188	33.363	1334.079	1136.459
-50.173	30.238	1293.167	1083.347
-49.159	53.345	1346.868	1266.753
-48.144	54.028	1362.465	1285.446
-47.130	33.330	1317.887	1122.289
-46.115	30.037	1299.840	1087.587
-45.100	29.889	1294.746	1082.412
-44.086	29.747	1292.536	1079.697
-43.071	29.712	1290.321	1077.599
-42.057	29.662	1288.464	1075.710
-41.042	29.794	1286.268	1074.602
-40.027	29.697	1285.038	1072.972
-39.013	29.762	1283.331	1071.876
-37.998	29.841	1281.133	1070.460
-36.984	29.793	1280.101	1069.277
-35.969	29.863	1277.974	1067.863
-34.954	29.868	1276.719	1066.800
-33.940	29.821	1275.382	1065.366
-32.925	29.973	1273.335	1064.490
-31.911	29.973	1272.182	1063.483
-30.896	29.990	1270.538	1062.167
-29.881	30.013	1269.319	1061.236
-28.867	30.081	1267.974	1060.455
-27.852	30.028	1266.384	1058.784
-26.838	29.981	1265.360	1057.614
-25.823	29.936	1264.402	1056.518
-24.809	30.031	1262.538	1055.458
-23.794	29.954	1261.614	1054.205
-22.779	30.095	1259.703	1053.366
-21.765	29.954	1259.074	1052.001
-20.750	29.977	1257.600	1050.856
-19.736	29.986	1255.934	1049.472
-18.721	29.835	1255.489	1048.207
-17.706	29.828	1253.758	1046.679
-16.692	29.694	1253.346	1045.532
-15.677	29.860	1251.970	1045.281
-14.663	29.843	1250.518	1043.936
-13.648	29.870	1249.273	1043.005
-12.633	29.749	1249.034	1042.081
-11.619	29.908	1247.558	1041.708
-10.604	29.786	1247.230	1040.700
-9.590	29.707	1246.548	1039.647
-8.575	29.809	1245.207	1039.063
-7.560	29.597	1244.551	1037.282
-6.546	29.772	1243.165	1037.067
-5.531	29.809	1242.347	1036.549
-4.517	29.833	1241.452	1035.900
-3.502	29.874	1240.576	1035.353
-2.487	29.863	1239.721	1034.541
-1.473	29.825	1235.493	1030.760
-0.458	28.176	1220.361	1009.010
0.556	26.223	1202.764	970.667
1.571	22.203	1207.118	952.363
2.586	21.153	1221.125	957.569
3.600	20.781	1209.542	946.384
4.615	15.907	1138.882	866.013
5.629	7.720	1066.191	771.100
6.644	4.097	1047.059	739.913
7.659	3.793	1044.575	736.642
8.673	3.518	1043.229	734.320
9.688	3.524	1042.365	733.676
10.702	4.047	1040.233	734.592
11.717	9.043	1047.619	763.559
12.731	17.577	1059.343	812.936
13.746	22.633	1065.453	841.756
14.761	23.504	1066.615	846.759
15.775	22.872	1065.104	842.470
16.790	22.238	1063.164	837.843
17.804	21.797	1062.041	834.786
18.819	21.629	1061.108	833.176
19.834	21.706	1060.742	833.185
20.848	21.793	1060.619	833.425
21.863	21.686	1059.794	832.195
22.877	21.489	1058.468	830.146
23.892	21.403	1058.381	829.598
24.907	21.405	1057.075	828.510
25.921	21.316	1056.134	827.278
26.936	21.203	1054.413	825.324
27.950	21.337	1053.202	824.933
28.965	21.327	1051.765	823.686
29.980	21.516	1050.847	823.788
30.994	21.562	1049.912	823.195
32.009	21.659	1048.643	822.585
33.023	21.615	1047.679	821.548
34.038	21.519	1046.632	820.205
35.053	21.332	1045.997	818.760
36.067	21.305	1044.845	817.660
37.082	21.312	1044.217	817.128
38.096	21.446	1043.640	817.229
39.111	21.522	1042.854	816.898
40.126	21.358	1041.521	815.017
41.140	21.052	1039.758	812.139
42.155	20.667	1038.697	809.450
43.169	20.706	1037.562	808.673
44.184	20.668	1036.527	807.620
45.199	20.730	1035.763	807.240
46.213	21.008	1034.693	807.622
47.228	21.384	1035.052	809.572
48.242	21.490	1034.048	809.203
49.257	21.396	1033.233	808.064
50.271	21.548	1032.464	808.092
51.286	21.649	1032.033	808.149
52.301	21.560	1030.865	806.751
53.315	21.486	1029.603	805.353
54.330	21.123	1029.211	803.306
55.344	21.139	1027.829	802.226
56.359	21.169	1026.762	801.462
57.374	20.969	1025.897	799.796
58.388	20.869	1025.273	798.782
59.403	20.771	1024.517	797.672
60.417	20.722	1023.719	796.759
61.432	20.663	1022.915	795.793
62.447	20.617	1022.035	794.825
63.461	20.655	1020.761	793.938
64.476	20.492	1020.106	792.614
65.490	20.503	1019.543	792.159
66.505	20.574	1018.669	791.731
67.520	20.588	1018.085	791.271
68.534	20.611	1017.141	790.573
69.549	20.387	1016.340	788.864
70.563	20.357	1015.271	787.829
71.578	20.252	1014.299	786.525
72.593	20.010	1013.484	784.728
73.607	19.931	1013.020	783.945
74.622	20.136	1012.718	784.568
75.636	20.188	1011.891	784.093
76.651	20.176	1011.248	783.471
77.666	20.420	1010.724	784.099
78.680	20.308	1009.545	782.608
79.695	20.394	1009.246	782.696
80.709	20.473	1008.979	782.775
81.724	20.580	1008.368	782.714
82.739	20.904	1007.740	783.615
83.753	21.209	1007.747	784.922
84.768	21.728	1007.140	786.710
85.782	21.827	1006.861	786.867
86.797	21.909	1005.235	785.894
87.812	21.519	1004.571	783.559
88.826	21.680	1003.834	783.633
89.841	21.792	1002.785	783.244
90.855	21.763	1002.104	782.516
91.870	21.740	1001.289	781.708
92.884	21.722	1000.525	780.964
93.899	21.721	999.150	779.815
94.914	21.746	998.645	779.463
95.928	21.812	997.271	778.614
96.943	21.558	996.648	776.931
97.957	21.436	995.707	775.589
98.972	21.659	994.499	775.566
99.987	21.697	993.889	775.192
101.001	21.597	992.889	773.902
102.016	21.493	992.671	773.200
103.030	21.705	991.810	773.397
104.045	21.677	991.063	772.626
105.060	21.464	989.965	770.764
106.074	21.330	988.829	769.218
107.089	21.149	987.090	767.004
108.103	20.823	986.087	764.726
109.118	20.686	985.142	763.321
110.133	20.449	984.131	761.431
111.147	20.546	983.235	761.097
112.162	20.464	982.963	760.461
113.176	20.735	982.285	761.056
114.191	20.782	981.697	760.736
115.206	20.833	980.649	760.081
116.220	20.681	979.950	758.810
117.235	20.478	979.306	757.359
118.249	20.497	978.220	756.534
119.264	20.435	977.670	755.771
120.279	20.293	976.842	754.449
121.293	20.288	975.495	753.319
122.308	20.130	974.947	752.145
123.322	20.052	973.549	750.660
124.337	20.039	972.630	749.828
125.352	20.107	971.723	749.357
126.366	20.213	970.782	749.021
127.381	20.356	969.844	748.852
128.395	20.229	969.105	747.664
129.410	20.365	968.604	747.800
130.424	20.454	967.782	747.479
131.439	20.741	967.278	748.259
132.454	20.912	966.533	748.349
133.468	20.983	965.254	747.601
134.483	20.748	964.671	746.076
135.497	20.917	963.765	746.030
136.512	20.856	963.255	745.308
137.527	20.733	962.509	744.139
138.541	20.934	961.804	744.388
139.556	20.938	961.270	743.926
140.570	21.289	960.663	744.888
141.585	21.501	960.467	745.571
142.600	21.466	959.482	744.593
143.614	21.688	958.567	744.762
144.629	21.815	957.812	744.647
145.643	21.597	957.000	743.027
146.658	21.373	955.396	740.766
147.673	21.064	954.288	738.533
148.687	20.963	953.256	737.241
149.702	20.839	952.303	735.918
150.716	20.890	951.441	735.402
151.731	20.887	951.027	735.003
152.746	21.116	950.231	735.286
153.760	21.250	949.315	735.078
154.775	21.254	949.174	734.919
155.789	21.346	948.433	734.666
156.804	21.327	947.624	733.897
157.819	21.491	946.943	733.993
158.833	21.535	947.166	734.285
159.848	21.737	945.815	734.021
160.862	21.477	944.908	732.164
161.877	21.134	943.206	729.344
162.892	20.813	942.358	727.283
163.906	20.768	940.841	725.861
164.921	20.673	940.138	724.861
165.935	20.997	939.231	725.445
166.950	21.146	938.455	725.401
167.964	21.003	937.657	724.125
168.979	20.807	936.841	722.617
169.994	20.947	935.872	722.385
171.008	21.127	935.617	722.871
172.023	21.356	935.386	723.576
173.037	21.583	934.436	723.716
174.052	21.297	933.613	721.834
175.067	20.937	932.653	719.543
176.081	20.715	931.486	717.662
177.096	20.556	930.972	716.547
178.110	20.655	931.031	716.937
179.125	20.649	930.412	716.372
180.140	20.954	929.858	717.139
181.154	21.131	930.231	718.092
182.169	21.384	929.684	718.646
183.183	21.443	928.866	718.194
184.198	21.415	927.741	717.142
185.213	21.226	927.745	716.310
186.227	21.360	926.727	716.007
187.242	21.518	926.085	716.092
188.256	21.651	925.585	716.190
189.271	21.660	924.910	715.640
190.286	21.303	923.755	713.227
191.300	20.677	922.576	709.699
192.315	20.464	922.148	708.439
193.329	20.484	921.580	708.021
194.344	20.738	920.781	708.381
195.359	21.082	919.576	708.785
196.373	21.152	919.800	709.182
197.388	21.372	919.523	709.800
198.402	21.542	919.657	710.529
199.417	21.825	919.119	711.197
200.432	22.050	918.531	711.592
201.446	22.047	917.896	711.025
202.461	22.047	918.044	711.079
203.475	22.055	916.662	709.978
204.490	21.624	915.585	707.341
205.504	21.438	914.769	705.896
206.519	21.437	914.030	705.260
207.534	21.260	913.461	704.042
208.548	21.264	912.965	703.617
209.563	21.360	912.405	703.509
210.577	21.443	911.489	703.073
211.592	21.888	911.270	704.630
212.607	22.059	910.386	704.571
213.621	21.914	909.692	703.389
214.636	21.893	909.144	702.819
215.650	21.749	908.526	701.701
216.665	21.874	907.794	701.574
217.680	21.958	907.348	701.505
218.694	22.001	906.649	701.074
219.709	21.910	906.007	700.152
220.723	21.738	905.010	698.634
221.738	21.671	904.309	697.764
222.753	21.668	903.834	697.325
223.767	21.757	903.625	697.454
224.782	22.085	903.130	698.316
225.796	21.996	902.870	697.699
226.811	21.788	901.632	695.855
227.826	21.526	900.926	694.211
228.840	21.545	899.609	693.209
229.855	21.397	899.589	692.544
230.869	21.416	898.338	691.595
231.884	21.460	898.008	691.453
232.899	21.362	897.206	690.389
233.913	21.301	896.221	689.332
234.928	21.136	895.746	688.252
235.942	21.044	894.793	687.096
236.957	21.000	894.304	686.488
237.972	21.131	894.128	686.806
238.986	21.019	893.398	685.744
240.001	21.096	892.915	685.618
241.015	21.311	892.185	685.839
242.030	21.451	892.000	686.186
243.045	21.385	891.842	685.744
244.059	21.449	891.060	685.334
245.074	21.599	890.237	685.226
246.088	21.667	890.049	685.287
247.103	21.798	889.764	685.519
248.117	22.237	889.629	687.071
249.132	22.652	889.281	688.361
250.147	22.876	888.925	688.898
251.161	22.975	888.400	688.817
252.176	23.080	887.669	688.598
253.190	23.009	887.488	688.119
254.205	23.102	886.484	687.641
255.220	22.912	885.773	686.291
256.234	22.699	885.401	685.117
257.249	22.827	884.361	684.747
258.263	22.741	883.424	683.629
259.278	22.744	882.669	682.996
260.293	22.864	882.446	683.226
261.307	22.786	882.385	682.817
262.322	22.950	881.545	682.740
263.336	22.918	880.862	682.028
264.351	22.858	879.903	680.994
265.366	22.854	879.422	680.546
266.380	22.998	878.802	680.559
267.395	22.684	878.327	678.925
268.409	22.640	877.322	677.918
269.424	22.758	876.249	677.481
270.439	22.683	875.459	676.521
271.453	22.504	874.692	675.186
272.468	22.397	874.182	674.321
273.482	22.374	874.009	674.038
274.497	22.293	873.545	673.311
275.512	22.458	872.629	673.176
276.526	22.499	872.637	673.279
277.541	22.541	872.255	673.086
278.555	23.017	871.693	674.410
279.570	22.961	871.219	673.769
280.585	22.981	870.193	672.995
281.599	22.537	869.431	670.656
282.614	22.330	868.655	669.211
283.628	22.438	867.793	668.896
284.643	22.303	867.717	668.267
285.657	22.412	867.026	668.087
286.672	22.508	865.976	667.583
287.687	22.552	865.761	667.524
288.701	22.604	864.911	667.007
289.716	22.551	864.242	666.232
290.730	22.719	864.041	666.652
291.745	22.618	863.550	665.836
292.760	22.858	863.018	666.271
293.774	23.084	863.039	667.081
294.789	23.046	861.978	666.057
295.803	22.610	861.105	663.682
296.818	22.586	860.477	663.052
297.833	22.587	859.708	662.402
298.847	22.464	859.112	661.426
299.862	22.783	858.338	661.965
300.876	22.932	858.475	662.572
301.891	23.177	857.788	662.899
302.906	23.208	857.625	662.834
303.920	23.383	857.519	663.348
304.935	23.463	856.630	662.900
305.949	23.463	855.616	662.057
306.964	23.058	854.877	659.914
307.979	23.017	854.109	659.110
308.993	23.159	853.849	659.381
310.008	23.169	853.193	658.854
311.022	22.991	852.927	657.926
312.037	22.879	851.958	656.705
313.052	22.581	851.263	655.005
314.066	22.315	850.147	653.099
315.081	22.333	849.751	652.804
316.095	22.497	849.112	652.864
317.110	22.480	848.685	652.415
318.125	22.418	848.059	651.648
319.139	22.330	847.512	650.843
320.154	22.290	847.362	650.522
321.168	22.483	846.648	650.630
322.183	22.634	846.266	650.836
323.197	22.639	846.087	650.660
324.212	22.557	845.390	649.762
325.227	22.525	845.067	649.338
326.241	22.365	844.598	648.333
327.256	22.288	844.101	647.610
328.270	22.297	842.962	646.714
329.285	22.357	842.137	646.243
330.300	22.317	841.528	645.572
331.314	22.460	841.203	645.790
332.329	22.801	840.884	646.736
333.343	22.889	840.668	646.837
334.358	22.825	840.543	646.448
335.373	22.986	840.158	646.685
336.387	23.051	839.776	646.570
337.402	23.152	839.806	646.905
338.416	23.379	839.599	647.519
339.431	23.490	839.653	647.907
340.446	23.613	839.225	647.969
341.460	23.751	838.546	647.893
342.475	23.826	838.313	647.926
343.489	23.821	838.159	647.732
344.504	23.995	837.547	647.837
345.519	23.915	837.063	647.115
346.533	23.791	836.460	646.137
347.548	23.322	835.742	643.823
348.562	23.247	834.586	642.602
349.577	23.045	833.898	641.286
350.592	23.056	832.912	640.511
351.606	22.843	832.090	639.049
352.621	22.917	831.613	638.894
353.635	23.008	831.370	638.981
354.650	23.024	830.694	638.462
355.665	23.091	830.155	638.232
356.679	23.262	829.327	638.155
357.694	23.276	828.765	637.717
358.708	23.195	828.075	636.838
359.723	23.223	827.395	636.361
360.738	23.280	826.527	635.843
361.752	23.300	826.430	635.782
362.767	23.682	826.176	636.900
363.781	23.884	825.914	637.367
364.796	24.008	825.813	637.676
365.810	24.200	825.295	637.907
366.825	24.178	825.161	637.668
367.840	23.863	824.387	635.886
368.854	23.716	823.768	634.829
369.869	23.637	823.052	633.940
370.883	23.949	822.336	634.442
371.898	23.976	822.627	634.707
372.913	23.960	822.456	634.463
373.927	23.725	821.692	632.980
374.942	23.800	820.924	632.601
375.956	24.023	820.801	633.244
376.971	24.204	819.952	633.176
377.986	24.128	820.327	633.139
379.000	24.276	819.717	633.136
380.015	24.046	819.054	631.753
381.029	24.189	818.511	631.784
382.044	24.227	817.736	631.265
383.059	24.222	816.969	630.598
384.073	24.065	816.369	629.525
385.088	23.754	815.391	627.618
386.102	23.514	814.959	626.382
387.117	23.397	814.227	625.351
388.132	23.467	813.734	625.163
389.146	23.703	812.995	625.373
390.161	23.934	813.271	626.344
391.175	24.002	812.638	626.039
392.190	23.931	811.762	625.060
393.205	23.575	810.877	623.073
394.219	23.264	810.983	622.007
395.234	23.326	810.261	621.616
396.248	23.237	809.975	621.028
397.263	23.373	809.251	620.894
398.278	23.120	808.286	619.214
399.292	23.100	808.168	619.000
400.307	23.185	807.895	619.031
401.321	23.245	807.128	618.600
402.336	23.444	806.877	619.048
403.350	23.754	806.765	619.987
404.365	24.049	806.622	620.855
405.380	24.292	806.240	621.350
406.394	24.292	805.976	621.091
407.409	24.539	805.592	621.600
408.423	24.622	805.096	621.452
409.438	24.456	804.826	620.613
410.453	24.452	804.425	620.235
411.467	24.555	803.695	619.975
412.482	24.743	803.423	620.362
413.496	24.762	803.508	620.438
414.511	24.612	802.854	619.357
415.526	24.528	802.259	618.553
416.540	24.295	802.182	617.631
417.555	24.351	801.107	616.946
418.569	24.606	800.821	617.551
419.584	24.518	799.852	616.445
420.599	24.398	799.710	615.868
421.613	163.803	1370.746	1796.980
422.628	142.298	1453.942	1797.072
