DTS Sentinel unit serial number:	SN413079Multiplexer serial number:	ORYXHardware model number:	OX4-SRSoftware version number:	ORYX F/W v4.00 Oryx Data Collector v3.7.2.0data status	okinstallation	princeton_trtdifferential loss correction	single-endedforward channel	channel 1reverse channel	N/Adate	2019/09/13time	04:26:35forward acquisition time	60.00reverse acquisition time	0.00gamma	496.2192k internal	0.2334k external	0.2334temperature offset calibration	1.0156default loss term (dB/km)	0.3790temperature slope calibration	1.0000multiplexer offset coefficient	1.0000multiplexer slope coefficient	1.0000fibre end	0.00T internal ref (°C)	26.75T ext. ref 1 (°C)	4.04T ext. ref 2 (°C)	21.17length (m)	temperature (°C)	Stokes	anti-Stokes-747.200	800.000	-0.041	0.147
-746.185	-127.760	0.333	-0.048
-745.171	-46.450	0.223	0.110
-744.156	-5.453	0.201	0.139
-743.142	79.778	-0.141	0.152
-742.127	281.475	-0.077	0.139
-741.112	-119.658	0.304	0.053
-740.098	-200.000	0.069	-0.324
-739.083	293.022	-0.100	0.183
-738.069	113.207	0.095	-0.115
-737.054	345.363	0.090	0.178
-736.039	152.908	-0.103	0.141
-735.025	115.503	0.186	-0.228
-734.010	800.000	-0.044	-0.175
-732.996	78.204	0.280	-0.300
-731.981	47.966	-0.140	-0.131
-730.966	-51.656	-0.178	-0.084
-729.952	24.873	0.365	-0.304
-728.937	5.672	-0.387	-0.287
-727.923	800.000	0.020	0.056
-726.908	-200.000	-0.050	-0.351
-725.894	-36.233	-0.303	-0.164
-724.879	-104.841	0.103	0.024
-723.864	-200.000	-0.000	-0.227
-722.850	-200.000	-0.047	0.353
-721.835	782.439	-0.062	-0.171
-720.821	-200.000	-0.055	0.270
-719.806	-200.000	0.001	-0.267
-718.791	606.285	-0.020	-0.050
-717.777	800.000	-0.045	0.168
-716.762	133.128	-0.047	-0.061
-715.748	313.112	0.054	0.102
-714.733	800.000	-0.031	-0.095
-713.718	-59.257	0.138	-0.060
-712.704	-36.801	-0.308	0.166
-711.689	0.935	0.246	0.177
-710.675	-131.768	0.150	-0.020
-709.660	-200.000	-0.022	-0.164
-708.645	-83.382	0.382	0.123
-707.631	-171.455	0.185	0.006
-706.616	422.704	-0.170	-0.365
-705.602	-200.000	0.003	-0.164
-704.587	-200.000	0.031	0.181
-703.572	-200.000	0.004	0.026
-702.558	-120.962	0.148	0.025
-701.543	426.646	0.097	0.210
-700.529	223.665	0.220	0.356
-699.514	-54.887	0.049	0.022
-698.499	199.726	0.111	-0.170
-697.485	-108.860	0.526	0.113
-696.470	-200.000	0.005	-0.115
-695.456	29.872	0.131	-0.112
-694.441	-64.250	0.120	0.049
-693.426	40.889	0.163	-0.148
-692.412	800.000	-0.025	-0.102
-691.397	174.967	-0.218	0.317
-690.383	648.963	-0.062	0.159
-689.368	110.302	0.188	0.226
-688.354	140.078	-0.061	-0.080
-687.339	-200.000	0.055	-0.494
-686.324	-121.891	0.119	0.020
-685.310	-32.369	0.097	-0.054
-684.295	-19.279	-0.258	-0.161
-683.281	494.448	0.101	-0.232
-682.266	20.712	-0.087	0.071
-681.251	800.000	-0.056	-0.195
-680.237	-89.387	-0.337	0.099
-679.222	490.304	0.045	-0.104
-678.208	57.284	-0.235	-0.230
-677.193	-70.627	-0.293	0.111
-676.178	33.526	0.074	-0.064
-675.164	-8.330	0.211	-0.142
-674.149	-89.029	-0.375	0.111
-673.135	-200.000	0.033	-0.156
-672.120	-116.375	0.147	0.027
-671.105	-200.000	0.009	0.120
-670.091	185.385	0.059	0.088
-669.076	-91.897	0.218	-0.062
-668.062	-110.302	-0.335	0.070
-667.047	164.185	0.164	-0.231
-666.032	-163.380	0.277	-0.013
-665.018	221.397	-0.094	-0.151
-664.003	356.856	0.215	-0.430
-662.989	-64.233	0.359	-0.147
-661.974	-109.736	-0.241	-0.051
-660.959	-98.328	-0.122	0.031
-659.945	402.530	-0.054	0.114
-658.930	-101.554	0.224	-0.055
-657.916	29.183	-0.245	0.208
-656.901	-200.000	-0.010	0.170
-655.886	-53.402	0.234	0.107
-654.872	-146.355	-0.226	0.020
-653.857	-25.091	-0.159	-0.095
-652.843	-88.079	0.131	-0.039
-651.828	-200.000	0.013	0.290
-650.814	10.658	0.090	0.069
-649.799	110.163	0.155	0.186
-648.784	-117.803	-0.235	-0.042
-647.770	-112.402	0.174	0.035
-646.755	-9.489	-0.106	-0.071
-645.741	-111.370	-0.367	-0.075
-644.726	-93.033	-0.268	-0.075
-643.711	358.970	-0.021	-0.042
-642.697	-53.098	-0.188	-0.086
-641.682	531.889	-0.070	0.167
-640.668	-120.108	0.287	-0.049
-639.653	29.988	-0.141	-0.120
-638.638	-95.769	-0.326	0.087
-637.624	-200.000	0.074	-0.396
-636.609	800.000	0.015	-0.063
-635.595	290.273	-0.115	-0.208
-634.580	127.557	0.155	0.197
-633.565	461.941	-0.107	0.239
-632.551	-48.694	-0.108	-0.052
-631.536	205.265	0.090	-0.140
-630.522	-200.000	0.023	-0.118
-629.507	3.827	-0.117	-0.086
-628.492	-200.000	-0.001	0.110
-627.478	250.901	-0.146	-0.248
-626.463	800.000	0.036	0.125
-625.449	-77.173	0.157	0.055
-624.434	800.000	-0.122	-0.361
-623.419	-200.000	0.014	0.114
-622.405	800.000	-0.045	0.153
-621.390	63.526	0.175	0.175
-620.376	186.000	0.114	-0.169
-619.361	10.461	0.271	0.207
-618.346	279.249	-0.096	-0.172
-617.332	24.832	0.143	0.118
-616.317	-102.837	-0.209	-0.050
-615.303	-200.000	0.026	-0.142
-614.288	223.682	0.230	-0.371
-613.273	620.659	-0.151	0.380
-612.259	-92.168	0.247	0.070
-611.244	-148.428	-0.324	0.027
-610.230	157.708	0.043	-0.060
-609.215	-37.424	0.141	-0.075
-608.201	3.646	0.181	0.132
-607.186	280.857	-0.143	-0.256
-606.171	10.004	-0.134	0.102
-605.157	-195.582	0.279	0.002
-604.142	-200.000	0.043	0.194
-603.128	153.603	-0.094	-0.128
-602.113	800.000	0.029	-0.117
-601.098	37.266	0.069	-0.061
-600.084	16.967	-0.070	-0.055
-599.069	11.656	0.299	-0.229
-598.055	-200.000	0.028	-0.149
-597.040	511.515	-0.057	-0.133
-596.025	31.434	0.117	-0.100
-595.011	-200.000	-0.006	-0.044
-593.996	-154.698	0.200	0.013
-592.982	-192.223	0.191	-0.002
-591.967	-200.000	0.008	-0.080
-590.952	-200.000	-0.014	0.110
-589.938	25.346	0.342	-0.284
-588.923	800.000	0.020	-0.074
-587.909	-165.115	0.243	0.011
-586.894	-18.238	0.136	-0.085
-585.879	66.812	-0.207	-0.210
-584.865	-92.968	0.209	-0.058
-583.850	-18.395	-0.064	-0.040
-582.836	58.457	0.079	0.077
-581.821	-200.000	0.009	-0.107
-580.806	241.904	-0.066	-0.111
-579.792	-200.000	-0.015	-0.153
-578.777	93.380	0.214	-0.241
-577.763	186.927	0.221	0.329
-576.748	113.490	-0.113	0.137
-575.733	-200.000	0.026	0.154
-574.719	-98.286	-0.117	0.030
-573.704	800.000	0.084	0.342
-572.690	-35.251	-0.206	-0.112
-571.675	307.872	0.037	-0.069
-570.661	549.466	-0.049	0.118
-569.646	-10.533	0.130	0.086
-568.631	-8.161	0.296	0.199
-567.617	129.277	0.067	-0.086
-566.602	-82.596	0.158	-0.051
-565.588	49.546	0.118	0.111
-564.573	30.062	-0.131	0.112
-563.558	-200.000	-0.014	0.279
-562.544	391.331	0.099	0.205
-561.529	48.830	0.108	-0.101
-560.515	-145.479	-0.170	0.015
-559.500	21.447	-0.305	0.247
-558.485	98.318	0.205	-0.236
-557.471	-102.462	-0.118	0.028
-556.456	43.263	0.079	0.072
-555.442	-107.597	-0.370	0.081
-554.427	-200.000	-0.005	0.046
-553.412	139.578	-0.133	0.174
-552.398	-200.000	0.011	-0.080
-551.383	-200.000	0.016	0.253
-550.369	68.452	0.141	0.145
-549.354	-29.159	0.123	0.071
-548.339	151.307	0.212	0.288
-547.325	-184.425	-0.188	0.003
-546.310	23.279	0.184	0.150
-545.296	-31.349	-0.316	0.178
-544.281	2.987	0.353	-0.256
-543.266	627.699	0.040	0.100
-542.252	17.097	0.164	0.130
-541.237	-200.000	0.005	-0.176
-540.223	-200.000	-0.007	-0.096
-539.208	-200.000	-0.026	-0.219
-538.193	-122.688	0.382	-0.062
-537.179	-200.000	-0.013	0.130
-536.164	426.649	-0.033	-0.071
-535.150	348.118	-0.076	-0.149
-534.135	151.061	-0.134	0.182
-533.121	-77.736	0.123	0.042
-532.106	391.371	-0.078	0.161
-531.091	34.311	-0.043	0.037
-530.077	-145.049	-0.224	-0.020
-529.062	281.819	-0.028	-0.049
-528.048	53.696	-0.133	0.127
-527.033	-200.000	0.054	0.400
-526.018	-200.000	-0.018	-0.305
-525.004	800.000	-0.073	0.208
-523.989	-200.000	-0.014	-0.098
-522.975	-43.056	0.164	0.083
-521.960	140.944	-0.080	-0.106
-520.945	103.240	0.154	-0.180
-519.931	-119.529	-0.078	0.013
-518.916	-90.944	0.146	0.042
-517.902	-200.000	0.012	-0.285
-516.887	311.450	-0.152	0.284
-515.872	-117.599	-0.245	0.044
-514.858	-200.000	-0.008	0.038
-513.843	12.992	-0.024	-0.019
-512.829	-131.972	0.227	-0.029
-511.814	-111.752	0.161	-0.032
-510.799	-55.044	-0.206	0.092
-509.785	5.731	-0.243	0.179
-508.770	-57.399	-0.168	-0.073
-507.756	123.059	-0.158	0.196
-506.741	-200.000	0.005	-0.441
-505.726	161.413	0.062	-0.086
-504.712	-61.926	-0.159	-0.066
-503.697	-200.000	0.000	-0.245
-502.683	-93.879	0.333	-0.091
-501.668	-200.000	-0.081	0.402
-500.653	800.000	-0.061	0.222
-499.639	56.821	-0.116	0.112
-498.624	-200.000	0.011	0.083
-497.610	-20.912	-0.184	0.112
-496.595	59.621	0.196	0.193
-495.581	375.501	-0.107	-0.218
-494.566	-200.000	-0.013	-0.079
-493.551	177.547	0.132	-0.191
-492.537	800.000	-0.030	0.109
-491.522	36.231	-0.099	0.086
-490.508	800.000	-0.105	0.338
-489.493	-88.242	0.189	-0.056
-488.478	-0.806	-0.211	-0.148
-487.464	-90.893	-0.081	-0.023
-486.449	110.043	-0.117	0.139
-485.435	340.802	0.103	0.201
-484.420	-62.275	-0.146	0.061
-483.405	-176.439	-0.053	-0.001
-482.391	514.860	0.035	-0.081
-481.376	-103.656	-0.309	-0.072
-480.362	-133.652	0.234	-0.029
-479.347	371.371	-0.104	0.209
-478.332	296.920	-0.244	0.445
-477.318	-4.853	-0.394	0.270
-476.303	-179.640	0.325	-0.007
-475.289	-200.000	-0.003	0.023
-474.274	800.000	-0.079	0.222
-473.259	118.955	-0.125	-0.154
-472.245	199.258	0.021	0.031
-471.230	-200.000	0.022	0.296
-470.216	-103.122	0.229	-0.054
-469.201	-200.000	-0.018	0.266
-468.186	104.146	-0.195	-0.228
-467.172	-21.113	0.211	-0.129
-466.157	495.175	0.084	0.192
-465.143	135.500	0.192	-0.249
-464.128	-81.648	-0.193	0.063
-463.113	203.158	-0.135	-0.208
-462.099	-121.650	0.081	-0.013
-461.084	-200.000	-0.044	-0.267
-460.070	-81.756	0.151	0.049
-459.055	-112.197	-0.142	-0.028
-458.040	-86.031	-0.343	0.105
-457.026	-200.000	0.006	0.190
-456.011	-200.000	-0.075	-0.338
-454.997	-109.024	-0.298	0.063
-453.982	-200.000	-0.019	0.150
-452.968	522.882	0.068	-0.158
-451.953	-139.114	0.067	0.007
-450.938	52.209	-0.238	0.226
-449.924	68.899	-0.053	-0.054
-448.909	22.188	0.359	0.291
-447.895	24.337	0.209	0.172
-446.880	-115.355	-0.237	0.044
-445.865	-87.539	-0.122	0.037
-444.851	317.492	-0.121	-0.227
-443.836	22.034	0.169	-0.137
-442.822	369.769	0.025	0.051
-441.807	-89.178	-0.156	-0.046
-440.792	39.399	0.284	0.253
-439.778	130.178	0.198	0.251
-438.763	334.739	0.080	0.153
-437.749	-200.000	-0.016	0.144
-436.734	480.263	0.114	0.256
-435.719	211.710	0.056	0.087
-434.705	356.521	0.181	-0.357
-433.690	-150.434	-0.341	-0.026
-432.676	-165.466	0.264	-0.011
-431.661	-90.111	-0.287	0.083
-430.646	800.000	-0.026	-0.086
-429.632	-65.793	-0.067	0.027
-428.617	638.399	-0.062	-0.156
-427.603	-30.426	0.379	-0.213
-426.588	-63.934	-0.118	-0.048
-425.573	-12.368	0.166	-0.108
-424.559	-200.000	0.038	0.238
-423.544	138.931	-0.098	-0.127
-422.530	578.736	0.018	-0.044
-421.515	800.000	-0.067	0.213
-420.500	431.778	-0.068	-0.146
-419.486	800.000	0.162	-0.591
-418.471	-120.110	-0.107	0.018
-417.457	-12.970	0.138	0.089
-416.442	64.565	0.263	0.263
-415.428	39.330	-0.108	0.096
-414.413	235.773	0.080	0.131
-413.398	-200.000	0.084	-0.397
-412.384	-111.777	0.320	0.064
-411.369	527.483	-0.096	-0.225
-410.355	443.440	-0.106	-0.231
-409.340	324.517	-0.019	0.036
-408.325	-200.000	-0.011	-0.239
-407.311	257.846	-0.074	-0.127
-406.296	254.153	0.019	0.032
-405.282	-149.108	0.223	0.018
-404.267	-200.000	-0.008	-0.091
-403.252	-77.717	0.170	-0.058
-402.238	-99.338	0.231	0.058
-401.223	800.000	-0.071	-0.256
-400.209	-200.000	-0.034	-0.212
-399.194	97.012	-0.123	0.140
-398.179	800.000	-0.084	0.230
-397.165	-44.187	-0.291	-0.145
-396.150	-200.000	-0.051	0.257
-395.136	-16.107	-0.095	0.060
-394.121	-200.000	0.094	-0.435
-393.106	66.321	-0.027	-0.027
-392.092	-93.385	-0.198	-0.055
-391.077	235.578	-0.086	0.140
-390.063	-185.839	0.113	-0.002
-389.048	-166.807	-0.201	-0.008
-388.033	-200.000	0.005	0.034
-387.019	100.234	0.229	-0.263
-386.004	393.247	-0.050	-0.104
-384.990	-9.771	0.057	0.037
-383.975	221.305	0.209	0.332
-382.960	-200.000	-0.009	-0.054
-381.946	-109.940	-0.360	0.075
-380.931	-200.000	0.004	-0.032
-379.917	-13.081	0.196	0.126
-378.902	-200.000	-0.044	0.304
-377.888	-200.000	-0.043	-0.225
-376.873	142.630	-0.073	0.096
-375.858	-106.158	0.084	-0.019
-374.844	-200.000	-0.018	-0.310
-373.829	-200.000	0.013	-0.100
-372.815	171.956	0.098	-0.139
-371.800	-82.513	-0.165	-0.053
-370.785	-52.284	-0.122	0.056
-369.771	-200.000	0.029	0.389
-368.756	-141.955	0.180	0.018
-367.742	800.000	-0.045	0.194
-366.727	800.000	0.038	0.137
-365.712	-200.000	-0.023	0.129
-364.698	-200.000	0.002	-0.082
-363.683	-160.644	-0.275	0.015
-362.669	-69.400	0.232	0.088
-361.654	-122.622	-0.345	0.055
-360.639	-200.000	0.011	-0.068
-359.625	-200.000	0.024	-0.125
-358.610	-155.757	-0.081	0.005
-357.596	-88.962	0.198	-0.058
-356.581	-67.534	0.234	-0.091
-355.566	-200.000	-0.011	-0.063
-354.552	-44.697	0.317	-0.157
-353.537	58.152	0.060	-0.058
-352.523	102.614	-0.240	-0.278
-351.508	240.818	-0.113	-0.186
-350.493	-200.000	-0.032	0.297
-349.479	-97.411	-0.274	0.070
-348.464	800.000	0.032	-0.133
-347.450	38.472	-0.140	-0.124
-346.435	163.844	-0.121	0.169
-345.420	47.371	0.112	-0.103
-344.406	8.650	0.017	-0.012
-343.391	172.251	0.084	-0.120
-342.377	800.000	-0.067	-0.239
-341.362	186.043	0.148	0.218
-340.348	8.927	0.202	0.151
-339.333	-194.348	0.162	0.001
-338.318	-114.786	-0.279	0.053
-337.304	-179.441	0.340	0.007
-336.289	780.179	-0.072	0.196
-335.275	520.424	-0.144	-0.335
-334.260	-95.704	-0.458	-0.121
-333.245	-200.000	-0.049	0.330
-332.231	-115.627	0.212	0.039
-331.216	-86.218	-0.099	0.030
-330.202	17.038	-0.073	0.057
-329.187	-200.000	0.028	0.125
-328.172	-200.000	0.019	-0.139
-327.158	-151.486	0.322	-0.024
-326.143	207.215	0.075	-0.115
-325.129	7.168	-0.165	0.122
-324.114	800.000	-0.096	0.367
-323.099	-109.232	-0.362	0.076
-322.085	-24.779	0.123	0.073
-321.070	-73.857	0.157	0.056
-320.056	52.850	0.053	-0.050
-319.041	-157.764	0.367	-0.022
-318.026	695.990	0.071	-0.185
-317.012	-2.476	0.144	-0.100
-315.997	13.387	0.309	0.237
-314.983	115.709	-0.100	0.121
-313.968	392.053	0.080	0.165
-312.953	-133.944	-0.340	0.042
-311.939	-83.255	-0.391	-0.124
-310.924	-119.943	0.145	0.025
-309.910	-106.192	-0.166	-0.037
-308.895	-159.551	-0.208	0.011
-307.880	-3.507	-0.158	-0.109
-306.866	800.000	0.028	0.116
-305.851	-154.067	-0.220	-0.015
-304.837	800.000	-0.057	-0.164
-303.822	-200.000	-0.007	-0.153
-302.807	-200.000	-0.013	0.073
-301.793	-49.475	-0.271	0.128
-300.778	-59.185	-0.101	-0.043
-299.764	148.468	0.173	-0.230
-298.749	113.674	-0.029	-0.035
-297.735	-7.118	-0.257	0.172
-296.720	-54.907	-0.326	0.145
-295.705	97.637	-0.195	-0.221
-294.691	-129.866	0.269	-0.036
-293.676	510.299	0.076	-0.175
-292.662	-174.815	-0.289	-0.008
-291.647	604.087	0.055	-0.135
-290.632	102.240	-0.173	-0.199
-289.618	-87.279	-0.085	0.026
-288.603	-54.723	0.109	-0.048
-287.589	82.570	0.283	-0.304
-286.574	213.192	-0.089	0.138
-285.559	800.000	0.126	-0.395
-284.545	104.915	-0.099	0.115
-283.530	-32.799	-0.139	0.076
-282.516	-157.044	0.205	-0.012
-281.501	-103.406	0.572	-0.133
-280.486	-64.503	0.249	-0.100
-279.472	-200.000	-0.013	-0.183
-278.457	332.611	0.142	0.271
-277.443	-200.000	-0.041	-0.230
-276.428	481.971	0.077	0.172
-275.413	76.220	0.178	-0.186
-274.399	360.480	0.046	-0.090
-273.384	-117.008	-0.202	-0.036
-272.370	-15.506	-0.261	0.165
-271.355	-200.000	-0.006	0.044
-270.340	-31.493	0.176	-0.097
-269.326	-200.000	0.032	-0.297
-268.311	800.000	0.012	0.050
-267.297	193.521	-0.128	0.190
-266.282	-200.000	0.022	-0.139
-265.267	553.373	-0.073	0.172
-264.253	-73.244	-0.207	-0.075
-263.238	-200.000	0.002	-0.321
-262.224	250.740	-0.177	-0.297
-261.209	-200.000	-0.021	-0.167
-260.195	-200.000	0.048	0.351
-259.180	-8.700	0.144	-0.095
-258.165	-21.355	-0.142	0.086
-257.151	-200.000	-0.026	0.174
-256.136	70.277	-0.274	0.279
-255.122	757.925	-0.131	0.349
-254.107	-200.000	0.031	-0.314
-253.092	38.884	-0.225	-0.198
-252.078	-53.822	-0.137	-0.062
-251.063	-200.000	-0.021	0.156
-250.049	-38.404	-0.151	-0.079
-249.034	469.567	-0.142	0.315
-248.019	-92.637	0.210	0.058
-247.005	800.000	0.124	0.400
-245.990	318.770	0.022	-0.041
-244.976	15.563	0.069	-0.053
-243.961	-92.479	-0.307	-0.085
-242.946	327.141	0.138	0.261
-241.932	-195.573	0.180	0.001
-240.917	-200.000	-0.003	-0.288
-239.903	-200.000	0.001	-0.339
-238.888	76.946	-0.139	-0.145
-237.873	-15.774	0.228	-0.143
-236.859	-159.252	0.248	0.014
-235.844	405.806	0.103	-0.214
-234.830	770.581	-0.063	-0.170
-233.815	-200.000	-0.066	-0.489
-232.800	366.550	0.039	-0.077
-231.786	-90.079	0.245	-0.070
-230.771	800.000	-0.090	0.335
-229.757	-28.877	0.209	-0.118
-228.742	800.000	-0.153	-0.451
-227.727	-116.474	-0.337	-0.061
-226.713	-137.609	0.099	0.011
-225.698	-111.674	-0.124	-0.025
-224.684	-137.169	0.292	0.033
-223.669	-66.648	-0.391	0.153
-222.655	-64.354	-0.248	-0.099
-221.640	222.551	0.195	0.309
-220.625	800.000	-0.080	-0.225
-219.611	-24.145	0.190	0.112
-218.596	5.679	0.191	0.139
-217.582	800.000	0.078	-0.267
-216.567	163.478	-0.192	-0.265
-215.552	800.000	-0.074	0.211
-214.538	5.226	-0.060	-0.044
-213.523	-19.446	0.230	0.140
-212.509	-178.113	-0.251	-0.006
-211.494	-39.323	-0.242	0.125
-210.479	-57.494	-0.115	-0.050
-209.465	100.006	-0.185	-0.211
-208.450	-95.772	0.241	0.063
-207.436	-200.000	0.019	0.196
-206.421	800.000	0.087	0.242
-205.406	-200.000	0.027	-0.161
-204.392	-89.570	-0.062	-0.018
-203.377	-22.742	0.072	-0.043
-202.363	254.417	-0.152	0.257
-201.348	157.711	-0.161	-0.220
-200.333	-106.871	0.257	-0.056
-199.319	-96.144	0.190	0.050
-198.304	138.839	-0.152	0.196
-197.290	429.510	-0.141	0.299
-196.275	156.010	0.027	-0.037
-195.260	348.432	0.042	0.082
-194.246	3.803	0.392	-0.282
-193.231	-130.006	0.333	-0.045
-192.217	336.851	0.093	-0.178
-191.202	469.997	0.030	0.067
-190.187	767.546	-0.030	0.080
-189.173	204.671	0.104	-0.159
-188.158	22.726	-0.130	-0.105
-187.144	64.780	0.079	-0.078
-186.129	-83.049	0.133	-0.042
-185.114	-200.000	0.024	0.273
-184.100	288.509	-0.089	-0.159
-183.085	224.635	0.219	-0.348
-182.071	-42.333	0.137	0.069
-181.056	-200.000	0.063	-0.343
-180.042	125.421	-0.258	0.320
-179.027	-4.161	-0.286	-0.195
-178.012	68.232	0.122	-0.123
-176.998	-121.849	-0.119	-0.019
-175.983	21.273	0.319	0.254
-174.969	800.000	-0.017	0.053
-173.954	-43.926	0.105	-0.052
-172.939	37.848	-0.138	0.120
-171.925	-200.000	0.035	0.213
-170.910	-53.385	0.056	-0.025
-169.896	-200.000	-0.001	0.236
-168.881	-153.522	-0.218	0.015
-167.866	800.000	-0.100	0.320
-166.852	-200.000	0.039	-0.232
-165.837	76.419	0.136	-0.141
-164.823	-60.387	0.244	0.102
-163.808	343.043	0.135	0.259
-162.793	800.000	0.016	0.062
-161.779	-75.445	0.300	0.105
-160.764	-200.000	0.052	0.259
-159.750	589.507	0.093	-0.225
-158.735	-9.810	0.251	-0.164
-157.720	-200.000	0.004	0.208
-156.706	800.000	0.066	0.246
-155.691	-200.000	0.002	0.195
-154.677	-11.493	-0.241	-0.156
-153.662	140.490	0.120	0.156
-152.647	-200.000	-0.048	0.358
-151.633	-56.680	-0.212	0.092
-150.618	-200.000	0.006	-0.082
-149.604	216.662	0.127	-0.198
-148.589	-82.256	-0.137	-0.044
-147.574	16.166	-0.232	-0.179
-146.560	542.556	-0.067	-0.158
-145.545	275.885	0.022	-0.038
-144.531	366.738	-0.072	0.143
-143.516	38.491	0.168	-0.147
-142.502	-48.659	0.097	0.046
-141.487	-109.237	0.178	-0.037
-140.472	800.000	0.082	0.233
-139.458	-88.735	0.230	-0.067
-138.443	-139.429	0.558	-0.059
-137.429	-77.416	-0.252	0.086
-136.414	-55.596	-0.049	-0.022
-135.399	-117.628	-0.056	-0.010
-134.385	-121.607	0.111	-0.018
-133.370	-89.522	0.065	-0.019
-132.356	-16.958	-0.347	-0.215
-131.341	-125.349	0.156	0.023
-130.326	800.000	-0.036	-0.152
-129.312	-15.888	0.295	-0.184
-128.297	-1.181	0.114	0.079
-127.283	84.098	0.130	0.139
-126.268	-146.139	0.370	-0.032
-125.253	479.538	-0.118	-0.262
-124.239	147.262	0.161	-0.213
-123.224	-161.530	0.179	0.009
-122.210	23.456	-0.104	-0.084
-121.195	-50.234	0.400	0.186
-120.180	-20.920	-0.227	-0.136
-119.166	-104.744	0.048	0.011
-118.151	568.837	-0.026	0.061
-117.137	12.204	-0.454	0.343
-116.122	575.750	0.075	-0.180
-115.107	-99.718	-0.303	-0.074
-114.093	-138.570	-0.238	0.026
-113.078	-45.430	-0.226	-0.110
-112.064	800.000	0.009	0.024
-111.049	800.000	0.096	-0.346
-110.034	-68.641	-0.153	-0.058
-109.020	737.480	0.122	-0.322
-108.005	724.103	0.055	-0.144
-106.991	-200.000	-0.009	-0.220
-105.976	-37.025	0.281	0.147
-104.962	800.000	-0.025	-0.101
-103.947	-200.000	0.029	-0.221
-102.932	25.245	-0.089	-0.073
-101.918	180.487	0.093	0.134
-100.903	25.216	0.185	-0.150
-99.889	291.655	0.069	-0.123
-98.874	-200.000	0.055	0.350
-97.859	-200.000	-0.032	-0.170
-96.845	54.292	0.265	-0.250
-95.830	800.000	0.032	0.092
-94.816	-200.000	-0.040	0.206
-93.801	800.000	-0.105	-0.304
-92.786	88.395	-0.049	-0.054
-91.772	301.041	0.078	0.142
-90.757	489.164	0.138	-0.309
-89.743	-78.189	-0.111	0.037
-88.728	-134.741	0.198	0.024
-87.713	20.685	0.212	0.168
-86.699	-200.000	-0.004	0.229
-85.684	-99.585	0.041	0.010
-84.670	-122.530	-0.280	0.045
-83.655	-105.933	-0.310	-0.068
-82.640	-64.191	0.134	0.054
-81.626	-103.423	-0.190	-0.044
-80.611	304.485	0.183	0.332
-79.597	-200.000	0.003	0.250
-78.582	800.000	-0.155	0.511
-77.567	800.000	-0.052	-0.147
-76.553	-161.447	0.243	0.012
-75.538	-101.337	0.297	-0.071
-74.524	121.179	-0.075	-0.091
-73.509	682.657	-0.166	0.423
-72.494	94.320	0.196	-0.218
-71.480	58.309	-0.132	0.127
-70.465	-3.392	-0.056	-0.038
-69.451	-200.000	-0.054	-0.388
-68.436	585.788	0.020	-0.047
-67.422	52.405	0.388	0.362
-66.407	9.554	0.191	-0.142
-65.392	-48.808	0.277	-0.130
-64.378	-82.641	-0.299	-0.095
-63.363	-61.847	-0.185	0.076
-62.349	-91.608	0.248	0.069
-61.334	35.701	-0.747	-0.642
-60.319	-19.375	0.847	0.514
-59.305	417.508	-0.430	-0.898
-58.290	118.519	0.954	1.152
-57.276	800.000	0.496	1.650
-56.261	-200.000	116.697	656.913
-55.246	519.571	1538.559	3526.368
-54.232	176.320	2705.970	3845.117
-53.217	107.327	2149.461	2500.092
-52.203	38.381	1587.263	1383.258
-51.188	30.059	1331.273	1110.499
-50.173	27.149	1293.354	1061.854
-49.159	54.383	1351.648	1273.103
-48.144	52.605	1364.355	1274.438
-47.130	30.156	1319.370	1100.970
-46.115	26.887	1301.181	1066.571
-45.100	26.687	1296.240	1061.307
-44.086	26.561	1293.364	1058.170
-43.071	26.505	1290.653	1055.582
-42.057	26.614	1288.999	1054.825
-41.042	26.628	1287.362	1053.524
-40.027	26.639	1285.625	1052.123
-39.013	26.697	1284.010	1051.096
-37.998	26.547	1282.482	1048.938
-36.984	26.638	1280.947	1048.168
-35.969	26.750	1278.440	1046.722
-34.954	26.798	1276.745	1045.569
-33.940	26.681	1275.652	1043.957
-32.925	26.865	1274.107	1043.713
-31.911	26.776	1272.847	1042.122
-30.896	26.716	1272.150	1041.166
-29.881	26.941	1269.666	1040.383
-28.867	26.935	1268.544	1039.391
-27.852	26.935	1267.010	1038.091
-26.838	26.861	1265.534	1036.415
-25.823	26.785	1264.750	1035.299
-24.809	26.884	1262.671	1034.122
-23.794	26.802	1261.855	1032.943
-22.779	26.730	1260.835	1031.662
-21.765	26.852	1259.346	1031.094
-20.750	26.868	1257.827	1029.902
-19.736	26.787	1256.581	1028.379
-18.721	26.787	1255.600	1027.536
-17.706	26.666	1254.826	1026.176
-16.692	26.661	1253.790	1025.262
-15.677	26.731	1252.534	1024.589
-14.663	26.753	1251.043	1023.454
-13.648	26.697	1250.126	1022.343
-12.633	26.624	1249.160	1021.101
-11.619	26.695	1248.182	1020.662
-10.604	26.771	1247.809	1020.743
-9.590	26.657	1246.664	1019.129
-8.575	26.614	1245.992	1018.297
-7.560	26.867	1244.513	1018.465
-6.546	26.720	1243.876	1017.081
-5.531	26.647	1243.297	1016.154
-4.517	26.755	1242.255	1015.869
-3.502	26.825	1240.718	1014.963
-2.487	26.687	1240.366	1013.867
-1.473	26.645	1236.451	1010.389
-0.458	25.121	1220.713	989.091
0.556	22.932	1204.824	950.930
1.571	19.225	1209.952	934.814
2.586	18.367	1225.081	941.703
3.600	18.248	1213.304	931.923
4.615	14.155	1143.042	856.836
5.629	7.305	1072.014	770.331
6.644	4.342	1054.376	743.411
7.659	4.056	1051.998	740.300
8.673	3.813	1050.803	738.234
9.688	3.940	1049.412	737.795
10.702	4.202	1047.792	737.840
11.717	8.763	1053.491	763.573
12.731	16.541	1064.468	808.794
13.746	21.290	1070.786	836.312
14.761	22.430	1071.453	842.215
15.775	21.676	1070.010	837.404
16.790	20.742	1068.021	831.314
17.804	20.218	1066.394	827.474
18.819	19.844	1065.920	825.251
19.834	19.871	1065.017	824.608
20.848	19.859	1064.416	824.013
21.863	19.634	1063.872	822.447
22.877	19.484	1063.058	821.030
23.892	19.403	1062.085	819.821
24.907	19.502	1061.503	819.771
25.921	19.462	1059.952	818.308
26.936	19.363	1059.116	817.125
27.950	19.455	1057.527	816.262
28.965	19.553	1056.559	815.903
29.980	19.785	1055.283	815.940
30.994	19.722	1054.428	814.911
32.009	19.880	1053.213	814.646
33.023	19.793	1052.527	813.633
34.038	19.626	1051.471	811.957
35.053	19.522	1050.962	811.007
36.067	19.514	1049.498	809.769
37.082	19.406	1049.287	809.028
38.096	19.718	1048.575	809.869
39.111	19.763	1047.709	809.335
40.126	19.480	1046.169	806.752
41.140	19.177	1044.641	804.087
42.155	19.142	1043.469	802.950
43.169	18.987	1042.353	801.301
44.184	18.976	1040.999	800.136
45.199	18.969	1040.833	799.906
46.213	19.359	1039.567	800.673
47.228	19.488	1039.330	801.020
48.242	19.616	1038.177	800.653
49.257	19.583	1037.159	799.646
50.271	19.634	1036.905	799.612
51.286	19.714	1035.724	799.003
52.301	19.501	1035.025	797.411
53.315	19.446	1033.736	796.092
54.330	19.430	1032.365	794.893
55.344	19.192	1032.045	793.479
56.359	19.362	1030.581	793.063
57.374	19.223	1030.058	791.954
58.388	19.154	1028.853	790.639
59.403	18.995	1028.248	789.373
60.417	18.970	1027.110	788.317
61.432	18.906	1026.894	787.789
62.447	18.739	1026.243	786.453
63.461	18.761	1024.932	785.482
64.476	18.780	1023.847	784.666
65.490	18.755	1022.664	783.576
66.505	18.768	1022.558	783.483
67.520	18.782	1022.029	783.075
68.534	18.816	1021.337	782.632
69.549	18.748	1020.378	781.515
70.563	18.599	1019.630	780.195
71.578	18.543	1018.546	779.043
72.593	18.433	1017.582	777.738
73.607	18.487	1016.957	777.438
74.622	18.451	1016.645	776.965
75.636	18.722	1015.631	777.349
76.651	18.738	1014.935	776.822
77.666	18.636	1014.752	776.152
78.680	18.677	1013.873	775.593
79.695	18.645	1013.399	775.020
80.709	18.948	1012.978	775.998
81.724	18.975	1012.735	775.865
82.739	19.164	1011.572	775.754
83.753	19.497	1011.405	777.059
84.768	19.846	1010.933	778.197
85.782	19.984	1009.932	777.978
86.797	19.894	1009.368	777.071
87.812	19.788	1008.130	775.571
88.826	19.737	1007.141	774.516
89.841	19.794	1006.308	774.062
90.855	19.917	1005.479	773.903
91.870	19.920	1004.854	773.368
92.884	19.817	1003.908	772.110
93.899	19.755	1003.325	771.318
94.914	20.100	1001.629	771.481
95.928	19.846	1001.342	770.062
96.943	19.667	1000.223	768.338
97.957	19.613	999.327	767.344
98.972	19.609	999.000	767.004
99.987	19.783	997.511	766.565
101.001	19.717	996.790	765.652
102.016	19.703	996.217	765.081
103.030	19.764	995.394	764.652
104.045	19.630	994.953	763.653
105.060	19.634	993.360	762.380
106.074	19.237	992.588	759.969
107.089	19.007	991.090	757.743
108.103	18.980	990.039	756.754
109.118	18.876	989.127	755.533
110.133	18.746	988.177	754.168
111.147	18.779	986.932	753.295
112.162	18.870	986.778	753.511
113.176	19.103	986.108	753.954
114.191	19.117	985.394	753.402
115.206	19.082	984.749	752.688
116.220	18.939	984.146	751.537
117.235	19.012	982.516	750.546
118.249	18.944	981.851	749.674
119.264	18.863	981.189	748.749
120.279	18.833	980.369	747.927
121.293	18.736	979.657	746.894
122.308	18.560	978.542	745.216
123.322	18.578	977.311	744.290
124.337	18.530	976.276	743.226
125.352	18.689	974.827	742.747
126.366	18.587	974.284	741.825
127.381	18.542	973.268	740.790
128.395	18.476	973.118	740.325
129.410	18.711	971.767	740.249
130.424	18.747	971.599	740.209
131.439	18.882	970.829	740.136
132.454	18.983	969.953	739.841
133.468	18.930	969.112	738.906
134.483	19.024	968.101	738.470
135.497	19.141	967.025	738.089
136.512	18.987	966.769	737.168
137.527	19.039	965.907	736.666
138.541	19.066	965.201	736.178
139.556	19.181	964.715	736.235
140.570	19.391	964.251	736.711
141.585	19.593	963.232	736.730
142.600	19.784	962.190	736.681
143.614	19.881	961.448	736.461
144.629	19.905	961.000	736.157
145.643	19.747	959.996	734.651
146.658	19.455	958.460	732.172
147.673	19.401	957.213	730.922
148.687	19.198	956.510	729.463
149.702	19.067	955.395	727.993
150.716	19.199	954.630	727.906
151.731	19.119	953.869	726.922
152.746	19.160	953.286	726.585
153.760	19.287	952.910	726.771
154.775	19.388	952.471	726.797
155.789	19.508	951.536	726.526
156.804	19.409	951.227	725.811
157.819	19.696	950.142	726.125
158.833	19.782	949.661	726.052
159.848	19.954	949.240	726.386
160.862	19.667	947.568	723.842
161.877	19.165	946.762	721.061
162.892	19.184	944.794	719.576
163.906	19.156	944.064	718.843
164.921	19.144	943.386	718.211
165.935	19.234	942.843	718.107
166.950	19.341	942.112	717.935
167.964	19.340	941.077	717.080
168.979	19.176	939.784	715.349
169.994	19.138	939.505	714.915
171.008	19.293	938.903	715.035
172.023	19.681	937.981	715.879
173.037	19.780	937.726	716.029
174.052	19.504	936.655	714.010
175.067	19.228	935.576	711.980
176.081	18.997	935.167	710.655
177.096	19.063	934.569	710.409
178.110	19.232	933.506	710.235
179.125	19.161	933.516	709.885
180.140	19.223	933.010	709.695
181.154	19.519	933.186	710.985
182.169	19.604	932.834	711.004
183.183	19.755	931.700	710.698
184.198	19.599	930.871	709.362
185.213	19.568	930.542	708.919
186.227	19.699	929.965	708.954
187.242	19.818	929.506	709.029
188.256	20.031	928.982	709.441
189.271	20.033	927.789	708.476
190.286	19.595	926.753	705.832
191.300	19.040	925.462	702.522
192.315	18.948	925.077	701.790
193.329	19.101	924.332	701.787
194.344	19.301	923.887	702.201
195.359	19.378	923.256	701.976
196.373	19.443	923.433	702.312
197.388	19.831	922.357	703.008
198.402	20.000	922.304	703.591
199.417	20.030	922.245	703.607
200.432	20.236	921.406	703.740
201.446	20.409	920.747	703.874
202.461	20.389	920.750	703.735
203.475	20.263	919.749	702.396
204.490	19.972	918.546	700.237
205.504	19.760	917.781	698.735
206.519	19.797	917.118	698.319
207.534	19.684	916.777	697.543
208.548	19.878	915.554	697.333
209.563	19.689	915.433	696.415
210.577	19.822	914.743	696.364
211.592	20.056	914.544	697.095
212.607	20.244	913.527	697.015
213.621	20.176	912.831	696.148
214.636	20.005	911.803	694.618
215.650	20.011	911.838	694.604
216.665	20.292	910.535	694.677
217.680	20.218	910.395	694.212
218.694	20.170	910.361	693.931
219.709	20.199	909.100	693.026
220.723	20.255	908.365	692.629
221.738	20.196	907.570	691.724
222.753	20.151	906.716	690.835
223.767	20.259	906.377	690.942
224.782	20.317	906.255	691.020
225.796	20.425	905.894	691.112
226.811	20.239	905.067	689.681
227.826	20.012	904.229	688.081
228.840	20.021	903.269	687.325
229.855	20.136	902.520	687.150
230.869	20.110	901.588	686.279
231.884	19.956	901.062	685.208
232.899	19.829	900.511	684.227
233.913	19.868	899.672	683.683
234.928	19.758	898.878	682.582
235.942	19.629	898.459	681.695
236.957	19.739	897.746	681.528
237.972	19.617	897.554	680.841
238.986	19.840	896.661	680.980
240.001	19.723	896.192	680.105
241.015	19.871	895.533	680.127
242.030	20.026	895.338	680.527
243.045	20.132	894.857	680.516
244.059	20.141	893.790	679.680
245.074	20.192	893.754	679.795
246.088	20.105	893.147	678.930
247.103	20.410	892.496	679.569
248.117	20.698	892.469	680.613
249.132	20.894	892.167	681.093
250.147	21.148	891.647	681.628
251.161	21.154	891.405	681.405
252.176	21.341	890.425	681.323
253.190	21.261	890.039	680.654
254.205	21.165	889.339	679.688
255.220	21.140	888.187	678.650
256.234	21.048	887.484	677.694
257.249	20.985	887.494	677.398
258.263	20.931	886.448	676.331
259.278	21.164	885.587	676.515
260.293	21.151	885.496	676.336
261.307	21.329	884.929	676.531
262.322	21.224	884.296	675.583
263.336	21.302	883.256	675.028
264.351	21.168	882.780	674.087
265.366	21.341	882.151	674.217
266.380	21.200	881.476	673.098
267.395	21.055	880.862	672.009
268.409	21.172	879.810	671.600
269.424	20.978	879.362	670.452
270.439	20.919	878.425	669.449
271.453	20.879	877.851	668.800
272.468	20.704	877.081	667.484
273.482	20.747	876.973	667.508
274.497	20.902	876.172	667.431
275.512	20.924	875.201	666.716
276.526	20.902	875.223	666.592
277.541	21.092	874.515	666.717
278.555	21.284	874.453	667.347
279.570	21.535	873.535	667.543
280.585	21.442	872.634	666.440
281.599	21.193	871.979	664.932
282.614	21.063	871.069	663.687
283.628	20.890	870.827	662.785
284.643	20.922	870.295	662.443
285.657	20.929	869.501	661.808
286.672	21.029	868.766	661.568
287.687	21.003	868.233	661.006
288.701	21.100	867.536	660.785
289.716	21.206	867.159	660.840
290.730	21.247	866.196	660.203
291.745	21.176	866.009	659.731
292.760	21.299	865.658	659.874
293.774	21.404	865.308	659.945
294.789	21.342	864.654	659.153
295.803	21.230	863.409	657.722
296.818	20.994	862.961	656.434
297.833	21.156	862.075	656.313
298.847	21.083	861.471	655.520
299.862	21.220	861.088	655.684
300.876	21.481	860.503	656.161
301.891	21.341	860.663	655.700
302.906	21.598	860.112	656.187
303.920	21.861	859.413	656.578
304.935	21.794	859.049	655.992
305.949	21.647	858.078	654.644
306.964	21.387	857.844	653.436
307.979	21.494	857.192	653.281
308.993	21.544	856.631	652.981
310.008	21.702	855.778	652.860
311.022	21.569	855.191	651.861
312.037	21.510	854.368	650.956
313.052	21.128	853.587	648.882
314.066	21.107	852.914	648.236
315.081	21.018	852.389	647.448
316.095	20.955	851.985	646.854
317.110	21.154	851.484	647.153
318.125	21.119	850.895	646.517
319.139	21.158	850.235	646.104
320.154	21.023	850.202	645.523
321.168	21.017	849.833	645.164
322.183	21.142	849.221	645.101
323.197	21.144	848.673	644.635
324.212	21.266	848.006	644.521
325.227	21.198	847.501	643.832
326.241	21.018	846.859	642.624
327.256	21.272	845.845	642.730
328.270	21.125	845.599	641.948
329.285	21.136	844.733	641.275
330.300	21.192	844.238	641.046
331.314	21.321	843.804	641.135
332.329	21.529	843.522	641.625
333.343	21.549	843.318	641.486
334.358	21.625	842.370	640.988
335.373	21.638	842.197	640.847
336.387	21.617	842.241	640.746
337.402	21.697	842.047	640.836
338.416	21.805	842.047	641.171
339.431	21.993	841.451	641.348
340.446	22.148	840.868	641.415
341.460	22.038	840.559	640.721
342.475	22.202	840.533	641.241
343.489	22.207	840.206	640.954
344.504	22.328	840.075	641.236
345.519	22.361	839.368	640.762
346.533	22.198	838.139	639.173
347.548	21.928	837.720	637.816
348.562	21.655	836.831	636.092
349.577	21.732	835.615	635.393
350.592	21.532	835.838	634.779
351.606	21.470	834.566	633.532
352.621	21.521	834.437	633.564
353.635	21.723	833.464	633.498
354.650	21.649	833.106	632.904
355.665	21.807	832.042	632.610
356.679	21.891	831.940	632.779
357.694	21.929	831.614	632.613
358.708	21.737	830.700	631.168
359.723	21.825	830.185	631.039
360.738	21.831	829.544	630.515
361.752	22.098	828.827	630.875
362.767	22.277	828.321	631.075
363.781	22.312	828.121	630.993
364.796	22.609	827.888	631.823
365.810	22.451	827.620	630.999
366.825	22.419	827.666	630.862
367.840	22.419	826.564	629.968
368.854	22.424	825.688	629.262
369.869	22.257	825.626	628.562
370.883	22.266	824.807	627.916
371.898	22.406	824.983	628.493
372.913	22.452	824.611	628.319
373.927	22.355	823.480	627.057
374.942	22.467	823.473	627.392
375.956	22.584	823.225	627.566
376.971	22.860	822.416	627.874
377.986	22.854	822.026	627.499
379.000	22.795	821.806	627.067
380.015	22.622	821.167	625.908
381.029	22.769	820.424	625.809
382.044	22.581	820.013	624.773
383.059	22.678	819.427	624.615
384.073	22.497	818.901	623.520
385.088	22.170	818.237	621.800
386.102	22.182	817.211	621.011
387.117	22.271	816.314	620.587
388.132	22.206	816.080	620.126
389.146	22.417	815.432	620.322
390.161	22.409	815.536	620.317
391.175	22.548	815.009	620.350
392.190	22.493	813.742	619.137
393.205	22.493	813.058	618.563
394.219	22.344	813.176	618.075
395.234	22.239	812.581	617.199
396.248	22.151	811.922	616.336
397.263	21.910	811.860	615.389
398.278	21.902	811.132	614.753
399.292	21.997	810.456	614.519
400.307	21.846	810.534	613.998
401.321	21.974	810.250	614.174
402.336	22.261	809.396	614.478
403.350	22.285	809.270	614.409
404.365	22.571	808.961	615.120
405.380	22.927	808.467	615.929
406.394	22.923	807.936	615.456
407.409	22.900	807.826	615.241
408.423	22.986	807.724	615.406
409.438	23.047	807.246	615.199
410.453	23.067	807.046	615.064
411.467	23.206	806.336	614.952
412.482	23.172	806.076	614.579
413.496	23.243	805.679	614.470
414.511	23.203	805.038	613.787
415.526	23.005	804.645	612.748
416.540	23.224	803.654	612.695
417.555	23.087	803.777	612.261
418.569	23.007	803.328	611.587
419.584	23.119	802.314	611.149
420.599	23.140	802.169	611.056
421.613	165.463	1372.252	1799.799
422.628	143.853	1455.300	1799.870
