DTS Sentinel unit serial number:	SN413079Multiplexer serial number:	ORYXHardware model number:	OX4-SRSoftware version number:	ORYX F/W v4.00 Oryx Data Collector v3.7.2.0data status	okinstallation	princeton_trtdifferential loss correction	single-endedforward channel	channel 1reverse channel	N/Adate	2019/09/11time	04:56:11forward acquisition time	60.00reverse acquisition time	0.00gamma	496.2192k internal	0.2331k external	0.2331temperature offset calibration	0.9925default loss term (dB/km)	0.3790temperature slope calibration	1.0000multiplexer offset coefficient	1.0000multiplexer slope coefficient	1.0000fibre end	0.00T internal ref (°C)	29.50T ext. ref 1 (°C)	-0.28T ext. ref 2 (°C)	23.31length (m)	temperature (°C)	Stokes	anti-Stokes-747.200	80.102	0.105	0.114
-746.185	482.748	0.037	0.084
-745.171	-81.873	-0.344	-0.113
-744.156	22.941	-0.089	-0.074
-743.142	247.821	-0.061	0.103
-742.127	-66.575	-0.108	-0.043
-741.112	145.572	-0.119	0.161
-740.098	216.832	0.177	0.283
-739.083	-200.000	-0.008	-0.098
-738.069	-93.753	-0.280	0.078
-737.054	-200.000	0.050	0.225
-736.039	-1.144	-0.149	0.106
-735.025	-20.065	-0.168	-0.105
-734.010	-21.173	-0.127	-0.078
-732.996	-200.000	0.008	-0.346
-731.981	-40.854	0.129	-0.067
-730.966	-200.000	0.013	0.124
-729.952	6.291	-0.237	-0.177
-728.937	150.813	-0.203	0.277
-727.923	367.737	-0.065	-0.133
-726.908	12.760	0.184	0.143
-725.894	329.963	-0.127	0.246
-724.879	-0.081	-0.404	-0.289
-723.864	-102.814	-0.184	-0.044
-722.850	454.154	-0.106	0.236
-721.835	-200.000	-0.061	0.407
-720.821	800.000	0.060	-0.241
-719.806	36.213	-0.045	0.040
-718.791	-132.945	0.294	-0.038
-717.777	-75.303	-0.157	0.056
-716.762	322.554	0.040	-0.076
-715.748	-39.581	-0.094	-0.050
-714.733	-173.922	0.268	-0.008
-713.718	-109.281	-0.148	0.032
-712.704	481.217	-0.133	0.302
-711.689	-168.796	-0.240	-0.009
-710.675	-43.945	0.209	0.106
-709.660	-200.000	-0.005	0.220
-708.645	-15.201	-0.205	0.132
-707.631	277.793	-0.134	-0.241
-706.616	216.353	-0.070	0.112
-705.602	-200.000	0.015	-0.157
-704.587	266.887	0.189	0.332
-703.572	-200.000	0.031	-0.204
-702.558	36.093	-0.310	-0.274
-701.543	-200.000	0.143	0.000
-700.529	-200.000	0.012	0.180
-699.514	-130.879	0.154	-0.021
-698.499	-5.918	-0.311	-0.214
-697.485	800.000	-0.086	-0.270
-696.470	-200.000	-0.153	0.000
-695.456	-114.853	-0.252	0.048
-694.441	-11.439	0.224	0.148
-693.426	800.000	-0.040	-0.119
-692.412	69.244	-0.174	0.180
-691.397	-28.888	-0.136	-0.079
-690.383	-16.650	-0.226	-0.144
-689.368	-200.000	0.016	-0.129
-688.354	-116.155	0.312	0.058
-687.339	-6.657	-0.130	0.089
-686.324	-22.259	0.120	-0.073
-685.310	32.235	-0.133	-0.115
-684.295	800.000	-0.129	-0.467
-683.281	-200.000	0.007	-0.045
-682.266	69.652	-0.180	-0.186
-681.251	-124.315	-0.247	0.039
-680.237	-26.712	-0.355	0.209
-679.222	279.107	0.059	0.105
-678.208	-131.619	0.087	-0.012
-677.193	186.665	0.055	-0.083
-676.178	30.386	0.201	-0.172
-675.164	44.506	-0.059	-0.054
-674.149	-200.000	-0.007	0.111
-673.135	29.183	-0.098	0.083
-672.120	615.698	0.031	-0.078
-671.105	4.357	-0.113	0.083
-670.091	77.352	-0.114	0.122
-669.076	283.742	-0.107	0.193
-668.062	307.270	-0.138	-0.259
-667.047	176.468	0.034	-0.049
-666.032	396.449	0.159	0.332
-665.018	555.472	0.132	0.320
-664.003	-63.966	-0.398	-0.163
-662.989	84.848	0.115	-0.126
-661.974	800.000	-0.059	0.232
-660.959	10.552	0.175	0.134
-659.945	800.000	0.118	0.397
-658.930	155.153	0.148	0.204
-657.916	-32.816	-0.229	0.128
-656.901	-78.935	0.200	0.068
-655.886	125.934	-0.128	-0.162
-654.872	26.026	0.086	-0.072
-653.857	27.860	0.217	0.184
-652.843	-200.000	0.000	-0.313
-651.828	82.047	-0.226	-0.245
-650.814	217.875	0.145	-0.231
-649.799	-125.439	0.262	-0.040
-648.784	63.735	0.179	-0.180
-647.770	83.133	-0.176	0.192
-646.755	-200.000	-0.003	0.187
-645.741	-72.278	-0.174	-0.065
-644.726	-200.000	0.041	0.243
-643.711	800.000	0.055	-0.200
-642.697	238.962	-0.078	-0.130
-641.682	127.189	0.219	-0.279
-640.668	-76.895	0.439	-0.154
-639.653	-109.375	-0.387	0.082
-638.638	-200.000	-0.021	-0.407
-637.624	140.401	0.087	0.115
-636.609	10.056	-0.040	-0.031
-635.595	-67.708	-0.200	-0.078
-634.580	-200.000	-0.050	0.227
-633.565	87.077	0.215	0.239
-632.551	-200.000	-0.026	0.174
-631.536	-116.322	-0.109	-0.020
-630.522	-200.000	-0.110	0.584
-629.507	107.552	-0.204	0.243
-628.492	58.735	-0.084	-0.082
-627.478	-47.724	0.125	-0.061
-626.463	-15.339	-0.269	-0.172
-625.449	707.526	-0.215	-0.568
-624.434	329.185	0.186	-0.358
-623.419	-112.881	0.259	0.051
-622.405	-160.512	0.439	-0.024
-621.390	254.108	0.024	0.041
-620.376	-200.000	-0.001	0.097
-619.361	483.382	0.080	0.182
-618.346	800.000	-0.066	-0.270
-617.332	800.000	-0.042	-0.120
-616.317	-71.005	-0.211	-0.080
-615.303	-31.052	0.264	0.149
-614.288	-83.547	0.150	0.048
-613.273	-200.000	-0.015	0.171
-612.259	129.297	-0.049	0.063
-611.244	800.000	0.108	0.301
-610.230	-119.898	-0.155	-0.027
-609.215	-156.957	-0.265	0.016
-608.201	21.835	0.249	0.203
-607.186	-128.561	-0.142	0.020
-606.171	297.643	0.152	-0.280
-605.157	15.086	-0.088	-0.069
-604.142	107.133	0.229	0.273
-603.128	-59.266	0.066	-0.028
-602.113	272.083	0.071	-0.125
-601.098	-104.148	-0.238	-0.055
-600.084	226.209	0.056	-0.091
-599.069	-91.879	-0.015	-0.004
-598.055	239.317	-0.141	0.235
-597.040	113.414	-0.035	-0.043
-596.025	-60.186	-0.325	0.139
-595.011	800.000	0.068	0.207
-593.996	-50.211	-0.194	-0.092
-592.982	-38.694	-0.205	-0.108
-591.967	115.747	0.177	0.216
-590.952	-200.000	0.017	0.188
-589.938	-71.530	0.132	0.049
-588.923	-200.000	-0.042	0.281
-587.909	800.000	0.090	0.319
-586.894	391.676	-0.088	-0.182
-585.879	315.159	-0.080	0.150
-584.865	272.102	0.088	-0.156
-583.850	-200.000	0.012	0.093
-582.836	-91.003	0.207	-0.059
-581.821	74.561	-0.092	-0.097
-580.806	-9.960	0.131	-0.087
-579.792	-37.675	0.301	0.160
-578.777	-0.973	0.060	-0.042
-577.763	-200.000	0.077	-0.366
-576.748	-47.232	0.276	0.135
-575.733	37.225	0.164	-0.145
-574.719	193.999	-0.054	0.082
-573.704	11.158	0.261	0.199
-572.690	85.595	0.051	0.055
-571.675	128.836	-0.072	0.091
-570.661	-178.468	-0.477	0.011
-569.646	130.816	-0.349	-0.447
-568.631	142.898	0.102	0.135
-567.617	-200.000	0.020	0.193
-566.602	689.695	-0.048	-0.125
-565.588	-200.000	0.017	-0.118
-564.573	800.000	-0.040	0.134
-563.558	-46.444	0.183	0.090
-562.544	-97.369	0.226	-0.059
-561.529	719.188	0.056	0.149
-560.515	-200.000	0.007	0.196
-559.500	-30.765	0.163	-0.092
-558.485	-5.554	-0.220	-0.151
-557.471	215.703	0.111	0.175
-556.456	136.502	-0.174	0.227
-555.442	-145.029	-0.162	-0.015
-554.427	-32.702	-0.187	-0.104
-553.412	167.149	-0.242	-0.343
-552.398	-66.671	-0.424	-0.168
-551.383	58.390	0.157	-0.154
-550.369	-109.666	0.249	-0.052
-549.354	188.858	0.072	-0.107
-548.339	333.468	0.062	-0.119
-547.325	-86.293	0.164	-0.051
-546.310	-200.000	0.003	-0.100
-545.296	-150.093	-0.440	0.034
-544.281	-200.000	-0.021	-0.163
-543.266	130.663	-0.027	-0.035
-542.252	115.875	-0.108	-0.132
-541.237	12.980	0.115	-0.088
-540.223	297.908	-0.020	-0.037
-539.208	-67.540	0.373	-0.146
-538.193	-1.134	0.300	-0.212
-537.179	35.811	-0.275	0.241
-536.164	-44.153	0.419	0.210
-535.150	744.396	-0.019	-0.051
-534.135	-193.649	-0.201	0.002
-533.121	-72.275	-0.398	0.147
-532.106	-16.455	0.237	-0.150
-531.091	800.000	0.070	-0.248
-530.077	577.648	-0.097	0.238
-529.062	800.000	0.132	-0.521
-528.048	406.737	0.106	-0.223
-527.033	60.362	-0.358	0.354
-526.018	36.552	0.074	0.065
-525.004	800.000	0.117	0.341
-523.989	-200.000	0.012	0.083
-522.975	5.914	0.079	-0.059
-521.960	276.570	-0.064	-0.114
-520.945	-200.000	0.050	0.252
-519.931	144.248	-0.072	-0.096
-518.916	-32.038	0.129	0.072
-517.902	-200.000	-0.001	0.102
-516.887	-116.778	-0.275	-0.050
-515.872	-121.236	-0.128	-0.021
-514.858	677.206	0.080	0.208
-513.843	504.916	-0.061	-0.142
-512.829	-55.261	-0.201	0.090
-511.814	-94.629	0.135	0.037
-510.799	76.643	-0.271	-0.287
-509.785	5.883	-0.027	0.020
-508.770	-200.000	0.024	-0.287
-507.756	-200.000	0.013	-0.166
-506.741	-18.501	0.456	-0.284
-505.726	540.105	-0.117	-0.278
-504.712	43.802	-0.125	0.114
-503.697	-31.975	-0.104	-0.058
-502.683	-15.372	-0.250	0.159
-501.668	30.208	0.264	-0.225
-500.653	-56.863	0.119	-0.052
-499.639	-5.292	0.069	-0.047
-498.624	-63.328	-0.222	-0.091
-497.610	177.802	-0.185	0.268
-496.595	-154.221	0.152	0.010
-495.581	-86.180	-0.212	0.065
-494.566	181.503	0.022	-0.032
-493.551	54.569	-0.088	-0.085
-492.537	-137.917	0.375	0.042
-491.522	-59.000	0.103	-0.044
-490.508	134.726	-0.082	-0.106
-489.493	-200.000	-0.005	-0.026
-488.478	-49.616	0.314	-0.149
-487.464	39.927	-0.127	0.114
-486.449	-161.878	-0.471	-0.024
-485.435	-127.212	0.065	0.009
-484.420	-200.000	-0.039	0.262
-483.405	800.000	0.034	0.096
-482.391	-200.000	0.005	0.149
-481.376	272.756	0.024	-0.042
-480.362	-132.655	0.137	0.017
-479.347	416.157	0.037	-0.080
-478.332	-185.465	0.223	0.003
-477.318	-200.000	-0.009	0.125
-476.303	-47.771	-0.153	-0.074
-475.289	87.316	-0.120	-0.132
-474.274	-200.000	0.007	0.039
-473.259	800.000	-0.077	-0.302
-472.245	655.483	-0.143	-0.364
-471.230	-106.879	0.302	-0.067
-470.216	-174.371	0.244	-0.007
-469.201	116.357	0.182	0.222
-468.186	51.819	0.172	0.163
-467.172	-200.000	-0.043	0.275
-466.157	-105.323	0.334	-0.076
-465.143	18.942	-0.127	0.102
-464.128	491.569	-0.122	0.277
-463.113	516.805	-0.090	0.210
-462.099	-54.405	0.095	0.043
-461.084	-4.037	0.093	0.064
-460.070	-46.209	-0.055	0.027
-459.055	99.888	-0.275	-0.317
-458.040	-200.000	-0.013	0.097
-457.026	-73.348	-0.232	0.084
-456.011	-100.603	0.183	-0.045
-454.997	-200.000	-0.042	-0.265
-453.982	-200.000	0.036	-0.274
-452.968	571.100	0.219	-0.530
-451.953	-18.038	-0.167	-0.104
-450.938	259.727	-0.134	-0.230
-449.924	-34.909	0.067	0.036
-448.909	0.838	0.046	0.033
-447.895	800.000	0.087	-0.268
-446.880	45.812	0.256	-0.236
-445.865	100.120	0.122	0.141
-444.851	146.296	-0.116	0.155
-443.836	-187.529	0.177	0.002
-442.822	66.105	-0.186	0.188
-441.807	12.633	-0.198	0.152
-440.792	-11.846	0.151	0.098
-439.778	-114.697	-0.230	0.044
-438.763	212.741	0.162	0.255
-437.749	800.000	0.139	-0.383
-436.734	218.236	0.053	-0.084
-435.719	523.315	0.016	-0.037
-434.705	800.000	0.049	0.181
-433.690	767.898	0.081	0.220
-432.676	57.777	-0.217	0.211
-431.661	-48.359	-0.364	-0.174
-430.646	75.058	-0.237	-0.248
-429.632	-68.423	0.127	0.049
-428.617	-200.000	-0.046	-0.233
-427.603	-122.141	0.265	-0.043
-426.588	101.864	-0.029	-0.034
-425.573	-200.000	-0.030	0.290
-424.559	15.603	-0.171	0.134
-423.544	-111.961	0.092	-0.018
-422.530	62.229	0.133	0.132
-421.515	318.145	0.063	-0.118
-420.500	-81.483	0.128	0.042
-419.486	-42.739	0.292	0.148
-418.471	-37.074	0.192	0.102
-417.457	68.509	0.095	0.097
-416.442	-45.762	0.124	-0.061
-415.428	64.526	-0.236	-0.236
-414.413	-200.000	0.004	-0.138
-413.398	-200.000	-0.097	0.000
-412.384	-24.602	0.066	-0.039
-411.369	-200.000	-0.005	-0.152
-410.355	-200.000	-0.214	-0.001
-409.340	-35.257	-0.234	0.126
-408.325	-200.000	0.043	-0.246
-407.311	-14.202	-0.244	-0.156
-406.296	-15.711	0.093	-0.059
-405.282	476.476	-0.065	-0.146
-404.267	-60.632	-0.287	0.121
-403.252	-200.000	0.015	-0.100
-402.238	-168.684	-0.022	-0.001
-401.223	29.418	-0.098	0.083
-400.209	-31.791	0.147	0.082
-399.194	65.213	-0.351	0.352
-398.179	176.002	0.127	-0.184
-397.165	-200.000	0.054	0.233
-396.150	-88.462	0.177	-0.052
-395.136	192.643	0.056	0.084
-394.121	-44.900	0.207	-0.102
-393.106	-102.635	0.132	0.031
-392.092	-101.034	0.107	-0.026
-391.077	61.677	0.241	-0.238
-390.063	45.817	-0.253	-0.233
-389.048	528.962	-0.046	-0.109
-388.033	-200.000	0.053	-0.310
-387.019	-69.193	0.173	0.066
-386.004	508.770	0.106	-0.245
-384.990	-47.995	-0.139	-0.067
-383.975	-4.865	-0.117	-0.080
-382.960	-41.820	0.139	-0.071
-381.946	-58.757	-0.125	-0.054
-380.931	-200.000	0.004	-0.236
-379.917	-200.000	-0.088	0.422
-378.902	800.000	-0.067	-0.205
-377.888	800.000	-0.067	0.272
-376.873	800.000	0.027	0.097
-375.858	-138.006	-0.516	0.057
-374.844	800.000	-0.100	0.365
-373.829	775.235	0.041	-0.112
-372.815	800.000	0.108	-0.390
-371.800	226.060	0.127	-0.204
-370.785	-64.844	0.011	-0.004
-369.771	464.676	-0.086	0.192
-368.756	255.606	0.192	-0.327
-367.742	108.824	-0.044	0.052
-366.727	-72.925	-0.201	0.073
-365.712	-120.049	0.173	-0.029
-364.698	-33.362	0.213	0.117
-363.683	-148.964	0.259	0.021
-362.669	-47.293	0.010	-0.005
-361.654	-55.715	-0.060	0.027
-360.639	-80.255	0.319	-0.106
-359.625	69.825	-0.260	-0.266
-358.610	-134.456	-0.076	0.009
-357.596	800.000	-0.034	-0.142
-356.581	800.000	-0.075	-0.242
-355.566	-200.000	0.006	-0.250
-354.552	-2.126	0.112	-0.078
-353.537	-192.497	0.458	0.004
-352.523	-200.000	0.218	0.001
-351.508	-138.999	-0.480	0.052
-350.493	713.724	0.101	0.266
-349.479	-200.000	0.011	0.299
-348.464	125.285	0.169	-0.212
-347.450	-79.383	0.111	-0.037
-346.435	-200.000	-0.060	-0.299
-345.420	-190.458	0.338	-0.004
-344.406	364.401	-0.164	0.326
-343.391	5.982	-0.077	-0.056
-342.377	2.907	-0.136	-0.098
-341.362	249.933	0.239	0.402
-340.348	-93.249	-0.217	-0.060
-339.333	584.560	-0.057	0.140
-338.318	-165.351	0.377	-0.016
-337.304	-200.000	0.020	0.352
-336.289	332.063	-0.198	-0.378
-335.275	-64.373	0.324	-0.130
-334.260	-200.000	0.012	0.206
-333.245	42.314	0.323	-0.291
-332.231	153.611	0.073	0.100
-331.216	-13.072	0.125	0.080
-330.202	125.107	-0.216	-0.269
-329.187	322.465	-0.052	-0.099
-328.172	198.009	0.164	0.249
-327.158	238.808	0.105	-0.174
-326.143	-200.000	0.014	0.291
-325.129	800.000	-0.052	0.182
-324.114	60.876	-0.069	0.067
-323.099	800.000	0.041	0.137
-322.085	-103.137	-0.452	0.106
-321.070	-200.000	0.060	-0.303
-320.056	-143.705	-0.289	0.027
-319.041	-172.698	0.122	0.004
-318.026	306.149	-0.138	0.254
-317.012	-82.877	-0.120	-0.038
-315.997	-20.223	-0.069	0.042
-314.983	-26.676	-0.125	-0.072
-313.968	698.196	-0.043	-0.112
-312.953	64.690	0.043	0.043
-311.939	-88.443	-0.277	0.082
-310.924	479.139	-0.225	0.504
-309.910	60.175	0.123	0.120
-308.895	-135.196	-0.326	0.039
-307.880	-107.021	-0.245	-0.054
-306.866	87.720	-0.247	0.271
-305.851	121.151	0.232	-0.286
-304.837	-82.849	-0.159	-0.051
-303.822	-18.279	-0.143	-0.088
-302.807	319.932	0.106	0.199
-301.793	22.406	-0.204	0.165
-300.778	-115.546	-0.384	0.071
-299.764	-65.040	0.311	0.124
-298.749	-200.000	0.041	-0.231
-297.735	-34.943	-0.158	-0.085
-296.720	-200.000	-0.008	-0.236
-295.705	382.684	-0.189	-0.384
-294.691	93.132	0.158	0.177
-293.676	8.170	-0.233	-0.173
-292.662	-200.000	0.051	-0.267
-291.647	-94.400	0.051	-0.014
-290.632	-81.344	-0.142	0.046
-289.618	-37.262	0.338	0.179
-288.603	-53.213	0.249	0.113
-287.589	800.000	0.052	0.147
-286.574	80.008	0.158	0.168
-285.559	41.078	0.306	0.273
-284.545	651.101	-0.105	0.266
-283.530	-68.023	-0.176	0.068
-282.516	208.856	0.046	0.071
-281.501	-11.650	0.093	-0.061
-280.486	649.880	0.101	0.254
-279.472	800.000	-0.014	-0.055
-278.457	23.738	-0.300	-0.244
-277.443	800.000	0.032	-0.129
-276.428	21.817	0.251	-0.202
-275.413	800.000	0.044	0.177
-274.399	7.518	0.157	0.116
-273.384	571.367	-0.062	-0.148
-272.370	800.000	-0.067	-0.227
-271.355	-200.000	0.067	0.305
-270.340	-25.249	-0.172	0.101
-269.326	251.308	-0.188	0.316
-268.311	-142.082	-0.319	-0.031
-267.297	-119.103	0.193	0.033
-266.282	-193.096	0.161	0.001
-265.267	522.622	-0.225	0.522
-264.253	408.628	0.053	-0.112
-263.238	800.000	-0.038	-0.126
-262.224	-75.758	-0.362	0.127
-261.209	-200.000	0.009	0.096
-260.195	63.713	0.154	-0.153
-259.180	-179.693	0.137	0.003
-258.165	22.458	-0.101	0.081
-257.151	-29.786	-0.203	0.114
-256.136	-33.148	0.340	0.186
-255.122	32.735	-0.081	0.069
-254.107	58.183	0.157	0.152
-253.092	-18.754	0.168	-0.103
-252.078	25.321	-0.276	0.226
-251.063	89.180	-0.196	-0.215
-250.049	52.697	-0.074	-0.070
-249.034	-33.375	0.046	0.025
-248.019	-51.383	0.353	0.163
-247.005	-200.000	-0.147	-0.000
-245.990	-200.000	-0.025	0.191
-244.976	272.465	0.059	-0.103
-243.961	-0.550	0.217	0.152
-242.946	800.000	-0.036	-0.115
-241.932	-120.514	0.371	0.062
-240.917	-97.421	0.295	0.076
-239.903	-30.643	-0.134	0.075
-238.888	78.785	-0.122	0.129
-237.873	-14.831	-0.150	-0.095
-236.859	-200.000	0.042	0.328
-235.844	800.000	0.064	0.201
-234.830	-79.872	-0.104	-0.034
-233.815	-113.071	0.229	0.044
-232.800	-74.719	0.100	-0.036
-231.786	198.738	-0.100	0.150
-230.771	-200.000	-0.024	-0.111
-229.757	800.000	-0.088	-0.259
-228.742	-200.000	-0.006	0.047
-227.727	272.435	-0.073	-0.127
-226.713	135.039	-0.144	-0.185
-225.698	12.453	0.209	-0.159
-224.684	-27.028	-0.080	0.046
-223.669	154.191	0.090	0.122
-222.655	323.169	-0.122	-0.230
-221.640	-200.000	-0.030	-0.345
-220.625	69.510	0.122	-0.123
-219.611	-158.265	-0.200	-0.012
-218.596	-200.000	0.003	0.100
-217.582	493.648	-0.085	0.192
-216.567	800.000	0.026	0.104
-215.552	-125.106	-0.270	-0.041
-214.538	-200.000	-0.020	-0.129
-213.523	-103.263	0.172	-0.040
-212.509	191.471	-0.193	-0.286
-211.494	-50.682	-0.157	-0.073
-210.479	-200.000	0.012	-0.163
-209.465	399.759	-0.015	-0.031
-208.450	152.032	0.151	-0.203
-207.436	43.770	0.198	-0.179
-206.421	-109.531	-0.070	-0.015
-205.406	-43.306	-0.227	0.113
-204.392	103.722	0.010	0.012
-203.377	800.000	0.068	-0.194
-202.363	-200.000	0.035	0.449
-201.348	-103.323	0.067	0.016
-200.333	-5.097	-0.099	-0.067
-199.319	469.019	0.078	0.173
-198.304	-163.335	-0.196	-0.009
-197.290	314.168	0.100	-0.186
-196.275	-29.784	0.305	-0.171
-195.260	-141.790	-0.023	-0.002
-194.246	-11.061	-0.193	0.126
-193.231	-200.000	0.065	-0.311
-192.217	-29.039	0.343	0.194
-191.202	-163.611	0.209	-0.010
-190.187	-102.475	-0.122	-0.029
-189.173	156.917	-0.196	0.266
-188.158	800.000	-0.023	0.088
-187.144	-200.000	-0.005	0.118
-186.129	800.000	-0.095	0.271
-185.114	-200.000	-0.043	0.310
-184.100	-87.858	0.302	0.089
-183.085	-30.181	-0.041	0.023
-182.071	800.000	0.108	-0.395
-181.056	800.000	0.088	-0.245
-180.042	-109.393	-0.267	0.056
-179.027	-145.735	0.214	-0.019
-178.012	-86.687	0.159	-0.048
-176.998	-68.672	-0.223	0.085
-175.983	800.000	0.041	-0.139
-174.969	800.000	0.112	0.336
-173.954	-96.536	-0.487	0.126
-172.939	-158.847	0.285	0.016
-171.925	-87.503	0.041	-0.012
-170.910	238.927	0.232	0.379
-169.896	-200.000	0.035	0.188
-168.881	-200.000	-0.017	-0.292
-167.866	800.000	0.035	-0.110
-166.852	-2.562	0.285	0.196
-165.837	-37.861	-0.149	0.078
-164.823	-144.702	0.052	0.005
-163.808	-151.211	-0.094	0.007
-162.793	-112.491	-0.168	-0.033
-161.779	-84.956	0.145	0.045
-160.764	448.462	0.127	-0.275
-159.750	-55.557	0.184	-0.081
-158.735	139.697	-0.170	0.220
-157.720	129.664	-0.173	0.218
-156.706	-54.607	-0.251	0.111
-155.691	-154.385	-0.014	-0.001
-154.677	-119.906	-0.135	-0.023
-153.662	-122.280	-0.471	0.076
-152.647	261.258	-0.139	-0.236
-151.633	-114.605	0.214	0.040
-150.618	-200.000	-0.058	-0.426
-149.604	148.642	-0.160	-0.212
-148.589	2.460	0.238	0.169
-147.574	19.262	-0.090	-0.071
-146.560	800.000	-0.047	-0.162
-145.545	-131.746	-0.159	0.020
-144.531	-8.560	0.028	-0.019
-143.516	-200.000	0.006	0.037
-142.502	-200.000	-0.047	0.334
-141.487	-86.821	-0.069	0.021
-140.472	-122.395	0.259	0.042
-139.458	77.675	-0.244	0.255
-138.443	-154.677	0.165	0.011
-137.429	-116.274	0.046	0.008
-136.414	-200.000	0.023	0.136
-135.399	93.499	-0.139	-0.155
-134.385	-191.033	0.240	-0.002
-133.370	-142.100	-0.218	-0.021
-132.356	-200.000	0.004	0.095
-131.341	-200.000	-0.040	0.272
-130.326	603.175	-0.009	0.021
-129.312	-23.999	0.036	-0.021
-128.297	-52.735	0.399	-0.181
-127.283	2.967	0.144	-0.103
-126.268	656.994	-0.065	0.165
-125.253	800.000	-0.069	-0.192
-124.239	-141.396	0.244	0.024
-123.224	-123.622	0.306	-0.048
-122.210	-162.847	0.132	0.006
-121.195	25.694	0.187	0.153
-120.180	56.232	-0.066	0.063
-119.166	247.821	-0.139	-0.231
-118.151	800.000	-0.039	-0.165
-117.137	-56.317	0.200	0.087
-116.122	-104.289	0.336	-0.076
-115.107	-156.985	0.232	0.014
-114.093	-28.954	-0.140	-0.079
-113.078	-200.000	-0.018	-0.143
-112.064	447.601	-0.121	-0.261
-111.049	-200.000	-0.004	0.087
-110.034	130.670	0.179	0.225
-109.020	33.477	0.197	0.168
-108.005	-84.072	-0.116	-0.036
-106.991	-200.000	0.029	-0.154
-105.976	-54.326	0.078	-0.035
-104.962	46.502	0.106	-0.096
-103.947	800.000	0.026	0.082
-102.932	-200.000	-0.020	-0.110
-101.918	-86.898	0.062	0.019
-100.903	9.300	0.329	-0.244
-99.889	-200.000	-0.040	0.213
-98.874	-9.426	0.120	0.078
-97.859	394.269	0.089	-0.182
-96.845	800.000	0.047	0.135
-95.830	680.500	0.069	0.175
-94.816	-54.947	-0.307	0.136
-93.801	-200.000	-0.007	-0.079
-92.786	527.155	-0.046	-0.106
-91.772	85.847	-0.082	0.089
-90.757	148.447	0.062	0.082
-89.743	186.555	-0.054	-0.079
-88.728	365.059	0.091	-0.180
-87.713	49.525	-0.096	-0.088
-86.699	-200.000	-0.006	-0.034
-85.684	-143.214	-0.240	0.023
-84.670	621.055	0.078	-0.191
-83.655	-16.761	-0.045	0.028
-82.640	22.029	0.262	-0.209
-81.626	-200.000	-0.046	-0.224
-80.611	-200.000	-0.009	-0.264
-79.597	74.061	-0.106	-0.109
-78.582	800.000	0.078	0.213
-77.567	-79.198	0.301	-0.100
-76.553	144.159	-0.151	0.197
-75.538	-145.752	0.208	0.018
-74.524	158.548	-0.080	-0.108
-73.509	-75.413	0.404	-0.141
-72.494	-200.000	0.016	-0.088
-71.480	-200.000	-0.042	0.183
-70.465	-24.438	0.298	-0.174
-69.451	370.745	0.030	0.060
-68.436	-2.147	0.430	-0.296
-67.422	-149.494	0.133	-0.010
-66.407	38.735	0.200	0.175
-65.392	-67.548	0.338	-0.130
-64.378	83.070	-0.154	0.164
-63.363	14.887	0.107	0.082
-62.349	118.310	-0.123	-0.148
-61.334	140.973	-0.649	-0.841
-60.319	56.187	0.480	0.457
-59.305	800.000	-0.263	-0.778
-58.290	297.774	0.752	1.353
-57.276	295.160	0.761	1.364
-56.261	-200.000	106.071	616.087
-55.246	509.122	1509.869	3436.282
-54.232	176.182	2703.268	3844.994
-53.217	111.704	2166.257	2560.618
-52.203	41.598	1599.179	1418.372
-51.188	33.083	1333.941	1132.334
-50.173	30.090	1291.901	1079.205
-49.159	54.513	1346.406	1270.589
-48.144	54.728	1362.322	1286.832
-47.130	33.237	1316.722	1118.451
-46.115	29.683	1298.827	1082.434
-45.100	29.632	1293.808	1077.913
-44.086	29.338	1291.938	1074.600
-43.071	29.353	1289.455	1072.574
-42.057	29.357	1287.243	1070.716
-41.042	29.432	1285.546	1069.698
-40.027	29.399	1284.269	1068.401
-39.013	29.361	1282.240	1066.452
-37.998	29.471	1280.422	1065.534
-36.984	29.497	1278.540	1064.075
-35.969	29.438	1277.091	1062.484
-34.954	29.546	1274.826	1061.182
-33.940	29.450	1274.636	1060.430
-32.925	29.589	1272.241	1059.189
-31.911	29.555	1271.035	1057.950
-30.896	29.628	1269.589	1057.125
-29.881	29.677	1268.300	1056.285
-28.867	29.696	1266.630	1054.962
-27.852	29.575	1265.296	1053.123
-26.838	29.699	1263.738	1052.489
-25.823	29.578	1263.300	1051.394
-24.809	29.566	1261.641	1049.905
-23.794	29.515	1260.260	1048.423
-22.779	29.534	1258.748	1047.231
-21.765	29.515	1257.967	1046.433
-20.750	29.520	1256.768	1045.422
-19.736	29.552	1255.037	1044.121
-18.721	29.469	1253.578	1042.398
-17.706	29.454	1252.624	1041.474
-16.692	29.471	1251.551	1040.638
-15.677	29.472	1250.489	1039.718
-14.663	29.475	1249.541	1038.905
-13.648	29.416	1248.633	1037.779
-12.633	29.458	1247.305	1036.869
-11.619	29.463	1246.543	1036.225
-10.604	29.449	1245.838	1035.517
-9.590	29.412	1245.004	1034.578
-8.575	29.491	1243.414	1033.656
-7.560	29.343	1242.898	1032.356
-6.546	29.448	1242.015	1032.170
-5.531	29.451	1241.402	1031.640
-4.517	29.347	1240.770	1030.492
-3.502	29.417	1240.031	1030.228
-2.487	29.459	1238.793	1029.390
-1.473	29.490	1234.286	1025.780
-0.458	28.021	1219.444	1005.328
0.556	22.104	1202.890	968.200
1.571	18.713	1208.139	953.534
2.586	17.890	1223.030	960.575
3.600	17.908	1211.804	951.776
4.615	13.462	1141.380	872.987
5.629	4.676	1067.053	772.587
6.644	0.118	1046.664	735.512
7.659	-0.294	1044.214	731.718
8.673	-0.442	1043.020	730.098
9.688	-0.480	1041.512	728.792
10.702	0.028	1040.531	730.509
11.717	6.053	1048.896	765.754
12.731	15.186	1061.473	819.737
13.746	19.516	1067.070	845.235
14.761	20.583	1068.417	851.457
15.775	20.743	1067.569	851.490
16.790	20.415	1066.913	849.286
17.804	20.421	1066.258	848.718
18.819	20.534	1065.957	848.955
19.834	20.551	1065.634	848.708
20.848	20.614	1065.026	848.455
21.863	20.668	1064.386	848.133
22.877	20.527	1063.975	847.043
23.892	20.502	1063.478	846.450
24.907	20.615	1062.355	846.030
25.921	20.541	1061.574	844.977
26.936	20.518	1060.218	843.708
27.950	20.495	1058.539	842.185
28.965	20.426	1056.212	839.925
29.980	20.441	1054.559	838.612
30.994	20.602	1054.016	838.882
32.009	20.773	1052.420	838.362
33.023	20.451	1051.387	835.916
34.038	20.411	1051.138	835.450
35.053	20.763	1049.739	835.953
36.067	20.636	1048.837	834.555
37.082	20.712	1048.080	834.243
38.096	20.913	1047.318	834.523
39.111	20.843	1047.150	833.981
40.126	20.669	1045.916	832.093
41.140	20.399	1044.093	829.278
42.155	20.222	1042.689	827.245
43.169	20.294	1041.510	826.581
44.184	20.340	1040.386	825.832
45.199	20.232	1039.350	824.426
46.213	20.273	1038.618	823.966
47.228	20.447	1037.672	823.970
48.242	20.525	1036.816	823.586
49.257	20.517	1036.250	823.027
50.271	20.734	1034.875	822.885
51.286	20.719	1034.207	822.212
52.301	20.701	1033.370	821.392
53.315	20.604	1032.483	820.155
54.330	20.559	1031.451	819.051
55.344	20.642	1030.499	818.613
56.359	20.510	1029.730	817.309
57.374	20.452	1028.539	816.019
58.388	20.434	1028.116	815.524
59.403	20.384	1027.418	814.665
60.417	20.291	1026.195	813.188
61.432	20.399	1025.469	813.046
62.447	20.511	1024.752	812.929
63.461	20.445	1024.498	812.349
64.476	20.493	1023.052	811.351
65.490	20.296	1022.109	809.617
66.505	20.460	1021.173	809.568
67.520	20.507	1020.631	809.286
68.534	20.131	1019.683	806.708
69.549	19.888	1018.414	804.505
70.563	20.052	1017.372	804.372
71.578	19.887	1017.147	803.357
72.593	19.829	1016.114	802.203
73.607	19.878	1015.720	802.049
74.622	20.147	1015.338	802.921
75.636	20.478	1014.048	803.363
76.651	20.150	1013.403	801.263
77.666	20.068	1012.554	800.144
78.680	20.142	1011.920	799.909
79.695	20.099	1011.476	799.291
80.709	20.388	1010.529	799.802
81.724	20.292	1010.004	798.877
82.739	20.334	1009.407	798.525
83.753	20.728	1008.153	799.271
84.768	20.771	1008.042	799.312
85.782	21.068	1006.485	799.367
86.797	20.713	1005.763	797.096
87.812	20.720	1004.408	795.984
88.826	20.818	1003.603	795.726
89.841	20.799	1003.024	795.108
90.855	20.834	1002.022	794.405
91.870	20.851	1000.605	793.285
92.884	20.698	999.853	791.926
93.899	20.598	999.103	790.804
94.914	20.865	997.824	790.935
95.928	20.697	996.628	789.156
96.943	20.490	995.888	787.564
97.957	20.229	994.174	784.958
98.972	20.049	993.530	783.562
99.987	20.349	992.952	784.396
101.001	20.511	992.145	784.420
102.016	20.634	990.941	783.954
103.030	20.320	990.439	782.071
104.045	20.293	989.307	780.986
105.060	20.230	988.209	779.766
106.074	20.355	987.668	779.835
107.089	20.699	987.285	781.005
108.103	20.623	985.899	779.499
109.118	20.499	984.928	778.110
110.133	20.414	983.737	776.718
111.147	20.129	982.366	774.294
112.162	19.986	982.054	773.342
113.176	20.315	980.682	773.661
114.191	20.371	980.381	773.602
115.206	19.928	978.898	770.393
116.220	20.039	978.199	770.266
117.235	20.229	977.062	770.148
118.249	20.122	976.447	769.120
119.264	20.018	975.708	768.008
120.279	20.056	974.789	767.387
121.293	20.131	974.343	767.301
122.308	20.151	973.351	766.540
123.322	20.128	971.652	765.031
124.337	19.990	970.607	763.533
125.352	19.515	968.945	760.068
126.366	19.367	968.283	758.829
127.381	20.083	968.382	761.990
128.395	20.565	967.303	763.189
129.410	20.638	965.997	762.413
130.424	20.617	965.190	761.616
131.439	20.610	964.037	760.607
132.454	20.587	963.408	759.941
133.468	20.471	962.715	758.825
134.483	20.656	961.824	758.860
135.497	20.787	961.310	758.959
136.512	20.872	960.413	758.554
137.527	20.857	959.233	757.489
138.541	20.836	958.788	756.979
139.556	20.802	958.078	756.203
140.570	20.878	957.135	755.724
141.585	20.746	955.969	754.164
142.600	20.760	954.460	752.968
143.614	20.865	954.753	753.585
144.629	21.144	953.474	753.715
145.643	20.907	951.903	751.386
146.658	20.757	950.733	749.749
147.673	20.637	949.907	748.513
148.687	20.641	948.774	747.574
149.702	20.653	947.597	746.630
150.716	20.645	946.634	745.773
151.731	20.758	946.321	745.944
152.746	21.072	945.661	746.699
153.760	21.003	945.107	745.901
154.775	21.060	944.517	745.616
155.789	20.894	943.712	744.202
156.804	20.929	942.752	743.532
157.819	21.010	942.074	743.273
158.833	20.968	941.139	742.293
159.848	21.137	939.912	741.980
160.862	20.831	939.401	740.207
161.877	20.902	938.155	739.463
162.892	20.896	937.289	738.690
163.906	21.037	935.917	738.138
164.921	20.948	935.425	737.307
165.935	21.038	934.474	736.874
166.950	20.935	933.317	735.465
167.964	20.992	932.655	735.116
168.979	20.809	931.545	733.406
169.994	20.833	930.450	732.580
171.008	20.983	930.180	732.931
172.023	21.062	929.235	732.454
173.037	20.787	927.976	730.245
174.052	20.595	927.028	728.632
175.067	20.740	926.319	728.616
176.081	20.859	926.005	728.804
177.096	20.787	925.182	727.788
178.110	20.439	924.353	725.619
179.125	20.190	923.774	724.061
180.140	20.453	923.121	724.583
181.154	20.446	923.280	724.612
182.169	20.755	922.789	725.453
183.183	20.919	922.488	725.833
184.198	20.776	921.263	724.211
185.213	20.887	920.219	723.786
186.227	20.911	919.766	723.467
187.242	21.030	919.007	723.297
188.256	21.126	918.065	722.893
189.271	21.029	917.609	722.068
190.286	20.761	916.145	719.744
191.300	20.182	915.108	716.474
192.315	19.543	913.476	712.495
193.329	19.525	913.366	712.274
194.344	20.176	914.030	715.416
195.359	20.798	913.202	717.264
196.373	20.950	912.813	717.523
197.388	20.745	912.014	715.990
198.402	20.731	911.636	715.569
199.417	20.860	911.306	715.777
200.432	20.606	909.523	713.274
201.446	20.428	909.229	712.250
202.461	20.476	908.650	711.927
203.475	19.543	906.762	706.570
204.490	18.877	905.586	702.868
205.504	19.777	906.069	706.863
206.519	20.396	905.492	708.878
207.534	20.449	905.611	709.123
208.548	20.877	905.284	710.550
209.563	20.596	904.485	708.717
210.577	20.617	903.788	708.193
211.592	21.058	903.096	709.380
212.607	20.897	902.564	708.245
213.621	21.030	901.561	707.937
214.636	21.062	900.798	707.407
215.650	20.897	900.243	706.239
216.665	21.100	899.805	706.654
217.680	21.130	898.642	705.799
218.694	20.688	897.548	703.093
219.709	20.512	897.231	702.070
220.723	20.687	897.127	702.634
221.738	20.758	896.434	702.315
222.753	20.713	895.698	701.493
223.767	20.999	894.992	702.031
224.782	21.135	894.565	702.181
225.796	21.199	894.001	701.935
226.811	20.634	892.336	698.296
227.826	19.917	891.324	694.565
228.840	20.142	890.765	694.972
229.855	20.254	889.830	694.628
230.869	19.698	889.261	691.899
231.884	20.106	889.302	693.504
232.899	20.894	889.341	696.623
233.913	20.679	888.665	695.172
234.928	20.837	887.702	694.990
235.942	20.705	887.089	693.920
236.957	20.521	885.807	692.125
237.972	20.449	885.512	691.547
238.986	20.649	884.566	691.543
240.001	20.450	884.598	690.716
241.015	20.674	883.965	691.047
242.030	20.735	883.760	691.070
243.045	20.915	882.921	691.068
244.059	21.052	882.512	691.227
245.074	20.802	881.401	689.307
246.088	20.494	880.799	687.557
247.103	20.712	880.629	688.225
248.117	21.304	879.832	689.878
249.132	21.419	879.588	690.080
250.147	21.585	879.157	690.335
251.161	21.537	879.433	690.303
252.176	21.656	878.119	689.679
253.190	21.732	877.570	689.484
254.205	21.884	876.808	689.422
255.220	21.980	876.222	689.279
256.234	21.681	875.584	687.542
257.249	21.687	874.658	686.778
258.263	21.616	874.144	686.035
259.278	21.695	873.783	686.001
260.293	21.754	873.038	685.587
261.307	21.617	872.445	684.525
262.322	21.488	871.387	683.131
263.336	20.684	869.256	678.267
264.351	19.641	867.571	672.831
265.366	19.789	867.334	673.163
266.380	20.759	868.215	677.565
267.395	21.236	867.872	679.092
268.409	21.284	867.123	678.634
269.424	21.400	866.580	678.598
270.439	21.484	865.631	678.121
271.453	21.545	865.334	678.066
272.468	21.655	865.306	678.410
273.482	21.965	864.190	678.671
274.497	21.336	863.251	675.444
275.512	21.067	862.156	673.490
276.526	21.492	862.747	675.533
277.541	21.691	861.717	675.436
278.555	21.316	860.964	673.343
279.570	21.263	860.342	672.589
280.585	21.273	859.712	672.079
281.599	21.301	859.089	671.637
282.614	20.983	857.260	668.930
283.628	20.802	857.178	668.110
284.643	21.211	856.737	669.276
285.657	20.767	855.733	666.734
286.672	20.552	854.872	665.182
287.687	21.012	855.043	667.014
288.701	21.035	854.796	666.850
289.716	20.882	853.573	665.255
290.730	20.801	853.030	664.461
291.745	20.506	851.675	662.226
292.760	20.830	851.665	663.392
293.774	21.697	852.263	667.102
294.789	22.062	852.035	668.253
295.803	22.049	851.287	667.557
296.818	22.185	850.640	667.507
297.833	21.774	849.472	664.974
298.847	21.693	848.508	663.853
299.862	21.958	848.313	664.647
300.876	22.006	848.550	664.956
301.891	21.922	847.452	663.717
302.906	21.539	846.409	661.397
303.920	21.738	846.271	661.980
304.935	21.976	845.909	662.538
305.949	21.964	845.311	661.964
306.964	21.789	844.248	660.415
307.979	21.718	844.243	660.086
308.993	22.312	843.763	661.887
310.008	22.015	843.353	660.389
311.022	21.834	842.727	659.160
312.037	21.848	841.687	658.342
313.052	21.616	840.644	656.598
314.066	20.591	839.276	651.632
315.081	20.329	839.153	650.496
316.095	21.427	838.663	654.171
317.110	21.676	839.094	655.379
318.125	20.932	837.379	651.205
319.139	20.023	835.978	646.664
320.154	19.915	835.559	645.881
321.168	20.925	835.975	649.914
322.183	21.552	835.917	652.146
323.197	21.670	835.807	652.442
324.212	21.886	835.154	652.680
325.227	21.817	834.861	652.138
326.241	21.781	833.757	651.083
327.256	21.682	833.241	650.255
328.270	21.657	832.634	649.629
329.285	21.430	831.652	647.968
330.300	21.201	831.146	646.665
331.314	21.497	830.817	647.448
332.329	21.941	830.099	648.473
333.343	21.879	830.335	648.372
334.358	21.804	829.987	647.765
335.373	21.809	829.923	647.674
336.387	22.153	829.491	648.551
337.402	22.318	829.358	648.997
338.416	22.124	828.831	647.814
339.431	22.289	828.448	648.066
340.446	22.439	828.244	648.401
341.460	22.315	827.403	647.227
342.475	22.276	826.660	646.446
343.489	22.312	826.560	646.442
344.504	22.330	826.720	646.578
345.519	22.805	825.748	647.502
346.533	22.685	825.487	646.799
347.548	22.748	824.962	646.564
348.562	22.768	824.491	646.210
349.577	22.612	823.867	645.092
350.592	22.739	823.143	644.934
351.606	22.554	822.948	644.046
352.621	22.529	821.537	642.795
353.635	22.525	820.533	641.937
354.650	21.834	819.191	638.318
355.665	20.937	817.862	633.963
356.679	21.275	817.808	635.096
357.694	21.642	817.590	636.204
358.708	21.795	816.778	636.068
359.723	22.071	816.786	637.019
360.738	22.371	816.580	637.893
361.752	22.478	816.183	637.911
362.767	22.620	815.723	638.009
363.781	22.889	815.380	638.659
364.796	23.003	815.030	638.739
365.810	23.000	814.774	638.473
366.825	23.077	814.051	638.125
367.840	22.695	813.426	636.203
368.854	22.231	812.357	633.639
369.869	22.499	812.095	634.342
370.883	22.433	811.743	633.774
371.898	22.272	811.133	632.664
372.913	22.303	810.821	632.477
373.927	22.430	810.373	632.525
374.942	22.514	810.396	632.788
375.956	22.634	809.767	632.672
376.971	22.832	809.128	632.829
377.986	22.919	809.350	633.259
379.000	22.882	808.436	632.356
380.015	22.594	808.164	631.055
381.029	22.785	807.485	631.153
382.044	22.976	806.594	631.081
383.059	23.018	806.053	630.754
384.073	23.206	805.304	630.779
385.088	23.118	804.655	629.901
386.102	22.876	804.247	628.665
387.117	22.716	803.417	627.392
388.132	22.407	802.480	625.506
389.146	21.980	801.494	623.168
390.161	22.445	801.634	624.872
391.175	22.563	801.715	625.298
392.190	22.209	800.618	623.134
393.205	21.058	798.644	617.471
394.219	19.688	796.721	611.089
395.234	19.680	796.287	610.675
396.248	21.416	797.947	618.034
397.263	22.621	798.669	622.799
398.278	22.581	798.113	622.168
399.292	22.324	797.598	620.804
400.307	22.335	797.219	620.494
401.321	22.476	796.817	620.622
402.336	22.852	796.749	621.838
403.350	23.234	796.735	623.119
404.365	23.392	796.282	623.265
405.380	23.776	795.810	624.188
406.394	23.827	795.094	623.749
407.409	23.571	794.684	622.477
408.423	23.484	794.518	621.986
409.438	23.705	794.320	622.551
410.453	23.712	793.977	622.251
411.467	23.618	793.017	621.113
412.482	23.698	792.720	621.105
413.496	23.811	792.387	621.185
414.511	23.671	792.244	620.530
415.526	23.667	791.679	620.018
416.540	23.520	790.712	618.695
417.555	23.376	789.886	617.490
418.569	23.312	790.036	617.331
419.584	23.276	789.648	616.846
420.599	23.179	788.453	615.522
421.613	157.960	1365.159	1798.777
422.628	136.734	1449.192	1798.853
