DTS Sentinel unit serial number:	SN413079Multiplexer serial number:	ORYXHardware model number:	OX4-SRSoftware version number:	ORYX F/W v4.00 Oryx Data Collector v3.7.2.0data status	okinstallation	princeton_trtdifferential loss correction	single-endedforward channel	channel 1reverse channel	N/Adate	2019/09/17time	07:14:35forward acquisition time	60.00reverse acquisition time	0.00gamma	496.2192k internal	0.2331k external	0.2331temperature offset calibration	0.9968default loss term (dB/km)	0.3790temperature slope calibration	1.0000multiplexer offset coefficient	1.0000multiplexer slope coefficient	1.0000fibre end	0.00T internal ref (°C)	27.31T ext. ref 1 (°C)	0.12T ext. ref 2 (°C)	21.28length (m)	temperature (°C)	Stokes	anti-Stokes-747.200	316.560	0.120	0.229
-746.185	179.262	-0.192	0.283
-745.171	-200.000	-0.038	-0.232
-744.156	22.892	-0.173	0.143
-743.142	691.017	-0.043	0.113
-742.127	-200.000	-0.011	0.201
-741.112	800.000	-0.030	0.088
-740.098	-75.547	0.103	0.037
-739.083	-59.341	0.195	0.084
-738.069	800.000	0.144	0.421
-737.054	-170.110	-0.214	0.008
-736.039	-75.189	-0.370	0.133
-735.025	800.000	0.068	0.288
-734.010	42.983	0.221	-0.203
-732.996	48.275	0.069	0.065
-731.981	-136.433	-0.096	-0.011
-730.966	190.143	-0.025	0.037
-729.952	205.274	-0.044	0.069
-728.937	71.942	0.249	-0.261
-727.923	38.694	-0.290	-0.260
-726.908	131.305	-0.053	-0.068
-725.894	-200.000	0.059	0.374
-724.879	34.276	0.049	0.043
-723.864	-73.659	-0.144	0.053
-722.850	224.689	0.030	-0.048
-721.835	455.175	-0.030	0.066
-720.821	-42.984	0.125	0.064
-719.806	121.791	0.121	-0.152
-718.791	-110.576	0.047	-0.010
-717.777	-200.000	-0.064	-0.422
-716.762	-107.550	0.065	-0.014
-715.748	42.746	0.199	-0.182
-714.733	141.712	-0.060	-0.079
-713.718	-113.377	-0.241	-0.048
-712.704	-153.855	-0.144	-0.010
-711.689	-150.978	-0.283	-0.021
-710.675	-65.889	0.040	0.016
-709.660	-133.943	0.296	-0.037
-708.645	14.747	0.036	0.028
-707.631	-67.578	0.185	-0.073
-706.616	65.070	0.153	-0.156
-705.602	0.018	0.143	-0.102
-704.587	3.975	-0.107	-0.078
-703.572	180.287	-0.133	0.196
-702.558	208.816	-0.079	-0.124
-701.543	-38.024	-0.056	0.030
-700.529	-74.510	0.382	0.138
-699.514	-78.240	-0.215	-0.074
-698.499	-64.008	0.236	0.097
-697.485	-24.353	-0.218	-0.130
-696.470	345.259	0.099	-0.195
-695.456	-23.962	0.018	-0.011
-694.441	-200.000	-0.037	-0.169
-693.426	175.057	0.058	-0.085
-692.412	-12.527	-0.214	0.140
-691.397	-35.890	-0.255	-0.139
-690.383	-200.000	0.054	-0.241
-689.368	800.000	-0.111	-0.400
-688.354	371.871	0.091	0.186
-687.339	800.000	-0.086	-0.266
-686.324	-22.830	0.160	-0.097
-685.310	-59.032	-0.065	0.028
-684.295	800.000	-0.057	0.172
-683.281	-123.585	-0.216	-0.034
-682.266	800.000	-0.137	-0.403
-681.251	800.000	0.023	0.079
-680.237	-200.000	0.022	0.146
-679.222	-4.293	-0.214	-0.149
-678.208	42.957	-0.098	0.089
-677.193	-131.045	0.083	0.011
-676.178	-100.208	-0.113	0.028
-675.164	800.000	0.017	-0.059
-674.149	-19.191	0.190	0.119
-673.135	-44.529	-0.302	-0.152
-672.120	248.371	-0.121	0.205
-671.105	164.320	-0.100	0.141
-670.091	-92.864	-0.053	0.015
-669.076	-104.761	-0.392	0.090
-668.062	229.997	0.123	0.201
-667.047	-74.779	-0.053	-0.019
-666.032	-146.309	0.360	0.032
-665.018	-73.354	-0.360	-0.132
-664.003	-59.226	0.145	0.063
-662.989	650.203	0.039	-0.099
-661.974	44.170	-0.295	-0.271
-660.959	-33.715	0.320	0.177
-659.945	-17.361	-0.097	0.062
-658.930	-200.000	0.027	-0.130
-657.916	-116.148	-0.061	0.011
-656.901	-56.078	0.090	-0.040
-655.886	61.037	-0.117	-0.116
-654.872	18.371	0.269	0.215
-653.857	-120.489	-0.282	-0.048
-652.843	-107.300	-0.379	-0.084
-651.828	-34.598	0.210	-0.115
-650.814	4.013	0.205	0.150
-649.799	800.000	-0.067	-0.194
-648.784	247.492	-0.206	-0.348
-647.770	215.526	-0.243	-0.386
-646.755	-102.582	0.278	0.067
-645.741	800.000	-0.118	-0.362
-644.726	42.513	-0.228	-0.208
-643.711	-200.000	-0.009	-0.356
-642.697	-200.000	-0.033	0.176
-641.682	-184.683	-0.115	0.002
-640.668	-28.480	0.106	0.061
-639.653	49.088	-0.263	-0.247
-638.638	309.127	-0.091	0.171
-637.624	107.032	0.256	-0.305
-636.609	800.000	-0.070	-0.200
-635.595	-150.856	0.140	0.011
-634.580	800.000	0.096	-0.344
-633.565	-52.842	-0.288	-0.133
-632.551	-57.976	-0.238	0.104
-631.536	-143.163	0.274	0.026
-630.522	800.000	-0.058	-0.220
-629.507	179.461	-0.229	-0.336
-628.492	88.840	-0.186	-0.207
-627.478	36.478	0.221	-0.196
-626.463	-91.853	0.204	-0.058
-625.449	-77.186	0.158	0.055
-624.434	452.113	-0.124	0.274
-623.419	-200.000	-0.009	-0.052
-622.405	-67.685	0.052	-0.020
-621.390	466.805	-0.052	-0.116
-620.376	-101.925	0.252	0.061
-619.361	140.305	0.334	-0.441
-618.346	-168.309	0.407	-0.016
-617.332	111.656	-0.131	-0.159
-616.317	800.000	0.098	0.362
-615.303	45.553	0.166	-0.154
-614.288	59.617	-0.143	0.141
-613.273	-54.786	-0.197	-0.089
-612.259	243.803	0.242	-0.406
-611.244	73.864	-0.156	-0.164
-610.230	295.317	-0.068	0.125
-609.215	323.841	-0.104	0.199
-608.201	-200.000	-0.077	-0.374
-607.186	-70.586	0.337	-0.127
-606.171	209.241	0.032	0.050
-605.157	717.413	-0.142	-0.378
-604.142	204.418	-0.176	-0.273
-603.128	-103.640	-0.048	-0.011
-602.113	161.124	0.105	0.147
-601.098	800.000	0.031	-0.088
-600.084	-94.167	0.179	0.049
-599.069	-73.381	0.106	0.039
-598.055	-167.810	0.102	0.004
-597.040	800.000	-0.008	0.033
-596.025	102.404	-0.131	-0.153
-595.011	-97.116	0.160	0.042
-593.996	146.829	0.065	-0.087
-592.982	23.083	0.105	-0.087
-591.967	800.000	0.064	0.182
-590.952	-200.000	0.088	0.407
-589.938	394.436	-0.123	0.256
-588.923	-123.667	0.247	0.039
-587.909	800.000	0.061	-0.185
-586.894	-46.557	-0.245	0.120
-585.879	16.013	-0.177	-0.140
-584.865	-105.551	0.195	0.044
-583.850	14.328	0.090	-0.070
-582.836	800.000	0.073	-0.202
-581.821	44.802	0.118	0.109
-580.806	-110.240	-0.227	-0.047
-579.792	-100.623	0.222	-0.055
-578.777	590.279	0.046	0.114
-577.763	-109.460	-0.164	0.035
-576.748	-96.779	0.205	0.054
-575.733	-200.000	0.009	-0.128
-574.719	-105.695	-0.468	-0.106
-573.704	-83.646	0.287	0.092
-572.690	-58.595	0.288	-0.125
-571.675	23.403	-0.184	-0.151
-570.661	800.000	-0.030	0.098
-569.646	152.811	0.088	0.120
-568.631	284.886	0.047	0.084
-567.617	-39.688	-0.190	0.099
-566.602	-79.417	0.120	0.041
-565.588	-200.000	-0.011	0.167
-564.573	-73.255	-0.236	-0.086
-563.558	-200.000	-0.013	0.073
-562.544	-200.000	-0.021	-0.190
-561.529	-133.339	-0.185	0.023
-560.515	-13.095	0.335	0.218
-559.500	119.355	0.055	0.069
-558.485	249.265	-0.064	0.109
-557.471	-39.802	-0.291	0.152
-556.456	-25.638	0.172	-0.101
-555.442	6.089	0.166	-0.123
-554.427	800.000	0.039	-0.148
-553.412	800.000	0.009	-0.028
-552.398	-200.000	-0.069	0.524
-551.383	-80.801	0.333	0.111
-550.369	-79.538	0.130	0.044
-549.354	40.054	-0.148	0.132
-548.339	-44.663	0.175	0.087
-547.325	-67.776	0.100	-0.039
-546.310	-45.486	-0.228	-0.113
-545.296	-69.831	-0.381	-0.145
-544.281	263.807	-0.099	0.172
-543.266	-71.763	-0.101	0.038
-542.252	50.906	0.127	-0.120
-541.237	-83.909	-0.253	0.080
-540.223	23.020	0.081	-0.066
-539.208	217.201	0.070	-0.112
-538.193	-14.715	-0.201	-0.129
-537.179	-36.571	0.098	0.052
-536.164	-118.886	0.362	0.063
-535.150	-162.896	-0.336	-0.016
-534.135	75.712	-0.197	-0.208
-533.121	474.786	-0.082	-0.185
-532.106	800.000	-0.090	-0.286
-531.091	-85.372	0.225	-0.070
-530.077	40.021	0.246	0.221
-529.062	-200.000	-0.051	0.254
-528.048	-200.000	-0.050	0.399
-527.033	-132.525	-0.366	-0.047
-526.018	-115.746	-0.188	0.035
-525.004	89.311	-0.196	-0.218
-523.989	-3.294	0.238	0.165
-522.975	360.162	-0.167	-0.333
-521.960	786.122	0.048	-0.132
-520.945	-119.126	0.040	0.007
-519.931	7.537	-0.106	-0.079
-518.916	201.373	0.119	0.183
-517.902	748.088	-0.063	0.170
-516.887	18.636	-0.166	-0.133
-515.872	-60.078	-0.062	0.026
-514.858	-117.801	-0.197	-0.035
-513.843	503.883	-0.126	0.290
-512.829	756.637	-0.049	0.133
-511.814	-185.020	-0.156	0.002
-510.799	-5.260	0.247	-0.169
-509.785	-200.000	0.010	0.234
-508.770	193.843	0.030	0.046
-507.756	54.240	-0.010	-0.009
-506.741	-137.748	-0.145	0.016
-505.726	-200.000	-0.003	0.235
-504.712	-20.135	-0.197	-0.121
-503.697	151.321	0.177	0.241
-502.683	-92.203	-0.117	0.033
-501.668	284.029	0.266	0.476
-500.653	146.558	0.071	-0.095
-499.639	-200.000	-0.005	0.038
-498.624	-99.280	-0.015	0.004
-497.610	800.000	-0.071	0.233
-496.595	-172.568	-0.180	0.006
-495.581	-75.500	-0.354	-0.125
-494.566	-48.500	0.248	0.119
-493.551	-65.687	-0.250	-0.100
-492.537	-148.841	0.294	-0.024
-491.522	-101.514	-0.233	-0.056
-490.508	330.768	0.045	0.087
-489.493	454.269	-0.117	0.258
-488.478	160.735	0.132	-0.184
-487.464	10.286	0.380	0.288
-486.449	736.992	-0.080	-0.214
-485.435	69.789	-0.206	-0.211
-484.420	-90.269	-0.211	-0.061
-483.405	-74.045	-0.214	0.077
-482.391	-200.000	0.009	0.132
-481.376	-50.585	0.160	-0.075
-480.362	22.499	-0.181	0.147
-479.347	-95.677	-0.385	0.103
-478.332	-68.589	-0.225	-0.087
-477.318	-77.082	-0.316	0.110
-476.303	-57.004	-0.254	0.112
-475.289	-200.000	0.004	0.191
-474.274	104.089	-0.189	-0.221
-473.259	357.979	0.110	0.219
-472.245	-74.333	0.103	0.037
-471.230	-60.218	-0.180	-0.077
-470.216	800.000	0.054	0.157
-469.201	-200.000	-0.054	-0.317
-468.186	273.640	0.118	-0.208
-467.172	-200.000	-0.031	0.213
-466.157	-193.834	0.181	0.002
-465.143	-200.000	0.003	-0.031
-464.128	-151.659	0.482	0.035
-463.113	-200.000	-0.000	0.302
-462.099	-200.000	0.017	-0.091
-461.084	85.968	-0.132	-0.144
-460.070	180.594	0.108	0.158
-459.055	-155.128	-0.156	0.010
-458.040	-67.148	-0.331	0.130
-457.026	61.865	0.505	0.500
-456.011	-108.499	-0.555	0.119
-454.997	-20.797	0.210	-0.128
-453.982	-193.298	0.191	0.002
-452.968	-200.000	-0.006	0.270
-451.953	-171.732	-0.308	-0.010
-450.938	231.419	-0.150	-0.245
-449.924	10.488	0.088	-0.067
-448.909	-200.000	-0.106	0.000
-447.895	-16.629	0.228	0.144
-446.880	-54.573	-0.173	0.078
-445.865	179.552	0.241	0.352
-444.851	-200.000	0.028	-0.643
-443.836	439.399	0.124	-0.270
-442.822	-200.000	0.054	0.262
-441.807	-91.414	0.246	-0.070
-440.792	800.000	0.018	0.070
-439.778	563.055	-0.037	0.089
-438.763	-75.852	0.132	0.046
-437.749	1.239	-0.053	0.038
-436.734	-68.319	-0.285	-0.110
-435.719	25.429	0.134	0.111
-434.705	-8.600	-0.212	0.142
-433.690	515.059	0.013	-0.031
-432.676	-200.000	-0.009	0.342
-431.661	123.486	0.167	0.208
-430.646	-102.608	-0.275	-0.065
-429.632	136.293	0.141	0.183
-428.617	-200.000	-0.012	0.075
-427.603	800.000	0.127	0.388
-426.588	800.000	0.045	-0.169
-425.573	463.911	-0.119	-0.264
-424.559	88.713	0.083	-0.092
-423.544	25.340	0.317	0.262
-422.530	-200.000	0.011	-0.113
-421.515	800.000	0.028	0.083
-420.500	31.213	0.343	0.293
-419.486	347.261	-0.045	0.088
-418.471	-19.088	-0.377	0.233
-417.457	51.346	0.104	0.098
-416.442	-200.000	0.005	-0.163
-415.428	800.000	0.004	-0.014
-414.413	800.000	-0.067	0.197
-413.398	-109.713	0.280	-0.059
-412.384	-111.034	0.040	0.008
-411.369	20.660	-0.091	-0.073
-410.355	100.387	0.172	0.199
-409.340	-80.601	-0.130	-0.043
-408.325	800.000	0.038	-0.127
-407.311	58.293	0.111	0.108
-406.296	-87.049	0.139	0.042
-405.282	-39.699	0.079	0.041
-404.267	-80.019	0.283	0.094
-403.252	139.754	0.074	0.097
-402.238	-178.940	0.209	-0.005
-401.223	-57.863	-0.166	0.072
-400.209	747.320	-0.125	-0.334
-399.194	-200.000	-0.037	0.365
-398.179	41.332	-0.213	0.192
-397.165	38.558	0.156	0.138
-396.150	-68.554	0.254	-0.098
-395.136	-45.158	-0.234	0.115
-394.121	-92.709	-0.332	-0.092
-393.106	-84.329	0.037	-0.012
-392.092	-200.000	-0.051	0.285
-391.077	-200.000	0.002	-0.197
-390.063	-2.816	0.317	-0.220
-389.048	-200.000	-0.048	-0.328
-388.033	192.903	-0.043	-0.064
-387.019	-51.323	-0.130	0.061
-386.004	-151.473	-0.205	-0.015
-384.990	-62.238	0.159	0.066
-383.975	-158.533	-0.079	0.005
-382.960	-200.000	0.000	0.189
-381.946	-200.000	0.008	0.063
-380.931	239.770	-0.022	-0.037
-379.917	264.093	-0.105	0.180
-378.902	577.933	-0.190	-0.461
-377.888	-200.000	0.004	-0.176
-376.873	-19.990	-0.216	0.132
-375.858	-200.000	-0.056	0.278
-374.844	62.004	-0.092	0.091
-373.829	30.641	0.020	-0.017
-372.815	-33.530	0.313	-0.171
-371.800	-200.000	-0.018	-0.181
-370.785	505.844	-0.144	-0.330
-369.771	-64.967	-0.311	-0.125
-368.756	-200.000	0.048	0.364
-367.742	-150.159	-0.167	-0.013
-366.727	-32.491	0.070	0.039
-365.712	306.779	0.202	0.373
-364.698	-5.344	-0.097	0.066
-363.683	21.363	0.117	-0.094
-362.669	800.000	0.060	-0.173
-361.654	-113.490	-0.179	-0.035
-360.639	-10.781	-0.254	-0.166
-359.625	224.515	-0.278	0.446
-358.610	-19.081	0.144	0.088
-357.596	-86.008	0.215	-0.066
-356.581	800.000	-0.055	-0.155
-355.566	-200.000	0.010	-0.165
-354.552	-200.000	0.046	-0.215
-353.537	-3.862	0.236	0.162
-352.523	599.165	-0.097	-0.239
-351.508	616.937	-0.108	-0.269
-350.493	-89.697	0.267	0.078
-349.479	740.717	-0.090	-0.240
-348.464	145.723	-0.140	-0.186
-347.450	800.000	0.042	-0.167
-346.435	65.862	0.432	-0.433
-345.420	100.252	-0.110	-0.126
-344.406	-24.620	-0.109	-0.064
-343.391	74.078	-0.035	0.036
-342.377	40.393	0.155	-0.138
-341.362	-78.849	-0.256	0.087
-340.348	-144.803	0.067	-0.006
-339.333	200.353	-0.033	-0.050
-338.318	13.747	0.148	-0.114
-337.304	67.289	-0.321	0.325
-336.289	-63.686	-0.199	0.081
-335.275	-200.000	0.043	-0.246
-334.260	100.855	-0.180	-0.207
-333.245	-200.000	-0.001	0.293
-332.231	81.258	-0.057	0.061
-331.216	610.418	0.070	0.174
-330.202	54.555	0.344	0.328
-329.187	370.262	0.089	0.179
-328.172	800.000	-0.007	0.019
-327.158	-147.717	0.398	-0.033
-326.143	-57.383	-0.095	-0.042
-325.129	109.390	-0.196	0.233
-324.114	-139.866	0.261	0.027
-323.099	53.217	0.268	0.254
-322.085	-161.816	0.471	-0.024
-321.070	-200.000	-0.073	-0.329
-320.056	800.000	0.072	-0.199
-319.041	-15.824	-0.127	0.080
-318.026	190.720	-0.098	-0.145
-317.012	-44.917	0.445	-0.219
-315.997	-115.891	0.134	0.025
-314.983	-200.000	0.024	0.213
-313.968	140.033	-0.116	-0.152
-312.953	52.757	-0.100	-0.095
-311.939	74.683	-0.176	-0.183
-310.924	283.586	0.060	-0.107
-309.910	266.378	-0.063	0.110
-308.895	-141.769	-0.192	0.019
-307.880	-16.579	0.222	0.139
-306.866	259.340	0.070	0.120
-305.851	-19.557	-0.098	0.060
-304.837	109.902	-0.062	-0.074
-303.822	128.055	-0.146	-0.183
-302.807	800.000	0.096	-0.305
-301.793	-200.000	-0.009	0.244
-300.778	800.000	0.068	0.201
-299.764	33.427	-0.289	0.248
-298.749	0.088	0.385	-0.271
-297.735	132.689	-0.220	-0.281
-296.720	800.000	-0.063	0.231
-295.705	125.783	0.187	0.234
-294.691	-200.000	-0.019	0.343
-293.676	65.132	0.115	0.115
-292.662	8.977	0.134	0.100
-291.647	-62.610	0.281	0.115
-290.632	-61.097	0.256	0.107
-289.618	-5.301	0.153	0.104
-288.603	-117.282	0.179	0.032
-287.589	-200.000	-0.035	-0.220
-286.574	190.140	0.173	-0.257
-285.559	-68.491	0.106	-0.041
-284.545	223.920	0.218	-0.348
-283.530	185.797	0.100	0.147
-282.516	166.313	0.124	0.173
-281.501	85.900	-0.203	0.220
-280.486	800.000	-0.083	-0.249
-279.472	-169.165	0.416	-0.015
-278.457	-178.201	0.214	-0.005
-277.443	13.446	0.211	-0.162
-276.428	251.077	0.120	-0.201
-275.413	800.000	-0.030	0.109
-274.399	68.260	-0.030	-0.030
-273.384	-135.064	0.237	0.028
-272.370	-200.000	-0.004	0.190
-271.355	800.000	0.058	0.218
-270.340	-94.175	0.238	0.064
-269.326	152.063	-0.070	0.094
-268.311	-86.158	-0.106	-0.032
-267.297	-63.448	0.144	0.059
-266.282	327.166	-0.147	-0.279
-265.267	695.267	-0.061	-0.157
-264.253	-80.028	0.230	-0.076
-263.238	800.000	0.062	-0.176
-262.224	800.000	-0.091	-0.264
-261.209	-29.679	0.166	0.094
-260.195	463.099	-0.023	-0.051
-259.180	-59.941	-0.169	0.071
-258.165	-14.744	-0.326	0.207
-257.151	101.996	-0.031	-0.035
-256.136	608.763	0.038	-0.093
-255.122	18.029	-0.068	0.053
-254.107	-60.664	-0.140	0.059
-253.092	712.459	-0.129	0.336
-252.078	-200.000	-0.032	-0.166
-251.063	800.000	0.053	0.161
-250.049	-200.000	0.002	0.148
-249.034	-28.843	0.077	0.044
-248.019	308.061	-0.057	-0.105
-247.005	214.244	0.148	0.231
-245.990	800.000	0.076	0.246
-244.976	5.959	-0.101	-0.074
-243.961	-89.872	0.198	0.057
-242.946	77.725	-0.269	-0.282
-241.932	203.989	-0.072	0.110
-240.917	65.663	0.008	-0.008
-239.903	305.460	-0.034	-0.062
-238.888	128.628	0.153	0.193
-237.873	-200.000	0.003	0.153
-236.859	74.156	-0.129	0.133
-235.844	-200.000	0.007	0.202
-234.830	204.051	0.101	0.154
-233.815	-67.361	0.257	0.100
-232.800	47.353	-0.100	-0.092
-231.786	2.060	0.084	-0.060
-230.771	11.378	-0.273	-0.207
-229.757	-123.300	-0.083	0.013
-228.742	266.456	-0.018	-0.031
-227.727	599.691	-0.142	0.348
-226.713	-94.144	-0.272	-0.073
-225.698	-200.000	0.017	-0.145
-224.684	-70.034	-0.030	-0.011
-223.669	-200.000	0.012	0.063
-222.655	-33.790	-0.173	-0.094
-221.640	-200.000	0.007	-0.083
-220.625	-200.000	0.031	0.139
-219.611	-95.019	-0.302	-0.081
-218.596	11.654	-0.308	0.233
-217.582	-200.000	-0.000	0.181
-216.567	-101.347	-0.095	0.023
-215.552	83.009	0.067	-0.072
-214.538	24.062	-0.087	-0.071
-213.523	-0.242	0.167	-0.117
-212.509	217.102	0.170	0.266
-211.494	40.352	-0.090	0.080
-210.479	5.189	-0.199	-0.144
-209.465	164.675	-0.046	-0.064
-208.450	800.000	0.040	-0.156
-207.436	198.109	0.065	-0.097
-206.421	-133.614	0.059	-0.007
-205.406	69.778	0.120	-0.122
-204.392	350.480	-0.029	0.057
-203.377	800.000	0.039	0.123
-202.363	-82.919	-0.076	-0.024
-201.348	-200.000	0.069	-0.360
-200.333	-139.033	0.071	-0.008
-199.319	200.506	-0.145	0.219
-198.304	-171.047	0.154	-0.005
-197.290	222.460	-0.158	-0.250
-196.275	214.748	0.101	0.158
-195.260	-156.299	-0.080	0.005
-194.246	-131.223	0.081	-0.011
-193.231	-89.442	-0.254	-0.074
-192.217	-109.874	-0.382	0.079
-191.202	94.045	-0.197	0.220
-190.187	-200.000	0.021	0.374
-189.173	80.178	-0.146	-0.155
-188.158	800.000	-0.097	-0.338
-187.144	-85.253	-0.141	-0.043
-186.129	381.127	0.130	-0.262
-185.114	610.209	0.043	0.106
-184.100	-107.735	0.442	0.095
-183.085	-50.688	-0.127	0.059
-182.071	-134.801	-0.128	0.015
-181.056	86.854	0.080	-0.087
-180.042	800.000	-0.072	0.249
-179.027	-159.608	-0.183	0.010
-178.012	-200.000	-0.054	-0.325
-176.998	76.490	0.181	0.188
-175.983	-3.339	-0.072	0.049
-174.969	-181.489	0.104	0.002
-173.954	41.115	-0.037	0.033
-172.939	800.000	-0.043	-0.130
-171.925	29.354	-0.259	-0.217
-170.910	800.000	0.077	-0.311
-169.896	-6.651	0.199	-0.133
-168.881	-65.263	0.257	0.102
-167.866	-136.828	-0.328	-0.037
-166.852	222.778	-0.159	-0.251
-165.837	-200.000	-0.045	0.223
-164.823	-124.480	0.201	0.031
-163.808	25.745	0.145	-0.119
-162.793	-91.882	0.271	0.076
-161.779	259.840	0.113	-0.192
-160.764	800.000	-0.019	-0.053
-159.750	254.026	-0.120	-0.201
-158.735	66.716	0.140	-0.140
-157.720	-189.137	0.268	0.003
-156.706	-200.000	0.014	0.140
-155.691	-200.000	-0.031	0.255
-154.677	-15.532	0.247	-0.155
-153.662	-58.450	-0.226	0.097
-152.647	-37.105	-0.238	0.125
-151.633	-125.113	0.095	0.014
-150.618	800.000	-0.029	-0.114
-149.604	-48.249	0.226	0.107
-148.589	275.630	-0.036	-0.063
-147.574	-200.000	0.013	0.278
-146.560	94.282	-0.041	-0.046
-145.545	-69.516	-0.042	-0.016
-144.531	800.000	0.164	-0.510
-143.516	-94.102	0.145	-0.039
-142.502	-6.616	-0.197	-0.132
-141.487	-95.206	-0.177	-0.047
-140.472	-155.326	0.162	-0.010
-139.458	427.911	-0.046	-0.097
-138.443	-200.000	-0.027	-0.227
-137.429	136.573	0.175	0.225
-136.414	-105.677	-0.178	0.040
-135.399	-85.142	0.144	-0.044
-134.385	89.906	0.167	-0.183
-133.370	800.000	0.110	-0.459
-132.356	5.283	-0.074	0.053
-131.341	443.419	0.058	0.126
-130.326	-64.509	-0.205	-0.082
-129.312	-189.555	-0.271	-0.003
-128.297	800.000	-0.150	0.423
-127.283	-200.000	-0.034	0.325
-126.268	-107.120	-0.177	-0.038
-125.253	-162.592	-0.518	-0.025
-124.239	-48.323	-0.176	-0.083
-123.224	-200.000	-0.021	-0.173
-122.210	60.470	0.115	0.112
-121.195	-9.688	-0.083	0.054
-120.180	-6.168	0.176	0.118
-119.166	567.561	0.027	-0.064
-118.151	273.714	0.031	0.053
-117.137	-47.865	0.234	0.111
-116.122	-72.496	0.132	-0.048
-115.107	-12.517	-0.250	-0.160
-114.093	-1.615	-0.225	-0.155
-113.078	109.061	-0.149	-0.175
-112.064	-200.000	0.009	0.288
-111.049	10.786	0.324	0.243
-110.034	197.693	-0.150	-0.224
-109.020	68.266	0.053	-0.054
-108.005	28.994	-0.290	-0.241
-106.991	-7.066	0.032	-0.021
-105.976	-38.593	0.124	0.064
-104.962	224.834	-0.189	0.300
-103.947	76.745	-0.155	0.162
-102.932	-40.649	-0.171	-0.087
-101.918	-200.000	0.027	0.139
-100.903	-65.890	0.173	0.068
-99.889	104.764	-0.046	-0.053
-98.874	-200.000	-0.007	-0.148
-97.859	-48.475	-0.177	-0.083
-96.845	-180.983	0.405	-0.008
-95.830	-12.240	-0.181	0.116
-94.816	800.000	-0.022	0.090
-93.801	-22.454	-0.192	-0.114
-92.786	8.501	-0.055	-0.040
-91.772	85.671	-0.118	-0.128
-90.757	-44.303	-0.103	0.051
-89.743	-81.570	-0.431	-0.139
-88.728	-191.737	0.196	-0.002
-87.713	-111.389	-0.031	0.006
-86.699	-200.000	-0.075	0.359
-85.684	-68.505	-0.291	-0.111
-84.670	800.000	0.097	0.289
-83.655	-134.136	-0.191	0.023
-82.640	450.693	-0.028	0.060
-81.626	299.787	-0.182	-0.329
-80.611	103.634	0.184	-0.211
-79.597	-200.000	0.007	0.101
-78.582	-38.539	0.162	-0.084
-77.567	72.964	-0.240	0.246
-76.553	237.637	0.013	-0.021
-75.538	-200.000	-0.090	-0.490
-74.524	131.803	-0.256	-0.324
-73.509	658.210	-0.043	-0.109
-72.494	461.920	0.136	0.297
-71.480	331.787	-0.116	0.219
-70.465	-200.000	-0.016	-0.175
-69.451	167.606	-0.158	0.220
-68.436	-81.843	0.192	0.062
-67.422	122.736	0.240	-0.294
-66.407	-98.956	0.279	-0.069
-65.392	88.596	0.089	0.097
-64.378	-11.960	0.175	0.112
-63.363	85.169	0.166	-0.178
-62.349	-72.896	0.068	0.024
-61.334	-17.289	-1.191	-0.735
-60.319	173.572	0.516	0.730
-59.305	800.000	-0.359	-1.506
-58.290	264.676	0.725	1.236
-57.276	716.328	0.645	1.677
-56.261	-200.000	114.976	646.558
-55.246	469.160	1508.350	3317.827
-54.232	147.920	2669.224	3525.599
-53.217	103.005	2146.296	2462.677
-52.203	38.491	1594.701	1392.445
-51.188	30.581	1340.304	1122.731
-50.173	27.705	1302.803	1074.361
-49.159	54.988	1358.789	1285.186
-48.144	53.313	1372.913	1288.457
-47.130	30.901	1328.408	1114.507
-46.115	27.340	1311.050	1078.831
-45.100	27.052	1306.140	1073.045
-44.086	27.154	1303.225	1071.209
-43.071	27.130	1300.825	1069.051
-42.057	27.098	1298.888	1067.233
-41.042	27.105	1297.457	1066.053
-40.027	27.279	1295.307	1065.262
-39.013	27.216	1293.837	1063.645
-37.998	27.162	1291.833	1061.639
-36.984	27.302	1289.947	1060.862
-35.969	27.313	1288.343	1059.565
-34.954	27.468	1286.274	1058.726
-33.940	27.377	1285.386	1057.420
-32.925	27.388	1284.043	1056.340
-31.911	27.361	1282.676	1055.014
-30.896	27.349	1281.352	1053.814
-29.881	27.365	1280.189	1052.908
-28.867	27.451	1278.268	1051.784
-27.852	27.380	1277.244	1050.491
-26.838	27.478	1275.936	1049.937
-25.823	27.435	1274.594	1048.544
-24.809	27.313	1273.045	1046.525
-23.794	27.259	1272.081	1045.386
-22.779	27.376	1270.422	1044.652
-21.765	27.481	1269.130	1044.146
-20.750	27.337	1268.213	1042.530
-19.736	27.258	1266.811	1040.879
-18.721	27.344	1265.574	1040.318
-17.706	27.310	1264.857	1039.491
-16.692	27.339	1263.514	1038.514
-15.677	27.185	1262.382	1036.663
-14.663	27.205	1261.233	1035.788
-13.648	27.292	1259.774	1035.044
-12.633	27.304	1258.621	1034.128
-11.619	27.283	1258.199	1033.620
-10.604	27.295	1257.104	1032.746
-9.590	27.229	1256.582	1031.904
-8.575	27.260	1255.182	1030.886
-7.560	27.229	1254.641	1030.228
-6.546	27.297	1253.528	1029.654
-5.531	27.203	1252.771	1028.461
-4.517	27.142	1252.389	1027.764
-3.502	27.264	1251.463	1027.651
-2.487	27.244	1250.202	1026.461
-1.473	27.277	1245.778	1022.974
-0.458	25.574	1230.689	1001.073
0.556	20.258	1213.943	962.685
1.571	16.307	1219.845	945.205
2.586	15.386	1234.242	951.062
3.600	15.249	1223.093	941.618
4.615	11.265	1150.899	864.862
5.629	3.880	1077.645	772.943
6.644	0.402	1059.056	742.439
7.659	0.081	1056.994	739.351
8.673	-0.029	1056.163	738.163
9.688	0.007	1054.508	737.121
10.702	0.246	1052.481	736.809
11.717	4.717	1058.478	762.899
12.731	12.509	1068.900	808.794
13.746	16.743	1073.278	832.902
14.761	17.049	1073.107	834.198
15.775	16.074	1070.815	827.559
16.790	14.933	1069.267	820.693
17.804	14.356	1067.285	816.274
18.819	13.950	1066.568	813.665
19.834	13.780	1065.529	811.969
20.848	13.486	1064.915	809.990
21.863	13.236	1063.968	807.976
22.877	13.200	1063.071	807.049
23.892	13.060	1062.654	805.975
24.907	13.036	1062.053	805.333
25.921	13.170	1060.779	804.949
26.936	13.189	1060.643	804.865
27.950	13.374	1058.822	804.310
28.965	13.314	1058.330	803.574
29.980	13.365	1056.747	802.548
30.994	13.403	1055.706	801.874
32.009	13.403	1054.807	801.117
33.023	13.272	1054.161	799.925
34.038	13.367	1052.745	799.239
35.053	13.249	1051.942	797.988
36.067	13.140	1051.217	796.839
37.082	13.336	1050.020	796.809
38.096	13.373	1049.466	796.494
39.111	13.465	1048.576	796.193
40.126	13.212	1047.611	794.172
41.140	13.191	1046.446	793.119
42.155	13.102	1045.022	791.544
43.169	13.111	1044.553	791.158
44.184	13.077	1043.333	790.001
45.199	13.060	1042.356	789.110
46.213	13.080	1041.258	788.304
47.228	13.225	1040.337	788.232
48.242	13.070	1039.370	786.691
49.257	13.252	1038.284	786.665
50.271	13.305	1036.986	785.862
51.286	13.296	1036.440	785.336
52.301	13.233	1035.446	784.215
53.315	13.103	1034.638	782.920
54.330	13.147	1033.592	782.266
55.344	13.193	1032.584	781.654
56.359	13.144	1031.657	780.650
57.374	13.216	1030.667	780.169
58.388	13.194	1030.000	779.492
59.403	13.032	1029.476	778.262
60.417	13.222	1028.426	778.295
61.432	13.140	1027.723	777.308
62.447	13.099	1026.742	776.307
63.461	13.152	1026.048	775.961
64.476	12.974	1025.134	774.367
65.490	12.872	1024.921	773.660
66.505	13.077	1023.821	773.721
67.520	13.099	1022.801	772.985
68.534	13.105	1022.378	772.622
69.549	13.036	1021.905	771.874
70.563	13.095	1020.478	771.004
71.578	13.034	1019.805	770.143
72.593	13.071	1018.967	769.616
73.607	13.025	1018.661	769.101
74.622	12.922	1018.325	768.300
75.636	12.941	1017.308	767.554
76.651	12.996	1016.330	767.002
77.666	13.024	1016.329	767.062
78.680	13.102	1014.938	766.310
79.695	13.025	1014.613	765.636
80.709	13.058	1014.073	765.314
81.724	13.161	1013.421	765.235
82.739	13.104	1012.683	764.344
83.753	13.140	1011.324	763.418
84.768	13.295	1010.676	763.575
85.782	13.260	1010.208	762.995
86.797	13.211	1008.792	761.632
87.812	13.231	1007.923	761.001
88.826	13.263	1007.199	760.531
89.841	13.296	1005.866	759.610
90.855	13.284	1005.603	759.293
91.870	13.314	1004.453	758.492
92.884	13.256	1003.669	757.566
93.899	13.375	1002.849	757.427
94.914	13.350	1002.001	756.603
95.928	13.491	1001.017	756.440
96.943	13.395	1000.144	755.276
97.957	13.178	999.990	754.102
98.972	13.302	998.805	753.705
99.987	13.367	997.644	753.061
101.001	13.420	996.802	752.599
102.016	13.298	995.808	751.227
103.030	13.238	995.193	750.422
104.045	13.387	994.436	750.462
105.060	13.327	993.282	749.253
106.074	13.287	992.159	748.161
107.089	13.204	991.158	746.960
108.103	13.175	990.512	746.280
109.118	13.159	990.009	745.760
110.133	13.182	988.671	744.791
111.147	13.213	987.610	744.065
112.162	13.226	986.945	743.556
113.176	13.278	985.880	742.922
114.191	13.238	985.408	742.321
115.206	13.253	984.328	741.509
116.220	13.234	983.807	740.964
117.235	13.345	982.793	740.632
118.249	13.220	981.918	739.348
119.264	13.169	981.612	738.827
120.279	13.234	980.453	738.178
121.293	13.181	979.678	737.291
122.308	13.205	978.738	736.626
123.322	13.236	977.647	735.878
124.337	13.136	977.022	734.900
125.352	13.158	975.680	733.923
126.366	13.205	974.420	733.119
127.381	13.213	973.637	732.500
128.395	13.214	972.884	731.873
129.410	13.169	971.844	730.827
130.424	13.357	970.879	730.867
131.439	13.300	970.197	730.037
132.454	13.243	969.439	729.150
133.468	13.291	969.018	728.983
134.483	13.206	967.947	727.738
135.497	13.326	966.849	727.374
136.512	13.277	966.021	726.473
137.527	13.324	965.404	726.149
138.541	13.219	964.758	725.140
139.556	13.279	963.951	724.731
140.570	13.263	963.439	724.213
141.585	13.457	962.507	724.296
142.600	13.399	961.413	723.158
143.614	13.592	960.592	723.319
144.629	13.556	960.094	722.721
145.643	13.424	959.383	721.547
146.658	13.402	958.329	720.596
147.673	13.337	957.374	719.529
148.687	13.365	956.670	719.058
149.702	13.437	955.712	718.586
150.716	13.360	954.653	717.391
151.731	13.300	954.236	716.758
152.746	13.298	954.024	716.523
153.760	13.500	952.614	716.275
154.775	13.451	952.294	715.762
155.789	13.595	951.389	715.641
156.804	13.577	950.533	714.854
157.819	13.591	950.298	714.675
158.833	13.637	949.769	714.413
159.848	13.602	948.621	713.335
160.862	13.486	948.115	712.393
161.877	13.564	946.669	711.579
162.892	13.347	945.793	709.926
163.906	13.458	944.979	709.729
164.921	13.483	943.868	708.937
165.935	13.577	943.315	708.861
166.950	13.504	942.635	707.977
167.964	13.559	941.540	707.324
168.979	13.574	940.836	706.797
169.994	13.614	939.606	705.982
171.008	13.669	938.987	705.686
172.023	13.719	938.220	705.262
173.037	13.664	937.184	704.188
174.052	13.764	936.087	703.724
175.067	13.623	935.753	702.816
176.081	13.538	935.393	702.120
177.096	13.613	934.908	702.012
178.110	13.565	934.561	701.485
179.125	13.588	933.689	700.866
180.140	13.687	933.625	701.176
181.154	13.710	932.970	700.720
182.169	13.789	932.082	700.321
183.183	13.806	931.099	699.592
184.198	13.773	931.182	699.454
185.213	13.793	930.256	698.783
186.227	13.844	929.345	698.251
187.242	13.972	928.276	697.922
188.256	13.830	928.269	697.258
189.271	13.692	927.703	696.192
190.286	13.723	926.961	695.704
191.300	13.680	925.924	694.684
192.315	13.724	925.291	694.335
193.329	13.669	924.823	693.689
194.344	13.613	924.351	693.040
195.359	13.737	923.456	692.828
196.373	13.838	922.739	692.647
197.388	13.792	922.798	692.441
198.402	13.978	922.348	692.818
199.417	14.114	921.133	692.408
200.432	14.045	920.874	691.868
201.446	14.007	921.083	691.804
202.461	14.134	920.026	691.475
203.475	14.169	919.166	690.913
204.490	14.019	918.616	689.819
205.504	13.994	917.489	688.804
206.519	13.939	916.884	688.065
207.534	14.095	915.940	687.939
208.548	14.029	915.659	687.396
209.563	14.079	915.005	687.048
210.577	14.048	914.108	686.189
211.592	14.173	913.589	686.254
212.607	14.182	912.731	685.585
213.621	14.219	911.840	685.008
214.636	14.122	911.415	684.229
215.650	14.271	910.707	684.250
216.665	14.344	909.771	683.784
217.680	14.343	909.338	683.394
218.694	14.311	908.694	682.718
219.709	14.296	908.048	682.110
220.723	14.299	907.720	681.816
221.738	14.357	906.556	681.120
222.753	14.318	906.296	680.705
223.767	14.306	906.142	680.479
224.782	14.378	905.127	679.952
225.796	14.412	904.600	679.635
226.811	14.422	903.598	678.861
227.826	14.384	903.125	678.290
228.840	14.429	902.389	677.860
229.855	14.393	901.253	676.801
230.869	14.403	900.591	676.287
231.884	14.490	900.096	676.208
232.899	14.354	899.659	675.266
233.913	14.273	899.058	674.427
234.928	14.312	898.330	673.979
235.942	14.430	897.337	673.652
236.957	14.436	896.768	673.191
237.972	14.430	896.314	672.767
238.986	14.332	895.704	671.853
240.001	14.389	894.802	671.347
241.015	14.535	894.609	671.730
242.030	14.380	893.858	670.483
243.045	14.601	893.443	671.002
244.059	14.541	892.344	669.877
245.074	14.709	891.693	670.002
246.088	14.603	891.284	669.212
247.103	14.671	890.419	668.772
248.117	14.672	890.239	668.582
249.132	14.703	889.642	668.200
250.147	14.813	889.178	668.234
251.161	14.829	888.356	667.620
252.176	14.697	888.237	666.944
253.190	14.881	886.906	666.618
254.205	14.806	886.949	666.295
255.220	15.017	885.440	665.941
256.234	15.065	884.911	665.674
257.249	15.060	884.070	664.963
258.263	14.863	883.807	663.925
259.278	14.924	882.846	663.385
260.293	14.899	882.746	663.152
261.307	14.919	882.058	662.657
262.322	15.010	881.573	662.592
263.336	15.151	880.473	662.265
264.351	15.026	879.883	661.268
265.366	14.985	879.691	660.907
266.380	15.170	878.714	660.841
267.395	15.216	877.602	660.128
268.409	15.020	876.839	658.726
269.424	15.111	876.802	658.997
270.439	15.221	875.508	658.398
271.453	15.083	875.102	657.494
272.468	14.977	874.517	656.580
273.482	15.199	874.176	657.137
274.497	15.221	873.247	656.467
275.512	15.174	872.662	655.784
276.526	15.200	872.338	655.586
277.541	15.220	871.934	655.299
278.555	15.330	871.221	655.136
279.570	15.366	870.401	654.603
280.585	15.290	869.754	653.762
281.599	15.433	868.527	653.336
282.614	15.272	868.503	652.635
283.628	15.341	867.686	652.233
284.643	15.429	867.059	652.046
285.657	15.396	866.481	651.426
286.672	15.436	865.845	651.045
287.687	15.387	865.280	650.372
288.701	15.496	864.640	650.256
289.716	15.379	864.572	649.692
290.730	15.359	863.972	649.107
291.745	15.353	863.114	648.383
292.760	15.539	862.394	648.504
293.774	15.615	861.704	648.220
294.789	15.508	861.192	647.363
295.803	15.404	860.563	646.432
296.818	15.391	859.835	645.780
297.833	15.454	858.889	645.254
298.847	15.457	858.579	644.975
299.862	15.583	858.010	644.975
300.876	15.651	857.188	644.560
301.891	15.645	856.847	644.223
302.906	15.719	856.396	644.113
303.920	15.733	855.598	643.507
304.935	15.731	855.011	643.002
305.949	15.716	854.631	642.603
306.964	15.784	853.787	642.169
307.979	15.919	853.439	642.368
308.993	15.726	853.033	641.269
310.008	15.907	852.073	641.180
311.022	15.709	851.443	639.894
312.037	15.777	851.176	639.896
313.052	15.655	850.477	638.852
314.066	15.639	849.702	638.150
315.081	15.671	849.442	638.022
316.095	15.611	848.905	637.333
317.110	15.774	847.966	637.190
318.125	15.818	847.790	637.169
319.139	15.669	847.154	636.068
320.154	15.653	846.638	635.567
321.168	15.791	846.359	635.822
322.183	15.856	845.571	635.419
323.197	15.866	845.000	634.972
324.212	15.893	844.451	634.604
325.227	15.803	844.204	634.024
326.241	15.796	843.420	633.350
327.256	15.794	842.824	632.839
328.270	15.970	842.182	632.962
329.285	15.750	841.800	631.796
330.300	15.789	841.337	631.537
331.314	15.905	840.536	631.317
332.329	15.906	840.133	630.961
333.343	15.963	839.778	630.853
334.358	16.002	839.133	630.457
335.373	15.893	838.888	629.809
336.387	15.952	838.981	630.045
337.402	16.153	838.220	630.168
338.416	16.178	837.665	629.788
339.431	15.981	837.488	628.865
340.446	16.287	836.612	629.292
341.460	16.277	836.499	629.115
342.475	16.191	836.337	628.615
343.489	16.293	835.621	628.402
344.504	16.184	835.237	627.652
345.519	16.349	834.628	627.752
346.533	16.371	834.282	627.517
347.548	16.314	833.912	626.970
348.562	16.161	833.343	625.921
349.577	16.284	832.618	625.776
350.592	16.235	831.867	624.977
351.606	16.422	831.159	625.081
352.621	16.213	830.701	623.907
353.635	16.244	830.094	623.511
354.650	16.352	829.177	623.167
355.665	16.253	829.135	622.714
356.679	16.444	828.572	622.942
357.694	16.370	827.884	622.097
358.708	16.344	827.171	621.410
359.723	16.377	826.739	621.151
360.738	16.339	825.971	620.380
361.752	16.521	825.087	620.327
362.767	16.471	824.903	619.954
363.781	16.540	824.178	619.606
364.796	16.679	823.417	619.485
365.810	16.680	823.619	619.589
366.825	16.719	822.702	618.985
367.840	16.667	822.431	618.538
368.854	16.612	822.119	618.045
369.869	16.551	821.655	617.420
370.883	16.679	820.799	617.189
371.898	16.618	820.721	616.852
372.913	16.824	820.292	617.227
373.927	16.823	819.283	616.409
374.942	16.689	819.481	616.017
375.956	16.783	819.375	616.223
376.971	16.799	818.374	615.475
377.986	16.962	818.118	615.819
379.000	16.788	817.582	614.729
380.015	16.855	817.037	614.510
381.029	16.976	816.412	614.422
382.044	16.872	815.935	613.634
383.059	16.992	815.433	613.634
384.073	16.925	814.608	612.718
385.088	16.917	814.305	612.407
386.102	16.860	813.607	611.622
387.117	16.842	812.884	610.959
388.132	16.953	812.262	610.838
389.146	16.911	811.960	610.405
390.161	16.898	811.440	609.915
391.175	16.986	810.806	609.699
392.190	16.922	810.847	609.448
393.205	16.999	810.321	609.275
394.219	16.897	810.182	608.750
395.234	17.036	809.148	608.415
396.248	17.092	808.703	608.230
397.263	16.845	808.547	607.175
398.278	16.951	808.310	607.322
399.292	17.080	807.431	607.069
400.307	17.099	807.122	606.851
401.321	17.112	806.902	606.676
402.336	16.988	806.432	605.828
403.350	17.048	805.692	605.433
404.365	17.212	804.896	605.366
405.380	17.232	804.661	605.206
406.394	17.164	804.480	604.775
407.409	17.189	804.053	604.488
408.423	17.390	803.584	604.795
409.438	17.334	802.947	604.066
410.453	17.260	802.723	603.578
411.467	17.405	802.520	603.887
412.482	17.396	801.696	603.183
413.496	17.464	801.523	603.239
414.511	17.495	801.125	602.997
415.526	17.390	800.886	602.394
416.540	17.414	800.226	601.926
417.555	17.317	799.814	601.222
418.569	17.416	799.303	601.135
419.584	17.463	798.916	600.955
420.599	17.609	798.236	600.907
421.613	111.325	1295.302	1477.988
422.628	95.817	1367.706	1478.073
