DTS Sentinel unit serial number:	SN413079Multiplexer serial number:	ORYXHardware model number:	OX4-SRSoftware version number:	ORYX F/W v4.00 Oryx Data Collector v3.7.2.0data status	okinstallation	princeton_trtdifferential loss correction	single-endedforward channel	channel 1reverse channel	N/Adate	2019/09/14time	10:58:35forward acquisition time	60.00reverse acquisition time	0.00gamma	496.2192k internal	0.2299k external	0.2299temperature offset calibration	1.0082default loss term (dB/km)	0.3790temperature slope calibration	1.0000multiplexer offset coefficient	1.0000multiplexer slope coefficient	1.0000fibre end	0.00T internal ref (°C)	35.91T ext. ref 1 (°C)	4.35T ext. ref 2 (°C)	33.65length (m)	temperature (°C)	Stokes	anti-Stokes-747.200	800.000	0.053	-0.151
-746.185	-143.607	0.202	-0.020
-745.171	-200.000	-0.009	0.266
-744.156	-30.941	-0.335	0.193
-743.142	6.537	0.222	0.169
-742.127	200.782	-0.114	0.179
-741.112	800.000	-0.078	0.246
-740.098	-19.813	-0.040	0.025
-739.083	-91.094	0.023	0.007
-738.069	-200.000	0.003	0.394
-737.054	800.000	0.131	0.502
-736.039	7.312	-0.274	-0.208
-735.025	-71.509	-0.105	-0.040
-734.010	-114.944	-0.251	-0.049
-732.996	-57.112	0.183	0.082
-731.981	800.000	0.073	-0.284
-730.966	-44.202	-0.122	-0.062
-729.952	52.415	0.177	0.172
-728.937	-96.471	0.060	0.016
-727.923	71.458	0.106	-0.112
-726.908	-76.611	0.138	0.049
-725.894	800.000	-0.035	-0.113
-724.879	762.592	-0.091	-0.250
-723.864	107.981	-0.219	-0.267
-722.850	122.964	0.135	-0.172
-721.835	139.353	0.100	-0.134
-720.821	309.282	-0.035	0.066
-719.806	-105.915	0.234	-0.054
-718.791	352.010	0.131	-0.264
-717.777	-15.023	-0.102	-0.067
-716.762	-9.681	-0.262	-0.178
-715.748	-200.000	0.019	0.356
-714.733	140.745	-0.053	0.071
-713.718	-91.124	-0.179	-0.052
-712.704	-112.409	-0.435	0.089
-711.689	-200.000	0.010	-0.077
-710.675	229.671	0.044	0.073
-709.660	-135.545	0.249	-0.030
-708.645	-200.000	0.115	-0.559
-707.631	203.586	0.107	-0.169
-706.616	-200.000	-0.171	0.001
-705.602	289.567	-0.184	-0.341
-704.587	-0.789	-0.302	0.218
-703.572	749.441	0.033	0.091
-702.558	-117.225	0.291	-0.054
-701.543	800.000	0.030	-0.100
-700.529	101.691	-0.157	0.186
-699.514	-50.055	0.124	-0.060
-698.499	-68.460	-0.547	0.216
-697.485	-11.966	-0.136	0.091
-696.470	-145.098	0.222	0.021
-695.456	243.212	0.282	-0.481
-694.441	-140.929	0.050	0.005
-693.426	-200.000	0.050	-0.286
-692.412	548.604	-0.095	-0.231
-691.397	-16.709	-0.112	0.072
-690.383	-1.365	-0.068	0.049
-689.368	-36.514	0.032	0.018
-688.354	499.900	0.007	-0.016
-687.339	-200.000	0.007	-0.187
-686.324	-89.264	-0.075	-0.023
-685.310	-200.000	0.029	0.167
-684.295	228.808	-0.119	0.197
-683.281	-200.000	0.002	-0.118
-682.266	481.718	0.085	-0.196
-681.251	-8.570	-0.115	0.079
-680.237	-56.532	-0.413	-0.186
-679.222	313.098	-0.176	-0.337
-678.208	106.513	-0.236	-0.285
-677.193	223.680	-0.145	-0.238
-676.178	8.768	-0.343	-0.263
-675.164	-95.510	0.195	0.053
-674.149	36.184	0.453	0.406
-673.135	-155.147	-0.305	0.020
-672.120	-2.164	-0.266	-0.190
-671.105	37.601	-0.203	-0.184
-670.091	800.000	-0.046	0.168
-669.076	-77.921	0.144	-0.051
-668.062	-200.000	0.028	-0.129
-667.047	-86.277	0.156	0.049
-666.032	402.888	-0.037	-0.079
-665.018	-62.903	0.119	0.050
-664.003	-68.733	-0.122	0.048
-662.989	-200.000	0.008	-0.096
-661.974	112.590	0.097	-0.120
-660.959	45.061	-0.257	-0.241
-659.945	-129.266	0.151	-0.021
-658.930	-131.041	-0.149	0.020
-657.916	-28.963	-0.144	-0.084
-656.901	-98.570	0.167	-0.043
-655.886	359.496	-0.051	-0.104
-654.872	800.000	0.131	0.373
-653.857	-200.000	0.002	0.101
-652.843	-58.420	-0.218	0.096
-651.828	247.829	0.103	-0.177
-650.814	-63.493	-0.403	0.168
-649.799	553.978	0.104	-0.253
-648.784	56.310	0.072	0.071
-647.770	-162.759	-0.102	0.005
-646.755	-78.307	0.320	0.112
-645.741	202.346	-0.069	-0.108
-644.726	-26.674	-0.389	0.231
-643.711	115.696	0.052	0.065
-642.697	-41.452	0.380	-0.199
-641.682	-86.631	-0.272	0.085
-640.668	-25.293	0.208	0.125
-639.653	-63.519	-0.138	-0.057
-638.638	235.056	-0.192	-0.322
-637.624	98.643	-0.197	0.231
-636.609	54.101	-0.279	0.272
-635.595	-29.451	-0.105	0.061
-634.580	-142.377	0.144	-0.014
-633.565	-159.372	-0.190	-0.011
-632.551	-200.000	0.015	0.338
-631.536	-123.615	-0.130	-0.021
-630.522	298.421	-0.051	0.095
-629.507	91.384	0.164	-0.187
-628.492	-4.349	0.362	-0.254
-627.478	-200.000	0.020	-0.272
-626.463	252.889	-0.069	-0.120
-625.449	25.689	-0.044	0.037
-624.434	-200.000	0.006	-0.378
-623.419	-192.866	-0.110	-0.001
-622.405	-200.000	-0.045	0.277
-621.390	800.000	-0.090	0.264
-620.376	-67.564	-0.162	0.064
-619.361	21.492	0.055	-0.045
-618.346	-200.000	-0.092	-0.455
-617.332	174.310	0.024	0.036
-616.317	82.580	0.258	0.284
-615.303	73.486	-0.145	0.154
-614.288	-119.308	-0.189	0.033
-613.273	-200.000	-0.040	-0.184
-612.259	-36.926	0.154	0.084
-611.244	-131.468	-0.194	-0.026
-610.230	-200.000	0.046	0.241
-609.215	-79.230	-0.164	0.056
-608.201	3.317	-0.048	0.035
-607.186	77.044	0.199	0.215
-606.171	287.354	-0.072	-0.132
-605.157	389.846	0.072	0.152
-604.142	98.657	-0.078	-0.092
-603.128	-200.000	-0.036	0.176
-602.113	-200.000	0.013	0.082
-601.098	-64.679	0.273	0.112
-600.084	-188.517	-0.180	-0.002
-599.069	-41.278	0.224	-0.117
-598.055	21.567	-0.209	-0.173
-597.040	-57.785	0.194	-0.086
-596.025	348.219	0.080	-0.160
-595.011	-77.051	-0.235	-0.083
-593.996	-109.192	-0.422	-0.091
-592.982	-24.658	-0.196	0.118
-591.967	800.000	-0.052	0.145
-590.952	-96.655	-0.191	0.051
-589.938	-93.557	0.293	0.082
-588.923	1.853	0.265	-0.194
-587.909	40.772	-0.290	0.265
-586.894	105.394	0.085	0.101
-585.879	429.023	0.052	-0.114
-584.865	800.000	-0.069	-0.236
-583.850	-34.547	0.324	0.180
-582.836	-22.937	0.122	-0.075
-581.821	-35.226	0.074	-0.041
-580.806	164.041	-0.089	0.127
-579.792	800.000	0.052	0.157
-578.777	800.000	0.065	-0.267
-577.763	-64.177	0.317	-0.131
-576.748	17.481	-0.057	-0.046
-575.733	55.693	-0.113	0.111
-574.719	224.299	-0.111	0.182
-573.704	65.361	-0.181	-0.186
-572.690	-41.457	-0.236	0.123
-571.675	-148.514	0.162	-0.013
-570.661	-104.447	-0.320	-0.075
-569.646	-200.000	0.024	-0.193
-568.631	-31.206	-0.182	0.104
-567.617	727.273	-0.161	0.434
-566.602	154.533	-0.242	-0.336
-565.588	-79.381	-0.138	0.047
-564.573	-49.874	-0.235	0.113
-563.558	194.536	0.164	-0.252
-562.544	-200.000	-0.033	-0.322
-561.529	800.000	-0.005	0.016
-560.515	296.881	0.054	0.101
-559.500	-166.213	0.200	0.009
-558.485	-86.257	-0.325	0.101
-557.471	-64.899	-0.472	0.193
-556.456	132.172	0.107	-0.140
-555.442	224.573	0.136	-0.223
-554.427	-200.000	0.035	0.402
-553.412	-141.575	-0.176	-0.018
-552.398	102.110	-0.271	0.321
-551.383	300.534	0.089	0.165
-550.369	800.000	-0.053	-0.151
-549.354	82.044	-0.201	-0.221
-548.339	-113.385	-0.059	-0.012
-547.325	73.641	0.158	-0.168
-546.310	275.898	-0.056	0.100
-545.296	-110.335	-0.217	0.046
-544.281	41.605	0.095	0.087
-543.266	324.408	0.017	0.033
-542.252	-176.351	-0.168	-0.004
-541.237	-32.758	0.106	-0.060
-540.223	166.260	0.153	-0.219
-539.208	177.146	0.151	-0.223
-538.193	-33.936	-0.245	-0.137
-537.179	-182.136	-0.099	0.002
-536.164	138.571	-0.011	0.015
-535.150	-110.185	-0.287	0.061
-534.135	800.000	-0.045	0.127
-533.121	-200.000	-0.025	-0.260
-532.106	127.279	-0.273	-0.351
-531.091	136.588	0.159	-0.210
-530.077	-92.457	-0.052	0.015
-529.062	800.000	0.008	-0.025
-528.048	284.108	-0.102	-0.185
-527.033	-200.000	-0.013	-0.156
-526.018	-200.000	-0.033	-0.195
-525.004	194.920	-0.158	-0.243
-523.989	-60.673	0.037	-0.016
-522.975	-6.407	-0.056	-0.039
-521.960	-105.430	0.298	0.068
-520.945	280.658	-0.191	0.346
-519.931	-1.264	0.188	-0.135
-518.916	800.000	0.039	-0.159
-517.902	-89.790	-0.129	0.038
-516.887	43.578	0.512	0.474
-515.872	-15.380	-0.036	0.023
-514.858	393.125	-0.047	-0.098
-513.843	156.860	0.050	0.069
-512.829	-200.000	0.043	-0.337
-511.814	619.279	-0.051	0.130
-510.799	-53.486	0.325	0.150
-509.785	-200.000	0.020	0.123
-508.770	-4.209	-0.136	0.095
-507.756	-134.653	-0.071	-0.009
-506.741	-24.241	0.175	-0.106
-505.726	-140.460	0.435	0.046
-504.712	-200.000	-0.024	-0.373
-503.697	72.342	0.278	0.293
-502.683	-81.358	0.136	0.045
-501.668	-27.268	-0.174	0.102
-500.653	-64.882	-0.168	-0.069
-499.639	-90.918	-0.259	-0.075
-498.624	44.537	-0.219	-0.203
-497.610	169.304	0.087	-0.126
-496.595	800.000	0.061	0.207
-495.581	800.000	-0.044	0.139
-494.566	800.000	0.037	0.154
-493.551	106.817	-0.231	0.276
-492.537	-66.764	-0.058	-0.023
-491.522	430.174	0.062	-0.134
-490.508	-105.747	-0.258	-0.059
-489.493	-38.644	0.118	0.063
-488.478	98.103	0.256	-0.297
-487.464	3.820	-0.109	-0.080
-486.449	800.000	-0.043	-0.120
-485.435	800.000	-0.034	-0.105
-484.420	-77.193	0.020	0.007
-483.405	350.384	0.178	-0.356
-482.391	455.320	-0.087	0.196
-481.376	76.085	0.068	-0.073
-480.362	88.825	-0.173	-0.195
-479.347	-7.338	0.011	-0.007
-478.332	-8.629	-0.309	-0.210
-477.318	360.664	0.081	-0.164
-476.303	773.922	0.094	0.258
-475.289	365.456	0.190	0.387
-474.274	64.642	-0.081	-0.083
-473.259	13.737	0.272	-0.214
-472.245	-200.000	-0.019	-0.099
-471.230	-35.792	-0.125	0.068
-470.216	73.401	0.196	-0.207
-469.201	-200.000	-0.031	-0.235
-468.186	99.546	0.096	-0.112
-467.172	-29.275	0.267	0.154
-466.157	-9.955	0.130	0.087
-465.143	132.288	-0.115	-0.149
-464.128	-33.870	-0.133	0.074
-463.113	800.000	-0.060	-0.197
-462.099	164.007	0.171	0.243
-461.084	-99.069	0.253	0.065
-460.070	30.586	0.029	0.025
-459.055	333.219	-0.064	-0.126
-458.040	380.500	-0.062	0.129
-457.026	-38.521	0.207	0.110
-456.011	-200.000	-0.065	-0.431
-454.997	183.269	0.142	-0.212
-453.982	-64.368	0.371	0.152
-452.968	9.560	0.138	-0.105
-451.953	313.696	0.109	-0.206
-450.938	-56.972	0.115	-0.051
-449.924	-69.853	0.390	0.150
-448.909	-6.049	0.169	0.116
-447.895	-34.853	-0.177	-0.098
-446.880	-200.000	0.027	0.209
-445.865	13.162	-0.142	-0.111
-444.851	618.624	-0.048	-0.122
-443.836	60.606	0.142	0.142
-442.822	800.000	0.128	0.378
-441.807	-102.919	-0.068	-0.016
-440.792	-174.427	0.311	-0.009
-439.778	-62.133	-0.067	-0.028
-438.763	800.000	0.029	0.113
-437.749	83.147	-0.098	0.108
-436.734	-4.189	-0.144	0.100
-435.719	-89.657	0.208	-0.062
-434.705	-52.787	-0.147	-0.068
-433.690	-188.202	0.258	-0.003
-432.676	24.876	-0.029	-0.024
-431.661	90.508	0.109	0.123
-430.646	-200.000	-0.008	-0.146
-429.632	238.103	-0.024	-0.040
-428.617	-94.890	-0.119	-0.032
-427.603	377.853	-0.082	-0.170
-426.588	-106.660	0.221	0.049
-425.573	-200.000	0.027	0.188
-424.559	-193.907	0.162	0.001
-423.544	-196.382	0.145	0.001
-422.530	69.718	0.185	0.192
-421.515	800.000	0.064	-0.227
-420.500	81.809	-0.131	-0.143
-419.486	-200.000	0.002	0.072
-418.471	158.491	0.139	-0.194
-417.457	-200.000	0.016	0.201
-416.442	750.547	0.084	0.229
-415.428	-115.903	0.145	-0.027
-414.413	-98.035	-0.204	0.053
-413.398	413.506	-0.069	-0.149
-412.384	-24.965	-0.112	0.067
-411.369	636.013	-0.057	0.146
-410.355	296.459	-0.105	0.193
-409.340	66.279	-0.250	0.256
-408.325	800.000	-0.029	-0.090
-407.311	241.013	0.139	-0.234
-406.296	-68.635	-0.326	0.127
-405.282	-200.000	0.002	-0.069
-404.267	-28.329	0.188	0.109
-403.252	800.000	-0.044	0.167
-402.238	-104.952	-0.261	0.060
-401.223	-93.967	0.263	-0.073
-400.209	-200.000	-0.035	-0.310
-399.194	800.000	-0.023	-0.077
-398.179	-96.551	0.077	0.021
-397.165	-126.481	0.070	-0.010
-396.150	-83.398	0.221	0.071
-395.136	-6.607	0.062	-0.043
-394.121	-200.000	-0.013	0.093
-393.106	-200.000	-0.035	-0.221
-392.092	-23.259	0.072	0.044
-391.077	-200.000	0.045	0.227
-390.063	687.508	-0.050	-0.132
-389.048	243.816	0.077	-0.130
-388.033	610.500	-0.120	-0.301
-387.019	-200.000	0.025	0.241
-386.004	-114.496	-0.360	-0.069
-384.990	-23.827	-0.188	0.114
-383.975	-61.631	0.127	0.053
-382.960	-200.000	-0.009	0.064
-381.946	153.454	-0.034	0.046
-380.931	-0.248	0.193	0.138
-379.917	-55.290	-0.256	0.116
-378.902	36.806	0.097	-0.086
-377.888	-164.314	0.403	0.019
-376.873	-17.495	0.248	0.157
-375.858	645.970	-0.042	-0.107
-374.844	-73.554	-0.204	0.075
-373.829	-200.000	-0.023	0.193
-372.815	20.197	-0.162	-0.131
-371.800	-159.344	-0.224	-0.013
-370.785	-163.804	-0.261	0.012
-369.771	800.000	-0.064	-0.283
-368.756	257.317	0.033	0.056
-367.742	218.742	-0.114	0.183
-366.727	-185.170	0.453	0.007
-365.712	100.682	0.078	-0.091
-364.698	42.594	-0.133	-0.121
-363.683	-153.476	0.248	0.017
-362.669	-3.610	0.258	-0.180
-361.654	165.557	-0.109	-0.154
-360.639	137.686	0.057	-0.075
-359.625	-145.036	0.136	-0.012
-358.610	74.665	-0.249	0.264
-357.596	800.000	0.086	0.341
-356.581	-124.230	-0.198	0.031
-355.566	34.025	-0.043	-0.037
-354.552	-56.140	-0.152	-0.068
-353.537	81.024	-0.313	0.340
-352.523	128.668	-0.153	0.196
-351.508	377.931	-0.030	0.061
-350.493	-200.000	0.002	0.133
-349.479	-200.000	0.031	0.157
-348.464	98.475	0.161	-0.187
-347.450	82.559	0.266	0.290
-346.435	-142.770	0.195	-0.019
-345.420	351.980	-0.091	0.182
-344.406	-10.030	0.195	0.130
-343.391	800.000	-0.034	0.132
-342.377	-121.998	-0.202	-0.033
-341.362	170.049	0.103	-0.148
-340.348	-123.740	0.267	-0.043
-339.333	18.134	0.191	-0.153
-338.318	-156.916	0.144	0.009
-337.304	205.761	-0.039	0.061
-336.289	-200.000	0.021	-0.165
-335.275	-127.743	0.089	0.013
-334.260	-96.601	-0.222	-0.059
-333.245	36.656	0.109	-0.097
-332.231	-44.162	-0.161	-0.081
-331.216	4.299	0.272	-0.200
-330.202	-183.086	-0.139	0.002
-329.187	736.305	-0.073	-0.196
-328.172	96.783	0.107	-0.124
-327.158	-64.768	-0.053	-0.022
-326.143	-9.072	-0.216	-0.145
-325.129	405.277	0.122	0.258
-324.114	-24.163	0.067	0.040
-323.099	41.327	0.148	0.135
-322.085	-129.679	-0.244	-0.034
-321.070	-35.917	-0.152	-0.083
-320.056	551.374	-0.152	-0.367
-319.041	364.924	0.143	0.289
-318.026	-86.619	-0.064	0.020
-317.012	-140.241	0.109	0.011
-315.997	15.367	-0.091	0.072
-314.983	-111.536	-0.262	0.053
-313.968	94.496	-0.072	-0.082
-312.953	54.941	0.138	0.134
-311.939	-74.638	-0.098	0.035
-310.924	216.942	0.066	0.106
-309.910	-32.677	-0.165	-0.092
-308.895	-76.589	0.130	-0.046
-307.880	386.868	0.195	-0.404
-306.866	677.686	-0.073	-0.191
-305.851	-200.000	0.308	-0.001
-304.837	-78.163	0.253	-0.087
-303.822	-200.000	0.024	0.362
-302.807	-200.000	-0.024	-0.209
-301.793	13.129	-0.082	-0.063
-300.778	-155.845	0.186	0.012
-299.764	101.137	0.208	-0.242
-298.749	800.000	-0.025	-0.094
-297.735	20.652	-0.129	-0.105
-296.720	131.858	0.101	-0.130
-295.705	-43.668	-0.126	-0.064
-294.691	320.837	0.079	0.151
-293.676	44.789	-0.257	0.237
-292.662	-200.000	0.028	0.497
-291.647	-200.000	0.038	0.467
-290.632	86.116	-0.045	-0.049
-289.618	-200.000	-0.024	0.255
-288.603	580.973	0.058	-0.143
-287.589	51.673	0.203	0.193
-286.574	111.982	-0.278	-0.336
-285.559	3.537	-0.336	0.246
-284.545	-175.770	0.496	-0.013
-283.530	-101.704	0.224	-0.055
-282.516	-180.581	0.114	-0.002
-281.501	-200.000	0.001	0.235
-280.486	249.928	0.075	0.128
-279.472	224.641	-0.081	0.130
-278.457	-2.580	0.246	0.173
-277.443	-200.000	0.031	0.155
-276.428	-119.874	0.299	0.052
-275.413	-66.177	0.064	0.026
-274.399	-39.179	0.468	-0.246
-273.384	-47.919	0.069	0.034
-272.370	800.000	0.029	-0.119
-271.355	-56.535	0.100	0.044
-270.340	-82.382	0.413	0.135
-269.326	-200.000	0.004	0.161
-268.311	-132.308	-0.311	0.040
-267.297	17.241	0.187	0.149
-266.282	742.082	0.059	-0.160
-265.267	110.335	0.115	-0.138
-264.253	765.070	0.164	-0.447
-263.238	104.304	0.258	-0.304
-262.224	-110.144	-0.345	0.072
-261.209	-6.940	-0.213	-0.145
-260.195	417.104	0.018	-0.039
-259.180	727.808	-0.049	0.130
-258.165	161.059	-0.214	0.300
-257.151	144.679	0.097	-0.129
-256.136	-11.862	0.222	0.146
-255.122	-54.148	0.045	0.020
-254.107	152.460	0.141	0.192
-253.092	-125.919	-0.230	-0.035
-252.078	-29.665	-0.444	-0.254
-251.063	-200.000	-0.012	-0.064
-250.049	-200.000	-0.032	0.200
-249.034	-72.666	-0.546	0.202
-248.019	-151.945	-0.317	0.023
-247.005	-137.736	0.394	-0.044
-245.990	-128.019	-0.031	-0.004
-244.976	-200.000	0.055	0.293
-243.961	-200.000	0.015	-0.186
-242.946	800.000	0.080	0.277
-241.932	-200.000	-0.000	0.263
-240.917	23.578	-0.185	-0.152
-239.903	55.247	-0.397	0.384
-238.888	104.297	-0.087	0.102
-237.873	129.872	-0.121	-0.154
-236.859	38.022	0.261	0.232
-235.844	86.855	-0.267	0.295
-234.830	-2.494	0.365	-0.256
-233.815	-200.000	0.011	0.079
-232.800	43.447	0.094	-0.086
-231.786	-200.000	-0.009	0.285
-230.771	-28.907	-0.229	0.132
-229.757	-9.122	-0.152	-0.102
-228.742	-24.814	-0.232	0.138
-227.727	-18.028	0.279	0.175
-226.713	20.193	-0.359	-0.290
-225.698	-186.486	-0.123	-0.002
-224.684	22.291	-0.117	-0.095
-223.669	800.000	0.101	-0.330
-222.655	-200.000	-0.060	-0.328
-221.640	-114.958	0.110	-0.021
-220.625	7.976	0.145	0.108
-219.611	-129.961	0.159	-0.022
-218.596	591.098	0.095	-0.233
-217.582	274.423	-0.052	0.091
-216.567	-137.282	-0.241	0.027
-215.552	-35.163	-0.156	-0.085
-214.538	-200.000	0.017	-0.194
-213.523	-200.000	-0.344	-0.001
-212.509	-116.264	-0.040	0.007
-211.494	-23.220	-0.356	-0.214
-210.479	3.536	-0.220	0.160
-209.465	-200.000	-0.027	0.209
-208.450	206.947	-0.211	0.329
-207.436	-109.613	0.187	-0.039
-206.421	488.137	0.122	-0.278
-205.406	40.438	0.088	-0.079
-204.392	-12.132	-0.140	-0.091
-203.377	170.269	0.021	0.030
-202.363	800.000	-0.052	-0.191
-201.348	-158.913	0.232	-0.013
-200.333	111.356	-0.075	0.091
-199.319	183.785	0.173	0.255
-198.304	800.000	0.104	0.402
-197.290	800.000	-0.064	-0.188
-196.275	570.872	0.070	0.171
-195.260	-81.809	0.272	-0.089
-194.246	61.171	-0.019	-0.019
-193.231	77.769	-0.173	0.184
-192.217	360.381	-0.230	-0.461
-191.202	-200.000	-0.049	-0.259
-190.187	-106.944	0.075	-0.017
-189.173	800.000	0.100	-0.286
-188.158	-200.000	0.014	0.304
-187.144	800.000	-0.079	-0.267
-186.129	-200.000	0.013	0.148
-185.114	-200.000	0.006	0.149
-184.100	58.314	0.035	0.034
-183.085	-70.407	0.236	0.089
-182.071	-102.237	0.153	0.037
-181.056	41.117	0.059	0.053
-180.042	337.088	-0.142	0.275
-179.027	8.772	0.161	0.121
-178.012	-119.268	-0.075	0.013
-176.998	62.426	-0.082	-0.081
-175.983	-103.780	0.150	0.035
-174.969	28.364	-0.054	-0.045
-173.954	-116.036	-0.255	0.047
-172.939	157.586	0.065	-0.089
-171.925	-163.019	0.319	0.015
-170.910	-139.519	-0.092	0.010
-169.896	-142.988	-0.106	-0.010
-168.881	-200.000	-0.018	0.405
-167.866	-200.000	-0.038	0.324
-166.852	-200.000	-0.012	-0.116
-165.837	245.736	0.170	-0.286
-164.823	-59.901	-0.149	-0.063
-163.808	502.167	0.079	0.183
-162.793	-200.000	0.025	-0.290
-161.779	-170.653	0.175	0.006
-160.764	96.692	-0.269	-0.308
-159.750	162.709	0.076	-0.106
-158.735	246.574	-0.115	-0.193
-157.720	-142.908	0.260	0.025
-156.706	39.903	-0.057	0.051
-155.691	-6.974	0.065	0.044
-154.677	-200.000	0.044	-0.227
-153.662	6.556	-0.312	-0.231
-152.647	-66.341	0.339	-0.134
-151.633	-118.163	-0.209	0.037
-150.618	727.988	0.062	0.164
-149.604	22.876	-0.250	-0.204
-148.589	129.811	-0.141	0.180
-147.574	-145.849	-0.187	-0.017
-146.560	96.392	0.052	-0.060
-145.545	-200.000	-0.019	-0.241
-144.531	-122.512	-0.248	0.040
-143.516	800.000	-0.055	-0.175
-142.502	432.706	0.059	0.128
-141.487	800.000	-0.065	0.202
-140.472	-4.884	0.227	0.156
-139.458	-200.000	0.029	-0.332
-138.443	-44.224	-0.067	0.033
-137.429	-165.420	0.217	0.009
-136.414	-55.685	-0.112	-0.050
-135.399	-55.269	0.169	0.076
-134.385	-154.463	-0.038	0.003
-133.370	-40.117	-0.207	0.107
-132.356	169.451	-0.036	0.051
-131.341	800.000	0.015	0.050
-130.326	-200.000	0.009	0.042
-129.312	800.000	0.025	-0.109
-128.297	48.578	0.134	0.125
-127.283	-92.582	-0.194	0.054
-126.268	-112.299	0.503	-0.100
-125.253	-117.677	0.215	-0.038
-124.239	-200.000	-0.050	0.249
-123.224	-137.579	-0.105	-0.012
-122.210	284.318	-0.175	0.314
-121.195	249.882	0.056	0.095
-120.180	-78.921	-0.260	0.088
-119.166	72.728	-0.079	-0.082
-118.151	196.886	0.055	0.084
-117.137	28.038	-0.313	0.263
-116.122	800.000	-0.021	0.060
-115.107	-90.040	-0.085	0.025
-114.093	112.802	-0.193	0.233
-113.078	-72.152	0.253	-0.093
-112.064	680.194	-0.052	0.135
-111.049	118.494	0.110	-0.135
-110.034	20.623	-0.122	0.099
-109.020	4.220	-0.238	-0.174
-108.005	-190.054	0.451	-0.005
-106.991	-5.249	-0.088	-0.060
-105.976	774.695	-0.101	-0.275
-104.962	32.480	0.026	-0.022
-103.947	50.996	-0.157	-0.148
-102.932	-200.000	-0.001	-0.090
-101.918	800.000	0.048	0.171
-100.903	-67.679	-0.126	-0.049
-99.889	-200.000	0.036	0.164
-98.874	2.337	0.015	0.011
-97.859	-102.061	-0.029	0.007
-96.845	-200.000	-0.009	0.077
-95.830	177.135	-0.183	0.266
-94.816	108.582	0.033	-0.039
-93.801	602.974	0.079	-0.196
-92.786	75.838	0.075	0.079
-91.772	236.704	-0.126	-0.207
-90.757	-200.000	0.135	-0.000
-89.743	42.554	-0.120	-0.109
-88.728	219.079	0.098	-0.155
-87.713	417.476	0.048	0.103
-86.699	-65.010	0.040	-0.016
-85.684	-177.113	0.276	0.007
-84.670	31.198	-0.285	0.243
-83.655	-200.000	-0.010	-0.186
-82.640	199.964	-0.134	-0.205
-81.626	-5.442	0.203	0.138
-80.611	-68.458	-0.445	-0.172
-79.597	48.886	0.112	-0.104
-78.582	100.173	0.054	0.063
-77.567	424.577	-0.045	0.096
-76.553	159.561	-0.168	-0.232
-75.538	-97.964	-0.181	0.046
-74.524	-43.166	0.254	0.128
-73.509	58.106	0.172	-0.168
-72.494	-119.145	0.178	-0.031
-71.480	-200.000	-0.080	-0.384
-70.465	-179.044	0.261	-0.006
-69.451	-200.000	0.009	-0.134
-68.436	-200.000	0.010	0.335
-67.422	800.000	0.156	0.474
-66.407	-135.619	0.164	0.019
-65.392	173.854	-0.144	0.206
-64.378	-166.066	-0.398	-0.017
-63.363	185.876	0.050	0.074
-62.349	-200.000	0.022	-0.272
-61.334	59.766	-0.912	-0.894
-60.319	121.130	0.431	0.533
-59.305	472.409	-0.266	-0.596
-58.290	760.652	0.366	0.987
-57.276	800.000	0.385	1.437
-56.261	-200.000	90.225	509.390
-55.246	526.486	1404.722	3286.647
-54.232	180.079	2631.601	3831.605
-53.217	116.384	2235.334	2721.042
-52.203	46.937	1673.085	1544.762
-51.188	39.208	1401.428	1245.196
-50.173	36.049	1357.929	1187.074
-49.159	55.413	1403.781	1348.841
-48.144	59.697	1422.038	1393.144
-47.130	39.705	1378.889	1228.072
-46.115	36.140	1360.544	1189.733
-45.100	35.855	1355.843	1183.822
-44.086	35.804	1353.466	1181.389
-43.071	35.744	1350.985	1178.809
-42.057	35.772	1348.291	1176.583
-41.042	35.763	1347.114	1175.454
-40.027	35.740	1345.825	1174.142
-39.013	35.825	1343.132	1172.265
-37.998	35.781	1341.605	1170.618
-36.984	35.867	1339.753	1169.479
-35.969	35.895	1337.520	1167.652
-34.954	35.909	1336.213	1166.550
-33.940	35.983	1334.423	1165.387
-32.925	36.098	1332.976	1164.770
-31.911	35.878	1331.878	1162.435
-30.896	36.043	1330.185	1161.908
-29.881	36.023	1328.927	1160.642
-28.867	36.040	1327.343	1159.316
-27.852	36.101	1325.502	1158.028
-26.838	35.967	1324.158	1156.003
-25.823	35.983	1322.859	1154.921
-24.809	35.937	1321.294	1153.235
-23.794	36.085	1319.602	1152.594
-22.779	35.932	1318.414	1150.597
-21.765	36.066	1316.870	1150.003
-20.750	35.849	1316.241	1148.116
-19.736	35.965	1314.323	1147.090
-18.721	35.887	1312.952	1145.382
-17.706	35.862	1311.885	1144.256
-16.692	35.859	1310.344	1142.850
-15.677	35.974	1309.562	1142.804
-14.663	35.980	1307.980	1141.414
-13.648	35.857	1306.998	1139.783
-12.633	35.856	1306.019	1138.878
-11.619	35.861	1305.603	1138.497
-10.604	35.841	1304.557	1137.422
-9.590	35.785	1303.572	1136.189
-8.575	35.726	1303.156	1135.435
-7.560	35.782	1301.700	1134.452
-6.546	35.795	1301.045	1133.914
-5.531	35.756	1299.797	1132.551
-4.517	35.863	1298.933	1132.381
-3.502	35.821	1297.970	1131.250
-2.487	35.794	1296.871	1130.090
-1.473	35.948	1292.847	1127.435
-0.458	35.008	1278.501	1109.437
0.556	32.454	1260.023	1071.565
1.571	28.751	1264.804	1054.331
2.586	27.407	1279.167	1058.397
3.600	25.689	1266.511	1037.935
4.615	18.908	1190.423	938.602
5.629	9.214	1110.422	825.840
6.644	4.649	1088.276	786.259
7.659	4.277	1085.526	782.328
8.673	4.221	1084.919	781.542
9.688	4.264	1083.893	780.950
10.702	4.625	1082.309	781.552
11.717	10.133	1090.103	814.930
12.731	18.853	1102.436	868.334
13.746	21.188	1104.574	881.749
14.761	19.992	1102.133	873.690
15.775	19.044	1099.687	866.902
16.790	17.978	1098.235	860.313
17.804	17.033	1096.966	854.484
18.819	16.884	1095.303	852.365
19.834	16.698	1094.281	850.559
20.848	16.323	1093.642	848.104
21.863	16.122	1092.465	846.110
22.877	16.065	1091.970	845.367
23.892	16.045	1091.543	844.861
24.907	16.067	1090.300	843.935
25.921	16.104	1089.223	843.208
26.936	16.228	1087.748	842.612
27.950	16.192	1086.323	841.255
28.965	16.299	1085.055	840.730
29.980	16.278	1083.713	839.512
30.994	16.251	1082.707	838.524
32.009	16.359	1081.522	838.067
33.023	16.429	1080.272	837.375
34.038	16.339	1079.138	835.973
35.053	16.091	1078.709	834.340
36.067	16.200	1077.490	833.862
37.082	16.162	1076.640	832.942
38.096	16.370	1075.843	833.278
39.111	16.349	1075.009	832.457
40.126	16.140	1074.111	830.657
41.140	15.918	1072.902	828.558
42.155	16.035	1071.232	827.772
43.169	15.905	1070.097	826.181
44.184	15.969	1069.035	825.604
45.199	15.848	1068.575	824.583
46.213	15.870	1067.500	823.787
47.228	16.026	1066.740	823.890
48.242	16.126	1065.454	823.312
49.257	15.999	1064.531	821.907
50.271	16.209	1063.515	822.071
51.286	16.254	1062.384	821.342
52.301	16.139	1061.605	820.113
53.315	16.077	1060.426	818.825
54.330	16.079	1059.395	817.967
55.344	15.953	1058.610	816.678
56.359	16.060	1057.615	816.359
57.374	15.892	1056.581	814.675
58.388	15.943	1055.928	814.346
59.403	15.820	1054.999	812.962
60.417	15.853	1054.390	812.578
61.432	15.883	1053.565	812.015
62.447	15.673	1052.690	810.260
63.461	15.721	1051.582	809.563
64.476	15.726	1050.717	808.850
65.490	15.811	1049.948	808.598
66.505	15.619	1049.832	807.511
67.520	15.787	1048.865	807.503
68.534	15.787	1047.765	806.586
69.549	15.790	1046.931	805.886
70.563	15.657	1046.407	804.777
71.578	15.673	1045.231	803.874
72.593	15.638	1044.635	803.178
73.607	15.584	1043.668	802.109
74.622	15.689	1043.326	802.277
75.636	15.724	1042.353	801.621
76.651	15.689	1041.349	800.612
77.666	15.739	1040.948	800.469
78.680	15.739	1040.331	799.926
79.695	15.811	1039.291	799.399
80.709	15.924	1038.574	799.311
81.724	15.894	1038.019	798.672
82.739	16.055	1037.254	798.774
83.753	16.136	1037.124	798.990
84.768	16.154	1036.353	798.410
85.782	16.356	1034.985	798.238
86.797	16.349	1033.816	797.235
87.812	16.157	1033.214	795.791
88.826	16.258	1031.890	795.181
89.841	16.223	1031.013	794.269
90.855	16.277	1030.244	793.860
91.870	16.333	1029.512	793.486
92.884	16.276	1028.728	792.546
93.899	16.355	1027.468	791.878
94.914	16.488	1026.915	792.004
95.928	16.399	1026.292	791.035
96.943	16.229	1024.987	789.165
97.957	16.300	1024.200	788.821
98.972	16.319	1022.970	787.894
99.987	16.310	1022.103	787.111
101.001	16.206	1021.462	786.067
102.016	16.188	1020.488	785.164
103.030	16.375	1019.560	785.250
104.045	16.237	1018.738	783.907
105.060	16.197	1017.896	783.002
106.074	16.086	1016.688	781.490
107.089	16.013	1015.454	780.131
108.103	15.807	1015.208	778.921
109.118	15.924	1013.962	778.439
110.133	15.954	1012.625	777.479
111.147	15.906	1012.187	776.855
112.162	16.041	1011.128	776.594
113.176	16.061	1010.685	776.279
114.191	15.982	1010.002	775.320
115.206	16.005	1009.117	774.678
116.220	16.021	1008.139	773.933
117.235	15.965	1007.397	773.038
118.249	15.977	1006.645	772.447
119.264	15.971	1005.440	771.429
120.279	15.896	1004.784	770.513
121.293	15.953	1003.848	769.987
122.308	15.893	1002.705	768.767
123.322	15.810	1001.812	767.635
124.337	15.718	1000.930	766.476
125.352	15.788	999.490	765.624
126.366	15.813	998.748	765.101
127.381	15.884	997.456	764.364
128.395	15.834	996.823	763.583
129.410	15.877	995.384	762.611
130.424	15.891	994.657	762.051
131.439	16.098	993.654	762.150
132.454	16.094	993.606	762.027
133.468	16.151	992.650	761.484
134.483	16.347	991.256	761.228
135.497	16.137	990.906	759.947
136.512	16.229	989.403	759.143
137.527	16.000	989.590	758.186
138.541	16.157	988.434	757.942
139.556	16.206	987.896	757.682
140.570	16.132	987.500	756.979
141.585	16.436	986.269	757.327
142.600	16.344	985.706	756.421
143.614	16.351	984.781	755.672
144.629	16.477	983.971	755.547
145.643	16.409	982.972	754.408
146.658	16.391	981.453	753.097
147.673	16.168	980.830	751.557
148.687	16.112	980.090	750.676
149.702	16.111	978.889	749.687
150.716	16.044	978.266	748.845
151.731	16.119	977.693	748.673
152.746	16.092	976.727	747.748
153.760	16.085	976.422	747.414
154.775	16.254	975.645	747.506
155.789	16.326	975.331	747.518
156.804	16.401	974.124	746.858
157.819	16.415	973.425	746.317
158.833	16.595	972.856	746.607
159.848	16.623	971.981	745.992
160.862	16.554	970.869	744.771
161.877	16.226	969.917	742.534
162.892	16.110	969.422	741.578
163.906	16.207	968.273	741.058
164.921	16.210	967.153	740.150
165.935	16.210	966.396	739.503
166.950	16.400	965.232	739.381
167.964	16.204	965.193	738.426
168.979	16.250	963.517	737.278
169.994	16.223	963.076	736.761
171.008	16.342	961.940	736.344
172.023	16.319	961.731	736.018
173.037	16.479	960.743	735.894
174.052	16.517	959.634	735.143
175.067	16.167	959.595	733.528
176.081	16.124	958.834	732.695
177.096	16.247	957.829	732.398
178.110	16.335	957.340	732.338
179.125	16.078	957.379	731.187
180.140	16.480	956.133	731.915
181.154	16.343	955.793	730.995
182.169	16.489	955.445	731.296
183.183	16.644	954.737	731.359
184.198	16.586	953.821	730.343
185.213	16.659	952.971	729.944
186.227	16.552	952.603	729.132
187.242	16.707	951.740	729.076
188.256	16.738	951.248	728.768
189.271	16.674	950.533	727.880
190.286	16.424	949.528	725.975
191.300	16.274	948.643	724.588
192.315	16.220	947.478	723.405
193.329	16.330	947.152	723.560
194.344	16.275	946.999	723.146
195.359	16.615	945.881	723.684
196.373	16.573	945.311	723.004
197.388	16.605	945.788	723.439
198.402	16.872	944.841	723.793
199.417	16.681	944.729	722.829
200.432	16.912	943.576	722.865
201.446	16.945	943.284	722.719
202.461	16.957	942.933	722.435
203.475	17.033	941.973	721.959
204.490	16.844	940.881	720.258
205.504	16.708	940.497	719.321
206.519	16.690	939.590	718.488
207.534	16.914	938.341	718.416
208.548	16.740	938.351	717.625
209.563	16.752	937.710	717.123
210.577	16.800	936.851	716.603
211.592	16.818	936.206	716.123
212.607	16.876	935.627	715.864
213.621	16.967	934.233	715.115
214.636	16.899	934.269	714.793
215.650	16.985	933.280	714.334
216.665	17.144	932.502	714.347
217.680	17.139	931.992	713.869
218.694	17.111	931.330	713.182
219.709	17.144	930.228	712.416
220.723	17.235	929.633	712.280
221.738	17.123	928.820	711.122
222.753	17.183	928.422	711.004
223.767	17.076	928.347	710.440
224.782	17.208	927.516	710.293
225.796	17.215	927.297	710.092
226.811	17.281	926.097	709.383
227.826	17.104	925.489	708.119
228.840	17.065	924.561	707.184
229.855	17.023	924.105	706.595
230.869	17.062	922.958	705.817
231.884	17.128	922.224	705.468
232.899	17.092	921.199	704.475
233.913	16.908	921.090	703.561
234.928	16.839	920.499	702.762
235.942	17.077	919.499	702.922
236.957	16.967	918.948	701.983
237.972	16.983	918.540	701.676
238.986	17.018	917.994	701.344
240.001	16.972	917.423	700.657
241.015	17.124	916.376	700.420
242.030	17.125	915.813	699.931
243.045	17.310	915.286	700.229
244.059	17.242	914.418	699.222
245.074	17.128	914.318	698.617
246.088	17.301	913.288	698.479
247.103	17.443	912.613	698.485
248.117	17.349	912.683	698.090
249.132	17.482	912.064	698.099
250.147	17.684	911.302	698.281
251.161	17.826	910.163	697.929
252.176	17.610	910.315	697.098
253.190	17.804	909.329	697.076
254.205	17.915	908.710	696.994
255.220	17.823	907.952	695.973
256.234	17.806	907.283	695.332
257.249	17.774	906.743	694.726
258.263	17.850	905.643	694.130
259.278	17.981	904.875	694.012
260.293	17.973	904.510	693.639
261.307	17.960	904.349	693.402
262.322	17.908	903.530	692.501
263.336	18.075	902.483	692.313
264.351	17.967	901.999	691.442
265.366	17.897	901.729	690.894
266.380	17.965	900.947	690.507
267.395	17.896	900.208	689.601
268.409	17.868	899.241	688.685
269.424	17.898	898.318	688.040
270.439	17.898	897.551	687.391
271.453	17.870	896.832	686.667
272.468	17.789	896.873	686.311
273.482	17.863	895.729	685.671
274.497	17.874	895.185	685.238
275.512	17.862	894.764	684.808
276.526	17.816	894.280	684.192
277.541	17.926	893.566	684.027
278.555	18.142	892.989	684.388
279.570	18.062	893.051	684.055
280.585	18.220	891.659	683.560
281.599	18.113	891.108	682.651
282.614	18.132	890.326	682.067
283.628	18.056	889.902	681.379
284.643	18.012	889.340	680.711
285.657	17.975	888.738	680.045
286.672	17.970	888.073	679.453
287.687	18.131	887.404	679.525
288.701	18.050	886.955	678.799
289.716	18.117	886.296	678.498
290.730	18.103	885.667	677.902
291.745	18.277	884.661	677.761
292.760	18.231	884.528	677.415
293.774	18.300	883.954	677.189
294.789	18.219	882.945	676.038
295.803	18.227	882.019	675.301
296.818	18.133	881.896	674.774
297.833	18.151	881.105	674.182
298.847	18.199	880.252	673.659
299.862	18.247	879.959	673.562
300.876	18.307	879.301	673.234
301.891	18.453	878.569	673.191
302.906	18.527	878.053	673.024
303.920	18.502	877.714	672.608
304.935	18.523	877.156	672.203
305.949	18.491	876.414	671.451
306.964	18.464	875.371	670.484
307.979	18.569	874.962	670.524
308.993	18.620	874.778	670.521
310.008	18.476	874.028	669.326
311.022	18.496	873.395	668.861
312.037	18.523	872.649	668.334
313.052	18.412	871.966	667.321
314.066	18.185	871.561	666.066
315.081	18.438	870.912	666.497
316.095	18.383	870.148	665.637
317.110	18.284	869.650	664.816
318.125	18.241	869.483	664.462
319.139	18.339	868.879	664.322
320.154	18.345	868.445	663.952
321.168	18.265	868.261	663.444
322.183	18.416	867.169	663.138
323.197	18.410	866.838	662.800
324.212	18.453	866.368	662.548
325.227	18.462	865.638	661.966
326.241	18.484	864.767	661.329
327.256	18.384	864.688	660.822
328.270	18.518	863.757	660.570
329.285	18.325	863.188	659.332
330.300	18.507	862.241	659.250
331.314	18.478	861.808	658.749
332.329	18.625	861.849	659.289
333.343	18.631	861.444	658.940
334.358	18.557	860.993	658.253
335.373	18.791	860.179	658.472
336.387	18.710	860.296	658.192
337.402	18.738	860.017	658.027
338.416	18.923	859.545	658.316
339.431	19.018	858.846	658.087
340.446	19.051	858.657	658.011
341.460	19.086	858.248	657.770
342.475	19.084	857.907	657.444
343.489	19.005	857.153	656.508
344.504	19.050	856.877	656.410
345.519	19.075	856.532	656.181
346.533	19.089	855.860	655.663
347.548	18.855	855.253	654.249
348.562	18.828	854.758	653.709
349.577	18.751	854.147	652.893
350.592	18.840	853.643	652.786
351.606	18.949	852.423	652.211
352.621	18.859	852.021	651.504
353.635	18.974	851.294	651.327
354.650	19.024	850.305	650.700
355.665	18.950	850.299	650.358
356.679	19.087	849.497	650.204
357.694	19.034	848.742	649.368
358.708	19.117	848.152	649.172
359.723	19.023	847.723	648.433
360.738	18.930	847.358	647.748
361.752	19.113	846.591	647.792
362.767	19.242	846.058	647.813
363.781	19.219	845.428	647.185
364.796	19.274	845.246	647.194
365.810	19.493	844.840	647.651
366.825	19.588	844.048	647.342
367.840	19.424	843.731	646.427
368.854	19.363	843.276	645.790
369.869	19.350	842.846	645.357
370.883	19.433	842.232	645.139
371.898	19.479	841.928	645.022
372.913	19.603	841.498	645.099
373.927	19.487	841.154	644.344
374.942	19.579	840.159	643.868
375.956	19.535	840.187	643.670
376.971	19.497	840.017	643.339
377.986	19.698	838.977	643.236
379.000	19.612	838.654	642.611
380.015	19.626	838.239	642.287
381.029	19.627	837.532	641.691
382.044	19.683	837.338	641.694
383.059	19.721	836.830	641.390
384.073	19.740	835.811	640.622
385.088	19.506	835.642	639.568
386.102	19.490	834.828	638.831
387.117	19.667	833.862	638.690
388.132	19.540	833.473	637.867
389.146	19.533	832.926	637.363
390.161	19.734	832.508	637.731
391.175	19.710	832.195	637.347
392.190	19.707	831.257	636.558
393.205	19.641	830.694	635.828
394.219	19.578	830.843	635.653
395.234	19.606	830.363	635.335
396.248	19.452	829.938	634.387
397.263	19.443	829.522	633.979
398.278	19.463	828.807	633.450
399.292	19.498	828.517	633.303
400.307	19.530	827.739	632.767
401.321	19.408	827.502	632.083
402.336	19.539	827.100	632.201
403.350	19.756	826.282	632.312
404.365	19.640	826.463	631.971
405.380	19.825	826.192	632.386
406.394	19.955	825.343	632.154
407.409	20.016	825.022	632.076
408.423	20.015	824.586	631.681
409.438	20.033	824.093	631.311
410.453	20.042	823.554	630.878
411.467	20.042	823.141	630.506
412.482	20.123	822.986	630.625
413.496	20.097	822.631	630.202
414.511	20.041	822.259	629.657
415.526	20.241	821.183	629.506
416.540	20.131	821.127	629.005
417.555	20.051	820.818	628.423
418.569	20.163	820.461	628.502
419.584	20.254	819.715	628.205
420.599	20.134	819.290	627.386
421.613	154.163	1370.741	1784.389
422.628	134.232	1451.095	1784.503
