DTS Sentinel unit serial number:	SN413079Multiplexer serial number:	ORYXHardware model number:	OX4-SRSoftware version number:	ORYX F/W v4.00 Oryx Data Collector v3.7.2.0data status	okinstallation	princeton_trtdifferential loss correction	single-endedforward channel	channel 1reverse channel	N/Adate	2019/09/15time	10:30:35forward acquisition time	60.00reverse acquisition time	0.00gamma	496.2192k internal	0.2309k external	0.2309temperature offset calibration	0.9992default loss term (dB/km)	0.3790temperature slope calibration	1.0000multiplexer offset coefficient	1.0000multiplexer slope coefficient	1.0000fibre end	0.00T internal ref (°C)	34.25T ext. ref 1 (°C)	5.05T ext. ref 2 (°C)	29.48length (m)	temperature (°C)	Stokes	anti-Stokes-747.200	387.718	-0.070	0.146
-746.185	284.247	0.051	0.092
-745.171	-11.564	-0.212	0.142
-744.156	-117.560	-0.149	-0.027
-743.142	14.598	-0.258	-0.204
-742.127	-77.065	0.156	-0.055
-741.112	-200.000	0.069	0.369
-740.098	-200.000	-0.017	0.191
-739.083	105.743	0.221	0.265
-738.069	-34.070	0.153	-0.085
-737.054	185.135	-0.174	-0.262
-736.039	-200.000	0.008	0.073
-735.025	-36.098	0.267	-0.147
-734.010	-83.677	-0.302	0.098
-732.996	69.512	0.158	-0.165
-731.981	800.000	0.084	-0.343
-730.966	-200.000	0.017	-0.210
-729.952	-62.031	-0.183	-0.078
-728.937	-51.699	-0.282	0.134
-727.923	-117.182	-0.431	0.080
-726.908	-200.000	0.004	0.143
-725.894	-146.706	-0.073	0.006
-724.879	-21.154	-0.185	-0.115
-723.864	-67.466	-0.224	-0.089
-722.850	-152.938	0.328	-0.024
-721.835	-200.000	0.003	0.213
-720.821	108.157	-0.228	0.276
-719.806	418.009	-0.149	-0.324
-718.791	-87.550	0.372	-0.114
-717.777	517.664	-0.122	-0.290
-716.762	279.712	0.056	0.101
-715.748	-97.349	-0.121	-0.032
-714.733	-200.000	0.218	0.001
-713.718	800.000	0.077	-0.262
-712.704	-200.000	0.008	0.161
-711.689	-126.234	-0.170	0.026
-710.675	9.339	0.084	-0.065
-709.660	231.226	-0.163	-0.271
-708.645	-69.158	0.211	-0.082
-707.631	112.047	-0.211	-0.259
-706.616	106.629	0.061	0.074
-705.602	800.000	0.010	-0.028
-704.587	-114.338	-0.269	0.053
-703.572	800.000	0.080	-0.233
-702.558	13.174	-0.265	-0.208
-701.543	-175.533	-0.189	0.005
-700.529	-200.000	0.010	-0.056
-699.514	36.621	0.061	0.055
-698.499	-58.237	-0.465	0.205
-697.485	93.126	0.267	0.306
-696.470	55.157	-0.029	0.029
-695.456	-80.847	0.251	-0.084
-694.441	166.136	-0.136	0.196
-693.426	2.375	0.135	-0.099
-692.412	121.296	-0.290	0.366
-691.397	-136.340	-0.383	-0.045
-690.383	-71.238	0.326	-0.124
-689.368	800.000	-0.108	-0.402
-688.354	256.160	0.040	-0.070
-687.339	-73.632	0.134	0.050
-686.324	-51.114	-0.457	-0.217
-685.310	-109.586	0.169	-0.036
-684.295	-200.000	0.048	0.232
-683.281	-9.309	0.110	0.075
-682.266	-51.798	0.142	0.067
-681.251	-200.000	0.013	0.104
-680.237	-200.000	-0.013	-0.060
-679.222	4.845	0.207	0.154
-678.208	73.001	0.070	-0.074
-677.193	-177.164	0.288	0.007
-676.178	-66.422	-0.079	-0.032
-675.164	340.696	-0.093	0.185
-674.149	86.698	-0.222	-0.248
-673.135	-200.000	-0.034	-0.209
-672.120	-64.543	0.056	0.023
-671.105	-7.089	0.155	0.106
-670.091	-157.713	-0.267	-0.016
-669.076	-200.000	0.011	-0.231
-668.062	-77.755	-0.236	-0.083
-667.047	269.495	0.118	0.211
-666.032	-122.652	-0.310	0.051
-665.018	116.014	-0.076	-0.094
-664.003	145.554	-0.129	-0.175
-662.989	800.000	0.035	0.118
-661.974	778.604	0.059	-0.162
-660.959	-68.868	-0.295	-0.115
-659.945	800.000	-0.061	0.185
-658.930	14.509	-0.130	0.102
-657.916	-135.345	-0.072	0.009
-656.901	-200.000	0.119	0.000
-655.886	520.849	-0.070	-0.166
-654.872	735.540	0.162	-0.440
-653.857	21.826	-0.266	-0.219
-652.843	-96.992	-0.045	0.012
-651.828	-128.262	0.101	-0.015
-650.814	619.935	0.032	-0.082
-649.799	-25.474	0.201	0.120
-648.784	-0.411	0.104	0.075
-647.770	-173.982	0.142	0.004
-646.755	-109.762	0.210	-0.045
-645.741	63.822	-0.129	-0.131
-644.726	-200.000	0.220	0.001
-643.711	66.877	0.193	-0.199
-642.697	-200.000	0.026	-0.153
-641.682	-108.315	-0.288	0.063
-640.668	-200.000	0.072	-0.338
-639.653	129.163	-0.020	0.026
-638.638	-16.057	0.217	-0.140
-637.624	-200.000	-0.001	-0.196
-636.609	-200.000	0.014	0.265
-635.595	-73.176	-0.083	-0.031
-634.580	-88.797	0.026	-0.008
-633.565	-49.170	0.220	0.107
-632.551	352.614	0.110	-0.222
-631.536	-153.209	-0.486	0.034
-630.522	800.000	-0.074	-0.216
-629.507	199.297	0.036	-0.055
-628.492	-200.000	-0.004	0.111
-627.478	104.043	-0.016	-0.019
-626.463	-132.696	0.129	-0.017
-625.449	67.138	-0.058	0.060
-624.434	-127.340	-0.185	-0.027
-623.419	-95.134	-0.261	0.071
-622.405	45.344	-0.230	0.214
-621.390	-79.786	-0.271	-0.092
-620.376	420.067	-0.059	-0.127
-619.361	-28.131	0.064	0.037
-618.346	-62.448	-0.217	-0.091
-617.332	-119.528	-0.196	0.034
-616.317	774.731	0.139	0.384
-615.303	149.325	-0.180	-0.246
-614.288	-200.000	0.019	-0.096
-613.273	-200.000	0.012	0.092
-612.259	-108.272	-0.300	0.066
-611.244	-8.357	0.049	-0.033
-610.230	-150.490	0.234	-0.018
-609.215	800.000	-0.109	-0.312
-608.201	-154.391	-0.195	-0.013
-607.186	-172.690	0.320	-0.010
-606.171	58.310	0.220	-0.218
-605.157	-200.000	-0.013	0.179
-604.142	-30.948	0.138	-0.079
-603.128	800.000	-0.054	0.220
-602.113	800.000	0.060	0.260
-601.098	-56.256	0.175	0.079
-600.084	-109.964	-0.364	0.077
-599.069	-167.552	-0.300	-0.012
-598.055	17.577	-0.220	0.177
-597.040	426.717	-0.044	-0.097
-596.025	-84.599	-0.176	0.056
-595.011	-55.381	-0.089	-0.040
-593.996	208.414	0.223	-0.352
-592.982	-200.000	0.031	0.144
-591.967	-143.722	0.023	-0.002
-590.952	-102.016	-0.144	-0.035
-589.938	23.567	-0.171	-0.142
-588.923	-95.345	-0.338	0.092
-587.909	-32.693	0.196	-0.110
-586.894	402.958	0.034	0.072
-585.879	-200.000	0.002	-0.194
-584.865	-77.718	-0.177	0.062
-583.850	158.498	0.112	-0.156
-582.836	-118.613	0.237	-0.042
-581.821	-200.000	0.015	-0.171
-580.806	17.943	-0.109	-0.087
-579.792	-52.515	0.308	0.144
-578.777	-45.060	-0.375	0.188
-577.763	259.198	-0.108	-0.189
-576.748	-45.383	-0.246	-0.123
-575.733	-141.641	-0.126	-0.013
-574.719	800.000	-0.058	0.192
-573.704	800.000	-0.066	0.200
-572.690	-152.204	0.316	-0.023
-571.675	800.000	-0.082	0.273
-570.661	-160.288	-0.067	-0.004
-569.646	218.251	-0.109	0.175
-568.631	800.000	-0.050	-0.211
-567.617	-42.209	-0.288	-0.149
-566.602	111.112	-0.156	-0.189
-565.588	-102.560	0.484	-0.117
-564.573	-26.577	-0.208	-0.123
-563.558	619.227	0.063	0.159
-562.544	-164.666	0.090	0.004
-561.529	-200.000	-0.003	0.162
-560.515	-200.000	-0.011	0.167
-559.500	800.000	0.051	0.152
-558.485	30.301	-0.068	0.059
-557.471	-156.173	-0.070	0.004
-556.456	-200.000	-0.007	-0.125
-555.442	-200.000	0.016	0.110
-554.427	-15.141	-0.355	-0.230
-553.412	6.782	0.237	-0.178
-552.398	800.000	-0.053	-0.194
-551.383	-64.028	0.057	0.023
-550.369	-200.000	-0.049	0.302
-549.354	-151.021	-0.318	0.024
-548.339	43.155	0.155	-0.143
-547.325	528.227	0.148	-0.353
-546.310	481.859	0.069	-0.158
-545.296	-5.164	0.228	0.158
-544.281	53.628	-0.156	0.151
-543.266	-200.000	0.068	-0.000
-542.252	78.629	-0.145	0.156
-541.237	54.596	-0.057	0.055
-540.223	33.486	-0.061	-0.053
-539.208	-141.333	-0.229	-0.023
-538.193	104.262	-0.178	-0.211
-537.179	149.020	0.129	0.175
-536.164	161.183	0.100	0.141
-535.150	-11.062	0.329	0.219
-534.135	-74.748	-0.081	-0.029
-533.121	359.096	-0.139	0.280
-532.106	-185.842	-0.391	0.006
-531.091	-33.469	0.242	0.135
-530.077	-67.515	-0.177	-0.070
-529.062	-77.120	0.060	0.021
-528.048	800.000	-0.021	0.074
-527.033	69.295	0.194	0.201
-526.018	-48.760	-0.252	-0.122
-525.004	-172.517	-0.051	-0.002
-523.989	-122.690	0.028	-0.005
-522.975	-200.000	-0.013	-0.140
-521.960	177.068	0.196	-0.288
-520.945	-42.518	-0.169	0.087
-519.931	65.860	0.314	-0.321
-518.916	-109.897	0.421	0.089
-517.902	557.245	0.072	0.174
-516.887	-200.000	-0.016	-0.093
-515.872	-165.910	0.425	0.018
-514.858	-37.808	0.155	0.083
-513.843	-8.633	-0.067	0.046
-512.829	12.040	-0.184	-0.143
-511.814	-131.415	-0.234	-0.031
-510.799	785.683	0.089	-0.245
-509.785	44.752	0.109	-0.101
-508.770	-200.000	-0.074	0.394
-507.756	-106.515	-0.299	0.067
-506.741	436.908	0.159	0.348
-505.726	-200.000	-0.026	-0.183
-504.712	800.000	-0.116	-0.421
-503.697	135.733	0.050	-0.065
-502.683	-13.052	-0.338	-0.221
-501.668	-59.656	-0.405	0.175
-500.653	45.995	0.072	0.067
-499.639	0.791	-0.180	0.130
-498.624	228.599	0.140	-0.229
-497.610	26.834	-0.239	0.201
-496.595	-41.427	0.127	0.066
-495.581	600.910	-0.136	0.341
-494.566	220.215	0.063	0.102
-493.551	-142.185	0.398	-0.040
-492.537	47.455	-0.100	-0.094
-491.522	353.261	-0.065	-0.130
-490.508	288.281	-0.138	-0.251
-489.493	-200.000	0.046	-0.214
-488.478	63.396	-0.087	0.088
-487.464	-34.056	0.160	0.088
-486.449	-200.000	-0.007	0.348
-485.435	-200.000	0.015	0.102
-484.420	-160.368	-0.164	-0.009
-483.405	8.114	0.101	0.076
-482.391	800.000	-0.020	-0.063
-481.376	-26.313	-0.307	-0.181
-480.362	11.115	0.019	-0.015
-479.347	-171.909	0.251	-0.008
-478.332	146.016	0.039	0.052
-477.318	800.000	-0.086	-0.299
-476.303	13.437	0.124	0.097
-475.289	-6.755	-0.470	0.321
-474.274	-8.096	0.152	0.103
-473.259	-125.480	-0.363	0.056
-472.245	113.083	0.038	0.047
-471.230	77.626	0.381	0.408
-470.216	-144.044	-0.179	0.017
-469.201	350.744	0.214	-0.425
-468.186	326.147	-0.087	0.168
-467.172	5.553	0.299	-0.222
-466.157	800.000	0.093	0.274
-465.143	88.104	-0.153	-0.171
-464.128	73.862	-0.196	0.207
-463.113	200.661	0.020	-0.031
-462.099	96.927	0.277	-0.319
-461.084	505.765	-0.125	0.291
-460.070	-27.289	-0.278	-0.163
-459.055	-200.000	-0.024	0.164
-458.040	67.839	-0.213	0.219
-457.026	755.053	0.077	-0.210
-456.011	-50.282	-0.490	0.233
-454.997	-184.433	-0.413	0.007
-453.982	349.113	-0.137	-0.271
-452.968	-109.832	-0.159	0.033
-451.953	-200.000	0.030	-0.251
-450.938	-66.004	0.242	-0.097
-449.924	-200.000	0.003	0.158
-448.909	-158.733	-0.207	-0.012
-447.895	557.689	-0.125	0.304
-446.880	298.609	0.085	-0.158
-445.865	-103.160	0.218	0.052
-444.851	-65.862	0.243	0.098
-443.836	-76.850	0.316	0.111
-442.822	749.035	0.051	-0.139
-441.807	44.733	0.172	-0.159
-440.792	9.656	-0.284	0.216
-439.778	-68.355	-0.165	0.064
-438.763	-200.000	0.032	0.165
-437.749	-200.000	-0.025	-0.184
-436.734	-157.357	-0.214	-0.013
-435.719	-159.448	-0.302	-0.017
-434.705	18.256	0.290	-0.232
-433.690	101.691	-0.076	0.089
-432.676	435.959	0.053	0.115
-431.661	217.515	-0.172	0.274
-430.646	426.622	0.035	-0.075
-429.632	-92.251	-0.341	-0.096
-428.617	-56.537	0.321	-0.143
-427.603	-73.581	-0.252	-0.092
-426.588	-157.400	-0.193	-0.012
-425.573	254.331	0.060	0.104
-424.559	27.192	-0.112	-0.095
-423.544	-171.253	0.268	-0.009
-422.530	-158.991	-0.286	0.016
-421.515	-200.000	-0.053	-0.253
-420.500	-109.293	-0.233	0.050
-419.486	800.000	0.024	-0.072
-418.471	308.773	-0.024	0.045
-417.457	62.291	-0.237	-0.237
-416.442	-10.740	0.346	-0.230
-415.428	-200.000	-0.014	-0.217
-414.413	124.905	-0.143	-0.181
-413.398	-130.031	-0.262	0.036
-412.384	-14.886	0.211	-0.136
-411.369	89.146	-0.145	-0.162
-410.355	-99.055	0.222	0.056
-409.340	-200.000	0.016	0.247
-408.325	-101.666	-0.360	-0.088
-407.311	720.311	0.152	-0.405
-406.296	16.518	-0.124	0.098
-405.282	90.964	0.201	-0.226
-404.267	-101.353	0.286	-0.070
-403.252	24.106	0.173	0.143
-402.238	56.360	-0.058	-0.057
-401.223	-41.353	-0.020	0.010
-400.209	-6.754	0.154	0.105
-399.194	213.028	0.163	-0.258
-398.179	286.660	0.140	0.254
-397.165	-18.364	-0.175	0.110
-396.150	-68.168	-0.180	0.070
-395.136	-106.468	-0.172	0.038
-394.121	-37.539	0.261	0.140
-393.106	-52.034	0.225	0.105
-392.092	-90.714	-0.160	-0.046
-391.077	-33.839	0.375	-0.207
-390.063	-134.817	0.263	-0.032
-389.048	800.000	0.009	0.033
-388.033	-200.000	-0.001	-0.034
-387.019	33.096	-0.075	0.065
-386.004	-47.895	-0.097	-0.047
-384.990	-200.000	0.009	-0.176
-383.975	69.517	-0.420	-0.434
-382.960	200.634	-0.231	-0.356
-381.946	151.414	-0.114	0.155
-380.931	800.000	-0.044	-0.159
-379.917	-200.000	-0.046	0.262
-378.902	-200.000	0.001	0.260
-377.888	206.895	-0.160	0.249
-376.873	56.499	0.036	0.035
-375.858	-61.849	0.126	0.053
-374.844	24.062	0.159	0.132
-373.829	-20.750	0.440	0.270
-372.815	800.000	0.079	0.217
-371.800	-34.800	0.224	-0.123
-370.785	-63.242	0.194	0.080
-369.771	-200.000	-0.023	-0.145
-368.756	-25.912	0.212	-0.125
-367.742	-139.216	0.329	0.036
-366.727	800.000	-0.079	0.223
-365.712	-200.000	0.012	-0.315
-364.698	326.644	0.050	-0.096
-363.683	-46.056	-0.082	0.040
-362.669	26.690	0.160	0.134
-361.654	49.455	-0.107	0.101
-360.639	400.086	-0.055	0.115
-359.625	115.987	0.110	-0.135
-358.610	-92.093	0.315	0.089
-357.596	800.000	0.111	-0.368
-356.581	-200.000	-0.026	-0.212
-355.566	-51.038	0.150	0.070
-354.552	136.601	0.074	-0.096
-353.537	800.000	0.103	-0.388
-352.523	-42.596	0.361	-0.184
-351.508	-78.390	0.239	0.082
-350.493	-200.000	0.001	-0.120
-349.479	800.000	-0.085	-0.241
-348.464	-30.066	0.235	0.134
-347.450	23.283	0.221	0.182
-346.435	-7.981	0.039	-0.026
-345.420	-200.000	0.003	0.036
-344.406	274.256	0.061	-0.108
-343.391	364.141	0.165	-0.331
-342.377	800.000	-0.087	-0.257
-341.362	-200.000	0.041	-0.189
-340.348	-200.000	-0.020	0.212
-339.333	46.317	0.149	0.138
-338.318	800.000	-0.030	0.106
-337.304	236.619	-0.083	0.137
-336.289	-135.692	0.333	0.039
-335.275	-97.828	0.189	-0.049
-334.260	75.737	0.065	0.069
-333.245	366.046	0.227	-0.458
-332.231	800.000	-0.029	-0.115
-331.216	164.901	-0.148	0.209
-330.202	28.142	0.181	-0.153
-329.187	-200.000	0.071	0.382
-328.172	-102.264	-0.475	0.114
-327.158	-1.796	-0.078	-0.055
-326.143	-100.988	0.501	0.123
-325.129	800.000	-0.025	-0.087
-324.114	75.257	-0.280	-0.295
-323.099	-9.838	-0.152	0.101
-322.085	726.896	-0.023	-0.061
-321.070	-133.481	0.206	-0.026
-320.056	-1.310	0.072	0.051
-319.041	-100.598	0.121	0.030
-318.026	-13.009	-0.174	0.113
-317.012	-200.000	-0.009	0.423
-315.997	-43.931	-0.245	0.123
-314.983	-37.317	0.130	0.070
-313.968	-200.000	0.033	0.302
-312.953	-96.548	-0.291	0.077
-311.939	-200.000	0.025	0.115
-310.924	83.962	0.064	0.070
-309.910	-200.000	-0.027	0.202
-308.895	24.317	0.299	0.247
-307.880	-156.240	0.295	-0.019
-306.866	6.305	0.436	-0.323
-305.851	-58.176	-0.381	0.166
-304.837	569.507	-0.090	-0.219
-303.822	-63.707	-0.323	0.132
-302.807	800.000	0.088	-0.297
-301.793	-200.000	-0.056	-0.272
-300.778	-19.630	-0.261	-0.161
-299.764	6.717	0.099	0.074
-298.749	-154.569	0.019	-0.001
-297.735	-86.450	0.240	-0.074
-296.720	-200.000	0.048	0.285
-295.705	-49.586	0.109	0.052
-294.691	58.855	-0.112	-0.110
-293.676	361.304	-0.072	0.143
-292.662	-56.044	-0.205	0.091
-291.647	-200.000	-0.004	0.162
-290.632	-80.536	0.253	-0.084
-289.618	-56.129	-0.214	-0.095
-288.603	69.592	0.210	0.216
-287.589	-200.000	-0.006	0.410
-286.574	134.103	0.032	-0.041
-285.559	800.000	-0.101	0.356
-284.545	-118.826	0.287	0.050
-283.530	-137.057	0.035	-0.004
-282.516	-95.984	0.268	-0.071
-281.501	-200.000	0.017	-0.241
-280.486	-54.518	-0.178	0.080
-279.472	123.641	0.124	-0.155
-278.457	800.000	0.063	0.212
-277.443	-200.000	-0.004	0.153
-276.428	-99.393	0.046	0.012
-275.413	30.893	-0.122	-0.105
-274.399	-87.174	0.331	0.100
-273.384	-200.000	0.024	-0.148
-272.370	-116.598	-0.277	-0.051
-271.355	-25.045	-0.070	0.041
-270.340	84.407	-0.070	0.077
-269.326	-44.639	-0.113	0.056
-268.311	800.000	-0.025	0.081
-267.297	-200.000	-0.206	-0.000
-266.282	-101.870	-0.235	0.057
-265.267	-75.267	0.126	-0.045
-264.253	-119.710	0.193	0.033
-263.238	213.783	-0.148	-0.233
-262.224	-200.000	-0.004	-0.136
-261.209	-53.358	0.178	0.081
-260.195	-164.391	0.343	-0.016
-259.180	-82.171	-0.220	-0.072
-258.165	112.695	0.122	-0.147
-257.151	267.486	-0.163	-0.285
-256.136	800.000	0.032	-0.101
-255.122	94.024	0.130	-0.147
-254.107	1.797	0.486	-0.349
-253.092	-111.073	0.179	0.037
-252.078	163.362	0.289	0.405
-251.063	-57.712	-0.069	-0.030
-250.049	800.000	0.083	0.360
-249.034	-200.000	0.007	0.126
-248.019	-99.439	-0.385	0.097
-247.005	-58.919	-0.112	-0.048
-245.990	2.552	0.057	-0.041
-244.976	3.475	0.084	-0.061
-243.961	-105.780	-0.253	0.057
-242.946	-50.184	0.157	0.074
-241.932	-200.000	-0.006	-0.067
-240.917	-76.615	-0.360	-0.126
-239.903	18.891	-0.143	-0.115
-238.888	-131.453	-0.245	0.032
-237.873	-184.741	-0.134	-0.002
-236.859	-200.000	0.020	-0.136
-235.844	109.249	0.032	0.039
-234.830	800.000	-0.089	-0.348
-233.815	44.503	-0.052	0.048
-232.800	-42.086	-0.265	0.135
-231.786	-143.598	0.068	-0.006
-230.771	-200.000	0.011	-0.158
-229.757	-28.961	0.344	-0.197
-228.742	800.000	0.053	0.181
-227.727	180.390	0.083	-0.122
-226.713	138.607	-0.117	-0.153
-225.698	-181.501	0.057	-0.001
-224.684	-200.000	-0.020	-0.233
-223.669	-200.000	0.018	-0.186
-222.655	8.700	-0.283	0.212
-221.640	800.000	-0.142	0.449
-220.625	-178.416	0.167	0.004
-219.611	-200.000	0.048	-0.231
-218.596	-200.000	-0.036	-0.201
-217.582	204.094	-0.105	0.163
-216.567	-126.359	0.169	-0.025
-215.552	-200.000	0.009	0.052
-214.538	632.602	-0.097	0.246
-213.523	229.150	-0.025	0.041
-212.509	-67.218	0.084	0.033
-211.494	-77.415	0.110	0.038
-210.479	237.736	-0.262	0.432
-209.465	-200.000	0.029	-0.155
-208.450	800.000	0.025	-0.091
-207.436	-200.000	-0.014	0.225
-206.421	-31.507	0.214	-0.119
-205.406	800.000	-0.056	0.217
-204.392	-200.000	-0.025	0.427
-203.377	-66.714	0.301	-0.119
-202.363	-200.000	-0.020	0.282
-201.348	-127.034	-0.137	-0.020
-200.333	-154.322	-0.434	-0.029
-199.319	186.221	0.131	0.193
-198.304	-29.397	0.105	-0.060
-197.290	2.605	0.253	-0.182
-196.275	-200.000	-0.017	-0.257
-195.260	72.220	-0.182	-0.189
-194.246	-200.000	0.007	0.068
-193.231	142.657	-0.155	0.205
-192.217	-128.014	0.238	0.034
-191.202	37.682	0.283	-0.250
-190.187	-114.379	-0.239	0.046
-189.173	-191.764	-0.175	0.002
-188.158	248.013	0.100	-0.168
-187.144	-64.962	0.379	0.152
-186.129	-136.152	0.491	-0.057
-185.114	16.895	-0.181	0.143
-184.100	800.000	-0.076	0.217
-183.085	-51.795	-0.205	0.095
-182.071	-93.661	-0.131	-0.036
-181.056	-33.049	0.294	-0.162
-180.042	-162.221	0.081	0.004
-179.027	279.572	-0.090	0.161
-178.012	800.000	-0.066	-0.191
-176.998	800.000	-0.040	0.116
-175.983	10.328	-0.186	0.141
-174.969	124.816	0.092	0.115
-173.954	800.000	0.064	0.253
-172.939	73.524	-0.326	0.339
-171.925	-200.000	-0.005	0.191
-170.910	-200.000	-0.002	-0.063
-169.896	-200.000	0.006	-0.193
-168.881	444.891	-0.203	0.442
-167.866	-104.637	0.056	-0.013
-166.852	644.758	-0.077	-0.195
-165.837	116.558	0.122	0.149
-164.823	-122.718	0.511	-0.082
-163.808	-200.000	0.033	-0.285
-162.793	-123.856	0.257	-0.040
-161.779	112.723	-0.168	-0.203
-160.764	150.310	-0.094	-0.127
-159.750	-150.390	-0.138	0.011
-158.735	800.000	-0.075	0.312
-157.720	392.123	0.071	0.146
-156.706	21.903	0.155	0.126
-155.691	211.557	0.174	-0.272
-154.677	-129.956	-0.312	0.042
-153.662	800.000	0.048	-0.146
-152.647	-45.174	0.107	0.053
-151.633	119.509	0.107	-0.132
-150.618	-200.000	0.001	-0.303
-149.604	800.000	-0.068	-0.237
-148.589	522.195	-0.114	0.265
-147.574	-62.928	0.088	-0.036
-146.560	212.228	-0.163	-0.255
-145.545	144.495	-0.162	-0.215
-144.531	15.038	0.221	0.172
-143.516	31.462	0.062	0.053
-142.502	560.069	0.173	-0.416
-141.487	-96.075	-0.177	-0.047
-140.472	-56.843	0.189	-0.083
-139.458	-200.000	0.011	0.083
-138.443	-8.434	0.175	0.117
-137.429	-86.837	-0.159	-0.048
-136.414	45.667	-0.036	0.033
-135.399	-200.000	-0.003	-0.122
-134.385	-200.000	0.002	0.040
-133.370	800.000	-0.051	0.183
-132.356	-9.567	0.229	0.151
-131.341	800.000	0.130	0.384
-130.326	447.829	0.075	0.163
-129.312	-133.274	0.127	0.016
-128.297	-66.642	-0.326	0.128
-127.283	249.944	-0.118	0.198
-126.268	25.864	0.083	-0.069
-125.253	-200.000	0.007	0.224
-124.239	-70.025	0.242	0.092
-123.224	-122.450	-0.213	-0.034
-122.210	-31.416	-0.167	-0.093
-121.195	297.165	0.078	-0.142
-120.180	440.165	-0.127	0.275
-119.166	-200.000	-0.051	0.362
-118.151	-200.000	0.005	0.186
-117.137	382.366	0.053	-0.107
-116.122	-162.113	-0.175	0.009
-115.107	-98.395	0.147	-0.037
-114.093	-121.003	0.364	0.061
-113.078	-95.513	-0.110	-0.029
-112.064	-200.000	-0.074	0.381
-111.049	-200.000	-0.014	-0.134
-110.034	99.877	-0.035	0.040
-109.020	88.538	-0.242	0.266
-108.005	-43.793	0.115	0.058
-106.991	-114.116	0.034	-0.007
-105.976	-200.000	-0.013	-0.093
-104.962	329.060	0.137	-0.260
-103.947	-90.172	0.461	-0.133
-102.932	48.048	0.297	0.275
-101.918	-130.782	-0.351	-0.047
-100.903	-127.224	0.037	-0.005
-99.889	-200.000	0.026	0.203
-98.874	800.000	-0.042	-0.153
-97.859	27.011	-0.175	-0.145
-96.845	-95.044	-0.101	-0.027
-95.830	-200.000	0.057	0.299
-94.816	11.722	-0.184	0.140
-93.801	535.898	0.146	0.343
-92.786	63.156	0.224	-0.222
-91.772	-137.593	0.116	0.013
-90.757	-200.000	0.005	0.105
-89.743	-200.000	0.056	0.255
-88.728	-59.130	0.079	0.034
-87.713	-152.255	0.157	0.011
-86.699	-200.000	-0.009	0.153
-85.684	-63.947	0.078	0.032
-84.670	-145.706	0.299	-0.026
-83.655	104.136	0.100	0.117
-82.640	-84.514	0.170	-0.053
-81.626	-81.824	0.136	0.044
-80.611	-18.204	0.171	0.106
-79.597	-46.863	-0.101	-0.049
-78.582	339.219	0.116	0.224
-77.567	-128.240	0.400	-0.056
-76.553	1.151	-0.291	-0.207
-75.538	62.471	0.241	-0.238
-74.524	-200.000	-0.034	-0.153
-73.509	179.364	-0.090	0.130
-72.494	119.281	-0.056	-0.068
-71.480	-19.698	-0.220	0.135
-70.465	-56.579	0.033	0.014
-69.451	-29.239	0.236	-0.134
-68.436	-50.638	0.313	-0.146
-67.422	119.383	0.163	0.200
-66.407	214.862	0.176	-0.275
-65.392	-14.660	0.080	-0.051
-64.378	-142.350	-0.274	-0.027
-63.363	-178.568	0.407	0.009
-62.349	11.431	0.178	-0.135
-61.334	54.546	-0.944	-0.900
-60.319	-59.889	0.480	0.203
-59.305	305.642	-0.394	-0.724
-58.290	193.739	0.529	0.792
-57.276	145.163	1.100	1.455
-56.261	-200.000	97.477	574.181
-55.246	626.559	1402.943	3502.758
-54.232	185.951	2609.220	3836.935
-53.217	121.157	2184.602	2689.634
-52.203	46.174	1633.051	1496.121
-51.188	37.723	1367.508	1200.972
-50.173	34.318	1325.495	1143.633
-49.159	56.317	1373.971	1320.290
-48.144	60.257	1391.526	1361.115
-47.130	38.062	1346.546	1184.429
-46.115	34.337	1328.472	1146.135
-45.100	34.110	1324.137	1140.989
-44.086	34.159	1321.528	1138.984
-43.071	34.061	1319.258	1136.402
-42.057	33.943	1317.293	1133.959
-41.042	34.160	1315.177	1133.384
-40.027	34.210	1313.906	1132.544
-39.013	34.214	1312.032	1130.905
-37.998	34.285	1309.867	1129.415
-36.984	34.262	1308.058	1127.674
-35.969	34.316	1306.240	1126.378
-34.954	34.235	1305.062	1124.843
-33.940	34.203	1303.638	1123.381
-32.925	34.270	1302.565	1122.808
-31.911	34.332	1301.137	1121.894
-30.896	34.355	1299.113	1120.244
-29.881	34.438	1297.923	1119.658
-28.867	34.445	1296.348	1118.295
-27.852	34.317	1295.290	1116.589
-26.838	34.366	1293.618	1115.392
-25.823	34.284	1292.261	1113.696
-24.809	34.234	1291.215	1112.457
-23.794	34.254	1289.907	1111.408
-22.779	34.342	1288.152	1110.360
-21.765	34.300	1287.216	1109.267
-20.750	34.320	1285.969	1108.263
-19.736	34.188	1284.525	1106.210
-18.721	34.271	1283.311	1105.598
-17.706	34.218	1282.242	1104.327
-16.692	34.240	1280.787	1103.160
-15.677	34.172	1279.856	1101.922
-14.663	34.146	1278.896	1100.900
-13.648	34.339	1276.957	1100.303
-12.633	34.185	1276.698	1099.143
-11.619	34.167	1276.158	1098.533
-10.604	34.331	1274.131	1097.687
-9.590	34.165	1274.033	1096.607
-8.575	34.132	1272.880	1095.380
-7.560	34.097	1272.430	1094.747
-6.546	34.178	1271.282	1094.183
-5.531	34.140	1270.319	1093.091
-4.517	34.211	1269.318	1092.594
-3.502	34.165	1268.605	1091.673
-2.487	34.173	1267.936	1091.099
-1.473	34.224	1263.374	1087.424
-0.458	32.798	1248.784	1066.764
0.556	27.880	1230.296	1025.860
1.571	23.992	1235.489	1008.118
2.586	22.922	1251.028	1014.567
3.600	22.245	1240.379	1001.984
4.615	17.263	1167.890	916.545
5.629	9.098	1092.235	815.760
6.644	5.377	1071.683	781.760
7.659	4.944	1070.111	778.386
8.673	4.952	1068.415	777.123
9.688	4.918	1066.356	775.385
10.702	5.261	1065.097	776.107
11.717	10.216	1072.391	806.089
12.731	17.510	1082.535	850.192
13.746	19.396	1083.940	860.641
14.761	18.111	1081.816	852.473
15.775	17.002	1079.620	845.148
16.790	16.027	1077.653	838.686
17.804	15.429	1075.705	834.124
18.819	14.922	1074.946	830.944
19.834	14.624	1074.185	828.802
20.848	14.413	1072.915	826.699
21.863	14.136	1072.086	824.615
22.877	14.122	1070.744	823.442
23.892	14.081	1070.381	822.888
24.907	14.005	1069.710	821.920
25.921	13.979	1068.939	821.128
26.936	14.124	1067.194	820.431
27.950	14.219	1066.248	820.099
28.965	14.392	1064.223	819.321
29.980	14.275	1062.920	817.669
30.994	14.275	1062.043	816.919
32.009	14.321	1061.101	816.351
33.023	14.411	1059.446	815.448
34.038	14.154	1059.181	813.910
35.053	14.148	1058.486	813.278
36.067	14.216	1057.034	812.423
37.082	14.210	1056.216	811.691
38.096	14.296	1055.556	811.531
39.111	14.238	1055.071	810.805
40.126	14.290	1053.191	809.540
41.140	14.073	1051.908	807.431
42.155	13.927	1050.995	805.948
43.169	14.074	1049.680	805.581
44.184	13.932	1048.932	804.246
45.199	14.094	1047.612	803.946
46.213	14.150	1046.476	803.276
47.228	14.098	1045.969	802.566
48.242	14.094	1044.827	801.596
49.257	14.026	1043.887	800.480
50.271	14.232	1042.436	800.284
51.286	14.229	1041.731	799.661
52.301	14.231	1040.932	798.985
53.315	14.235	1039.714	797.998
54.330	14.079	1038.990	796.626
55.344	14.097	1037.839	795.760
56.359	14.157	1037.131	795.433
57.374	14.075	1036.201	794.258
58.388	13.963	1035.367	793.013
59.403	14.080	1034.182	792.590
60.417	13.911	1033.759	791.391
61.432	14.000	1032.648	790.897
62.447	13.840	1032.631	790.050
63.461	13.828	1031.303	788.906
64.476	13.811	1030.587	788.210
65.490	13.857	1029.613	787.610
66.505	13.967	1028.893	787.515
67.520	13.907	1028.330	786.731
68.534	13.958	1027.736	786.448
69.549	13.918	1027.236	785.804
70.563	13.996	1025.730	784.950
71.578	13.883	1025.060	783.838
72.593	13.961	1024.304	783.559
73.607	13.859	1023.709	782.550
74.622	13.789	1022.949	781.572
75.636	13.860	1022.213	781.273
76.651	13.847	1021.537	780.626
77.666	13.810	1020.526	779.614
78.680	13.806	1020.273	779.333
79.695	13.786	1019.827	778.829
80.709	14.022	1018.863	779.127
81.724	13.940	1018.178	778.154
82.739	14.164	1017.257	778.428
83.753	14.217	1016.968	778.387
84.768	14.151	1016.225	777.438
85.782	14.397	1014.807	777.435
86.797	14.267	1014.547	776.558
87.812	14.236	1013.655	775.665
88.826	14.315	1012.124	774.793
89.841	14.167	1011.539	773.587
90.855	14.269	1010.530	773.222
91.870	14.308	1009.755	772.740
92.884	14.336	1008.855	772.111
93.899	14.432	1007.883	771.746
94.914	14.416	1007.137	771.031
95.928	14.397	1006.117	770.096
96.943	14.360	1005.479	769.365
97.957	14.210	1004.846	768.120
98.972	14.364	1003.528	767.755
99.987	14.366	1002.934	767.244
101.001	14.306	1001.511	765.812
102.016	14.192	1001.053	764.870
103.030	14.402	999.959	764.929
104.045	14.339	999.431	764.167
105.060	14.239	998.830	763.184
106.074	14.060	997.889	761.578
107.089	14.007	996.522	760.223
108.103	13.935	995.730	759.224
109.118	14.002	994.608	758.604
110.133	14.022	993.894	758.087
111.147	14.108	992.825	757.594
112.162	14.101	992.302	757.099
113.176	14.007	991.610	756.077
114.191	14.259	990.402	756.231
115.206	14.162	989.936	755.369
116.220	14.186	989.091	754.768
117.235	14.257	987.819	754.048
118.249	14.136	987.044	752.846
119.264	14.018	986.353	751.717
120.279	14.064	985.865	751.487
121.293	14.028	984.716	750.382
122.308	13.980	983.776	749.382
123.322	13.934	983.090	748.586
124.337	13.975	981.590	747.562
125.352	14.061	980.631	747.152
126.366	13.929	979.567	745.681
127.381	14.070	978.594	745.509
128.395	14.013	978.054	744.774
129.410	14.216	976.782	744.649
130.424	14.208	976.173	744.083
131.439	14.229	975.374	743.503
132.454	14.265	974.601	743.009
133.468	14.241	973.933	742.327
134.483	14.283	973.194	741.886
135.497	14.188	972.353	740.754
136.512	14.192	971.323	739.924
137.527	14.320	970.396	739.720
138.541	14.128	969.742	738.303
139.556	14.201	969.231	738.171
140.570	14.372	968.585	738.373
141.585	14.512	967.383	738.012
142.600	14.448	966.962	737.341
143.614	14.445	965.743	736.335
144.629	14.467	964.792	735.639
145.643	14.387	964.097	734.694
146.658	14.149	963.724	733.296
147.673	14.318	962.163	732.786
148.687	14.277	961.389	731.951
149.702	14.271	960.460	731.153
150.716	14.223	960.065	730.576
151.731	14.214	959.379	729.950
152.746	14.290	958.740	729.733
153.760	14.349	957.686	729.123
154.775	14.395	957.499	729.117
155.789	14.367	956.903	728.477
156.804	14.464	955.698	727.921
157.819	14.494	955.382	727.748
158.833	14.615	954.660	727.658
159.848	14.618	953.884	727.017
160.862	14.420	953.290	725.639
161.877	14.374	951.889	724.307
162.892	14.359	950.786	723.338
163.906	14.287	949.946	722.324
164.921	14.380	949.250	722.132
165.935	14.437	948.095	721.439
166.950	14.252	947.374	720.026
167.964	14.524	946.175	720.226
168.979	14.312	945.536	718.759
169.994	14.400	944.722	718.457
171.008	14.543	943.704	718.235
172.023	14.490	943.427	717.731
173.037	14.537	942.978	717.528
174.052	14.560	942.035	716.844
175.067	14.451	941.527	715.929
176.081	14.443	940.756	715.243
177.096	14.405	940.327	714.692
178.110	14.513	939.437	714.413
179.125	14.477	939.287	714.082
180.140	14.534	938.689	713.809
181.154	14.554	937.981	713.292
182.169	14.588	937.834	713.266
183.183	14.661	937.017	712.891
184.198	14.596	936.614	712.245
185.213	14.637	935.248	711.317
186.227	14.743	934.828	711.385
187.242	14.689	934.665	710.971
188.256	14.814	933.512	710.561
189.271	14.704	932.840	709.519
190.286	14.681	931.740	708.523
191.300	14.646	930.846	707.631
192.315	14.375	930.399	706.081
193.329	14.439	930.041	706.017
194.344	14.545	929.418	705.931
195.359	14.616	928.949	705.811
196.373	14.662	928.160	705.346
197.388	14.821	927.942	705.789
198.402	14.988	927.229	705.887
199.417	14.886	926.830	705.093
200.432	14.854	926.505	704.648
201.446	14.931	925.696	704.294
202.461	15.040	925.020	704.174
203.475	15.087	924.472	703.893
204.490	15.016	923.732	702.968
205.504	14.984	922.757	702.031
206.519	14.976	922.100	701.436
207.534	14.802	921.516	700.200
208.548	15.020	920.840	700.536
209.563	14.939	920.500	699.876
210.577	14.946	919.456	699.052
211.592	15.084	918.807	699.074
212.607	15.095	918.266	698.645
213.621	15.143	917.257	698.017
214.636	15.153	916.630	697.517
215.650	15.136	915.751	696.718
216.665	15.300	915.170	696.894
217.680	15.158	914.913	696.047
218.694	15.199	914.017	695.475
219.709	15.362	913.044	695.349
220.723	15.211	912.535	694.272
221.738	15.237	911.984	693.902
222.753	15.240	911.328	693.354
223.767	15.166	910.778	692.566
224.782	15.289	910.303	692.652
225.796	15.294	909.720	692.170
226.811	15.341	909.118	691.844
227.826	15.223	908.402	690.751
228.840	15.221	907.364	689.893
229.855	15.228	906.533	689.229
230.869	15.380	905.603	689.083
231.884	15.233	905.074	688.017
232.899	15.188	904.779	687.549
233.913	15.200	904.269	687.148
234.928	15.230	903.173	686.379
235.942	15.214	902.514	685.752
236.957	15.069	902.337	684.962
237.972	15.139	901.704	684.706
238.986	15.180	900.883	684.191
240.001	15.327	900.115	684.146
241.015	15.297	899.461	683.467
242.030	15.297	899.084	683.120
243.045	15.400	898.430	682.980
244.059	15.302	897.902	682.120
245.074	15.420	897.100	681.930
246.088	15.517	896.765	682.012
247.103	15.539	895.943	681.413
248.117	15.602	895.579	681.332
249.132	15.690	894.944	681.144
250.147	15.634	894.502	680.522
251.161	15.745	893.819	680.390
252.176	15.868	892.950	680.165
253.190	15.750	892.567	679.338
254.205	15.809	891.542	678.735
255.220	15.800	890.872	678.129
256.234	15.766	890.769	677.855
257.249	15.900	889.975	677.729
258.263	15.775	889.091	676.493
259.278	15.987	888.331	676.708
260.293	15.841	888.434	676.139
261.307	16.020	887.147	675.817
262.322	15.963	886.920	675.357
263.336	16.070	885.861	674.918
264.351	16.160	884.905	674.490
265.366	16.189	884.771	674.445
266.380	15.928	884.862	673.410
267.395	16.076	883.609	672.987
268.409	16.060	882.569	672.075
269.424	15.989	882.058	671.342
270.439	16.114	881.017	670.988
271.453	15.924	880.651	669.895
272.468	15.940	879.873	669.305
273.482	15.893	879.858	669.049
274.497	16.058	879.095	669.066
275.512	16.054	878.442	668.491
276.526	15.976	877.991	667.780
277.541	16.101	877.351	667.729
278.555	16.304	876.805	668.060
279.570	16.246	876.242	667.341
280.585	16.271	875.117	666.525
281.599	16.297	874.160	665.839
282.614	16.124	874.003	664.979
283.628	16.156	873.004	664.285
284.643	16.154	872.716	663.999
285.657	16.179	872.395	663.796
286.672	16.383	871.165	663.602
287.687	16.173	870.549	662.251
288.701	16.341	870.502	662.813
289.716	16.164	870.341	661.940
290.730	16.326	869.462	661.846
291.745	16.258	868.592	660.861
292.760	16.381	868.150	660.944
293.774	16.516	867.415	660.855
294.789	16.362	867.233	660.055
295.803	16.344	865.921	658.929
296.818	16.287	865.480	658.312
297.833	16.396	864.540	657.964
298.847	16.239	864.614	657.349
299.862	16.326	864.078	657.226
300.876	16.354	863.443	656.790
301.891	16.501	862.361	656.483
302.906	16.518	862.063	656.262
303.920	16.687	861.376	656.336
304.935	16.727	860.806	655.999
305.949	16.606	860.240	655.043
306.964	16.673	859.263	654.498
307.979	16.628	859.056	654.110
308.993	16.767	858.082	653.848
310.008	16.741	857.794	653.470
311.022	16.669	857.076	652.588
312.037	16.622	856.827	652.156
313.052	16.447	856.142	650.904
314.066	16.575	855.442	650.808
315.081	16.552	854.883	650.236
316.095	16.433	854.527	649.450
317.110	16.496	853.643	648.962
318.125	16.611	853.228	649.033
319.139	16.607	852.707	648.563
320.154	16.615	852.076	648.056
321.168	16.554	852.150	647.820
322.183	16.678	851.393	647.663
323.197	16.770	850.801	647.508
324.212	16.567	850.265	646.264
325.227	16.559	849.763	645.795
326.241	16.643	849.257	645.676
327.256	16.618	848.489	644.940
328.270	16.676	847.477	644.336
329.285	16.759	847.278	644.440
330.300	16.632	846.458	643.278
331.314	16.746	845.893	643.223
332.329	16.728	845.822	643.045
333.343	16.761	845.409	642.801
334.358	16.743	844.812	642.222
335.373	16.731	844.488	641.870
336.387	16.984	844.326	642.649
337.402	16.953	843.908	642.159
338.416	16.935	843.722	641.893
339.431	16.935	843.300	641.512
340.446	16.898	842.945	641.048
341.460	17.094	842.293	641.236
342.475	17.068	842.003	640.860
343.489	17.132	841.436	640.611
344.504	17.174	840.862	640.277
345.519	17.341	840.316	640.435
346.533	17.271	839.567	639.542
347.548	17.077	839.367	638.604
348.562	17.053	838.905	638.108
349.577	16.919	838.432	637.185
350.592	17.069	837.612	637.068
351.606	16.940	837.038	636.092
352.621	16.891	836.743	635.629
353.635	17.072	835.778	635.517
354.650	17.115	835.173	635.163
355.665	17.122	834.436	634.573
356.679	17.238	833.811	634.474
357.694	17.086	833.207	633.388
358.708	17.287	832.375	633.451
359.723	17.203	832.286	633.014
360.738	17.215	831.692	632.550
361.752	17.278	831.154	632.318
362.767	17.461	830.362	632.341
363.781	17.488	829.748	631.917
364.796	17.505	829.486	631.725
365.810	17.640	829.147	631.911
366.825	17.540	828.946	631.334
367.840	17.474	828.469	630.668
368.854	17.537	827.378	630.016
369.869	17.459	827.413	629.697
370.883	17.618	826.898	629.836
371.898	17.507	826.708	629.227
372.913	17.486	826.361	628.828
373.927	17.546	825.711	628.500
374.942	17.789	824.870	628.703
375.956	17.730	824.752	628.338
376.971	17.675	824.625	627.983
377.986	17.782	823.949	627.805
379.000	17.762	823.111	627.037
380.015	17.808	822.918	627.007
381.029	17.887	822.026	626.559
382.044	17.921	821.251	626.040
383.059	17.826	821.022	625.462
384.073	17.850	820.044	624.748
385.088	17.678	819.750	623.838
386.102	17.763	818.847	623.409
387.117	17.726	818.762	623.152
388.132	17.723	818.006	622.511
389.146	17.746	817.600	622.231
390.161	17.877	816.982	622.184
391.175	17.872	816.594	621.816
392.190	17.985	815.960	621.688
393.205	17.845	815.324	620.641
394.219	17.836	815.253	620.496
395.234	17.680	815.189	619.827
396.248	17.672	814.763	619.420
397.263	17.682	814.327	619.068
398.278	17.722	813.840	618.789
399.292	17.696	813.510	618.389
400.307	17.727	812.918	617.999
401.321	17.849	812.368	617.966
402.336	17.843	811.993	617.603
403.350	17.895	811.551	617.401
404.365	17.855	811.146	616.894
405.380	17.942	810.430	616.610
406.394	18.000	810.040	616.466
407.409	18.053	809.741	616.374
408.423	18.212	809.322	616.577
409.438	18.181	808.443	615.739
410.453	18.175	808.382	615.618
411.467	18.351	807.509	615.532
412.482	18.376	807.400	615.481
413.496	18.273	807.645	615.244
414.511	18.239	807.068	614.630
415.526	18.384	806.640	614.768
416.540	18.356	805.833	613.999
417.555	18.358	805.510	613.707
418.569	18.362	804.926	613.220
419.584	18.239	804.609	612.485
420.599	18.291	804.211	612.312
421.613	153.472	1370.438	1789.489
422.628	133.102	1452.940	1789.577
