DTS Sentinel unit serial number:	SN413079Multiplexer serial number:	ORYXHardware model number:	OX4-SRSoftware version number:	ORYX F/W v4.00 Oryx Data Collector v3.7.2.0data status	okinstallation	princeton_trtdifferential loss correction	single-endedforward channel	channel 1reverse channel	N/Adate	2019/09/14time	06:42:36forward acquisition time	60.00reverse acquisition time	0.00gamma	496.2192k internal	0.2337k external	0.2337temperature offset calibration	1.0081default loss term (dB/km)	0.3790temperature slope calibration	1.0000multiplexer offset coefficient	1.0000multiplexer slope coefficient	1.0000fibre end	0.00T internal ref (°C)	26.31T ext. ref 1 (°C)	3.41T ext. ref 2 (°C)	20.53length (m)	temperature (°C)	Stokes	anti-Stokes-747.200	412.816	-0.101	0.216
-746.185	-176.514	0.126	-0.003
-745.171	104.836	0.188	0.222
-744.156	69.791	0.149	0.154
-743.142	-46.942	0.465	0.228
-742.127	389.847	0.138	0.287
-741.112	189.972	-0.152	0.228
-740.098	2.541	0.098	0.071
-739.083	-155.929	0.166	0.011
-738.069	-136.633	0.069	0.008
-737.054	-200.000	-0.029	0.137
-736.039	-59.099	-0.181	-0.078
-735.025	-134.476	-0.365	-0.045
-734.010	84.515	-0.189	-0.207
-732.996	-143.441	-0.362	-0.035
-731.981	-122.730	0.450	0.073
-730.966	-50.241	-0.110	0.052
-729.952	63.691	-0.131	-0.132
-728.937	677.111	0.096	-0.251
-727.923	134.370	-0.106	-0.138
-726.908	-107.468	-0.378	0.083
-725.894	164.690	-0.124	-0.175
-724.879	-200.000	-0.038	-0.236
-723.864	83.753	-0.099	-0.108
-722.850	-146.978	-0.285	-0.025
-721.835	-40.866	0.130	0.067
-720.821	102.774	0.154	0.180
-719.806	800.000	0.009	0.026
-718.791	-4.176	0.131	-0.091
-717.777	64.240	0.124	-0.125
-716.762	447.390	0.067	-0.148
-715.748	-200.000	0.024	-0.188
-714.733	-200.000	0.085	-0.399
-713.718	187.711	-0.037	-0.056
-712.704	40.347	0.213	-0.192
-711.689	55.855	-0.123	0.120
-710.675	-101.276	-0.141	-0.035
-709.660	-76.559	-0.036	-0.013
-708.645	800.000	-0.095	0.340
-707.631	-27.249	0.219	-0.128
-706.616	-161.420	0.073	0.004
-705.602	800.000	0.032	0.110
-704.587	730.849	-0.133	-0.355
-703.572	-77.464	-0.208	0.072
-702.558	800.000	-0.128	0.496
-701.543	-146.860	-0.299	0.026
-700.529	217.528	0.081	0.129
-699.514	62.233	0.137	-0.137
-698.499	471.964	0.116	0.262
-697.485	246.405	-0.152	-0.256
-696.470	-179.121	0.030	-0.001
-695.456	484.818	-0.101	-0.231
-694.441	-128.317	-0.174	-0.025
-693.426	100.005	0.100	-0.117
-692.412	309.286	0.108	-0.202
-691.397	-6.085	-0.306	-0.209
-690.383	47.333	0.042	-0.039
-689.368	93.436	-0.095	0.108
-688.354	800.000	-0.092	0.288
-687.339	-200.000	-0.027	-0.160
-686.324	-18.078	-0.082	-0.052
-685.310	-106.852	-0.163	0.036
-684.295	-141.825	-0.208	0.021
-683.281	-59.844	0.271	0.116
-682.266	-71.239	0.133	-0.050
-681.251	98.562	0.066	0.077
-680.237	-66.057	-0.290	0.116
-679.222	-32.317	0.374	0.209
-678.208	-64.057	0.016	-0.006
-677.193	72.867	0.131	0.137
-676.178	800.000	0.059	-0.178
-675.164	-200.000	0.000	-0.144
-674.149	218.198	-0.045	0.072
-673.135	-200.000	0.028	-0.394
-672.120	-200.000	-0.040	0.250
-671.105	486.162	0.053	0.121
-670.091	-171.022	-0.190	0.006
-669.076	118.822	-0.134	-0.166
-668.062	-200.000	-0.199	0.001
-667.047	-200.000	0.014	-0.187
-666.032	29.208	0.178	0.151
-665.018	-43.694	0.054	0.027
-664.003	-48.029	0.255	0.123
-662.989	-42.415	-0.078	0.040
-661.974	-129.649	-0.237	0.033
-660.959	63.472	0.155	0.156
-659.945	-138.711	-0.012	0.001
-658.930	-41.274	-0.238	-0.123
-657.916	-28.772	0.171	0.098
-656.901	-186.906	-0.181	-0.003
-655.886	113.259	-0.164	0.199
-654.872	-95.050	0.421	-0.114
-653.857	-80.858	-0.218	-0.073
-652.843	-35.703	-0.175	-0.095
-651.828	800.000	-0.072	-0.221
-650.814	252.198	0.098	-0.167
-649.799	-46.165	0.151	0.074
-648.784	-200.000	-0.004	0.147
-647.770	128.247	0.164	0.209
-646.755	-13.426	-0.295	0.192
-645.741	-110.500	0.138	-0.029
-644.726	-107.727	0.241	-0.053
-643.711	-24.239	-0.209	0.125
-642.697	-200.000	0.040	-0.314
-641.682	-53.456	0.214	-0.098
-640.668	-152.114	-0.186	-0.013
-639.653	145.926	-0.142	0.190
-638.638	454.849	0.062	-0.137
-637.624	-158.292	-0.338	0.020
-636.609	171.051	-0.093	0.133
-635.595	-95.538	0.139	-0.037
-634.580	127.144	0.040	-0.051
-633.565	51.118	0.132	0.125
-632.551	142.852	-0.082	-0.109
-631.536	19.429	0.142	0.114
-630.522	-90.293	-0.429	0.125
-629.507	-200.000	-0.004	-0.041
-628.492	-200.000	0.076	-0.509
-627.478	-145.700	-0.159	-0.014
-626.463	-200.000	0.003	0.368
-625.449	-200.000	-0.007	-0.106
-624.434	276.082	-0.058	0.103
-623.419	652.614	-0.099	0.253
-622.405	86.912	0.033	-0.037
-621.390	800.000	-0.065	-0.217
-620.376	-49.938	0.159	0.075
-619.361	-163.548	0.083	-0.004
-618.346	-54.450	0.177	-0.080
-617.332	64.892	0.175	0.176
-616.317	-200.000	-0.074	0.355
-615.303	800.000	0.058	0.230
-614.288	5.314	-0.068	-0.050
-613.273	-106.469	-0.216	-0.048
-612.259	-104.592	-0.275	0.063
-611.244	-158.447	0.158	-0.009
-610.230	29.992	-0.053	-0.045
-609.215	800.000	0.066	-0.196
-608.201	-80.462	0.272	-0.091
-607.186	-57.537	-0.317	0.139
-606.171	256.820	0.149	0.256
-605.157	229.740	0.174	-0.284
-604.142	-187.555	0.066	-0.001
-603.128	-41.232	0.456	0.235
-602.113	-30.039	0.176	-0.100
-601.098	-200.000	0.088	-0.404
-600.084	186.502	-0.142	-0.211
-599.069	129.600	0.115	-0.146
-598.055	-124.274	0.243	-0.038
-597.040	-200.000	0.047	0.325
-596.025	416.110	0.073	-0.155
-595.011	-24.409	-0.256	-0.152
-593.996	191.935	0.120	0.181
-592.982	-200.000	-0.009	-0.088
-591.967	-167.419	-0.315	-0.013
-590.952	-129.038	-0.320	-0.045
-589.938	60.258	0.345	-0.340
-588.923	-1.565	0.296	0.208
-587.909	240.948	0.195	0.324
-586.894	-41.014	0.250	0.129
-585.879	-101.106	-0.105	0.026
-584.865	-166.875	0.157	0.006
-583.850	24.220	-0.157	0.129
-582.836	-200.000	-0.022	-0.202
-581.821	-28.161	-0.210	-0.121
-580.806	-60.793	-0.049	0.021
-579.792	-121.187	0.197	-0.033
-578.777	-114.881	-0.036	0.007
-577.763	800.000	-0.042	-0.159
-576.748	-200.000	-0.006	0.037
-575.733	-79.709	-0.211	-0.071
-574.719	265.563	0.117	-0.204
-573.704	-200.000	-0.015	-0.176
-572.690	-105.471	-0.555	-0.126
-571.675	244.657	0.177	0.297
-570.661	-132.464	0.189	-0.024
-569.646	-200.000	-0.014	0.138
-568.631	147.098	-0.179	0.240
-567.617	-133.392	-0.149	-0.019
-566.602	26.054	-0.185	-0.154
-565.588	7.042	-0.120	-0.090
-564.573	253.234	-0.065	-0.110
-563.558	-12.615	0.178	-0.116
-562.544	-187.487	-0.351	0.005
-561.529	15.370	-0.230	-0.180
-560.515	123.667	0.103	-0.129
-559.500	800.000	-0.093	-0.332
-558.485	-4.898	0.245	-0.168
-557.471	101.311	-0.156	0.181
-556.456	-34.523	0.241	0.131
-555.442	-130.532	0.335	-0.045
-554.427	48.104	0.030	0.028
-553.412	-116.571	-0.399	0.073
-552.398	11.977	-0.162	-0.124
-551.383	-20.173	-0.288	-0.177
-550.369	-108.667	0.210	-0.045
-549.354	-166.401	-0.458	-0.019
-548.339	800.000	-0.025	-0.103
-547.325	-131.086	-0.209	-0.028
-546.310	230.918	0.230	-0.375
-545.296	-182.698	0.131	-0.002
-544.281	-129.325	-0.251	0.035
-543.266	-200.000	-0.003	0.161
-542.252	-22.071	0.250	-0.151
-541.237	103.280	0.150	-0.176
-540.223	-37.318	0.234	-0.125
-539.208	-58.242	-0.042	0.018
-538.193	-49.304	-0.256	0.122
-537.179	-122.411	0.249	0.040
-536.164	90.866	-0.217	0.242
-535.150	-200.000	-0.015	-0.146
-534.135	-131.513	0.246	0.032
-533.121	222.381	-0.122	0.195
-532.106	-200.000	0.161	0.000
-531.091	482.510	-0.171	-0.388
-530.077	-200.000	-0.018	-0.137
-529.062	26.496	-0.209	0.174
-528.048	-179.246	-0.399	0.009
-527.033	469.576	-0.209	0.468
-526.018	-195.057	-0.342	0.003
-525.004	-200.000	0.181	-0.000
-523.989	-200.000	-0.007	-0.046
-522.975	-200.000	0.007	-0.051
-521.960	-154.253	-0.333	-0.022
-520.945	-200.000	-0.047	0.214
-519.931	78.821	0.048	-0.051
-518.916	280.414	-0.184	0.327
-517.902	-200.000	-0.028	-0.135
-516.887	-53.443	0.128	0.058
-515.872	800.000	0.085	0.237
-514.858	-200.000	0.002	0.023
-513.843	-67.749	-0.060	0.023
-512.829	-52.741	0.094	-0.043
-511.814	331.226	0.028	0.053
-510.799	800.000	0.098	0.368
-509.785	800.000	0.079	0.291
-508.770	-200.000	-0.010	-0.113
-507.756	773.356	-0.141	0.382
-506.741	59.993	0.206	-0.202
-505.726	53.106	0.177	-0.169
-504.712	-24.214	0.089	-0.053
-503.697	-34.324	-0.134	0.073
-502.683	-190.553	0.361	0.004
-501.668	-23.877	-0.244	-0.145
-500.653	-23.391	-0.201	-0.120
-499.639	-11.496	0.282	-0.185
-498.624	-41.450	0.240	-0.123
-497.610	-200.000	-0.023	-0.238
-496.595	204.414	-0.120	-0.184
-495.581	505.881	-0.178	0.411
-494.566	-30.352	0.042	0.024
-493.551	-114.917	0.149	-0.028
-492.537	800.000	0.060	-0.187
-491.522	-113.182	0.248	-0.049
-490.508	-200.000	0.011	0.128
-489.493	405.760	-0.074	0.155
-488.478	420.246	-0.095	0.203
-487.464	30.326	0.060	0.051
-486.449	-151.212	0.309	0.023
-485.435	-150.803	0.200	0.015
-484.420	800.000	-0.032	0.101
-483.405	-48.656	-0.101	0.048
-482.391	-105.607	0.169	0.038
-481.376	800.000	-0.035	0.136
-480.362	-200.000	0.001	0.390
-479.347	437.740	-0.014	-0.030
-478.332	-92.765	-0.417	-0.116
-477.318	800.000	-0.055	0.212
-476.303	-200.000	-0.042	0.238
-475.289	164.525	-0.119	0.166
-474.274	204.477	0.065	-0.100
-473.259	-200.000	-0.019	-0.145
-472.245	-54.954	-0.223	0.100
-471.230	190.734	0.181	0.270
-470.216	-114.279	0.291	-0.056
-469.201	800.000	-0.054	-0.198
-468.186	-3.327	-0.181	0.125
-467.172	800.000	0.087	-0.256
-466.157	-176.774	-0.230	0.006
-465.143	321.214	0.101	-0.191
-464.128	-200.000	-0.031	-0.295
-463.113	800.000	-0.071	0.276
-462.099	-200.000	-0.048	0.360
-461.084	-163.400	-0.450	-0.021
-460.070	-200.000	0.041	-0.345
-459.055	800.000	-0.021	0.086
-458.040	-85.880	-0.216	-0.066
-457.026	-65.944	-0.095	0.038
-456.011	-200.000	-0.018	-0.124
-454.997	-167.780	-0.108	-0.004
-453.982	-36.059	-0.120	0.065
-452.968	-113.425	-0.138	-0.027
-451.953	-200.000	0.039	0.203
-450.938	-14.562	-0.241	0.154
-449.924	800.000	-0.108	-0.373
-448.909	19.669	0.141	0.112
-447.895	-75.921	-0.177	0.062
-446.880	230.679	0.099	0.161
-445.865	-51.554	0.149	0.069
-444.851	-55.769	0.282	-0.125
-443.836	-41.327	-0.348	-0.178
-442.822	28.641	0.139	-0.117
-441.807	273.050	-0.154	0.269
-440.792	-110.825	0.041	-0.008
-439.778	-86.407	-0.357	-0.109
-438.763	-200.000	0.039	0.348
-437.749	-45.774	0.210	0.103
-436.734	-200.000	-0.035	-0.318
-435.719	210.782	-0.126	-0.196
-434.705	-115.944	-0.141	-0.026
-433.690	-200.000	-0.030	0.288
-432.676	165.950	-0.229	0.322
-431.661	-26.209	0.078	-0.046
-430.646	-78.026	-0.250	-0.085
-429.632	214.659	0.089	-0.140
-428.617	173.745	0.098	0.140
-427.603	241.242	0.039	-0.065
-426.588	-120.743	0.260	0.044
-425.573	172.428	0.242	-0.346
-424.559	-62.424	0.043	-0.018
-423.544	-200.000	0.034	0.318
-422.530	-63.018	0.266	-0.109
-421.515	75.401	0.178	0.186
-420.500	800.000	0.041	0.125
-419.486	-200.000	0.046	-0.289
-418.471	282.293	0.026	-0.046
-417.457	-200.000	-0.033	-0.172
-416.442	-113.927	-0.201	0.039
-415.428	-60.690	0.149	0.063
-414.413	-86.607	0.145	0.044
-413.398	208.466	-0.104	-0.161
-412.384	-124.559	-0.273	-0.042
-411.369	51.527	-0.179	0.168
-410.355	-200.000	-0.022	0.257
-409.340	-200.000	-0.008	-0.117
-408.325	-200.000	0.040	-0.251
-407.311	-200.000	0.029	-0.304
-406.296	-109.901	-0.180	-0.037
-405.282	-29.091	0.102	0.058
-404.267	264.570	-0.163	-0.282
-403.252	800.000	0.180	-0.611
-402.238	-114.677	0.147	-0.028
-401.223	-134.026	0.088	-0.011
-400.209	-200.000	0.006	-0.207
-399.194	-188.961	-0.398	0.005
-398.179	192.443	0.063	0.094
-397.165	800.000	-0.010	0.032
-396.150	44.060	0.126	-0.114
-395.136	-23.309	-0.138	0.082
-394.121	-140.866	0.173	0.018
-393.106	22.578	0.146	0.118
-392.092	-78.524	0.267	-0.090
-391.077	650.328	-0.139	0.352
-390.063	56.039	-0.194	-0.186
-389.048	-113.645	-0.052	0.010
-388.033	-200.000	0.014	-0.113
-387.019	391.226	-0.160	-0.328
-386.004	-200.000	0.055	-0.366
-384.990	-177.501	-0.441	-0.011
-383.975	-82.365	-0.129	-0.042
-382.960	-155.332	0.136	0.009
-381.946	800.000	0.050	0.187
-380.931	-50.247	0.121	-0.057
-379.917	35.418	-0.073	-0.064
-378.902	-96.439	0.211	-0.055
-377.888	-32.056	0.060	0.033
-376.873	-100.276	0.207	0.051
-375.858	465.927	0.079	0.175
-374.844	800.000	-0.108	0.361
-373.829	-114.538	0.163	-0.031
-372.815	800.000	-0.073	-0.259
-371.800	-200.000	0.004	-0.026
-370.785	-83.342	-0.318	-0.101
-369.771	667.150	-0.024	-0.060
-368.756	-149.434	0.244	-0.019
-367.742	-148.607	-0.229	0.018
-366.727	-200.000	0.035	0.267
-365.712	800.000	-0.049	-0.188
-364.698	-135.631	0.160	-0.019
-363.683	800.000	0.066	-0.189
-362.669	-54.717	-0.132	0.059
-361.654	135.438	-0.121	-0.156
-360.639	800.000	0.124	-0.402
-359.625	166.441	0.090	0.126
-358.610	-63.902	-0.305	0.124
-357.596	513.711	-0.083	0.192
-356.581	-11.517	0.218	0.142
-355.566	28.937	-0.046	0.039
-354.552	453.987	-0.102	0.224
-353.537	800.000	0.078	-0.217
-352.523	46.014	0.075	-0.069
-351.508	-67.089	0.146	-0.057
-350.493	-15.458	0.163	-0.103
-349.479	-200.000	0.057	0.265
-348.464	131.460	-0.022	-0.028
-347.450	-75.084	0.339	-0.120
-346.435	-147.256	0.224	0.019
-345.420	800.000	0.048	0.139
-344.406	-74.217	0.242	-0.086
-343.391	-169.994	-0.120	0.004
-342.377	-135.219	0.213	0.025
-341.362	-200.000	0.004	0.239
-340.348	201.113	-0.124	0.188
-339.333	-109.355	-0.261	0.055
-338.318	800.000	-0.129	-0.519
-337.304	-26.085	0.232	-0.135
-336.289	-36.544	0.242	0.129
-335.275	6.477	-0.064	-0.047
-334.260	-1.168	0.180	-0.126
-333.245	47.477	-0.152	0.140
-332.231	-53.202	-0.393	-0.178
-331.216	-27.813	0.277	0.159
-330.202	120.049	0.210	-0.257
-329.187	-96.657	-0.440	-0.114
-328.172	800.000	0.061	0.227
-327.158	-96.163	-0.294	-0.077
-326.143	476.960	-0.095	0.213
-325.129	24.061	0.166	0.135
-324.114	800.000	0.041	0.115
-323.099	-161.079	-0.088	-0.005
-322.085	142.376	-0.109	-0.143
-321.070	12.735	0.090	-0.069
-320.056	106.130	0.159	0.186
-319.041	-69.453	0.314	0.119
-318.026	-200.000	0.040	0.223
-317.012	25.761	0.099	0.081
-315.997	261.255	0.123	0.210
-314.983	26.434	0.269	0.222
-313.968	-2.049	0.219	0.152
-312.953	86.346	0.345	0.375
-311.939	-87.166	0.101	-0.030
-310.924	-20.132	0.245	0.149
-309.910	-182.518	0.189	0.003
-308.895	143.558	-0.179	-0.235
-307.880	110.400	-0.045	-0.053
-306.866	-127.791	-0.132	0.019
-305.851	10.246	-0.261	0.196
-304.837	-83.398	0.134	0.042
-303.822	-61.373	-0.046	-0.019
-302.807	48.870	-0.046	-0.043
-301.793	-146.790	0.310	-0.026
-300.778	129.193	0.054	-0.069
-299.764	-200.000	0.006	-0.164
-298.749	-113.431	-0.276	0.053
-297.735	800.000	-0.030	0.107
-296.720	-108.290	0.216	0.046
-295.705	-200.000	0.012	-0.230
-294.691	102.350	-0.211	0.243
-293.676	99.179	0.091	-0.104
-292.662	95.592	-0.219	0.247
-291.647	-29.368	-0.177	0.100
-290.632	800.000	-0.011	0.037
-289.618	-140.629	0.526	0.054
-288.603	75.016	0.065	-0.067
-287.589	-189.117	-0.190	0.002
-286.574	-146.513	0.188	0.016
-285.559	328.658	-0.076	-0.145
-284.545	-5.674	0.360	-0.243
-283.530	-200.000	0.032	-0.159
-282.516	-68.782	-0.136	-0.052
-281.501	-200.000	0.006	0.260
-280.486	155.883	-0.129	-0.175
-279.472	89.840	-0.272	-0.299
-278.457	-200.000	0.008	0.070
-277.443	-200.000	-0.071	-0.315
-276.428	-74.970	-0.032	0.011
-275.413	-92.154	0.199	0.055
-274.399	-189.233	-0.146	0.002
-273.384	800.000	-0.064	0.188
-272.370	-154.666	-0.296	-0.019
-271.355	-158.570	0.287	-0.016
-270.340	-200.000	0.036	0.249
-269.326	-200.000	-0.031	0.224
-268.311	-200.000	0.041	-0.335
-267.297	-200.000	0.024	0.145
-266.282	91.718	-0.145	0.161
-265.267	37.860	0.306	0.268
-264.253	-84.108	-0.231	-0.072
-263.238	-200.000	-0.020	-0.234
-262.224	-111.342	-0.085	-0.017
-261.209	-82.762	-0.198	0.063
-260.195	800.000	0.037	0.143
-259.180	-98.555	-0.194	-0.049
-258.165	-136.824	0.234	-0.027
-257.151	-22.276	-0.244	-0.145
-256.136	-32.334	-0.132	0.073
-255.122	-67.023	-0.120	0.047
-254.107	-99.770	-0.381	-0.094
-253.092	175.103	0.138	-0.197
-252.078	-143.439	0.177	0.017
-251.063	-172.267	-0.193	-0.006
-250.049	6.564	0.269	0.197
-249.034	-24.555	-0.125	0.073
-248.019	-189.002	0.357	-0.004
-247.005	104.139	-0.229	-0.265
-245.990	-86.398	-0.189	-0.057
-244.976	-57.148	-0.279	0.121
-243.961	-125.604	-0.251	-0.037
-242.946	43.771	-0.160	-0.144
-241.932	291.704	0.161	-0.288
-240.917	-115.344	0.172	-0.032
-239.903	-31.669	0.122	-0.068
-238.888	-200.000	0.039	0.181
-237.873	-95.879	0.290	0.076
-236.859	-0.414	0.287	0.201
-235.844	-200.000	0.032	-0.159
-234.830	6.405	-0.292	0.214
-233.815	-102.610	0.068	0.016
-232.800	-117.776	-0.253	-0.045
-231.786	-103.026	0.054	0.013
-230.771	95.178	-0.021	-0.023
-229.757	-200.000	-0.027	0.327
-228.742	-166.603	-0.188	-0.008
-227.727	632.265	-0.138	-0.344
-226.713	186.498	0.076	0.112
-225.698	21.024	0.245	-0.196
-224.684	403.182	-0.153	-0.316
-223.669	-70.135	0.188	-0.070
-222.655	-16.037	0.183	0.114
-221.640	-141.665	-0.106	-0.010
-220.625	-200.000	0.038	-0.197
-219.611	207.414	-0.084	-0.130
-218.596	18.314	-0.107	-0.084
-217.582	-123.117	0.068	0.011
-216.567	-108.132	0.233	0.050
-215.552	-10.206	-0.056	-0.036
-214.538	800.000	-0.054	0.231
-213.523	-200.000	-0.029	-0.357
-212.509	-51.148	0.127	0.058
-211.494	42.831	0.237	-0.212
-210.479	-200.000	-0.072	-0.377
-209.465	25.423	0.108	0.088
-208.450	-69.591	0.124	-0.047
-207.436	71.944	-0.176	-0.180
-206.421	406.081	-0.081	0.168
-205.406	232.059	0.085	0.136
-204.392	-145.683	0.220	-0.019
-203.377	800.000	0.046	0.151
-202.363	-200.000	-0.041	0.261
-201.348	-200.000	-0.006	0.289
-200.333	19.867	0.244	0.194
-199.319	135.670	0.047	-0.060
-198.304	110.032	-0.064	-0.075
-197.290	-90.034	-0.471	0.135
-196.275	408.206	0.110	0.229
-195.260	-127.744	0.170	-0.024
-194.246	-9.830	0.215	-0.141
-193.231	10.080	0.103	0.077
-192.217	464.391	-0.046	0.101
-191.202	23.298	0.119	-0.096
-190.187	14.190	0.234	0.179
-189.173	79.069	0.231	-0.243
-188.158	-85.786	-0.072	0.022
-187.144	1.809	0.150	-0.106
-186.129	50.848	0.096	0.089
-185.114	-123.516	-0.226	0.035
-184.100	42.712	0.138	-0.123
-183.085	-200.000	-0.031	-0.176
-182.071	138.839	0.113	-0.145
-181.056	800.000	-0.073	-0.309
-180.042	-37.735	0.261	0.137
-179.027	34.298	0.218	0.187
-178.012	206.945	0.086	-0.131
-176.998	124.742	-0.037	-0.046
-175.983	-113.328	-0.241	0.046
-174.969	135.974	0.099	0.127
-173.954	-35.581	0.224	-0.119
-172.939	-50.984	-0.204	0.094
-171.925	-200.000	-0.002	0.038
-170.910	800.000	0.054	0.206
-169.896	-45.905	-0.158	0.076
-168.881	19.089	-0.266	-0.209
-167.866	-66.185	0.268	0.105
-166.852	34.565	0.149	-0.128
-165.837	-52.074	0.101	-0.046
-164.823	-63.339	-0.272	-0.110
-163.808	225.792	0.200	-0.318
-162.793	-94.497	-0.125	-0.033
-161.779	800.000	-0.095	0.353
-160.764	-60.062	-0.095	0.040
-159.750	-40.334	0.181	-0.092
-158.735	-62.145	-0.357	0.146
-157.720	726.735	0.050	-0.132
-156.706	48.690	0.211	0.194
-155.691	384.467	0.162	0.328
-154.677	-92.976	-0.285	-0.078
-153.662	-90.542	-0.617	0.175
-152.647	294.485	-0.188	0.337
-151.633	-10.975	0.225	-0.146
-150.618	55.927	0.082	-0.078
-149.604	-200.000	-0.009	0.072
-148.589	-104.738	0.261	0.059
-147.574	800.000	0.087	0.276
-146.560	186.384	-0.108	0.157
-145.545	600.233	0.090	-0.220
-144.531	-98.777	0.145	0.036
-143.516	-200.000	-0.025	-0.196
-142.502	-84.625	-0.114	-0.035
-141.487	800.000	0.072	-0.282
-140.472	-65.628	0.391	0.154
-139.458	-104.931	-0.298	-0.067
-138.443	95.458	-0.048	0.053
-137.429	90.648	-0.121	-0.133
-136.414	-136.009	-0.399	0.046
-135.399	-14.393	-0.153	-0.096
-134.385	800.000	-0.082	-0.247
-133.370	71.808	-0.240	0.244
-132.356	565.116	0.064	-0.153
-131.341	514.103	0.153	0.351
-130.326	-44.839	-0.089	-0.043
-129.312	-30.446	0.120	0.067
-128.297	197.283	-0.028	0.043
-127.283	-120.068	0.209	0.035
-126.268	-200.000	-0.084	-0.503
-125.253	5.075	0.381	-0.275
-124.239	800.000	0.049	0.189
-123.224	0.483	0.233	-0.163
-122.210	224.707	-0.104	-0.165
-121.195	194.772	-0.258	-0.384
-120.180	-200.000	-0.008	0.048
-119.166	45.696	0.132	0.119
-118.151	679.296	-0.029	0.073
-117.137	27.050	-0.048	-0.039
-116.122	800.000	0.064	-0.263
-115.107	65.494	0.171	0.169
-114.093	-200.000	-0.002	-0.180
-113.078	-145.263	0.307	0.027
-112.064	800.000	0.086	0.261
-111.049	-45.110	0.160	-0.078
-110.034	-200.000	-0.002	0.265
-109.020	772.182	-0.072	-0.191
-108.005	182.288	-0.039	-0.056
-106.991	134.847	0.209	-0.266
-105.976	7.538	-0.164	0.120
-104.962	-101.751	-0.260	-0.062
-103.947	31.787	-0.323	-0.272
-102.932	96.839	-0.053	-0.060
-101.918	159.866	-0.100	-0.136
-100.903	143.271	0.121	0.157
-99.889	-146.084	0.197	0.017
-98.874	381.142	0.165	-0.332
-97.859	-163.675	-0.072	0.003
-96.845	33.123	-0.045	-0.038
-95.830	-92.960	-0.057	0.016
-94.816	228.898	0.188	0.300
-93.801	302.213	0.118	-0.213
-92.786	800.000	0.083	0.259
-91.772	333.132	0.046	-0.086
-90.757	-89.883	0.301	-0.086
-89.743	-89.827	-0.107	-0.031
-88.728	-88.510	-0.039	0.011
-87.713	52.215	0.164	0.153
-86.699	74.967	-0.246	-0.254
-85.684	40.628	-0.231	-0.204
-84.670	-200.000	-0.045	0.283
-83.655	44.804	0.248	-0.223
-82.640	-200.000	-0.028	-0.155
-81.626	-200.000	0.026	-0.304
-80.611	800.000	-0.080	-0.313
-79.597	-58.246	0.341	-0.145
-78.582	-113.567	-0.217	0.041
-77.567	-149.663	0.346	-0.027
-76.553	321.876	-0.040	-0.074
-75.538	241.545	-0.075	-0.122
-74.524	-132.658	0.209	0.026
-73.509	-200.000	0.014	-0.348
-72.494	-200.000	0.048	-0.358
-71.480	800.000	-0.027	-0.089
-70.465	204.943	-0.095	-0.144
-69.451	800.000	-0.123	-0.473
-68.436	309.828	0.141	-0.258
-67.422	429.487	-0.138	0.292
-66.407	378.675	-0.120	-0.240
-65.392	-0.826	-0.144	0.100
-64.378	-128.825	0.147	0.020
-63.363	7.345	0.155	-0.113
-62.349	-200.000	-0.049	-0.244
-61.334	133.484	-0.987	-1.248
-60.319	-26.008	0.654	0.376
-59.305	-200.000	-0.088	-1.169
-58.290	270.765	0.774	1.332
-57.276	458.805	0.720	1.565
-56.261	-200.000	117.334	634.880
-55.246	475.739	1553.964	3430.171
-54.232	173.620	2724.140	3841.414
-53.217	103.517	2159.746	2476.695
-52.203	37.937	1590.810	1381.840
-51.188	29.750	1332.988	1108.985
-50.173	26.798	1294.531	1059.723
-49.159	51.853	1353.533	1258.693
-48.144	50.378	1366.698	1262.068
-47.130	29.714	1320.419	1098.139
-46.115	26.449	1302.123	1063.717
-45.100	26.217	1297.363	1058.430
-44.086	26.133	1294.783	1055.789
-43.071	26.148	1292.373	1053.870
-42.057	26.129	1290.266	1052.000
-41.042	26.262	1288.211	1051.054
-40.027	26.212	1286.889	1049.645
-39.013	26.217	1285.041	1048.125
-37.998	26.178	1283.435	1046.545
-36.984	26.172	1281.908	1045.223
-35.969	26.286	1279.972	1044.265
-34.954	26.258	1278.118	1042.548
-33.940	26.338	1276.783	1041.878
-32.925	26.440	1274.590	1040.635
-31.911	26.263	1273.861	1038.983
-30.896	26.425	1272.060	1038.403
-29.881	26.436	1271.060	1037.606
-28.867	26.445	1269.719	1036.520
-27.852	26.466	1268.107	1035.285
-26.838	26.425	1267.197	1034.269
-25.823	26.331	1265.598	1032.384
-24.809	26.504	1264.019	1032.043
-23.794	26.375	1262.810	1030.280
-22.779	26.414	1261.765	1029.609
-21.765	26.381	1260.670	1028.483
-20.750	26.375	1259.112	1027.141
-19.736	26.344	1257.520	1025.625
-18.721	26.271	1256.772	1024.557
-17.706	26.256	1255.637	1023.507
-16.692	26.296	1254.451	1022.726
-15.677	26.306	1253.466	1021.940
-14.663	26.314	1252.165	1020.887
-13.648	26.306	1250.717	1019.618
-12.633	26.356	1250.188	1019.427
-11.619	26.159	1249.905	1018.047
-10.604	26.301	1248.419	1017.596
-9.590	26.295	1247.191	1016.521
-8.575	26.138	1247.073	1015.500
-7.560	26.197	1246.125	1015.020
-6.546	26.342	1244.929	1014.820
-5.531	26.234	1243.973	1013.397
-4.517	26.190	1243.124	1012.415
-3.502	26.316	1242.018	1012.178
-2.487	26.284	1241.093	1011.209
-1.473	26.296	1237.288	1008.133
-0.458	24.749	1221.431	986.645
0.556	21.276	1205.561	948.584
1.571	17.669	1211.766	933.662
2.586	16.909	1226.213	940.496
3.600	16.751	1214.150	930.292
4.615	12.688	1143.213	854.810
5.629	6.243	1073.091	770.811
6.644	3.486	1055.617	744.892
7.659	3.389	1053.642	742.961
8.673	3.383	1052.637	742.162
9.688	3.392	1051.536	741.362
10.702	3.465	1049.361	740.112
11.717	7.229	1053.387	760.992
12.731	14.121	1063.507	801.559
13.746	18.727	1069.395	828.199
14.761	19.416	1070.019	831.932
15.775	18.625	1068.297	826.709
16.790	17.705	1066.036	820.459
17.804	17.018	1064.510	815.910
18.819	16.735	1063.350	813.589
19.834	16.597	1062.946	812.548
20.848	16.280	1062.219	810.397
21.863	16.199	1061.306	809.239
22.877	16.055	1060.614	807.951
23.892	15.963	1059.722	806.762
24.907	16.026	1059.160	806.563
25.921	16.130	1058.075	806.160
26.936	16.093	1056.791	804.933
27.950	16.137	1055.497	804.087
28.965	16.165	1053.883	802.922
29.980	16.224	1052.658	802.199
30.994	16.323	1051.160	801.453
32.009	16.337	1050.823	801.191
33.023	16.270	1049.514	799.808
34.038	16.295	1047.863	798.596
35.053	16.088	1047.520	797.287
36.067	16.242	1045.986	796.775
37.082	16.278	1045.207	796.279
38.096	16.331	1044.860	796.196
39.111	16.388	1043.855	795.627
40.126	16.250	1042.421	793.815
41.140	15.838	1041.710	791.265
42.155	15.838	1040.199	790.049
43.169	15.874	1038.969	789.213
44.184	15.847	1038.391	788.576
45.199	15.804	1037.587	787.697
46.213	15.923	1036.271	787.186
47.228	16.093	1035.238	787.124
48.242	16.176	1034.046	786.534
49.257	16.160	1032.988	785.583
50.271	16.142	1032.436	785.010
51.286	16.247	1031.629	784.817
52.301	16.183	1030.737	783.773
53.315	16.072	1029.613	782.333
54.330	16.022	1028.469	781.162
55.344	15.935	1028.064	780.382
56.359	15.989	1026.992	779.749
57.374	16.080	1025.746	779.155
58.388	15.880	1025.208	777.753
59.403	15.919	1024.338	777.204
60.417	15.834	1023.677	776.244
61.432	15.866	1022.985	775.796
62.447	15.766	1022.020	774.538
63.461	15.699	1021.644	773.876
64.476	15.726	1020.255	772.877
65.490	15.732	1019.471	772.241
66.505	15.738	1018.916	771.783
67.520	15.822	1018.315	771.645
68.534	15.712	1017.615	770.542
69.549	15.708	1016.914	769.925
70.563	15.759	1015.643	769.128
71.578	15.705	1014.850	768.212
72.593	15.539	1014.037	766.770
73.607	15.748	1013.337	767.125
74.622	15.655	1012.778	766.211
75.636	15.677	1012.199	765.807
76.651	15.644	1011.703	765.213
77.666	15.631	1010.922	764.493
78.680	15.782	1010.061	764.461
79.695	15.670	1009.886	763.752
80.709	15.867	1008.799	763.758
81.724	15.969	1008.469	763.902
82.739	15.915	1007.942	763.189
83.753	16.117	1007.125	763.420
84.768	16.277	1006.049	763.259
85.782	16.310	1005.543	762.956
86.797	16.400	1004.239	762.308
87.812	16.087	1003.474	760.245
88.826	16.255	1002.028	759.842
89.841	16.240	1001.091	758.995
90.855	16.313	1000.786	759.024
91.870	16.409	999.800	758.641
92.884	16.406	998.740	757.759
93.899	16.385	998.123	757.130
94.914	16.596	996.969	757.129
95.928	16.387	996.601	755.847
96.943	16.255	995.793	754.579
97.957	16.213	994.807	753.579
98.972	16.416	993.534	753.451
99.987	16.277	993.297	752.588
101.001	16.322	992.070	751.790
102.016	16.223	991.202	750.626
103.030	16.357	990.381	750.531
104.045	16.377	989.493	749.881
105.060	16.119	988.999	748.294
106.074	16.043	987.786	746.978
107.089	15.918	986.866	745.662
108.103	15.845	986.097	744.688
109.118	15.731	985.384	743.580
110.133	15.777	984.091	742.742
111.147	15.886	983.352	742.602
112.162	15.879	983.031	742.264
113.176	15.894	982.090	741.553
114.191	15.994	981.201	741.254
115.206	16.076	980.112	740.728
116.220	15.909	979.710	739.625
117.235	15.981	978.340	738.842
118.249	15.919	977.667	737.994
119.264	16.013	976.989	737.829
120.279	16.053	975.699	736.965
121.293	15.805	975.265	735.489
122.308	15.651	974.447	734.134
123.322	15.715	973.270	733.462
124.337	15.708	972.507	732.791
125.352	15.803	971.211	732.162
126.366	15.663	970.168	730.701
127.381	15.687	969.268	730.066
128.395	15.733	968.124	729.336
129.410	15.952	967.453	729.717
130.424	15.940	966.532	728.905
131.439	16.040	965.689	728.637
132.454	15.913	965.472	727.860
133.468	15.956	964.287	727.090
134.483	16.132	963.479	727.172
135.497	16.068	962.639	726.200
136.512	16.023	961.896	725.383
137.527	16.021	961.323	724.877
138.541	16.034	960.373	724.154
139.556	16.190	959.086	723.788
140.570	16.333	958.461	723.865
141.585	16.281	958.554	723.649
142.600	16.230	957.793	722.791
143.614	16.378	957.034	722.787
144.629	16.464	956.232	722.487
145.643	16.334	955.375	721.220
146.658	16.294	954.030	719.969
147.673	16.225	953.175	718.966
148.687	16.168	952.208	717.932
149.702	16.205	951.086	717.180
150.716	16.151	950.826	716.688
151.731	16.140	949.973	715.938
152.746	16.196	949.096	715.450
153.760	16.256	948.611	715.275
154.775	16.410	947.694	715.172
155.789	16.507	947.344	715.253
156.804	16.306	946.741	713.886
157.819	16.315	946.292	713.522
158.833	16.463	945.515	713.497
159.848	16.667	944.564	713.577
160.862	16.418	944.485	712.404
161.877	16.275	942.761	710.440
162.892	16.195	941.829	709.339
163.906	16.222	940.507	708.395
164.921	16.233	939.791	707.839
165.935	16.286	939.436	707.732
166.950	16.337	938.214	706.960
167.964	16.410	937.388	706.580
168.979	16.235	936.451	705.080
169.994	16.291	935.419	704.475
171.008	16.461	934.674	704.560
172.023	16.577	934.349	704.736
173.037	16.584	933.929	704.388
174.052	16.487	932.607	702.923
175.067	16.331	931.808	701.611
176.081	16.284	931.962	701.470
177.096	16.216	931.256	700.595
178.110	16.303	930.373	700.227
179.125	16.266	930.037	699.760
180.140	16.369	929.553	699.761
181.154	16.346	929.435	699.515
182.169	16.676	928.621	700.206
183.183	16.611	927.841	699.289
184.198	16.581	926.997	698.465
185.213	16.591	926.326	697.938
186.227	16.597	925.853	697.544
187.242	16.649	925.150	697.170
188.256	16.695	924.647	696.916
189.271	16.741	923.433	696.130
190.286	16.423	922.828	694.305
191.300	16.255	922.396	693.230
192.315	16.120	921.375	691.845
193.329	16.190	920.897	691.713
194.344	16.346	920.523	692.012
195.359	16.437	919.747	691.738
196.373	16.520	919.309	691.688
197.388	16.599	919.143	691.824
198.402	16.670	918.510	691.577
199.417	16.826	917.800	691.619
200.432	16.924	917.255	691.544
201.446	16.978	916.471	691.114
202.461	17.102	916.317	691.442
203.475	17.005	915.422	690.310
204.490	16.913	914.534	689.206
205.504	16.847	914.006	688.477
206.519	16.712	913.316	687.349
207.534	16.804	912.333	686.922
208.548	16.914	911.820	686.922
209.563	16.707	911.520	685.797
210.577	16.859	910.770	685.785
211.592	16.992	910.092	685.753
212.607	17.016	909.082	685.026
213.621	17.024	908.506	684.563
214.636	16.935	908.216	683.926
215.650	17.016	907.372	683.558
216.665	17.105	906.500	683.197
217.680	17.185	905.778	682.915
218.694	17.197	905.531	682.717
219.709	17.136	904.961	681.982
220.723	17.155	903.867	681.172
221.738	17.110	903.354	680.545
222.753	17.194	902.678	680.314
223.767	17.184	902.399	680.003
224.782	17.257	901.784	679.771
225.796	17.305	901.033	679.337
226.811	17.192	900.595	678.494
227.826	17.084	899.953	677.521
228.840	17.078	899.199	676.868
229.855	17.087	898.501	676.320
230.869	17.054	897.501	675.374
231.884	17.103	897.107	675.214
232.899	17.040	896.217	674.233
233.913	17.034	895.384	673.522
234.928	17.021	894.794	672.968
235.942	16.885	894.645	672.258
236.957	17.018	893.750	672.050
237.972	17.018	893.317	671.667
238.986	17.167	892.236	671.384
240.001	17.124	892.168	671.102
241.015	16.984	891.410	669.920
242.030	17.106	890.765	669.860
243.045	17.105	890.203	669.374
244.059	17.164	889.676	669.148
245.074	17.333	889.073	669.303
246.088	17.440	887.956	668.823
247.103	17.596	887.559	669.076
248.117	17.460	887.714	668.601
249.132	17.801	886.836	669.219
250.147	17.831	886.444	668.982
251.161	17.884	885.826	668.661
252.176	17.839	885.318	668.044
253.190	17.885	884.418	667.484
254.205	17.809	884.002	666.815
255.220	17.762	883.647	666.304
256.234	17.843	882.569	665.748
257.249	17.862	881.677	665.090
258.263	17.742	881.286	664.272
259.278	17.879	880.722	664.320
260.293	17.900	879.954	663.763
261.307	17.926	879.889	663.757
262.322	17.893	879.152	663.014
263.336	18.126	878.166	663.116
264.351	18.073	877.515	662.361
265.366	18.006	876.796	661.499
266.380	17.962	876.348	660.932
267.395	18.075	875.097	660.366
268.409	17.970	874.754	659.644
269.424	18.032	873.961	659.227
270.439	17.893	873.118	657.998
271.453	17.943	872.430	657.613
272.468	17.846	871.958	656.824
273.482	17.902	871.624	656.733
274.497	17.813	871.108	655.941
275.512	17.940	870.444	655.873
276.526	17.846	870.458	655.462
277.541	18.013	869.522	655.343
278.555	18.177	868.616	655.231
279.570	18.242	868.138	655.060
280.585	18.136	867.270	653.942
281.599	18.198	866.664	653.661
282.614	18.028	866.002	652.455
283.628	18.188	865.256	652.445
284.643	17.962	865.267	651.535
285.657	18.071	864.229	651.114
286.672	17.913	863.859	650.174
287.687	18.035	863.261	650.128
288.701	18.165	862.777	650.202
289.716	18.217	861.930	649.702
290.730	18.105	861.206	648.675
291.745	18.217	860.594	648.584
292.760	18.221	860.217	648.257
293.774	18.344	859.696	648.272
294.789	18.332	859.095	647.717
295.803	18.249	858.341	646.777
296.818	18.325	857.495	646.369
297.833	18.386	856.723	645.960
298.847	18.246	856.106	644.911
299.862	18.223	856.006	644.691
300.876	18.306	855.795	644.787
301.891	18.481	854.560	644.459
302.906	18.433	854.290	644.015
303.920	18.480	854.147	644.027
304.935	18.554	853.206	643.541
305.949	18.492	852.337	642.594
306.964	18.501	851.725	642.111
307.979	18.579	851.326	642.046
308.993	18.511	851.087	641.554
310.008	18.665	849.779	641.085
311.022	18.512	849.719	640.412
312.037	18.531	848.600	639.585
313.052	18.355	848.221	638.584
314.066	18.379	847.688	638.215
315.081	18.166	847.453	637.188
316.095	18.531	846.440	637.728
317.110	18.328	846.421	636.902
318.125	18.340	845.605	636.279
319.139	18.300	845.531	636.018
320.154	18.493	844.463	635.872
321.168	18.378	844.236	635.219
322.183	18.607	843.267	635.284
323.197	18.534	843.117	634.844
324.212	18.546	842.471	634.346
325.227	18.498	842.033	633.782
326.241	18.409	841.339	632.873
327.256	18.454	840.936	632.682
328.270	18.629	840.226	632.737
329.285	18.399	840.085	631.726
330.300	18.459	839.293	631.296
331.314	18.483	838.883	631.021
332.329	18.689	838.485	631.421
333.343	18.728	837.965	631.117
334.358	18.629	837.599	630.425
335.373	18.826	837.197	630.788
336.387	18.848	836.952	630.628
337.402	18.588	837.514	630.042
338.416	18.983	836.421	630.611
339.431	18.872	835.870	629.733
340.446	19.086	835.760	630.378
341.460	19.029	835.303	629.771
342.475	19.111	835.122	629.879
343.489	19.098	834.584	629.369
344.504	19.156	833.717	628.870
345.519	19.102	833.171	628.208
346.533	19.237	832.674	628.270
347.548	19.057	832.031	627.071
348.562	18.989	831.429	626.315
349.577	18.935	830.778	625.574
350.592	18.875	830.165	624.839
351.606	18.740	829.848	624.052
352.621	18.923	829.092	624.094
353.635	18.941	828.336	623.534
354.650	18.990	827.883	623.316
355.665	19.039	827.121	622.865
356.679	19.058	826.776	622.620
357.694	19.143	825.581	621.972
358.708	19.167	825.325	621.809
359.723	19.222	824.557	621.375
360.738	19.203	824.056	620.874
361.752	19.180	823.823	620.561
362.767	19.350	822.824	620.365
363.781	19.481	822.384	620.449
364.796	19.350	822.558	620.055
365.810	19.488	821.569	619.748
366.825	19.445	821.468	619.463
367.840	19.446	821.095	619.131
368.854	19.518	820.407	618.815
369.869	19.227	820.343	617.670
370.883	19.397	819.687	617.731
371.898	19.404	819.538	617.588
372.913	19.613	818.846	617.761
373.927	19.349	818.571	616.554
374.942	19.592	817.981	616.923
375.956	19.653	817.708	616.880
376.971	19.597	816.883	616.003
377.986	19.653	817.060	616.281
379.000	19.782	816.386	616.178
380.015	19.905	815.349	615.778
381.029	19.851	814.950	615.232
382.044	19.781	814.426	614.532
383.059	19.824	813.651	614.048
384.073	19.849	813.047	613.624
385.088	19.538	812.455	612.022
386.102	19.429	812.269	611.439
387.117	19.660	811.592	611.694
388.132	19.573	810.731	610.684
389.146	19.572	810.669	610.581
390.161	19.699	810.258	610.666
391.175	19.810	809.587	610.496
392.190	19.551	809.064	609.136
393.205	19.647	808.460	608.964
394.219	19.581	808.443	608.667
395.234	19.477	808.118	608.001
396.248	19.346	807.464	606.995
397.263	19.499	806.835	607.006
398.278	19.477	806.299	606.469
399.292	19.584	805.987	606.559
400.307	19.418	805.400	605.481
401.321	19.520	804.857	605.375
402.336	19.547	804.822	605.390
403.350	19.574	804.495	605.186
404.365	19.727	804.049	605.334
405.380	19.905	803.325	605.357
406.394	20.010	802.688	605.192
407.409	19.936	802.422	604.676
408.423	19.992	802.280	604.711
409.438	20.125	801.951	604.876
410.453	20.131	801.542	604.533
411.467	20.147	801.050	604.167
412.482	20.191	800.730	604.024
413.496	20.235	800.251	603.761
414.511	20.169	800.242	603.474
415.526	20.187	799.403	602.850
416.540	20.184	798.796	602.327
417.555	20.185	798.689	602.199
418.569	20.211	797.745	601.524
419.584	20.215	797.779	601.509
420.599	20.252	797.276	601.205
421.613	162.497	1372.131	1797.202
422.628	140.991	1455.898	1797.240
