DTS Sentinel unit serial number:	SN413079Multiplexer serial number:	ORYXHardware model number:	OX4-SRSoftware version number:	ORYX F/W v4.00 Oryx Data Collector v3.7.2.0data status	okinstallation	princeton_trtdifferential loss correction	single-endedforward channel	channel 1reverse channel	N/Adate	2019/09/12time	18:32:34forward acquisition time	15.00reverse acquisition time	0.00gamma	496.2192k internal	0.2317k external	0.2317temperature offset calibration	1.0116default loss term (dB/km)	0.3790temperature slope calibration	1.0000multiplexer offset coefficient	1.0000multiplexer slope coefficient	1.0000fibre end	0.00T internal ref (°C)	33.19T ext. ref 1 (°C)	3.00T ext. ref 2 (°C)	27.79length (m)	temperature (°C)	Stokes	anti-Stokes-747.200	54.920	-0.564	0.552
-746.185	82.198	0.095	0.104
-745.171	15.623	0.301	0.239
-744.156	305.991	0.207	-0.390
-743.142	-179.085	0.256	0.006
-742.127	800.000	0.061	-0.186
-741.112	-9.731	0.123	-0.083
-740.098	33.605	-0.569	0.500
-739.083	109.827	-0.241	0.293
-738.069	-200.000	-0.001	-0.258
-737.054	-56.165	-0.407	0.184
-736.039	282.402	0.401	-0.728
-735.025	800.000	-0.274	-0.941
-734.010	-200.000	0.016	0.101
-732.996	-14.986	-0.143	0.093
-731.981	32.275	0.335	-0.292
-730.966	375.401	-0.078	0.161
-729.952	800.000	-0.256	-1.013
-728.937	800.000	-0.035	0.149
-727.923	-200.000	-0.642	-0.002
-726.908	560.513	0.158	-0.385
-725.894	489.209	0.120	-0.277
-724.879	454.998	0.329	-0.737
-723.864	-58.957	-0.934	-0.408
-722.850	34.417	-0.350	-0.309
-721.835	-69.822	-0.556	-0.215
-720.821	236.095	0.152	-0.254
-719.806	-68.245	0.564	-0.222
-718.791	-25.753	0.648	-0.386
-717.777	-62.842	-0.271	0.114
-716.762	-104.844	0.527	0.122
-715.748	83.910	0.105	0.116
-714.733	-134.092	0.261	-0.033
-713.718	361.812	0.278	0.564
-712.704	97.685	-0.380	-0.441
-711.689	109.429	-0.579	0.701
-710.675	-200.000	0.004	0.108
-709.660	-31.078	0.328	-0.187
-708.645	451.355	0.435	-0.971
-707.631	-60.745	-0.230	-0.099
-706.616	-64.438	0.549	0.226
-705.602	800.000	0.286	-0.970
-704.587	-55.765	-0.441	-0.199
-703.572	285.709	-0.347	0.632
-702.558	195.433	-0.294	-0.451
-701.543	98.442	0.337	-0.393
-700.529	-160.593	0.456	-0.025
-699.514	-42.282	-0.272	0.140
-698.499	-26.947	0.219	-0.130
-697.485	-62.552	0.388	0.163
-696.470	293.274	0.491	0.906
-695.456	-183.159	0.754	0.013
-694.441	-6.147	-0.034	-0.023
-693.426	369.017	0.165	-0.338
-692.412	157.757	-0.306	0.428
-691.397	-72.383	-0.194	-0.073
-690.383	-200.000	-0.093	0.572
-689.368	800.000	-0.114	-0.343
-688.354	433.783	0.177	-0.388
-687.339	-200.000	-0.029	0.166
-686.324	192.709	-0.570	0.870
-685.310	23.415	-0.467	0.388
-684.295	-200.000	0.000	0.229
-683.281	546.023	0.258	-0.623
-682.266	-36.549	0.903	-0.491
-681.251	-111.053	-0.581	-0.120
-680.237	80.626	-0.429	0.467
-679.222	-62.405	-0.852	-0.358
-678.208	800.000	0.178	-0.566
-677.193	-83.027	0.211	0.069
-676.178	800.000	0.197	-0.724
-675.164	-20.464	0.250	-0.155
-674.149	75.610	-0.031	0.033
-673.135	800.000	0.078	-0.278
-672.120	11.857	-0.519	0.402
-671.105	6.571	0.267	0.200
-670.091	-66.887	-0.473	-0.189
-669.076	207.297	0.703	-1.107
-668.062	-200.000	0.112	0.690
-667.047	-139.512	-0.521	0.056
-666.032	-31.663	-0.504	-0.286
-665.018	-200.000	0.011	0.268
-664.003	-55.121	0.284	-0.129
-662.989	43.433	-0.354	0.326
-661.974	-124.307	-0.830	0.131
-660.959	-72.668	-0.317	0.118
-659.945	420.795	0.294	-0.635
-658.930	-76.633	0.361	-0.128
-657.916	92.567	0.116	0.132
-656.901	102.278	-0.488	0.575
-655.886	3.899	0.362	-0.267
-654.872	-200.000	0.023	-0.588
-653.857	-200.000	-0.041	-0.502
-652.843	443.532	-0.122	-0.271
-651.828	-64.568	0.346	-0.142
-650.814	-5.028	0.510	-0.355
-649.799	-78.318	-0.543	0.188
-648.784	270.177	-0.366	-0.649
-647.770	337.078	-0.287	0.564
-646.755	-200.000	0.014	0.214
-645.741	-85.284	-0.177	-0.056
-644.726	-10.595	0.325	0.217
-643.711	-200.000	0.132	-0.670
-642.697	-131.346	-1.077	-0.144
-641.682	81.172	0.536	0.584
-640.668	-79.215	-0.170	-0.058
-639.653	216.404	-0.053	0.085
-638.638	-46.201	0.508	-0.252
-637.624	146.125	-0.162	0.219
-636.609	-200.000	-0.031	0.426
-635.595	-53.599	0.472	-0.218
-634.580	800.000	-0.124	0.358
-633.565	562.296	-0.139	-0.338
-632.551	-15.635	-0.440	0.283
-631.536	-8.944	0.327	0.221
-630.522	-103.968	-0.302	0.071
-629.507	-200.000	-0.046	-0.312
-628.492	800.000	0.138	-0.485
-627.478	498.885	-0.130	0.303
-626.463	-159.785	0.422	0.023
-625.449	382.579	-0.282	-0.584
-624.434	-49.096	-0.795	-0.383
-623.419	800.000	-0.125	0.378
-622.405	3.673	0.647	-0.476
-621.390	-68.581	0.608	-0.237
-620.376	-200.000	-0.070	0.315
-619.361	800.000	-0.125	0.531
-618.346	-68.929	0.850	-0.330
-617.332	-15.087	0.348	-0.225
-616.317	250.417	0.383	-0.655
-615.303	-200.000	-0.042	-0.759
-614.288	163.201	-0.278	0.393
-613.273	503.662	0.274	-0.640
-612.259	-200.000	0.042	0.508
-611.244	-193.003	0.694	0.006
-610.230	98.911	0.641	-0.745
-609.215	579.013	-0.026	-0.064
-608.201	-73.178	0.753	0.278
-607.186	-34.157	0.103	0.057
-606.171	800.000	0.015	0.042
-605.157	127.737	0.239	0.306
-604.142	-92.387	-1.117	-0.317
-603.128	-200.000	0.021	-0.689
-602.113	-154.923	1.008	-0.067
-601.098	-62.819	-0.570	-0.238
-600.084	-91.106	-0.654	0.189
-599.069	52.211	-0.119	0.115
-598.055	800.000	-0.288	-0.933
-597.040	-87.677	-0.571	-0.174
-596.025	207.756	-0.246	-0.386
-595.011	800.000	0.270	0.897
-593.996	92.498	-0.291	-0.331
-592.982	-200.000	-0.152	0.794
-591.967	-84.355	0.506	-0.161
-590.952	-130.120	0.715	0.098
-589.938	-41.092	0.746	0.388
-588.923	-45.429	0.236	-0.118
-587.909	-4.107	-0.337	-0.235
-586.894	425.133	-0.251	-0.545
-585.879	272.025	0.570	-1.012
-584.865	-200.000	-0.180	1.306
-583.850	-66.764	0.251	-0.100
-582.836	-23.279	0.365	-0.221
-581.821	267.397	-0.174	0.307
-580.806	-42.062	-0.486	0.250
-579.792	-92.490	0.502	0.142
-578.777	-113.102	-0.252	-0.050
-577.763	-78.987	0.400	0.137
-576.748	-7.244	-0.229	0.156
-575.733	-192.425	-0.771	0.007
-574.719	-124.312	-0.672	0.106
-573.704	-128.351	0.307	-0.044
-572.690	103.053	0.403	0.475
-571.675	-180.319	0.989	-0.021
-570.661	-142.440	0.855	-0.085
-569.646	-7.495	-0.705	0.480
-568.631	-95.013	-0.312	-0.085
-567.617	-122.385	0.351	0.058
-566.602	800.000	0.175	-0.651
-565.588	198.163	0.144	0.221
-564.573	-200.000	-0.029	0.268
-563.558	-118.513	-0.319	0.057
-562.544	-186.881	-0.456	0.006
-561.529	-116.067	0.926	0.173
-560.515	800.000	-0.133	0.474
-559.500	-87.896	0.410	-0.124
-558.485	-56.182	-0.841	-0.376
-557.471	328.403	-0.339	0.654
-556.456	-200.000	0.110	0.549
-555.442	-56.487	-0.625	0.279
-554.427	-200.000	0.111	-0.894
-553.412	-200.000	-0.005	-0.214
-552.398	157.666	0.036	-0.050
-551.383	-200.000	-0.006	0.082
-550.369	-68.861	-0.881	-0.342
-549.354	-111.005	-0.567	0.117
-548.339	-153.988	0.630	-0.043
-547.325	-200.000	-0.022	-0.651
-546.310	800.000	0.122	0.372
-545.296	190.140	-0.257	-0.388
-544.281	-74.770	0.305	-0.110
-543.266	187.775	-0.526	-0.789
-542.252	-22.822	-0.362	-0.220
-541.237	-124.540	-0.392	-0.061
-540.223	-26.707	0.502	-0.295
-539.208	800.000	0.207	0.589
-538.193	-200.000	0.089	-0.732
-537.179	-167.303	-0.854	-0.035
-536.164	-141.798	0.373	0.038
-535.150	-19.090	0.365	0.228
-534.135	9.450	0.335	0.255
-533.121	53.054	0.626	-0.602
-532.106	-121.999	-0.560	0.092
-531.091	-114.106	-0.511	-0.099
-530.077	81.853	0.752	0.817
-529.062	800.000	0.355	1.097
-528.048	-155.241	-1.086	0.071
-527.033	-108.379	0.817	0.177
-526.018	-86.350	-0.290	-0.090
-525.004	160.887	-0.545	-0.765
-523.989	-122.077	0.395	0.065
-522.975	62.723	0.144	-0.145
-521.960	-200.000	0.012	0.343
-520.945	197.671	-0.222	-0.340
-519.931	83.724	0.508	-0.556
-518.916	800.000	-0.031	0.101
-517.902	185.917	-0.274	0.410
-516.887	-86.983	0.271	-0.083
-515.872	156.286	0.216	-0.300
-514.858	464.466	0.386	-0.867
-513.843	-93.903	-0.166	0.046
-512.829	-124.029	-0.209	-0.033
-511.814	-118.183	-0.287	0.051
-510.799	109.490	-0.123	0.148
-509.785	800.000	-0.193	0.749
-508.770	-115.209	-0.401	-0.076
-507.756	585.781	0.033	-0.081
-506.741	-200.000	0.028	0.162
-505.726	454.010	-0.180	-0.401
-504.712	800.000	-0.125	-0.447
-503.697	-123.330	0.736	-0.118
-502.683	58.373	-0.415	-0.408
-501.668	-43.710	0.679	0.343
-500.653	542.004	-0.084	0.201
-499.639	629.764	-0.240	0.609
-498.624	-200.000	-0.046	-0.465
-497.610	-200.000	-0.097	0.615
-496.595	-66.811	0.884	0.350
-495.581	434.983	-0.222	-0.485
-494.566	60.488	-0.159	0.158
-493.551	-121.553	-0.272	0.045
-492.537	341.645	-0.103	-0.201
-491.522	-200.000	0.112	0.680
-490.508	325.203	-0.247	-0.473
-489.493	-200.000	-0.083	-0.958
-488.478	7.339	-0.888	0.665
-487.464	-130.581	-1.154	-0.156
-486.449	-120.385	-0.968	0.165
-485.435	-49.973	0.727	0.346
-484.420	-200.000	0.052	-0.231
-483.405	800.000	0.093	-0.326
-482.391	-48.291	-0.213	-0.103
-481.376	-109.287	-0.279	0.059
-480.362	-200.000	0.052	-0.257
-479.347	-200.000	0.106	0.676
-478.332	-20.290	-0.741	-0.457
-477.318	-68.066	-0.107	0.042
-476.303	-200.000	-0.016	-0.203
-475.289	-157.197	0.532	-0.032
-474.274	-56.877	-0.186	0.082
-473.259	-25.831	-0.766	0.452
-472.245	0.731	0.183	-0.131
-471.230	800.000	0.148	-0.443
-470.216	-200.000	0.005	1.133
-469.201	230.872	0.454	-0.745
-468.186	-20.957	-0.778	-0.477
-467.172	-200.000	0.066	-0.412
-466.157	191.821	0.133	-0.201
-465.143	-60.911	-0.337	-0.143
-464.128	-90.230	-0.231	0.067
-463.113	299.533	0.285	-0.526
-462.099	30.120	-0.263	0.225
-461.084	800.000	0.027	-0.103
-460.070	453.178	0.071	0.157
-459.055	-12.662	0.138	0.090
-458.040	-200.000	0.025	-0.419
-457.026	-28.479	0.602	-0.348
-456.011	55.375	-1.095	1.061
-454.997	480.249	-0.222	0.504
-453.982	158.396	-0.279	0.387
-452.968	150.090	0.217	-0.295
-451.953	165.412	0.440	0.622
-450.938	-200.000	0.092	-0.436
-449.924	468.212	-0.452	-1.014
-448.909	22.211	0.224	0.183
-447.895	331.709	-0.059	-0.114
-446.880	7.512	-0.259	0.194
-445.865	711.781	0.195	0.516
-444.851	189.304	0.216	-0.324
-443.836	-91.855	1.002	0.284
-442.822	106.695	-0.335	0.398
-441.807	-140.368	0.616	-0.064
-440.792	-75.210	0.124	0.044
-439.778	-200.000	0.008	-1.122
-438.763	-194.339	-0.960	-0.008
-437.749	80.000	-0.236	0.254
-436.734	-200.000	-0.003	-0.170
-435.719	-85.420	-0.628	0.196
-434.705	160.054	0.193	-0.269
-433.690	217.107	-0.629	-1.002
-432.676	-11.031	-0.516	0.341
-431.661	-100.800	-0.449	-0.111
-430.646	222.830	-0.324	-0.522
-429.632	3.447	0.689	-0.502
-428.617	800.000	-0.154	0.562
-427.603	624.592	-0.226	0.570
-426.588	-200.000	-0.092	-0.647
-425.573	98.319	0.229	0.264
-424.559	-86.461	-0.624	-0.191
-423.544	270.689	0.242	0.426
-422.530	-200.000	0.002	-0.073
-421.515	-200.000	0.171	0.820
-420.500	-200.000	0.032	0.261
-419.486	-200.000	0.605	-0.001
-418.471	-88.469	0.131	0.039
-417.457	-200.000	-0.035	0.406
-416.442	508.094	0.137	-0.317
-415.428	289.485	0.180	-0.326
-414.413	-200.000	-0.039	-0.685
-413.398	-161.478	-0.197	-0.010
-412.384	-32.921	0.262	0.145
-411.369	631.632	-0.247	-0.625
-410.355	-92.463	0.398	-0.112
-409.340	-16.609	0.253	0.160
-408.325	36.140	-0.326	-0.287
-407.311	680.778	0.182	-0.472
-406.296	-200.000	-0.079	-0.415
-405.282	-200.000	0.017	0.131
-404.267	649.854	-0.207	0.530
-403.252	800.000	-0.138	-0.532
-402.238	-60.352	0.482	-0.205
-401.223	-168.601	-0.628	0.024
-400.209	-97.547	-0.491	0.127
-399.194	125.993	0.121	-0.153
-398.179	-200.000	0.045	0.604
-397.165	-200.000	0.046	0.354
-396.150	6.346	0.324	-0.240
-395.136	-34.073	0.638	-0.350
-394.121	162.117	-0.723	1.012
-393.106	109.445	0.146	-0.175
-392.092	800.000	0.169	-0.725
-391.077	390.098	-0.160	0.332
-390.063	-69.162	0.242	0.093
-389.048	93.118	-0.761	-0.859
-388.033	-37.257	0.197	-0.105
-387.019	-11.522	0.282	0.185
-386.004	-125.740	0.266	0.040
-384.990	-23.491	0.587	0.352
-383.975	792.066	0.158	0.435
-382.960	53.733	0.411	0.394
-381.946	-65.721	0.495	-0.198
-380.931	49.658	0.277	-0.260
-379.917	-135.533	-0.944	0.112
-378.902	800.000	0.154	-0.512
-377.888	-0.663	0.474	0.336
-376.873	800.000	-0.056	0.181
-375.858	220.922	-0.217	0.348
-374.844	338.501	-0.162	-0.316
-373.829	-91.594	-0.457	0.130
-372.815	-200.000	-0.104	-0.522
-371.800	-60.162	-0.092	-0.039
-370.785	177.250	-0.382	0.555
-369.771	181.220	-0.183	0.268
-368.756	-121.176	-0.316	-0.053
-367.742	-200.000	-0.070	-0.618
-366.727	134.442	0.499	0.645
-365.712	33.521	-0.206	-0.178
-364.698	-200.000	-0.039	0.921
-363.683	-32.965	-0.335	0.186
-362.669	-82.453	0.374	0.121
-361.654	-29.972	-0.279	-0.158
-360.639	-110.129	1.219	-0.254
-359.625	-104.517	-0.959	-0.221
-358.610	-200.000	-0.160	0.768
-357.596	172.113	0.508	0.729
-356.581	-133.581	-0.726	0.091
-355.566	-200.000	-0.119	0.554
-354.552	559.417	0.205	0.494
-353.537	-115.201	-0.526	-0.099
-352.523	97.245	0.210	-0.240
-351.508	-102.362	-0.584	0.140
-350.493	53.014	-0.447	0.426
-349.479	626.761	-0.244	0.615
-348.464	244.427	-0.608	-1.018
-347.450	-16.612	0.725	0.457
-346.435	-120.402	-0.535	-0.091
-345.420	800.000	0.077	-0.230
-344.406	-171.642	-0.683	-0.022
-343.391	-200.000	0.070	0.507
-342.377	-200.000	-0.134	-1.063
-341.362	-130.552	0.477	-0.064
-340.348	-188.290	0.666	0.008
-339.333	349.111	-0.127	0.250
-338.318	800.000	-0.054	-0.153
-337.304	-4.184	-0.325	0.224
-336.289	-200.000	-0.042	-0.333
-335.275	4.959	-0.851	0.624
-334.260	-110.510	-0.721	0.149
-333.245	1.267	-0.523	-0.374
-332.231	-152.329	-0.145	0.010
-331.216	-64.699	-0.328	0.133
-330.202	-14.820	-0.568	0.364
-329.187	-74.542	-0.099	-0.036
-328.172	70.997	0.339	0.350
-327.158	-41.490	0.104	0.053
-326.143	23.482	-0.275	0.225
-325.129	-69.243	0.497	-0.190
-324.114	-9.324	0.627	0.417
-323.099	800.000	0.181	-0.517
-322.085	272.643	0.325	-0.571
-321.070	-37.319	-0.277	0.148
-320.056	-52.412	-0.393	0.181
-319.041	-64.458	0.791	0.320
-318.026	101.201	0.732	-0.849
-317.012	-200.000	-0.047	-0.910
-315.997	-87.448	0.816	-0.246
-314.983	338.522	-0.314	-0.608
-313.968	-200.000	-0.112	-0.638
-312.953	-51.425	-0.768	0.357
-311.939	246.355	-0.287	-0.482
-310.924	1.244	-0.057	0.041
-309.910	42.154	0.286	-0.258
-308.895	-136.177	0.505	0.059
-307.880	-200.000	0.031	0.309
-306.866	-5.429	-0.459	-0.314
-305.851	117.726	-0.467	-0.572
-304.837	-98.738	0.518	0.131
-303.822	121.878	-0.241	-0.299
-302.807	-104.461	1.199	-0.276
-301.793	-82.872	0.552	0.177
-300.778	-3.355	0.694	0.481
-299.764	-59.256	1.075	0.461
-298.749	47.498	-0.180	0.167
-297.735	-14.155	0.348	0.223
-296.720	16.825	-0.142	0.112
-295.705	84.152	-0.105	-0.114
-294.691	722.086	-0.254	-0.673
-293.676	-200.000	0.122	0.587
-292.662	152.588	-0.374	-0.508
-291.647	574.370	0.171	0.414
-290.632	627.560	0.168	-0.423
-289.618	-200.000	-0.028	-0.851
-288.603	-200.000	-0.025	0.540
-287.589	-22.842	0.901	0.541
-286.574	15.320	0.213	-0.166
-285.559	-89.142	-0.681	0.200
-284.545	269.762	0.258	0.450
-283.530	18.929	-0.171	-0.136
-282.516	743.407	0.106	-0.284
-281.501	-200.000	-0.112	-1.066
-280.486	359.168	-0.229	-0.455
-279.472	-79.953	0.365	0.122
-278.457	-200.000	0.037	0.546
-277.443	123.876	-0.976	1.218
-276.428	-121.270	0.339	0.056
-275.413	-72.158	0.389	-0.143
-274.399	-200.000	-0.017	-0.189
-273.384	174.303	-0.168	-0.241
-272.370	783.845	-0.205	-0.559
-271.355	478.936	0.047	0.105
-270.340	167.929	0.215	0.303
-269.326	-133.695	-0.790	0.098
-268.311	-96.303	0.108	-0.028
-267.297	-138.154	-0.363	0.040
-266.282	-200.000	-0.035	0.244
-265.267	77.984	-0.574	-0.608
-264.253	-47.392	0.140	-0.068
-263.238	-44.393	0.539	0.268
-262.224	-165.986	-0.487	-0.021
-261.209	-111.091	-0.547	-0.111
-260.195	259.601	-0.037	-0.063
-259.180	-61.677	0.559	0.233
-258.165	-37.161	-0.389	0.207
-257.151	35.255	-0.234	0.204
-256.136	-39.461	0.262	-0.136
-255.122	-69.957	-0.449	-0.170
-254.107	-113.833	0.258	-0.050
-253.092	-27.526	0.711	-0.410
-252.078	-32.918	-0.464	-0.256
-251.063	-200.000	-0.013	0.677
-250.049	-200.000	0.230	-1.167
-249.034	-200.000	-0.058	-0.504
-248.019	-69.316	-0.731	-0.279
-247.005	-71.174	0.574	-0.214
-245.990	320.093	0.289	0.544
-244.976	225.710	-0.256	0.411
-243.961	-200.000	-0.002	0.540
-242.946	800.000	-0.080	0.293
-241.932	124.791	-0.025	-0.031
-240.917	537.615	-0.258	0.608
-239.903	509.906	0.289	-0.668
-238.888	176.160	0.403	-0.581
-237.873	-9.019	-0.156	-0.103
-236.859	-162.385	0.617	0.030
-235.844	449.778	0.432	0.946
-234.830	-155.743	0.261	0.017
-233.815	-200.000	0.110	0.743
-232.800	800.000	-0.155	0.426
-231.786	-49.673	0.825	0.389
-230.771	-200.000	0.034	0.700
-229.757	-0.793	0.434	-0.305
-228.742	185.656	0.425	-0.627
-227.727	457.180	0.047	0.103
-226.713	-72.609	1.030	0.377
-225.698	9.984	-0.385	-0.290
-224.684	-200.000	-0.004	0.129
-223.669	-117.180	-0.420	-0.076
-222.655	17.654	-0.158	0.124
-221.640	-200.000	-0.100	-0.674
-220.625	209.345	-0.542	0.842
-219.611	24.012	-0.273	0.223
-218.596	-118.182	-0.889	-0.157
-217.582	52.222	0.454	-0.430
-216.567	-61.581	1.084	0.451
-215.552	408.046	0.291	-0.610
-214.538	-131.939	-0.467	-0.060
-213.523	800.000	-0.100	0.318
-212.509	-53.319	-0.989	-0.450
-211.494	800.000	0.178	0.699
-210.479	-200.000	-0.059	0.347
-209.465	546.417	0.104	0.248
-208.450	15.723	0.696	0.543
-207.436	-200.000	-0.052	-0.514
-206.421	-48.916	-0.318	-0.151
-205.406	-188.500	0.534	0.007
-204.392	-95.911	0.558	0.147
-203.377	-50.026	0.070	-0.033
-202.363	-25.571	-0.186	-0.109
-201.348	-134.115	0.797	0.098
-200.333	-69.653	0.354	0.134
-199.319	91.999	0.229	0.255
-198.304	14.220	0.695	0.537
-197.290	138.135	0.124	-0.161
-196.275	-80.927	0.651	-0.214
-195.260	-47.933	0.652	-0.313
-194.246	427.736	-0.076	-0.163
-193.231	9.914	-0.357	-0.268
-192.217	199.096	-0.352	-0.535
-191.202	169.929	-0.458	0.648
-190.187	-200.000	-0.002	0.047
-189.173	188.776	-0.105	-0.156
-188.158	281.795	0.290	0.514
-187.144	-200.000	0.028	-0.290
-186.129	-71.694	0.475	-0.175
-185.114	-200.000	-0.070	0.554
-184.100	-79.588	-0.137	-0.046
-183.085	-99.100	0.681	0.171
-182.071	113.365	0.319	-0.384
-181.056	800.000	0.064	-0.215
-180.042	-123.029	-0.190	-0.030
-179.027	-200.000	0.084	-0.396
-178.012	-105.948	0.319	-0.071
-176.998	-112.907	-0.761	-0.149
-175.983	445.812	0.257	0.560
-174.969	164.225	0.234	0.326
-173.954	-101.111	-0.977	0.237
-172.939	15.514	0.933	0.725
-171.925	-149.075	-0.485	0.039
-170.910	-81.066	0.421	0.138
-169.896	-200.000	-0.064	0.388
-168.881	-200.000	0.084	-0.632
-167.866	-50.363	0.375	0.175
-166.852	-200.000	0.087	-0.402
-165.837	-200.000	-0.024	0.601
-164.823	800.000	0.019	0.071
-163.808	-165.900	-0.154	-0.007
-162.793	-200.000	0.031	-0.714
-161.779	-200.000	-0.088	0.841
-160.764	518.977	-0.299	-0.693
-159.750	-25.806	0.520	0.303
-158.735	198.163	-0.526	0.795
-157.720	-59.477	-0.450	-0.191
-156.706	44.329	0.483	0.438
-155.691	-78.730	-0.569	0.192
-154.677	-155.162	-0.781	0.050
-153.662	-113.624	0.546	0.106
-152.647	92.151	-0.161	0.180
-151.633	537.936	0.198	0.466
-150.618	-200.000	-0.013	0.154
-149.604	-181.937	0.496	-0.009
-148.589	65.580	-0.502	-0.503
-147.574	-200.000	0.122	-0.700
-146.560	-200.000	0.023	0.296
-145.545	470.976	0.420	0.933
-144.531	-137.222	0.759	0.085
-143.516	91.145	0.499	0.554
-142.502	-103.967	0.992	0.229
-141.487	-105.209	-0.811	-0.183
-140.472	421.580	-0.109	0.231
-139.458	-142.374	-0.392	-0.038
-138.443	-67.563	0.778	0.302
-137.429	-200.000	-0.073	-0.451
-136.414	-133.929	-0.245	-0.030
-135.399	159.297	0.559	0.769
-134.385	-200.000	-0.009	-0.737
-133.370	-134.709	0.373	0.045
-132.356	-26.709	0.307	0.177
-131.341	-112.974	0.464	0.091
-130.326	-200.000	0.159	-0.983
-129.312	168.485	0.748	-1.054
-128.297	30.113	0.379	0.320
-127.283	1.709	0.223	-0.159
-126.268	-166.111	0.831	0.035
-125.253	-83.178	0.556	0.177
-124.239	-86.308	-0.443	-0.135
-123.224	-127.199	-0.697	0.101
-122.210	78.777	-0.254	-0.269
-121.195	-90.012	-0.381	0.110
-120.180	-113.887	-0.917	0.176
-119.166	449.041	-0.369	-0.804
-118.151	-81.575	1.001	-0.325
-117.137	-200.000	-0.003	-0.647
-116.122	-103.247	0.687	-0.160
-115.107	-143.124	0.390	0.037
-114.093	716.357	-0.075	-0.197
-113.078	-190.260	0.751	0.008
-112.064	94.925	-0.107	-0.121
-111.049	800.000	0.147	0.489
-110.034	-92.366	-0.469	-0.130
-109.020	93.786	0.182	0.204
-108.005	-200.000	0.064	-0.390
-106.991	-86.499	0.208	-0.063
-105.976	-117.010	-0.566	0.102
-104.962	-28.066	0.203	0.116
-103.947	119.817	0.281	0.344
-102.932	800.000	-0.054	0.225
-101.918	289.859	-0.378	0.677
-100.903	-103.310	-0.351	-0.082
-99.889	82.274	0.176	0.188
-98.874	-196.528	-0.509	-0.003
-97.859	-84.563	-0.181	0.056
-96.845	800.000	0.024	-0.076
-95.830	396.297	-0.046	0.094
-94.816	-110.106	0.583	0.120
-93.801	-178.496	-0.766	-0.018
-92.786	22.531	0.846	-0.683
-91.772	34.843	-0.371	-0.321
-90.757	376.254	0.310	0.624
-89.743	-36.794	0.438	0.232
-88.728	-200.000	-0.025	0.489
-87.713	-200.000	0.096	0.726
-86.699	191.513	0.358	-0.532
-85.684	800.000	-0.282	0.904
-84.670	30.668	0.859	0.725
-83.655	800.000	0.125	0.360
-82.640	220.560	0.135	0.213
-81.626	-19.278	-0.313	0.191
-80.611	-78.083	0.428	0.145
-79.597	192.510	0.333	-0.496
-78.582	39.410	-0.194	0.171
-77.567	-53.198	-0.594	0.269
-76.553	-200.000	0.048	0.390
-75.538	26.867	-0.236	0.195
-74.524	-200.000	0.102	-0.576
-73.509	-166.037	0.896	0.038
-72.494	-5.920	-0.501	-0.338
-71.480	-3.527	0.919	0.631
-70.465	-172.640	-0.482	-0.015
-69.451	481.063	-0.138	-0.309
-68.436	64.883	0.303	-0.302
-67.422	-200.000	-0.075	0.525
-66.407	-108.068	-0.817	-0.175
-65.392	453.393	0.126	-0.275
-64.378	76.271	0.216	-0.226
-63.363	299.364	-0.361	-0.655
-62.349	-75.337	-1.416	0.498
-61.334	131.748	-0.656	-0.832
-60.319	800.000	0.096	0.279
-59.305	800.000	-0.111	-0.377
-58.290	-162.725	1.057	0.051
-57.276	64.677	1.143	1.136
-56.261	-200.000	94.296	568.241
-55.246	645.632	1366.469	3438.874
-54.232	200.422	2534.516	3838.722
-53.217	118.494	2129.785	2590.686
-52.203	44.697	1597.957	1448.336
-51.188	36.299	1337.679	1162.087
-50.173	33.495	1296.470	1109.846
-49.159	56.754	1344.980	1290.472
-48.144	57.705	1362.575	1312.965
-47.130	36.859	1319.380	1149.332
-46.115	33.116	1302.619	1112.708
-45.100	33.016	1298.054	1108.173
-44.086	32.838	1295.676	1105.056
-43.071	32.997	1293.031	1103.686
-42.057	32.972	1291.469	1102.167
-41.042	32.811	1290.119	1100.030
-40.027	32.939	1288.081	1098.998
-39.013	33.098	1285.114	1097.342
-37.998	33.197	1283.621	1096.597
-36.984	33.151	1281.791	1094.726
-35.969	33.275	1280.431	1094.239
-34.954	33.306	1278.147	1092.422
-33.940	33.231	1277.925	1091.757
-32.925	33.301	1276.279	1090.709
-31.911	33.067	1274.966	1088.194
-30.896	33.341	1272.741	1087.831
-29.881	33.255	1271.849	1086.531
-28.867	33.224	1270.056	1084.779
-27.852	33.371	1268.292	1084.069
-26.838	33.088	1268.785	1082.827
-25.823	33.105	1266.718	1081.118
-24.809	33.293	1264.838	1080.543
-23.794	33.236	1263.550	1079.075
-22.779	33.368	1262.106	1078.551
-21.765	33.252	1261.372	1077.220
-20.750	33.387	1259.412	1076.269
-19.736	33.147	1258.746	1074.298
-18.721	33.168	1258.111	1073.829
-17.706	33.249	1255.864	1072.331
-16.692	33.389	1255.089	1072.419
-15.677	33.121	1254.473	1070.331
-14.663	33.127	1253.173	1069.216
-13.648	32.955	1252.308	1067.461
-12.633	32.916	1251.662	1066.650
-11.619	33.188	1250.330	1067.003
-10.604	33.124	1249.551	1065.936
-9.590	33.007	1248.707	1064.516
-8.575	33.236	1247.333	1064.591
-7.560	33.217	1246.509	1063.739
-6.546	33.106	1245.407	1062.129
-5.531	33.100	1244.860	1061.590
-4.517	33.060	1244.130	1060.699
-3.502	33.180	1243.818	1061.067
-2.487	33.042	1243.270	1059.780
-1.473	32.807	1238.840	1054.651
-0.458	31.516	1223.619	1034.519
0.556	29.273	1206.814	997.979
1.571	25.042	1211.107	978.394
2.586	23.930	1227.410	985.316
3.600	23.529	1215.499	973.469
4.615	17.369	1142.830	883.303
5.629	7.953	1066.568	778.451
6.644	3.460	1047.508	742.863
7.659	2.878	1045.664	738.689
8.673	2.907	1043.519	737.247
9.688	2.757	1042.645	735.845
10.702	3.271	1040.860	736.982
11.717	9.254	1050.264	772.397
12.731	19.398	1062.229	830.198
13.746	24.152	1069.946	859.147
14.761	25.611	1069.521	865.759
15.775	25.145	1069.559	863.470
16.790	24.944	1070.103	862.862
17.804	25.045	1067.807	861.420
18.819	25.299	1067.383	862.220
19.834	25.337	1067.536	862.455
20.848	25.277	1066.930	861.598
21.863	25.365	1065.064	860.438
22.877	25.343	1065.328	860.468
23.892	24.837	1065.499	858.108
24.907	25.386	1064.049	859.491
25.921	24.719	1064.188	856.334
26.936	25.255	1061.000	856.248
27.950	24.940	1060.493	854.261
28.965	24.988	1058.948	853.173
29.980	25.363	1056.888	853.220
30.994	25.244	1057.049	852.706
32.009	24.911	1056.297	850.442
33.023	24.826	1055.161	849.053
34.038	25.106	1053.388	848.877
35.053	24.761	1052.587	846.523
36.067	25.175	1051.728	847.714
37.082	25.373	1051.136	848.097
38.096	25.308	1050.972	847.582
39.111	25.283	1050.410	846.933
40.126	25.175	1048.302	844.653
41.140	25.079	1047.484	843.468
42.155	24.670	1045.580	839.939
43.169	24.894	1045.042	840.484
44.184	24.774	1044.830	839.677
45.199	24.801	1043.458	838.626
46.213	24.903	1042.825	838.518
47.228	25.320	1041.980	839.716
48.242	25.201	1040.824	838.155
49.257	25.307	1040.354	838.197
50.271	25.390	1040.016	838.237
51.286	25.386	1039.098	837.406
52.301	25.340	1037.773	836.050
53.315	25.204	1037.532	835.147
54.330	25.347	1037.086	835.383
55.344	25.495	1035.017	834.328
56.359	25.147	1035.764	833.240
57.374	24.798	1034.650	830.648
58.388	24.749	1033.939	829.776
59.403	24.927	1033.160	829.902
60.417	25.235	1031.037	829.551
61.432	24.844	1031.238	827.827
62.447	24.899	1030.665	827.552
63.461	25.078	1030.038	827.801
64.476	24.935	1029.046	826.269
65.490	24.812	1027.736	824.580
66.505	24.968	1027.055	824.676
67.520	24.870	1027.228	824.291
68.534	24.792	1025.166	822.205
69.549	24.685	1025.128	821.610
70.563	24.391	1024.705	819.849
71.578	24.478	1022.936	818.762
72.593	24.484	1022.046	818.002
73.607	24.689	1021.681	818.577
74.622	24.747	1021.209	818.391
75.636	24.621	1020.500	817.175
76.651	24.747	1019.801	817.121
77.666	24.828	1019.157	816.898
78.680	24.318	1019.428	814.718
79.695	24.887	1017.416	815.627
80.709	24.741	1016.923	814.497
81.724	24.780	1016.407	814.191
82.739	24.904	1015.900	814.277
83.753	25.034	1015.270	814.288
84.768	25.724	1013.810	816.173
85.782	25.776	1013.199	815.844
86.797	25.598	1013.165	814.939
87.812	25.392	1012.039	813.032
88.826	25.598	1010.682	812.799
89.841	25.674	1009.394	812.033
90.855	25.556	1008.972	811.089
91.870	25.602	1007.731	810.229
92.884	25.247	1007.835	808.642
93.899	25.582	1005.834	808.471
94.914	25.727	1005.155	808.505
95.928	25.504	1004.980	807.292
96.943	25.490	1002.774	805.383
97.957	25.363	1001.860	804.010
98.972	25.057	1001.718	802.457
99.987	25.232	1001.736	803.184
101.001	25.253	1000.325	802.072
102.016	25.003	1000.130	800.731
103.030	25.806	997.262	801.938
104.045	25.398	996.962	799.811
105.060	24.845	996.876	797.207
106.074	25.251	997.025	799.065
107.089	25.225	995.409	797.586
108.103	25.396	993.667	796.876
109.118	25.254	993.248	795.840
110.133	25.256	991.553	794.421
111.147	24.841	991.762	792.678
112.162	24.660	990.543	790.834
113.176	25.028	990.300	792.197
114.191	24.927	989.800	791.280
115.206	24.771	988.444	789.439
116.220	24.502	987.345	787.306
117.235	24.723	987.779	788.556
118.249	24.793	986.056	787.417
119.264	24.699	985.405	786.414
120.279	24.938	983.304	785.722
121.293	24.681	983.938	785.027
122.308	24.581	982.980	783.754
123.322	24.969	981.550	784.245
124.337	24.601	979.834	781.197
125.352	24.019	979.876	778.614
126.366	24.454	977.538	778.587
127.381	24.508	978.676	779.661
128.395	25.122	976.780	780.753
129.410	25.483	975.941	781.584
130.424	25.148	975.479	779.690
131.439	25.032	975.665	779.263
132.454	25.428	974.540	780.017
133.468	25.351	973.043	778.416
134.483	25.385	972.381	777.965
135.497	25.300	972.415	777.554
136.512	25.621	970.601	777.423
137.527	25.320	970.753	776.175
138.541	25.149	970.172	774.905
139.556	25.578	968.524	775.367
140.570	25.495	967.779	774.344
141.585	25.980	966.605	775.425
142.600	25.696	965.801	773.491
143.614	25.608	965.467	772.776
144.629	25.649	965.789	773.142
145.643	25.610	964.148	771.591
146.658	25.627	962.355	770.163
147.673	25.557	961.088	768.781
148.687	25.494	960.559	768.019
149.702	25.385	959.640	766.753
150.716	25.442	958.488	766.007
151.731	25.599	958.302	766.461
152.746	25.450	957.356	765.003
153.760	25.743	956.977	765.877
154.775	25.701	956.031	764.874
155.789	25.756	955.416	764.546
156.804	26.012	954.478	764.817
157.819	25.599	953.775	762.433
158.833	25.758	953.556	762.866
159.848	25.847	952.068	761.982
160.862	26.126	950.163	761.567
161.877	25.718	950.278	759.872
162.892	26.016	948.786	759.867
163.906	25.784	948.151	758.316
164.921	25.795	946.407	756.898
165.935	25.709	946.425	756.486
166.950	25.509	946.670	755.772
167.964	25.611	945.023	754.819
168.979	25.296	944.411	752.941
169.994	25.612	942.888	752.986
171.008	25.677	941.995	752.476
172.023	26.104	940.815	753.253
173.037	25.758	939.541	750.721
174.052	25.644	939.190	749.898
175.067	25.636	938.328	749.110
176.081	25.560	938.622	748.965
177.096	25.616	938.099	748.711
178.110	25.332	936.506	746.196
179.125	25.480	935.293	745.778
180.140	25.393	935.502	745.516
181.154	25.357	936.465	746.070
182.169	25.499	936.735	746.809
183.183	25.660	935.227	746.209
184.198	25.824	934.284	746.069
185.213	25.691	934.364	745.515
186.227	25.666	933.914	744.987
187.242	26.036	932.349	745.199
188.256	25.825	931.290	743.419
189.271	25.850	931.000	743.222
190.286	25.588	929.338	740.753
191.300	25.144	928.866	738.481
192.315	24.390	927.694	734.384
193.329	24.418	927.508	734.288
194.344	25.197	927.068	737.073
195.359	25.358	927.280	737.840
196.373	25.566	926.585	738.075
197.388	25.736	925.318	737.696
198.402	26.231	924.953	739.366
199.417	25.934	925.174	738.264
200.432	25.772	923.186	735.949
201.446	25.360	924.171	734.985
202.461	25.553	922.601	734.457
203.475	25.357	920.117	731.618
204.490	24.386	919.794	727.338
205.504	25.211	919.273	730.222
206.519	25.758	918.971	732.142
207.534	26.046	918.770	733.088
208.548	25.834	918.825	732.206
209.563	25.577	918.430	730.781
210.577	25.805	917.226	730.684
211.592	26.107	917.241	731.857
212.607	26.049	916.263	730.777
213.621	26.162	915.269	730.379
214.636	26.067	915.074	729.773
215.650	25.852	914.833	728.647
216.665	26.120	914.304	729.243
217.680	26.143	912.416	727.765
218.694	25.859	911.888	726.137
219.709	25.633	911.619	724.946
220.723	25.517	911.237	724.112
221.738	25.395	911.171	723.506
222.753	25.514	910.845	723.662
223.767	25.780	909.155	723.322
224.782	26.110	908.428	724.003
225.796	25.938	908.391	723.219
226.811	26.182	905.880	722.131
227.826	25.401	905.807	718.885
228.840	25.150	905.684	717.721
229.855	25.214	904.716	717.146
230.869	25.308	904.141	717.002
231.884	25.520	903.455	717.242
232.899	25.982	903.311	718.907
233.913	25.693	902.527	717.068
234.928	25.750	901.514	716.425
235.942	25.293	902.447	715.281
236.957	25.450	900.403	714.224
237.972	25.616	900.963	715.265
238.986	25.634	900.089	714.578
240.001	25.574	899.516	713.823
241.015	25.388	898.858	712.501
242.030	25.546	898.976	713.157
243.045	25.786	897.035	712.505
244.059	26.352	897.046	714.688
245.074	26.058	896.532	713.051
246.088	25.250	896.172	709.512
247.103	26.013	895.213	711.702
248.117	26.459	896.118	714.119
249.132	26.369	896.135	713.712
250.147	26.744	894.805	714.067
251.161	26.820	894.084	713.729
252.176	26.526	893.988	712.431
253.190	26.803	892.635	712.380
254.205	27.005	892.300	712.844
255.220	27.135	890.730	712.033
256.234	26.928	890.316	710.831
257.249	26.189	891.331	708.677
258.263	26.332	890.509	708.522
259.278	26.453	888.938	707.682
260.293	26.722	888.081	707.989
261.307	26.686	887.966	707.693
262.322	26.561	887.238	706.566
263.336	26.008	886.560	703.803
264.351	25.529	883.533	699.474
265.366	25.539	883.626	699.526
266.380	26.314	883.494	702.373
267.395	26.832	883.027	703.952
268.409	26.754	882.333	703.034
269.424	26.369	882.523	701.630
270.439	26.575	881.950	701.909
271.453	26.275	881.931	700.671
272.468	26.597	881.000	701.113
273.482	26.322	880.046	699.228
274.497	26.564	878.633	698.980
275.512	26.590	878.144	698.628
276.526	26.328	878.666	697.969
277.541	26.773	878.326	699.357
278.555	26.525	877.721	697.855
279.570	26.630	877.343	697.900
280.585	26.537	875.880	696.316
281.599	26.373	874.677	694.669
282.614	25.905	874.803	692.907
283.628	26.278	873.690	693.397
284.643	26.219	874.231	693.538
285.657	26.190	871.857	691.482
286.672	25.884	872.147	690.480
287.687	26.265	871.542	691.398
288.701	26.353	871.237	691.429
289.716	25.978	871.119	689.840
290.730	25.975	870.191	689.034
291.745	26.489	868.149	689.314
292.760	26.519	867.860	689.137
293.774	27.009	868.010	691.061
294.789	26.833	869.393	691.430
295.803	27.040	867.385	690.561
296.818	26.985	866.442	689.537
297.833	26.395	866.006	686.891
298.847	26.923	865.330	688.296
299.862	26.869	864.516	687.383
300.876	27.059	865.080	688.491
301.891	26.976	864.000	687.258
302.906	26.568	864.137	685.761
303.920	26.481	863.949	685.221
304.935	27.114	862.399	686.325
305.949	27.126	861.938	685.941
306.964	26.838	861.630	684.550
307.979	26.466	861.416	682.914
308.993	27.364	859.744	684.908
310.008	26.923	860.694	683.943
311.022	26.630	859.249	681.630
312.037	26.585	858.931	681.149
313.052	26.419	857.895	679.644
314.066	26.025	856.774	677.218
315.081	25.649	856.210	675.300
316.095	26.451	856.507	678.485
317.110	26.870	855.240	678.990
318.125	25.930	854.262	674.639
319.139	25.470	852.938	671.812
320.154	25.089	853.348	670.652
321.168	26.423	852.288	674.740
322.183	26.319	852.740	674.649
323.197	26.492	852.671	675.181
324.212	26.596	851.687	674.728
325.227	26.607	851.362	674.452
326.241	26.599	850.499	673.680
327.256	26.532	849.829	672.842
328.270	26.263	850.007	671.921
329.285	25.896	849.208	669.867
330.300	25.966	847.585	668.786
331.314	26.279	848.116	670.308
332.329	26.401	847.560	670.261
333.343	26.788	847.041	671.225
334.358	26.734	846.361	670.428
335.373	26.655	846.809	670.429
336.387	26.941	846.473	671.163
337.402	26.625	846.957	670.317
338.416	26.995	845.793	670.704
339.431	27.216	845.798	671.466
340.446	27.429	844.919	671.494
341.460	27.334	844.683	670.896
342.475	27.251	844.498	670.382
343.489	27.659	843.847	671.312
344.504	27.801	843.078	671.162
345.519	27.538	842.532	669.700
346.533	27.672	841.740	669.504
347.548	27.394	841.741	668.424
348.562	27.291	841.727	667.975
349.577	27.079	840.464	666.139
350.592	27.340	839.862	666.557
351.606	27.144	839.270	665.312
352.621	27.135	838.414	664.542
353.635	27.003	838.410	663.995
354.650	26.911	836.685	662.236
355.665	26.173	836.041	658.976
356.679	26.500	835.659	659.809
357.694	27.091	833.890	660.503
358.708	26.582	834.481	659.061
359.723	26.924	833.342	659.346
360.738	27.046	832.759	659.269
361.752	27.132	832.706	659.480
362.767	27.328	831.680	659.319
363.781	27.850	831.889	661.317
364.796	27.646	831.854	660.491
365.810	27.484	831.547	659.605
366.825	27.899	830.474	660.196
367.840	27.478	830.109	658.325
368.854	26.918	829.794	655.995
369.869	27.109	829.613	656.482
370.883	27.081	829.111	655.926
371.898	27.244	828.873	656.267
372.913	27.714	827.420	656.751
373.927	27.214	827.331	654.824
374.942	27.192	827.718	654.993
375.956	27.112	826.401	653.604
376.971	27.565	825.918	654.792
377.986	27.366	825.506	653.692
379.000	27.568	825.502	654.358
380.015	27.704	823.946	653.552
381.029	27.346	824.941	653.000
382.044	27.262	823.884	651.806
383.059	27.704	823.115	652.721
384.073	27.390	822.717	651.226
385.088	27.147	822.151	649.852
386.102	27.291	820.418	648.938
387.117	27.048	819.603	647.367
388.132	26.652	819.167	645.554
389.146	26.631	819.210	645.459
390.161	27.205	819.026	647.298
391.175	27.526	818.295	647.806
392.190	27.046	817.796	645.650
393.205	26.312	815.416	641.110
394.219	25.346	814.782	637.127
395.234	25.089	814.979	636.314
396.248	25.966	815.054	639.429
397.263	27.304	814.743	643.867
398.278	26.703	814.310	641.342
399.292	26.475	814.196	640.387
400.307	26.642	813.521	640.390
401.321	26.746	811.789	639.336
402.336	27.224	813.608	642.401
403.350	27.244	813.844	642.601
404.365	27.672	812.662	643.121
405.380	27.663	811.970	642.485
406.394	28.242	811.601	644.175
407.409	27.674	811.550	642.080
408.423	27.765	811.185	642.052
409.438	28.160	810.247	642.641
410.453	27.988	809.943	641.739
411.467	27.785	809.007	640.229
412.482	27.704	808.947	639.839
413.496	27.686	808.685	639.515
414.511	28.001	808.215	640.190
415.526	27.796	807.131	638.558
416.540	27.540	806.854	637.385
417.555	27.896	806.838	638.561
418.569	27.549	806.795	637.257
419.584	27.494	805.975	636.361
420.599	27.364	805.578	635.538
421.613	159.832	1371.183	1792.627
422.628	138.889	1453.618	1792.702
