DTS Sentinel unit serial number:	SN413079Multiplexer serial number:	ORYXHardware model number:	OX4-SRSoftware version number:	ORYX F/W v4.00 Oryx Data Collector v3.7.2.0data status	okinstallation	princeton_trtdifferential loss correction	single-endedforward channel	channel 1reverse channel	N/Adate	2019/09/19time	10:30:35forward acquisition time	60.00reverse acquisition time	0.00gamma	496.2192k internal	0.2339k external	0.2339temperature offset calibration	1.0008default loss term (dB/km)	0.3790temperature slope calibration	1.0000multiplexer offset coefficient	1.0000multiplexer slope coefficient	1.0000fibre end	0.00T internal ref (°C)	24.37T ext. ref 1 (°C)	0.71T ext. ref 2 (°C)	19.74length (m)	temperature (°C)	Stokes	anti-Stokes-747.200	448.427	0.164	-0.361
-746.185	108.007	0.034	0.041
-745.171	-4.031	-0.073	0.051
-744.156	800.000	-0.028	-0.111
-743.142	-70.698	0.216	-0.082
-742.127	13.620	0.373	0.291
-741.112	-12.873	-0.182	-0.119
-740.098	-200.000	-0.078	0.522
-739.083	64.346	-0.282	0.285
-738.069	-200.000	0.009	-0.093
-737.054	-58.202	0.210	0.092
-736.039	-81.868	-0.313	0.103
-735.025	-175.009	-0.074	0.002
-734.010	13.806	-0.096	-0.075
-732.996	-200.000	0.003	-0.270
-731.981	84.039	0.249	-0.273
-730.966	35.276	0.096	-0.084
-729.952	-81.652	0.092	-0.030
-728.937	-200.000	-0.017	0.087
-727.923	800.000	0.024	0.073
-726.908	-97.026	-0.400	0.105
-725.894	10.123	0.051	-0.039
-724.879	241.824	0.118	0.197
-723.864	560.455	-0.050	0.122
-722.850	-102.986	-0.240	-0.057
-721.835	70.176	-0.245	0.253
-720.821	107.804	-0.199	0.238
-719.806	58.361	-0.206	-0.203
-718.791	478.040	-0.095	-0.215
-717.777	23.445	-0.387	-0.319
-716.762	61.307	0.174	0.173
-715.748	324.064	0.119	-0.227
-714.733	-200.000	-0.013	-0.243
-713.718	-120.921	0.113	0.019
-712.704	8.652	-0.163	-0.123
-711.689	800.000	0.114	0.339
-710.675	67.564	0.181	0.185
-709.660	663.310	-0.115	-0.296
-708.645	89.665	0.067	0.075
-707.631	164.664	-0.055	0.078
-706.616	111.274	-0.051	0.062
-705.602	-142.165	-0.045	0.004
-704.587	-103.001	0.169	0.040
-703.572	148.511	-0.294	0.398
-702.558	87.278	0.135	0.150
-701.543	800.000	-0.123	-0.453
-700.529	11.746	-0.265	-0.204
-699.514	-152.841	0.322	-0.023
-698.499	-200.000	0.063	-0.380
-697.485	800.000	0.075	-0.209
-696.470	208.212	-0.134	-0.210
-695.456	-200.000	-0.048	-0.357
-694.441	-100.009	0.369	0.092
-693.426	-102.413	-0.209	-0.050
-692.412	-145.061	-0.114	-0.010
-691.397	169.764	0.077	0.110
-690.383	123.634	-0.013	0.017
-689.368	-177.608	-0.109	-0.003
-688.354	-200.000	0.014	-0.065
-687.339	-74.507	0.100	-0.036
-686.324	410.603	0.073	0.155
-685.310	-138.057	0.216	-0.024
-684.295	800.000	0.082	-0.279
-683.281	-200.000	0.045	-0.259
-682.266	-82.906	-0.062	0.020
-681.251	135.729	0.109	-0.142
-680.237	-99.301	0.179	0.045
-679.222	-124.041	-0.228	0.036
-678.208	481.307	0.002	-0.004
-677.193	426.035	0.093	-0.200
-676.178	-200.000	-0.021	-0.290
-675.164	241.147	0.057	-0.095
-674.149	371.478	0.109	-0.222
-673.135	-46.079	0.134	0.066
-672.120	90.796	-0.130	-0.146
-671.105	-44.283	0.173	0.086
-670.091	-4.582	-0.247	-0.171
-669.076	-28.982	0.379	-0.217
-668.062	171.273	-0.152	-0.219
-667.047	-127.563	0.058	0.008
-666.032	319.666	-0.056	0.107
-665.018	-81.550	-0.153	-0.050
-664.003	-124.753	0.221	-0.034
-662.989	-82.585	0.128	0.041
-661.974	7.117	0.489	-0.365
-660.959	490.287	0.101	-0.231
-659.945	-68.487	-0.373	0.145
-658.930	-101.757	0.251	-0.061
-657.916	87.698	0.138	0.153
-656.901	13.248	0.198	-0.153
-655.886	251.466	-0.065	-0.111
-654.872	341.022	-0.123	-0.241
-653.857	-200.000	0.042	-0.511
-652.843	-120.180	0.200	-0.034
-651.828	61.592	0.216	-0.214
-650.814	164.461	0.079	-0.112
-649.799	131.929	-0.218	0.280
-648.784	-200.000	0.018	-0.156
-647.770	454.949	0.116	-0.257
-646.755	-102.885	-0.157	0.037
-645.741	389.107	0.094	0.195
-644.726	67.163	0.222	0.226
-643.711	324.057	0.219	0.418
-642.697	-122.463	0.087	-0.014
-641.682	-22.443	-0.223	0.135
-640.668	-113.165	0.090	0.018
-639.653	800.000	0.051	-0.160
-638.638	-35.864	-0.230	-0.124
-637.624	-200.000	-0.018	-0.396
-636.609	149.835	0.067	0.091
-635.595	-20.766	-0.250	-0.153
-634.580	-58.703	0.051	-0.022
-633.565	-200.000	0.026	0.211
-632.551	-10.400	-0.127	0.084
-631.536	66.296	-0.135	0.137
-630.522	-147.628	-0.200	-0.017
-629.507	-200.000	-0.037	-0.165
-628.492	-83.129	0.221	-0.071
-627.478	-164.129	0.245	0.011
-626.463	-200.000	-0.008	0.077
-625.449	-47.028	0.336	-0.164
-624.434	800.000	0.125	-0.415
-623.419	-153.166	0.304	-0.021
-622.405	-77.716	-0.173	0.060
-621.390	130.022	-0.191	-0.243
-620.376	72.721	0.261	-0.272
-619.361	-200.000	0.024	-0.176
-618.346	-138.778	0.238	0.026
-617.332	-46.361	0.318	-0.156
-616.317	138.375	0.230	-0.301
-615.303	-0.803	-0.168	0.119
-614.288	-50.923	-0.179	-0.084
-613.273	-152.198	-0.041	0.003
-612.259	47.605	0.030	0.028
-611.244	66.797	-0.303	0.308
-610.230	-167.884	-0.217	0.008
-609.215	38.456	0.176	-0.156
-608.201	-131.287	0.324	-0.043
-607.186	223.953	0.076	0.122
-606.171	-122.418	0.139	0.023
-605.157	-200.000	-0.044	0.396
-604.142	800.000	0.082	0.270
-603.128	166.934	-0.317	-0.448
-602.113	800.000	0.072	-0.284
-601.098	30.447	-0.127	0.108
-600.084	-36.125	0.110	-0.059
-599.069	29.004	0.086	0.072
-598.055	534.150	0.081	-0.192
-597.040	86.191	-0.109	-0.119
-596.025	-14.337	-0.220	-0.141
-595.011	-0.763	-0.087	0.061
-593.996	-35.626	-0.071	-0.038
-592.982	-111.516	-0.138	0.028
-591.967	-67.071	0.194	-0.076
-590.952	-38.726	-0.253	-0.133
-589.938	75.095	-0.075	0.078
-588.923	565.196	-0.146	-0.352
-587.909	141.127	-0.209	-0.276
-586.894	-21.508	-0.239	0.145
-585.879	3.956	0.322	-0.235
-584.865	-80.690	-0.108	0.036
-583.850	82.199	-0.145	-0.157
-582.836	249.441	0.054	0.091
-581.821	381.594	-0.127	0.259
-580.806	86.385	-0.113	0.124
-579.792	-200.000	0.031	0.302
-578.777	540.482	-0.043	0.101
-577.763	-200.000	-0.038	-0.302
-576.748	-121.225	-0.315	-0.052
-575.733	-16.153	-0.041	-0.026
-574.719	764.578	-0.052	-0.141
-573.704	-60.854	0.166	-0.070
-572.690	229.989	0.142	-0.231
-571.675	-200.000	0.054	-0.484
-570.661	-200.000	0.032	0.308
-569.646	-101.490	-0.245	0.059
-568.631	30.024	0.063	0.054
-567.617	481.788	0.070	-0.158
-566.602	105.603	-0.110	-0.129
-565.588	-70.538	-0.202	0.076
-564.573	46.155	-0.207	0.191
-563.558	-126.076	0.219	-0.033
-562.544	-4.247	-0.133	-0.092
-561.529	113.405	0.221	-0.267
-560.515	-200.000	0.002	0.308
-559.500	800.000	-0.042	0.140
-558.485	383.008	-0.059	-0.120
-557.471	-61.243	-0.177	-0.074
-556.456	-179.568	0.184	-0.004
-555.442	209.705	0.149	-0.233
-554.427	23.232	0.235	0.192
-553.412	-154.055	-0.448	-0.030
-552.398	-200.000	-0.001	0.248
-551.383	-44.384	-0.311	0.155
-550.369	-23.522	0.241	-0.144
-549.354	-0.963	0.188	-0.133
-548.339	-59.613	-0.363	-0.155
-547.325	-93.769	-0.113	-0.031
-546.310	-200.000	-0.008	0.089
-545.296	-115.451	-0.370	-0.069
-544.281	38.304	0.239	-0.212
-543.266	210.669	0.007	-0.011
-542.252	559.744	0.084	-0.201
-541.237	431.450	-0.077	0.166
-540.223	3.574	-0.142	-0.103
-539.208	-155.444	-0.133	-0.009
-538.193	800.000	-0.026	-0.113
-537.179	-200.000	0.051	-0.259
-536.164	36.942	0.135	-0.119
-535.150	81.601	0.147	-0.158
-534.135	511.033	0.155	-0.359
-533.121	-90.383	-0.279	-0.080
-532.106	-23.576	0.178	0.106
-531.091	414.945	-0.171	0.362
-530.077	327.028	-0.081	-0.155
-529.062	30.528	-0.089	0.076
-528.048	205.921	-0.076	-0.118
-527.033	-61.480	-0.090	0.038
-526.018	-200.000	-0.079	-0.474
-525.004	-74.991	0.161	0.057
-523.989	-179.682	-0.351	-0.008
-522.975	-200.000	0.067	-0.328
-521.960	306.481	0.038	-0.070
-520.945	336.580	0.160	-0.310
-519.931	81.478	0.146	-0.157
-518.916	674.394	-0.015	-0.039
-517.902	-200.000	-0.008	-0.066
-516.887	241.706	0.029	-0.049
-515.872	-61.367	0.085	0.035
-514.858	-55.004	0.160	0.071
-513.843	-200.000	-0.028	0.189
-512.829	149.187	-0.066	0.089
-511.814	6.434	0.113	0.084
-510.799	-168.053	-0.234	0.009
-509.785	520.688	0.076	0.178
-508.770	-17.040	0.062	0.039
-507.756	-71.356	-0.283	0.105
-506.741	-94.460	0.252	0.068
-505.726	-200.000	0.030	-0.229
-504.712	44.165	0.279	0.254
-503.697	127.627	0.155	0.195
-502.683	800.000	-0.038	-0.125
-501.668	25.109	-0.326	0.269
-500.653	214.668	-0.105	0.166
-499.639	567.851	0.096	0.233
-498.624	800.000	-0.022	-0.094
-497.610	-85.374	-0.023	0.007
-496.595	5.586	-0.137	-0.101
-495.581	61.647	0.157	-0.156
-494.566	-49.035	0.106	0.050
-493.551	-200.000	-0.006	-0.043
-492.537	-129.725	0.299	0.041
-491.522	800.000	0.102	-0.317
-490.508	31.093	-0.311	0.265
-489.493	-34.634	0.265	0.144
-488.478	-158.394	-0.176	0.010
-487.464	-43.626	-0.280	0.140
-486.449	32.808	0.065	-0.056
-485.435	442.417	0.142	-0.309
-484.420	74.099	-0.044	0.046
-483.405	-57.070	-0.147	0.064
-482.391	234.390	-0.121	-0.198
-481.376	-39.354	-0.107	-0.056
-480.362	-100.394	-0.310	0.076
-479.347	51.171	0.115	-0.108
-478.332	-93.837	0.032	-0.009
-477.318	-90.466	-0.104	0.030
-476.303	-76.523	-0.177	-0.062
-475.289	441.692	-0.022	-0.047
-474.274	-66.101	-0.195	-0.077
-473.259	-11.934	0.213	-0.139
-472.245	-200.000	0.009	0.299
-471.230	-41.319	0.202	-0.103
-470.216	304.426	0.135	-0.248
-469.201	92.093	-0.233	0.260
-468.186	800.000	-0.087	-0.286
-467.172	-139.664	0.076	-0.008
-466.157	-200.000	-0.209	-0.000
-465.143	-53.397	0.093	-0.042
-464.128	-0.029	-0.070	0.049
-463.113	-58.830	-0.244	0.105
-462.099	800.000	0.134	0.368
-461.084	414.636	-0.058	0.123
-460.070	231.097	0.219	0.356
-459.055	-200.000	-0.014	0.254
-458.040	608.671	-0.028	0.069
-457.026	563.787	-0.059	0.142
-456.011	-34.655	0.089	0.048
-454.997	-87.363	0.452	0.136
-453.982	-185.974	-0.154	0.002
-452.968	800.000	-0.041	-0.127
-451.953	800.000	-0.054	-0.195
-450.938	800.000	-0.039	0.141
-449.924	-200.000	-0.053	0.308
-448.909	5.078	0.188	0.137
-447.895	-200.000	-0.013	-0.073
-446.880	-86.097	-0.172	0.053
-445.865	511.661	0.070	-0.163
-444.851	-200.000	0.014	-0.195
-443.836	-65.294	-0.371	0.148
-442.822	25.280	-0.297	-0.245
-441.807	-136.820	0.170	-0.019
-440.792	113.115	0.168	-0.202
-439.778	800.000	0.132	-0.549
-438.763	-108.383	0.418	0.089
-437.749	-117.868	0.260	-0.046
-436.734	159.203	0.019	0.026
-435.719	-200.000	0.007	-0.243
-434.705	24.458	-0.137	-0.112
-433.690	-94.733	-0.405	-0.109
-432.676	174.098	0.055	-0.079
-431.661	-200.000	-0.009	-0.158
-430.646	141.645	0.057	-0.075
-429.632	81.717	-0.087	-0.093
-428.617	-200.000	0.025	-0.344
-427.603	-173.709	-0.095	-0.003
-426.588	-177.391	-0.073	0.002
-425.573	28.863	0.055	0.046
-424.559	-200.000	0.003	-0.185
-423.544	-166.201	-0.029	0.001
-422.530	3.142	-0.054	0.039
-421.515	101.104	0.229	-0.264
-420.500	460.024	-0.033	0.072
-419.486	800.000	0.043	-0.132
-418.471	-140.112	-0.347	0.036
-417.457	-8.698	0.299	0.199
-416.442	92.384	-0.209	0.234
-415.428	-18.273	0.067	-0.041
-414.413	-129.173	-0.188	-0.026
-413.398	235.984	-0.147	0.241
-412.384	800.000	-0.038	0.145
-411.369	-120.494	-0.229	-0.038
-410.355	800.000	-0.097	0.335
-409.340	-200.000	0.001	0.274
-408.325	-200.000	-0.010	0.079
-407.311	12.158	0.152	0.116
-406.296	-200.000	0.185	-0.000
-405.282	74.284	0.302	0.314
-404.267	-200.000	-0.048	-0.220
-403.252	800.000	-0.066	-0.187
-402.238	-144.013	-0.182	-0.017
-401.223	-76.868	-0.092	0.032
-400.209	800.000	0.056	-0.169
-399.194	-200.000	-0.004	-0.263
-398.179	388.790	-0.112	-0.230
-397.165	-200.000	-0.007	-0.327
-396.150	-6.276	0.154	-0.104
-395.136	244.211	0.132	0.220
-394.121	158.238	0.211	0.290
-393.106	-200.000	0.021	0.107
-392.092	-62.283	-0.046	-0.019
-391.077	740.796	0.078	-0.206
-390.063	-19.541	-0.234	0.143
-389.048	75.397	-0.191	0.200
-388.033	-100.221	-0.188	0.046
-387.019	-90.103	0.190	0.055
-386.004	-200.000	-0.046	0.234
-384.990	-127.430	-0.178	0.026
-383.975	72.676	0.116	-0.120
-382.960	800.000	-0.086	-0.304
-381.946	-151.326	-0.044	-0.003
-380.931	-200.000	0.030	-0.399
-379.917	517.143	0.093	-0.214
-378.902	-71.402	-0.108	-0.040
-377.888	158.511	-0.130	-0.179
-376.873	112.917	-0.143	-0.172
-375.858	534.265	-0.096	-0.225
-374.844	-200.000	-0.012	0.092
-373.829	-21.665	-0.257	-0.154
-372.815	328.690	-0.070	-0.133
-371.800	49.526	0.203	-0.189
-370.785	15.602	0.107	0.083
-369.771	-176.379	-0.202	-0.005
-368.756	242.457	0.040	0.066
-367.742	272.054	0.153	-0.267
-366.727	150.047	-0.181	0.243
-365.712	202.107	0.064	-0.098
-364.698	248.196	-0.030	0.050
-363.683	-12.662	0.201	-0.129
-362.669	-200.000	0.044	0.283
-361.654	266.242	0.156	-0.270
-360.639	-89.644	0.102	0.030
-359.625	800.000	0.088	0.322
-358.610	398.938	-0.103	0.213
-357.596	30.475	0.128	-0.108
-356.581	800.000	-0.022	0.086
-355.566	800.000	0.126	0.349
-354.552	30.026	-0.051	-0.043
-353.537	-79.657	-0.189	0.063
-352.523	-200.000	-0.041	-0.179
-351.508	-36.036	0.083	0.045
-350.493	1.678	-0.115	-0.082
-349.479	-97.718	0.291	0.074
-348.464	92.669	0.068	-0.076
-347.450	-42.674	-0.060	0.030
-346.435	-200.000	-0.005	0.069
-345.420	344.241	0.196	-0.379
-344.406	118.539	0.153	-0.187
-343.391	-38.551	0.031	0.016
-342.377	75.283	0.092	-0.095
-341.362	522.806	-0.074	0.172
-340.348	-11.932	0.271	-0.175
-339.333	-4.433	-0.035	0.024
-338.318	800.000	-0.082	0.226
-337.304	-200.000	-0.002	-0.081
-336.289	-200.000	0.012	0.076
-335.275	-88.201	0.177	0.052
-334.260	-73.545	-0.181	-0.065
-333.245	-24.972	-0.139	-0.081
-332.231	-122.153	-0.108	-0.018
-331.216	-200.000	0.034	0.249
-330.202	280.786	-0.136	0.240
-329.187	800.000	-0.129	0.461
-328.172	800.000	-0.036	0.113
-327.158	227.978	-0.085	0.137
-326.143	800.000	0.048	0.141
-325.129	44.891	-0.202	0.184
-324.114	131.115	0.029	0.037
-323.099	148.542	0.263	-0.350
-322.085	-200.000	0.077	0.333
-321.070	-52.294	-0.220	0.100
-320.056	407.172	-0.077	0.161
-319.041	66.337	-0.205	-0.206
-318.026	80.948	0.191	0.203
-317.012	-200.000	0.006	0.063
-315.997	12.809	-0.426	0.324
-314.983	181.145	0.241	0.349
-313.968	-200.000	-0.042	0.214
-312.953	12.405	0.178	0.136
-311.939	15.503	-0.067	-0.052
-310.924	1.976	-0.124	-0.088
-309.910	-200.000	-0.050	-0.243
-308.895	524.034	0.172	-0.398
-307.880	-78.427	0.056	-0.019
-306.866	137.311	-0.112	0.145
-305.851	-200.000	0.041	0.361
-304.837	117.165	0.251	0.305
-303.822	-50.266	-0.181	0.084
-302.807	-62.984	0.144	0.059
-301.793	33.430	0.137	-0.117
-300.778	-91.592	-0.183	-0.051
-299.764	27.663	-0.195	-0.161
-298.749	800.000	0.061	-0.261
-297.735	30.728	0.434	0.366
-296.720	-1.284	0.291	0.203
-295.705	800.000	-0.122	-0.382
-294.691	95.303	-0.100	-0.112
-293.676	317.911	0.062	0.116
-292.662	-106.336	-0.265	0.059
-291.647	-122.250	-0.231	0.037
-290.632	-200.000	0.045	0.219
-289.618	-5.532	0.121	0.082
-288.603	419.966	0.034	-0.071
-287.589	-110.229	0.122	-0.025
-286.574	488.280	-0.019	-0.043
-285.559	-193.104	0.285	-0.003
-284.545	-138.782	0.122	0.013
-283.530	35.702	-0.158	-0.137
-282.516	-152.708	-0.277	-0.019
-281.501	-0.879	-0.239	0.167
-280.486	167.792	0.181	0.253
-279.472	55.505	-0.094	0.090
-278.457	191.614	0.077	0.115
-277.443	-138.858	0.521	0.056
-276.428	-200.000	0.001	0.296
-275.413	-20.298	0.428	0.260
-274.399	800.000	-0.035	0.131
-273.384	33.876	-0.034	0.029
-272.370	237.697	0.135	-0.221
-271.355	7.495	0.045	-0.033
-270.340	-70.324	0.234	0.087
-269.326	-93.108	-0.605	0.166
-268.311	-167.194	0.145	0.006
-267.297	75.727	0.166	0.172
-266.282	-50.562	-0.209	-0.097
-265.267	255.280	0.102	0.172
-264.253	16.210	-0.110	0.086
-263.238	272.769	-0.127	0.220
-262.224	800.000	0.077	-0.301
-261.209	-130.158	-0.275	0.037
-260.195	104.349	0.311	-0.361
-259.180	-82.229	0.260	0.083
-258.165	136.319	0.132	0.169
-257.151	-57.986	-0.322	0.138
-256.136	800.000	-0.113	-0.330
-255.122	144.652	0.159	0.209
-254.107	689.438	0.137	-0.353
-253.092	-127.174	-0.140	0.020
-252.078	-158.531	-0.319	0.018
-251.063	125.993	0.057	0.070
-250.049	800.000	-0.056	-0.239
-249.034	433.915	0.037	-0.079
-248.019	31.700	0.321	0.272
-247.005	-200.000	-0.082	0.390
-245.990	-175.465	0.382	0.010
-244.976	130.856	-0.050	0.063
-243.961	165.607	-0.108	-0.150
-242.946	-19.191	-0.104	0.064
-241.932	-200.000	0.020	0.175
-240.917	800.000	0.050	-0.168
-239.903	-82.950	0.163	0.052
-238.888	-82.348	-0.048	0.015
-237.873	-200.000	0.033	0.198
-236.859	-200.000	0.004	-0.115
-235.844	-191.812	-0.108	0.001
-234.830	127.305	0.201	0.251
-233.815	168.775	-0.112	0.157
-232.800	-29.827	-0.163	-0.091
-231.786	-200.000	-0.080	0.345
-230.771	-19.020	0.281	-0.172
-229.757	343.948	0.133	0.257
-228.742	-13.074	0.059	-0.038
-227.727	800.000	0.056	0.235
-226.713	-8.673	-0.169	0.112
-225.698	-200.000	-0.058	0.255
-224.684	-141.256	0.422	0.042
-223.669	414.416	-0.088	-0.185
-222.655	-56.489	0.135	-0.059
-221.640	368.461	0.034	-0.068
-220.625	800.000	-0.058	0.186
-219.611	-95.428	-0.080	-0.021
-218.596	-36.027	0.353	0.188
-217.582	495.610	-0.057	-0.129
-216.567	10.929	-0.106	0.080
-215.552	-200.000	0.014	0.224
-214.538	72.014	0.139	0.142
-213.523	300.217	-0.048	-0.087
-212.509	-87.942	0.197	-0.058
-211.494	-103.117	-0.119	0.028
-210.479	-200.000	0.049	-0.229
-209.465	165.265	0.032	-0.044
-208.450	68.428	-0.200	-0.201
-207.436	189.950	-0.134	0.197
-206.421	-20.804	0.042	-0.026
-205.406	-140.890	0.187	-0.019
-204.392	-53.448	-0.471	-0.212
-203.377	247.941	0.094	0.155
-202.363	-102.856	0.123	0.029
-201.348	-200.000	-0.039	0.283
-200.333	-44.447	0.204	-0.100
-199.319	-137.901	0.145	-0.016
-198.304	-85.105	0.593	0.182
-197.290	-200.000	0.032	0.349
-196.275	-200.000	-0.031	-0.171
-195.260	249.180	-0.049	-0.082
-194.246	267.376	0.081	0.139
-193.231	-200.000	-0.006	-0.164
-192.217	254.359	-0.052	0.088
-191.202	15.256	0.088	-0.068
-190.187	668.493	-0.093	0.236
-189.173	-40.367	-0.022	-0.011
-188.158	59.882	0.300	0.290
-187.144	194.288	-0.113	-0.168
-186.129	-93.699	-0.111	0.030
-185.114	-37.993	-0.143	-0.075
-184.100	-0.625	-0.135	-0.094
-183.085	800.000	-0.075	-0.262
-182.071	-119.409	-0.073	0.013
-181.056	-200.000	0.079	0.414
-180.042	192.540	-0.124	-0.183
-179.027	-99.157	-0.487	0.121
-178.012	-200.000	0.007	-0.141
-176.998	333.526	0.269	-0.510
-175.983	-200.000	0.062	-0.312
-174.969	363.715	-0.175	0.344
-173.954	146.976	-0.141	-0.186
-172.939	-200.000	0.004	-0.166
-171.925	44.492	0.035	-0.032
-170.910	132.215	0.101	-0.128
-169.896	72.736	-0.152	-0.155
-168.881	124.993	0.101	0.125
-167.866	-69.892	0.184	0.069
-166.852	181.667	-0.144	-0.208
-165.837	1.457	-0.050	0.035
-164.823	-97.624	-0.293	-0.075
-163.808	45.574	0.331	0.299
-162.793	153.891	-0.120	0.161
-161.779	-200.000	-0.004	-0.169
-160.764	-0.508	0.159	0.111
-159.750	-200.000	-0.017	-0.089
-158.735	165.491	0.189	-0.261
-157.720	174.113	-0.098	0.139
-156.706	-7.061	0.268	0.178
-155.691	-139.568	-0.029	0.003
-154.677	-65.044	0.235	0.093
-153.662	-133.342	0.192	0.024
-152.647	-90.350	0.048	0.014
-151.633	-139.062	-0.129	0.014
-150.618	800.000	0.072	-0.240
-149.604	16.760	0.181	-0.140
-148.589	-200.000	-0.068	0.387
-147.574	186.936	0.111	-0.161
-146.560	-96.413	0.175	-0.045
-145.545	-173.312	-0.189	-0.006
-144.531	611.330	0.063	0.155
-143.516	589.978	-0.078	0.188
-142.502	-116.209	0.103	-0.019
-141.487	126.632	-0.218	0.271
-140.472	-84.540	0.307	-0.095
-139.458	-200.000	-0.007	0.047
-138.443	-134.465	0.123	0.015
-137.429	-144.736	-0.076	0.007
-136.414	-200.000	0.001	0.073
-135.399	569.281	0.039	-0.092
-134.385	-79.610	-0.050	0.017
-133.370	-134.760	0.253	-0.030
-132.356	-107.194	0.177	-0.038
-131.341	800.000	0.121	0.422
-130.326	-200.000	0.007	-0.092
-129.312	800.000	-0.072	0.258
-128.297	-120.925	0.216	0.036
-127.283	800.000	-0.032	0.133
-126.268	-180.514	-0.139	-0.003
-125.253	18.772	-0.150	-0.117
-124.239	761.589	0.080	-0.213
-123.224	-166.565	0.157	0.006
-122.210	78.836	-0.103	0.108
-121.195	800.000	-0.033	0.136
-120.180	-200.000	0.030	-0.139
-119.166	-162.587	-0.222	0.011
-118.151	800.000	0.104	-0.331
-117.137	-150.715	0.195	-0.015
-116.122	308.077	-0.145	0.265
-115.107	-73.883	0.392	-0.139
-114.093	747.598	0.023	0.062
-113.078	-200.000	-0.019	-0.225
-112.064	-200.000	0.034	-0.263
-111.049	396.089	0.040	0.082
-110.034	-27.823	-0.337	-0.191
-109.020	104.521	-0.168	-0.194
-108.005	-182.803	-0.312	0.005
-106.991	-89.787	0.330	-0.095
-105.976	183.168	0.101	-0.146
-104.962	216.982	0.154	-0.239
-103.947	-43.448	0.166	-0.082
-102.932	-92.318	0.258	-0.071
-101.918	-200.000	-0.030	-0.293
-100.903	-78.627	-0.394	-0.132
-99.889	800.000	0.010	-0.039
-98.874	4.800	0.165	0.119
-97.859	-113.359	0.345	0.066
-96.845	-200.000	0.022	-0.201
-95.830	-117.296	-0.096	0.017
-94.816	-78.032	0.257	-0.086
-93.801	198.326	-0.067	0.100
-92.786	-132.256	-0.303	0.038
-91.772	47.013	0.184	0.167
-90.757	-12.018	0.327	-0.209
-89.743	103.660	0.206	0.236
-88.728	-70.275	0.136	-0.051
-87.713	-158.318	0.465	-0.026
-86.699	-200.000	0.044	0.380
-85.684	800.000	0.089	0.248
-84.670	-75.734	-0.326	-0.113
-83.655	130.689	0.176	0.220
-82.640	272.727	-0.128	0.221
-81.626	339.838	-0.092	0.175
-80.611	86.809	0.322	0.347
-79.597	-148.882	-0.222	-0.018
-78.582	-38.036	0.300	0.155
-77.567	792.985	0.114	-0.306
-76.553	-79.267	-0.305	-0.101
-75.538	109.830	-0.072	0.084
-74.524	157.952	-0.128	-0.173
-73.509	-51.969	0.259	-0.118
-72.494	87.656	-0.058	-0.063
-71.480	-184.814	0.057	0.001
-70.465	-200.000	0.059	0.319
-69.451	225.015	0.133	0.211
-68.436	164.527	0.115	-0.158
-67.422	-88.209	-0.131	0.038
-66.407	-103.284	-0.165	-0.038
-65.392	-129.749	0.354	0.048
-64.378	-65.183	-0.191	0.075
-63.363	-84.206	0.273	-0.085
-62.349	-200.000	0.005	0.122
-61.334	154.300	-0.751	-1.007
-60.319	-37.825	0.595	0.309
-59.305	800.000	-0.347	-1.165
-58.290	372.702	0.850	1.687
-57.276	800.000	0.571	1.780
-56.261	-200.000	121.886	624.368
-55.246	384.553	1577.562	3173.727
-54.232	139.560	2748.338	3532.878
-53.217	95.357	2185.193	2431.616
-52.203	36.110	1612.984	1386.700
-51.188	27.632	1354.932	1113.301
-50.173	25.025	1317.530	1067.024
-49.159	50.490	1384.151	1277.753
-48.144	48.498	1396.337	1276.772
-47.130	27.735	1345.279	1105.816
-46.115	24.649	1325.848	1071.335
-45.100	24.355	1321.517	1066.035
-44.086	24.316	1318.559	1063.372
-43.071	24.229	1316.345	1061.029
-42.057	24.245	1314.569	1059.647
-41.042	24.227	1313.089	1058.309
-40.027	24.263	1311.328	1057.058
-39.013	24.286	1309.601	1055.760
-37.998	24.293	1307.725	1054.251
-36.984	24.288	1305.798	1052.625
-35.969	24.322	1304.172	1051.474
-34.954	24.370	1302.550	1050.408
-33.940	24.426	1301.068	1049.496
-32.925	24.418	1299.769	1048.364
-31.911	24.404	1298.468	1047.189
-30.896	24.380	1297.198	1045.980
-29.881	24.554	1295.762	1045.801
-28.867	24.686	1293.894	1045.026
-27.852	24.527	1292.662	1043.061
-26.838	24.507	1291.422	1041.898
-25.823	24.525	1289.923	1040.753
-24.809	24.459	1288.622	1039.281
-23.794	24.484	1286.940	1038.027
-22.779	24.475	1285.991	1037.165
-21.765	24.437	1284.841	1035.980
-20.750	24.530	1283.574	1035.454
-19.736	24.173	1282.753	1032.681
-18.721	24.306	1281.009	1032.009
-17.706	24.308	1280.092	1031.242
-16.692	24.360	1278.706	1030.385
-15.677	24.312	1277.959	1029.463
-14.663	24.367	1276.516	1028.576
-13.648	24.316	1275.576	1027.482
-12.633	24.271	1274.593	1026.396
-11.619	24.401	1273.804	1026.467
-10.604	24.276	1272.863	1024.948
-9.590	24.360	1271.473	1024.270
-8.575	24.268	1270.592	1022.994
-7.560	24.211	1270.201	1022.309
-6.546	24.278	1269.150	1021.805
-5.531	24.400	1267.574	1021.196
-4.517	24.407	1267.267	1020.951
-3.502	24.340	1266.443	1019.859
-2.487	24.418	1265.683	1019.651
-1.473	24.349	1261.438	1015.802
-0.458	22.989	1246.105	995.758
0.556	18.672	1230.560	959.911
1.571	15.213	1237.483	945.735
2.586	14.330	1253.385	952.756
3.600	14.161	1241.217	942.466
4.615	10.588	1168.080	867.776
5.629	3.979	1095.505	780.544
6.644	0.946	1078.278	753.127
7.659	0.624	1076.272	750.063
8.673	0.598	1075.399	749.262
9.688	0.693	1073.907	748.624
10.702	0.883	1071.582	747.877
11.717	4.935	1076.407	771.261
12.731	11.913	1085.192	812.199
13.746	16.135	1090.866	837.383
14.761	17.247	1091.842	843.577
15.775	16.588	1089.964	838.787
16.790	15.562	1088.406	832.431
17.804	14.810	1086.808	827.416
18.819	14.455	1085.537	824.617
19.834	14.243	1084.202	822.483
20.848	13.988	1083.495	820.615
21.863	13.839	1082.519	819.066
22.877	13.600	1081.533	817.072
23.892	13.442	1081.227	815.988
24.907	13.575	1080.781	816.235
25.921	13.649	1079.694	815.708
26.936	13.760	1078.499	815.278
27.950	13.602	1077.871	813.953
28.965	13.808	1076.527	813.879
29.980	13.738	1075.085	812.373
30.994	13.736	1074.385	811.763
32.009	13.702	1073.539	810.883
33.023	13.764	1071.900	809.877
34.038	13.749	1071.195	809.201
35.053	13.640	1070.590	808.142
36.067	13.729	1069.246	807.489
37.082	13.724	1068.767	807.029
38.096	13.680	1068.269	806.367
39.111	13.657	1067.568	805.657
40.126	13.555	1066.091	803.976
41.140	13.665	1064.413	803.173
42.155	13.565	1063.692	802.074
43.169	13.530	1062.707	801.088
44.184	13.587	1061.695	800.531
45.199	13.594	1060.486	799.581
46.213	13.533	1059.999	798.851
47.228	13.655	1058.304	798.091
48.242	13.589	1057.749	797.283
49.257	13.535	1056.886	796.301
50.271	13.634	1055.742	795.846
51.286	13.630	1054.978	795.181
52.301	13.742	1053.407	794.461
53.315	13.652	1052.483	793.264
54.330	13.679	1051.397	792.505
55.344	13.647	1050.445	791.564
56.359	13.682	1049.587	791.014
57.374	13.685	1048.806	790.370
58.388	13.597	1048.081	789.336
59.403	13.545	1046.881	788.115
60.417	13.568	1046.099	787.566
61.432	13.647	1045.627	787.516
62.447	13.529	1044.654	786.153
63.461	13.520	1043.828	785.420
64.476	13.558	1042.723	784.698
65.490	13.625	1041.486	784.012
66.505	13.643	1041.418	783.979
67.520	13.603	1040.546	783.065
68.534	13.542	1040.098	782.368
69.549	13.667	1039.447	782.402
70.563	13.486	1039.020	781.156
71.578	13.625	1037.535	780.624
72.593	13.543	1037.065	779.815
73.607	13.465	1036.401	778.880
74.622	13.558	1035.785	778.788
75.636	13.451	1034.910	777.556
76.651	13.507	1034.122	777.159
77.666	13.459	1033.872	776.675
78.680	13.438	1033.263	776.051
79.695	13.471	1032.167	775.314
80.709	13.671	1031.098	775.378
81.724	13.615	1030.606	774.679
82.739	13.522	1030.212	773.879
83.753	13.638	1029.194	773.586
84.768	13.601	1028.222	772.616
85.782	13.701	1027.173	772.225
86.797	13.700	1026.455	771.613
87.812	13.785	1025.315	771.083
88.826	13.536	1024.788	769.459
89.841	13.582	1023.496	768.638
90.855	13.674	1022.523	768.263
91.870	13.793	1021.746	768.162
92.884	13.792	1020.979	767.514
93.899	13.778	1020.103	766.724
94.914	13.719	1019.320	765.796
95.928	13.791	1018.661	765.566
96.943	13.806	1017.555	764.736
97.957	13.771	1017.046	764.122
98.972	13.842	1015.676	763.351
99.987	13.662	1015.138	762.052
101.001	13.742	1014.034	761.524
102.016	13.739	1013.101	760.743
103.030	13.702	1012.535	760.079
104.045	13.892	1011.400	760.030
105.060	13.732	1010.406	758.485
106.074	13.748	1009.831	758.061
107.089	13.668	1008.793	756.846
108.103	13.645	1007.894	755.999
109.118	13.710	1006.581	755.246
110.133	13.780	1005.898	754.984
111.147	13.784	1004.995	754.259
112.162	13.616	1004.552	753.095
113.176	13.794	1003.459	753.018
114.191	13.644	1002.725	751.719
115.206	13.641	1002.207	751.253
116.220	13.701	1001.205	750.704
117.235	13.670	1000.125	749.689
118.249	13.735	999.000	749.072
119.264	13.907	998.459	749.376
120.279	13.683	997.811	747.813
121.293	13.748	996.778	747.267
122.308	13.672	995.954	746.243
123.322	13.755	994.297	745.306
124.337	13.715	993.653	744.577
125.352	13.710	992.465	743.602
126.366	13.666	991.447	742.573
127.381	13.711	990.468	741.979
128.395	13.636	989.768	741.049
129.410	13.849	988.117	740.701
130.424	13.711	987.466	739.531
131.439	13.808	986.713	739.333
132.454	13.737	986.050	738.456
133.468	13.655	985.736	737.790
134.483	13.813	984.401	737.430
135.497	13.798	983.583	736.685
136.512	13.719	982.640	735.564
137.527	13.736	981.723	734.884
138.541	13.764	981.041	734.432
139.556	13.747	980.529	733.913
140.570	13.794	979.702	733.434
141.585	13.768	978.869	732.629
142.600	13.974	977.705	732.606
143.614	13.847	977.032	731.476
144.629	13.951	976.185	731.235
145.643	13.999	975.433	730.819
146.658	13.859	974.246	729.251
147.673	13.808	973.573	728.457
148.687	13.926	972.247	727.919
149.702	13.807	971.716	726.932
150.716	13.830	971.119	726.525
151.731	13.890	970.276	726.090
152.746	13.994	969.176	725.660
153.760	13.874	969.204	725.089
154.775	13.949	968.346	724.714
155.789	14.111	967.473	724.701
156.804	13.900	967.313	723.596
157.819	13.989	966.351	723.199
158.833	14.090	965.975	723.296
159.848	14.016	965.138	722.280
160.862	13.990	964.131	721.352
161.877	14.027	963.081	720.661
162.892	14.005	962.303	719.920
163.906	13.938	961.415	718.903
164.921	13.961	960.295	718.101
165.935	14.132	959.190	717.949
166.950	14.075	958.485	717.112
167.964	14.160	957.385	716.593
168.979	14.048	956.409	715.316
169.994	14.088	955.747	714.931
171.008	14.073	955.265	714.443
172.023	14.112	954.597	714.048
173.037	14.138	953.611	713.360
174.052	14.056	953.274	712.690
175.067	14.169	952.641	712.639
176.081	14.093	951.747	711.582
177.096	14.087	951.540	711.338
178.110	14.154	950.745	710.969
179.125	14.175	950.245	710.623
180.140	14.239	949.521	710.290
181.154	14.104	949.399	709.561
182.169	14.246	948.555	709.471
183.183	14.218	948.296	709.093
184.198	14.264	947.014	708.269
185.213	14.327	946.600	708.163
186.227	14.319	945.928	707.564
187.242	14.420	945.476	707.594
188.256	14.390	944.330	706.545
189.271	14.249	943.739	705.446
190.286	14.347	942.956	705.211
191.300	14.320	942.199	704.469
192.315	14.240	941.990	703.913
193.329	14.242	941.281	703.329
194.344	14.369	940.648	703.330
195.359	14.316	939.912	702.491
196.373	14.341	939.038	701.882
197.388	14.234	939.287	701.556
198.402	14.459	938.167	701.606
199.417	14.399	937.523	700.808
200.432	14.455	936.868	700.492
201.446	14.628	936.336	700.759
202.461	14.562	935.645	699.902
203.475	14.662	935.243	699.958
204.490	14.620	934.342	699.048
205.504	14.513	933.834	698.158
206.519	14.460	933.191	697.392
207.534	14.566	932.396	697.179
208.548	14.640	931.729	696.929
209.563	14.570	931.082	696.093
210.577	14.556	930.494	695.532
211.592	14.729	929.536	695.473
212.607	14.685	928.762	694.652
213.621	14.701	927.992	694.080
214.636	14.677	927.300	693.401
215.650	14.642	926.810	692.829
216.665	14.778	925.900	692.652
217.680	14.816	925.144	692.179
218.694	14.790	924.680	691.667
219.709	14.861	923.949	691.351
220.723	14.890	922.775	690.531
221.738	14.933	922.297	690.291
222.753	14.811	921.891	689.421
223.767	14.934	921.270	689.403
224.782	14.899	920.910	688.927
225.796	14.789	920.337	687.986
226.811	14.932	919.258	687.707
227.826	14.800	918.870	686.815
228.840	14.881	918.011	686.443
229.855	14.927	916.701	685.593
230.869	14.882	916.345	685.079
231.884	15.025	915.565	685.023
232.899	14.977	914.787	684.180
233.913	14.985	914.074	683.620
234.928	14.883	913.890	683.005
235.942	14.969	913.154	682.748
236.957	14.873	912.950	682.142
237.972	15.004	911.893	681.826
238.986	14.945	911.008	680.863
240.001	14.977	910.392	680.474
241.015	14.960	910.058	680.094
242.030	14.866	909.709	679.392
243.045	15.083	908.490	679.303
244.059	15.109	908.000	678.982
245.074	14.990	907.976	678.419
246.088	15.116	906.612	677.851
247.103	15.013	906.466	677.264
248.117	15.193	905.599	677.286
249.132	15.244	904.973	676.962
250.147	15.186	904.422	676.256
251.161	15.264	903.545	675.853
252.176	15.348	902.772	675.555
253.190	15.329	902.234	675.016
254.205	15.313	901.443	674.299
255.220	15.348	900.983	674.037
256.234	15.386	900.442	673.726
257.249	15.363	899.973	673.224
258.263	15.379	899.061	672.546
259.278	15.470	898.109	672.140
260.293	15.406	897.560	671.412
261.307	15.405	896.835	670.808
262.322	15.550	896.194	670.848
263.336	15.439	895.856	670.090
264.351	15.687	894.821	670.248
265.366	15.609	894.094	669.330
266.380	15.656	893.862	669.288
267.395	15.616	893.010	668.431
268.409	15.696	892.067	667.983
269.424	15.627	891.793	667.443
270.439	15.496	890.795	666.118
271.453	15.574	889.993	665.771
272.468	15.615	889.604	665.581
273.482	15.751	889.031	665.632
274.497	15.579	888.426	664.440
275.512	15.636	887.806	664.145
276.526	15.752	887.530	664.335
277.541	15.761	887.049	663.954
278.555	15.773	886.741	663.713
279.570	15.720	885.923	662.831
280.585	15.904	884.767	662.631
281.599	15.820	883.992	661.660
282.614	15.851	883.596	661.431
283.628	15.650	883.175	660.265
284.643	15.811	882.124	660.052
285.657	15.684	882.096	659.478
286.672	15.755	881.230	659.049
287.687	15.926	880.515	659.125
288.701	15.857	880.006	658.414
289.716	15.990	878.927	658.068
290.730	15.953	878.560	657.593
291.745	15.929	878.037	657.049
292.760	16.166	876.857	657.031
293.774	15.993	876.494	656.025
294.789	16.101	875.904	655.946
295.803	16.061	875.170	655.183
296.818	16.082	874.456	654.675
297.833	15.959	873.754	653.613
298.847	16.062	873.402	653.691
299.862	16.186	872.746	653.622
300.876	16.208	872.208	653.247
301.891	16.220	871.659	652.826
302.906	16.174	870.846	651.981
303.920	16.143	870.527	651.564
304.935	16.279	869.714	651.423
305.949	16.201	869.325	650.773
306.964	16.228	868.863	650.475
307.979	16.291	868.120	650.102
308.993	16.218	867.533	649.324
310.008	16.240	867.084	649.014
311.022	16.279	866.241	648.477
312.037	16.246	865.815	647.973
313.052	16.301	865.104	647.594
314.066	16.187	864.599	646.724
315.081	16.269	863.895	646.454
316.095	16.320	863.208	646.077
317.110	16.345	862.848	645.844
318.125	16.204	862.552	645.030
319.139	16.319	862.035	645.024
320.154	16.517	861.318	645.185
321.168	16.466	860.807	644.553
322.183	16.458	860.002	643.861
323.197	16.372	859.750	643.287
324.212	16.451	859.382	643.255
325.227	16.313	858.697	642.163
326.241	16.457	857.808	641.989
327.256	16.340	857.312	641.117
328.270	16.373	856.855	640.841
329.285	16.510	856.143	640.772
330.300	16.504	855.323	640.078
331.314	16.522	855.018	639.863
332.329	16.528	854.677	639.574
333.343	16.488	854.361	639.128
334.358	16.713	853.407	639.208
335.373	16.502	853.642	638.532
336.387	16.662	852.900	638.524
337.402	16.704	852.607	638.407
338.416	16.642	852.294	637.879
339.431	16.695	851.528	637.450
340.446	16.641	851.367	637.072
341.460	16.778	851.207	637.410
342.475	16.946	850.238	637.257
343.489	16.730	850.104	636.290
344.504	16.833	849.978	636.529
345.519	16.701	849.660	635.735
346.533	16.865	849.112	635.884
347.548	16.924	847.745	635.028
348.562	16.873	847.739	634.776
349.577	16.825	847.037	634.014
350.592	16.756	846.639	633.400
351.606	16.760	846.001	632.885
352.621	16.821	844.906	632.235
353.635	16.913	844.367	632.122
354.650	16.913	843.848	631.673
355.665	16.829	843.467	631.023
356.679	17.008	842.481	630.892
357.694	16.948	841.936	630.207
358.708	16.994	841.181	629.756
359.723	17.012	840.657	629.375
360.738	16.744	840.171	627.961
361.752	17.018	839.669	628.547
362.767	16.989	838.944	627.840
363.781	17.184	838.088	627.865
364.796	17.120	838.049	627.545
365.810	17.023	837.696	626.867
366.825	17.112	837.698	627.140
367.840	17.273	836.732	626.957
368.854	17.348	836.179	626.763
369.869	17.128	836.069	625.814
370.883	17.199	835.667	625.718
371.898	17.321	835.156	625.729
372.913	17.307	834.279	624.967
373.927	17.248	834.321	624.725
374.942	17.241	833.549	624.066
375.956	17.259	833.452	624.004
376.971	17.347	832.710	623.715
377.986	17.409	832.246	623.540
379.000	17.458	831.975	623.463
380.015	17.466	831.554	623.121
381.029	17.529	830.501	622.508
382.044	17.491	829.771	621.766
383.059	17.504	829.268	621.382
384.073	17.238	829.444	620.489
385.088	17.546	828.307	620.705
386.102	17.452	827.869	619.980
387.117	17.478	827.555	619.784
388.132	17.475	826.676	619.059
389.146	17.386	826.438	618.504
390.161	17.493	826.066	618.561
391.175	17.540	825.284	618.089
392.190	17.564	824.625	617.627
393.205	17.591	824.318	617.442
394.219	17.566	824.133	617.157
395.234	17.562	823.739	616.795
396.248	17.636	823.013	616.463
397.263	17.522	822.707	615.768
398.278	17.696	822.000	615.812
399.292	17.421	822.060	614.809
400.307	17.624	821.267	614.894
401.321	17.500	820.805	614.046
402.336	17.711	820.472	614.502
403.350	17.439	820.329	613.361
404.365	17.692	819.307	613.454
405.380	17.639	818.967	612.955
406.394	17.913	817.904	613.088
407.409	17.902	818.097	613.139
408.423	17.873	817.863	612.806
409.438	17.911	817.392	612.537
410.453	17.942	816.789	612.139
411.467	17.792	816.520	611.346
412.482	17.843	815.976	611.069
413.496	17.991	815.235	610.989
414.511	17.992	815.082	610.824
415.526	17.813	814.764	609.890
416.540	18.037	814.088	610.130
417.555	18.089	813.419	609.760
418.569	18.070	813.476	609.681
419.584	18.099	812.471	608.979
420.599	17.938	812.649	608.484
421.613	114.347	1298.482	1485.734
422.628	98.977	1369.205	1485.812
