DTS Sentinel unit serial number:	SN413079Multiplexer serial number:	ORYXHardware model number:	OX4-SRSoftware version number:	ORYX F/W v4.00 Oryx Data Collector v3.7.2.0data status	okinstallation	princeton_trtdifferential loss correction	single-endedforward channel	channel 1reverse channel	N/Adate	2019/09/12time	18:27:34forward acquisition time	15.00reverse acquisition time	0.00gamma	496.2192k internal	0.2317k external	0.2317temperature offset calibration	1.0104default loss term (dB/km)	0.3790temperature slope calibration	1.0000multiplexer offset coefficient	1.0000multiplexer slope coefficient	1.0000fibre end	0.00T internal ref (°C)	33.31T ext. ref 1 (°C)	2.92T ext. ref 2 (°C)	27.93length (m)	temperature (°C)	Stokes	anti-Stokes-747.200	170.987	-0.209	0.303
-746.185	580.482	-0.304	0.754
-745.171	-200.000	-0.006	-0.365
-744.156	-115.499	0.220	-0.042
-743.142	-200.000	0.024	0.471
-742.127	800.000	0.124	0.372
-741.112	-104.495	0.429	-0.100
-740.098	309.927	0.295	0.558
-739.083	-200.000	-0.103	0.461
-738.069	-200.000	-0.161	-0.835
-737.054	374.086	0.157	0.324
-736.039	-105.653	-0.937	0.215
-735.025	68.649	0.389	-0.404
-734.010	145.282	0.401	0.543
-732.996	-67.973	-0.485	-0.192
-731.981	-149.040	-0.522	-0.042
-730.966	152.262	0.402	-0.555
-729.952	299.161	-0.307	-0.573
-728.937	-13.607	-0.214	0.140
-727.923	-200.000	-0.016	-0.878
-726.908	58.175	0.188	-0.186
-725.894	128.832	-0.675	0.871
-724.879	-200.000	0.094	0.838
-723.864	-100.605	0.894	-0.223
-722.850	114.537	-0.188	0.232
-721.835	683.434	0.026	0.068
-720.821	-141.598	0.273	-0.028
-719.806	-60.904	-0.617	-0.264
-718.791	-34.630	0.542	0.300
-717.777	-200.000	-0.052	-0.318
-716.762	-52.490	-0.343	0.160
-715.748	-37.297	0.136	-0.074
-714.733	368.381	0.151	0.309
-713.718	-78.549	-0.476	-0.165
-712.704	-26.964	-0.257	0.152
-711.689	151.246	-0.283	0.389
-710.675	800.000	0.174	-0.539
-709.660	-24.176	-0.981	0.593
-708.645	48.907	-0.526	0.499
-707.631	-171.213	-0.707	0.024
-706.616	51.082	0.171	-0.164
-705.602	800.000	0.082	-0.332
-704.587	-200.000	0.045	-0.431
-703.572	-200.000	0.010	0.174
-702.558	74.128	-0.038	-0.040
-701.543	-200.000	0.034	-0.377
-700.529	-69.067	-1.353	0.527
-699.514	800.000	-0.113	0.356
-698.499	-70.617	-0.661	0.252
-697.485	522.866	-0.178	0.423
-696.470	-27.374	0.110	-0.065
-695.456	-86.593	0.637	-0.197
-694.441	-58.488	-0.570	0.250
-693.426	-87.598	-0.465	0.142
-692.412	-59.589	-0.738	-0.320
-691.397	-200.000	0.017	-1.073
-690.383	49.553	0.584	-0.555
-689.368	57.713	-0.664	0.656
-688.354	-117.774	1.006	0.183
-687.339	160.244	-0.315	-0.444
-686.324	-114.318	-0.566	0.110
-685.310	782.617	0.070	0.194
-684.295	-200.000	-0.129	0.760
-683.281	-200.000	0.044	0.275
-682.266	147.738	-0.335	-0.456
-681.251	-36.730	0.240	0.130
-680.237	18.615	0.639	-0.516
-679.222	-5.252	-0.644	-0.447
-678.208	22.558	-0.704	-0.582
-677.193	-13.838	1.138	-0.743
-676.178	15.608	-0.746	0.592
-675.164	-112.023	-0.503	0.102
-674.149	-200.000	0.020	0.726
-673.135	-113.463	-0.794	0.157
-672.120	-200.000	0.025	0.199
-671.105	-125.566	0.539	0.083
-670.091	255.954	0.241	-0.417
-669.076	-111.010	0.892	0.185
-668.062	-120.703	-0.416	-0.071
-667.047	13.052	-0.850	0.664
-666.032	644.247	-0.104	0.268
-665.018	-17.330	-0.426	0.271
-664.003	179.068	-0.709	-1.047
-662.989	-83.652	0.931	-0.300
-661.974	800.000	0.300	0.991
-660.959	800.000	0.109	0.326
-659.945	-73.183	0.893	-0.330
-658.930	196.343	0.347	-0.533
-657.916	-82.937	0.223	-0.072
-656.901	-142.413	0.559	-0.056
-655.886	-40.175	-0.519	-0.272
-654.872	352.265	0.387	-0.775
-653.857	505.610	0.172	-0.403
-652.843	-200.000	0.095	1.133
-651.828	147.173	-0.352	0.477
-650.814	-101.692	0.857	-0.210
-649.799	52.579	-0.139	0.134
-648.784	-200.000	0.038	0.527
-647.770	-200.000	-0.078	0.850
-646.755	1.317	0.540	-0.392
-645.741	20.124	-0.352	-0.287
-644.726	-45.481	-0.127	-0.064
-643.711	-60.002	0.426	-0.183
-642.697	800.000	-0.028	-0.102
-641.682	-60.807	-0.529	-0.226
-640.668	57.399	0.485	0.478
-639.653	800.000	-0.335	-1.005
-638.638	-200.000	0.026	-0.265
-637.624	800.000	0.186	-0.739
-636.609	-73.867	-1.099	-0.403
-635.595	-132.787	0.561	0.072
-634.580	800.000	0.156	-0.460
-633.565	-3.051	0.481	-0.338
-632.551	-44.079	0.785	0.397
-631.536	-133.669	0.760	-0.096
-630.522	69.575	-0.586	0.609
-629.507	2.527	-0.596	-0.435
-628.492	800.000	-0.107	-0.411
-627.478	-132.348	0.650	-0.085
-626.463	30.249	-0.433	0.373
-625.449	-96.142	-0.644	-0.172
-624.434	-56.226	0.673	0.302
-623.419	-200.000	0.012	-0.419
-622.405	-70.882	0.282	0.107
-621.390	-200.000	0.018	-0.279
-620.376	107.408	-0.416	0.499
-619.361	203.297	0.296	-0.461
-618.346	-93.146	0.250	-0.070
-617.332	-63.882	-0.333	0.137
-616.317	16.785	-0.588	0.469
-615.303	800.000	0.160	-0.528
-614.288	117.166	0.452	-0.560
-613.273	536.449	0.038	0.091
-612.259	22.214	0.403	0.332
-611.244	800.000	0.148	0.415
-610.230	189.860	-0.290	0.439
-609.215	-36.355	-0.438	0.238
-608.201	225.236	-0.268	0.437
-607.186	130.834	-0.400	0.517
-606.171	36.129	0.532	-0.472
-605.157	-172.469	0.107	0.003
-604.142	-6.171	-0.440	-0.302
-603.128	-145.075	1.142	-0.105
-602.113	12.134	-0.335	0.259
-601.098	-43.535	0.923	-0.469
-600.084	183.473	0.540	-0.804
-599.069	66.431	-0.748	0.765
-598.055	97.397	0.431	-0.499
-597.040	46.925	-0.290	-0.271
-596.025	42.575	-0.685	0.627
-595.011	-54.451	1.318	0.601
-593.996	364.480	0.020	-0.041
-592.982	72.662	-0.130	-0.136
-591.967	78.751	-0.209	0.225
-590.952	-98.295	-0.535	-0.138
-589.938	117.201	0.730	-0.903
-588.923	-72.523	-0.349	-0.130
-587.909	-108.503	-0.586	-0.127
-586.894	-135.343	-0.930	-0.112
-585.879	-90.229	0.125	-0.037
-584.865	104.924	-0.068	-0.081
-583.850	39.766	-0.423	0.382
-582.836	800.000	0.119	0.412
-581.821	90.965	0.365	0.412
-580.806	800.000	0.115	-0.345
-579.792	-120.514	0.708	-0.121
-578.777	-108.763	0.368	-0.079
-577.763	88.609	-0.199	0.223
-576.748	-69.226	-0.094	-0.036
-575.733	-78.604	-0.557	-0.191
-574.719	-106.529	0.714	-0.160
-573.704	227.465	-0.065	-0.106
-572.690	-132.335	-0.622	-0.081
-571.675	16.733	-0.375	0.298
-570.661	-200.000	-0.084	-0.492
-569.646	-106.583	-0.182	0.041
-568.631	-99.146	0.958	0.244
-567.617	-3.003	0.437	-0.307
-566.602	14.862	0.115	-0.090
-565.588	31.567	-0.209	-0.181
-564.573	800.000	0.114	0.437
-563.558	800.000	0.068	0.198
-562.544	310.610	-0.334	-0.628
-561.529	33.289	-0.772	0.674
-560.515	281.443	-0.039	0.070
-559.500	-200.000	0.035	0.176
-558.485	-200.000	-0.027	0.368
-557.471	138.929	-0.559	-0.738
-556.456	305.917	0.335	0.626
-555.442	-25.437	-0.216	0.128
-554.427	115.977	-0.264	-0.325
-553.412	449.046	-0.208	0.461
-552.398	800.000	-0.049	-0.136
-551.383	219.102	-0.425	-0.683
-550.369	-200.000	-0.054	0.628
-549.354	-80.179	-0.786	0.264
-548.339	-90.393	0.634	0.185
-547.325	98.284	-0.145	-0.168
-546.310	-173.940	0.821	-0.024
-545.296	60.188	-0.191	-0.190
-544.281	24.366	0.531	0.441
-543.266	-200.000	-0.128	-0.634
-542.252	-44.514	-0.489	0.246
-541.237	800.000	0.335	-1.002
-540.223	-46.940	-0.555	-0.272
-539.208	-36.202	-0.574	-0.311
-538.193	-21.325	0.414	0.254
-537.179	-200.000	-0.053	-0.364
-536.164	12.073	-1.009	0.780
-535.150	-200.000	-0.124	-0.592
-534.135	12.408	-0.059	-0.046
-533.121	-180.044	-0.704	0.015
-532.106	221.462	-0.596	-0.961
-531.091	-200.000	0.144	-0.782
-530.077	-126.508	0.230	0.034
-529.062	800.000	-0.173	-0.565
-528.048	777.438	0.067	-0.184
-527.033	-78.465	0.921	0.317
-526.018	50.822	-0.629	-0.598
-525.004	-4.401	-0.126	0.088
-523.989	-58.150	-0.060	-0.026
-522.975	-163.579	0.568	0.027
-521.960	-122.862	-0.945	-0.153
-520.945	-138.668	0.286	-0.031
-519.931	746.457	-0.157	-0.424
-518.916	17.657	0.500	0.399
-517.902	41.264	0.516	-0.469
-516.887	501.507	0.344	-0.798
-515.872	800.000	-0.225	0.814
-514.858	-200.000	0.149	0.893
-513.843	135.271	-0.593	-0.774
-512.829	65.088	0.370	0.376
-511.814	-58.035	0.764	0.335
-510.799	32.265	-0.328	0.284
-509.785	40.569	0.189	0.171
-508.770	104.856	0.199	0.236
-507.756	139.421	0.431	0.568
-506.741	-71.677	-0.305	0.114
-505.726	141.983	0.221	0.293
-504.712	126.714	0.386	-0.491
-503.697	800.000	0.097	0.344
-502.683	636.266	0.143	0.364
-501.668	433.065	-0.201	0.437
-500.653	800.000	0.070	0.229
-499.639	227.216	0.262	0.428
-498.624	171.179	-0.860	1.237
-497.610	-200.000	0.040	-0.656
-496.595	-39.501	-0.807	-0.424
-495.581	0.453	-0.456	0.327
-494.566	-82.528	0.690	0.225
-493.551	-115.825	0.389	0.073
-492.537	383.561	0.214	-0.442
-491.522	-200.000	-0.013	-0.334
-490.508	-89.932	0.425	-0.125
-489.493	8.794	0.399	-0.302
-488.478	-197.799	0.745	-0.005
-487.464	-200.000	-0.050	-0.244
-486.449	-92.560	-0.583	-0.164
-485.435	38.843	-0.489	0.437
-484.420	-34.458	-0.561	0.308
-483.405	-200.000	-0.060	-0.323
-482.391	33.453	-0.152	0.132
-481.376	-109.118	-0.324	-0.069
-480.362	138.756	0.160	0.210
-479.347	11.168	-0.348	-0.267
-478.332	-33.219	0.450	-0.250
-477.318	-105.045	0.623	0.143
-476.303	268.656	0.311	0.546
-475.289	45.810	-0.476	0.441
-474.274	11.174	-0.712	0.546
-473.259	357.772	0.177	0.354
-472.245	-106.380	-0.160	-0.036
-471.230	-200.000	0.072	0.382
-470.216	-61.469	0.181	-0.076
-469.201	77.756	0.449	-0.479
-468.186	514.038	-0.283	0.662
-467.172	-124.539	-0.395	0.061
-466.157	26.938	0.516	0.433
-465.143	-200.000	-0.224	-1.284
-464.128	-200.000	0.053	-0.680
-463.113	800.000	-0.264	0.772
-462.099	105.322	-0.072	-0.085
-461.084	800.000	-0.300	1.232
-460.070	-161.613	-0.564	-0.029
-459.055	109.125	0.243	0.291
-458.040	173.683	-0.124	-0.179
-457.026	15.038	0.989	0.775
-456.011	800.000	0.147	-0.589
-454.997	422.003	-0.103	0.221
-453.982	-75.497	0.430	-0.153
-452.968	43.921	-0.232	-0.213
-451.953	72.367	-0.286	0.298
-450.938	-101.198	0.439	-0.108
-449.924	-176.614	0.426	-0.011
-448.909	-70.015	-0.285	-0.109
-447.895	-65.487	-0.291	0.117
-446.880	147.286	0.762	-1.027
-445.865	-105.447	0.343	0.078
-444.851	133.621	0.415	-0.538
-443.836	207.766	0.365	-0.570
-442.822	-200.000	-0.027	-0.148
-441.807	72.504	-0.615	0.641
-440.792	307.983	0.317	0.592
-439.778	800.000	0.105	-0.385
-438.763	-142.157	-0.431	-0.043
-437.749	-66.226	0.908	0.362
-436.734	-56.330	-0.593	0.263
-435.719	163.508	0.565	0.795
-434.705	-76.638	0.261	0.092
-433.690	22.110	-0.292	0.239
-432.676	51.587	-0.105	0.100
-431.661	-200.000	-0.056	0.264
-430.646	-200.000	0.090	0.643
-429.632	62.721	-0.226	0.226
-428.617	-162.350	-0.414	0.021
-427.603	800.000	0.159	0.463
-426.588	-200.000	0.080	0.422
-425.573	800.000	-0.092	0.255
-424.559	23.394	-0.433	0.356
-423.544	-200.000	0.059	0.314
-422.530	-54.052	0.430	-0.196
-421.515	-84.954	0.334	-0.105
-420.500	-110.760	0.458	0.094
-419.486	10.850	-0.817	-0.623
-418.471	-116.394	0.405	-0.075
-417.457	-8.727	-0.235	-0.158
-416.442	800.000	0.247	-0.982
-415.428	800.000	-0.052	0.178
-414.413	19.681	-0.229	0.184
-413.398	-93.166	0.339	-0.094
-412.384	-116.899	0.409	-0.075
-411.369	-200.000	-0.061	-0.334
-410.355	420.820	0.432	-0.925
-409.340	-35.333	-0.247	-0.134
-408.325	707.887	-0.135	-0.358
-407.311	166.492	0.167	-0.237
-406.296	-130.607	-0.442	0.060
-405.282	11.683	-0.053	-0.041
-404.267	-60.690	0.451	-0.191
-403.252	491.893	-0.167	-0.383
-402.238	234.053	-0.269	-0.443
-401.223	-200.000	-0.048	0.211
-400.209	800.000	0.161	0.576
-399.194	-55.679	0.437	-0.195
-398.179	-113.614	-0.135	0.026
-397.165	-67.402	-0.470	-0.185
-396.150	188.869	-0.253	-0.378
-395.136	195.875	0.214	-0.325
-394.121	176.008	-0.217	0.315
-393.106	-94.191	-0.698	-0.191
-392.092	-52.833	-0.039	-0.018
-391.077	34.584	0.202	0.177
-390.063	-23.032	1.078	0.649
-389.048	800.000	-0.096	-0.292
-388.033	-45.118	-0.493	-0.245
-387.019	-71.229	0.254	-0.095
-386.004	36.361	-0.293	-0.258
-384.990	43.942	-0.225	0.206
-383.975	-9.297	-0.717	0.478
-382.960	483.660	-0.189	0.428
-381.946	89.792	-0.070	-0.078
-380.931	-15.740	-0.753	0.479
-379.917	261.874	-0.180	0.311
-378.902	-71.333	-0.624	0.233
-377.888	85.565	0.331	0.363
-376.873	800.000	-0.100	0.313
-375.858	800.000	0.055	-0.228
-374.844	27.260	-0.287	0.240
-373.829	33.580	0.248	0.215
-372.815	9.188	0.813	-0.613
-371.800	-143.034	0.895	-0.086
-370.785	-50.027	0.446	-0.211
-369.771	-41.353	0.801	0.412
-368.756	-117.236	0.205	-0.037
-367.742	127.649	-0.618	-0.783
-366.727	-65.005	0.708	-0.285
-365.712	-137.666	-0.360	0.040
-364.698	800.000	-0.029	0.096
-363.683	-110.525	-0.934	-0.193
-362.669	-20.584	0.404	0.247
-361.654	-103.773	-0.325	-0.076
-360.639	800.000	0.275	-0.815
-359.625	-147.186	0.135	-0.011
-358.610	278.132	-0.245	-0.435
-357.596	-1.495	0.251	-0.176
-356.581	337.066	-0.091	-0.177
-355.566	-200.000	-0.108	-0.996
-354.552	370.331	0.185	-0.374
-353.537	38.901	0.841	0.749
-352.523	-150.105	0.124	-0.010
-351.508	58.198	-0.473	-0.462
-350.493	-3.565	1.012	-0.701
-349.479	-16.556	0.615	-0.388
-348.464	800.000	0.203	-0.714
-347.450	33.894	0.446	0.387
-346.435	-166.046	-0.327	0.014
-345.420	49.969	0.474	0.446
-344.406	126.259	0.378	0.477
-343.391	73.955	0.699	0.731
-342.377	-200.000	-0.067	0.466
-341.362	5.935	-0.666	0.492
-340.348	94.887	0.342	0.388
-339.333	306.516	-0.203	-0.376
-338.318	-200.000	0.005	-0.027
-337.304	26.851	-0.328	-0.274
-336.289	-7.027	0.137	0.093
-335.275	800.000	-0.179	0.494
-334.260	627.164	-0.155	-0.390
-333.245	-34.658	0.414	0.225
-332.231	-90.352	0.314	-0.091
-331.216	176.958	-0.261	-0.378
-330.202	-200.000	0.130	-0.749
-329.187	117.290	0.439	0.538
-328.172	534.391	0.379	-0.894
-327.158	36.674	-0.711	0.626
-326.143	-46.077	0.574	0.282
-325.129	-73.425	0.701	-0.255
-324.114	800.000	-0.125	-0.443
-323.099	-200.000	0.100	-0.902
-322.085	-35.070	-1.022	0.555
-321.070	-91.036	0.487	-0.139
-320.056	-118.374	-0.455	-0.081
-319.041	165.232	0.159	0.223
-318.026	25.271	0.286	-0.237
-317.012	235.270	-0.421	-0.693
-315.997	-200.000	0.115	-0.742
-314.983	-178.801	-0.960	-0.022
-313.968	-200.000	0.013	0.281
-312.953	-171.384	-1.198	-0.040
-311.939	800.000	-0.253	-0.749
-310.924	-26.217	-0.493	0.288
-309.910	-60.104	-0.292	-0.124
-308.895	800.000	-0.093	0.269
-307.880	42.774	0.199	-0.180
-306.866	175.506	-0.377	0.544
-305.851	4.467	-0.390	-0.284
-304.837	-70.664	-0.337	-0.127
-303.822	-21.337	0.293	-0.178
-302.807	-65.013	-0.763	-0.307
-301.793	-200.000	0.025	-0.354
-300.778	-83.509	0.553	-0.176
-299.764	-92.557	-0.394	-0.110
-298.749	-116.977	0.377	0.069
-297.735	429.183	-0.284	0.611
-296.720	-51.550	0.573	-0.266
-295.705	800.000	-0.137	0.518
-294.691	93.302	0.297	-0.334
-293.676	242.347	-0.093	0.155
-292.662	-200.000	0.118	0.732
-291.647	169.308	0.156	-0.221
-290.632	-70.976	-0.606	0.227
-289.618	-56.142	0.524	-0.232
-288.603	30.476	-0.456	-0.388
-287.589	96.286	-0.193	-0.220
-286.574	-200.000	-0.204	0.931
-285.559	80.506	0.519	0.556
-284.545	95.464	-0.390	0.443
-283.530	90.392	0.139	-0.155
-282.516	299.060	0.301	0.551
-281.501	-41.430	-0.334	-0.171
-280.486	55.913	0.276	0.267
-279.472	-92.770	0.746	0.208
-278.457	52.178	-0.148	0.140
-277.443	269.563	0.326	0.570
-276.428	150.482	-0.051	0.069
-275.413	70.856	0.274	-0.282
-274.399	-49.444	1.000	0.474
-273.384	-76.634	0.432	-0.151
-272.370	63.544	0.246	-0.245
-271.355	800.000	-0.233	-0.892
-270.340	-200.000	-0.140	0.965
-269.326	-68.761	-0.656	0.252
-268.311	52.116	0.630	-0.597
-267.297	-200.000	-0.103	-0.586
-266.282	197.230	0.263	0.399
-265.267	-115.096	-0.660	0.124
-264.253	625.567	0.385	0.964
-263.238	-73.387	-0.276	-0.100
-262.224	-80.996	-0.261	-0.086
-261.209	-200.000	0.022	-0.347
-260.195	-72.439	-0.347	0.128
-259.180	-2.884	-0.468	-0.325
-258.165	800.000	-0.155	-0.647
-257.151	147.839	-0.115	-0.154
-256.136	-200.000	0.001	0.106
-255.122	-126.310	-0.114	-0.017
-254.107	-84.106	0.736	-0.232
-253.092	-200.000	-0.100	0.467
-252.078	-157.982	0.322	0.019
-251.063	800.000	-0.203	0.692
-250.049	-45.100	-0.785	-0.387
-249.034	86.873	-0.286	-0.313
-248.019	387.580	0.240	-0.493
-247.005	800.000	-0.311	1.041
-245.990	64.651	-0.767	-0.768
-244.976	800.000	-0.052	0.156
-243.961	-133.158	-0.257	0.032
-242.946	-108.380	0.350	0.075
-241.932	-4.512	-0.475	-0.326
-240.917	-120.822	-0.619	-0.104
-239.903	-30.818	0.814	-0.457
-238.888	-29.832	0.646	0.365
-237.873	-23.737	-0.962	0.572
-236.859	-34.616	0.337	-0.183
-235.844	295.065	-0.198	0.359
-234.830	-14.882	0.370	0.235
-233.815	74.725	0.569	-0.594
-232.800	-116.842	0.319	0.058
-231.786	-4.277	0.403	0.277
-230.771	-86.163	0.457	0.140
-229.757	-63.910	-0.315	-0.128
-228.742	502.432	-0.451	-1.035
-227.727	-46.389	-0.458	0.223
-226.713	-200.000	0.072	0.370
-225.698	93.448	0.131	-0.147
-224.684	-200.000	-0.030	-0.879
-223.669	-84.293	0.331	0.104
-222.655	59.341	0.065	-0.064
-221.640	222.046	-0.335	0.535
-220.625	-57.786	0.770	0.334
-219.611	-163.189	-0.547	-0.026
-218.596	-130.443	0.441	-0.059
-217.582	5.752	-0.732	0.537
-216.567	356.868	0.467	0.924
-215.552	-200.000	-0.180	-0.001
-214.538	-35.822	0.502	-0.270
-213.523	-89.750	-0.331	0.096
-212.509	87.609	-0.243	0.267
-211.494	100.100	-0.455	-0.523
-210.479	-200.000	-0.059	0.568
-209.465	800.000	0.119	0.450
-208.450	-3.703	0.539	0.372
-207.436	-31.281	0.212	-0.118
-206.421	-200.000	-0.014	-0.327
-205.406	-18.209	0.239	-0.148
-204.392	-57.850	0.623	0.270
-203.377	32.045	-0.548	0.468
-202.363	-200.000	0.093	0.520
-201.348	-64.484	-0.217	0.087
-200.333	-200.000	-0.037	0.674
-199.319	-25.051	-0.288	-0.169
-198.304	-116.443	-0.849	0.155
-197.290	-92.575	-0.335	-0.093
-196.275	-200.000	0.033	-0.149
-195.260	75.845	0.435	-0.455
-194.246	191.864	0.338	0.506
-193.231	461.884	0.412	-0.910
-192.217	-148.234	-0.511	0.042
-191.202	-67.850	-0.255	-0.099
-190.187	-186.151	-0.562	0.008
-189.173	128.195	0.409	-0.515
-188.158	-34.512	0.571	-0.310
-187.144	97.606	0.901	1.025
-186.129	39.205	-0.674	-0.597
-185.114	800.000	-0.204	-0.829
-184.100	-64.566	-0.693	-0.279
-183.085	440.329	0.273	0.592
-182.071	47.460	-0.255	0.236
-181.056	800.000	0.108	-0.352
-180.042	-38.865	0.836	0.436
-179.027	149.402	0.365	-0.489
-178.012	-81.643	-0.286	0.093
-176.998	-123.325	0.504	0.080
-175.983	167.763	-0.386	-0.544
-174.969	207.688	-0.267	-0.413
-173.954	-127.861	-0.741	-0.106
-172.939	-26.469	0.567	-0.329
-171.925	227.019	-0.265	-0.427
-170.910	-65.948	-0.330	-0.131
-169.896	-91.660	0.551	-0.155
-168.881	-144.646	-0.911	-0.083
-167.866	800.000	0.360	1.434
-166.852	-200.000	-0.016	0.303
-165.837	-73.057	0.403	-0.146
-164.823	-200.000	-0.006	-0.643
-163.808	-200.000	0.011	0.515
-162.793	38.023	-0.127	0.111
-161.779	-68.218	-0.639	0.246
-160.764	-178.477	-0.218	-0.005
-159.750	-200.000	0.070	0.830
-158.735	-200.000	0.049	0.331
-157.720	607.939	0.113	0.279
-156.706	4.047	0.662	-0.479
-155.691	255.360	-0.206	-0.350
-154.677	800.000	-0.211	0.687
-153.662	0.392	-0.255	-0.180
-152.647	258.151	-0.192	0.327
-151.633	76.254	0.378	0.396
-150.618	-67.064	1.112	0.434
-149.604	28.657	0.383	0.321
-148.589	287.238	0.452	-0.808
-147.574	283.350	0.094	-0.166
-146.560	-200.000	-0.030	-0.265
-145.545	115.348	0.079	-0.096
-144.531	-4.920	0.404	0.276
-143.516	-200.000	0.153	-1.651
-142.502	-200.000	0.029	-0.382
-141.487	-107.399	0.560	0.122
-140.472	-91.335	0.318	0.090
-139.458	-38.793	-0.358	0.187
-138.443	159.431	0.340	-0.468
-137.429	-21.310	0.266	-0.161
-136.414	-132.865	-0.520	-0.066
-135.399	-103.368	-0.758	-0.177
-134.385	53.198	-0.244	0.231
-133.370	-114.249	-0.320	0.061
-132.356	-14.666	0.429	-0.273
-131.341	800.000	0.094	0.298
-130.326	390.499	0.125	0.255
-129.312	-44.405	0.167	0.083
-128.297	-53.772	0.666	0.300
-127.283	-200.000	-0.096	-0.493
-126.268	800.000	0.066	-0.218
-125.253	800.000	-0.140	-0.519
-124.239	13.231	-0.186	-0.142
-123.224	-139.985	0.289	-0.030
-122.210	-107.004	-0.624	-0.136
-121.195	135.691	0.975	-1.254
-120.180	-83.042	0.703	-0.224
-119.166	133.028	0.134	-0.171
-118.151	-200.000	-0.023	-0.432
-117.137	-89.731	-0.226	0.065
-116.122	-200.000	-0.017	0.154
-115.107	64.719	-0.787	-0.784
-114.093	-120.959	-0.433	0.072
-113.078	-22.816	0.122	-0.073
-112.064	-31.998	-0.331	0.183
-111.049	130.962	0.482	-0.611
-110.034	-137.730	0.749	-0.083
-109.020	7.213	-0.608	-0.448
-108.005	-0.443	0.742	-0.520
-106.991	-200.000	-0.135	-1.054
-105.976	231.019	0.365	-0.590
-104.962	-200.000	0.026	0.765
-103.947	-99.323	-0.290	0.072
-102.932	-30.213	0.185	-0.104
-101.918	401.861	0.295	-0.611
-100.903	521.831	-0.123	-0.285
-99.889	-146.525	0.905	-0.078
-98.874	653.712	-0.171	-0.434
-97.859	-200.000	0.121	0.793
-96.845	-148.402	-0.465	-0.038
-95.830	-13.183	-0.450	0.288
-94.816	800.000	0.084	-0.283
-93.801	-123.024	0.063	-0.010
-92.786	-54.489	0.266	0.119
-91.772	15.549	-0.624	0.484
-90.757	321.823	0.227	-0.426
-89.743	-104.233	0.199	-0.046
-88.728	-46.171	-0.681	-0.331
-87.713	17.102	0.483	0.378
-86.699	42.879	-0.318	-0.286
-85.684	-109.662	0.041	-0.009
-84.670	-64.530	-0.682	-0.273
-83.655	-59.485	0.894	0.379
-82.640	-200.000	-0.176	-0.947
-81.626	800.000	0.107	-0.375
-80.611	515.639	0.542	1.249
-79.597	-86.823	-0.968	0.292
-78.582	-118.252	-0.832	0.146
-77.567	417.358	-0.328	-0.690
-76.553	-115.402	0.785	-0.146
-75.538	-116.468	0.446	-0.081
-74.524	-39.858	0.130	-0.067
-73.509	97.335	-0.124	-0.140
-72.494	-99.445	0.166	-0.041
-71.480	-200.000	-0.039	0.703
-70.465	-57.174	-0.267	-0.116
-69.451	122.467	0.465	-0.573
-68.436	-9.367	-0.458	-0.301
-67.422	-97.848	-0.897	-0.229
-66.407	800.000	-0.212	-0.862
-65.392	-18.911	0.768	-0.471
-64.378	387.847	0.211	-0.431
-63.363	90.976	0.175	-0.193
-62.349	105.018	-0.097	0.113
-61.334	-15.301	-1.009	-0.636
-60.319	-200.000	0.168	0.756
-59.305	695.526	0.279	-0.721
-58.290	656.200	0.242	0.612
-57.276	-200.000	0.175	0.760
-56.261	-200.000	96.174	570.556
-55.246	646.247	1366.696	3440.374
-54.232	200.056	2536.690	3838.547
-53.217	118.890	2130.046	2594.090
-52.203	44.782	1598.246	1449.069
-51.188	36.865	1337.386	1165.131
-50.173	33.734	1296.137	1110.860
-49.159	57.132	1345.750	1293.313
-48.144	58.020	1362.852	1314.983
-47.130	36.921	1320.578	1150.639
-46.115	33.267	1303.283	1114.061
-45.100	33.188	1298.675	1109.614
-44.086	33.372	1295.186	1107.662
-43.071	33.034	1292.569	1103.411
-42.057	32.988	1291.809	1102.447
-41.042	33.263	1289.508	1102.041
-40.027	33.324	1287.147	1100.336
-39.013	33.239	1285.370	1098.278
-37.998	33.247	1285.141	1098.087
-36.984	33.208	1283.304	1096.250
-35.969	33.376	1280.938	1095.154
-34.954	33.322	1279.418	1093.502
-33.940	33.244	1278.263	1092.022
-32.925	33.283	1276.979	1091.104
-31.911	33.348	1275.007	1089.747
-30.896	33.429	1274.060	1089.362
-29.881	33.448	1273.017	1088.537
-28.867	33.428	1271.281	1086.897
-27.852	33.350	1270.047	1085.351
-26.838	33.783	1267.371	1085.496
-25.823	33.303	1267.813	1083.084
-24.809	33.177	1266.252	1080.990
-23.794	33.119	1264.510	1079.129
-22.779	33.701	1262.718	1080.870
-21.765	33.403	1261.553	1078.135
-20.750	33.372	1260.780	1077.256
-19.736	33.173	1260.348	1075.713
-18.721	33.190	1258.195	1073.927
-17.706	33.322	1257.138	1073.732
-16.692	33.391	1255.928	1073.045
-15.677	33.182	1255.945	1071.832
-14.663	33.427	1253.482	1071.077
-13.648	33.450	1252.874	1070.644
-12.633	33.236	1252.327	1068.923
-11.619	33.489	1250.300	1068.582
-10.604	33.140	1250.636	1066.857
-9.590	33.130	1249.381	1065.684
-8.575	33.192	1247.909	1064.735
-7.560	33.299	1247.469	1064.923
-6.546	33.248	1246.378	1063.660
-5.531	33.204	1245.197	1062.364
-4.517	33.181	1244.341	1061.462
-3.502	33.102	1244.589	1061.185
-2.487	33.122	1242.844	1059.769
-1.473	32.996	1239.169	1055.891
-0.458	31.506	1225.037	1035.566
0.556	28.831	1207.111	996.979
1.571	24.609	1212.938	978.632
2.586	23.986	1226.415	985.963
3.600	23.494	1216.432	975.150
4.615	17.214	1144.490	884.801
5.629	7.408	1067.946	777.683
6.644	3.156	1047.898	742.529
7.659	2.924	1045.744	739.820
8.673	2.645	1044.140	737.277
9.688	2.956	1041.741	737.008
10.702	3.202	1040.260	737.077
11.717	9.125	1050.482	772.830
12.731	19.024	1063.431	830.292
13.746	23.985	1070.142	859.488
14.761	25.198	1069.686	864.902
15.775	25.424	1068.685	865.100
16.790	24.855	1070.222	863.527
17.804	24.880	1068.951	862.545
18.819	25.119	1068.543	863.288
19.834	25.428	1067.515	863.870
20.848	25.634	1066.706	864.129
21.863	25.327	1065.832	861.870
22.877	25.125	1066.491	861.352
23.892	24.630	1065.960	858.471
24.907	24.879	1065.138	858.928
25.921	25.366	1062.884	859.368
26.936	24.993	1062.372	857.091
27.950	25.103	1060.308	855.878
28.965	24.872	1060.398	854.770
29.980	25.233	1057.904	854.407
30.994	25.083	1057.949	853.653
32.009	24.804	1057.391	851.796
33.023	25.501	1053.612	851.981
34.038	25.048	1053.847	849.952
35.053	25.149	1053.793	850.310
36.067	25.258	1052.603	849.792
37.082	25.457	1051.992	850.162
38.096	25.260	1051.345	848.634
39.111	25.476	1050.750	849.100
40.126	25.118	1048.343	845.392
41.140	24.516	1047.991	842.194
42.155	24.497	1048.276	842.260
43.169	24.469	1046.764	840.835
44.184	24.820	1045.145	841.113
45.199	24.870	1043.320	839.803
46.213	24.979	1043.058	840.033
47.228	25.229	1042.119	840.374
48.242	25.213	1041.848	840.004
49.257	25.066	1041.413	838.890
50.271	25.176	1041.480	839.385
51.286	25.522	1038.645	838.639
52.301	25.479	1037.978	837.828
53.315	25.288	1037.457	836.441
54.330	25.053	1036.590	834.574
55.344	25.313	1035.316	834.685
56.359	25.143	1035.057	833.612
57.374	24.801	1035.236	832.090
58.388	25.044	1033.529	831.772
59.403	25.142	1033.044	831.767
60.417	24.852	1032.521	829.924
61.432	25.006	1031.338	829.612
62.447	24.937	1031.350	829.231
63.461	24.804	1030.963	828.230
64.476	25.030	1029.090	827.696
65.490	24.778	1028.418	825.920
66.505	24.762	1027.989	825.427
67.520	24.831	1027.782	825.507
68.534	24.771	1025.864	823.617
69.549	24.212	1025.674	820.819
70.563	24.473	1023.711	820.374
71.578	24.340	1023.211	819.289
72.593	24.210	1021.989	817.642
73.607	24.177	1022.713	817.998
74.622	25.095	1020.884	820.667
75.636	24.395	1021.614	817.974
76.651	24.567	1019.674	817.137
77.666	24.465	1019.913	816.786
78.680	24.713	1018.591	816.789
79.695	24.738	1017.781	816.182
80.709	24.859	1017.127	816.136
81.724	25.026	1015.742	815.717
82.739	24.841	1016.197	815.164
83.753	25.397	1015.238	816.854
84.768	25.485	1015.353	817.272
85.782	25.407	1015.230	816.749
86.797	25.429	1013.595	815.458
87.812	25.503	1011.976	814.421
88.826	25.674	1011.417	814.672
89.841	25.714	1010.394	813.959
90.855	25.239	1011.389	812.535
91.870	25.397	1009.383	811.568
92.884	25.524	1007.619	810.650
93.899	25.607	1006.228	809.832
94.914	25.549	1005.712	809.086
95.928	25.322	1005.974	808.202
96.943	25.310	1003.832	806.356
97.957	25.108	1002.921	804.645
98.972	24.903	1003.009	803.724
99.987	24.871	1001.377	802.201
101.001	25.403	1001.115	804.303
102.016	25.648	998.635	803.337
103.030	25.564	998.190	802.530
104.045	25.126	997.734	800.138
105.060	25.221	996.761	799.712
106.074	25.083	996.762	799.027
107.089	25.196	996.826	799.511
108.103	25.174	995.164	798.009
109.118	24.848	994.121	795.655
110.133	25.165	992.856	795.977
111.147	24.644	991.740	792.700
112.162	24.757	990.427	792.085
113.176	24.712	991.055	792.318
114.191	24.495	991.358	791.529
115.206	24.234	988.671	788.155
116.220	24.612	988.045	789.259
117.235	24.962	986.539	789.529
118.249	24.845	986.254	788.714
119.264	24.825	985.257	787.760
120.279	24.805	984.736	787.188
121.293	24.579	984.271	785.752
122.308	24.665	983.347	785.320
123.322	24.717	981.436	783.954
124.337	24.584	980.832	782.819
125.352	24.134	979.654	779.839
126.366	24.409	977.543	779.291
127.381	25.065	977.844	782.329
128.395	25.268	976.843	782.344
129.410	25.098	977.639	782.168
130.424	25.244	976.617	781.920
131.439	25.111	975.621	780.470
132.454	25.180	974.339	779.677
133.468	25.223	972.633	778.432
134.483	25.442	972.687	779.355
135.497	25.391	971.833	778.381
136.512	25.358	970.939	777.452
137.527	25.465	969.921	777.029
138.541	25.365	969.589	776.265
139.556	25.610	968.945	776.738
140.570	25.339	968.698	775.303
141.585	25.828	966.712	775.751
142.600	25.881	966.436	775.689
143.614	25.938	965.365	775.006
144.629	25.728	964.935	773.687
145.643	25.433	963.636	771.314
146.658	25.451	962.275	770.233
147.673	25.324	961.449	768.960
148.687	25.190	960.272	767.377
149.702	25.471	958.882	767.400
150.716	25.539	958.710	767.482
151.731	25.345	958.483	766.405
152.746	25.724	956.749	766.563
153.760	25.427	957.035	765.460
154.775	25.767	955.598	765.689
155.789	25.695	955.578	765.302
156.804	25.467	955.092	763.873
157.819	25.753	953.662	763.876
158.833	26.006	953.022	764.368
159.848	25.915	952.227	763.278
160.862	25.741	951.178	761.632
161.877	25.870	949.753	760.969
162.892	25.732	949.514	760.129
163.906	25.542	948.224	758.228
164.921	25.549	947.091	757.285
165.935	25.651	947.193	757.727
166.950	25.873	945.686	757.391
167.964	25.490	945.267	755.378
168.979	25.564	943.107	753.893
169.994	25.517	942.896	753.462
171.008	25.752	942.333	753.931
172.023	25.848	941.029	753.222
173.037	25.550	941.699	752.443
174.052	25.547	940.095	751.084
175.067	25.847	939.277	751.613
176.081	25.550	938.634	749.795
177.096	25.436	938.199	748.908
178.110	25.415	936.535	747.426
179.125	25.230	935.770	745.978
180.140	25.144	935.716	745.513
181.154	25.360	935.337	746.043
182.169	25.508	936.301	747.361
183.183	25.495	935.424	746.542
184.198	26.056	934.397	747.979
185.213	25.417	933.851	744.830
186.227	25.699	933.198	745.410
187.242	26.199	931.799	746.293
188.256	26.120	931.482	745.647
189.271	26.098	930.507	744.712
190.286	26.047	928.308	742.675
191.300	24.844	929.109	738.288
192.315	24.361	927.115	734.650
193.329	24.332	927.333	734.641
194.344	25.242	926.977	738.037
195.359	25.285	927.684	738.711
196.373	25.732	926.660	739.668
197.388	25.633	926.447	739.025
198.402	26.025	925.833	740.079
199.417	25.936	924.691	738.735
200.432	25.627	924.632	737.359
201.446	25.856	923.386	737.237
202.461	25.888	922.592	736.670
203.475	24.997	921.088	731.762
204.490	24.910	919.191	729.840
205.504	24.860	921.142	731.119
206.519	25.663	919.632	733.129
207.534	25.761	919.482	733.341
208.548	25.917	919.643	734.040
209.563	25.573	918.474	731.645
210.577	25.989	916.713	731.868
211.592	26.200	917.503	733.287
212.607	26.396	916.303	733.057
213.621	25.948	916.325	731.196
214.636	25.911	915.552	730.364
215.650	25.766	915.479	729.652
216.665	26.262	913.623	730.117
217.680	26.047	913.575	729.145
218.694	25.675	912.380	726.624
219.709	25.524	911.661	725.378
220.723	26.075	911.378	727.309
221.738	25.788	911.070	725.843
222.753	25.840	909.949	725.093
223.767	25.986	910.128	725.761
224.782	26.101	909.800	725.896
225.796	25.764	909.745	724.435
226.811	25.467	907.312	721.240
227.826	25.009	906.262	718.506
228.840	25.271	905.975	719.263
229.855	25.411	904.220	718.366
230.869	25.206	903.984	717.299
231.884	25.460	903.682	718.009
232.899	25.582	904.052	718.725
233.913	25.893	903.275	719.288
234.928	25.787	901.995	717.780
235.942	25.634	902.535	717.537
236.957	25.353	901.670	715.667
237.972	25.529	900.601	715.454
238.986	25.331	900.729	714.705
240.001	25.672	898.928	714.567
241.015	25.837	898.322	714.679
242.030	26.065	898.458	715.628
243.045	26.097	897.235	714.715
244.059	25.898	897.924	714.414
245.074	25.557	897.048	712.303
246.088	25.367	896.100	710.735
247.103	26.084	895.802	713.269
248.117	26.489	895.664	714.697
249.132	26.830	895.486	715.839
250.147	26.506	895.193	714.263
251.161	26.963	894.108	715.134
252.176	26.792	893.385	713.820
253.190	26.864	892.769	713.547
254.205	26.900	893.149	713.932
255.220	26.695	892.750	712.742
256.234	26.624	891.705	711.566
257.249	26.598	891.042	710.871
258.263	26.467	890.348	709.740
259.278	26.677	889.016	709.439
260.293	26.878	888.151	709.471
261.307	26.680	888.270	708.729
262.322	26.408	887.879	707.290
263.336	25.829	886.473	703.847
264.351	25.136	884.173	699.256
265.366	25.267	884.223	699.744
266.380	26.135	884.681	703.432
267.395	26.437	884.003	704.004
268.409	26.524	882.540	703.116
269.424	26.460	882.571	702.829
270.439	26.412	881.934	702.075
271.453	26.864	881.660	703.547
272.468	26.970	881.029	703.390
273.482	26.786	881.233	702.780
274.497	26.617	879.709	700.848
275.512	26.535	878.617	699.600
276.526	26.532	879.893	700.542
277.541	26.337	879.718	699.584
278.555	26.566	877.946	698.998
279.570	26.499	878.108	698.807
280.585	26.566	876.721	697.901
281.599	26.748	876.003	697.969
282.614	26.002	875.104	694.318
283.628	26.259	873.700	694.131
284.643	26.283	874.218	694.573
285.657	26.063	872.971	692.675
286.672	26.023	871.613	691.383
287.687	26.110	872.670	692.497
288.701	26.205	872.112	692.356
289.716	25.990	871.159	690.713
290.730	26.105	870.680	690.712
291.745	25.988	869.143	688.985
292.760	26.150	868.776	689.253
293.774	27.337	868.796	693.736
294.789	27.136	868.429	692.615
295.803	26.910	868.453	691.710
296.818	27.118	866.923	691.224
297.833	26.909	866.112	689.723
298.847	26.847	865.329	688.803
299.862	26.811	865.721	688.917
300.876	27.038	866.259	690.145
301.891	27.179	864.261	689.029
302.906	26.822	864.189	687.557
303.920	27.383	863.163	688.804
304.935	27.095	864.307	688.563
305.949	26.825	862.568	686.096
306.964	26.966	861.850	685.998
307.979	26.941	861.425	685.501
308.993	26.811	862.405	685.731
310.008	27.085	861.199	685.744
311.022	27.180	859.932	685.034
312.037	26.992	858.889	683.435
313.052	26.625	858.241	681.479
314.066	25.928	856.968	677.786
315.081	25.446	856.995	675.935
316.095	26.435	856.617	679.294
317.110	26.787	855.232	679.455
318.125	26.148	854.977	676.799
319.139	25.112	853.802	671.928
320.154	25.477	852.376	672.111
321.168	26.060	853.323	674.981
322.183	26.200	853.719	675.758
323.197	26.305	853.795	676.152
324.212	26.979	852.229	677.367
325.227	26.781	851.645	676.106
326.241	26.672	851.427	675.465
327.256	26.512	850.251	673.875
328.270	26.369	849.845	672.962
329.285	26.480	848.916	672.579
330.300	26.090	848.453	670.706
331.314	26.542	847.332	671.436
332.329	27.002	847.265	673.028
333.343	27.004	847.298	673.005
334.358	27.050	847.560	673.324
335.373	26.830	846.744	671.802
336.387	27.109	846.305	672.425
337.402	27.088	847.046	672.878
338.416	27.023	846.602	672.222
339.431	27.459	845.728	673.083
340.446	27.745	844.600	673.180
341.460	27.491	845.144	672.615
342.475	27.237	845.566	671.954
343.489	27.626	843.538	671.717
344.504	27.411	843.759	671.043
345.519	27.881	843.307	672.351
346.533	27.881	842.419	671.584
347.548	27.515	842.611	670.332
348.562	27.693	841.914	670.374
349.577	27.072	842.080	668.164
350.592	27.540	840.792	668.801
351.606	27.692	839.120	667.967
352.621	27.260	837.665	665.170
353.635	27.329	838.051	665.669
354.650	26.774	836.623	662.449
355.665	26.216	835.477	659.445
356.679	26.469	835.810	660.576
357.694	26.936	835.157	661.703
358.708	26.880	834.532	660.946
359.723	26.702	835.060	660.656
360.738	26.934	834.462	660.969
361.752	27.102	833.145	660.481
362.767	27.083	832.917	660.173
363.781	27.517	832.880	661.662
364.796	27.797	831.867	661.813
365.810	27.460	832.372	660.931
366.825	27.942	831.057	661.576
367.840	28.021	829.584	660.631
368.854	27.303	829.558	657.957
369.869	27.387	829.491	658.149
370.883	27.306	828.424	656.950
371.898	27.182	829.446	657.254
372.913	27.231	829.314	657.269
373.927	27.456	828.141	657.094
374.942	27.332	827.466	656.051
375.956	27.556	826.805	656.276
376.971	27.446	827.114	656.068
377.986	27.540	826.634	655.966
379.000	27.816	825.287	655.832
380.015	27.842	824.674	655.382
381.029	27.641	823.938	654.016
382.044	27.769	824.928	655.205
383.059	27.590	824.181	653.910
384.073	27.463	823.792	653.090
385.088	27.614	821.858	652.037
386.102	27.269	820.756	649.875
387.117	27.335	820.041	649.485
388.132	27.162	819.870	648.676
389.146	26.829	819.710	647.303
390.161	27.447	819.058	648.935
391.175	27.917	818.220	649.885
392.190	27.501	817.184	647.526
393.205	26.173	816.607	642.293
394.219	25.075	814.765	636.888
395.234	24.708	814.814	635.563
396.248	26.456	815.272	642.076
397.263	27.171	815.511	644.744
398.278	26.999	815.273	643.891
399.292	26.924	813.980	642.545
400.307	26.224	814.384	640.326
401.321	26.842	812.736	641.161
402.336	26.908	813.751	642.137
403.350	27.771	813.318	644.790
404.365	27.934	812.621	644.757
405.380	28.245	812.420	645.635
406.394	28.067	811.842	644.492
407.409	28.451	811.392	645.431
408.423	27.662	812.618	643.564
409.438	28.359	811.381	644.984
410.453	28.246	810.353	643.713
411.467	27.854	810.382	642.298
412.482	28.199	808.867	642.254
413.496	27.890	808.888	641.129
414.511	28.147	808.676	641.806
415.526	28.265	808.486	642.013
416.540	27.795	808.074	639.981
417.555	27.769	807.943	639.730
418.569	27.905	806.850	639.284
419.584	28.027	806.087	639.047
420.599	27.848	806.174	638.433
421.613	159.324	1371.278	1792.400
422.628	138.456	1453.602	1792.477
