DTS Sentinel unit serial number:	SN413079Multiplexer serial number:	ORYXHardware model number:	OX4-SRSoftware version number:	ORYX F/W v4.00 Oryx Data Collector v3.7.2.0data status	okinstallation	princeton_trtdifferential loss correction	single-endedforward channel	channel 1reverse channel	N/Adate	2019/09/19time	05:50:35forward acquisition time	60.00reverse acquisition time	0.00gamma	496.2192k internal	0.2343k external	0.2343temperature offset calibration	1.0017default loss term (dB/km)	0.3790temperature slope calibration	1.0000multiplexer offset coefficient	1.0000multiplexer slope coefficient	1.0000fibre end	0.00T internal ref (°C)	19.25T ext. ref 1 (°C)	0.58T ext. ref 2 (°C)	12.77length (m)	temperature (°C)	Stokes	anti-Stokes-747.200	36.065	-0.120	-0.106
-746.185	-155.170	0.094	-0.006
-745.171	1.349	0.332	0.239
-744.156	-103.183	-0.315	0.075
-743.142	-44.722	0.061	-0.031
-742.127	-200.000	0.016	0.278
-741.112	-67.654	0.150	-0.059
-740.098	643.173	-0.082	-0.209
-739.083	32.832	0.188	0.163
-738.069	138.661	0.189	0.249
-737.054	800.000	0.068	0.287
-736.039	-200.000	0.024	-0.353
-735.025	496.442	-0.010	0.022
-734.010	-200.000	0.046	-0.349
-732.996	-58.214	-0.287	0.125
-731.981	247.329	0.150	0.253
-730.966	-76.649	-0.240	0.084
-729.952	-36.697	0.110	0.059
-728.937	-128.506	0.098	0.014
-727.923	-31.168	-0.034	0.019
-726.908	588.288	-0.077	-0.190
-725.894	-200.000	-0.006	-0.158
-724.879	-82.000	-0.135	-0.044
-723.864	189.666	0.143	0.215
-722.850	-200.000	0.022	0.368
-721.835	-110.355	0.250	-0.052
-720.821	207.681	0.175	0.274
-719.806	-200.000	-0.015	-0.253
-718.791	-34.503	0.049	-0.027
-717.777	-141.441	-0.362	0.037
-716.762	-163.590	-0.259	-0.012
-715.748	565.814	-0.105	0.254
-714.733	179.815	0.076	-0.111
-713.718	-108.828	-0.521	-0.112
-712.704	96.651	0.208	0.238
-711.689	37.221	-0.160	-0.142
-710.675	-103.702	0.250	-0.059
-709.660	650.096	0.057	0.146
-708.645	60.275	-0.330	0.326
-707.631	-85.488	-0.173	0.054
-706.616	73.491	-0.266	0.278
-705.602	146.685	-0.096	0.129
-704.587	44.595	0.097	-0.089
-703.572	70.879	-0.262	-0.272
-702.558	2.949	0.132	-0.095
-701.543	-134.857	-0.125	0.015
-700.529	-56.238	-0.134	0.059
-699.514	398.285	0.144	-0.301
-698.499	800.000	0.066	0.194
-697.485	-200.000	0.091	0.418
-696.470	-75.313	0.261	0.093
-695.456	-77.618	-0.282	-0.098
-694.441	217.965	-0.082	0.131
-693.426	422.409	0.061	0.130
-692.412	15.459	-0.095	-0.074
-691.397	-127.155	0.103	-0.015
-690.383	0.101	0.196	-0.140
-689.368	48.305	-0.259	-0.242
-688.354	170.481	-0.098	0.140
-687.339	800.000	-0.076	-0.249
-686.324	55.282	0.100	-0.097
-685.310	-156.685	-0.366	0.023
-684.295	800.000	0.071	0.274
-683.281	-113.792	0.234	-0.045
-682.266	49.661	0.094	0.088
-681.251	-200.000	0.035	-0.382
-680.237	755.277	0.059	0.160
-679.222	736.223	-0.086	-0.230
-678.208	-183.562	0.334	-0.006
-677.193	-129.670	-0.426	0.059
-676.178	230.805	-0.059	-0.096
-675.164	13.936	0.161	0.125
-674.149	-60.375	-0.138	-0.059
-673.135	-78.331	0.352	0.121
-672.120	-200.000	0.039	-0.251
-671.105	577.493	-0.139	-0.339
-670.091	-4.802	-0.230	0.158
-669.076	309.847	-0.087	-0.162
-668.062	-26.962	0.125	0.073
-667.047	800.000	0.066	0.229
-666.032	10.224	0.295	0.224
-665.018	-70.260	0.379	-0.144
-664.003	-106.096	0.309	0.069
-662.989	49.933	0.151	0.142
-661.974	-9.096	-0.088	0.059
-660.959	102.899	-0.221	-0.259
-659.945	-142.659	-0.217	-0.021
-658.930	-74.887	-0.209	0.075
-657.916	-85.580	-0.248	-0.077
-656.901	202.639	-0.038	-0.059
-655.886	-75.965	0.124	0.044
-654.872	-74.303	-0.233	-0.084
-653.857	800.000	0.057	-0.233
-652.843	-200.000	-0.019	-0.373
-651.828	219.919	-0.072	0.115
-650.814	-200.000	-0.016	-0.142
-649.799	800.000	-0.057	0.169
-648.784	-10.916	0.164	-0.108
-647.770	-135.928	0.231	-0.027
-646.755	-151.916	-0.328	0.024
-645.741	-19.932	0.310	-0.191
-644.726	355.171	0.125	0.248
-643.711	-200.000	0.096	-0.431
-642.697	-6.120	-0.177	-0.120
-641.682	-133.769	-0.273	-0.034
-640.668	-130.896	0.296	0.040
-639.653	-60.956	0.143	0.060
-638.638	38.356	-0.306	-0.272
-637.624	29.148	-0.342	0.289
-636.609	-200.000	-0.023	-0.111
-635.595	17.434	-0.087	-0.069
-634.580	217.067	0.071	0.113
-633.565	-20.974	0.061	-0.037
-632.551	-27.615	0.384	0.222
-631.536	-132.352	0.388	0.050
-630.522	-155.799	0.053	-0.003
-629.507	-74.296	0.296	-0.106
-628.492	-200.000	0.002	-0.301
-627.478	58.897	-0.043	-0.042
-626.463	800.000	-0.066	0.193
-625.449	-200.000	-0.026	0.256
-624.434	87.762	-0.059	-0.065
-623.419	-119.396	-0.082	-0.014
-622.405	-146.821	-0.123	0.011
-621.390	13.502	0.032	-0.025
-620.376	800.000	-0.136	-0.441
-619.361	29.729	-0.080	0.068
-618.346	467.575	-0.176	-0.394
-617.332	185.869	0.125	0.185
-616.317	49.391	0.226	0.212
-615.303	-35.659	-0.215	-0.116
-614.288	-200.000	0.017	0.230
-613.273	244.907	0.103	-0.173
-612.259	134.872	-0.239	0.309
-611.244	53.494	0.056	-0.054
-610.230	-60.587	0.220	0.093
-609.215	573.546	0.079	0.193
-608.201	132.498	-0.084	-0.108
-607.186	-58.563	-0.050	-0.022
-606.171	-98.477	-0.059	-0.015
-605.157	4.937	0.269	-0.197
-604.142	-9.948	-0.385	-0.255
-603.128	-60.279	-0.252	-0.107
-602.113	-81.714	0.287	0.094
-601.098	-200.000	-0.055	0.289
-600.084	-56.461	0.129	-0.057
-599.069	154.157	-0.139	0.189
-598.055	240.231	-0.118	-0.195
-597.040	-113.519	-0.087	-0.017
-596.025	-68.502	-0.265	0.102
-595.011	-4.126	0.064	-0.044
-593.996	-74.172	0.175	0.063
-592.982	800.000	0.039	-0.164
-591.967	396.945	-0.127	0.264
-590.952	-200.000	-0.021	0.102
-589.938	800.000	0.038	-0.121
-588.923	-33.280	0.437	0.241
-587.909	-112.642	-0.131	0.026
-586.894	-56.619	0.157	0.069
-585.879	30.397	0.358	-0.304
-584.865	325.701	-0.113	-0.215
-583.850	-200.000	0.003	-0.062
-582.836	717.735	-0.088	0.233
-581.821	-33.343	-0.103	-0.057
-580.806	-70.353	0.296	-0.112
-579.792	-121.564	-0.032	0.005
-578.777	203.584	-0.089	0.137
-577.763	130.110	0.120	-0.153
-576.748	-20.021	-0.166	-0.102
-575.733	-152.706	-0.416	0.029
-574.719	56.775	0.250	-0.242
-573.704	360.190	0.155	0.308
-572.690	-120.308	0.304	-0.052
-571.675	-50.067	-0.205	0.096
-570.661	-107.393	0.188	0.041
-569.646	800.000	-0.075	-0.290
-568.631	31.116	-0.194	-0.165
-567.617	-106.363	-0.295	0.066
-566.602	129.307	-0.134	-0.171
-565.588	723.158	-0.059	-0.156
-564.573	-169.460	-0.213	0.008
-563.558	-200.000	0.011	0.071
-562.544	-109.335	-0.186	-0.039
-561.529	-200.000	0.009	-0.315
-560.515	188.220	0.126	0.188
-559.500	306.132	0.173	-0.319
-558.485	-148.135	0.144	-0.012
-557.471	-157.455	-0.133	-0.008
-556.456	-84.932	0.170	0.053
-555.442	169.365	-0.083	0.118
-554.427	341.610	0.140	0.271
-553.412	61.994	-0.198	-0.196
-552.398	-69.855	-0.085	0.032
-551.383	618.344	-0.104	-0.260
-550.369	-7.587	-0.166	0.111
-549.354	279.444	-0.037	0.066
-548.339	100.377	-0.155	-0.179
-547.325	708.139	0.055	0.144
-546.310	-117.889	0.220	0.039
-545.296	-19.532	-0.551	0.339
-544.281	-55.464	0.186	0.083
-543.266	800.000	-0.100	-0.359
-542.252	-141.759	0.246	0.025
-541.237	-77.466	0.257	0.088
-540.223	273.508	0.083	0.146
-539.208	-66.984	-0.175	0.069
-538.193	-34.486	0.094	-0.051
-537.179	-48.104	-0.245	-0.118
-536.164	-200.000	-0.014	0.382
-535.150	307.453	0.111	-0.205
-534.135	85.047	-0.067	0.072
-533.121	-200.000	-0.011	0.059
-532.106	-146.047	0.131	-0.012
-531.091	-100.099	-0.241	-0.060
-530.077	615.341	0.115	0.286
-529.062	-200.000	0.005	0.041
-528.048	-75.031	0.140	0.050
-527.033	-144.664	-0.126	-0.012
-526.018	344.404	0.031	0.060
-525.004	-97.339	-0.315	0.081
-523.989	164.244	-0.163	0.228
-522.975	-2.339	-0.228	0.159
-521.960	800.000	0.078	0.312
-520.945	81.746	-0.144	0.155
-519.931	-200.000	-0.022	-0.103
-518.916	-103.370	-0.066	0.015
-517.902	-200.000	0.157	0.000
-516.887	-198.299	0.379	-0.002
-515.872	62.510	0.103	-0.102
-514.858	66.301	-0.080	0.080
-513.843	-80.387	0.139	-0.046
-512.829	-63.675	0.141	0.057
-511.814	159.593	0.127	0.175
-510.799	328.655	-0.108	-0.206
-509.785	411.158	-0.172	-0.361
-508.770	-104.398	-0.209	-0.048
-507.756	119.703	-0.109	0.134
-506.741	-200.000	-0.002	-0.082
-505.726	507.978	0.065	0.149
-504.712	-103.331	0.322	0.075
-503.697	-31.042	0.409	-0.229
-502.683	126.820	-0.082	-0.103
-501.668	0.475	-0.296	-0.210
-500.653	-200.000	0.202	0.001
-499.639	-200.000	-0.013	-0.137
-498.624	123.669	0.140	0.175
-497.610	-120.272	-0.152	0.026
-496.595	-121.767	-0.149	0.024
-495.581	-54.457	0.137	0.062
-494.566	-34.653	-0.343	-0.186
-493.551	-200.000	0.007	-0.105
-492.537	800.000	0.118	-0.364
-491.522	-200.000	0.016	-0.121
-490.508	112.461	0.093	-0.111
-489.493	-200.000	-0.009	0.396
-488.478	-200.000	0.004	0.212
-487.464	-89.108	-0.447	-0.131
-486.449	-27.318	0.052	0.030
-485.435	265.681	0.047	-0.081
-484.420	800.000	0.044	0.165
-483.405	-43.849	-0.068	-0.034
-482.391	-10.728	0.335	-0.219
-481.376	-23.531	-0.194	0.115
-480.362	-106.844	0.144	0.032
-479.347	-42.651	-0.185	-0.093
-478.332	-116.586	-0.134	0.025
-477.318	10.847	-0.127	-0.096
-476.303	187.834	0.197	0.292
-475.289	-200.000	0.034	0.336
-474.274	340.499	0.071	0.137
-473.259	-52.322	0.229	0.105
-472.245	218.151	-0.088	-0.139
-471.230	-200.000	-0.000	-0.009
-470.216	-121.494	0.377	0.062
-469.201	64.917	-0.220	-0.220
-468.186	-76.919	0.124	0.043
-467.172	-109.386	0.177	-0.037
-466.157	84.062	-0.015	0.016
-465.143	-147.846	-0.448	-0.037
-464.128	-113.174	-0.130	0.025
-463.113	-200.000	0.062	-0.330
-462.099	-82.008	0.379	0.123
-461.084	-43.841	0.337	-0.168
-460.070	49.760	-0.212	-0.198
-459.055	-29.362	-0.169	0.096
-458.040	-40.660	-0.107	-0.055
-457.026	437.204	-0.102	-0.219
-456.011	800.000	-0.081	-0.237
-454.997	113.392	-0.159	-0.191
-453.982	-52.536	0.192	-0.088
-452.968	185.796	-0.108	0.158
-451.953	87.669	-0.129	-0.141
-450.938	-142.257	0.565	-0.055
-449.924	173.178	-0.183	0.261
-448.909	-200.000	0.000	-0.193
-447.895	-136.191	0.325	0.038
-446.880	548.956	-0.067	0.160
-445.865	-200.000	0.044	0.244
-444.851	424.907	-0.094	-0.201
-443.836	57.177	-0.229	-0.221
-442.822	800.000	0.026	-0.076
-441.807	101.582	-0.085	-0.098
-440.792	-171.420	0.156	-0.005
-439.778	-200.000	-0.032	0.179
-438.763	800.000	0.081	-0.283
-437.749	333.035	-0.097	-0.185
-436.734	-200.000	0.001	-0.082
-435.719	46.905	0.086	0.079
-434.705	-123.779	-0.121	-0.019
-433.690	800.000	0.130	0.391
-432.676	507.503	-0.126	-0.290
-431.661	-200.000	0.002	-0.241
-430.646	-34.945	0.355	0.192
-429.632	-96.444	-0.158	-0.041
-428.617	-139.546	0.041	0.004
-427.603	-128.533	-0.185	-0.026
-426.588	-200.000	-0.018	-0.201
-425.573	29.505	0.139	0.117
-424.559	-1.167	0.248	-0.174
-423.544	-94.117	-0.068	0.018
-422.530	-37.521	0.133	0.070
-421.515	-69.429	-0.080	-0.030
-420.500	-200.000	0.004	0.123
-419.486	110.543	0.049	0.058
-418.471	21.519	-0.321	-0.258
-417.457	-29.327	0.171	-0.097
-416.442	42.956	0.325	0.293
-415.428	32.350	-0.202	-0.172
-414.413	-165.425	-0.201	-0.009
-413.398	-114.938	0.260	0.049
-412.384	-200.000	-0.041	-0.194
-411.369	-200.000	-0.040	0.183
-410.355	-87.648	0.152	0.045
-409.340	-52.056	0.152	0.070
-408.325	35.840	0.120	-0.104
-407.311	325.446	0.045	-0.085
-406.296	-52.263	0.007	0.003
-405.282	800.000	0.038	-0.114
-404.267	800.000	-0.098	-0.308
-403.252	-105.966	0.327	-0.073
-402.238	-65.438	-0.157	-0.062
-401.223	70.059	0.146	0.149
-400.209	-44.629	-0.265	-0.131
-399.194	61.510	0.122	-0.120
-398.179	-200.000	-0.004	0.119
-397.165	-4.744	-0.439	-0.299
-396.150	-4.406	-0.416	-0.284
-395.136	-43.525	-0.074	0.037
-394.121	-63.008	0.060	-0.024
-393.106	-153.887	-0.153	-0.010
-392.092	56.947	0.325	0.312
-391.077	29.050	-0.401	-0.336
-390.063	120.803	-0.111	-0.137
-389.048	115.960	-0.270	0.326
-388.033	365.111	0.049	0.097
-387.019	-17.469	-0.216	0.134
-386.004	199.290	-0.199	-0.301
-384.990	57.571	-0.016	0.015
-383.975	322.835	-0.121	0.227
-382.960	-200.000	-0.007	0.101
-381.946	-200.000	0.003	0.099
-380.931	-131.032	-0.294	0.039
-379.917	800.000	-0.029	-0.101
-378.902	-117.475	0.113	-0.020
-377.888	416.714	-0.120	0.253
-376.873	196.805	-0.117	-0.176
-375.858	-82.624	-0.093	-0.030
-374.844	-200.000	0.008	0.120
-373.829	482.872	0.064	0.143
-372.815	-109.859	0.098	-0.020
-371.800	-126.732	-0.400	-0.058
-370.785	-116.224	-0.351	-0.064
-369.771	38.558	0.099	-0.087
-368.756	-60.798	0.221	0.092
-367.742	-75.629	-0.220	-0.077
-366.727	79.267	-0.076	0.080
-365.712	-91.807	0.163	0.046
-364.698	-200.000	-0.019	-0.163
-363.683	-27.084	0.327	-0.188
-362.669	-18.622	-0.295	0.182
-361.654	-104.120	0.129	0.030
-360.639	-72.014	0.247	0.090
-359.625	800.000	0.055	0.237
-358.610	-95.260	0.234	0.062
-357.596	-200.000	-0.039	0.455
-356.581	475.309	-0.071	0.158
-355.566	-58.842	-0.199	-0.085
-354.552	-17.100	-0.216	0.134
-353.537	20.557	-0.145	-0.116
-352.523	800.000	0.058	0.208
-351.508	100.434	-0.233	0.266
-350.493	-75.604	0.142	0.050
-349.479	-157.619	-0.226	-0.013
-348.464	-200.000	0.025	-0.201
-347.450	-51.574	-0.132	0.061
-346.435	-55.169	0.297	0.131
-345.420	800.000	-0.078	-0.320
-344.406	166.241	0.033	-0.046
-343.391	81.633	-0.207	0.221
-342.377	-139.863	-0.195	0.020
-341.362	-165.206	0.309	-0.013
-340.348	-142.265	-0.079	-0.008
-339.333	-150.313	-0.180	0.014
-338.318	-77.362	-0.406	-0.139
-337.304	-73.297	-0.128	-0.046
-336.289	-156.877	-0.208	-0.013
-335.275	424.907	-0.101	0.214
-334.260	146.789	0.060	0.080
-333.245	-200.000	-0.215	-0.001
-332.231	-200.000	0.005	-0.135
-331.216	-71.484	-0.374	-0.138
-330.202	132.633	0.134	-0.170
-329.187	-148.322	-0.052	0.004
-328.172	-62.395	0.240	-0.098
-327.158	195.726	-0.061	0.091
-326.143	-86.641	-0.377	0.114
-325.129	-32.017	0.300	0.165
-324.114	-32.880	0.301	-0.165
-323.099	124.108	-0.116	0.144
-322.085	-125.596	0.063	-0.009
-321.070	-60.482	0.023	-0.010
-320.056	-116.320	-0.226	0.041
-319.041	-47.106	0.227	0.109
-318.026	18.509	0.080	-0.063
-317.012	-64.780	-0.321	-0.128
-315.997	-200.000	0.025	-0.280
-314.983	447.191	0.206	-0.445
-313.968	-116.807	0.022	0.004
-312.953	594.348	-0.045	-0.110
-311.939	403.912	-0.059	0.123
-310.924	-76.498	-0.128	-0.044
-309.910	800.000	0.044	0.161
-308.895	-52.023	0.153	-0.070
-307.880	800.000	-0.065	0.187
-306.866	246.134	-0.169	-0.280
-305.851	130.113	-0.336	0.423
-304.837	-110.431	-0.186	0.038
-303.822	-15.020	0.155	0.098
-302.807	-124.414	-0.217	0.033
-301.793	63.692	0.109	0.108
-300.778	225.866	0.048	0.077
-299.764	-200.000	-0.007	-0.067
-298.749	-2.809	0.231	0.159
-297.735	48.150	-0.136	-0.126
-296.720	379.397	-0.111	0.223
-295.705	113.061	-0.115	0.137
-294.691	100.812	0.062	-0.071
-293.676	-95.025	0.097	0.026
-292.662	76.205	-0.233	-0.243
-291.647	128.775	-0.292	-0.367
-290.632	-87.290	0.298	0.089
-289.618	-121.885	0.157	-0.025
-288.603	-200.000	-0.017	0.154
-287.589	1.862	0.260	0.184
-286.574	-200.000	0.008	-0.229
-285.559	-51.206	-0.150	0.069
-284.545	453.863	-0.042	-0.091
-283.530	172.070	-0.146	0.207
-282.516	86.665	0.201	-0.218
-281.501	800.000	-0.083	-0.353
-280.486	146.743	0.139	-0.184
-279.472	800.000	-0.097	0.266
-278.457	72.461	0.176	0.181
-277.443	-200.000	-0.016	0.088
-276.428	-82.143	0.204	-0.066
-275.413	-125.228	0.142	-0.021
-274.399	28.348	-0.142	-0.118
-273.384	96.184	0.179	-0.202
-272.370	-200.000	0.004	-0.037
-271.355	-118.683	0.118	-0.020
-270.340	-64.813	-0.188	-0.075
-269.326	-200.000	0.039	0.187
-268.311	-84.822	0.218	0.067
-267.297	-190.343	-0.119	-0.001
-266.282	424.849	-0.022	0.048
-265.267	125.744	0.029	-0.036
-264.253	-200.000	-0.035	-0.177
-263.238	-36.944	0.231	-0.121
-262.224	800.000	0.076	-0.306
-261.209	-200.000	0.069	-0.398
-260.195	-200.000	-0.115	-0.000
-259.180	-97.921	0.360	-0.091
-258.165	73.120	-0.076	0.078
-257.151	-200.000	-0.016	-0.172
-256.136	-75.184	-0.307	-0.108
-255.122	-129.812	0.269	-0.036
-254.107	16.753	-0.132	-0.102
-253.092	-36.493	0.110	0.058
-252.078	93.530	0.076	0.085
-251.063	-71.457	0.305	0.112
-250.049	-92.070	0.213	0.059
-249.034	-80.413	-0.163	-0.053
-248.019	-51.682	0.192	-0.088
-247.005	800.000	0.072	0.253
-245.990	40.117	0.233	0.206
-244.976	-200.000	-0.002	-0.033
-243.961	-200.000	-0.007	-0.072
-242.946	-110.277	0.096	-0.020
-241.932	-200.000	-0.002	0.262
-240.917	48.622	0.213	0.196
-239.903	800.000	0.078	0.329
-238.888	-11.736	-0.215	-0.138
-237.873	156.002	-0.077	0.104
-236.859	-14.906	0.079	-0.049
-235.844	457.516	-0.056	0.122
-234.830	3.290	-0.132	0.095
-233.815	-163.404	0.281	-0.013
-232.800	248.234	0.067	-0.112
-231.786	140.687	-0.162	-0.210
-230.771	77.283	-0.244	-0.255
-229.757	-30.111	0.218	-0.122
-228.742	135.210	0.258	0.328
-227.727	800.000	-0.071	0.238
-226.713	-1.509	0.366	0.253
-225.698	-200.000	-0.019	0.166
-224.684	40.972	0.224	0.199
-223.669	144.341	0.084	0.110
-222.655	-166.815	0.383	0.015
-221.640	87.364	-0.053	-0.057
-220.625	-8.463	0.101	-0.066
-219.611	21.283	-0.188	0.150
-218.596	282.512	0.148	0.261
-217.582	-162.782	0.395	-0.019
-216.567	-200.000	-0.011	-0.578
-215.552	-51.873	-0.204	0.093
-214.538	800.000	-0.084	0.276
-213.523	129.223	0.121	0.152
-212.509	575.498	-0.099	0.237
-211.494	438.772	0.134	0.286
-210.479	-3.621	0.201	-0.137
-209.465	-92.447	-0.134	-0.037
-208.450	460.298	0.105	-0.228
-207.436	155.643	0.195	0.263
-206.421	46.531	0.269	-0.244
-205.406	40.850	-0.055	-0.049
-204.392	86.393	-0.030	0.032
-203.377	-150.750	-0.417	0.031
-202.363	-139.528	0.317	-0.033
-201.348	-14.379	0.247	0.156
-200.333	-153.855	-0.202	0.014
-199.319	-178.753	-0.243	-0.005
-198.304	-34.963	0.283	0.152
-197.290	-93.778	0.168	0.045
-196.275	101.030	-0.147	-0.167
-195.260	112.470	-0.181	-0.214
-194.246	-200.000	-0.038	-0.298
-193.231	64.901	0.142	0.141
-192.217	-200.000	-0.018	0.202
-191.202	-87.723	0.234	0.069
-190.187	-200.000	0.141	0.649
-189.173	-83.572	0.048	0.015
-188.158	-48.048	-0.150	0.071
-187.144	-2.433	-0.236	0.162
-186.129	-29.702	-0.397	0.222
-185.114	-14.506	0.120	-0.075
-184.100	-70.202	0.158	-0.059
-183.085	227.379	-0.206	-0.328
-182.071	-130.883	-0.110	0.014
-181.056	59.478	-0.321	-0.310
-180.042	-27.802	0.233	-0.132
-179.027	-148.881	0.209	0.017
-178.012	167.826	0.061	0.085
-176.998	118.691	0.098	0.119
-175.983	-169.204	0.263	0.010
-174.969	-200.000	0.051	0.237
-173.954	-27.681	-0.228	-0.130
-172.939	416.639	0.121	0.253
-171.925	-200.000	0.091	0.441
-170.910	157.423	-0.101	0.136
-169.896	-12.270	0.303	0.194
-168.881	-48.357	-0.226	0.106
-167.866	800.000	-0.037	-0.122
-166.852	40.749	0.211	-0.186
-165.837	-63.095	-0.185	-0.075
-164.823	800.000	-0.106	0.343
-163.808	-126.460	0.374	-0.054
-162.793	-200.000	0.028	-0.387
-161.779	-159.732	-0.235	0.013
-160.764	259.396	0.145	-0.244
-159.750	-200.000	0.042	0.255
-158.735	800.000	0.039	0.159
-157.720	-61.000	-0.531	0.219
-156.706	110.139	-0.191	-0.225
-155.691	-200.000	0.086	-0.500
-154.677	1.782	-0.080	0.056
-153.662	-18.694	0.429	0.262
-152.647	-142.236	-0.151	0.015
-151.633	18.633	0.137	-0.108
-150.618	-127.443	0.348	-0.050
-149.604	-108.663	-0.314	-0.066
-148.589	13.397	-0.401	0.304
-147.574	-200.000	-0.054	0.266
-146.560	157.155	0.015	-0.020
-145.545	449.049	-0.209	0.450
-144.531	800.000	0.052	0.142
-143.516	119.509	0.210	0.254
-142.502	-146.036	-0.147	-0.013
-141.487	84.750	-0.067	0.072
-140.472	-129.464	0.089	-0.012
-139.458	79.129	-0.080	-0.084
-138.443	-54.561	-0.221	-0.098
-137.429	505.308	-0.157	-0.355
-136.414	78.737	-0.192	-0.201
-135.399	615.934	-0.085	0.210
-134.385	-200.000	0.014	0.070
-133.370	-52.620	0.250	-0.113
-132.356	329.092	-0.150	0.283
-131.341	-200.000	-0.008	-0.094
-130.326	-101.769	0.151	-0.036
-129.312	1.377	0.289	0.203
-128.297	-200.000	0.009	-0.062
-127.283	33.152	0.102	0.086
-126.268	110.198	0.107	-0.125
-125.253	-200.000	-0.051	0.426
-124.239	-108.068	-0.013	0.003
-123.224	-200.000	-0.008	-0.100
-122.210	-96.421	-0.090	-0.023
-121.195	-200.000	0.009	-0.095
-120.180	-49.552	0.180	-0.084
-119.166	94.576	-0.218	0.242
-118.151	-127.556	0.134	0.019
-117.137	800.000	-0.076	0.238
-116.122	-200.000	-0.021	0.445
-115.107	144.318	-0.002	0.003
-114.093	384.254	0.099	0.200
-113.078	228.872	0.045	0.072
-112.064	18.354	-0.263	0.205
-111.049	-200.000	-0.025	0.146
-110.034	-118.624	-0.061	0.011
-109.020	-82.983	0.193	-0.061
-108.005	17.352	0.098	-0.076
-106.991	-106.343	0.454	0.099
-105.976	97.932	0.309	0.348
-104.962	66.960	-0.189	0.188
-103.947	-200.000	0.013	0.095
-102.932	382.094	-0.082	-0.165
-101.918	132.938	-0.049	0.062
-100.903	-2.292	-0.187	0.128
-99.889	214.550	-0.155	0.240
-98.874	-26.048	0.215	0.123
-97.859	-31.840	-0.076	0.041
-96.845	-137.560	-0.199	-0.022
-95.830	-73.403	-0.181	0.065
-94.816	-182.393	0.252	-0.005
-93.801	800.000	0.043	0.126
-92.786	-100.463	-0.051	-0.012
-91.772	104.045	0.190	-0.218
-90.757	-43.857	0.114	-0.056
-89.743	-84.109	-0.211	-0.065
-88.728	-200.000	-0.007	0.137
-87.713	-156.346	0.130	-0.008
-86.699	280.206	0.113	-0.197
-85.684	-48.798	0.213	-0.100
-84.670	-133.856	0.126	0.015
-83.655	-99.552	-0.250	0.061
-82.640	-185.393	0.155	-0.002
-81.626	267.337	0.232	0.396
-80.611	21.599	-0.139	0.111
-79.597	11.575	-0.137	-0.102
-78.582	-200.000	-0.013	0.083
-77.567	800.000	0.156	-0.426
-76.553	-179.294	-0.112	0.002
-75.538	-200.000	0.041	-0.195
-74.524	69.909	0.107	0.108
-73.509	-80.122	-0.316	-0.103
-72.494	-200.000	-0.039	0.386
-71.480	-86.197	0.175	0.053
-70.465	800.000	-0.113	0.368
-69.451	7.416	0.260	0.189
-68.436	34.782	-0.073	-0.062
-67.422	152.577	-0.100	-0.133
-66.407	-62.965	-0.302	-0.122
-65.392	21.963	-0.080	0.063
-64.378	523.878	-0.027	0.062
-63.363	800.000	0.099	-0.269
-62.349	-50.346	-0.284	0.131
-61.334	70.984	-1.044	-1.055
-60.319	146.877	0.732	0.959
-59.305	774.980	-0.585	-1.556
-58.290	800.000	0.517	1.406
-57.276	163.875	1.162	1.594
-56.261	-200.000	135.899	623.983
-55.246	343.714	1635.463	3124.497
-54.232	137.784	2769.983	3536.129
-53.217	81.992	2153.253	2273.746
-52.203	29.818	1589.571	1319.506
-51.188	22.259	1342.471	1068.601
-50.173	20.393	1307.999	1030.063
-49.159	46.709	1382.284	1250.948
-48.144	42.146	1391.255	1231.062
-47.130	22.223	1340.054	1066.294
-46.115	19.358	1321.152	1034.053
-45.100	19.181	1316.036	1028.953
-44.086	19.088	1313.707	1026.534
-43.071	19.169	1310.823	1024.723
-42.057	19.064	1308.836	1022.507
-41.042	19.125	1307.475	1021.762
-40.027	19.179	1305.800	1020.735
-39.013	19.057	1304.194	1018.713
-37.998	19.212	1302.352	1018.150
-36.984	19.309	1299.969	1016.823
-35.969	19.188	1298.565	1014.973
-34.954	19.191	1297.113	1013.814
-33.940	19.339	1296.072	1013.827
-32.925	19.306	1294.398	1012.288
-31.911	19.372	1292.523	1011.166
-30.896	19.285	1291.524	1009.835
-29.881	19.374	1289.338	1008.606
-28.867	19.267	1288.590	1007.354
-27.852	19.346	1287.070	1006.590
-26.838	19.278	1286.146	1005.429
-25.823	19.335	1284.569	1004.487
-24.809	19.294	1283.156	1003.106
-23.794	19.296	1281.786	1002.009
-22.779	19.262	1281.106	1001.240
-21.765	19.206	1279.665	999.749
-20.750	19.419	1277.890	999.552
-19.736	19.279	1276.786	997.837
-18.721	19.264	1275.450	996.669
-17.706	19.260	1274.302	995.709
-16.692	19.217	1272.812	994.261
-15.677	19.226	1271.988	993.625
-14.663	19.150	1270.702	992.148
-13.648	19.304	1269.473	992.032
-12.633	19.282	1268.832	991.364
-11.619	19.248	1268.072	990.536
-10.604	19.179	1267.504	989.658
-9.590	19.202	1266.634	989.071
-8.575	19.136	1265.538	987.795
-7.560	19.273	1264.477	987.717
-6.546	19.268	1263.386	986.798
-5.531	19.100	1263.048	985.530
-4.517	19.191	1262.029	985.218
-3.502	19.160	1261.464	984.558
-2.487	19.286	1260.382	984.396
-1.473	19.065	1256.196	979.830
-0.458	17.466	1240.253	958.358
0.556	13.055	1224.898	921.720
1.571	9.340	1233.944	907.513
2.586	8.896	1249.223	916.132
3.600	9.028	1236.804	907.692
4.615	6.802	1165.429	843.360
5.629	2.663	1097.780	773.484
6.644	0.804	1082.165	753.161
7.659	0.517	1080.753	750.683
8.673	0.439	1079.879	749.623
9.688	0.571	1078.383	749.176
10.702	0.580	1075.754	747.329
11.717	3.311	1078.243	762.522
12.731	9.268	1086.190	797.712
13.746	14.967	1093.568	831.461
14.761	17.067	1096.139	843.790
15.775	16.579	1094.076	839.708
16.790	15.486	1092.544	833.037
17.804	14.852	1091.078	828.702
18.819	14.493	1090.358	826.304
19.834	14.375	1088.546	824.276
20.848	14.128	1087.801	822.414
21.863	13.788	1087.774	820.640
22.877	13.599	1086.817	818.909
23.892	13.596	1085.783	818.045
24.907	13.562	1085.282	817.429
25.921	13.565	1084.787	816.999
26.936	13.555	1083.726	816.076
27.950	13.644	1082.731	815.693
28.965	13.861	1080.920	815.324
29.980	13.734	1079.880	813.842
30.994	13.851	1079.058	813.723
32.009	13.904	1077.917	813.052
33.023	13.831	1076.785	811.771
34.038	13.838	1075.642	810.872
35.053	13.783	1074.722	809.838
36.067	13.731	1074.422	809.285
37.082	13.717	1073.370	808.351
38.096	13.785	1072.396	807.878
39.111	13.848	1071.492	807.432
40.126	13.798	1070.013	806.004
41.140	13.744	1069.219	805.071
42.155	13.514	1068.547	803.379
43.169	13.550	1067.078	802.379
44.184	13.557	1065.914	801.465
45.199	13.642	1064.940	801.074
46.213	13.656	1064.034	800.388
47.228	13.705	1062.668	799.525
48.242	13.623	1061.976	798.542
49.257	13.678	1060.822	797.864
50.271	13.738	1059.970	797.443
51.286	13.711	1059.121	796.606
52.301	13.665	1058.239	795.652
53.315	13.656	1056.908	794.537
54.330	13.730	1055.621	793.853
55.344	13.739	1054.898	793.281
56.359	13.699	1054.123	792.437
57.374	13.617	1053.639	791.612
58.388	13.590	1052.455	790.524
59.403	13.559	1051.767	789.790
60.417	13.448	1051.019	788.627
61.432	13.514	1050.074	788.164
62.447	13.458	1049.299	787.244
63.461	13.624	1048.151	787.104
64.476	13.643	1047.307	786.488
65.490	13.519	1046.434	785.178
66.505	13.630	1045.752	785.123
67.520	13.636	1045.299	784.741
68.534	13.609	1044.128	783.663
69.549	13.561	1043.471	782.875
70.563	13.572	1043.079	782.565
71.578	13.638	1041.893	781.917
72.593	13.532	1040.844	780.558
73.607	13.586	1040.802	780.715
74.622	13.634	1039.817	780.132
75.636	13.518	1039.287	779.119
76.651	13.489	1038.345	778.207
77.666	13.463	1038.071	777.815
78.680	13.444	1037.423	777.169
79.695	13.567	1036.337	776.862
80.709	13.504	1035.949	776.207
81.724	13.604	1035.025	775.917
82.739	13.726	1034.155	775.764
83.753	13.620	1033.891	775.003
84.768	13.686	1032.891	774.492
85.782	13.762	1031.743	773.917
86.797	13.827	1030.617	773.307
87.812	13.698	1030.065	772.223
88.826	13.728	1028.673	771.250
89.841	13.691	1027.888	770.423
90.855	13.818	1026.678	770.039
91.870	13.833	1026.259	769.724
92.884	13.812	1025.264	768.813
93.899	13.819	1024.291	768.049
94.914	13.912	1023.491	767.812
95.928	13.770	1023.236	766.896
96.943	13.781	1022.180	766.086
97.957	13.742	1021.395	765.248
98.972	13.769	1020.523	764.652
99.987	13.699	1019.745	763.681
101.001	13.718	1018.399	762.694
102.016	13.771	1017.743	762.379
103.030	13.880	1017.052	762.290
104.045	13.725	1016.371	761.002
105.060	13.754	1015.457	760.383
106.074	13.698	1014.771	759.547
107.089	13.710	1013.013	758.220
108.103	13.667	1012.474	757.555
109.118	13.693	1011.829	757.123
110.133	13.695	1010.915	756.378
111.147	13.582	1010.149	755.224
112.162	13.676	1009.213	754.885
113.176	13.773	1008.211	754.511
114.191	13.748	1007.542	753.830
115.206	13.736	1006.455	752.894
116.220	13.637	1005.846	751.925
117.235	13.827	1004.650	751.823
118.249	13.724	1003.887	750.722
119.264	13.684	1003.679	750.319
120.279	13.765	1002.522	749.751
121.293	13.681	1001.762	748.739
122.308	13.740	1001.066	748.418
123.322	13.652	999.860	747.056
124.337	13.842	998.359	746.724
125.352	13.667	997.430	745.174
126.366	13.715	996.398	744.554
127.381	13.600	995.779	743.508
128.395	13.608	994.786	742.735
129.410	13.647	993.599	741.961
130.424	13.681	992.392	741.142
131.439	13.759	992.071	741.185
132.454	13.794	991.524	740.872
133.468	13.801	990.325	739.939
134.483	13.653	989.558	738.640
135.497	13.728	988.439	738.073
136.512	13.770	987.604	737.573
137.527	13.713	986.627	736.526
138.541	13.933	985.739	736.770
139.556	13.867	985.220	736.028
140.570	13.838	984.831	735.541
141.585	13.955	983.347	734.889
142.600	13.862	982.771	733.979
143.614	13.834	982.458	733.559
144.629	13.862	981.427	732.846
145.643	13.862	980.544	732.122
146.658	14.012	979.235	731.741
147.673	13.899	978.485	730.619
148.687	13.812	977.496	729.432
149.702	13.871	976.813	729.118
150.716	13.999	975.688	728.773
151.731	13.883	975.255	727.877
152.746	13.856	974.787	727.348
153.760	13.887	974.205	726.983
154.775	14.037	973.329	726.920
155.789	13.934	972.675	725.917
156.804	13.961	972.158	725.584
157.819	14.113	971.304	725.547
158.833	14.013	970.881	724.733
159.848	14.094	969.629	724.086
160.862	14.082	968.846	723.384
161.877	13.968	968.130	722.290
162.892	14.016	966.663	721.342
163.906	14.009	966.143	720.859
164.921	14.000	965.020	719.920
165.935	13.987	964.536	719.436
166.950	14.072	963.558	719.013
167.964	14.048	962.642	718.159
168.979	14.062	961.735	717.482
169.994	14.141	960.741	717.017
171.008	14.124	960.294	716.547
172.023	14.120	959.114	715.583
173.037	14.171	958.638	715.384
174.052	14.100	958.308	714.772
175.067	14.120	957.383	714.104
176.081	14.119	957.080	713.811
177.096	14.134	956.256	713.198
178.110	13.988	955.892	712.237
179.125	14.058	955.350	712.071
180.140	14.149	954.569	711.814
181.154	14.132	954.307	711.482
182.169	14.289	953.370	711.391
183.183	14.259	953.004	710.929
184.198	14.387	951.562	710.334
185.213	14.366	950.972	709.742
186.227	14.493	950.107	709.573
187.242	14.378	949.927	708.890
188.256	14.556	948.928	708.838
189.271	14.423	948.356	707.781
190.286	14.266	947.446	706.372
191.300	14.225	946.927	705.751
192.315	14.415	946.115	705.888
193.329	14.234	945.822	704.842
194.344	14.269	945.325	704.555
195.359	14.332	944.213	703.930
196.373	14.290	943.897	703.454
197.388	14.612	942.866	703.984
198.402	14.556	942.691	703.553
199.417	14.419	942.255	702.588
200.432	14.468	941.882	702.454
201.446	14.573	941.084	702.241
202.461	14.580	940.504	701.773
203.475	14.694	940.034	701.840
204.490	14.675	939.007	700.930
205.504	14.513	938.513	699.820
206.519	14.541	937.586	699.188
207.534	14.568	936.875	698.707
208.548	14.531	936.426	698.156
209.563	14.587	935.487	697.626
210.577	14.706	934.435	697.277
211.592	14.776	933.848	697.072
212.607	14.692	933.087	696.092
213.621	14.719	932.210	695.488
214.636	14.740	931.636	695.086
215.650	14.852	930.747	694.827
216.665	14.899	929.946	694.362
217.680	14.866	929.445	693.789
218.694	14.803	928.675	692.893
219.709	14.807	928.549	692.752
220.723	14.828	927.758	692.188
221.738	14.774	927.072	691.393
222.753	14.802	926.227	690.818
223.767	14.987	925.447	690.936
224.782	15.018	924.956	690.638
225.796	15.039	924.339	690.201
226.811	14.910	923.796	689.203
227.826	14.989	922.967	688.850
228.840	15.031	922.065	688.290
229.855	14.899	921.752	687.451
230.869	15.001	920.565	686.923
231.884	14.856	920.355	686.111
232.899	14.877	919.696	685.645
233.913	14.993	918.701	685.317
234.928	14.975	918.233	684.836
235.942	14.894	917.609	683.978
236.957	15.013	916.784	683.790
237.972	14.891	916.200	682.795
238.986	14.879	915.451	682.127
240.001	15.026	915.031	682.353
241.015	14.920	914.312	681.324
242.030	15.129	913.620	681.600
243.045	15.035	913.042	680.726
244.059	15.120	912.131	680.330
245.074	15.103	911.706	679.884
246.088	15.235	911.020	679.850
247.103	15.058	910.538	678.710
248.117	15.191	910.111	678.870
249.132	15.373	909.219	678.883
250.147	15.286	908.862	678.205
251.161	15.309	908.158	677.712
252.176	15.340	907.551	677.323
253.190	15.385	906.614	676.746
254.205	15.296	906.210	676.028
255.220	15.315	905.185	675.278
256.234	15.418	904.801	675.348
257.249	15.326	904.172	674.450
258.263	15.457	903.124	674.131
259.278	15.577	902.292	673.933
260.293	15.405	901.946	672.925
261.307	15.540	901.425	673.018
262.322	15.644	900.495	672.679
263.336	15.720	899.378	672.089
264.351	15.614	899.059	671.368
265.366	15.678	898.548	671.182
266.380	15.645	898.071	670.638
267.395	15.622	897.254	669.875
268.409	15.496	896.845	669.007
269.424	15.638	895.736	668.689
270.439	15.598	894.930	667.867
271.453	15.732	894.108	667.725
272.468	15.673	893.927	667.300
273.482	15.696	893.236	666.815
274.497	15.615	892.914	666.195
275.512	15.781	891.876	666.017
276.526	15.657	891.573	665.241
277.541	15.792	890.814	665.152
278.555	15.873	890.114	664.887
279.570	15.809	889.634	664.220
280.585	15.881	889.051	664.011
281.599	15.898	888.236	663.410
282.614	15.750	887.860	662.487
283.628	15.865	886.911	662.173
284.643	15.909	886.124	661.700
285.657	15.877	885.751	661.235
286.672	15.924	885.169	660.929
287.687	15.848	884.334	659.948
288.701	16.009	883.673	660.027
289.716	16.025	883.046	659.564
290.730	16.005	882.457	658.986
291.745	16.012	882.225	658.780
292.760	15.882	881.647	657.784
293.774	16.120	880.789	658.015
294.789	16.030	880.134	657.116
295.803	16.014	879.480	656.506
296.818	15.993	878.724	655.802
297.833	16.010	878.132	655.368
298.847	16.096	877.541	655.204
299.862	16.079	877.056	654.718
300.876	16.194	876.187	654.459
301.891	16.192	875.474	653.861
302.906	16.282	874.894	653.719
303.920	16.199	874.742	653.223
304.935	16.358	873.896	653.148
305.949	16.351	873.136	652.496
306.964	16.100	873.048	651.404
307.979	16.208	872.251	651.169
308.993	16.248	871.438	650.658
310.008	16.279	871.170	650.522
311.022	16.261	870.473	649.871
312.037	16.244	870.087	649.462
313.052	16.256	869.316	648.874
314.066	16.257	869.057	648.628
315.081	16.319	868.305	648.247
316.095	16.235	868.009	647.645
317.110	16.350	866.708	647.057
318.125	16.449	866.280	647.061
319.139	16.429	866.060	646.762
320.154	16.399	865.457	646.139
321.168	16.378	865.022	645.680
322.183	16.434	864.445	645.404
323.197	16.390	863.961	644.816
324.212	16.431	863.231	644.372
325.227	16.455	862.354	643.752
326.241	16.422	862.245	643.488
327.256	16.483	861.724	643.275
328.270	16.486	861.104	642.768
329.285	16.424	860.483	642.010
330.300	16.444	859.849	641.556
331.314	16.457	859.300	641.139
332.329	16.562	858.813	641.118
333.343	16.444	858.471	640.358
334.358	16.634	857.956	640.639
335.373	16.582	857.613	640.129
336.387	16.583	857.047	639.651
337.402	16.581	857.353	639.815
338.416	16.581	856.746	639.306
339.431	16.679	855.909	638.997
340.446	16.742	855.400	638.796
341.460	16.818	854.953	638.694
342.475	16.696	854.803	638.064
343.489	16.880	854.124	638.195
344.504	16.680	854.133	637.392
345.519	16.955	853.059	637.569
346.533	16.975	852.484	637.156
347.548	16.992	852.154	636.915
348.562	16.863	851.555	635.927
349.577	16.682	851.333	635.026
350.592	16.775	850.776	634.906
351.606	16.752	850.059	634.225
352.621	16.912	848.968	633.956
353.635	16.813	848.424	633.123
354.650	16.882	847.961	632.977
355.665	16.902	847.342	632.534
356.679	17.053	846.581	632.472
357.694	17.030	845.767	631.726
358.708	17.000	845.254	631.175
359.723	17.132	844.652	631.160
360.738	16.991	844.330	630.338
361.752	17.012	843.507	629.746
362.767	17.064	842.801	629.358
363.781	17.056	842.437	628.999
364.796	17.123	841.953	628.830
365.810	17.066	842.079	628.660
366.825	17.213	841.446	628.675
367.840	17.272	840.699	628.278
368.854	17.366	839.859	627.941
369.869	17.219	839.637	627.176
370.883	17.216	839.129	626.732
371.898	17.464	838.880	627.405
372.913	17.503	838.192	626.979
373.927	17.458	837.942	626.568
374.942	17.372	837.465	625.843
375.956	17.308	837.334	625.452
376.971	17.354	836.810	625.176
377.986	17.302	836.374	624.602
379.000	17.538	835.617	624.847
380.015	17.418	835.262	624.086
381.029	17.608	834.692	624.304
382.044	17.547	834.185	623.644
383.059	17.558	833.356	623.010
384.073	17.593	833.364	623.090
385.088	17.477	832.368	621.867
386.102	17.317	831.908	620.882
387.117	17.482	831.567	621.175
388.132	17.556	830.916	620.903
389.146	17.598	830.128	620.415
390.161	17.483	830.242	620.025
391.175	17.527	829.388	619.493
392.190	17.496	828.847	618.919
393.205	17.526	828.359	618.610
394.219	17.508	828.081	618.283
395.234	17.636	827.365	618.157
396.248	17.531	826.987	617.438
397.263	17.554	826.269	616.931
398.278	17.550	826.287	616.875
399.292	17.510	826.207	616.618
400.307	17.592	825.540	616.360
401.321	17.532	825.249	615.875
402.336	17.700	824.613	615.952
403.350	17.790	823.735	615.563
404.365	17.691	823.596	615.049
405.380	17.998	822.696	615.429
406.394	17.795	822.274	614.327
407.409	17.791	822.193	614.201
408.423	17.848	821.714	613.992
409.438	18.050	820.872	614.035
410.453	17.894	820.714	613.301
411.467	17.839	820.353	612.781
412.482	17.870	820.354	612.838
413.496	17.917	819.397	612.237
414.511	17.962	819.046	612.081
415.526	18.009	818.894	612.084
416.540	17.962	818.347	611.451
417.555	17.968	817.978	611.143
418.569	18.127	817.286	611.141
419.584	18.048	816.751	610.403
420.599	18.064	816.229	610.019
421.613	116.025	1301.216	1493.194
422.628	100.577	1371.805	1493.245
