DTS Sentinel unit serial number:	SN413079Multiplexer serial number:	ORYXHardware model number:	OX4-SRSoftware version number:	ORYX F/W v4.00 Oryx Data Collector v3.7.2.0data status	okinstallation	princeton_trtdifferential loss correction	single-endedforward channel	channel 1reverse channel	N/Adate	2019/09/15time	11:42:35forward acquisition time	60.00reverse acquisition time	0.00gamma	496.2192k internal	0.2308k external	0.2308temperature offset calibration	0.9984default loss term (dB/km)	0.3790temperature slope calibration	1.0000multiplexer offset coefficient	1.0000multiplexer slope coefficient	1.0000fibre end	0.00T internal ref (°C)	34.31T ext. ref 1 (°C)	5.03T ext. ref 2 (°C)	29.80length (m)	temperature (°C)	Stokes	anti-Stokes-747.200	-200.000	-0.016	-0.177
-746.185	-22.695	0.270	0.166
-745.171	22.051	0.184	-0.152
-744.156	-200.000	-0.022	0.270
-743.142	800.000	-0.107	-0.300
-742.127	-200.000	-0.002	-0.051
-741.112	38.218	-0.181	0.164
-740.098	-200.000	0.040	0.000
-739.083	-96.594	0.137	-0.037
-738.069	10.567	0.054	-0.042
-737.054	-71.005	0.209	0.080
-736.039	6.369	-0.153	-0.115
-735.025	-24.415	0.339	0.205
-734.010	800.000	0.113	0.386
-732.996	5.519	0.212	-0.159
-731.981	-41.748	0.108	0.056
-730.966	15.451	-0.136	0.108
-729.952	-200.000	0.025	-0.173
-728.937	-115.390	0.159	-0.030
-727.923	-99.647	-0.152	-0.039
-726.908	-200.000	0.007	-0.245
-725.894	-106.984	0.514	0.115
-724.879	330.960	-0.057	-0.112
-723.864	-160.704	0.228	-0.012
-722.850	-14.547	-0.099	-0.064
-721.835	319.475	-0.104	0.200
-720.821	-200.000	0.043	0.237
-719.806	-135.035	-0.226	0.028
-718.791	406.863	-0.098	-0.210
-717.777	-20.871	-0.074	0.046
-716.762	-16.682	0.176	0.113
-715.748	-37.793	0.269	0.146
-714.733	-114.607	0.139	-0.027
-713.718	-200.000	0.017	-0.207
-712.704	-17.664	-0.128	-0.082
-711.689	-23.862	-0.152	0.092
-710.675	800.000	0.173	-0.513
-709.660	-153.027	0.321	-0.023
-708.645	-22.074	0.210	-0.129
-707.631	-79.300	0.192	-0.066
-706.616	-94.660	0.173	-0.048
-705.602	517.512	0.052	-0.124
-704.587	-118.876	-0.395	0.070
-703.572	-137.774	0.282	0.032
-702.558	280.899	-0.130	0.236
-701.543	-13.962	-0.144	-0.094
-700.529	165.983	-0.279	0.401
-699.514	-177.307	0.158	-0.004
-698.499	38.588	-0.129	-0.116
-697.485	-78.815	-0.281	0.097
-696.470	283.901	-0.130	-0.236
-695.456	-200.000	-0.036	-0.393
-694.441	23.149	-0.269	0.224
-693.426	-200.000	0.010	-0.079
-692.412	800.000	-0.062	-0.244
-691.397	-81.161	-0.164	-0.055
-690.383	20.476	-0.148	-0.121
-689.368	249.859	-0.027	0.046
-688.354	800.000	0.041	0.166
-687.339	-200.000	0.007	0.206
-686.324	10.127	0.134	-0.103
-685.310	-121.226	0.202	0.034
-684.295	442.723	0.070	0.155
-683.281	-57.676	-0.217	0.096
-682.266	132.748	0.036	0.047
-681.251	24.772	0.149	-0.125
-680.237	-200.000	-0.025	0.163
-679.222	-119.446	-0.242	0.043
-678.208	-200.000	0.047	0.258
-677.193	94.483	-0.234	-0.270
-676.178	5.633	-0.215	0.161
-675.164	29.124	0.184	-0.158
-674.149	-45.054	0.115	-0.058
-673.135	-132.735	-0.288	0.037
-672.120	-170.338	-0.133	-0.005
-671.105	-200.000	0.034	-0.273
-670.091	44.918	-0.146	0.137
-669.076	436.810	0.037	0.082
-668.062	49.670	0.272	-0.260
-667.047	124.177	0.141	-0.180
-666.032	562.207	0.033	-0.081
-665.018	-200.000	0.004	-0.095
-664.003	-40.847	0.077	0.041
-662.989	-80.140	0.141	0.048
-661.974	800.000	0.096	0.295
-660.959	-200.000	0.015	-0.164
-659.945	58.887	0.266	-0.265
-658.930	41.179	-0.110	0.101
-657.916	-38.946	0.271	0.145
-656.901	12.840	-0.246	0.192
-655.886	25.280	0.079	0.067
-654.872	-166.289	-0.380	0.016
-653.857	-104.507	-0.262	0.061
-652.843	-200.000	0.048	-0.472
-651.828	-118.982	-0.102	-0.018
-650.814	66.217	0.194	0.199
-649.799	800.000	-0.100	0.430
-648.784	-200.000	-0.010	0.322
-647.770	-121.627	-0.189	0.032
-646.755	-6.001	0.138	-0.095
-645.741	-115.660	-0.175	-0.033
-644.726	6.598	0.162	-0.122
-643.711	158.047	-0.154	-0.216
-642.697	-200.000	-0.021	-0.403
-641.682	-108.518	-0.174	-0.038
-640.668	173.530	-0.160	-0.234
-639.653	-87.928	-0.071	0.022
-638.638	93.062	-0.181	-0.207
-637.624	235.015	-0.061	0.102
-636.609	800.000	-0.060	0.265
-635.595	-66.632	0.250	-0.100
-634.580	26.876	0.181	-0.154
-633.565	-170.223	-0.248	-0.009
-632.551	-106.485	0.186	0.042
-631.536	-200.000	0.023	0.171
-630.522	-85.153	-0.266	0.084
-629.507	-74.294	-0.296	-0.108
-628.492	51.283	0.050	-0.048
-627.478	-200.000	0.065	-0.297
-626.463	-13.029	-0.086	0.057
-625.449	373.143	0.076	0.157
-624.434	-147.453	-0.090	-0.008
-623.419	-78.616	0.026	0.009
-622.405	247.483	0.090	0.153
-621.390	440.449	0.079	-0.176
-620.376	387.885	0.034	-0.072
-619.361	-200.000	-0.024	-0.482
-618.346	-200.000	-0.075	-0.358
-617.332	-104.874	-0.440	0.102
-616.317	-84.407	0.227	0.073
-615.303	95.968	0.240	-0.277
-614.288	-73.956	-0.238	0.087
-613.273	-171.445	-0.484	-0.016
-612.259	-151.926	0.112	-0.008
-611.244	116.031	0.043	0.053
-610.230	800.000	0.007	-0.023
-609.215	-82.353	-0.204	0.067
-608.201	-30.463	0.110	0.063
-607.186	-120.922	0.452	-0.077
-606.171	-54.454	-0.284	-0.130
-605.157	109.808	0.150	-0.182
-604.142	462.660	0.025	0.057
-603.128	-200.000	-0.005	-0.203
-602.113	-50.565	-0.157	-0.075
-601.098	-11.805	0.107	0.071
-600.084	-39.389	-0.169	0.090
-599.069	377.445	-0.104	0.214
-598.055	800.000	0.100	0.310
-597.040	800.000	0.042	0.157
-596.025	83.140	0.103	0.113
-595.011	-186.246	-0.153	0.002
-593.996	-5.265	0.158	0.110
-592.982	-109.950	-0.277	-0.059
-591.967	-20.176	-0.156	0.097
-590.952	258.273	-0.193	0.336
-589.938	-49.196	0.042	0.020
-588.923	-39.706	-0.134	0.071
-587.909	-36.960	-0.119	-0.064
-586.894	344.287	-0.069	-0.136
-585.879	-72.553	-0.242	0.090
-584.865	-10.199	0.159	0.107
-583.850	-1.191	0.129	-0.092
-582.836	-63.811	0.182	0.075
-581.821	208.651	-0.088	0.139
-580.806	76.229	0.045	-0.048
-579.792	30.116	-0.305	0.263
-578.777	380.002	0.132	0.273
-577.763	116.520	0.208	0.258
-576.748	477.754	-0.141	-0.323
-575.733	749.828	-0.124	-0.338
-574.719	40.172	-0.149	-0.135
-573.704	800.000	0.064	-0.256
-572.690	-120.860	-0.307	-0.052
-571.675	800.000	0.041	-0.127
-570.661	327.512	0.227	-0.439
-569.646	-66.691	-0.183	0.073
-568.631	-200.000	0.013	0.174
-567.617	39.674	0.099	0.089
-566.602	-83.510	0.224	-0.073
-565.588	72.682	0.212	0.223
-564.573	-49.630	-0.124	0.060
-563.558	-3.643	-0.062	-0.043
-562.544	-200.000	0.087	-0.388
-561.529	-22.194	0.247	0.151
-560.515	13.834	-0.479	0.376
-559.500	-31.163	0.015	0.009
-558.485	-92.286	-0.280	0.080
-557.471	-86.960	-0.210	-0.065
-556.456	344.068	0.039	0.077
-555.442	3.601	0.271	0.199
-554.427	-117.344	0.049	0.009
-553.412	-144.620	-0.305	0.028
-552.398	-60.764	-0.075	0.032
-551.383	-130.174	0.147	0.020
-550.369	-65.622	-0.238	-0.096
-549.354	800.000	0.074	-0.216
-548.339	800.000	-0.185	-0.542
-547.325	-80.412	0.234	-0.079
-546.310	-75.264	0.110	-0.040
-545.296	179.784	-0.090	-0.133
-544.281	-119.835	0.117	-0.020
-543.266	-103.816	0.226	-0.053
-542.252	-200.000	-0.042	0.255
-541.237	800.000	0.034	-0.128
-540.223	86.822	0.199	0.222
-539.208	334.712	0.095	0.186
-538.193	426.613	-0.123	0.267
-537.179	-200.000	-0.022	-0.162
-536.164	-36.976	0.022	-0.012
-535.150	620.514	0.083	0.211
-534.135	751.223	0.065	-0.178
-533.121	-200.000	0.017	0.203
-532.106	-132.495	-0.429	0.056
-531.091	-172.204	-0.272	0.009
-530.077	163.081	0.256	-0.362
-529.062	-85.031	-0.257	-0.081
-528.048	-200.000	-0.001	0.158
-527.033	-37.315	0.318	0.171
-526.018	800.000	-0.067	-0.246
-525.004	-58.289	0.311	-0.136
-523.989	-57.278	-0.090	-0.040
-522.975	800.000	0.064	-0.217
-521.960	-181.063	0.391	0.008
-520.945	-48.617	0.231	-0.112
-519.931	41.603	-0.223	-0.203
-518.916	228.106	-0.081	0.132
-517.902	-117.222	0.222	0.041
-516.887	-186.794	-0.213	0.003
-515.872	-200.000	-0.000	0.066
-514.858	252.003	0.077	0.133
-513.843	556.601	-0.009	-0.022
-512.829	130.386	-0.135	0.174
-511.814	-164.070	-0.283	0.013
-510.799	-104.803	0.133	-0.031
-509.785	95.711	-0.097	-0.111
-508.770	221.185	0.058	0.094
-507.756	-92.427	0.442	-0.125
-506.741	124.614	-0.229	0.290
-505.726	-200.000	-0.031	0.168
-504.712	284.131	-0.234	-0.424
-503.697	672.120	0.100	-0.262
-502.683	81.187	-0.151	-0.164
-501.668	-50.374	-0.154	-0.073
-500.653	-66.115	0.106	-0.043
-499.639	-24.526	-0.146	-0.087
-498.624	286.621	-0.079	-0.144
-497.610	800.000	0.036	0.137
-496.595	151.356	0.073	0.100
-495.581	163.641	0.224	0.317
-494.566	800.000	0.090	-0.274
-493.551	290.034	0.204	0.373
-492.537	-200.000	0.050	-0.275
-491.522	-89.379	0.238	0.071
-490.508	-132.067	-0.224	0.029
-489.493	172.745	-0.107	0.155
-488.478	150.546	-0.069	-0.094
-487.464	-75.227	-0.399	0.144
-486.449	248.569	0.162	0.275
-485.435	-114.267	-0.286	-0.055
-484.420	-38.623	0.133	0.071
-483.405	800.000	-0.149	-0.542
-482.391	-105.523	-0.146	0.033
-481.376	385.423	0.057	-0.119
-480.362	39.556	0.059	0.053
-479.347	-10.624	0.135	-0.090
-478.332	-155.558	0.193	0.013
-477.318	731.373	0.053	-0.142
-476.303	334.077	-0.056	-0.108
-475.289	-122.822	-0.181	0.029
-474.274	-23.611	0.260	-0.157
-473.259	-35.337	0.238	0.130
-472.245	600.164	-0.063	-0.158
-471.230	-81.447	0.318	0.105
-470.216	172.784	0.119	0.172
-469.201	-51.053	0.207	0.098
-468.186	58.322	-0.231	0.228
-467.172	86.690	-0.096	0.107
-466.157	310.517	0.137	0.258
-465.143	-200.000	0.005	-0.147
-464.128	-170.628	-0.306	-0.011
-463.113	-8.819	-0.182	0.123
-462.099	-54.270	-0.149	-0.068
-461.084	-200.000	-0.006	-0.187
-460.070	266.813	-0.072	-0.127
-459.055	-200.000	-0.021	0.175
-458.040	-41.070	-0.068	-0.035
-457.026	-76.937	0.162	0.057
-456.011	-13.612	-0.226	0.147
-454.997	-32.001	0.265	-0.149
-453.982	-57.471	-0.133	0.059
-452.968	-119.216	0.172	0.030
-451.953	-200.000	0.015	-0.135
-450.938	-200.000	-0.027	-0.318
-449.924	219.061	0.078	-0.125
-448.909	3.897	0.314	0.231
-447.895	423.925	0.038	-0.083
-446.880	80.675	-0.234	-0.253
-445.865	-125.733	0.271	0.041
-444.851	-106.916	0.180	-0.040
-443.836	-200.000	-0.040	-0.455
-442.822	108.554	0.088	-0.105
-441.807	136.386	0.222	0.291
-440.792	-155.177	-0.339	-0.022
-439.778	800.000	0.010	-0.031
-438.763	81.951	-0.170	0.185
-437.749	-200.000	0.043	0.204
-436.734	4.269	0.128	-0.094
-435.719	-140.999	-0.476	0.049
-434.705	800.000	0.109	-0.320
-433.690	788.223	-0.093	-0.256
-432.676	761.197	0.038	-0.103
-431.661	478.774	-0.141	0.321
-430.646	623.540	-0.091	0.230
-429.632	-200.000	-0.011	0.147
-428.617	496.657	0.046	-0.107
-427.603	-154.245	-0.171	0.012
-426.588	-11.699	-0.093	0.061
-425.573	781.721	-0.092	0.253
-424.559	-200.000	-0.065	-0.441
-423.544	-70.317	0.124	-0.047
-422.530	8.254	0.086	-0.065
-421.515	-200.000	-0.027	-0.496
-420.500	-200.000	0.017	0.302
-419.486	20.391	-0.352	0.285
-418.471	-200.000	0.041	-0.517
-417.457	-49.708	-0.171	-0.081
-416.442	-59.190	0.041	0.018
-415.428	70.516	-0.143	0.148
-414.413	-120.830	0.109	-0.019
-413.398	-200.000	0.035	0.315
-412.384	-55.463	0.240	-0.108
-411.369	30.392	-0.455	0.390
-410.355	-200.000	0.043	0.260
-409.340	-32.007	-0.280	0.157
-408.325	6.990	-0.186	-0.139
-407.311	120.142	0.182	-0.227
-406.296	391.473	-0.118	-0.247
-405.282	-200.000	-0.023	-0.333
-404.267	-125.501	-0.347	-0.053
-403.252	281.537	-0.244	-0.439
-402.238	-22.498	0.158	0.096
-401.223	-30.283	0.205	-0.117
-400.209	-66.852	0.179	0.071
-399.194	81.827	0.195	0.212
-398.179	236.408	0.046	0.077
-397.165	-34.734	0.162	-0.089
-396.150	-82.397	-0.091	0.030
-395.136	-64.186	-0.052	0.021
-394.121	-200.000	-0.011	0.161
-393.106	-68.990	0.322	-0.124
-392.092	-144.579	-0.271	-0.025
-391.077	455.105	0.164	-0.364
-390.063	-200.000	-0.042	-0.351
-389.048	-150.981	0.265	0.020
-388.033	434.303	-0.170	-0.371
-387.019	800.000	-0.119	-0.376
-386.004	-200.000	-0.009	-0.425
-384.990	-148.778	0.084	0.007
-383.975	269.929	0.154	0.271
-382.960	108.007	0.138	-0.165
-381.946	-109.759	-0.150	-0.032
-380.931	153.629	-0.161	-0.221
-379.917	-61.070	-0.068	-0.029
-378.902	96.297	-0.080	-0.092
-377.888	276.010	0.132	-0.235
-376.873	197.203	0.103	0.158
-375.858	23.381	0.118	0.098
-374.844	102.140	0.095	0.111
-373.829	235.483	-0.072	0.120
-372.815	220.405	0.022	-0.035
-371.800	-46.144	-0.204	-0.101
-370.785	36.833	0.107	0.095
-369.771	36.171	0.242	0.214
-368.756	-71.966	0.445	0.166
-367.742	731.197	-0.033	-0.087
-366.727	-24.251	-0.234	-0.140
-365.712	-101.558	-0.027	-0.007
-364.698	-32.082	-0.287	0.161
-363.683	177.646	0.147	-0.214
-362.669	13.265	-0.140	-0.109
-361.654	-200.000	0.056	0.301
-360.639	-200.000	-0.001	-0.099
-359.625	-95.055	0.168	0.045
-358.610	-99.216	0.290	0.073
-357.596	800.000	-0.044	-0.170
-356.581	-100.318	0.319	-0.079
-355.566	-200.000	-0.010	-0.313
-354.552	-67.810	0.289	-0.113
-353.537	-167.705	0.203	0.008
-352.523	-10.250	0.149	-0.099
-351.508	0.613	0.107	-0.077
-350.493	-200.000	-0.027	-0.315
-349.479	-200.000	-0.016	-0.114
-348.464	93.576	0.479	0.543
-347.450	-60.711	-0.366	0.155
-346.435	-156.321	-0.306	0.019
-345.420	-68.132	0.302	0.118
-344.406	800.000	-0.072	0.212
-343.391	-128.571	-0.293	0.042
-342.377	433.510	-0.102	-0.222
-341.362	59.399	0.064	-0.063
-340.348	800.000	0.091	0.288
-339.333	129.274	0.245	-0.314
-338.318	-200.000	0.022	0.146
-337.304	77.721	0.131	-0.139
-336.289	150.403	-0.129	0.175
-335.275	-17.994	-0.026	0.016
-334.260	-143.436	-0.482	-0.046
-333.245	-117.442	0.215	-0.039
-332.231	-92.755	0.231	0.065
-331.216	145.124	0.061	-0.082
-330.202	-58.125	-0.180	0.079
-329.187	26.431	-0.170	-0.142
-328.172	304.608	-0.075	0.139
-327.158	-101.164	0.246	0.060
-326.143	617.782	0.062	0.155
-325.129	800.000	-0.023	0.083
-324.114	156.696	0.099	0.137
-323.099	-68.608	-0.131	0.051
-322.085	-200.000	-0.051	0.380
-321.070	-73.460	0.119	-0.044
-320.056	-50.467	-0.133	-0.063
-319.041	113.999	0.078	0.095
-318.026	443.193	0.010	-0.021
-317.012	800.000	-0.087	0.254
-315.997	169.863	-0.084	-0.120
-314.983	276.296	-0.101	-0.179
-313.968	800.000	-0.022	-0.071
-312.953	-9.864	-0.122	0.081
-311.939	-154.076	-0.161	-0.011
-310.924	-79.506	0.315	0.106
-309.910	800.000	-0.099	0.351
-308.895	-60.709	0.235	0.100
-307.880	263.844	-0.101	-0.176
-306.866	800.000	0.075	-0.296
-305.851	-123.270	0.056	0.009
-304.837	-200.000	-0.037	0.202
-303.822	-70.659	0.162	-0.061
-302.807	-200.000	0.047	0.392
-301.793	-33.776	0.003	-0.002
-300.778	74.251	0.151	0.159
-299.764	92.198	0.209	0.236
-298.749	-57.910	-0.147	0.064
-297.735	-126.299	0.163	0.024
-296.720	377.303	-0.129	-0.263
-295.705	232.389	-0.207	0.340
-294.691	397.450	0.106	-0.222
-293.676	-89.911	-0.074	0.022
-292.662	-16.106	0.319	0.203
-291.647	106.468	0.192	-0.228
-290.632	-107.063	-0.205	0.045
-289.618	800.000	-0.036	0.114
-288.603	800.000	-0.033	-0.141
-287.589	665.055	0.080	0.205
-286.574	295.413	0.089	-0.162
-285.559	800.000	0.038	-0.116
-284.545	20.563	0.076	-0.062
-283.530	-121.274	0.177	0.030
-282.516	-63.212	0.071	-0.029
-281.501	185.471	-0.336	0.498
-280.486	432.266	0.063	0.135
-279.472	322.761	0.027	-0.051
-278.457	-49.893	-0.137	-0.065
-277.443	-18.421	0.336	-0.209
-276.428	-82.913	0.248	-0.080
-275.413	36.860	-0.199	-0.176
-274.399	16.865	-0.236	-0.186
-273.384	0.908	0.369	-0.264
-272.370	60.985	-0.214	0.212
-271.355	127.888	-0.124	0.158
-270.340	-48.052	0.115	0.056
-269.326	-200.000	-0.059	0.394
-268.311	-32.388	0.305	-0.170
-267.297	88.955	0.072	-0.080
-266.282	-27.011	0.258	0.150
-265.267	-200.000	0.003	0.090
-264.253	-11.122	0.136	0.090
-263.238	-42.939	0.132	0.067
-262.224	-200.000	0.004	0.074
-261.209	-30.198	-0.116	0.066
-260.195	-9.869	-0.284	0.188
-259.180	-91.679	-0.300	-0.085
-258.165	-200.000	-0.032	-0.176
-257.151	-4.681	-0.184	-0.127
-256.136	-200.000	-0.320	0.000
-255.122	800.000	0.006	-0.023
-254.107	7.813	-0.049	0.036
-253.092	-200.000	0.019	-0.417
-252.078	-128.677	-0.168	0.024
-251.063	-200.000	0.015	-0.106
-250.049	-10.223	-0.079	-0.052
-249.034	72.457	-0.169	-0.176
-248.019	266.183	0.078	0.136
-247.005	435.002	0.212	0.460
-245.990	-129.557	0.128	-0.018
-244.976	139.502	-0.092	-0.121
-243.961	-21.007	0.374	0.228
-242.946	-11.762	-0.198	-0.129
-241.932	-178.050	-0.296	0.007
-240.917	-132.587	-0.302	-0.039
-239.903	-61.231	0.054	-0.023
-238.888	0.191	0.150	-0.107
-237.873	154.027	0.093	-0.128
-236.859	207.564	0.031	-0.048
-235.844	130.914	0.079	-0.101
-234.830	-200.000	-0.047	0.264
-233.815	800.000	0.134	0.387
-232.800	112.698	0.067	-0.081
-231.786	-79.078	0.395	-0.134
-230.771	-12.360	0.097	0.063
-229.757	115.266	0.144	-0.175
-228.742	684.090	-0.017	-0.045
-227.727	-51.428	-0.258	-0.120
-226.713	6.968	-0.154	-0.114
-225.698	800.000	-0.032	0.133
-224.684	-68.785	0.182	0.070
-223.669	-54.757	-0.180	0.081
-222.655	230.244	-0.047	-0.076
-221.640	-73.455	0.161	0.058
-220.625	-177.386	-0.014	0.000
-219.611	-151.064	-0.174	-0.013
-218.596	195.002	-0.025	0.037
-217.582	-6.459	0.182	-0.124
-216.567	-67.484	0.334	-0.131
-215.552	-43.296	0.149	0.075
-214.538	-103.275	-0.094	-0.022
-213.523	-200.000	0.030	0.311
-212.509	414.031	-0.087	-0.185
-211.494	-161.972	-0.281	0.014
-210.479	-0.251	-0.249	0.176
-209.465	364.839	-0.096	-0.192
-208.450	-200.000	-0.016	-0.262
-207.436	394.091	-0.036	0.075
-206.421	11.466	0.195	-0.149
-205.406	562.523	0.013	-0.032
-204.392	800.000	0.068	-0.189
-203.377	91.227	0.192	0.214
-202.363	-117.912	-0.192	0.034
-201.348	-38.726	0.182	0.095
-200.333	145.130	-0.118	0.157
-199.319	-200.000	0.013	0.226
-198.304	-53.535	0.031	-0.014
-197.290	-140.447	0.096	-0.010
-196.275	-200.000	-0.034	0.186
-195.260	526.677	-0.043	-0.102
-194.246	-200.000	0.002	0.140
-193.231	800.000	-0.061	0.215
-192.217	-79.259	0.122	0.041
-191.202	-200.000	-0.016	0.118
-190.187	-200.000	0.053	-0.267
-189.173	144.742	-0.026	-0.034
-188.158	-34.124	-0.192	-0.105
-187.144	-200.000	-0.019	0.114
-186.129	-117.358	-0.146	-0.026
-185.114	430.720	-0.093	-0.201
-184.100	-200.000	0.010	-0.159
-183.085	397.652	-0.128	-0.266
-182.071	15.019	0.175	-0.136
-181.056	-68.493	-0.112	-0.043
-180.042	91.123	0.155	0.173
-179.027	800.000	-0.131	0.415
-178.012	237.052	-0.080	0.132
-176.998	540.002	-0.087	0.207
-175.983	168.657	-0.098	-0.139
-174.969	-48.927	-0.109	0.052
-173.954	-113.006	0.186	0.037
-172.939	99.913	0.083	0.096
-171.925	-135.055	-0.099	0.012
-170.910	13.669	0.235	0.182
-169.896	-118.070	0.309	0.055
-168.881	-200.000	0.030	0.458
-167.866	25.751	0.210	0.174
-166.852	207.691	0.146	0.227
-165.837	1.850	0.156	0.112
-164.823	800.000	-0.067	0.241
-163.808	-111.780	-0.306	0.062
-162.793	-36.272	-0.139	0.074
-161.779	252.105	-0.045	0.076
-160.764	104.273	0.162	0.189
-159.750	-3.114	0.326	-0.226
-158.735	-200.000	0.022	0.140
-157.720	20.547	0.263	0.211
-156.706	404.651	-0.100	0.209
-155.691	145.432	-0.105	0.140
-154.677	-80.797	-0.038	-0.013
-153.662	-200.000	-0.034	-0.446
-152.647	-200.000	0.059	0.344
-151.633	67.473	0.251	-0.255
-150.618	73.006	0.082	-0.085
-149.604	800.000	0.076	0.232
-148.589	-114.496	0.276	-0.053
-147.574	-200.000	-0.050	-0.236
-146.560	5.420	-0.170	0.125
-145.545	247.098	0.182	-0.305
-144.531	-200.000	-0.002	0.082
-143.516	583.818	0.052	-0.127
-142.502	196.390	0.011	0.016
-141.487	475.976	0.141	0.316
-140.472	194.564	0.144	-0.217
-139.458	299.066	-0.243	-0.445
-138.443	179.009	-0.034	0.049
-137.429	-71.259	0.060	0.022
-136.414	-14.845	-0.200	-0.127
-135.399	800.000	-0.034	-0.106
-134.385	141.113	0.185	-0.243
-133.370	800.000	-0.119	0.343
-132.356	93.346	-0.088	0.099
-131.341	-53.688	-0.237	-0.108
-130.326	-117.567	-0.127	-0.023
-129.312	12.059	-0.308	0.235
-128.297	-17.374	-0.121	0.076
-127.283	0.025	-0.454	-0.321
-126.268	192.758	-0.287	0.431
-125.253	42.736	-0.144	0.130
-124.239	-200.000	-0.025	0.113
-123.224	800.000	-0.085	0.318
-122.210	172.741	0.116	0.166
-121.195	-110.551	-0.094	0.019
-120.180	108.533	0.075	-0.089
-119.166	5.230	-0.204	-0.149
-118.151	40.221	-0.084	0.075
-117.137	-200.000	-0.029	0.335
-116.122	-103.867	0.088	0.020
-115.107	-200.000	0.009	-0.245
-114.093	25.245	0.110	0.091
-113.078	-111.188	-0.343	0.070
-112.064	-61.509	0.113	0.047
-111.049	353.134	-0.045	-0.089
-110.034	83.397	-0.156	-0.169
-109.020	-2.690	-0.067	-0.046
-108.005	88.564	0.432	-0.476
-106.991	-200.000	0.014	-0.114
-105.976	26.751	0.262	0.218
-104.962	-100.774	0.294	0.072
-103.947	-200.000	0.034	0.207
-102.932	139.998	0.149	0.195
-101.918	-112.008	0.239	0.048
-100.903	468.433	-0.177	0.393
-99.889	-7.835	0.055	0.037
-98.874	-200.000	0.004	0.186
-97.859	7.441	-0.167	-0.124
-96.845	391.933	0.035	0.072
-95.830	-63.291	0.088	0.036
-94.816	406.591	-0.057	0.119
-93.801	16.595	-0.133	0.104
-92.786	800.000	0.071	0.265
-91.772	57.865	0.074	-0.071
-90.757	-58.426	-0.287	-0.123
-89.743	68.337	0.126	-0.128
-88.728	-97.342	-0.252	0.065
-87.713	-200.000	-0.017	0.167
-86.699	-200.000	0.056	-0.423
-85.684	-40.835	-0.512	0.263
-84.670	61.764	-0.281	0.277
-83.655	-200.000	-0.001	-0.277
-82.640	-122.452	-0.234	0.038
-81.626	257.270	0.063	-0.107
-80.611	-116.659	-0.067	-0.012
-79.597	-200.000	-0.030	0.249
-78.582	-200.000	-0.026	0.223
-77.567	41.621	0.144	0.129
-76.553	-5.628	0.173	-0.117
-75.538	-6.796	0.122	-0.082
-74.524	5.556	-0.003	0.002
-73.509	255.046	-0.046	-0.077
-72.494	-200.000	-0.045	0.398
-71.480	-37.228	0.032	-0.017
-70.465	20.175	0.113	0.090
-69.451	800.000	0.077	0.248
-68.436	348.537	0.053	0.104
-67.422	-156.966	-0.247	-0.015
-66.407	-200.000	0.053	0.298
-65.392	-82.322	-0.143	0.046
-64.378	800.000	0.096	0.363
-63.363	-19.964	-0.091	-0.056
-62.349	800.000	-0.004	-0.016
-61.334	-7.244	-0.935	-0.627
-60.319	88.411	0.241	0.265
-59.305	-200.000	0.145	-0.836
-58.290	176.945	0.636	0.916
-57.276	776.576	0.560	1.514
-56.261	-200.000	96.399	567.184
-55.246	625.126	1394.557	3480.006
-54.232	186.659	2604.133	3837.202
-53.217	120.204	2182.865	2680.280
-52.203	46.203	1632.071	1495.967
-51.188	37.765	1367.219	1201.405
-50.173	34.484	1324.469	1144.153
-49.159	55.557	1373.479	1315.699
-48.144	59.918	1390.362	1358.410
-47.130	38.152	1345.510	1184.490
-46.115	34.548	1327.180	1146.696
-45.100	34.300	1322.944	1141.504
-44.086	34.183	1321.010	1139.092
-43.071	34.297	1317.807	1136.969
-42.057	34.218	1316.006	1134.898
-41.042	34.269	1314.733	1134.058
-40.027	34.177	1313.163	1132.110
-39.013	34.242	1310.885	1130.486
-37.998	34.211	1308.971	1128.608
-36.984	34.312	1307.343	1127.757
-35.969	34.344	1305.808	1126.577
-34.954	34.383	1303.484	1124.758
-33.940	34.391	1302.715	1124.095
-32.925	34.408	1301.433	1123.046
-31.911	34.436	1299.854	1121.806
-30.896	34.416	1298.280	1120.284
-29.881	34.401	1297.274	1119.282
-28.867	34.410	1295.647	1117.889
-27.852	34.434	1294.465	1116.966
-26.838	34.413	1292.362	1114.986
-25.823	34.348	1291.648	1113.942
-24.809	34.343	1290.265	1112.676
-23.794	34.340	1289.142	1111.648
-22.779	34.531	1287.200	1111.041
-21.765	34.504	1286.170	1109.951
-20.750	34.356	1284.691	1107.770
-19.736	34.310	1283.567	1106.488
-18.721	34.379	1282.572	1105.989
-17.706	34.284	1281.657	1104.606
-16.692	34.249	1280.111	1103.027
-15.677	34.315	1278.955	1102.369
-14.663	34.326	1277.684	1101.294
-13.648	34.276	1276.558	1099.987
-12.633	34.237	1275.887	1099.140
-11.619	34.239	1275.256	1098.568
-10.604	34.171	1274.106	1097.143
-9.590	34.251	1273.206	1096.781
-8.575	34.116	1272.515	1095.365
-7.560	34.163	1271.403	1094.633
-6.546	34.150	1270.840	1094.030
-5.531	34.159	1269.671	1093.034
-4.517	34.357	1268.215	1092.872
-3.502	34.177	1268.113	1091.712
-2.487	34.241	1266.866	1090.958
-1.473	34.275	1262.928	1087.719
-0.458	32.937	1248.194	1067.429
0.556	28.190	1229.967	1028.459
1.571	24.298	1235.176	1010.711
2.586	23.227	1250.029	1016.623
3.600	22.492	1240.082	1004.257
4.615	17.579	1167.722	919.130
5.629	9.236	1091.545	816.847
6.644	5.312	1070.764	781.629
7.659	4.960	1067.965	777.759
8.673	5.000	1066.381	776.737
9.688	4.849	1065.290	775.119
10.702	5.262	1064.104	776.245
11.717	10.424	1071.008	806.973
12.731	17.488	1081.886	850.510
13.746	19.220	1083.175	860.102
14.761	18.059	1080.518	852.134
15.775	16.856	1078.853	844.751
16.790	15.895	1076.490	838.047
17.804	15.091	1074.927	832.756
18.819	14.826	1073.831	830.518
19.834	14.512	1072.812	828.098
20.848	14.196	1072.110	825.915
21.863	14.000	1071.144	824.126
22.877	13.906	1069.819	822.565
23.892	13.767	1069.930	821.890
24.907	13.827	1068.763	821.218
25.921	13.879	1067.596	820.505
26.936	13.899	1066.572	819.745
27.950	13.934	1065.277	818.850
28.965	13.985	1063.603	817.742
29.980	14.204	1062.007	817.518
30.994	14.209	1060.683	816.449
32.009	14.231	1059.647	815.687
33.023	14.202	1058.488	814.585
34.038	14.248	1057.455	813.942
35.053	13.995	1057.015	812.295
36.067	13.988	1055.870	811.306
37.082	14.091	1055.192	811.217
38.096	14.209	1054.186	810.950
39.111	14.088	1054.062	810.191
40.126	14.019	1052.395	808.502
41.140	13.922	1050.516	806.516
42.155	13.840	1049.632	805.367
43.169	13.855	1048.276	804.329
44.184	13.827	1047.353	803.415
45.199	13.852	1046.563	802.861
46.213	13.924	1045.757	802.515
47.228	14.009	1044.113	801.595
48.242	13.945	1043.497	800.740
49.257	14.057	1041.965	800.036
50.271	14.058	1041.404	799.536
51.286	13.974	1040.913	798.685
52.301	13.994	1039.399	797.548
53.315	13.904	1038.560	796.402
54.330	14.029	1037.336	795.992
55.344	13.949	1036.624	794.992
56.359	13.864	1035.998	794.038
57.374	14.000	1034.536	793.495
58.388	13.916	1033.966	792.587
59.403	13.836	1032.867	791.295
60.417	13.796	1032.199	790.521
61.432	13.685	1031.499	789.385
62.447	13.749	1030.316	788.716
63.461	13.758	1029.511	788.073
64.476	13.692	1028.534	786.940
65.490	13.796	1027.363	786.467
66.505	13.806	1027.280	786.385
67.520	13.757	1026.726	785.655
68.534	13.834	1025.697	785.166
69.549	13.827	1025.165	784.655
70.563	13.788	1024.595	783.963
71.578	13.570	1023.694	782.179
72.593	13.706	1022.459	781.804
73.607	13.650	1021.808	780.976
74.622	13.700	1021.207	780.681
75.636	13.696	1020.628	780.151
76.651	13.737	1019.703	779.570
77.666	13.712	1019.332	779.096
78.680	13.674	1018.534	778.242
79.695	13.765	1017.793	778.034
80.709	13.723	1017.155	777.279
81.724	13.765	1016.472	776.888
82.739	13.904	1015.635	776.829
83.753	13.914	1015.457	776.669
84.768	14.076	1014.356	776.517
85.782	14.202	1013.287	776.215
86.797	14.095	1012.975	775.409
87.812	14.109	1011.431	774.225
88.826	14.009	1010.711	773.140
89.841	13.992	1009.951	772.411
90.855	14.230	1008.711	772.496
91.870	14.211	1007.714	771.581
92.884	14.163	1007.372	771.026
93.899	14.056	1006.551	769.833
94.914	14.205	1005.325	769.516
95.928	14.241	1004.793	769.208
96.943	14.103	1004.049	767.934
97.957	14.233	1002.584	767.345
98.972	14.257	1001.644	766.665
99.987	14.243	1000.827	765.910
101.001	14.162	1000.374	765.122
102.016	14.189	999.240	764.314
103.030	14.177	998.420	763.560
104.045	14.271	997.210	763.002
105.060	14.088	996.941	761.890
106.074	14.044	995.759	760.716
107.089	13.876	994.968	759.278
108.103	13.830	993.941	758.217
109.118	13.906	992.952	757.741
110.133	13.935	992.387	757.373
111.147	13.847	991.911	756.542
112.162	13.848	990.681	755.542
113.176	13.974	989.943	755.485
114.191	14.059	989.019	755.098
115.206	13.941	988.330	753.970
116.220	13.951	987.311	753.173
117.235	13.867	986.265	751.929
118.249	13.806	985.652	751.116
119.264	13.994	984.581	751.087
120.279	13.956	983.848	750.286
121.293	13.891	983.142	749.389
122.308	13.788	982.494	748.364
123.322	13.814	981.269	747.484
124.337	13.900	979.841	746.716
125.352	13.789	979.151	745.624
126.366	13.878	977.949	745.044
127.381	13.882	977.043	744.307
128.395	13.986	975.898	743.834
129.410	13.989	975.544	743.511
130.424	13.986	974.635	742.738
131.439	14.123	973.763	742.618
132.454	14.022	973.168	741.649
133.468	14.054	972.502	741.220
134.483	14.146	971.360	740.694
135.497	14.242	970.517	740.411
136.512	14.064	969.834	739.036
137.527	14.000	969.090	738.116
138.541	14.066	968.463	737.867
139.556	14.173	967.392	737.461
140.570	14.210	966.724	737.050
141.585	14.249	966.119	736.694
142.600	14.226	965.164	735.801
143.614	14.309	964.049	735.251
144.629	14.328	963.547	734.890
145.643	14.284	962.616	733.920
146.658	14.253	961.459	732.838
147.673	14.148	960.562	731.625
148.687	14.136	959.602	730.776
149.702	14.117	958.977	730.151
150.716	14.165	958.114	729.644
151.731	14.039	957.547	728.594
152.746	14.098	956.891	728.290
153.760	14.170	956.419	728.178
154.775	14.254	955.743	727.968
155.789	14.348	955.007	727.754
156.804	14.250	954.401	726.801
157.819	14.233	953.798	726.200
158.833	14.349	952.877	725.943
159.848	14.326	952.404	725.417
160.862	14.326	951.497	724.661
161.877	14.277	950.149	723.356
162.892	14.160	949.374	722.194
163.906	14.066	948.781	721.273
164.921	14.198	947.801	721.037
165.935	14.279	946.558	720.378
166.950	14.185	946.194	719.631
167.964	14.223	945.155	718.940
168.979	14.240	944.174	718.205
169.994	14.323	943.095	717.678
171.008	14.319	942.883	717.434
172.023	14.307	942.291	716.869
173.037	14.331	941.452	716.271
174.052	14.448	940.651	716.102
175.067	14.350	939.907	715.050
176.081	14.178	939.567	713.989
177.096	14.266	938.854	713.763
178.110	14.282	938.330	713.371
179.125	14.309	937.895	713.093
180.140	14.267	937.077	712.228
181.154	14.449	936.572	712.558
182.169	14.517	936.674	712.866
183.183	14.480	935.609	711.834
184.198	14.557	934.772	711.461
185.213	14.517	934.142	710.748
186.227	14.589	933.504	710.507
187.242	14.451	933.020	709.490
188.256	14.671	932.173	709.718
189.271	14.613	931.688	709.039
190.286	14.338	930.696	707.055
191.300	14.273	929.965	706.158
192.315	14.268	929.104	705.422
193.329	14.160	928.800	704.670
194.344	14.298	928.116	704.673
195.359	14.491	927.250	704.768
196.373	14.530	926.618	704.393
197.388	14.571	926.538	704.442
198.402	14.745	926.137	704.809
199.417	14.856	925.115	704.435
200.432	14.834	924.666	703.941
201.446	14.816	924.090	703.363
202.461	15.043	923.511	703.813
203.475	14.819	923.124	702.517
204.490	14.776	922.480	701.783
205.504	14.843	921.455	701.223
206.519	14.879	920.471	700.563
207.534	14.753	920.077	699.673
208.548	14.799	919.288	699.201
209.563	14.796	918.941	698.866
210.577	14.835	917.965	698.225
211.592	14.914	917.550	698.178
212.607	14.935	916.999	697.785
213.621	14.948	916.017	697.027
214.636	14.996	915.080	696.456
215.650	14.946	914.565	695.794
216.665	15.028	913.903	695.566
217.680	15.068	913.241	695.166
218.694	15.062	912.569	694.569
219.709	15.087	911.828	694.050
220.723	15.128	911.180	693.663
221.738	15.100	910.385	692.881
222.753	14.984	910.274	692.257
223.767	15.191	909.416	692.398
224.782	15.320	908.626	692.265
225.796	15.070	908.726	691.248
226.811	15.139	907.750	690.731
227.826	15.001	906.988	689.520
228.840	15.134	905.973	689.234
229.855	15.100	905.096	688.367
230.869	15.129	904.493	687.968
231.884	15.037	904.148	687.268
232.899	15.166	903.114	686.948
233.913	15.018	902.324	685.679
234.928	14.916	902.153	685.071
235.942	15.030	901.413	684.918
236.957	14.956	901.282	684.453
237.972	15.057	900.282	684.045
238.986	15.047	899.489	683.342
240.001	15.158	898.569	683.038
241.015	15.117	898.364	682.654
242.030	15.287	897.650	682.743
243.045	15.193	896.898	681.727
244.059	15.232	896.439	681.475
245.074	15.268	895.928	681.175
246.088	15.280	895.330	680.708
247.103	15.438	894.240	680.461
248.117	15.365	894.285	680.138
249.132	15.521	893.655	680.231
250.147	15.405	893.538	679.612
251.161	15.591	892.462	679.486
252.176	15.690	891.604	679.169
253.190	15.736	890.990	678.830
254.205	15.767	890.631	678.622
255.220	15.775	889.725	677.903
256.234	15.657	889.371	677.097
257.249	15.651	888.501	676.350
258.263	15.661	887.573	675.625
259.278	15.818	886.841	675.640
260.293	15.772	886.604	675.215
261.307	15.852	886.261	675.213
262.322	15.847	885.618	674.642
263.336	15.899	884.673	674.073
264.351	15.790	884.339	673.323
265.366	15.908	883.479	673.078
266.380	15.736	882.701	671.739
267.395	15.850	882.024	671.621
268.409	15.852	881.168	670.917
269.424	15.779	880.359	669.953
270.439	15.863	879.775	669.782
271.453	15.798	879.290	669.096
272.468	15.823	878.866	668.810
273.482	15.790	878.287	668.180
274.497	15.671	877.690	667.194
275.512	15.822	877.033	667.234
276.526	15.803	876.581	666.757
277.541	15.838	876.171	666.527
278.555	16.068	875.301	666.715
279.570	16.054	874.751	666.183
280.585	16.039	873.720	665.279
281.599	15.989	873.290	664.695
282.614	16.051	872.469	664.254
283.628	16.061	872.043	663.913
284.643	15.956	871.231	662.820
285.657	16.123	870.653	662.980
286.672	16.089	869.944	662.249
287.687	16.035	869.515	661.650
288.701	16.070	868.592	661.026
289.716	16.085	868.200	660.728
290.730	16.100	868.109	660.661
291.745	16.089	867.220	659.884
292.760	16.306	866.411	660.058
293.774	16.224	865.729	659.159
294.789	16.270	865.024	658.742
295.803	16.034	864.797	657.591
296.818	16.151	863.641	657.111
297.833	16.217	863.080	656.880
298.847	16.326	862.473	656.783
299.862	16.299	862.109	656.344
300.876	16.259	861.293	655.509
301.891	16.376	860.875	655.587
302.906	16.345	860.537	655.151
303.920	16.436	860.034	655.062
304.935	16.461	859.816	654.938
305.949	16.544	858.463	654.171
306.964	16.427	857.853	653.195
307.979	16.454	857.681	653.111
308.993	16.411	857.224	652.539
310.008	16.536	856.201	652.184
311.022	16.452	855.780	651.483
312.037	16.450	855.004	650.825
313.052	16.333	854.772	650.140
314.066	16.369	854.263	649.836
315.081	16.275	853.569	648.888
316.095	16.241	852.980	648.253
317.110	16.395	852.234	648.218
318.125	16.405	852.004	648.026
319.139	16.377	851.773	647.686
320.154	16.394	850.829	646.976
321.168	16.544	849.935	646.812
322.183	16.474	849.679	646.291
323.197	16.515	849.143	645.984
324.212	16.454	848.973	645.566
325.227	16.417	848.275	644.836
326.241	16.509	847.468	644.514
327.256	16.537	846.925	644.152
328.270	16.473	846.410	643.461
329.285	16.571	845.521	643.098
330.300	16.453	845.225	642.369
331.314	16.539	844.723	642.255
332.329	16.576	844.188	641.932
333.343	16.590	844.012	641.796
334.358	16.567	843.625	641.356
335.373	16.786	842.847	641.541
336.387	16.780	842.497	641.193
337.402	16.887	842.270	641.367
338.416	16.803	842.240	640.972
339.431	16.700	842.067	640.393
340.446	16.717	841.788	640.187
341.460	16.798	840.765	639.660
342.475	17.020	840.339	640.117
343.489	17.046	839.933	639.848
344.504	16.891	839.523	638.894
345.519	17.012	839.193	639.044
346.533	16.983	838.668	638.478
347.548	16.909	838.278	637.846
348.562	16.962	837.596	637.471
349.577	16.927	836.590	636.515
350.592	16.878	836.263	636.026
351.606	16.886	835.295	635.266
352.621	16.965	834.786	635.119
353.635	16.990	834.050	634.594
354.650	16.975	833.632	634.167
355.665	17.178	832.683	634.143
356.679	17.157	831.993	633.485
357.694	17.154	831.741	633.228
358.708	17.200	831.118	632.867
359.723	16.945	830.769	631.594
360.738	17.133	829.818	631.517
361.752	17.221	829.438	631.497
362.767	17.218	828.837	630.976
363.781	17.154	828.434	630.374
364.796	17.361	828.097	630.829
365.810	17.304	827.593	630.177
366.825	17.376	827.321	630.183
367.840	17.508	826.338	629.865
368.854	17.326	826.296	629.104
369.869	17.334	826.133	628.953
370.883	17.211	825.440	627.916
371.898	17.310	825.146	628.005
372.913	17.536	824.269	628.114
373.927	17.474	823.942	627.582
374.942	17.481	823.480	627.198
375.956	17.490	823.609	627.275
376.971	17.516	823.057	626.895
377.986	17.596	822.510	626.716
379.000	17.620	821.680	626.117
380.015	17.593	821.332	625.698
381.029	17.610	820.631	625.172
382.044	17.644	820.098	624.835
383.059	17.698	819.504	624.525
384.073	17.665	818.529	623.605
385.088	17.543	818.380	622.990
386.102	17.513	817.682	622.294
387.117	17.426	817.237	621.582
388.132	17.511	816.492	621.271
389.146	17.576	816.450	621.421
390.161	17.730	815.515	621.217
391.175	17.635	815.489	620.796
392.190	17.694	814.483	620.188
393.205	17.592	814.478	619.760
394.219	17.483	813.810	618.800
395.234	17.703	813.361	619.200
396.248	17.442	813.524	618.324
397.263	17.607	812.878	618.375
398.278	17.631	812.194	617.889
399.292	17.521	811.981	617.272
400.307	17.485	811.293	616.565
401.321	17.600	810.995	616.702
402.336	17.563	810.551	616.173
403.350	17.577	809.984	615.739
404.365	17.744	809.297	615.766
405.380	17.808	808.836	615.590
406.394	17.894	808.723	615.761
407.409	17.837	808.519	615.346
408.423	17.981	808.113	615.501
409.438	17.929	807.869	615.074
410.453	18.039	807.054	614.793
411.467	18.189	806.401	614.781
412.482	18.078	805.762	613.842
413.496	18.130	805.852	614.044
414.511	18.100	805.348	613.495
415.526	18.256	804.989	613.730
416.540	17.916	804.809	612.316
417.555	18.105	803.877	612.230
418.569	18.166	803.683	612.249
419.584	18.142	802.902	611.514
420.599	18.284	802.712	611.820
421.613	153.051	1370.773	1789.844
422.628	132.669	1453.540	1789.957
