DTS Sentinel unit serial number:	SN413079Multiplexer serial number:	ORYXHardware model number:	OX4-SRSoftware version number:	ORYX F/W v4.00 Oryx Data Collector v3.7.2.0data status	okinstallation	princeton_trtdifferential loss correction	single-endedforward channel	channel 1reverse channel	N/Adate	2019/09/12time	19:32:34forward acquisition time	15.00reverse acquisition time	0.00gamma	496.2192k internal	0.2322k external	0.2322temperature offset calibration	1.0124default loss term (dB/km)	0.3790temperature slope calibration	1.0000multiplexer offset coefficient	1.0000multiplexer slope coefficient	1.0000fibre end	0.00T internal ref (°C)	32.19T ext. ref 1 (°C)	3.30T ext. ref 2 (°C)	26.81length (m)	temperature (°C)	Stokes	anti-Stokes-747.200	9.339	0.095	0.073
-746.185	-30.016	0.426	0.245
-745.171	16.366	-0.758	-0.605
-744.156	-93.647	0.855	0.238
-743.142	-200.000	0.053	0.238
-742.127	-6.633	-0.259	0.178
-741.112	138.520	-0.325	-0.431
-740.098	800.000	-0.070	0.229
-739.083	-123.591	-0.614	-0.098
-738.069	-59.793	-0.531	0.229
-737.054	-200.000	0.046	-0.450
-736.039	-77.299	-0.510	0.179
-735.025	20.856	0.869	-0.711
-734.010	-200.000	-0.019	0.392
-732.996	266.874	-0.341	0.603
-731.981	478.701	0.404	0.923
-730.966	-43.366	0.044	-0.022
-729.952	-200.000	-0.012	-0.214
-728.937	-19.265	0.752	-0.472
-727.923	416.365	-0.190	-0.410
-726.908	-49.104	-0.188	-0.091
-725.894	99.068	-0.425	-0.496
-724.879	-92.870	0.988	-0.279
-723.864	800.000	-0.182	-0.526
-722.850	35.355	0.499	-0.442
-721.835	61.636	-0.157	0.157
-720.821	800.000	-0.255	-0.836
-719.806	58.681	0.245	0.243
-718.791	366.052	0.643	1.309
-717.777	-200.000	-0.059	0.536
-716.762	-129.553	-0.579	0.081
-715.748	-46.855	-0.405	-0.200
-714.733	-136.982	0.737	0.085
-713.718	122.669	0.112	-0.141
-712.704	-129.611	-0.888	-0.124
-711.689	-37.495	1.047	-0.564
-710.675	-200.000	0.088	0.666
-709.660	-89.121	-0.657	-0.196
-708.645	-156.983	0.573	0.035
-707.631	-200.000	-0.015	-0.261
-706.616	60.545	0.308	-0.308
-705.602	-63.915	0.577	0.238
-704.587	10.927	0.277	0.214
-703.572	-159.942	-0.323	0.018
-702.558	-63.526	0.241	0.100
-701.543	49.348	0.215	-0.204
-700.529	800.000	-0.264	0.785
-699.514	310.230	-0.066	0.125
-698.499	305.382	-0.052	-0.097
-697.485	-157.164	-0.523	0.032
-696.470	-130.351	-0.428	0.059
-695.456	-200.000	-0.143	0.660
-694.441	-200.000	-0.026	0.390
-693.426	79.567	0.490	-0.530
-692.412	800.000	0.126	0.390
-691.397	126.716	0.468	-0.597
-690.383	70.678	-0.266	-0.277
-689.368	-158.318	0.558	0.033
-688.354	4.782	0.524	0.389
-687.339	-84.394	-0.242	-0.077
-686.324	800.000	0.079	-0.225
-685.310	800.000	0.171	0.736
-684.295	-200.000	-0.132	1.094
-683.281	12.780	-0.447	-0.348
-682.266	-176.169	-0.588	0.016
-681.251	442.754	-0.361	0.797
-680.237	185.283	-0.265	0.396
-679.222	-200.000	0.071	-0.669
-678.208	-200.000	-0.032	0.331
-677.193	-200.000	-0.112	-1.091
-676.178	94.476	-0.152	-0.174
-675.164	172.727	-0.393	-0.570
-674.149	-166.864	0.134	0.006
-673.135	-104.579	0.625	-0.145
-672.120	178.011	-0.373	0.549
-671.105	243.684	0.278	0.469
-670.091	-143.913	0.210	0.020
-669.076	162.844	0.212	-0.300
-668.062	800.000	0.137	0.588
-667.047	524.845	-0.154	-0.364
-666.032	-200.000	-0.061	0.423
-665.018	-83.433	-0.517	0.167
-664.003	-200.000	0.067	-0.784
-662.989	242.931	-0.337	0.569
-661.974	48.831	0.275	-0.260
-660.959	436.847	-0.284	-0.622
-659.945	365.523	0.029	-0.058
-658.930	-113.036	-0.496	-0.099
-657.916	576.001	-0.576	1.417
-656.901	-40.618	-0.293	-0.153
-655.886	-139.962	0.182	0.019
-654.872	-131.758	0.424	0.056
-653.857	-16.419	0.180	0.115
-652.843	-191.376	0.195	-0.002
-651.828	-200.000	0.014	-0.669
-650.814	-88.752	-0.742	-0.222
-649.799	-93.087	-0.357	-0.100
-648.784	-16.281	0.496	-0.317
-647.770	272.848	-0.544	-0.968
-646.755	294.990	-0.024	-0.044
-645.741	-39.703	-0.530	-0.279
-644.726	8.534	-0.611	-0.463
-643.711	-60.742	-0.510	0.217
-642.697	320.972	-0.113	0.217
-641.682	49.044	0.244	0.231
-640.668	232.559	0.318	0.526
-639.653	487.808	0.195	-0.447
-638.638	-200.000	0.111	0.643
-637.624	67.406	0.483	0.496
-636.609	111.983	0.460	-0.559
-635.595	-41.518	-0.716	-0.371
-634.580	42.231	1.020	-0.932
-633.565	515.965	0.144	-0.339
-632.551	-200.000	-0.009	0.249
-631.536	220.253	-0.250	0.402
-630.522	12.803	0.882	-0.686
-629.507	-200.000	0.010	0.391
-628.492	-122.203	0.663	-0.109
-627.478	116.791	-0.201	-0.248
-626.463	800.000	-0.118	-0.392
-625.449	-41.893	-0.272	-0.140
-624.434	67.006	0.511	0.524
-623.419	800.000	0.147	-0.413
-622.405	-101.386	-0.528	0.129
-621.390	396.059	-0.328	-0.689
-620.376	111.831	0.423	-0.514
-619.361	188.931	-0.278	-0.419
-618.346	-197.559	-0.356	-0.002
-617.332	-121.443	0.342	-0.057
-616.317	-52.854	-0.668	0.310
-615.303	156.801	-0.150	0.209
-614.288	-149.859	0.703	-0.055
-613.273	224.348	0.499	-0.810
-612.259	-69.966	-0.583	0.223
-611.244	-139.597	-0.556	-0.060
-610.230	800.000	0.084	0.331
-609.215	-58.278	0.360	0.157
-608.201	-200.000	0.114	-0.885
-607.186	481.480	-0.264	-0.602
-606.171	-29.563	-0.137	0.079
-605.157	-102.687	-0.701	0.168
-604.142	7.797	0.091	-0.068
-603.128	173.535	-0.408	0.592
-602.113	54.768	0.295	0.286
-601.098	407.569	-0.107	0.228
-600.084	-15.049	-0.834	0.537
-599.069	579.326	0.169	-0.416
-598.055	-132.593	-0.729	0.094
-597.040	32.636	-0.569	0.494
-596.025	190.162	0.229	-0.346
-595.011	-138.475	-0.496	-0.055
-593.996	-176.897	0.180	0.005
-592.982	-200.000	-0.003	0.195
-591.967	38.577	0.391	-0.351
-590.952	-41.218	0.838	-0.434
-589.938	-200.000	-0.050	0.388
-588.923	-154.775	-0.382	-0.025
-587.909	115.208	-0.223	-0.273
-586.894	243.237	0.296	-0.499
-585.879	-14.233	-0.699	-0.452
-584.865	715.376	0.364	-0.971
-583.850	79.402	0.510	0.549
-582.836	501.805	-0.096	-0.222
-581.821	-200.000	-0.094	0.540
-580.806	-200.000	0.043	0.270
-579.792	-66.161	0.167	0.067
-578.777	532.814	-0.288	0.685
-577.763	135.899	-0.601	0.786
-576.748	800.000	0.409	-1.220
-575.733	692.296	0.054	0.142
-574.719	-60.079	0.430	0.184
-573.704	-84.827	-0.836	-0.264
-572.690	11.072	0.195	-0.149
-571.675	-93.882	0.998	0.276
-570.661	343.845	-0.222	0.437
-569.646	192.314	-0.348	-0.527
-568.631	276.553	0.526	0.937
-567.617	118.617	0.226	-0.281
-566.602	-200.000	0.029	0.406
-565.588	-39.214	0.885	0.466
-564.573	4.912	0.625	0.461
-563.558	800.000	0.219	0.764
-562.544	347.138	-0.211	0.417
-561.529	-14.608	-0.067	0.043
-560.515	182.870	0.271	0.401
-559.500	-106.559	-0.160	0.036
-558.485	-93.756	-0.332	0.092
-557.471	280.143	-0.201	-0.360
-556.456	-200.000	0.050	0.303
-555.442	-64.235	-0.306	0.125
-554.427	-125.095	0.600	-0.092
-553.412	343.026	-0.229	0.450
-552.398	36.000	-0.523	-0.462
-551.383	561.278	0.254	-0.615
-550.369	525.427	0.214	-0.506
-549.354	-5.935	0.027	0.018
-548.339	343.856	-0.391	-0.768
-547.325	229.693	0.415	-0.680
-546.310	-200.000	0.067	-0.307
-545.296	128.388	0.385	0.492
-544.281	332.444	0.625	-1.209
-543.266	-123.105	-0.527	0.085
-542.252	159.514	0.430	-0.600
-541.237	-193.776	0.515	0.004
-540.223	-39.685	-0.746	0.391
-539.208	-58.823	-0.408	0.177
-538.193	-21.071	0.340	0.209
-537.179	97.933	0.485	0.559
-536.164	-53.617	-0.665	0.305
-535.150	44.397	0.311	0.286
-534.135	251.096	-0.375	0.639
-533.121	-200.000	0.006	0.746
-532.106	92.027	0.214	0.241
-531.091	800.000	-0.258	-0.840
-530.077	-62.792	0.288	0.119
-529.062	197.804	-0.185	0.282
-528.048	333.135	0.040	0.077
-527.033	-94.548	-0.500	0.137
-526.018	144.913	-0.229	0.306
-525.004	-157.627	-0.777	-0.047
-523.989	159.217	-0.059	-0.082
-522.975	-57.512	-0.563	-0.248
-521.960	800.000	0.119	-0.455
-520.945	272.323	-0.372	0.657
-519.931	116.343	0.510	-0.626
-518.916	73.135	-0.476	-0.498
-517.902	420.653	0.232	0.498
-516.887	-125.608	0.811	-0.123
-515.872	783.894	-0.209	-0.574
-514.858	36.855	0.667	0.590
-513.843	-118.292	-0.173	-0.031
-512.829	28.656	-0.122	-0.103
-511.814	30.161	0.421	-0.359
-510.799	83.545	-0.342	-0.374
-509.785	302.027	-0.322	-0.596
-508.770	137.904	0.243	-0.318
-507.756	505.480	0.170	-0.393
-506.741	-200.000	0.030	-0.649
-505.726	-62.249	0.510	-0.213
-504.712	-54.016	-0.282	-0.129
-503.697	52.225	0.178	0.170
-502.683	108.677	-0.264	0.316
-501.668	-200.000	0.033	0.448
-500.653	-116.248	-0.247	-0.046
-499.639	-29.724	0.449	0.257
-498.624	-143.771	0.387	0.037
-497.610	-200.000	0.013	-0.679
-496.595	-4.628	-0.385	0.266
-495.581	141.664	0.353	-0.468
-494.566	-200.000	-0.035	-0.210
-493.551	41.640	-0.735	0.667
-492.537	50.374	0.113	-0.106
-491.522	-120.274	-0.167	-0.029
-490.508	206.633	-0.320	0.499
-489.493	-102.840	-0.673	0.160
-488.478	-171.846	0.361	0.012
-487.464	-85.328	-0.179	-0.056
-486.449	599.879	-0.286	-0.709
-485.435	-29.002	-0.376	-0.216
-484.420	14.680	-0.326	-0.255
-483.405	193.666	-0.194	-0.294
-482.391	87.496	-0.173	-0.192
-481.376	-83.274	-0.613	-0.197
-480.362	-147.884	0.463	-0.039
-479.347	-93.765	-0.232	0.064
-478.332	534.258	-0.104	0.247
-477.318	51.840	0.415	0.395
-476.303	74.602	0.287	0.302
-475.289	122.063	-0.326	-0.407
-474.274	-105.324	-0.367	0.084
-473.259	-200.000	0.010	-0.496
-472.245	-200.000	-0.091	-0.575
-471.230	-130.623	0.422	0.057
-470.216	-55.464	0.867	0.389
-469.201	800.000	0.143	-0.429
-468.186	-200.000	-0.028	0.742
-467.172	-165.309	0.797	0.035
-466.157	-123.285	0.709	0.113
-465.143	-39.378	-0.835	0.438
-464.128	-137.609	0.634	-0.071
-463.113	-200.000	0.049	-0.585
-462.099	-41.783	-0.189	-0.097
-461.084	-26.550	0.653	0.382
-460.070	29.456	-0.075	-0.064
-459.055	-104.506	0.810	-0.187
-458.040	-200.000	0.259	-1.288
-457.026	30.272	0.566	-0.483
-456.011	800.000	-0.053	0.164
-454.997	-200.000	-0.077	0.840
-453.982	420.030	0.614	-1.314
-452.968	56.648	0.405	0.394
-451.953	611.429	0.268	-0.669
-450.938	800.000	-0.297	-0.930
-449.924	89.053	-0.128	-0.142
-448.909	-33.642	-0.337	-0.186
-447.895	-200.000	0.010	-0.117
-446.880	125.296	-0.348	-0.438
-445.865	800.000	-0.052	-0.193
-444.851	10.637	0.322	-0.246
-443.836	-81.274	0.367	0.121
-442.822	-106.736	-0.729	-0.162
-441.807	361.773	0.559	1.120
-440.792	326.315	0.570	1.090
-439.778	-64.132	-0.826	-0.336
-438.763	800.000	-0.116	-0.469
-437.749	49.259	-0.349	0.328
-436.734	-200.000	-0.108	1.001
-435.719	-200.000	-0.032	-0.217
-434.705	-96.476	-0.512	-0.135
-433.690	800.000	0.204	-0.624
-432.676	-200.000	-0.008	-0.565
-431.661	800.000	0.274	-1.035
-430.646	-112.534	0.793	-0.158
-429.632	-149.658	-0.970	0.076
-428.617	61.973	0.408	0.405
-427.603	-158.102	-0.792	-0.046
-426.588	201.112	-0.307	-0.472
-425.573	680.388	-0.328	0.852
-424.559	-22.874	0.045	0.027
-423.544	-58.361	-0.223	0.097
-422.530	226.539	-0.227	-0.367
-421.515	-65.055	0.573	-0.231
-420.500	45.725	0.318	0.293
-419.486	-91.825	0.615	0.174
-418.471	-200.000	-0.033	-0.674
-417.457	-168.945	-0.399	-0.015
-416.442	-153.049	0.485	0.034
-415.428	-88.326	-0.350	0.104
-414.413	-200.000	0.005	0.038
-413.398	70.945	0.331	-0.342
-412.384	-82.964	0.196	-0.063
-411.369	-83.897	0.184	0.058
-410.355	-200.000	-0.040	-0.263
-409.340	-64.426	0.550	0.223
-408.325	-163.242	-0.635	0.030
-407.311	25.331	0.464	-0.384
-406.296	-100.037	-0.872	-0.217
-405.282	-130.741	0.543	0.073
-404.267	126.412	0.226	-0.285
-403.252	650.620	-0.095	0.242
-402.238	238.201	0.293	0.485
-401.223	697.884	-0.201	-0.527
-400.209	-28.061	0.965	-0.556
-399.194	53.638	-1.080	-1.034
-398.179	168.082	-0.389	0.551
-397.165	-200.000	0.026	0.165
-396.150	-33.660	0.450	0.248
-395.136	69.039	-0.349	-0.358
-394.121	688.664	-0.123	0.322
-393.106	137.137	-0.343	0.447
-392.092	90.131	0.322	0.358
-391.077	-92.803	-0.469	0.131
-390.063	-153.007	-0.434	0.030
-389.048	-200.000	-0.007	-0.368
-388.033	-128.744	-1.195	0.168
-387.019	800.000	-0.062	0.214
-386.004	-106.975	0.307	-0.068
-384.990	800.000	0.031	0.105
-383.975	175.554	0.118	-0.170
-382.960	-200.000	0.058	-0.265
-381.946	-200.000	-0.075	0.839
-380.931	2.378	-0.150	0.108
-379.917	331.912	-0.445	-0.855
-378.902	-158.287	-0.566	0.033
-377.888	563.276	0.174	-0.420
-376.873	-117.243	0.243	-0.044
-375.858	139.840	0.070	0.092
-374.844	-40.377	0.454	0.235
-373.829	-0.617	-0.159	0.113
-372.815	-12.930	0.257	-0.166
-371.800	-150.889	-0.387	0.029
-370.785	71.414	0.375	0.387
-369.771	-144.090	0.470	0.044
-368.756	6.968	-0.862	0.639
-367.742	-10.672	-0.568	0.374
-366.727	-200.000	-0.027	0.200
-365.712	340.874	0.259	-0.504
-364.698	135.663	0.371	0.481
-363.683	119.304	0.227	0.280
-362.669	0.715	0.362	-0.258
-361.654	440.288	0.129	0.280
-360.639	5.944	-0.397	-0.293
-359.625	23.615	0.391	-0.320
-358.610	-27.361	-0.083	0.048
-357.596	152.418	-0.223	0.302
-356.581	235.024	-0.402	0.660
-355.566	11.740	0.546	-0.417
-354.552	-149.632	-1.418	0.111
-353.537	154.713	-0.653	-0.892
-352.523	-20.850	0.497	-0.303
-351.508	-200.000	0.002	0.049
-350.493	764.279	-0.025	0.067
-349.479	-134.980	0.326	0.039
-348.464	-42.268	0.792	-0.403
-347.450	36.916	0.157	0.138
-346.435	-12.800	-0.365	-0.236
-345.420	-76.144	-0.134	0.047
-344.406	195.247	0.254	-0.384
-343.391	732.528	-0.143	0.380
-342.377	100.192	-0.541	-0.624
-341.362	-175.465	-0.611	0.017
-340.348	64.765	-0.117	0.117
-339.333	78.830	0.538	-0.572
-338.318	-200.000	0.105	-0.476
-337.304	3.518	-0.115	-0.083
-336.289	-15.785	-0.513	0.325
-335.275	-200.000	0.062	0.537
-334.260	709.419	0.148	0.390
-333.245	-200.000	0.068	-1.127
-332.231	89.851	-0.256	-0.284
-331.216	-97.030	0.105	0.027
-330.202	-75.149	0.225	0.080
-329.187	-34.007	-0.554	-0.303
-328.172	14.824	0.434	-0.337
-327.158	-134.894	-0.320	-0.039
-326.143	0.180	-0.689	0.489
-325.129	-200.000	0.025	0.440
-324.114	553.631	0.253	0.606
-323.099	-72.594	-0.492	0.181
-322.085	-200.000	0.059	-1.115
-321.070	-200.000	0.105	-0.730
-320.056	336.128	-0.163	0.315
-319.041	-131.685	0.851	0.111
-318.026	111.180	0.469	0.561
-317.012	-161.279	-1.469	0.076
-315.997	603.090	-0.115	-0.284
-314.983	-41.276	0.255	0.130
-313.968	800.000	0.093	0.275
-312.953	-124.357	0.370	-0.057
-311.939	-126.164	0.230	0.034
-310.924	639.843	-0.182	0.461
-309.910	-200.000	0.021	-0.189
-308.895	153.955	-0.394	-0.536
-307.880	15.603	-0.605	0.472
-306.866	-182.164	-0.616	-0.011
-305.851	226.703	0.433	-0.698
-304.837	-200.000	0.018	-0.387
-303.822	-114.027	-0.354	0.068
-302.807	-61.429	-0.475	0.198
-301.793	800.000	0.108	0.463
-300.778	-22.593	0.961	0.577
-299.764	-95.549	0.424	0.113
-298.749	-200.000	-0.033	0.326
-297.735	257.897	-0.491	0.838
-296.720	156.598	-0.497	0.682
-295.705	767.587	0.198	0.535
-294.691	-200.000	-0.002	-0.487
-293.676	800.000	0.149	-0.482
-292.662	-200.000	-0.083	0.442
-291.647	-121.529	-0.378	0.062
-290.632	-121.357	-0.762	0.126
-289.618	800.000	0.143	-0.550
-288.603	-48.254	0.492	0.236
-287.589	28.223	-0.081	0.068
-286.574	43.814	-0.501	0.456
-285.559	182.670	0.706	1.033
-284.545	10.012	0.590	0.445
-283.530	47.507	0.844	0.781
-282.516	300.215	0.265	0.485
-281.501	-200.000	-0.066	-0.459
-280.486	-200.000	-0.050	-0.406
-279.472	674.354	-0.336	-0.866
-278.457	-200.000	-0.022	0.213
-277.443	800.000	0.045	-0.169
-276.428	15.711	1.010	-0.788
-275.413	-62.466	0.682	0.281
-274.399	-200.000	-0.085	1.224
-273.384	-97.002	0.685	-0.178
-272.370	113.968	-0.169	-0.204
-271.355	-107.125	-1.061	0.232
-270.340	8.403	0.280	0.209
-269.326	494.910	0.111	0.254
-268.311	-175.280	0.278	-0.008
-267.297	800.000	0.330	1.035
-266.282	105.728	-0.217	0.255
-265.267	197.162	-0.274	-0.415
-264.253	-11.184	-0.287	-0.187
-263.238	-146.298	-0.701	0.061
-262.224	19.965	0.593	-0.474
-261.209	369.104	0.324	0.650
-260.195	-3.548	0.823	0.568
-259.180	800.000	-0.323	1.079
-258.165	-36.968	-0.548	-0.291
-257.151	-200.000	0.055	0.394
-256.136	82.830	0.479	0.516
-255.122	-156.012	-0.209	-0.013
-254.107	197.961	0.377	0.571
-253.092	678.971	0.256	0.659
-252.078	584.669	0.598	1.458
-251.063	-200.000	0.232	1.058
-250.049	477.623	-0.232	0.520
-249.034	82.178	0.212	-0.228
-248.019	-56.353	-0.698	-0.307
-247.005	645.641	0.041	-0.104
-245.990	800.000	0.359	1.190
-244.976	99.164	0.470	0.539
-243.961	383.224	-0.226	0.460
-242.946	-200.000	-0.110	0.789
-241.932	800.000	-0.111	-0.321
-240.917	34.489	-0.531	-0.460
-239.903	-200.000	-0.065	-0.335
-238.888	-193.188	-0.469	-0.004
-237.873	-28.926	-0.780	0.444
-236.859	-83.016	-0.710	-0.227
-235.844	204.028	-0.313	0.481
-234.830	-128.385	0.361	0.051
-233.815	800.000	0.058	0.236
-232.800	-200.000	-0.037	-0.650
-231.786	-65.301	0.102	0.041
-230.771	340.823	-0.064	-0.123
-229.757	0.134	0.583	-0.412
-228.742	-200.000	-0.063	-0.604
-227.727	114.575	0.186	-0.224
-226.713	-200.000	0.061	0.473
-225.698	800.000	-0.204	0.590
-224.684	-59.886	0.645	-0.273
-223.669	800.000	-0.141	0.529
-222.655	65.773	0.377	0.379
-221.640	-56.333	-0.321	-0.141
-220.625	489.888	-0.208	-0.470
-219.611	-52.252	0.568	0.261
-218.596	-47.291	-0.059	0.029
-217.582	-200.000	0.082	-0.432
-216.567	39.766	-0.123	-0.109
-215.552	50.077	0.801	0.748
-214.538	-200.000	-0.032	-1.021
-213.523	-141.671	0.885	-0.088
-212.509	-173.708	-0.491	0.014
-211.494	374.571	-0.423	0.853
-210.479	-28.468	-0.641	-0.366
-209.465	151.329	0.051	-0.069
-208.450	580.527	0.323	-0.783
-207.436	573.944	0.296	0.715
-206.421	-57.005	0.296	0.129
-205.406	-155.516	0.633	0.040
-204.392	-52.976	-0.425	-0.193
-203.377	-121.650	-0.623	0.102
-202.363	800.000	0.291	0.894
-201.348	-87.536	0.505	-0.151
-200.333	800.000	0.229	0.698
-199.319	800.000	-0.269	0.833
-198.304	-122.870	0.262	-0.042
-197.290	-200.000	0.299	0.001
-196.275	800.000	0.080	0.270
-195.260	123.733	-0.333	-0.413
-194.246	-200.000	0.052	0.317
-193.231	-106.138	-0.573	-0.127
-192.217	-153.519	-0.593	-0.041
-191.202	91.557	0.413	-0.459
-190.187	-200.000	0.089	0.611
-189.173	591.941	0.189	-0.461
-188.158	-200.000	-0.153	-0.921
-187.144	74.705	0.436	-0.454
-186.129	-200.000	-0.008	0.172
-185.114	-109.951	0.582	-0.121
-184.100	-200.000	0.127	-0.955
-183.085	-200.000	0.023	-0.857
-182.071	-30.968	-0.660	0.368
-181.056	-200.000	0.008	-0.183
-180.042	60.893	0.386	0.378
-179.027	-188.136	-0.739	0.009
-178.012	-16.537	0.117	-0.073
-176.998	-35.106	0.240	-0.129
-175.983	277.746	0.209	-0.368
-174.969	-64.575	0.332	-0.133
-173.954	-90.268	-0.714	-0.205
-172.939	-111.865	0.674	0.135
-171.925	152.169	0.248	0.335
-170.910	-50.527	-0.479	-0.223
-169.896	95.202	0.197	0.222
-168.881	322.229	0.312	0.587
-167.866	22.998	-0.017	-0.014
-166.852	-122.244	-0.542	-0.088
-165.837	-107.368	0.381	-0.083
-164.823	-200.000	-0.042	-0.286
-163.808	-58.915	-0.295	-0.126
-162.793	-36.177	0.237	-0.126
-161.779	800.000	-0.082	0.285
-160.764	605.925	-0.197	0.486
-159.750	-114.871	0.655	-0.123
-158.735	34.134	0.211	0.182
-157.720	-70.836	0.665	-0.248
-156.706	-5.137	-0.558	0.379
-155.691	-4.643	-0.799	-0.545
-154.677	417.691	-0.214	0.451
-153.662	188.691	0.325	-0.480
-152.647	-186.275	-0.591	0.008
-151.633	245.642	-0.205	-0.340
-150.618	165.223	-0.208	-0.289
-149.604	72.252	0.159	0.163
-148.589	-200.000	-0.105	0.714
-147.574	93.584	-0.122	0.136
-146.560	800.000	-0.152	-0.455
-145.545	-200.000	0.001	0.344
-144.531	-111.370	0.346	-0.070
-143.516	16.111	-0.321	-0.250
-142.502	-153.457	0.091	0.006
-141.487	-71.338	-0.041	-0.015
-140.472	-196.129	-0.745	-0.005
-139.458	-71.259	-0.312	-0.116
-138.443	-200.000	-0.124	0.693
-137.429	474.801	-0.100	0.223
-136.414	-194.480	-0.324	0.003
-135.399	-28.764	0.800	-0.454
-134.385	-76.677	0.368	-0.127
-133.370	-124.541	0.471	-0.072
-132.356	-39.246	0.611	0.317
-131.341	-200.000	-0.058	0.952
-130.326	33.101	0.734	0.628
-129.312	-200.000	-0.004	-0.123
-128.297	-59.608	-0.844	0.357
-127.283	75.728	-0.186	-0.194
-126.268	-11.282	0.412	-0.268
-125.253	23.700	0.409	0.332
-124.239	355.500	-0.267	0.523
-123.224	104.525	-0.578	-0.671
-122.210	-19.620	0.569	-0.347
-121.195	-129.154	-0.332	0.046
-120.180	-35.578	1.171	0.627
-119.166	52.332	0.597	-0.561
-118.151	-142.234	0.980	-0.096
-117.137	-200.000	0.109	-0.711
-116.122	452.126	0.189	0.411
-115.107	-200.000	-0.070	-0.317
-114.093	-187.166	-0.793	0.011
-113.078	165.254	0.462	-0.643
-112.064	-200.000	-0.016	-0.418
-111.049	-200.000	0.004	-0.428
-110.034	95.480	-0.471	0.529
-109.020	-200.000	-0.322	0.001
-108.005	23.126	0.293	-0.237
-106.991	-192.900	-0.873	-0.008
-105.976	800.000	0.178	-0.532
-104.962	-200.000	-0.080	-0.535
-103.947	-159.553	0.718	-0.039
-102.932	605.332	-0.100	-0.246
-101.918	411.179	-0.166	0.347
-100.903	534.128	-0.197	0.460
-99.889	-157.659	-0.551	0.032
-98.874	-85.317	-0.301	0.092
-97.859	624.720	-0.092	0.229
-96.845	69.405	0.468	-0.475
-95.830	-21.081	-0.340	-0.205
-94.816	2.561	0.302	-0.215
-93.801	-50.087	-0.597	0.279
-92.786	87.795	-0.175	0.191
-91.772	-200.000	0.042	0.498
-90.757	150.458	-0.477	-0.638
-89.743	-144.836	-0.397	0.036
-88.728	-200.000	-0.058	0.679
-87.713	-200.000	-0.112	0.489
-86.699	84.139	0.539	0.580
-85.684	378.929	-0.102	-0.205
-84.670	242.205	-0.322	-0.530
-83.655	24.630	-0.327	-0.266
-82.640	-145.322	-0.320	-0.028
-81.626	800.000	-0.150	-0.452
-80.611	800.000	0.173	-0.579
-79.597	35.506	0.150	-0.130
-78.582	50.813	-0.527	-0.491
-77.567	-100.656	-0.737	-0.179
-76.553	-28.994	0.711	-0.402
-75.538	95.082	0.320	0.358
-74.524	800.000	-0.159	0.599
-73.509	109.139	0.555	0.654
-72.494	302.091	0.118	-0.215
-71.480	137.203	-0.540	-0.694
-70.465	256.257	-0.048	-0.081
-69.451	-178.577	0.206	-0.005
-68.436	156.386	-0.219	0.297
-67.422	74.765	0.104	-0.107
-66.407	-88.874	-0.130	0.038
-65.392	38.276	-0.635	-0.556
-64.378	800.000	-0.170	0.708
-63.363	173.199	0.473	-0.672
-62.349	-200.000	-0.220	-0.950
-61.334	54.584	-1.171	-1.111
-60.319	19.489	0.543	0.429
-59.305	435.811	-0.468	-1.002
-58.290	-43.839	1.277	0.632
-57.276	535.751	0.748	1.745
-56.261	-200.000	95.845	593.971
-55.246	668.428	1354.685	3446.945
-54.232	204.393	2518.253	3839.509
-53.217	119.556	2118.813	2580.838
-52.203	44.240	1590.457	1435.329
-51.188	35.660	1330.569	1149.697
-50.173	32.641	1289.274	1096.440
-49.159	55.430	1339.788	1275.078
-48.144	56.357	1355.963	1295.914
-47.130	35.750	1314.715	1136.349
-46.115	32.519	1296.278	1101.510
-45.100	32.232	1291.042	1095.341
-44.086	32.217	1288.608	1093.149
-43.071	32.074	1286.075	1090.123
-42.057	31.827	1285.495	1088.158
-41.042	32.053	1282.884	1087.211
-40.027	32.018	1281.270	1085.598
-39.013	32.186	1279.386	1084.927
-37.998	32.161	1277.574	1083.208
-36.984	32.138	1275.466	1081.240
-35.969	32.195	1274.076	1080.349
-34.954	32.056	1272.526	1078.191
-33.940	32.179	1270.600	1077.226
-32.925	32.222	1269.889	1076.823
-31.911	32.221	1268.618	1075.698
-30.896	32.424	1265.730	1074.365
-29.881	32.444	1265.197	1073.987
-28.867	32.299	1264.286	1072.345
-27.852	32.296	1263.055	1071.237
-26.838	32.401	1261.325	1070.325
-25.823	32.341	1259.869	1068.705
-24.809	32.372	1258.379	1067.577
-23.794	32.088	1257.405	1065.098
-22.779	32.146	1255.195	1063.510
-21.765	32.153	1255.343	1063.635
-20.750	32.204	1253.710	1062.496
-19.736	32.191	1252.548	1061.395
-18.721	32.035	1251.310	1059.425
-17.706	32.215	1250.048	1059.328
-16.692	32.150	1248.587	1057.685
-15.677	32.100	1248.328	1057.141
-14.663	32.434	1246.556	1057.478
-13.648	32.084	1245.184	1054.306
-12.633	31.970	1244.562	1053.098
-11.619	32.329	1242.936	1053.691
-10.604	32.103	1242.252	1051.806
-9.590	32.164	1242.097	1051.973
-8.575	32.054	1241.240	1050.588
-7.560	32.025	1240.588	1049.832
-6.546	32.328	1238.356	1049.596
-5.531	31.891	1238.956	1047.618
-4.517	31.964	1237.873	1047.068
-3.502	31.896	1236.649	1045.616
-2.487	32.089	1235.900	1046.017
-1.473	32.110	1231.716	1042.548
-0.458	30.693	1215.935	1021.380
0.556	28.098	1198.772	982.253
1.571	24.315	1203.643	965.713
2.586	23.075	1219.774	971.759
3.600	22.584	1208.541	960.054
4.615	16.906	1136.616	873.660
5.629	7.684	1060.228	770.358
6.644	3.543	1041.866	737.196
7.659	3.422	1038.882	734.440
8.673	3.190	1036.859	731.845
9.688	3.046	1036.924	731.139
10.702	3.517	1035.431	732.258
11.717	9.229	1043.584	765.223
12.731	18.625	1056.071	819.395
13.746	23.709	1061.991	848.262
14.761	24.519	1061.980	852.046
15.775	24.255	1061.238	850.118
16.790	23.526	1061.071	846.432
17.804	23.186	1058.931	843.028
18.819	23.214	1059.574	843.601
19.834	23.401	1059.160	844.084
20.848	23.632	1058.344	844.459
21.863	23.669	1057.834	844.157
22.877	23.361	1056.901	841.874
23.892	23.202	1055.718	840.102
24.907	23.049	1055.658	839.252
25.921	23.254	1052.186	837.389
26.936	23.136	1052.489	836.996
27.950	23.161	1050.210	835.227
28.965	23.172	1049.619	834.737
29.980	23.121	1048.727	833.713
30.994	23.449	1046.653	833.536
32.009	23.342	1046.932	833.177
33.023	23.396	1046.010	832.622
34.038	23.362	1044.463	831.159
35.053	23.055	1043.896	829.195
36.067	22.928	1043.750	828.409
37.082	22.945	1043.375	828.120
38.096	23.430	1041.103	828.513
39.111	23.296	1041.796	828.362
40.126	23.371	1040.209	827.376
41.140	22.951	1038.625	824.087
42.155	22.550	1037.168	820.988
43.169	22.621	1034.975	819.509
44.184	22.454	1035.187	818.831
45.199	22.486	1034.266	818.179
46.213	22.772	1033.503	818.829
47.228	23.047	1033.864	820.318
48.242	23.420	1031.653	820.217
49.257	23.566	1030.735	820.089
50.271	23.415	1031.366	819.818
51.286	23.559	1029.776	819.149
52.301	23.250	1030.494	818.220
53.315	23.379	1028.184	816.910
54.330	23.320	1027.102	815.704
55.344	23.239	1026.216	814.557
56.359	23.174	1025.187	813.370
57.374	23.105	1023.842	811.911
58.388	22.848	1023.156	810.116
59.403	22.671	1022.616	808.807
60.417	22.646	1021.732	807.923
61.432	22.677	1021.876	808.106
62.447	22.888	1020.138	807.627
63.461	22.636	1019.383	805.803
64.476	22.633	1018.432	804.970
65.490	22.656	1017.055	803.911
66.505	22.528	1017.820	803.864
67.520	22.723	1017.103	804.112
68.534	22.256	1015.904	800.969
69.549	22.119	1015.950	800.309
70.563	22.069	1014.643	798.983
71.578	22.032	1012.830	797.317
72.593	21.582	1011.901	794.471
73.607	22.020	1011.365	795.970
74.622	22.206	1011.036	796.482
75.636	22.241	1010.637	796.256
76.651	21.749	1009.534	793.089
77.666	22.099	1009.796	794.810
78.680	22.161	1008.040	793.638
79.695	21.919	1008.351	792.718
80.709	22.401	1007.179	793.899
81.724	22.611	1006.838	794.506
82.739	22.682	1005.758	793.907
83.753	23.241	1005.503	796.149
84.768	23.785	1003.647	797.051
85.782	23.920	1004.360	798.151
86.797	23.651	1003.707	796.354
87.812	23.412	1003.121	794.749
88.826	23.578	1001.160	793.865
89.841	23.667	1001.254	794.270
90.855	23.633	999.762	792.864
91.870	23.645	999.082	792.308
92.884	23.776	997.462	791.537
93.899	23.467	996.735	789.514
94.914	23.595	996.496	789.826
95.928	23.417	995.493	788.167
96.943	22.994	994.268	785.250
97.957	23.157	992.581	784.572
98.972	23.445	991.837	785.191
99.987	23.526	991.643	785.324
101.001	23.559	989.766	783.916
102.016	23.275	988.668	781.721
103.030	23.293	990.306	783.026
104.045	23.288	988.918	781.837
105.060	23.147	988.138	780.531
106.074	23.000	987.419	779.245
107.089	23.214	985.682	778.748
108.103	22.918	984.336	776.314
109.118	22.530	983.070	773.544
110.133	22.249	982.420	771.732
111.147	22.220	981.407	770.739
112.162	22.438	979.762	770.333
113.176	22.863	979.616	772.009
114.191	22.694	979.198	770.872
115.206	22.639	978.393	769.930
116.220	22.591	977.786	769.174
117.235	22.473	975.943	767.147
118.249	22.446	974.956	766.182
119.264	22.395	974.091	765.212
120.279	22.050	973.284	763.011
121.293	21.979	972.965	762.388
122.308	22.039	971.680	761.573
123.322	21.812	970.574	759.656
124.337	22.016	969.660	759.755
125.352	22.013	968.318	758.625
126.366	22.158	966.884	758.059
127.381	22.315	966.924	758.700
128.395	22.827	965.630	759.824
129.410	22.464	965.557	758.134
130.424	22.899	964.989	759.493
131.439	22.921	964.887	759.442
132.454	22.669	963.620	757.295
133.468	22.822	962.844	757.275
134.483	22.528	962.930	756.011
135.497	22.837	962.079	756.603
136.512	22.876	960.387	755.373
137.527	22.939	960.188	755.420
138.541	22.822	959.899	754.623
139.556	23.032	958.806	754.594
140.570	23.341	958.229	755.391
141.585	23.482	957.818	755.603
142.600	23.495	956.485	754.539
143.614	23.640	955.951	754.666
144.629	23.835	955.524	755.090
145.643	23.719	953.635	753.042
146.658	23.377	952.610	750.714
147.673	23.107	951.211	748.405
148.687	23.206	949.196	747.171
149.702	22.890	949.535	746.036
150.716	23.003	948.406	745.562
151.731	23.006	948.417	745.514
152.746	23.220	947.510	745.637
153.760	23.411	945.973	745.167
154.775	23.277	947.040	745.375
155.789	23.417	945.956	745.046
156.804	23.341	944.439	743.465
157.819	23.718	943.539	744.274
158.833	23.416	944.277	743.520
159.848	23.582	943.812	743.787
160.862	23.736	941.271	742.361
161.877	23.146	940.972	739.593
162.892	22.690	939.731	736.648
163.906	22.958	938.252	736.541
164.921	22.780	937.408	735.073
165.935	23.025	936.278	735.142
166.950	22.936	936.918	735.206
167.964	22.933	935.956	734.376
168.979	22.984	934.375	733.283
169.994	23.101	932.967	732.595
171.008	23.101	932.138	731.882
172.023	23.240	932.797	732.910
173.037	23.112	932.618	732.174
174.052	23.255	931.556	731.867
175.067	22.860	930.544	729.374
176.081	22.864	928.286	727.558
177.096	22.653	928.360	726.682
178.110	22.647	927.507	725.924
179.125	22.545	927.003	725.048
180.140	22.704	926.617	725.334
181.154	23.047	926.252	726.394
182.169	23.625	926.368	728.794
183.183	23.390	925.953	727.439
184.198	23.454	924.158	726.227
185.213	23.301	924.345	725.683
186.227	23.532	922.683	725.260
187.242	23.362	922.373	724.254
188.256	23.492	921.473	724.016
189.271	23.550	921.714	724.377
190.286	22.960	920.245	720.751
191.300	22.623	919.399	718.653
192.315	22.540	918.439	717.499
193.329	22.529	918.523	717.458
194.344	22.548	917.632	716.775
195.359	22.875	917.888	718.244
196.373	23.159	917.376	718.935
197.388	23.287	917.404	719.410
198.402	23.529	916.933	719.960
199.417	23.645	915.887	719.545
200.432	23.878	915.729	720.303
201.446	23.941	915.057	719.964
202.461	24.144	914.818	720.533
203.475	23.517	913.554	716.941
204.490	23.018	912.331	713.903
205.504	23.200	911.790	714.150
206.519	23.084	910.819	712.859
207.534	23.451	910.392	713.940
208.548	23.584	909.190	713.469
209.563	23.258	909.272	712.161
210.577	23.489	908.968	712.787
211.592	23.837	907.460	712.939
212.607	23.842	906.897	712.452
213.621	23.981	906.730	712.814
214.636	23.946	906.091	712.111
215.650	23.759	904.448	710.007
216.665	23.465	904.639	708.921
217.680	23.519	904.411	708.896
218.694	23.482	903.993	708.359
219.709	23.853	902.413	708.535
220.723	23.437	902.534	706.907
221.738	23.145	901.715	705.042
222.753	23.540	900.830	705.860
223.767	23.615	900.388	705.750
224.782	23.609	899.835	705.231
225.796	23.660	899.993	705.492
226.811	23.610	898.273	703.885
227.826	23.382	897.554	702.357
228.840	23.116	897.570	701.249
229.855	23.370	895.730	700.757
230.869	22.956	895.948	699.225
231.884	23.273	894.242	699.085
232.899	23.294	894.038	698.946
233.913	23.129	893.304	697.661
234.928	23.168	893.185	697.661
235.942	22.696	892.229	694.990
236.957	22.815	891.639	694.937
237.972	22.909	891.163	694.874
238.986	22.925	890.029	693.995
240.001	22.630	890.487	693.129
241.015	23.130	888.848	693.754
242.030	23.441	888.408	694.569
243.045	23.331	887.790	693.593
244.059	23.284	887.997	693.510
245.074	23.269	888.326	693.645
246.088	23.081	888.152	692.711
247.103	23.889	886.874	694.812
248.117	24.180	886.575	695.653
249.132	24.463	886.730	696.820
250.147	24.560	885.620	696.263
251.161	24.833	885.324	697.031
252.176	24.706	884.728	696.008
253.190	24.706	883.777	695.195
254.205	24.646	883.351	694.569
255.220	24.252	884.169	693.614
256.234	24.149	883.269	692.449
257.249	24.224	881.998	691.680
258.263	24.330	880.909	691.177
259.278	24.733	878.735	690.966
260.293	24.185	880.001	689.779
261.307	24.440	879.627	690.414
262.322	24.410	878.721	689.527
263.336	24.438	877.938	688.958
264.351	24.510	876.163	687.781
265.366	24.054	876.444	686.183
266.380	24.557	875.739	687.509
267.395	24.609	874.459	686.642
268.409	24.341	874.366	685.479
269.424	24.384	873.621	685.000
270.439	24.366	872.279	683.817
271.453	24.303	871.335	682.773
272.468	24.260	871.984	683.057
273.482	24.607	870.517	683.176
274.497	23.983	870.739	680.902
275.512	24.182	869.847	680.906
276.526	24.405	869.904	681.743
277.541	24.574	868.320	681.084
278.555	24.834	868.133	681.869
279.570	24.740	868.464	681.708
280.585	24.595	867.801	680.578
281.599	24.189	866.651	678.070
282.614	23.761	866.406	676.188
283.628	24.042	865.793	676.722
284.643	24.082	865.155	676.313
285.657	24.088	864.215	675.542
286.672	24.089	863.791	675.156
287.687	24.680	862.023	675.950
288.701	24.246	862.042	674.264
289.716	24.106	862.091	673.711
290.730	24.388	861.821	674.507
291.745	24.607	859.706	673.616
292.760	24.400	860.703	673.557
293.774	24.597	859.888	673.603
294.789	24.416	859.838	672.823
295.803	24.280	858.262	671.017
296.818	24.223	857.914	670.473
297.833	24.088	857.684	669.726
298.847	24.232	856.807	669.522
299.862	24.432	856.679	670.111
300.876	24.806	855.328	670.400
301.891	24.713	855.155	669.856
302.906	24.734	855.372	670.046
303.920	25.240	854.715	671.366
304.935	25.165	854.727	671.032
305.949	25.024	853.893	669.795
306.964	24.576	852.793	667.199
307.979	24.493	851.705	665.979
308.993	25.019	851.119	667.420
310.008	24.945	850.197	666.365
311.022	24.373	850.361	664.304
312.037	24.224	850.141	663.518
313.052	24.363	849.310	663.329
314.066	23.793	848.640	660.629
315.081	23.482	847.623	658.621
316.095	24.058	847.074	660.274
317.110	23.738	846.972	658.952
318.125	23.536	846.236	657.569
319.139	23.256	845.556	655.946
320.154	23.763	843.947	656.515
321.168	24.334	843.280	658.046
322.183	24.272	843.691	658.078
323.197	24.108	842.859	656.767
324.212	24.462	843.093	658.195
325.227	23.952	841.980	655.390
326.241	23.804	841.401	654.339
327.256	23.734	841.341	653.973
328.270	23.997	839.740	653.640
329.285	23.738	839.357	652.334
330.300	23.756	839.585	652.518
331.314	23.854	838.846	652.246
332.329	24.362	838.577	653.840
333.343	24.405	838.704	654.041
334.358	24.608	837.446	653.743
335.373	24.495	837.331	653.182
336.387	24.738	836.464	653.336
337.402	24.722	837.128	653.740
338.416	25.082	837.213	655.064
339.431	25.546	836.777	656.357
340.446	25.452	836.721	655.915
341.460	25.284	835.879	654.584
342.475	25.128	835.941	654.006
343.489	25.289	836.135	654.687
344.504	25.342	835.172	654.066
345.519	25.417	834.104	653.447
346.533	25.452	833.758	653.245
347.548	25.057	832.459	650.735
348.562	24.940	831.880	649.801
349.577	24.926	831.401	649.317
350.592	24.593	830.358	647.238
351.606	24.079	830.358	645.318
352.621	24.728	828.982	646.540
353.635	24.783	827.975	645.896
354.650	24.582	828.011	645.139
355.665	24.360	827.473	643.865
356.679	24.836	826.950	645.116
357.694	25.000	825.879	644.812
358.708	24.481	825.345	642.474
359.723	24.450	824.555	641.689
360.738	24.444	825.070	642.010
361.752	25.250	823.463	643.596
362.767	25.527	824.389	645.257
363.781	25.388	823.980	644.382
364.796	25.574	822.913	644.158
365.810	25.499	822.511	643.516
366.825	25.553	821.843	643.131
367.840	25.373	822.076	642.611
368.854	25.256	821.580	641.748
369.869	24.923	820.173	639.405
370.883	25.523	818.908	640.499
371.898	25.384	819.724	640.583
372.913	25.451	819.312	640.445
373.927	24.996	818.516	638.146
374.942	25.123	818.464	638.502
375.956	25.549	818.344	639.867
376.971	25.038	818.168	637.854
377.986	25.600	817.077	638.944
379.000	25.503	817.787	639.097
380.015	25.615	816.070	638.098
381.029	25.574	815.688	637.599
382.044	25.497	815.195	636.882
383.059	25.732	814.895	637.423
384.073	25.652	814.020	636.402
385.088	24.997	813.245	633.423
386.102	24.938	812.058	632.235
387.117	24.526	811.823	630.541
388.132	24.623	810.954	630.151
389.146	24.939	810.363	630.750
390.161	25.174	810.716	631.797
391.175	25.586	810.013	632.642
392.190	25.292	809.910	631.471
393.205	24.540	809.166	628.191
394.219	25.018	806.694	627.894
395.234	24.581	807.112	626.629
396.248	24.329	807.083	625.669
397.263	24.911	807.024	627.610
398.278	25.016	805.458	626.702
399.292	24.466	805.904	625.069
400.307	24.583	805.117	624.812
401.321	24.844	804.225	624.975
402.336	24.827	804.452	625.038
403.350	25.352	803.953	626.426
404.365	25.479	804.091	626.921
405.380	25.923	803.896	628.263
406.394	25.823	804.421	628.267
407.409	25.800	804.301	628.039
408.423	26.004	803.399	627.991
409.438	25.998	803.020	627.618
410.453	26.173	801.885	627.284
411.467	25.717	801.850	625.614
412.482	25.431	801.842	624.559
413.496	25.760	800.552	624.642
414.511	26.279	800.461	626.315
415.526	25.684	800.901	624.540
416.540	26.019	799.124	624.257
417.555	25.775	798.901	623.183
418.569	25.552	798.869	622.332
419.584	25.797	797.812	622.301
420.599	25.879	797.023	621.912
421.613	161.142	1370.524	1792.951
422.628	139.787	1454.113	1792.994
