DTS Sentinel unit serial number:	SN413079Multiplexer serial number:	ORYXHardware model number:	OX4-SRSoftware version number:	ORYX F/W v4.00 Oryx Data Collector v3.7.2.0data status	okinstallation	princeton_trtdifferential loss correction	single-endedforward channel	channel 1reverse channel	N/Adate	2019/09/12time	19:33:34forward acquisition time	15.00reverse acquisition time	0.00gamma	496.2192k internal	0.2322k external	0.2322temperature offset calibration	1.0124default loss term (dB/km)	0.3790temperature slope calibration	1.0000multiplexer offset coefficient	1.0000multiplexer slope coefficient	1.0000fibre end	0.00T internal ref (°C)	32.19T ext. ref 1 (°C)	3.30T ext. ref 2 (°C)	26.71length (m)	temperature (°C)	Stokes	anti-Stokes-747.200	304.969	0.014	0.026
-746.185	361.647	0.090	-0.182
-745.171	338.547	-0.226	-0.445
-744.156	-147.679	-0.352	-0.030
-743.142	-33.565	0.412	0.230
-742.127	60.063	-0.785	-0.784
-741.112	127.882	0.508	-0.653
-740.098	-200.000	0.110	-0.646
-739.083	-123.905	0.189	0.030
-738.069	422.058	-0.088	-0.192
-737.054	-5.018	0.376	-0.262
-736.039	-7.770	0.478	0.326
-735.025	-134.114	-0.520	0.065
-734.010	392.864	0.323	-0.678
-732.996	162.036	-0.067	-0.095
-731.981	565.892	0.144	-0.353
-730.966	-46.953	-0.382	-0.188
-729.952	-200.000	0.093	-0.497
-728.937	-96.008	0.471	-0.127
-727.923	-200.000	0.105	0.630
-726.908	103.544	-0.770	0.912
-725.894	-200.000	0.127	-0.887
-724.879	-151.361	-0.954	-0.072
-723.864	-161.005	-0.529	0.028
-722.850	80.294	-0.396	-0.430
-721.835	-1.266	-0.373	-0.266
-720.821	-19.211	-0.236	-0.148
-719.806	-148.009	-0.169	-0.014
-718.791	9.280	0.494	0.377
-717.777	-74.610	0.373	0.135
-716.762	-200.000	0.070	0.440
-715.748	-127.963	-0.689	-0.100
-714.733	279.603	-0.180	-0.324
-713.718	799.092	-0.199	-0.555
-712.704	-89.402	0.736	-0.219
-711.689	-70.525	0.410	0.157
-710.675	-88.783	0.328	-0.098
-709.660	-59.734	1.052	-0.455
-708.645	159.370	0.354	0.496
-707.631	-200.000	0.154	0.743
-706.616	14.837	0.585	0.462
-705.602	62.290	-0.559	0.563
-704.587	-50.897	0.957	0.453
-703.572	800.000	0.188	0.774
-702.558	764.010	0.068	-0.186
-701.543	630.188	-0.075	-0.191
-700.529	-120.891	0.373	0.063
-699.514	-166.509	0.452	-0.019
-698.499	248.910	-0.244	0.416
-697.485	606.095	-0.262	0.658
-696.470	19.184	0.534	-0.432
-695.456	-200.000	0.034	-0.194
-694.441	124.125	-0.494	-0.626
-693.426	319.524	0.289	-0.553
-692.412	360.938	0.066	-0.133
-691.397	800.000	0.138	0.480
-690.383	-51.521	-0.506	-0.238
-689.368	800.000	-0.270	-1.008
-688.354	-200.000	0.026	0.229
-687.339	-143.910	-0.317	-0.030
-686.324	800.000	0.078	0.237
-685.310	-76.822	0.883	0.311
-684.295	80.673	-0.325	0.353
-683.281	-200.000	0.034	0.491
-682.266	167.920	0.153	-0.219
-681.251	-6.851	-0.196	-0.134
-680.237	-177.923	0.515	-0.012
-679.222	-4.069	0.523	-0.365
-678.208	-102.062	0.510	0.124
-677.193	259.711	-0.307	0.533
-676.178	-200.000	-0.012	-0.425
-675.164	-45.635	0.326	0.163
-674.149	-35.540	0.369	0.202
-673.135	-14.583	-0.485	-0.314
-672.120	688.931	-0.112	-0.296
-671.105	33.554	0.213	-0.187
-670.091	-22.196	0.410	0.250
-669.076	-67.702	0.319	0.126
-668.062	-117.261	0.290	0.053
-667.047	430.519	0.058	-0.126
-666.032	2.090	-0.532	-0.387
-665.018	-0.396	0.448	-0.321
-664.003	386.947	-0.243	-0.506
-662.989	-99.312	-0.578	-0.147
-661.974	800.000	0.048	0.173
-660.959	-200.000	-0.192	-1.000
-659.945	-172.697	0.618	0.020
-658.930	-186.655	0.799	-0.011
-657.916	-102.734	-0.337	0.081
-656.901	142.617	-0.315	-0.422
-655.886	-170.940	0.950	0.033
-654.872	142.449	0.219	0.293
-653.857	-200.000	-0.057	0.724
-652.843	-89.454	-0.821	-0.243
-651.828	148.768	-0.123	0.167
-650.814	-86.831	-0.711	0.219
-649.799	85.344	-0.317	0.350
-648.784	-100.466	-0.597	0.149
-647.770	627.468	-0.293	0.744
-646.755	-143.223	-0.268	-0.026
-645.741	-200.000	0.001	-0.411
-644.726	-138.575	-0.548	-0.061
-643.711	109.670	0.491	-0.592
-642.697	-200.000	0.119	0.984
-641.682	-113.929	-0.537	0.105
-640.668	214.597	-0.419	-0.669
-639.653	284.996	-0.350	-0.635
-638.638	9.475	-0.508	0.387
-637.624	-53.202	-0.639	0.295
-636.609	278.219	0.077	0.138
-635.595	-200.000	-0.133	-0.623
-634.580	187.635	-0.323	-0.484
-633.565	51.461	-0.129	-0.123
-632.551	-166.848	-0.465	0.019
-631.536	800.000	0.099	0.285
-630.522	-200.000	-0.038	0.497
-629.507	-108.880	-0.097	-0.021
-628.492	-78.526	0.611	0.210
-627.478	116.530	0.318	0.392
-626.463	71.693	0.587	-0.613
-625.449	17.472	0.349	0.279
-624.434	-122.636	0.691	-0.113
-623.419	-0.537	0.343	0.244
-622.405	-19.378	-0.303	-0.189
-621.390	-90.696	0.332	-0.096
-620.376	-101.019	0.820	0.202
-619.361	-90.660	-0.964	-0.280
-618.346	-118.403	0.385	0.069
-617.332	290.138	0.286	-0.523
-616.317	800.000	-0.119	0.359
-615.303	432.706	0.498	1.086
-614.288	83.661	0.220	0.242
-613.273	433.946	-0.692	-1.511
-612.259	499.148	0.189	0.438
-611.244	48.655	-0.473	0.446
-610.230	-64.865	0.066	-0.027
-609.215	-47.309	0.231	0.113
-608.201	-114.535	0.297	0.057
-607.186	-19.775	0.667	0.415
-606.171	-200.000	0.077	0.945
-605.157	-114.148	-0.506	0.098
-604.142	-88.014	-0.777	-0.234
-603.128	77.363	0.238	-0.255
-602.113	-200.000	-0.029	-0.235
-601.098	-176.167	0.546	-0.014
-600.084	-35.317	-0.599	-0.328
-599.069	800.000	-0.201	0.656
-598.055	618.081	-0.147	-0.372
-597.040	245.493	0.577	-0.976
-596.025	-200.000	0.156	0.785
-595.011	78.442	-0.628	0.674
-593.996	800.000	-0.086	-0.354
-592.982	-120.818	0.487	-0.082
-591.967	800.000	0.067	0.252
-590.952	-25.550	-0.573	-0.340
-589.938	-60.668	0.552	0.235
-588.923	800.000	-0.393	-1.165
-587.909	-141.825	0.929	-0.093
-586.894	72.984	0.616	0.646
-585.879	-7.096	-0.393	-0.268
-584.865	289.083	0.100	0.182
-583.850	800.000	-0.210	-0.906
-582.836	-99.031	0.704	-0.179
-581.821	577.624	-0.090	-0.220
-580.806	-200.000	-0.018	0.250
-579.792	-29.003	0.779	-0.449
-578.777	-125.319	-0.721	0.111
-577.763	-200.000	0.030	-0.178
-576.748	-62.936	0.455	0.189
-575.733	-200.000	-0.070	-0.389
-574.719	-67.850	-0.547	0.214
-573.704	114.865	-0.316	-0.387
-572.690	-24.305	-0.885	-0.530
-571.675	268.500	-0.202	-0.356
-570.661	800.000	0.112	0.469
-569.646	-80.422	-0.728	-0.244
-568.631	-83.614	0.670	0.215
-567.617	800.000	0.369	1.036
-566.602	800.000	-0.175	0.672
-565.588	246.596	-0.106	0.179
-564.573	54.984	-0.284	-0.275
-563.558	-112.021	1.282	0.259
-562.544	-156.466	0.524	-0.033
-561.529	-54.736	0.667	0.302
-560.515	800.000	0.030	-0.107
-559.500	-44.326	-0.431	0.217
-558.485	127.204	0.367	-0.467
-557.471	461.240	-0.211	0.471
-556.456	-173.236	-0.420	-0.013
-555.442	-58.072	-1.090	0.477
-554.427	71.350	-0.450	0.469
-553.412	-200.000	0.301	-1.321
-552.398	-144.000	0.227	-0.021
-551.383	339.761	0.065	-0.127
-550.369	380.808	0.177	-0.364
-549.354	-134.844	-0.446	-0.054
-548.339	-200.000	-0.054	-0.294
-547.325	-200.000	0.118	-0.524
-546.310	-200.000	0.026	1.517
-545.296	-20.618	-0.160	0.098
-544.281	-200.000	-0.035	0.919
-543.266	36.650	0.731	0.647
-542.252	352.324	0.077	0.153
-541.237	800.000	0.144	-0.416
-540.223	302.630	-0.277	0.514
-539.208	-52.187	0.539	0.251
-538.193	-41.756	-0.327	-0.168
-537.179	171.651	0.198	0.285
-536.164	115.355	0.564	0.691
-535.150	196.374	-0.216	-0.330
-534.135	50.578	0.332	-0.315
-533.121	-105.247	-0.564	-0.129
-532.106	159.755	0.204	0.284
-531.091	-200.000	0.004	0.151
-530.077	-14.354	-0.381	-0.246
-529.062	47.757	0.280	0.262
-528.048	-154.805	0.238	-0.016
-527.033	75.706	-0.655	-0.694
-526.018	800.000	0.054	-0.215
-525.004	216.965	0.686	1.094
-523.989	-123.429	1.179	-0.188
-522.975	-78.112	0.204	0.070
-521.960	704.460	0.111	0.293
-520.945	191.032	-0.842	1.269
-519.931	149.514	0.144	0.195
-518.916	-55.932	0.694	0.310
-517.902	-76.568	0.184	-0.065
-516.887	-106.791	0.356	0.079
-515.872	185.478	-0.367	-0.546
-514.858	663.895	-0.126	-0.326
-513.843	-112.236	-0.506	-0.102
-512.829	-126.220	0.363	0.054
-511.814	-164.253	-0.378	0.017
-510.799	-200.000	-0.010	-0.713
-509.785	-78.740	-0.736	0.251
-508.770	800.000	-0.109	-0.394
-507.756	-200.000	0.042	-0.444
-506.741	800.000	-0.268	0.861
-505.726	24.566	0.967	0.801
-504.712	284.241	0.105	0.188
-503.697	645.938	0.360	0.921
-502.683	-65.543	0.925	0.372
-501.668	213.910	-0.424	0.671
-500.653	189.028	0.158	-0.238
-499.639	101.136	-0.472	0.549
-498.624	-48.789	-0.493	-0.237
-497.610	-41.631	-0.704	0.362
-496.595	14.197	0.379	-0.295
-495.581	332.433	-0.295	-0.569
-494.566	-200.000	-0.015	0.661
-493.551	157.029	-0.337	-0.466
-492.537	-100.679	-0.393	-0.097
-491.522	800.000	-0.067	0.220
-490.508	-200.000	-0.113	-0.987
-489.493	-200.000	-0.010	0.062
-488.478	47.331	-0.372	0.347
-487.464	265.507	0.269	-0.470
-486.449	86.374	0.051	-0.056
-485.435	800.000	0.058	0.171
-484.420	-200.000	-0.006	-0.570
-483.405	-200.000	-0.021	-0.522
-482.391	-36.470	-0.774	0.417
-481.376	0.179	0.372	-0.266
-480.362	-100.792	0.209	-0.051
-479.347	-34.968	-0.237	0.129
-478.332	-200.000	0.006	0.849
-477.318	78.790	0.066	0.070
-476.303	86.858	-0.096	0.106
-475.289	175.680	-0.191	0.277
-474.274	201.457	-0.279	-0.430
-473.259	-200.000	-0.071	1.424
-472.245	-62.266	-0.236	-0.098
-471.230	41.987	-0.157	-0.142
-470.216	208.712	-0.224	0.351
-469.201	474.612	0.085	0.192
-468.186	-200.000	0.008	-0.372
-467.172	-200.000	-0.023	0.491
-466.157	-200.000	0.009	-0.556
-465.143	-163.465	0.205	0.010
-464.128	-74.916	0.367	0.131
-463.113	800.000	0.245	-0.704
-462.099	-50.786	0.293	0.138
-461.084	141.108	0.110	0.146
-460.070	-200.000	-0.064	0.905
-459.055	118.995	0.313	-0.387
-458.040	-130.965	0.477	0.064
-457.026	163.331	-0.095	-0.134
-456.011	800.000	0.038	-0.149
-454.997	-59.167	-0.452	0.195
-453.982	-145.013	0.873	-0.079
-452.968	-200.000	-0.045	-0.339
-451.953	165.877	0.226	-0.319
-450.938	140.077	0.304	0.400
-449.924	-62.715	0.497	0.206
-448.909	-163.224	0.405	0.019
-447.895	-142.554	1.249	0.122
-446.880	-141.276	0.203	-0.021
-445.865	-200.000	0.087	-0.410
-444.851	-200.000	0.097	-0.497
-443.836	800.000	0.123	-0.477
-442.822	-93.390	0.508	0.141
-441.807	-125.762	-0.283	-0.043
-440.792	376.696	-0.240	-0.489
-439.778	406.414	-0.268	-0.564
-438.763	272.346	-0.017	0.030
-437.749	-158.120	0.813	0.048
-436.734	800.000	-0.104	-0.326
-435.719	-200.000	0.102	-0.448
-434.705	-161.018	0.803	-0.042
-433.690	-168.766	0.030	-0.001
-432.676	7.466	0.225	-0.168
-431.661	35.321	-0.407	0.356
-430.646	-125.209	-0.964	-0.147
-429.632	-10.317	-0.343	-0.227
-428.617	93.415	0.391	0.441
-427.603	-200.000	-0.001	0.348
-426.588	189.775	-0.288	0.432
-425.573	-82.670	0.676	-0.218
-424.559	386.040	-0.135	-0.278
-423.544	262.788	-0.130	0.226
-422.530	-121.563	0.859	0.142
-421.515	800.000	-0.127	-0.362
-420.500	800.000	-0.151	0.506
-419.486	-72.466	0.939	-0.346
-418.471	-92.389	-0.211	-0.059
-417.457	-55.334	0.284	-0.127
-416.442	-54.127	0.147	0.066
-415.428	800.000	-0.179	0.650
-414.413	-11.720	-0.726	0.475
-413.398	800.000	0.128	0.453
-412.384	-179.920	0.457	-0.010
-411.369	-200.000	0.027	-0.516
-410.355	-97.655	-1.170	-0.303
-409.340	-100.124	0.476	0.118
-408.325	79.206	-0.018	-0.019
-407.311	-167.453	0.640	0.026
-406.296	39.784	0.465	0.416
-405.282	800.000	0.187	-0.681
-404.267	-154.284	-0.648	0.044
-403.252	21.527	-0.137	0.111
-402.238	-200.000	-0.052	-0.569
-401.223	48.784	-0.093	0.087
-400.209	776.661	-0.116	-0.316
-399.194	-59.849	0.401	0.171
-398.179	-85.849	0.787	0.243
-397.165	-106.607	-0.543	-0.120
-396.150	643.953	0.060	-0.152
-395.136	25.582	0.572	0.475
-394.121	-200.000	-0.167	0.875
-393.106	19.317	-0.206	0.165
-392.092	-200.000	-0.088	-0.406
-391.077	800.000	0.207	-0.808
-390.063	331.243	0.085	0.163
-389.048	-66.926	-0.616	0.242
-388.033	35.701	0.051	-0.044
-387.019	317.367	0.280	-0.528
-386.004	188.767	-0.168	0.251
-384.990	4.200	-0.353	0.257
-383.975	160.352	0.298	0.414
-382.960	243.681	-0.148	-0.248
-381.946	-200.000	0.015	0.239
-380.931	608.982	0.116	0.289
-379.917	-148.766	0.732	0.059
-378.902	136.132	-0.319	0.414
-377.888	322.519	0.026	-0.049
-376.873	262.673	0.323	0.558
-375.858	780.551	0.240	-0.654
-374.844	2.493	-0.586	-0.423
-373.829	257.628	0.112	0.192
-372.815	2.993	-0.787	0.569
-371.800	340.395	0.100	-0.195
-370.785	61.315	-0.427	0.423
-369.771	-63.142	0.354	-0.146
-368.756	-26.517	-0.508	-0.296
-367.742	-60.124	-1.059	-0.450
-366.727	422.336	0.209	0.447
-365.712	-109.281	-0.302	-0.064
-364.698	-45.030	0.647	0.321
-363.683	-200.000	0.071	-0.554
-362.669	-152.821	-1.028	0.073
-361.654	0.903	-0.425	0.303
-360.639	-147.866	0.654	-0.054
-359.625	72.199	0.675	-0.700
-358.610	-200.000	-0.139	-0.673
-357.596	12.398	-0.662	-0.508
-356.581	-200.000	0.168	-0.787
-355.566	-131.686	-0.349	-0.046
-354.552	800.000	0.114	0.372
-353.537	-31.617	-0.286	-0.160
-352.523	284.944	-0.211	-0.378
-351.508	800.000	0.091	0.290
-350.493	-119.955	-0.484	-0.083
-349.479	800.000	-0.163	-0.507
-348.464	59.601	-0.472	-0.463
-347.450	677.438	-0.284	0.734
-346.435	3.574	-0.965	-0.700
-345.420	73.814	-0.205	-0.214
-344.406	48.612	0.566	0.528
-343.391	215.134	0.125	-0.197
-342.377	144.943	0.547	0.727
-341.362	-63.300	0.644	0.264
-340.348	-135.432	-0.754	-0.089
-339.333	-200.000	0.109	0.608
-338.318	628.491	-0.175	0.439
-337.304	-100.351	0.431	-0.106
-336.289	-39.543	-0.490	-0.255
-335.275	73.342	-0.346	0.360
-334.260	-145.898	-0.575	-0.051
-333.245	-200.000	0.080	-1.028
-332.231	-128.125	0.546	-0.078
-331.216	447.940	0.075	0.165
-330.202	-200.000	0.203	0.919
-329.187	72.688	-0.292	-0.303
-328.172	800.000	-0.051	-0.185
-327.158	800.000	-0.124	-0.386
-326.143	800.000	0.313	-0.946
-325.129	559.767	-0.311	-0.748
-324.114	-37.283	-0.656	-0.348
-323.099	-200.000	0.017	-0.354
-322.085	-137.029	0.825	0.094
-321.070	800.000	-0.120	-0.359
-320.056	278.459	-0.237	0.419
-319.041	-61.436	0.501	-0.209
-318.026	-200.000	0.040	0.343
-317.012	-15.439	-0.331	-0.210
-315.997	245.216	0.264	-0.441
-314.983	394.134	0.150	-0.311
-313.968	-13.873	-0.601	0.386
-312.953	-142.488	-0.451	0.044
-311.939	-109.821	0.630	0.131
-310.924	557.486	-0.028	-0.068
-309.910	99.265	-0.362	0.415
-308.895	-164.812	0.106	0.005
-307.880	800.000	-0.208	0.712
-306.866	800.000	0.127	-0.347
-305.851	-132.321	-0.673	-0.086
-304.837	-174.745	0.838	0.024
-303.822	151.512	0.549	0.742
-302.807	800.000	0.190	0.551
-301.793	-200.000	-0.030	0.208
-300.778	621.529	-0.259	-0.647
-299.764	-200.000	0.054	-0.357
-298.749	-64.081	0.824	0.334
-297.735	-200.000	-0.027	0.179
-296.720	-42.048	0.597	0.304
-295.705	111.539	0.596	0.714
-294.691	266.635	-0.233	0.405
-293.676	184.227	-0.420	-0.618
-292.662	149.120	0.708	-0.950
-291.647	-200.000	0.055	-0.468
-290.632	-108.225	-1.230	-0.264
-289.618	183.586	0.204	0.299
-288.603	126.749	0.406	0.511
-287.589	180.548	-0.418	-0.609
-286.574	-136.036	0.343	0.040
-285.559	654.737	-0.223	-0.569
-284.545	-122.828	1.077	-0.172
-283.530	139.141	-0.143	-0.186
-282.516	-172.844	-0.759	-0.023
-281.501	-200.000	0.086	0.598
-280.486	72.060	-0.599	0.618
-279.472	13.603	0.931	-0.717
-278.457	-200.000	-0.126	-0.889
-277.443	235.894	0.332	-0.544
-276.428	-119.155	0.714	0.124
-275.413	-5.089	-0.243	0.166
-274.399	36.304	-0.546	0.478
-273.384	-200.000	-0.046	0.366
-272.370	36.463	-0.442	-0.387
-271.355	-101.395	-0.359	0.087
-270.340	-200.000	-0.054	0.317
-269.326	-200.000	-0.030	0.598
-268.311	-112.947	-0.237	-0.047
-267.297	19.952	0.681	0.544
-266.282	-15.557	-0.524	0.332
-265.267	-42.455	-0.771	0.390
-264.253	-200.000	-0.082	0.696
-263.238	-200.000	0.031	0.475
-262.224	-151.146	0.533	0.040
-261.209	-200.000	0.011	-0.252
-260.195	68.951	0.327	-0.333
-259.180	111.947	0.400	-0.479
-258.165	-159.866	0.377	0.021
-257.151	188.958	-0.807	-1.198
-256.136	325.368	0.405	-0.768
-255.122	323.549	-0.096	0.181
-254.107	-31.623	-0.467	-0.260
-253.092	53.017	-0.599	0.568
-252.078	350.948	0.350	0.687
-251.063	800.000	-0.273	0.905
-250.049	417.892	-0.326	-0.689
-249.034	8.760	-0.833	-0.622
-248.019	74.068	0.819	-0.852
-247.005	54.376	-0.431	-0.411
-245.990	84.483	0.561	0.609
-244.976	-155.086	0.389	0.025
-243.961	-33.746	0.873	0.477
-242.946	-53.687	0.631	-0.286
-241.932	-69.958	0.347	0.131
-240.917	215.060	-0.157	-0.246
-239.903	-200.000	0.013	-0.395
-238.888	800.000	-0.152	-0.604
-237.873	141.578	0.538	-0.706
-236.859	45.703	-0.183	-0.167
-235.844	316.316	-0.382	0.715
-234.830	800.000	0.125	0.433
-233.815	-67.917	0.510	0.197
-232.800	157.581	0.354	0.485
-231.786	-50.302	-0.342	0.160
-230.771	327.266	-0.345	0.655
-229.757	284.984	0.203	-0.362
-228.742	622.108	0.064	0.159
-227.727	101.361	-0.240	-0.277
-226.713	152.441	-0.235	-0.317
-225.698	-18.833	-0.658	-0.405
-224.684	800.000	-0.172	0.515
-223.669	-102.475	-1.025	0.243
-222.655	-200.000	-0.157	0.983
-221.640	-85.271	-0.160	-0.049
-220.625	32.714	0.590	0.506
-219.611	-56.040	-1.094	-0.483
-218.596	-200.000	0.114	0.949
-217.582	-124.835	0.867	-0.133
-216.567	-122.024	-0.540	-0.088
-215.552	66.599	0.413	-0.416
-214.538	282.152	0.506	0.898
-213.523	38.148	-0.343	0.302
-212.509	139.260	0.291	0.379
-211.494	60.257	0.036	-0.035
-210.479	-200.000	-0.001	-0.324
-209.465	-140.945	0.526	0.053
-208.450	-78.006	-0.603	-0.205
-207.436	-100.665	-0.720	-0.176
-206.421	-22.322	0.756	-0.453
-205.406	-200.000	0.071	-0.763
-204.392	56.678	0.629	-0.605
-203.377	143.532	0.576	0.759
-202.363	-43.757	-0.116	-0.058
-201.348	-43.753	1.286	0.641
-200.333	140.938	-0.657	-0.859
-199.319	-200.000	-0.046	0.420
-198.304	800.000	0.157	-0.548
-197.290	-154.043	0.607	-0.041
-196.275	106.458	-0.468	-0.549
-195.260	102.747	0.373	0.431
-194.246	-48.983	-0.381	-0.180
-193.231	-101.192	-0.378	0.091
-192.217	-200.000	0.049	-0.786
-191.202	800.000	-0.244	0.828
-190.187	406.904	-0.203	-0.424
-189.173	487.128	-0.204	0.460
-188.158	-79.415	-0.328	0.110
-187.144	278.715	-0.518	0.914
-186.129	468.011	0.453	-1.004
-185.114	14.595	-0.632	0.488
-184.100	138.817	0.309	0.401
-183.085	-173.676	0.235	0.007
-182.071	-200.000	0.097	-0.843
-181.056	-200.000	-0.137	-0.776
-180.042	45.847	-0.521	-0.477
-179.027	-100.376	-0.281	-0.069
-178.012	-200.000	0.034	-1.152
-176.998	15.986	0.489	-0.381
-175.983	-200.000	-0.115	0.599
-174.969	7.547	-0.755	0.558
-173.954	140.260	-0.430	0.561
-172.939	77.705	0.391	-0.412
-171.925	-33.972	-0.401	0.218
-170.910	-142.600	0.721	-0.070
-169.896	68.049	-0.100	0.102
-168.881	169.506	-0.601	-0.848
-167.866	-200.000	-0.046	-0.251
-166.852	0.968	0.624	-0.442
-165.837	-146.066	0.462	-0.040
-164.823	-133.406	-1.466	-0.182
-163.808	562.410	-0.258	0.617
-162.793	384.105	0.163	-0.332
-161.779	-123.510	-0.560	-0.088
-160.764	-126.114	-0.602	-0.089
-159.750	347.581	0.223	0.433
-158.735	-200.000	0.027	0.416
-157.720	-126.477	0.430	0.063
-156.706	-101.263	-0.515	0.124
-155.691	-200.000	0.090	-1.040
-154.677	-61.349	-0.922	-0.383
-153.662	-145.447	0.410	-0.036
-152.647	0.073	0.699	-0.492
-151.633	133.772	0.207	0.264
-150.618	346.793	0.342	0.665
-149.604	7.204	-0.492	-0.363
-148.589	800.000	0.060	0.163
-147.574	-118.099	-0.688	-0.121
-146.560	800.000	0.205	0.582
-145.545	22.616	0.194	0.157
-144.531	-100.283	-0.493	-0.121
-143.516	-200.000	-0.130	0.870
-142.502	800.000	-0.073	-0.257
-141.487	-117.535	-0.346	-0.062
-140.472	-114.813	0.653	0.123
-139.458	800.000	-0.199	0.791
-138.443	-200.000	0.075	0.517
-137.429	-200.000	-0.112	-0.581
-136.414	-112.293	0.680	-0.134
-135.399	-107.249	-0.244	0.053
-134.385	-149.288	0.275	0.022
-133.370	-42.301	-0.190	0.096
-132.356	214.432	-0.150	-0.235
-131.341	-200.000	0.003	-0.164
-130.326	334.263	0.370	-0.706
-129.312	-125.513	0.797	0.120
-128.297	-74.733	0.298	-0.106
-127.283	-200.000	-0.007	-0.939
-126.268	127.483	0.605	-0.758
-125.253	-200.000	0.023	-0.362
-124.239	-170.421	0.202	-0.007
-123.224	-135.824	0.347	0.040
-122.210	-123.000	-0.527	-0.084
-121.195	-27.257	0.235	-0.135
-120.180	202.522	0.123	-0.188
-119.166	-60.998	-0.715	0.298
-118.151	-89.652	0.630	-0.182
-117.137	-93.285	0.330	-0.090
-116.122	113.065	0.047	-0.057
-115.107	541.641	-0.011	-0.026
-114.093	111.440	-0.357	0.424
-113.078	220.885	-0.296	-0.468
-112.064	-129.290	0.383	-0.053
-111.049	-31.491	0.284	0.157
-110.034	47.544	-0.319	-0.293
-109.020	620.883	-0.126	-0.311
-108.005	800.000	-0.095	0.280
-106.991	142.283	-0.099	0.130
-105.976	-200.000	-0.167	-1.260
-104.962	-28.052	0.724	-0.413
-103.947	32.568	0.166	-0.141
-102.932	115.603	-0.370	0.446
-101.918	160.463	-0.343	-0.471
-100.903	112.093	0.404	0.482
-99.889	-155.870	-0.451	0.028
-98.874	379.521	0.098	-0.198
-97.859	108.247	0.177	-0.209
-96.845	-129.545	-0.295	0.040
-95.830	-109.334	-0.697	-0.146
-94.816	62.235	-0.118	0.116
-93.801	95.634	0.438	0.492
-92.786	107.603	-0.625	0.733
-91.772	-200.000	-0.048	0.432
-90.757	569.372	0.214	0.513
-89.743	-200.000	-0.081	0.492
-88.728	406.624	-0.178	0.370
-87.713	-200.000	0.149	0.832
-86.699	196.205	-0.296	-0.443
-85.684	149.408	-0.256	0.341
-84.670	-83.333	0.734	0.232
-83.655	-200.000	-0.008	-0.119
-82.640	-9.072	-0.163	0.108
-81.626	-80.755	0.803	0.263
-80.611	235.532	-0.164	0.267
-79.597	-200.000	-0.600	-0.002
-78.582	-73.177	-0.575	0.207
-77.567	256.355	0.324	0.548
-76.553	-111.927	-0.487	0.097
-75.538	800.000	0.115	-0.411
-74.524	-58.025	0.715	0.307
-73.509	303.623	-0.499	-0.910
-72.494	-200.000	0.172	0.849
-71.480	-59.542	0.816	-0.345
-70.465	-200.000	0.081	-0.585
-69.451	313.805	0.509	-0.943
-68.436	85.626	0.070	-0.076
-67.422	349.403	-0.278	-0.541
-66.407	494.641	-0.359	-0.812
-65.392	42.672	0.344	0.308
-64.378	-118.247	-0.419	-0.073
-63.363	24.823	-0.642	0.523
-62.349	-7.721	0.384	0.255
-61.334	83.928	-0.897	-0.963
-60.319	-31.174	0.650	0.361
-59.305	662.229	-0.672	-1.703
-58.290	800.000	0.302	0.852
-57.276	-200.000	0.265	1.449
-56.261	-200.000	96.565	598.778
-55.246	671.257	1354.437	3451.229
-54.232	204.093	2519.990	3839.056
-53.217	119.699	2117.926	2580.552
-52.203	44.243	1589.052	1433.858
-51.188	35.512	1330.596	1148.659
-50.173	32.572	1288.946	1095.594
-49.159	55.663	1338.976	1275.474
-48.144	56.684	1355.645	1297.345
-47.130	35.980	1313.403	1136.398
-46.115	32.534	1295.516	1100.780
-45.100	32.219	1289.992	1094.208
-44.086	32.134	1288.104	1092.071
-43.071	32.260	1285.669	1090.692
-42.057	32.080	1283.373	1087.660
-41.042	32.193	1281.684	1086.838
-40.027	32.171	1280.550	1085.708
-39.013	32.119	1279.422	1084.405
-37.998	32.150	1277.963	1083.304
-36.984	32.284	1274.624	1081.201
-35.969	32.304	1273.646	1080.444
-34.954	32.186	1271.708	1078.080
-33.940	32.278	1270.341	1077.410
-32.925	32.185	1269.648	1076.242
-31.911	32.437	1266.387	1074.880
-30.896	32.241	1266.553	1073.854
-29.881	32.440	1263.720	1072.547
-28.867	32.438	1262.910	1071.806
-27.852	32.434	1261.579	1070.608
-26.838	32.433	1259.562	1068.848
-25.823	32.208	1259.114	1067.148
-24.809	32.270	1258.088	1066.587
-23.794	32.376	1256.441	1065.750
-22.779	32.256	1255.998	1064.650
-21.765	32.264	1254.606	1063.473
-20.750	32.106	1252.492	1060.748
-19.736	32.329	1251.304	1060.960
-18.721	31.934	1251.965	1059.245
-17.706	32.293	1249.538	1059.172
-16.692	32.048	1248.113	1056.545
-15.677	31.986	1247.609	1055.729
-14.663	32.140	1246.296	1055.441
-13.648	32.225	1245.059	1054.827
-12.633	32.095	1243.950	1053.117
-11.619	32.068	1242.820	1051.971
-10.604	31.966	1242.001	1050.664
-9.590	31.961	1241.837	1050.454
-8.575	32.136	1239.664	1049.550
-7.560	32.075	1239.547	1049.068
-6.546	32.020	1238.681	1047.990
-5.531	31.905	1237.940	1046.681
-4.517	32.271	1236.798	1047.715
-3.502	32.199	1235.754	1046.384
-2.487	32.224	1234.319	1045.267
-1.473	32.184	1230.434	1041.714
-0.458	30.670	1215.363	1020.614
0.556	28.134	1198.127	981.722
1.571	24.406	1203.753	966.101
2.586	23.254	1217.781	970.960
3.600	22.645	1206.624	958.667
4.615	16.707	1135.526	871.623
5.629	7.769	1059.955	770.415
6.644	3.965	1039.930	737.686
7.659	3.342	1038.766	733.832
8.673	2.866	1036.618	729.985
9.688	3.032	1035.632	730.016
10.702	3.905	1033.851	732.834
11.717	9.300	1042.039	764.273
12.731	18.821	1056.108	820.191
13.746	23.592	1061.038	846.774
14.761	24.254	1061.145	849.940
15.775	23.995	1060.024	847.735
16.790	23.461	1059.832	844.962
17.804	23.169	1058.744	842.628
18.819	23.434	1056.885	842.335
19.834	23.307	1057.400	842.065
20.848	23.300	1057.944	842.392
21.863	23.586	1055.147	841.447
22.877	23.209	1056.145	840.380
23.892	23.028	1055.095	838.609
24.907	22.993	1054.581	837.961
25.921	23.099	1053.310	837.380
26.936	22.928	1051.667	835.191
27.950	22.915	1050.839	834.398
28.965	23.219	1048.217	833.673
29.980	23.396	1046.709	833.235
30.994	23.231	1047.106	832.698
32.009	23.508	1046.183	833.194
33.023	23.358	1044.118	830.773
34.038	23.090	1044.236	829.535
35.053	23.141	1042.078	827.986
36.067	23.413	1041.148	828.445
37.082	23.003	1041.597	826.813
38.096	23.094	1040.887	826.604
39.111	23.152	1040.638	826.601
40.126	23.097	1039.857	825.653
41.140	22.928	1037.379	822.825
42.155	22.598	1035.697	819.882
43.169	22.496	1035.232	818.967
44.184	22.491	1034.246	818.089
45.199	22.816	1032.869	818.436
46.213	22.416	1033.312	816.860
47.228	23.159	1032.219	819.365
48.242	23.090	1031.672	818.541
49.257	23.230	1031.410	818.909
50.271	23.541	1029.400	818.676
51.286	23.467	1029.435	818.289
52.301	23.711	1027.782	818.024
53.315	23.159	1027.374	815.086
54.330	23.017	1026.393	813.583
55.344	23.480	1024.542	814.172
56.359	23.192	1024.261	812.551
57.374	23.057	1023.727	811.438
58.388	23.019	1022.338	810.089
59.403	22.818	1021.735	808.622
60.417	22.565	1021.865	807.494
61.432	22.673	1021.281	807.456
62.447	22.999	1019.154	807.191
63.461	22.746	1018.005	805.057
64.476	22.636	1018.130	804.581
65.490	22.394	1016.802	802.356
66.505	22.455	1016.680	802.466
67.520	22.846	1015.545	803.280
68.534	22.084	1015.339	799.579
69.549	22.360	1013.833	799.577
70.563	22.271	1013.468	798.816
71.578	21.889	1011.668	795.593
72.593	22.101	1010.134	795.274
73.607	21.938	1010.826	795.013
74.622	22.021	1009.867	794.564
75.636	22.111	1009.964	794.976
76.651	22.070	1009.221	794.134
77.666	22.184	1008.908	794.335
78.680	22.375	1006.669	793.362
79.695	22.341	1006.450	792.966
80.709	23.047	1005.314	795.179
81.724	22.561	1004.596	792.354
82.739	22.733	1004.373	792.881
83.753	23.407	1004.542	795.972
84.768	23.546	1005.155	797.013
85.782	23.820	1003.599	796.937
86.797	23.881	1002.842	796.537
87.812	23.495	1002.482	794.454
88.826	23.687	1000.696	793.827
89.841	23.542	1000.775	793.171
90.855	23.859	999.040	793.138
91.870	23.898	998.147	792.535
92.884	23.533	997.676	790.463
93.899	23.273	996.109	787.996
94.914	23.552	995.741	788.878
95.928	23.740	993.261	787.674
96.943	23.654	992.532	786.644
97.957	22.971	992.695	783.678
98.972	23.416	990.943	784.197
99.987	23.426	990.219	783.597
101.001	23.072	991.338	782.846
102.016	22.996	989.800	781.226
103.030	23.177	988.963	781.296
104.045	23.518	988.076	782.028
105.060	23.224	986.853	779.697
106.074	23.211	986.679	779.435
107.089	22.777	984.740	775.924
108.103	23.020	983.178	775.691
109.118	22.514	981.609	772.169
110.133	22.054	981.271	769.817
111.147	22.482	979.352	770.118
112.162	22.397	979.303	769.640
113.176	22.760	978.845	770.795
114.191	22.692	977.017	768.993
115.206	22.612	978.051	769.391
116.220	22.462	976.202	767.215
117.235	22.457	975.524	766.590
118.249	21.839	974.939	763.376
119.264	22.224	973.738	764.041
120.279	21.958	973.549	762.666
121.293	22.139	971.557	761.826
122.308	22.149	970.696	761.125
123.322	21.622	970.900	758.934
124.337	22.193	968.171	759.201
125.352	21.767	967.334	756.641
126.366	21.844	967.583	757.101
127.381	22.106	966.802	757.552
128.395	22.498	966.290	758.772
129.410	22.619	964.772	758.035
130.424	22.344	964.706	756.732
131.439	22.751	964.035	757.887
132.454	22.855	962.485	757.047
133.468	22.843	961.626	756.255
134.483	22.616	961.545	755.148
135.497	22.886	960.198	755.182
136.512	22.730	960.558	754.731
137.527	22.711	958.829	753.222
138.541	22.663	959.227	753.264
139.556	22.927	957.008	752.580
140.570	23.228	957.345	754.061
141.585	23.256	957.119	753.933
142.600	23.270	955.991	753.040
143.614	23.641	955.845	754.433
144.629	23.707	955.193	754.132
145.643	23.491	953.626	751.916
146.658	23.050	952.677	749.229
147.673	23.135	951.008	748.210
148.687	22.938	950.135	746.625
149.702	23.043	948.129	745.426
150.716	23.141	947.785	745.501
151.731	22.746	947.998	743.939
152.746	22.759	947.737	743.726
153.760	23.138	946.267	744.099
154.775	23.263	946.176	744.487
155.789	23.212	945.608	743.762
156.804	23.217	945.052	743.278
157.819	23.367	943.479	742.602
158.833	23.587	942.970	743.058
159.848	23.812	941.513	742.785
160.862	23.841	940.156	741.771
161.877	23.005	940.170	738.225
162.892	22.753	939.724	736.759
163.906	23.116	937.875	736.757
164.921	23.022	936.558	735.264
165.935	22.719	936.996	734.282
166.950	23.089	936.515	735.379
167.964	23.126	934.090	733.565
168.979	23.012	933.355	732.450
169.994	22.618	932.491	730.076
171.008	23.143	931.844	731.678
172.023	23.322	931.749	732.278
173.037	23.603	930.825	732.646
174.052	23.517	929.493	731.176
175.067	23.200	927.431	728.186
176.081	22.430	929.125	726.278
177.096	22.506	927.864	725.539
178.110	22.905	926.768	726.263
179.125	22.708	926.050	724.823
180.140	22.602	926.525	724.694
181.154	23.204	925.312	726.153
182.169	23.369	926.175	727.446
183.183	23.146	925.663	726.064
184.198	23.332	923.852	725.340
185.213	22.998	924.075	724.082
186.227	23.208	922.443	723.597
187.242	23.366	921.974	723.813
188.256	23.514	921.563	724.028
189.271	23.757	920.862	724.404
190.286	23.123	920.504	721.476
191.300	22.410	919.347	717.598
192.315	22.272	918.246	716.113
193.329	22.614	917.359	716.750
194.344	23.107	915.825	717.490
195.359	22.876	916.752	717.214
196.373	22.802	917.264	717.251
197.388	23.178	917.005	718.509
198.402	23.696	916.838	720.418
199.417	23.929	915.939	720.593
200.432	23.825	914.580	719.037
201.446	23.778	914.880	719.020
202.461	23.874	913.879	718.558
203.475	23.623	912.645	716.512
204.490	23.113	910.774	712.925
205.504	23.205	911.201	713.565
206.519	23.560	909.300	713.441
207.534	23.369	909.516	712.780
208.548	23.484	908.593	712.455
209.563	23.398	908.174	711.718
210.577	23.490	907.042	711.139
211.592	23.668	907.531	712.174
212.607	24.498	905.876	714.132
213.621	23.660	906.454	711.171
214.636	23.685	905.594	710.532
215.650	23.662	904.932	709.858
216.665	23.818	903.466	709.266
217.680	23.628	903.419	708.408
218.694	23.519	903.007	707.588
219.709	23.436	902.430	706.743
220.723	23.317	901.074	705.147
221.738	22.975	901.452	704.018
222.753	23.191	899.976	703.662
223.767	23.305	899.973	704.048
224.782	23.676	899.842	705.358
225.796	24.023	898.264	705.436
226.811	23.283	898.119	702.324
227.826	23.285	896.656	701.127
228.840	23.021	896.204	699.667
229.855	23.054	895.282	699.014
230.869	22.850	895.537	698.346
231.884	23.146	894.006	698.256
232.899	23.271	893.600	698.371
233.913	23.014	892.923	696.770
234.928	22.978	892.116	695.934
235.942	22.650	891.708	694.266
236.957	22.607	891.029	693.506
237.972	22.716	890.151	693.188
238.986	22.533	889.650	692.018
240.001	22.854	889.223	692.884
241.015	23.201	888.140	693.339
242.030	23.088	888.092	692.800
243.045	22.878	888.618	692.326
244.059	22.951	887.699	691.833
245.074	23.172	887.352	692.365
246.088	23.471	885.985	692.405
247.103	23.679	885.504	692.779
248.117	24.160	885.823	694.846
249.132	24.270	886.695	695.898
250.147	24.079	885.990	694.537
251.161	24.697	884.666	695.843
252.176	24.917	884.152	696.232
253.190	24.915	883.193	695.410
254.205	24.501	883.856	694.259
255.220	24.585	882.650	693.579
256.234	24.463	881.887	692.444
257.249	24.291	880.285	690.459
258.263	24.121	879.680	689.265
259.278	24.330	879.124	689.577
260.293	24.051	879.082	688.406
261.307	24.383	878.871	689.461
262.322	24.876	877.324	690.087
263.336	24.799	876.463	689.054
264.351	24.339	875.876	686.761
265.366	24.247	875.880	686.349
266.380	24.504	875.776	687.195
267.395	24.247	875.285	685.759
268.409	23.902	875.282	684.369
269.424	24.101	872.635	683.002
270.439	24.558	872.191	684.346
271.453	24.097	871.583	682.044
272.468	24.051	871.564	681.790
273.482	24.455	870.282	682.275
274.497	23.904	870.693	680.426
275.512	24.302	869.033	680.590
276.526	24.036	868.886	679.398
277.541	24.215	868.938	680.064
278.555	24.480	868.185	680.423
279.570	24.760	867.803	681.131
280.585	24.462	866.609	679.000
281.599	24.414	866.244	678.471
282.614	24.165	864.680	676.241
283.628	23.708	864.568	674.358
284.643	24.031	864.088	675.151
285.657	24.151	863.242	674.884
286.672	23.981	862.706	673.760
287.687	24.336	862.734	675.067
288.701	24.011	862.392	673.512
289.716	24.368	860.968	673.689
290.730	24.106	860.940	672.617
291.745	24.418	860.097	673.077
292.760	24.693	858.686	672.948
293.774	24.718	859.182	673.368
294.789	24.863	858.136	673.035
295.803	24.511	858.555	671.979
296.818	24.150	857.136	669.454
297.833	24.118	855.692	668.146
298.847	24.210	856.151	668.792
299.862	24.137	855.348	667.830
300.876	24.637	854.701	669.138
301.891	24.875	854.480	669.797
302.906	25.016	853.768	669.709
303.920	25.181	853.830	670.313
304.935	25.403	852.717	670.208
305.949	24.721	853.221	667.999
306.964	24.552	851.451	665.925
307.979	24.739	850.620	665.910
308.993	24.798	850.139	665.696
310.008	24.436	850.338	664.446
311.022	24.837	848.801	664.673
312.037	24.347	849.345	663.219
313.052	24.263	847.537	661.439
314.066	24.026	848.235	661.043
315.081	24.100	846.345	659.787
316.095	23.786	846.681	658.828
317.110	23.787	845.841	658.121
318.125	23.716	845.452	657.494
319.139	23.514	843.788	655.395
320.154	23.892	843.800	656.745
321.168	23.955	843.213	656.460
322.183	23.869	842.635	655.635
323.197	24.192	842.424	656.605
324.212	24.085	841.786	655.655
325.227	23.860	841.599	654.624
326.241	24.027	840.664	654.452
327.256	24.271	838.708	653.768
328.270	23.954	838.953	652.739
329.285	23.949	838.771	652.521
330.300	23.850	838.054	651.539
331.314	23.924	837.911	651.644
332.329	24.191	837.758	652.446
333.343	24.492	837.078	652.956
334.358	24.229	838.009	652.664
335.373	24.267	836.835	651.829
336.387	24.536	836.742	652.685
337.402	24.656	835.818	652.344
338.416	24.653	836.329	652.674
339.431	24.819	836.088	653.032
340.446	25.079	835.500	653.463
341.460	25.372	835.429	654.418
342.475	25.176	834.223	652.703
343.489	25.367	834.701	653.715
344.504	25.563	834.423	654.154
345.519	25.434	834.593	653.758
346.533	25.520	832.879	652.671
347.548	25.289	832.002	651.088
348.562	25.327	830.442	649.947
349.577	24.978	830.655	648.792
350.592	24.562	830.901	647.418
351.606	24.477	829.315	645.818
352.621	24.769	828.233	645.972
353.635	24.344	827.796	644.042
354.650	24.455	827.861	644.437
355.665	24.463	826.817	643.595
356.679	24.806	826.584	644.592
357.694	24.686	825.349	643.141
358.708	24.538	824.783	642.110
359.723	24.387	824.791	641.518
360.738	24.479	824.362	641.455
361.752	24.545	823.131	640.681
362.767	24.817	823.391	641.801
363.781	25.398	822.536	643.158
364.796	25.442	822.543	643.264
365.810	25.331	822.128	642.486
366.825	25.690	821.216	643.000
367.840	25.447	820.872	641.806
368.854	25.259	819.792	640.234
369.869	24.785	820.635	639.141
370.883	25.123	818.896	638.934
371.898	25.513	818.726	640.135
372.913	25.676	818.496	640.481
373.927	25.312	817.745	638.542
374.942	25.218	818.056	638.394
375.956	25.535	817.425	638.971
376.971	25.595	817.156	638.916
377.986	25.559	816.246	638.021
379.000	25.465	815.892	637.356
380.015	25.593	815.254	637.254
381.029	25.575	814.535	636.572
382.044	25.659	814.368	636.681
383.059	25.812	813.412	636.418
384.073	25.462	813.034	634.831
385.088	25.334	811.676	633.260
386.102	25.137	811.784	632.595
387.117	24.874	810.669	630.745
388.132	24.903	809.443	629.835
389.146	24.831	809.360	629.463
390.161	25.421	809.234	631.383
391.175	25.654	808.972	631.941
392.190	25.445	808.273	630.606
393.205	24.943	807.180	627.937
394.219	24.365	806.484	625.314
395.234	24.452	806.285	625.412
396.248	24.622	806.990	626.497
397.263	24.751	805.613	625.824
398.278	24.425	805.051	624.193
399.292	24.437	803.723	623.151
400.307	24.581	803.678	623.562
401.321	24.680	803.160	623.451
402.336	24.845	803.881	624.530
403.350	25.243	803.755	625.767
404.365	25.433	804.005	626.568
405.380	26.094	803.391	628.336
406.394	25.977	803.281	627.787
407.409	26.155	802.064	627.400
408.423	26.123	802.035	627.209
409.438	25.978	801.948	626.582
410.453	25.725	802.071	625.744
411.467	25.481	801.099	624.084
412.482	26.003	800.429	625.318
413.496	25.890	800.383	624.833
414.511	25.840	799.493	623.912
415.526	25.767	799.520	623.624
416.540	25.609	798.927	622.558
417.555	25.839	798.463	622.938
418.569	25.806	797.625	622.115
419.584	25.788	797.193	621.659
420.599	25.811	796.834	621.404
421.613	161.157	1370.471	1792.588
422.628	139.813	1453.984	1792.609
