DTS Sentinel unit serial number:	SN413079Multiplexer serial number:	ORYXHardware model number:	OX4-SRSoftware version number:	ORYX F/W v4.00 Oryx Data Collector v3.7.2.0data status	okinstallation	princeton_trtdifferential loss correction	single-endedforward channel	channel 1reverse channel	N/Adate	2019/09/13time	15:18:35forward acquisition time	60.00reverse acquisition time	0.00gamma	496.2192k internal	0.2303k external	0.2303temperature offset calibration	1.0163default loss term (dB/km)	0.3790temperature slope calibration	1.0000multiplexer offset coefficient	1.0000multiplexer slope coefficient	1.0000fibre end	0.00T internal ref (°C)	35.44T ext. ref 1 (°C)	4.73T ext. ref 2 (°C)	29.55length (m)	temperature (°C)	Stokes	anti-Stokes-747.200	-122.448	0.040	0.007
-746.185	800.000	0.063	0.195
-745.171	800.000	0.025	-0.111
-744.156	-195.009	-0.199	0.002
-743.142	53.839	-0.194	0.190
-742.127	104.292	0.075	0.090
-741.112	-98.072	-0.215	-0.056
-740.098	-200.000	-0.005	0.398
-739.083	515.128	0.177	0.421
-738.069	-101.773	-0.222	-0.055
-737.054	180.668	0.168	0.250
-736.039	800.000	-0.070	0.227
-735.025	-200.000	-0.015	0.368
-734.010	-200.000	-0.025	0.146
-732.996	17.244	0.120	0.097
-731.981	-38.808	-0.292	-0.157
-730.966	-35.139	-0.252	0.140
-729.952	-95.411	-0.125	-0.034
-728.937	-5.912	-0.324	0.226
-727.923	-153.079	0.142	-0.010
-726.908	106.498	-0.217	0.262
-725.894	319.030	-0.089	-0.172
-724.879	-180.669	-0.340	-0.007
-723.864	365.330	-0.127	-0.259
-722.850	504.762	-0.062	0.147
-721.835	201.823	0.088	0.138
-720.821	-189.041	-0.338	-0.004
-719.806	363.187	0.153	-0.312
-718.791	9.594	-0.026	0.020
-717.777	176.388	0.255	-0.377
-716.762	-200.000	0.005	-0.207
-715.748	70.258	-0.201	-0.211
-714.733	349.446	-0.214	-0.431
-713.718	269.724	-0.095	-0.170
-712.704	3.751	-0.224	-0.166
-711.689	149.601	-0.107	-0.147
-710.675	-134.369	-0.282	-0.035
-709.660	28.404	-0.138	0.118
-708.645	452.826	0.138	-0.309
-707.631	-107.710	0.248	0.055
-706.616	-71.102	-0.306	-0.117
-705.602	-200.000	-0.007	-0.045
-704.587	352.366	-0.061	0.122
-703.572	-200.000	-0.075	-0.421
-702.558	39.873	0.114	-0.104
-701.543	61.731	0.168	-0.170
-700.529	190.938	0.090	-0.138
-699.514	18.926	-0.181	-0.147
-698.499	-32.691	-0.168	0.095
-697.485	11.664	-0.157	0.122
-696.470	-33.746	-0.405	-0.227
-695.456	109.693	-0.265	-0.324
-694.441	-79.551	0.278	-0.095
-693.426	-8.720	0.151	-0.103
-692.412	-200.000	0.036	-0.282
-691.397	-88.613	-0.186	0.056
-690.383	216.694	0.076	0.124
-689.368	800.000	0.079	-0.303
-688.354	242.348	-0.165	0.281
-687.339	60.249	0.115	-0.116
-686.324	206.698	-0.212	0.335
-685.310	-200.000	-0.010	-0.199
-684.295	-152.408	-0.583	0.043
-683.281	501.571	0.121	-0.284
-682.266	-200.000	0.003	-0.127
-681.251	1.072	-0.230	0.168
-680.237	90.019	-0.358	-0.406
-679.222	78.292	0.082	-0.089
-678.208	-76.172	0.169	-0.061
-677.193	4.140	-0.211	0.157
-676.178	145.382	-0.238	-0.324
-675.164	-65.959	-0.127	-0.052
-674.149	-200.000	-0.007	0.086
-673.135	-171.616	-0.330	-0.011
-672.120	-92.721	0.195	0.056
-671.105	163.718	-0.184	0.263
-670.091	-111.540	-0.489	0.101
-669.076	-200.000	-0.001	-0.160
-668.062	-92.121	-0.243	-0.070
-667.047	-96.461	-0.112	0.030
-666.032	-87.694	0.193	-0.059
-665.018	-200.000	-0.019	0.195
-664.003	-200.000	-0.070	0.474
-662.989	44.752	-0.220	0.206
-661.974	-82.472	0.150	-0.049
-660.959	800.000	0.055	0.218
-659.945	-0.445	0.292	0.210
-658.930	-147.476	0.093	-0.008
-657.916	-200.000	0.220	0.001
-656.901	3.295	-0.244	-0.181
-655.886	-59.879	-0.134	0.058
-654.872	-16.041	-0.129	-0.084
-653.857	-29.870	-0.112	-0.065
-652.843	202.259	-0.013	0.020
-651.828	-65.893	-0.224	0.091
-650.814	71.276	-0.126	0.133
-649.799	-8.891	0.117	0.079
-648.784	218.081	-0.076	-0.123
-647.770	-71.526	0.094	-0.036
-646.755	23.700	-0.155	0.130
-645.741	72.041	0.071	0.075
-644.726	-200.000	-0.020	-0.109
-643.711	-139.056	-0.278	-0.031
-642.697	381.633	-0.143	-0.299
-641.682	800.000	-0.082	-0.252
-640.668	-199.770	-0.157	0.001
-639.653	169.172	-0.169	0.245
-638.638	-65.211	0.266	0.109
-637.624	-29.987	0.252	0.145
-636.609	86.498	-0.137	0.153
-635.595	164.968	-0.220	0.314
-634.580	-200.000	-0.011	0.071
-633.565	-55.783	-0.236	-0.107
-632.551	50.796	0.120	-0.115
-631.536	-75.505	-0.243	-0.088
-630.522	800.000	0.041	-0.146
-629.507	-200.000	-0.035	0.258
-628.492	19.298	-0.078	0.063
-627.478	-22.660	0.149	0.091
-626.463	247.920	0.136	-0.233
-625.449	-200.000	0.003	-0.157
-624.434	347.780	-0.097	0.194
-623.419	516.292	-0.129	-0.307
-622.405	608.076	-0.047	0.118
-621.390	197.151	-0.137	-0.211
-620.376	-160.730	0.084	-0.005
-619.361	309.012	0.091	-0.173
-618.346	0.296	0.124	-0.090
-617.332	-200.000	0.019	-0.210
-616.317	7.117	0.075	0.057
-615.303	202.079	0.126	-0.197
-614.288	132.020	-0.305	-0.398
-613.273	-200.000	0.048	0.464
-612.259	-40.157	0.044	0.023
-611.244	-164.835	0.287	-0.013
-610.230	441.664	-0.093	-0.205
-609.215	269.378	-0.122	-0.217
-608.201	-174.010	-0.113	-0.003
-607.186	57.452	0.162	0.160
-606.171	28.774	0.213	-0.183
-605.157	-70.897	-0.189	0.072
-604.142	-90.419	-0.264	0.077
-603.128	186.183	-0.101	0.152
-602.113	58.926	0.040	0.040
-601.098	-200.000	-0.023	-0.318
-600.084	-42.680	-0.181	0.093
-599.069	-55.354	-0.230	-0.105
-598.055	3.525	0.204	-0.150
-597.040	-200.000	-0.003	0.178
-596.025	-102.083	-0.413	-0.101
-595.011	-111.197	-0.410	-0.085
-593.996	-89.334	0.183	-0.055
-592.982	-92.395	0.220	0.063
-591.967	-200.000	0.000	0.192
-590.952	400.615	0.174	-0.370
-589.938	20.238	-0.232	0.189
-588.923	-34.770	-0.340	0.188
-587.909	0.807	0.114	0.083
-586.894	276.166	-0.085	-0.153
-585.879	-65.142	0.055	0.022
-584.865	-48.770	0.325	0.158
-583.850	-9.190	0.164	-0.111
-582.836	-115.099	-0.091	-0.017
-581.821	182.550	0.017	0.025
-580.806	-200.000	0.001	-0.005
-579.792	-67.974	0.315	-0.124
-578.777	-2.243	0.200	-0.142
-577.763	301.663	0.165	-0.309
-576.748	372.889	0.077	-0.159
-575.733	-8.455	-0.451	-0.307
-574.719	267.117	-0.069	0.121
-573.704	-27.149	-0.350	-0.207
-572.690	-149.758	0.308	-0.024
-571.675	-200.000	0.009	-0.154
-570.661	239.214	0.026	0.044
-569.646	482.193	-0.109	0.251
-568.631	45.216	-0.168	0.157
-567.617	-200.000	-0.023	0.359
-566.602	32.913	-0.096	0.084
-565.588	217.342	-0.086	0.139
-564.573	-46.423	-0.199	0.099
-563.558	32.393	0.085	0.074
-562.544	800.000	-0.129	-0.511
-561.529	800.000	0.074	0.253
-560.515	-168.636	0.144	0.006
-559.500	60.978	-0.089	-0.089
-558.485	121.137	-0.113	-0.142
-557.471	-43.879	-0.037	0.019
-556.456	-200.000	-0.025	0.400
-555.442	-102.229	-0.173	0.042
-554.427	40.212	0.153	-0.139
-553.412	-57.068	0.106	-0.047
-552.398	-200.000	0.031	0.234
-551.383	-126.424	0.098	-0.015
-550.369	-136.664	0.351	-0.041
-549.354	-102.909	0.544	0.131
-548.339	-86.565	-0.504	-0.156
-547.325	35.139	-0.256	0.226
-546.310	-115.738	0.299	-0.057
-545.296	42.941	0.136	-0.125
-544.281	-9.478	-0.307	0.207
-543.266	-200.000	0.032	-0.261
-542.252	28.342	0.059	0.051
-541.237	73.651	0.147	-0.155
-540.223	-154.186	-0.234	-0.016
-539.208	800.000	-0.061	-0.244
-538.193	-159.653	-0.378	0.021
-537.179	46.111	0.076	-0.071
-536.164	72.251	0.217	0.229
-535.150	-67.214	-0.379	0.151
-534.135	800.000	0.062	0.248
-533.121	-200.000	0.009	-0.155
-532.106	-29.684	-0.288	0.166
-531.091	-104.889	0.230	-0.053
-530.077	-130.063	0.450	0.062
-529.062	224.971	-0.152	-0.249
-528.048	-26.893	0.023	0.014
-527.033	-47.556	-0.081	-0.040
-526.018	704.218	-0.055	-0.147
-525.004	-50.699	-0.144	0.068
-523.989	206.534	0.090	-0.141
-522.975	-200.000	-0.008	-0.253
-521.960	-200.000	-0.014	0.163
-520.945	88.265	-0.160	-0.179
-519.931	732.271	0.107	-0.289
-518.916	-42.557	-0.256	0.132
-517.902	164.758	0.096	0.136
-516.887	51.424	-0.123	0.118
-515.872	800.000	-0.050	-0.157
-514.858	-65.118	-0.152	-0.062
-513.843	800.000	0.051	-0.172
-512.829	-66.346	0.231	0.093
-511.814	-15.656	-0.154	0.099
-510.799	-26.186	0.209	0.124
-509.785	69.720	0.108	-0.112
-508.770	800.000	0.015	0.059
-507.756	-121.383	0.249	0.042
-506.741	-16.534	-0.072	0.046
-505.726	75.184	0.049	-0.052
-504.712	-92.529	-0.156	-0.044
-503.697	-200.000	0.044	-0.333
-502.683	-23.843	-0.056	0.034
-501.668	-26.421	0.173	-0.103
-500.653	-200.000	0.035	-0.190
-499.639	531.027	0.066	0.156
-498.624	-86.726	-0.150	-0.046
-497.610	-200.000	0.023	-0.303
-496.595	25.483	-0.139	-0.117
-495.581	402.076	0.070	0.147
-494.566	-92.505	-0.550	-0.156
-493.551	201.235	-0.094	-0.145
-492.537	-120.298	0.070	-0.012
-491.522	63.157	-0.091	-0.092
-490.508	-200.000	0.014	0.189
-489.493	-144.501	-0.396	0.037
-488.478	131.477	0.199	-0.258
-487.464	57.515	-0.086	-0.085
-486.449	372.854	0.065	-0.132
-485.435	-200.000	0.005	-0.176
-484.420	165.658	0.073	-0.103
-483.405	382.712	0.076	-0.158
-482.391	357.268	-0.064	-0.129
-481.376	-200.000	0.034	0.288
-480.362	-200.000	0.015	-0.218
-479.347	-123.695	-0.270	-0.043
-478.332	-92.848	-0.064	-0.018
-477.318	-97.677	0.210	0.055
-476.303	-114.158	0.032	-0.006
-475.289	-152.666	0.037	-0.003
-474.274	50.279	-0.028	-0.026
-473.259	800.000	0.108	0.307
-472.245	189.307	-0.093	-0.141
-471.230	44.371	0.208	-0.193
-470.216	15.871	0.173	-0.137
-469.201	368.394	0.154	-0.314
-468.186	-65.131	-0.117	0.048
-467.172	22.427	-0.241	-0.199
-466.157	193.892	0.059	0.090
-465.143	800.000	0.021	-0.074
-464.128	71.876	-0.072	-0.075
-463.113	-75.106	-0.255	-0.092
-462.099	396.766	0.116	0.243
-461.084	800.000	-0.057	0.163
-460.070	-200.000	0.053	0.247
-459.055	-145.796	-0.120	0.011
-458.040	-6.383	0.111	0.076
-457.026	35.016	0.169	-0.149
-456.011	800.000	0.071	-0.244
-454.997	67.049	0.207	0.213
-453.982	40.480	-0.215	0.195
-452.968	-200.000	0.009	0.173
-451.953	-200.000	0.015	-0.224
-450.938	88.755	0.388	0.435
-449.924	281.676	0.151	0.272
-448.909	-103.620	-0.188	0.044
-447.895	523.017	0.064	0.152
-446.880	424.580	0.087	0.188
-445.865	10.772	-0.051	0.039
-444.851	-139.268	0.189	-0.020
-443.836	790.471	-0.008	0.021
-442.822	-195.054	-0.178	0.001
-441.807	800.000	-0.088	0.320
-440.792	-59.092	0.168	-0.073
-439.778	-24.480	-0.166	-0.100
-438.763	38.613	-0.077	0.069
-437.749	-49.872	0.343	0.164
-436.734	800.000	-0.122	-0.361
-435.719	2.636	0.020	-0.015
-434.705	-96.091	0.314	-0.084
-433.690	-200.000	-0.010	-0.459
-432.676	-200.000	-0.026	-0.303
-431.661	-200.000	0.002	-0.097
-430.646	-200.000	0.009	-0.076
-429.632	31.509	-0.225	0.195
-428.617	308.528	0.024	-0.044
-427.603	542.568	0.108	-0.260
-426.588	355.606	-0.073	-0.146
-425.573	-200.000	0.001	-0.303
-424.559	-149.584	-0.060	0.005
-423.544	800.000	-0.115	0.341
-422.530	-193.054	-0.284	0.003
-421.515	-119.365	-0.210	-0.037
-420.500	102.956	-0.163	0.192
-419.486	86.146	-0.146	0.162
-418.471	197.578	0.266	0.409
-417.457	14.701	-0.295	0.232
-416.442	34.389	0.149	-0.131
-415.428	-6.878	0.252	0.172
-414.413	-180.274	-0.280	-0.006
-413.398	-117.772	-0.306	-0.055
-412.384	-200.000	-0.042	-0.278
-411.369	138.462	0.130	-0.171
-410.355	-107.453	0.228	0.050
-409.340	-200.000	0.008	-0.296
-408.325	21.679	-0.073	-0.060
-407.311	520.589	0.106	-0.250
-406.296	795.256	-0.061	0.168
-405.282	-200.000	-0.004	-0.232
-404.267	57.849	0.147	0.145
-403.252	34.493	0.034	0.030
-402.238	-76.115	0.130	-0.046
-401.223	-200.000	-0.058	0.373
-400.209	251.709	0.248	0.424
-399.194	199.705	0.102	-0.158
-398.179	7.197	-0.020	-0.015
-397.165	-93.580	-0.093	0.026
-396.150	238.473	0.093	0.156
-395.136	-200.000	-0.009	0.090
-394.121	-140.070	-0.131	0.014
-393.106	164.592	0.127	0.181
-392.092	8.597	-0.242	0.183
-391.077	-29.486	-0.239	-0.137
-390.063	-16.432	-0.140	0.089
-389.048	-200.000	0.003	-0.094
-388.033	-85.361	-0.133	-0.042
-387.019	164.172	-0.102	-0.144
-386.004	800.000	-0.071	-0.290
-384.990	-200.000	0.030	0.331
-383.975	26.318	0.045	-0.038
-382.960	-23.858	0.108	-0.065
-381.946	96.356	-0.109	0.125
-380.931	66.151	-0.115	0.117
-379.917	-50.207	0.206	0.098
-378.902	109.776	-0.128	0.154
-377.888	-200.000	0.015	0.369
-376.873	135.984	0.137	0.179
-375.858	274.714	0.173	-0.308
-374.844	26.988	0.125	-0.105
-373.829	-200.000	0.000	0.105
-372.815	-65.123	-0.455	0.184
-371.800	-79.792	0.205	-0.069
-370.785	-200.000	0.028	-0.180
-369.771	108.382	0.346	-0.414
-368.756	-116.681	0.324	0.060
-367.742	-131.879	-0.143	0.019
-366.727	239.478	-0.084	-0.140
-365.712	-200.000	-0.017	-0.132
-364.698	295.935	-0.161	0.297
-363.683	159.948	-0.078	-0.110
-362.669	689.854	-0.058	0.153
-361.654	-100.063	0.141	0.035
-360.639	277.056	-0.100	-0.178
-359.625	-200.000	-0.051	0.348
-358.610	-23.672	0.071	0.043
-357.596	33.965	0.063	0.055
-356.581	6.835	-0.109	0.081
-355.566	-145.272	-0.134	-0.012
-354.552	326.768	0.117	0.226
-353.537	800.000	0.103	-0.345
-352.523	26.903	-0.154	-0.129
-351.508	800.000	-0.087	-0.255
-350.493	-13.585	-0.225	-0.146
-349.479	-83.092	-0.249	0.080
-348.464	133.670	-0.182	-0.236
-347.450	316.212	0.085	-0.162
-346.435	470.842	0.153	-0.344
-345.420	-92.074	-0.183	-0.052
-344.406	148.123	-0.211	0.285
-343.391	-200.000	0.012	-0.314
-342.377	23.411	-0.267	-0.220
-341.362	-45.055	0.324	-0.162
-340.348	-48.253	-0.239	0.115
-339.333	256.804	-0.096	-0.165
-338.318	-113.476	-0.052	0.010
-337.304	98.942	0.028	-0.033
-336.289	-124.741	-0.043	0.007
-335.275	32.625	0.046	0.040
-334.260	271.182	0.119	0.210
-333.245	-75.701	0.172	0.061
-332.231	-11.093	0.210	0.139
-331.216	-79.044	-0.276	-0.094
-330.202	8.834	0.116	-0.088
-329.187	166.493	0.025	0.035
-328.172	14.133	-0.344	-0.268
-327.158	-187.615	0.288	-0.004
-326.143	16.392	-0.256	-0.203
-325.129	338.571	-0.195	0.380
-324.114	90.169	-0.101	-0.113
-323.099	-200.000	0.047	0.331
-322.085	32.369	0.242	0.210
-321.070	53.080	-0.183	-0.176
-320.056	40.133	0.081	-0.073
-319.041	525.900	-0.044	0.105
-318.026	-16.710	-0.071	-0.045
-317.012	-60.126	-0.093	-0.040
-315.997	-75.578	-0.106	0.038
-314.983	83.288	0.070	0.076
-313.968	219.001	-0.158	-0.253
-312.953	-200.000	0.038	0.249
-311.939	-71.504	0.352	-0.132
-310.924	-132.654	0.311	0.040
-309.910	800.000	0.104	-0.339
-308.895	5.656	-0.169	0.125
-307.880	-200.000	0.015	0.196
-306.866	267.017	-0.068	-0.120
-305.851	77.793	0.144	-0.154
-304.837	221.766	-0.133	0.214
-303.822	-44.127	-0.078	-0.039
-302.807	-200.000	0.059	-0.283
-301.793	-153.505	0.235	-0.016
-300.778	-146.580	0.166	0.014
-299.764	-200.000	-0.057	0.315
-298.749	-123.173	-0.397	0.064
-297.735	-41.020	-0.180	-0.093
-296.720	-73.815	-0.124	0.045
-295.705	-200.000	-0.003	0.310
-294.691	68.345	0.161	0.165
-293.676	-200.000	-0.051	-0.369
-292.662	109.878	0.111	-0.133
-291.647	-55.874	-0.300	-0.134
-290.632	293.025	-0.115	-0.211
-289.618	-200.000	0.068	0.447
-288.603	-68.016	0.080	-0.031
-287.589	303.350	-0.187	0.347
-286.574	-58.625	-0.302	-0.131
-285.559	-200.000	-0.059	-0.452
-284.545	-30.742	-0.225	-0.127
-283.530	436.538	0.123	0.267
-282.516	-28.883	-0.068	0.039
-281.501	465.001	0.090	0.202
-280.486	191.505	-0.086	-0.129
-279.472	762.195	0.071	-0.193
-278.457	-119.485	0.419	0.073
-277.443	-129.078	0.148	-0.021
-276.428	18.809	-0.304	-0.244
-275.413	3.074	0.135	-0.098
-274.399	187.667	-0.149	-0.222
-273.384	-21.285	-0.172	-0.105
-272.370	-186.386	-0.173	-0.002
-271.355	-200.000	0.035	-0.247
-270.340	-200.000	0.016	0.201
-269.326	410.471	0.123	-0.261
-268.311	-102.921	-0.146	0.035
-267.297	63.685	0.227	-0.228
-266.282	479.430	0.088	0.199
-265.267	108.981	-0.141	0.169
-264.253	-28.751	0.089	0.051
-263.238	-127.584	0.311	0.045
-262.224	344.682	0.214	-0.421
-261.209	49.822	0.159	0.150
-260.195	-200.000	0.002	0.342
-259.180	-140.501	0.148	-0.015
-258.165	800.000	0.110	0.353
-257.151	180.611	0.120	0.177
-256.136	-65.514	0.208	0.084
-255.122	271.558	0.067	0.117
-254.107	-131.795	-0.173	0.023
-253.092	36.478	-0.164	-0.145
-252.078	800.000	-0.085	0.292
-251.063	-33.783	-0.274	0.151
-250.049	-98.936	-0.495	0.125
-249.034	-28.719	-0.200	0.115
-248.019	-21.075	0.105	-0.064
-247.005	-4.606	0.172	0.119
-245.990	217.386	-0.050	0.079
-244.976	-200.000	0.038	0.751
-243.961	-41.040	-0.186	0.096
-242.946	-200.000	-0.018	0.162
-241.932	248.300	0.070	-0.118
-240.917	123.945	0.104	-0.130
-239.903	-140.580	-0.323	0.033
-238.888	-200.000	-0.023	0.318
-237.873	800.000	-0.049	0.189
-236.859	-200.000	0.036	-0.269
-235.844	-200.000	0.066	-0.334
-234.830	-102.584	-0.115	0.028
-233.815	17.388	0.189	0.150
-232.800	-53.982	-0.167	-0.076
-231.786	800.000	0.058	0.173
-230.771	800.000	0.032	0.113
-229.757	47.631	-0.186	0.173
-228.742	384.152	0.129	0.264
-227.727	-200.000	0.028	0.168
-226.713	-140.910	0.389	-0.040
-225.698	800.000	0.049	0.171
-224.684	-66.153	0.057	-0.023
-223.669	25.450	0.163	-0.135
-222.655	-200.000	-0.032	-0.299
-221.640	-200.000	-0.010	-0.263
-220.625	-26.425	0.077	-0.045
-219.611	254.136	0.048	0.083
-218.596	-144.449	0.371	0.034
-217.582	-72.265	0.213	-0.079
-216.567	228.949	-0.077	0.125
-215.552	-200.000	-0.016	0.292
-214.538	-179.530	0.234	0.005
-213.523	-157.844	-0.131	0.008
-212.509	-200.000	-0.001	0.145
-211.494	-200.000	0.033	-0.186
-210.479	800.000	0.037	-0.125
-209.465	475.895	-0.160	0.360
-208.450	176.153	0.170	0.247
-207.436	86.131	0.112	-0.123
-206.421	22.990	0.281	-0.230
-205.406	-200.000	-0.005	0.048
-204.392	253.663	0.294	0.501
-203.377	97.442	-0.082	-0.094
-202.363	30.215	-0.306	-0.261
-201.348	-4.599	0.200	-0.137
-200.333	563.446	0.079	0.192
-199.319	106.623	0.290	0.344
-198.304	0.807	0.344	-0.245
-197.290	19.318	0.232	-0.186
-196.275	-161.786	0.350	-0.018
-195.260	160.117	0.104	-0.144
-194.246	310.099	0.039	0.073
-193.231	157.749	0.204	-0.282
-192.217	800.000	0.018	-0.064
-191.202	-200.000	0.018	0.319
-190.187	221.560	-0.196	0.314
-189.173	-58.175	0.115	-0.050
-188.158	171.731	-0.084	-0.120
-187.144	240.562	0.168	-0.279
-186.129	-64.404	0.181	0.073
-185.114	800.000	-0.025	0.093
-184.100	-42.967	-0.371	0.188
-183.085	33.244	0.198	-0.171
-182.071	492.240	0.056	-0.128
-181.056	104.387	0.042	-0.050
-180.042	-89.382	0.251	0.074
-179.027	15.959	-0.277	0.217
-178.012	30.989	0.185	0.158
-176.998	-200.000	-0.011	0.049
-175.983	-125.624	-0.252	0.038
-174.969	800.000	0.066	0.189
-173.954	-96.111	0.402	-0.107
-172.939	-89.941	-0.123	-0.036
-171.925	-59.859	-0.244	-0.104
-170.910	-124.001	-0.059	-0.009
-169.896	-8.390	0.393	0.263
-168.881	-154.127	0.340	-0.023
-167.866	69.941	0.174	0.178
-166.852	63.097	-0.069	0.069
-165.837	83.671	0.187	-0.203
-164.823	-95.950	0.277	-0.073
-163.808	292.368	0.040	-0.073
-162.793	-200.000	0.041	-0.358
-161.779	-200.000	0.025	0.262
-160.764	45.778	-0.146	0.134
-159.750	57.201	0.155	0.151
-158.735	-200.000	-0.098	0.511
-157.720	145.896	0.083	0.111
-156.706	-200.000	0.033	-0.151
-155.691	202.753	-0.086	0.132
-154.677	-27.930	-0.168	-0.097
-153.662	-200.000	-0.017	-0.110
-152.647	-33.331	-0.069	0.038
-151.633	392.088	0.158	0.326
-150.618	-8.102	0.078	-0.052
-149.604	101.321	-0.076	-0.088
-148.589	800.000	0.042	-0.160
-147.574	204.163	-0.316	0.488
-146.560	-137.064	-0.388	0.044
-145.545	-200.000	0.013	0.089
-144.531	147.637	0.055	-0.073
-143.516	800.000	-0.033	0.128
-142.502	-77.933	-0.132	0.045
-141.487	-200.000	0.049	-0.272
-140.472	17.883	0.056	-0.044
-139.458	800.000	-0.103	-0.295
-138.443	-85.558	0.253	-0.078
-137.429	-200.000	0.047	-0.318
-136.414	-75.531	-0.112	0.040
-135.399	197.686	-0.081	-0.123
-134.385	13.307	-0.304	0.235
-133.370	-103.910	-0.534	-0.124
-132.356	342.572	0.055	0.108
-131.341	457.238	0.082	-0.181
-130.326	-58.093	0.176	-0.076
-129.312	104.699	-0.168	0.196
-128.297	-92.168	0.115	-0.032
-127.283	310.429	0.150	0.278
-126.268	-122.749	-0.440	-0.071
-125.253	25.254	-0.096	0.079
-124.239	-200.000	0.052	0.252
-123.224	800.000	-0.014	-0.048
-122.210	89.911	0.048	0.053
-121.195	79.211	0.246	0.262
-120.180	800.000	-0.102	0.424
-119.166	24.305	-0.162	0.133
-118.151	232.236	-0.099	-0.162
-117.137	62.127	-0.169	-0.167
-116.122	-31.938	-0.100	-0.056
-115.107	257.198	0.079	0.135
-114.093	-29.711	0.303	0.172
-113.078	800.000	0.064	-0.210
-112.064	800.000	-0.125	-0.356
-111.049	298.569	0.112	-0.204
-110.034	277.728	-0.044	0.078
-109.020	-64.395	0.131	0.053
-108.005	256.725	0.089	-0.151
-106.991	-109.888	-0.079	-0.017
-105.976	344.916	0.155	0.303
-104.962	-38.075	-0.127	-0.067
-103.947	-69.380	-0.216	-0.082
-102.932	800.000	0.053	0.204
-101.918	800.000	-0.077	-0.264
-100.903	324.448	0.190	0.360
-99.889	-109.436	-0.253	-0.053
-98.874	155.809	-0.198	-0.271
-97.859	-111.921	0.165	0.033
-96.845	79.182	-0.069	0.074
-95.830	-200.000	0.008	0.262
-94.816	-7.489	-0.077	0.052
-93.801	-200.000	-0.052	0.383
-92.786	132.477	0.101	0.129
-91.772	-200.000	0.010	-0.137
-90.757	496.650	0.142	-0.325
-89.743	-200.000	-0.018	0.128
-88.728	800.000	0.126	-0.406
-87.713	-141.840	0.655	-0.065
-86.699	-100.133	-0.201	0.050
-85.684	172.744	-0.107	0.153
-84.670	-114.101	0.102	0.020
-83.655	800.000	0.056	0.164
-82.640	53.789	0.254	-0.242
-81.626	-200.000	-0.052	-0.398
-80.611	-138.368	-0.590	0.065
-79.597	174.385	0.114	0.164
-78.582	79.584	-0.132	0.141
-77.567	80.458	0.100	-0.107
-76.553	-49.490	0.310	-0.147
-75.538	411.957	0.156	-0.329
-74.524	51.050	0.110	-0.104
-73.509	-200.000	0.006	0.410
-72.494	42.100	0.114	0.102
-71.480	800.000	-0.045	0.175
-70.465	-200.000	0.022	-0.164
-69.451	102.174	0.333	-0.386
-68.436	-58.557	0.282	0.121
-67.422	294.874	-0.125	0.227
-66.407	-129.783	-0.094	0.013
-65.392	-100.074	-0.201	0.050
-64.378	-200.000	-0.014	-0.146
-63.363	-50.328	-0.237	0.111
-62.349	224.858	-0.207	0.333
-61.334	46.884	-1.037	-0.956
-60.319	393.690	0.238	0.491
-59.305	800.000	-0.323	-0.978
-58.290	745.590	0.361	0.964
-57.276	-200.000	0.340	1.490
-56.261	-200.000	95.362	564.132
-55.246	634.988	1384.571	3482.724
-54.232	186.103	2601.100	3835.277
-53.217	122.970	2190.225	2718.459
-52.203	47.300	1641.870	1515.958
-51.188	38.862	1376.515	1218.779
-50.173	35.605	1333.640	1161.126
-49.159	56.606	1382.622	1333.455
-48.144	60.946	1400.591	1377.397
-47.130	39.242	1355.064	1201.922
-46.115	35.560	1336.879	1163.488
-45.100	35.386	1332.068	1158.203
-44.086	35.255	1329.401	1155.049
-43.071	35.292	1327.039	1153.173
-42.057	35.285	1324.876	1151.207
-41.042	35.283	1323.214	1149.707
-40.027	35.319	1321.862	1148.705
-39.013	35.313	1320.146	1147.132
-37.998	35.368	1317.801	1145.372
-36.984	35.467	1316.116	1144.453
-35.969	35.434	1314.323	1142.652
-34.954	35.492	1312.599	1141.454
-33.940	35.511	1311.335	1140.425
-32.925	35.586	1309.899	1139.575
-31.911	35.484	1308.539	1137.743
-30.896	35.552	1307.097	1136.845
-29.881	35.580	1305.702	1135.753
-28.867	35.568	1304.170	1134.301
-27.852	35.547	1302.504	1132.687
-26.838	35.592	1300.957	1131.558
-25.823	35.521	1299.893	1130.173
-24.809	35.412	1298.883	1128.609
-23.794	35.557	1297.399	1128.123
-22.779	35.542	1295.756	1126.565
-21.765	35.688	1294.163	1125.990
-20.750	35.542	1293.151	1124.208
-19.736	35.410	1291.699	1122.128
-18.721	35.378	1290.586	1120.931
-17.706	35.382	1289.401	1119.881
-16.692	35.282	1288.515	1118.485
-15.677	35.378	1287.432	1118.060
-14.663	35.396	1285.871	1116.764
-13.648	35.310	1284.942	1115.415
-12.633	35.312	1284.507	1115.005
-11.619	35.360	1283.567	1114.422
-10.604	35.300	1282.713	1113.290
-9.590	35.360	1281.580	1112.608
-8.575	35.319	1280.486	1111.375
-7.560	35.437	1279.547	1111.203
-6.546	35.326	1278.949	1109.996
-5.531	35.393	1277.505	1109.087
-4.517	35.341	1276.866	1108.185
-3.502	35.405	1275.652	1107.456
-2.487	35.365	1274.913	1106.540
-1.473	35.291	1270.432	1102.185
-0.458	33.680	1254.604	1079.254
0.556	31.164	1234.658	1032.708
1.571	26.244	1238.049	1008.071
2.586	24.666	1251.842	1010.303
3.600	23.252	1240.077	992.796
4.615	17.720	1167.465	905.291
5.629	9.204	1091.403	803.795
6.644	5.116	1070.115	767.959
7.659	4.706	1067.530	764.027
8.673	4.489	1066.044	761.832
9.688	4.600	1064.728	761.368
10.702	5.255	1063.591	763.688
11.717	10.597	1071.891	795.844
12.731	18.835	1082.976	844.665
13.746	22.012	1086.601	863.064
14.761	21.795	1085.732	861.229
15.775	20.872	1084.106	855.334
16.790	19.932	1081.694	848.747
17.804	19.191	1080.339	843.980
18.819	18.922	1078.949	841.505
19.834	18.707	1078.363	839.923
20.848	18.590	1078.111	839.080
21.863	18.465	1077.003	837.529
22.877	18.408	1075.768	836.220
23.892	18.287	1075.591	835.418
24.907	18.195	1074.480	834.029
25.921	18.324	1073.640	833.931
26.936	18.294	1072.531	832.850
27.950	18.349	1070.764	831.675
28.965	18.394	1069.446	830.795
29.980	18.661	1067.768	830.710
30.994	18.767	1066.962	830.522
32.009	18.647	1066.085	829.186
33.023	18.625	1065.272	828.376
34.038	18.593	1063.979	827.142
35.053	18.442	1063.261	825.782
36.067	18.336	1062.796	824.837
37.082	18.569	1061.348	824.759
38.096	18.612	1061.046	824.661
39.111	18.618	1060.081	823.864
40.126	18.511	1058.866	822.334
41.140	18.207	1057.649	819.860
42.155	18.067	1056.051	817.878
43.169	17.948	1055.118	816.518
44.184	18.033	1054.089	816.056
45.199	18.078	1053.145	815.463
46.213	18.258	1052.168	815.493
47.228	18.342	1051.689	815.453
48.242	18.439	1050.682	815.060
49.257	18.340	1049.643	813.713
50.271	18.571	1048.742	814.036
51.286	18.410	1048.229	812.806
52.301	18.397	1046.824	811.582
53.315	18.195	1045.985	809.904
54.330	18.188	1044.859	808.923
55.344	18.103	1043.934	807.737
56.359	18.226	1042.848	807.404
57.374	18.044	1042.320	806.065
58.388	18.088	1040.869	805.079
59.403	18.131	1040.379	804.830
60.417	17.932	1039.569	803.196
61.432	17.960	1038.634	802.536
62.447	17.844	1037.730	801.223
63.461	17.847	1036.818	800.464
64.476	17.794	1036.029	799.531
65.490	17.782	1034.996	798.610
66.505	17.865	1034.456	798.509
67.520	17.887	1033.615	797.894
68.534	17.858	1033.107	797.293
69.549	17.904	1032.313	796.829
70.563	17.699	1031.379	795.077
71.578	17.658	1030.347	794.019
72.593	17.631	1029.650	793.289
73.607	17.547	1029.038	792.356
74.622	17.614	1028.491	792.175
75.636	17.653	1027.629	791.623
76.651	17.642	1027.267	791.225
77.666	17.781	1026.354	791.096
78.680	17.831	1026.088	791.053
79.695	17.712	1025.795	790.204
80.709	17.917	1024.810	790.325
81.724	17.965	1024.114	789.940
82.739	18.074	1023.426	789.843
83.753	18.358	1022.581	790.432
84.768	18.526	1022.196	790.842
85.782	18.737	1021.145	790.926
86.797	18.746	1019.977	789.995
87.812	18.443	1019.176	787.913
88.826	18.346	1018.589	786.944
89.841	18.610	1017.148	786.970
90.855	18.550	1016.472	786.101
91.870	18.628	1015.731	785.818
92.884	18.559	1014.846	784.749
93.899	18.584	1014.220	784.309
94.914	18.817	1012.907	784.286
95.928	18.608	1012.390	782.863
96.943	18.430	1011.500	781.297
97.957	18.602	1010.175	780.986
98.972	18.577	1009.515	780.294
99.987	18.673	1008.517	779.889
101.001	18.546	1007.672	778.590
102.016	18.413	1007.165	777.527
103.030	18.548	1006.072	777.227
104.045	18.579	1005.279	776.686
105.060	18.487	1004.144	775.321
106.074	18.203	1003.183	773.227
107.089	18.007	1002.057	771.406
108.103	17.844	1001.212	769.953
109.118	17.893	1000.031	769.199
110.133	17.775	999.403	768.117
111.147	17.821	998.726	767.734
112.162	17.900	997.607	767.161
113.176	18.082	996.967	767.420
114.191	18.040	996.147	766.531
115.206	18.159	995.571	766.555
116.220	18.089	994.747	765.537
117.235	18.029	993.579	764.304
118.249	18.050	992.819	763.745
119.264	17.983	992.034	762.776
120.279	17.867	991.640	761.885
121.293	17.905	989.857	760.618
122.308	17.830	989.413	759.873
123.322	17.794	988.215	758.728
124.337	17.865	986.926	757.984
125.352	17.691	986.301	756.668
126.366	17.651	985.715	755.974
127.381	17.739	984.336	755.235
128.395	17.716	983.666	754.554
129.410	17.820	982.856	754.328
130.424	18.023	981.696	754.266
131.439	18.084	981.518	754.331
132.454	18.034	980.821	753.508
133.468	18.006	980.050	752.728
134.483	18.165	978.813	752.409
135.497	18.184	978.105	751.880
136.512	18.088	977.254	750.741
137.527	18.107	976.238	749.975
138.541	18.128	975.803	749.668
139.556	18.311	974.909	749.718
140.570	18.353	974.780	749.734
141.585	18.626	973.534	749.905
142.600	18.573	972.946	749.154
143.614	18.658	972.076	748.788
144.629	18.688	971.198	748.176
145.643	18.655	970.069	747.097
146.658	18.467	969.109	745.474
147.673	18.218	967.689	743.233
148.687	18.213	966.960	742.584
149.702	18.201	966.036	741.760
150.716	18.201	964.731	740.690
151.731	18.312	964.472	740.907
152.746	18.251	963.788	740.053
153.760	18.303	963.191	739.751
154.775	18.450	962.785	740.010
155.789	18.545	961.845	739.632
156.804	18.419	961.465	738.732
157.819	18.515	960.938	738.675
158.833	18.567	960.183	738.255
159.848	18.705	959.743	738.444
160.862	18.685	958.019	736.965
161.877	18.404	956.665	734.654
162.892	18.182	956.015	733.139
163.906	18.201	955.078	732.434
164.921	18.064	954.702	731.497
165.935	18.346	953.551	731.756
166.950	18.378	952.389	730.936
167.964	18.434	951.694	730.577
168.979	18.188	950.815	728.791
169.994	18.333	949.823	728.581
171.008	18.439	949.365	728.613
172.023	18.472	948.992	728.403
173.037	18.517	948.506	728.159
174.052	18.711	946.760	727.577
175.067	18.284	946.643	725.613
176.081	18.174	946.063	724.637
177.096	18.233	945.404	724.318
178.110	18.229	944.644	723.654
179.125	18.226	944.447	723.426
180.140	18.244	944.276	723.307
181.154	18.450	943.577	723.579
182.169	18.546	943.169	723.607
183.183	18.804	942.060	723.780
184.198	18.731	941.333	722.850
185.213	18.657	940.989	722.211
186.227	18.865	940.053	722.301
187.242	18.890	939.470	721.897
188.256	18.963	939.147	721.888
189.271	18.856	938.027	720.517
190.286	18.509	937.004	718.214
191.300	18.125	936.448	716.115
192.315	18.097	935.627	715.306
193.329	18.255	935.089	715.493
194.344	18.456	934.079	715.498
195.359	18.492	933.934	715.471
196.373	18.528	933.773	715.438
197.388	18.661	933.463	715.692
198.402	18.892	932.655	715.968
199.417	19.032	931.980	715.972
200.432	19.195	931.395	716.134
201.446	19.074	931.418	715.586
202.461	19.286	930.726	715.873
203.475	19.183	930.121	714.918
204.490	18.787	929.644	712.844
205.504	18.731	928.427	711.617
206.519	18.757	927.411	710.883
207.534	18.874	926.629	710.704
208.548	18.907	926.084	710.356
209.563	18.778	925.295	709.159
210.577	18.914	924.770	709.252
211.592	19.163	924.309	709.865
212.607	19.206	923.089	709.042
213.621	19.017	922.758	707.947
214.636	19.106	921.884	707.580
215.650	19.054	921.211	706.786
216.665	19.184	920.727	706.886
217.680	19.285	920.173	706.813
218.694	19.220	919.714	706.132
219.709	19.235	918.638	705.303
220.723	19.171	918.228	704.667
221.738	19.222	917.750	704.445
222.753	19.114	916.790	703.205
223.767	19.377	916.440	703.945
224.782	19.323	915.832	703.199
225.796	19.526	915.183	703.463
226.811	19.432	914.141	702.220
227.826	19.247	913.168	700.655
228.840	19.247	912.580	700.144
229.855	19.151	912.175	699.378
230.869	19.165	911.323	698.721
231.884	19.055	910.698	697.734
232.899	19.040	909.714	696.858
233.913	18.972	909.351	696.242
234.928	18.919	908.540	695.348
235.942	18.894	907.747	694.575
236.957	18.992	907.350	694.608
237.972	18.925	907.032	694.034
238.986	18.897	906.347	693.335
240.001	18.923	905.654	692.846
241.015	19.088	904.513	692.577
242.030	19.129	904.420	692.609
243.045	19.136	903.998	692.252
244.059	19.168	903.078	691.615
245.074	19.244	902.834	691.674
246.088	19.269	902.491	691.451
247.103	19.479	901.646	691.581
248.117	19.605	901.376	691.818
249.132	19.746	900.944	691.989
250.147	19.937	900.437	692.305
251.161	20.055	899.497	691.991
252.176	19.932	899.273	691.267
253.190	20.067	898.360	691.043
254.205	20.200	897.997	691.230
255.220	20.082	897.140	690.040
256.234	20.124	896.246	689.460
257.249	20.014	895.647	688.502
258.263	19.913	895.134	687.644
259.278	20.044	893.968	687.207
260.293	20.162	893.866	687.536
261.307	20.125	893.632	687.147
262.322	20.147	892.635	686.409
263.336	20.273	891.788	686.195
264.351	20.321	891.188	685.862
265.366	20.279	890.781	685.322
266.380	20.322	889.524	684.463
267.395	20.079	889.076	683.101
268.409	20.059	887.944	682.091
269.424	20.103	887.711	682.024
270.439	19.864	886.988	680.471
271.453	19.921	886.091	679.945
272.468	19.844	885.681	679.268
273.482	19.983	884.991	679.223
274.497	19.942	884.506	678.629
275.512	19.830	884.107	677.827
276.526	20.009	883.703	678.155
277.541	20.017	883.220	677.758
278.555	20.132	882.710	677.757
279.570	20.267	882.182	677.817
280.585	20.324	881.020	677.089
281.599	20.167	880.250	675.825
282.614	20.087	879.548	674.916
283.628	20.008	879.025	674.144
284.643	20.037	878.374	673.700
285.657	20.030	878.077	673.383
286.672	20.098	876.969	672.740
287.687	20.221	876.392	672.715
288.701	20.156	876.035	672.130
289.716	20.232	875.455	671.920
290.730	20.403	874.510	671.794
291.745	20.282	874.021	670.894
292.760	20.329	873.676	670.750
293.774	20.482	873.138	670.868
294.789	20.487	872.016	669.967
295.803	20.321	871.281	668.702
296.818	20.080	871.202	667.654
297.833	20.294	870.469	667.859
298.847	20.314	869.731	667.309
299.862	20.227	869.539	666.769
300.876	20.309	869.093	666.683
301.891	20.530	868.041	666.665
302.906	20.558	867.890	666.597
303.920	20.700	867.729	666.956
304.935	20.696	867.191	666.470
305.949	20.684	866.189	665.597
306.964	20.575	865.242	664.391
307.979	20.440	865.056	663.675
308.993	20.631	864.680	664.056
310.008	20.670	863.851	663.511
311.022	20.520	863.390	662.525
312.037	20.370	862.528	661.236
313.052	20.469	861.788	660.986
314.066	20.178	861.516	659.611
315.081	20.235	860.885	659.288
316.095	20.368	859.642	658.783
317.110	20.161	859.864	658.107
318.125	20.289	858.946	657.834
319.139	20.275	858.742	657.563
320.154	20.211	858.362	656.974
321.168	20.412	857.557	657.058
322.183	20.548	856.815	656.948
323.197	20.523	856.459	656.521
324.212	20.551	856.116	656.304
325.227	20.500	855.162	655.323
326.241	20.348	854.940	654.524
327.256	20.408	854.144	654.082
328.270	20.267	853.789	653.221
329.285	20.444	852.744	653.028
330.300	20.357	852.488	652.447
331.314	20.325	852.146	652.008
332.329	20.622	851.506	652.574
333.343	20.664	851.692	652.818
334.358	20.738	850.938	652.461
335.373	20.732	850.106	651.742
336.387	20.888	849.963	652.157
337.402	20.886	849.856	652.012
338.416	20.899	849.713	651.891
339.431	20.961	849.330	651.771
340.446	21.157	849.135	652.296
341.460	21.205	848.500	651.933
342.475	21.255	848.035	651.703
343.489	21.213	847.710	651.241
344.504	21.309	847.162	651.119
345.519	21.404	846.973	651.269
346.533	21.424	846.076	650.597
347.548	21.160	844.992	648.724
348.562	20.894	844.855	647.572
349.577	20.834	844.374	646.923
350.592	20.819	843.348	646.026
351.606	20.792	842.730	645.393
352.621	20.825	842.188	645.046
353.635	20.974	841.413	644.946
354.650	20.787	841.263	644.083
355.665	20.944	840.293	643.860
356.679	21.121	840.041	644.265
357.694	21.078	839.317	643.493
358.708	21.024	838.837	642.870
359.723	21.136	838.022	642.602
360.738	21.025	837.359	641.629
361.752	21.155	836.529	641.414
362.767	21.232	836.474	641.596
363.781	21.280	836.198	641.504
364.796	21.495	835.504	641.704
365.810	21.513	835.479	641.693
366.825	21.432	834.969	640.947
367.840	21.501	834.377	640.690
368.854	21.567	833.535	640.227
369.869	21.540	832.828	639.531
370.883	21.420	832.469	638.758
371.898	21.626	832.436	639.428
372.913	21.563	832.283	639.027
373.927	21.493	831.424	638.055
374.942	21.552	830.842	637.767
375.956	21.645	830.342	637.665
376.971	21.688	830.172	637.636
377.986	21.882	829.720	637.936
379.000	21.924	829.221	637.650
380.015	21.757	828.447	636.392
381.029	21.815	828.305	636.436
382.044	21.740	827.583	635.554
383.059	21.878	827.016	635.560
384.073	21.752	826.197	634.418
385.088	21.562	825.748	633.332
386.102	21.553	824.901	632.595
387.117	21.406	824.095	631.386
388.132	21.528	823.391	631.232
389.146	21.611	823.012	631.185
390.161	21.702	823.161	631.572
391.175	21.742	822.409	631.085
392.190	21.599	821.935	630.150
393.205	21.577	821.035	629.323
394.219	21.453	821.157	628.917
395.234	21.505	820.776	628.757
396.248	21.404	820.001	627.745
397.263	21.370	819.137	626.904
398.278	21.472	818.864	627.007
399.292	21.425	818.629	626.604
400.307	21.316	817.823	625.539
401.321	21.495	817.589	625.946
402.336	21.496	817.186	625.585
403.350	21.577	817.186	625.821
404.365	21.606	816.818	625.584
405.380	21.771	816.150	625.608
406.394	21.869	815.856	625.677
407.409	21.899	815.676	625.591
408.423	21.987	815.029	625.353
409.438	22.153	814.641	625.593
410.453	22.250	814.274	625.600
411.467	22.108	813.987	624.818
412.482	22.231	813.605	624.906
413.496	22.287	813.453	624.932
414.511	22.254	812.630	624.130
415.526	22.227	811.922	623.432
416.540	22.264	811.254	622.996
417.555	22.141	811.328	622.564
418.569	22.111	810.590	621.837
419.584	22.337	810.322	622.373
420.599	22.272	809.763	621.660
421.613	158.643	1370.050	1787.646
422.628	137.987	1451.694	1787.749
