DTS Sentinel unit serial number:	SN413079Multiplexer serial number:	ORYXHardware model number:	OX4-SRSoftware version number:	ORYX F/W v4.00 Oryx Data Collector v3.7.2.0data status	okinstallation	princeton_trtdifferential loss correction	single-endedforward channel	channel 1reverse channel	N/Adate	2019/09/16time	18:18:35forward acquisition time	60.00reverse acquisition time	0.00gamma	496.2192k internal	0.2303k external	0.2303temperature offset calibration	0.9968default loss term (dB/km)	0.3790temperature slope calibration	1.0000multiplexer offset coefficient	1.0000multiplexer slope coefficient	1.0000fibre end	0.00T internal ref (°C)	37.03T ext. ref 1 (°C)	15.75T ext. ref 2 (°C)	30.56length (m)	temperature (°C)	Stokes	anti-Stokes-747.200	-136.623	0.138	0.016
-746.185	253.448	0.072	-0.125
-745.171	-97.970	-0.139	0.037
-744.156	155.164	0.278	0.390
-743.142	800.000	-0.093	0.293
-742.127	-200.000	0.041	0.369
-741.112	-138.938	-0.122	-0.014
-740.098	-54.850	-0.224	0.103
-739.083	-104.348	0.402	0.095
-738.069	800.000	0.051	-0.214
-737.054	-40.850	-0.241	-0.127
-736.039	-168.075	-0.559	0.022
-735.025	-152.702	0.416	-0.030
-734.010	94.609	-0.061	0.071
-732.996	30.190	-0.166	0.144
-731.981	89.651	-0.139	-0.158
-730.966	-106.887	0.124	-0.028
-729.952	800.000	-0.012	-0.053
-728.937	188.580	0.094	-0.143
-727.923	46.322	0.047	0.044
-726.908	131.283	0.133	0.174
-725.894	168.650	-0.128	-0.186
-724.879	800.000	0.024	0.088
-723.864	294.416	-0.021	-0.039
-722.850	-170.794	-0.423	0.015
-721.835	-53.638	-0.191	0.089
-720.821	-45.383	-0.355	-0.179
-719.806	800.000	-0.092	-0.360
-718.791	263.264	-0.078	0.138
-717.777	-145.146	-0.100	0.009
-716.762	-200.000	0.040	-0.177
-715.748	-200.000	-0.005	0.156
-714.733	157.906	-0.152	-0.215
-713.718	800.000	-0.036	-0.142
-712.704	68.745	0.101	0.105
-711.689	207.648	-0.095	0.152
-710.675	122.972	-0.228	-0.291
-709.660	-200.000	-0.005	0.214
-708.645	125.667	0.110	-0.141
-707.631	-200.000	0.186	0.000
-706.616	-19.082	0.105	0.066
-705.602	-0.605	0.343	0.248
-704.587	178.318	0.200	-0.297
-703.572	800.000	0.064	0.182
-702.558	-185.003	-0.197	-0.003
-701.543	800.000	-0.078	-0.273
-700.529	497.976	-0.161	-0.376
-699.514	-200.000	-0.050	0.309
-698.499	-200.000	-0.027	-0.307
-697.485	-200.000	0.041	-0.391
-696.470	-200.000	0.002	0.158
-695.456	-104.806	-0.143	-0.033
-694.441	104.821	0.029	-0.035
-693.426	26.669	-0.225	0.191
-692.412	-117.132	-0.219	0.040
-691.397	117.813	-0.068	-0.085
-690.383	281.338	0.116	0.211
-689.368	800.000	-0.082	-0.240
-688.354	-200.000	-0.046	0.268
-687.339	-57.902	0.132	0.059
-686.324	-200.000	-0.008	0.130
-685.310	-142.830	0.025	0.002
-684.295	-95.894	0.087	0.024
-683.281	118.173	0.029	0.036
-682.266	-137.257	-0.243	-0.028
-681.251	-140.668	0.518	-0.055
-680.237	353.451	0.073	0.147
-679.222	104.381	0.083	-0.100
-678.208	761.480	0.068	0.187
-677.193	-168.586	-0.193	0.007
-676.178	-124.839	-0.276	0.043
-675.164	83.656	-0.152	0.168
-674.149	48.681	0.112	0.107
-673.135	-14.737	-0.344	-0.224
-672.120	-200.000	0.008	-0.114
-671.105	-57.826	0.438	0.195
-670.091	-200.000	0.002	0.109
-669.076	6.744	-0.235	0.177
-668.062	707.000	-0.100	0.268
-667.047	-13.113	-0.161	0.106
-666.032	-90.416	0.242	0.071
-665.018	158.991	-0.184	0.259
-664.003	-75.822	0.243	-0.088
-662.989	-59.666	-0.040	-0.017
-661.974	-200.000	0.051	-0.361
-660.959	-86.602	-0.556	0.173
-659.945	580.275	0.101	0.252
-658.930	-113.045	-0.185	0.037
-657.916	-11.535	-0.100	0.067
-656.901	116.085	0.185	0.231
-655.886	-12.335	0.259	-0.172
-654.872	-200.000	-0.048	0.315
-653.857	-23.813	0.283	0.172
-652.843	60.869	-0.210	0.211
-651.828	-30.957	0.334	-0.191
-650.814	800.000	-0.035	-0.120
-649.799	-200.000	0.064	-0.427
-648.784	42.503	-0.128	0.118
-647.770	54.060	-0.056	-0.055
-646.755	800.000	-0.049	-0.218
-645.741	800.000	0.025	-0.110
-644.726	431.696	-0.206	-0.452
-643.711	-70.404	-0.368	-0.142
-642.697	46.267	-0.078	-0.073
-641.682	-37.759	0.285	0.154
-640.668	-133.218	-0.318	0.041
-639.653	37.435	-0.187	0.168
-638.638	-200.000	0.084	0.427
-637.624	800.000	-0.010	-0.042
-636.609	526.978	0.031	-0.074
-635.595	128.500	0.069	0.089
-634.580	28.115	0.032	0.027
-633.565	-96.502	0.161	0.043
-632.551	242.292	0.104	-0.177
-631.536	-200.000	0.003	-0.130
-630.522	-168.198	-0.108	-0.004
-629.507	-177.964	0.262	0.006
-628.492	-200.000	0.083	-0.484
-627.478	-108.994	-0.263	0.057
-626.463	50.757	0.179	0.171
-625.449	800.000	-0.053	0.198
-624.434	-163.924	0.105	0.005
-623.419	-14.460	0.311	-0.203
-622.405	-144.458	-0.055	-0.005
-621.390	-161.113	-0.283	-0.015
-620.376	559.094	-0.012	0.030
-619.361	246.187	-0.073	0.125
-618.346	-84.894	-0.153	0.049
-617.332	-72.828	-0.527	0.197
-616.317	20.297	0.112	-0.092
-615.303	-16.038	-0.201	0.129
-614.288	-122.307	-0.452	0.075
-613.273	-71.748	-0.215	0.081
-612.259	-132.553	0.083	0.011
-611.244	800.000	-0.048	0.212
-610.230	-176.249	-0.316	0.008
-609.215	-19.138	0.037	-0.023
-608.201	-42.956	0.211	0.108
-607.186	418.036	0.041	0.090
-606.171	-106.537	-0.078	0.018
-605.157	-200.000	-0.189	0.001
-604.142	110.855	0.202	0.246
-603.128	-200.000	-0.006	-0.169
-602.113	800.000	0.051	-0.194
-601.098	24.383	0.254	-0.213
-600.084	86.347	0.120	0.134
-599.069	-111.070	-0.289	-0.060
-598.055	-200.000	-0.005	0.212
-597.040	107.442	-0.050	0.060
-596.025	-200.000	-0.012	0.147
-595.011	-60.505	-0.197	0.085
-593.996	800.000	-0.035	-0.142
-592.982	407.214	-0.184	0.393
-591.967	-29.326	-0.155	-0.090
-590.952	-85.438	-0.141	0.045
-589.938	488.567	-0.081	-0.188
-588.923	575.025	-0.079	-0.194
-587.909	-200.000	0.006	0.093
-586.894	-101.930	-0.174	-0.042
-585.879	-200.000	-0.022	-0.259
-584.865	51.287	-0.221	-0.213
-583.850	-161.489	-0.352	-0.018
-582.836	-200.000	-0.201	0.001
-581.821	-159.160	-0.339	0.019
-580.806	-200.000	0.416	0.001
-579.792	-200.000	0.008	-0.262
-578.777	-94.328	-0.351	-0.097
-577.763	137.900	0.252	-0.334
-576.748	-200.000	0.011	0.158
-575.733	144.356	-0.299	0.405
-574.719	493.272	-0.152	-0.353
-573.704	310.762	0.143	-0.272
-572.690	-65.224	0.264	0.108
-571.675	20.541	0.350	0.287
-570.661	153.246	0.190	0.263
-569.646	227.014	0.239	0.393
-568.631	-147.976	0.237	-0.020
-567.617	-49.796	0.208	-0.100
-566.602	35.026	-0.174	0.154
-565.588	-82.163	-0.100	-0.033
-564.573	800.000	0.082	-0.237
-563.558	-54.345	0.305	-0.140
-562.544	-200.000	0.117	0.599
-561.529	140.717	0.054	0.072
-560.515	72.716	0.156	-0.165
-559.500	-16.235	0.132	-0.085
-558.485	266.574	-0.080	-0.141
-557.471	-105.309	0.316	0.073
-556.456	75.493	-0.237	-0.253
-555.442	-200.000	-0.009	-0.061
-554.427	126.724	0.041	-0.052
-553.412	723.032	-0.115	-0.310
-552.398	312.749	0.109	0.206
-551.383	-86.110	-0.207	-0.065
-550.369	3.390	-0.351	0.259
-549.354	-182.071	-0.361	0.007
-548.339	-200.000	0.052	0.248
-547.325	252.522	0.094	0.162
-546.310	-200.000	-0.065	-0.304
-545.296	-200.000	-0.032	-0.402
-544.281	-200.000	-0.021	-0.180
-543.266	-35.225	0.273	0.150
-542.252	290.591	0.175	0.321
-541.237	209.497	0.147	0.232
-540.223	88.641	0.074	-0.083
-539.208	-14.760	0.263	0.171
-538.193	86.461	-0.116	0.130
-537.179	-138.683	-0.252	-0.028
-536.164	-152.495	0.159	0.012
-535.150	800.000	-0.099	-0.279
-534.135	1.858	0.247	0.180
-533.121	168.398	0.035	-0.050
-532.106	800.000	-0.079	0.225
-531.091	-77.708	0.104	0.036
-530.077	-77.341	-0.103	0.036
-529.062	-200.000	-0.016	-0.134
-528.048	290.718	0.080	-0.146
-527.033	56.811	-0.120	-0.118
-526.018	19.338	-0.232	0.189
-525.004	167.724	-0.127	0.182
-523.989	-200.000	0.013	-0.245
-522.975	800.000	0.138	0.477
-521.960	-142.577	0.198	0.020
-520.945	-122.010	0.095	0.016
-519.931	-6.205	0.046	-0.031
-518.916	800.000	-0.080	-0.337
-517.902	-78.843	-0.037	0.013
-516.887	367.628	-0.064	0.130
-515.872	132.000	-0.130	0.169
-514.858	-200.000	-0.039	-0.238
-513.843	-200.000	-0.048	0.210
-512.829	81.792	-0.052	0.057
-511.814	-200.000	0.055	-0.397
-510.799	230.695	-0.079	0.130
-509.785	-126.232	0.135	0.020
-508.770	127.499	-0.036	-0.046
-507.756	666.859	-0.015	-0.039
-506.741	-200.000	-0.043	0.251
-505.726	-42.364	0.250	0.129
-504.712	-65.891	-0.493	-0.199
-503.697	79.761	-0.067	-0.073
-502.683	-69.101	0.180	0.070
-501.668	-200.000	-0.079	0.000
-500.653	88.387	0.186	0.208
-499.639	-200.000	-0.024	0.197
-498.624	-44.615	0.266	-0.134
-497.610	312.734	-0.100	0.190
-496.595	95.035	0.127	-0.146
-495.581	201.712	0.046	-0.072
-494.566	-176.959	0.137	0.003
-493.551	-26.860	-0.120	-0.071
-492.537	-41.319	-0.181	-0.094
-491.522	110.571	0.052	0.063
-490.508	190.578	0.033	0.050
-489.493	-90.747	-0.272	0.079
-488.478	-73.773	-0.258	-0.095
-487.464	57.509	0.086	-0.085
-486.449	60.981	0.208	0.208
-485.435	54.252	-0.071	-0.069
-484.420	-200.000	0.036	-0.219
-483.405	134.659	0.115	0.151
-482.391	-165.702	-0.203	-0.009
-481.376	-134.065	-0.151	-0.019
-480.362	800.000	-0.061	-0.186
-479.347	-80.790	-0.203	-0.068
-478.332	800.000	-0.073	-0.308
-477.318	-78.428	-0.131	-0.045
-476.303	695.056	-0.163	0.432
-475.289	-200.000	-0.002	-0.158
-474.274	-86.316	-0.133	-0.041
-473.259	-71.759	-0.212	-0.080
-472.245	-127.883	-0.098	-0.014
-471.230	-118.606	0.365	-0.065
-470.216	254.478	0.057	0.098
-469.201	377.269	-0.101	0.208
-468.186	-24.306	-0.229	0.138
-467.172	-139.443	0.187	-0.020
-466.157	56.580	0.346	-0.339
-465.143	-130.895	0.355	-0.048
-464.128	666.962	0.157	0.408
-463.113	-133.365	0.313	-0.040
-462.099	402.780	-0.041	-0.088
-461.084	-65.452	-0.033	-0.014
-460.070	-65.114	-0.364	0.148
-459.055	-200.000	0.024	0.132
-458.040	110.538	-0.162	-0.196
-457.026	-14.417	-0.052	-0.033
-456.011	-90.391	0.179	-0.052
-454.997	-52.244	0.270	-0.126
-453.982	132.507	0.063	0.081
-452.968	800.000	-0.160	0.480
-451.953	280.495	-0.022	0.039
-450.938	-118.539	-0.415	0.074
-449.924	-200.000	-0.058	0.487
-448.909	-63.092	0.266	0.110
-447.895	180.718	-0.111	-0.164
-446.880	546.980	0.039	-0.095
-445.865	443.499	-0.016	0.036
-444.851	800.000	-0.079	0.324
-443.836	-200.000	0.025	-0.136
-442.822	-97.465	-0.132	0.035
-441.807	-23.778	0.109	0.066
-440.792	21.064	0.156	0.128
-439.778	-152.920	-0.249	-0.018
-438.763	-14.632	-0.086	0.056
-437.749	136.148	-0.134	0.176
-436.734	-81.726	0.206	0.068
-435.719	-50.053	-0.211	-0.101
-434.705	-140.218	0.211	0.022
-433.690	200.035	-0.146	-0.225
-432.676	-62.943	-0.178	-0.074
-431.661	-200.000	-0.016	-0.115
-430.646	18.924	0.108	-0.087
-429.632	-73.416	-0.102	-0.038
-428.617	404.875	0.070	-0.148
-427.603	-69.904	-0.177	0.068
-426.588	25.811	0.110	-0.092
-425.573	-141.157	-0.295	-0.030
-424.559	54.696	0.275	0.267
-423.544	-200.000	0.059	-0.276
-422.530	-88.646	-0.186	-0.056
-421.515	60.490	0.032	0.032
-420.500	-200.000	0.006	-0.143
-419.486	800.000	-0.093	0.302
-418.471	-24.510	-0.238	0.143
-417.457	48.431	0.211	-0.199
-416.442	-25.266	0.428	0.255
-415.428	11.765	0.133	0.103
-414.413	259.197	-0.067	-0.116
-413.398	-125.553	0.066	-0.010
-412.384	-14.144	-0.446	0.289
-411.369	800.000	0.061	-0.226
-410.355	291.662	-0.216	-0.395
-409.340	-54.627	-0.229	-0.104
-408.325	-28.842	0.151	-0.087
-407.311	-3.374	-0.403	-0.282
-406.296	373.381	0.011	0.023
-405.282	239.126	-0.218	-0.364
-404.267	-85.940	0.132	0.041
-403.252	67.089	-0.270	0.277
-402.238	168.687	-0.261	-0.373
-401.223	142.473	-0.066	-0.089
-400.209	111.020	0.108	-0.131
-399.194	21.986	-0.038	0.031
-398.179	192.598	0.108	0.164
-397.165	-195.560	-0.233	-0.002
-396.150	-200.000	0.026	-0.183
-395.136	-76.129	0.293	0.104
-394.121	800.000	0.040	-0.154
-393.106	178.259	-0.163	-0.239
-392.092	184.258	-0.046	-0.068
-391.077	-18.685	0.304	0.191
-390.063	155.690	-0.058	0.080
-389.048	452.762	0.093	0.207
-388.033	-127.559	0.364	-0.053
-387.019	-200.000	0.083	0.383
-386.004	-71.966	0.264	-0.099
-384.990	-200.000	0.011	-0.322
-383.975	-111.975	-0.113	0.023
-382.960	-200.000	0.026	-0.121
-381.946	93.583	0.079	0.090
-380.931	-130.634	0.079	0.011
-379.917	-200.000	-0.031	0.194
-378.902	-200.000	-0.007	-0.210
-377.888	-55.524	-0.260	-0.117
-376.873	13.512	0.231	-0.180
-375.858	109.937	0.054	0.065
-374.844	-60.264	-0.223	-0.095
-373.829	800.000	0.044	0.173
-372.815	-200.000	0.004	0.108
-371.800	-104.570	0.168	-0.039
-370.785	588.641	0.175	0.432
-369.771	800.000	-0.047	0.170
-368.756	-155.909	0.196	-0.013
-367.742	-137.475	-0.229	0.026
-366.727	369.459	0.125	-0.254
-365.712	563.163	-0.182	-0.442
-364.698	-76.959	0.243	0.085
-363.683	26.424	-0.023	0.019
-362.669	308.720	-0.227	0.425
-361.654	-49.016	-0.205	-0.099
-360.639	-152.375	0.282	0.020
-359.625	-91.769	0.394	0.112
-358.610	27.397	0.155	0.131
-357.596	336.398	-0.082	0.160
-356.581	128.665	0.194	0.248
-355.566	-0.739	-0.324	0.230
-354.552	392.002	-0.131	0.273
-353.537	-128.187	-0.090	-0.013
-352.523	-131.507	0.183	0.024
-351.508	-71.708	0.147	-0.055
-350.493	373.047	-0.034	-0.070
-349.479	4.629	-0.245	-0.180
-348.464	-63.126	0.223	0.092
-347.450	-79.140	0.239	-0.081
-346.435	225.220	0.156	0.253
-345.420	79.869	0.228	0.245
-344.406	-73.895	-0.183	0.067
-343.391	135.843	-0.185	0.241
-342.377	182.859	0.041	0.060
-341.362	-101.535	0.323	0.079
-340.348	800.000	-0.020	0.088
-339.333	116.854	0.054	-0.067
-338.318	-158.961	0.027	0.002
-337.304	92.801	-0.190	-0.215
-336.289	127.566	-0.051	0.065
-335.275	89.934	-0.271	-0.303
-334.260	-149.155	0.380	0.030
-333.245	249.835	-0.255	0.433
-332.231	-200.000	0.025	-0.225
-331.216	-46.243	0.272	-0.134
-330.202	260.906	-0.042	-0.074
-329.187	195.842	-0.050	-0.076
-328.172	-200.000	0.018	-0.106
-327.158	800.000	-0.127	-0.385
-326.143	800.000	0.130	0.363
-325.129	800.000	-0.084	-0.266
-324.114	-52.851	0.090	0.041
-323.099	-17.683	0.255	0.161
-322.085	50.015	0.182	0.172
-321.070	-38.355	0.041	-0.022
-320.056	609.697	0.076	-0.191
-319.041	-200.000	0.020	-0.522
-318.026	-31.353	-0.135	-0.076
-317.012	441.678	0.064	-0.141
-315.997	800.000	-0.035	-0.145
-314.983	-18.263	-0.213	-0.133
-313.968	-200.000	0.003	-0.076
-312.953	22.521	-0.267	-0.219
-311.939	-148.604	-0.144	0.012
-310.924	1.845	0.216	-0.156
-309.910	-200.000	0.004	-0.403
-308.895	-146.950	-0.257	-0.022
-307.880	-32.179	0.129	0.072
-306.866	-200.000	-0.025	-0.184
-305.851	-3.009	0.229	0.160
-304.837	-200.000	0.017	-0.116
-303.822	-75.306	0.192	0.069
-302.807	-115.209	-0.134	0.025
-301.793	-200.000	0.025	-0.136
-300.778	-6.934	-0.208	-0.141
-299.764	413.092	-0.170	-0.361
-298.749	419.772	-0.194	-0.416
-297.735	-200.000	-0.067	0.462
-296.720	-88.003	-0.301	-0.091
-295.705	-156.046	0.343	0.022
-294.691	258.877	0.053	-0.091
-293.676	800.000	-0.044	-0.166
-292.662	115.247	-0.157	-0.192
-291.647	800.000	0.082	0.355
-290.632	-24.672	0.151	-0.090
-289.618	-131.582	0.317	-0.042
-288.603	-200.000	0.009	0.377
-287.589	-78.350	0.293	0.101
-286.574	-173.653	-0.049	0.001
-285.559	-74.651	-0.062	0.022
-284.545	-9.718	-0.073	0.048
-283.530	183.724	0.077	0.114
-282.516	-113.937	0.327	-0.064
-281.501	297.585	-0.083	-0.153
-280.486	-124.755	-0.138	0.021
-279.472	31.602	0.028	-0.024
-278.457	149.331	0.164	0.222
-277.443	79.156	-0.182	-0.195
-276.428	130.233	-0.242	0.310
-275.413	-200.000	-0.014	0.158
-274.399	-200.000	0.047	-0.286
-273.384	-200.000	0.023	-0.140
-272.370	-56.744	0.239	-0.106
-271.355	-200.000	-0.034	0.287
-270.340	212.294	0.166	0.262
-269.326	-95.114	-0.272	0.073
-268.311	800.000	0.032	-0.102
-267.297	9.701	-0.097	-0.074
-266.282	-200.000	0.034	-0.153
-265.267	-12.341	-0.189	0.123
-264.253	800.000	-0.143	-0.476
-263.238	21.040	-0.081	-0.066
-262.224	-45.531	0.097	-0.048
-261.209	378.514	-0.079	-0.161
-260.195	149.356	0.036	0.048
-259.180	423.255	-0.156	-0.334
-258.165	-88.874	-0.234	-0.069
-257.151	770.463	-0.048	0.132
-256.136	-85.592	-0.069	-0.022
-255.122	800.000	0.028	0.087
-254.107	-141.998	0.276	-0.027
-253.092	-96.356	0.107	-0.028
-252.078	-54.345	0.318	-0.144
-251.063	92.108	0.169	0.191
-250.049	800.000	0.066	0.238
-249.034	-200.000	0.014	-0.263
-248.019	749.700	-0.054	0.146
-247.005	288.176	-0.112	-0.202
-245.990	71.563	0.142	0.147
-244.976	235.213	-0.074	-0.122
-243.961	800.000	-0.012	-0.051
-242.946	-67.719	0.150	-0.059
-241.932	-163.641	0.306	-0.014
-240.917	-69.510	0.270	0.103
-239.903	-200.000	0.005	0.137
-238.888	-39.692	-0.246	-0.129
-237.873	90.014	-0.021	0.024
-236.859	-125.116	0.106	0.016
-235.844	172.152	0.166	0.239
-234.830	-66.084	-0.214	-0.085
-233.815	-82.688	0.242	0.078
-232.800	34.143	-0.027	-0.023
-231.786	-117.522	-0.165	-0.030
-230.771	-42.258	0.226	0.115
-229.757	-200.000	0.017	0.078
-228.742	-84.549	-0.314	0.099
-227.727	25.837	0.190	0.158
-226.713	-200.000	0.010	0.059
-225.698	-0.829	0.272	-0.193
-224.684	168.603	0.082	0.117
-223.669	-74.388	0.323	-0.116
-222.655	-106.560	-0.119	-0.026
-221.640	193.767	0.291	0.440
-220.625	-143.505	-0.146	0.014
-219.611	77.447	0.106	-0.113
-218.596	24.513	-0.027	-0.022
-217.582	42.530	-0.094	-0.085
-216.567	9.408	0.128	0.097
-215.552	-64.962	-0.095	0.038
-214.538	92.387	0.108	-0.122
-213.523	-124.501	-0.148	0.023
-212.509	407.717	-0.094	-0.198
-211.494	-74.260	-0.134	0.048
-210.479	-101.406	0.257	0.062
-209.465	-29.448	0.262	0.149
-208.450	-108.835	-0.160	-0.034
-207.436	-200.000	0.004	0.149
-206.421	-137.687	-0.036	0.004
-205.406	-200.000	0.012	-0.148
-204.392	800.000	-0.057	0.175
-203.377	-38.325	0.473	0.250
-202.363	-28.694	0.194	-0.111
-201.348	-19.626	-0.176	-0.109
-200.333	-50.998	0.250	0.117
-199.319	-57.340	-0.267	0.117
-198.304	6.741	0.186	-0.138
-197.290	205.849	0.195	-0.303
-196.275	-200.000	0.003	0.189
-195.260	-112.192	-0.386	-0.077
-194.246	527.223	-0.040	-0.094
-193.231	-107.549	0.140	-0.031
-192.217	-86.791	-0.095	-0.029
-191.202	112.755	0.205	0.248
-190.187	-16.375	-0.197	0.124
-189.173	-116.603	-0.357	-0.065
-188.158	79.606	0.037	-0.039
-187.144	800.000	0.079	-0.295
-186.129	727.269	0.090	0.239
-185.114	512.283	-0.067	0.155
-184.100	467.841	0.141	-0.314
-183.085	-117.159	-0.533	-0.097
-182.071	-116.168	0.332	0.061
-181.056	-3.685	0.177	-0.122
-180.042	151.398	0.132	-0.179
-179.027	800.000	0.053	-0.183
-178.012	-168.403	-0.087	-0.003
-176.998	210.383	-0.072	0.113
-175.983	-200.000	-0.038	0.302
-174.969	800.000	0.050	0.203
-173.954	-200.000	-0.001	-0.062
-172.939	-88.699	0.226	0.067
-171.925	639.758	0.081	-0.205
-170.910	2.167	0.222	0.160
-169.896	-71.881	-0.129	0.048
-168.881	595.313	-0.055	-0.135
-167.866	70.344	0.224	0.230
-166.852	563.098	0.058	-0.139
-165.837	32.329	-0.288	-0.248
-164.823	-200.000	0.056	0.253
-163.808	800.000	-0.059	0.208
-162.793	800.000	0.075	0.317
-161.779	800.000	-0.057	-0.232
-160.764	106.814	0.128	-0.151
-159.750	195.574	0.088	0.133
-158.735	-200.000	-0.004	-0.071
-157.720	-200.000	0.048	-0.251
-156.706	-200.000	-0.023	0.265
-155.691	92.071	0.299	0.335
-154.677	-24.794	-0.132	0.078
-153.662	24.773	-0.233	0.192
-152.647	-22.471	0.269	-0.162
-151.633	-52.254	-0.307	0.142
-150.618	767.638	0.050	0.136
-149.604	-200.000	0.051	0.368
-148.589	-59.536	-0.188	0.081
-147.574	-143.989	-0.267	-0.025
-146.560	69.974	-0.147	0.151
-145.545	-200.000	0.087	0.391
-144.531	-50.935	0.413	0.193
-143.516	-200.000	0.012	0.252
-142.502	800.000	-0.077	0.302
-141.487	-70.971	-0.167	-0.062
-140.472	800.000	-0.068	0.229
-139.458	800.000	-0.072	-0.215
-138.443	351.546	0.188	-0.371
-137.429	-52.553	-0.129	0.059
-136.414	32.868	0.149	0.128
-135.399	101.666	0.118	-0.137
-134.385	-5.744	0.063	0.043
-133.370	562.849	0.148	0.356
-132.356	154.663	-0.228	0.311
-131.341	-19.623	-0.130	0.080
-130.326	-28.471	-0.138	-0.079
-129.312	-189.912	0.376	0.004
-128.297	-126.527	0.134	-0.020
-127.283	800.000	0.064	-0.276
-126.268	204.203	-0.169	0.260
-125.253	-85.431	-0.365	-0.113
-124.239	-152.588	0.164	0.012
-123.224	-91.729	0.165	-0.047
-122.210	-68.020	0.079	0.031
-121.195	-64.412	0.101	0.041
-120.180	-120.890	-0.153	0.026
-119.166	-70.250	0.377	0.142
-118.151	-200.000	0.006	-0.408
-117.137	-200.000	0.050	0.256
-116.122	71.633	-0.107	0.110
-115.107	-200.000	0.026	0.291
-114.093	-119.805	0.100	-0.017
-113.078	-124.404	-0.414	-0.064
-112.064	-40.637	0.158	-0.081
-111.049	-200.000	-0.017	-0.084
-110.034	129.173	0.117	-0.148
-109.020	-85.923	0.094	0.029
-108.005	-168.583	0.148	0.006
-106.991	-43.022	0.271	0.137
-105.976	-11.974	-0.020	0.013
-104.962	-129.082	-0.224	-0.031
-103.947	278.920	0.143	-0.253
-102.932	28.683	-0.151	0.127
-101.918	-200.000	0.027	0.228
-100.903	-161.913	0.155	-0.008
-99.889	-156.760	0.142	0.009
-98.874	103.376	0.088	0.103
-97.859	-157.424	0.272	0.016
-96.845	266.891	0.203	0.352
-95.830	-82.979	0.149	0.048
-94.816	-200.000	-0.020	-0.126
-93.801	123.879	-0.068	-0.085
-92.786	-28.342	-0.176	-0.101
-91.772	-200.000	-0.035	-0.228
-90.757	15.537	-0.124	0.097
-89.743	-200.000	-0.000	0.162
-88.728	279.014	0.183	0.324
-87.713	-200.000	0.011	0.439
-86.699	-120.279	0.095	0.016
-85.684	-200.000	-0.006	-0.110
-84.670	-135.155	-0.365	-0.044
-83.655	297.200	-0.121	-0.221
-82.640	82.526	-0.177	0.190
-81.626	-55.781	0.164	-0.073
-80.611	112.248	-0.204	-0.244
-79.597	-11.340	0.233	-0.152
-78.582	-200.000	0.018	0.168
-77.567	382.691	-0.238	0.485
-76.553	-72.509	-0.120	0.044
-75.538	-123.412	0.306	0.048
-74.524	280.857	0.026	0.046
-73.509	100.424	0.104	-0.120
-72.494	-200.000	-0.052	0.229
-71.480	-200.000	-0.056	0.368
-70.465	-200.000	0.017	0.126
-69.451	800.000	0.058	-0.245
-68.436	-33.121	-0.044	-0.024
-67.422	-185.160	0.027	0.000
-66.407	673.441	0.060	-0.155
-65.392	-200.000	-0.029	0.132
-64.378	527.203	0.174	0.407
-63.363	-175.165	0.293	-0.008
-62.349	-38.920	-0.107	-0.056
-61.334	-7.560	-1.122	-0.753
-60.319	-200.000	-0.018	0.668
-59.305	307.018	-0.406	-0.751
-58.290	177.418	0.639	0.923
-57.276	561.002	0.680	1.631
-56.261	-200.000	90.040	521.061
-55.246	489.573	1379.254	3126.795
-54.232	150.980	2574.762	3472.252
-53.217	114.699	2188.300	2645.040
-52.203	48.361	1642.285	1524.442
-51.188	40.499	1377.072	1229.704
-50.173	37.133	1334.136	1171.043
-49.159	56.827	1380.454	1332.998
-48.144	61.818	1398.656	1381.119
-47.130	40.939	1354.917	1212.411
-46.115	37.132	1336.941	1173.312
-45.100	36.929	1332.381	1168.042
-44.086	36.896	1330.251	1165.925
-43.071	36.850	1327.970	1163.607
-42.057	36.773	1326.011	1161.383
-41.042	36.784	1324.147	1159.769
-40.027	36.987	1322.204	1159.236
-39.013	36.997	1320.751	1157.976
-37.998	36.924	1319.175	1156.109
-36.984	36.996	1316.952	1154.544
-35.969	37.099	1315.067	1153.460
-34.954	36.994	1313.456	1151.376
-33.940	37.193	1311.317	1150.634
-32.925	37.124	1310.459	1149.428
-31.911	37.119	1308.711	1147.822
-30.896	37.205	1306.996	1146.780
-29.881	37.153	1306.341	1145.853
-28.867	37.162	1304.896	1144.590
-27.852	37.260	1302.633	1143.138
-26.838	37.205	1301.392	1141.683
-25.823	37.107	1300.165	1139.983
-24.809	37.117	1298.720	1138.730
-23.794	37.102	1297.430	1137.466
-22.779	37.078	1295.575	1135.654
-21.765	37.155	1294.829	1135.405
-20.750	37.081	1293.815	1134.037
-19.736	37.068	1292.021	1132.342
-18.721	36.972	1290.809	1130.680
-17.706	36.835	1290.464	1129.531
-16.692	37.027	1288.311	1128.720
-15.677	36.943	1287.723	1127.669
-14.663	36.990	1286.441	1126.775
-13.648	37.019	1285.148	1125.766
-12.633	36.825	1284.513	1124.044
-11.619	36.995	1283.184	1123.818
-10.604	36.945	1282.414	1122.812
-9.590	36.901	1281.631	1121.827
-8.575	36.959	1280.802	1121.394
-7.560	36.996	1279.624	1120.532
-6.546	36.866	1279.473	1119.602
-5.531	36.884	1278.208	1118.556
-4.517	36.991	1277.077	1118.135
-3.502	36.954	1276.105	1117.026
-2.487	36.968	1274.875	1115.986
-1.473	36.978	1270.732	1112.376
-0.458	35.284	1255.367	1089.265
0.556	29.451	1235.730	1044.434
1.571	25.064	1240.067	1023.029
2.586	23.672	1255.503	1027.622
3.600	23.394	1245.552	1017.790
4.615	21.579	1180.324	954.519
5.629	18.000	1110.682	879.722
6.644	16.003	1090.929	853.889
7.659	15.783	1088.683	850.947
8.673	15.638	1087.449	849.170
9.688	15.577	1086.152	847.776
10.702	15.904	1084.406	847.984
11.717	18.143	1086.834	861.096
12.731	20.491	1089.104	874.651
13.746	19.694	1087.027	868.904
14.761	17.743	1083.927	856.556
15.775	16.622	1081.382	848.850
16.790	15.439	1079.782	841.592
17.804	14.836	1077.878	837.012
18.819	14.334	1076.166	833.098
19.834	14.008	1075.339	830.754
20.848	13.567	1075.031	828.242
21.863	13.454	1073.964	826.782
22.877	13.304	1073.124	825.310
23.892	13.235	1071.949	823.992
24.907	13.247	1071.675	823.769
25.921	13.293	1070.325	822.886
26.936	13.391	1069.003	822.284
27.950	13.353	1067.928	821.193
28.965	13.510	1066.043	820.450
29.980	13.425	1064.689	818.915
30.994	13.470	1063.554	818.194
32.009	13.508	1062.470	817.473
33.023	13.529	1061.069	816.427
34.038	13.458	1060.540	815.600
35.053	13.461	1059.488	814.730
36.067	13.482	1058.453	813.969
37.082	13.409	1057.685	812.946
38.096	13.516	1056.632	812.592
39.111	13.476	1055.918	811.774
40.126	13.337	1055.071	810.367
41.140	13.404	1053.469	809.394
42.155	13.293	1052.730	808.214
43.169	13.141	1051.818	806.699
44.184	13.303	1050.502	806.407
45.199	13.442	1048.971	805.837
46.213	13.224	1048.334	804.215
47.228	13.337	1047.346	803.935
48.242	13.365	1046.163	803.096
49.257	13.289	1045.271	801.968
50.271	13.321	1044.650	801.575
51.286	13.404	1043.828	801.277
52.301	13.391	1042.698	800.274
53.315	13.402	1041.437	799.292
54.330	13.252	1040.440	797.729
55.344	13.331	1039.585	797.386
56.359	13.310	1039.109	796.847
57.374	13.344	1038.037	796.122
58.388	13.204	1037.150	794.698
59.403	13.268	1036.181	794.191
60.417	13.309	1035.238	793.594
61.432	13.353	1034.238	792.971
62.447	13.175	1034.018	791.879
63.461	13.144	1032.984	790.866
64.476	13.193	1032.265	790.479
65.490	13.115	1031.326	789.317
66.505	13.188	1030.772	789.172
67.520	13.299	1030.336	789.298
68.534	13.202	1028.964	787.719
69.549	13.162	1028.828	787.350
70.563	13.157	1028.117	786.714
71.578	13.323	1026.557	786.239
72.593	13.090	1026.444	784.977
73.607	13.109	1025.686	784.418
74.622	13.007	1025.039	783.370
75.636	13.175	1024.065	783.350
76.651	13.043	1023.584	782.287
77.666	13.078	1023.089	782.008
78.680	13.231	1022.303	782.063
79.695	13.180	1021.394	781.058
80.709	13.155	1020.951	780.532
81.724	13.330	1020.422	780.882
82.739	13.283	1019.827	780.137
83.753	13.322	1018.732	779.414
84.768	13.366	1018.158	779.112
85.782	13.410	1017.021	778.380
86.797	13.451	1015.975	777.705
87.812	13.337	1015.466	776.712
88.826	13.433	1013.648	775.702
89.841	13.356	1013.195	774.927
90.855	13.498	1012.214	774.770
91.870	13.374	1011.690	773.720
92.884	13.424	1010.817	773.218
93.899	13.581	1009.926	773.202
94.914	13.596	1008.902	772.421
95.928	13.532	1008.332	771.616
96.943	13.537	1007.257	770.748
97.957	13.397	1006.843	769.714
98.972	13.415	1006.051	769.123
99.987	13.581	1004.571	768.694
101.001	13.550	1003.641	767.771
102.016	13.379	1003.056	766.463
103.030	13.506	1002.477	766.540
104.045	13.495	1001.541	765.706
105.060	13.374	1001.027	764.687
106.074	13.445	999.905	764.087
107.089	13.332	998.886	762.721
108.103	13.397	997.753	762.090
109.118	13.246	996.848	760.636
110.133	13.136	996.030	759.435
111.147	13.287	995.302	759.508
112.162	13.275	994.219	758.562
113.176	13.362	993.470	758.320
114.191	13.433	992.655	757.957
115.206	13.399	992.130	757.332
116.220	13.418	991.431	756.821
117.235	13.421	990.058	755.719
118.249	13.367	989.526	755.001
119.264	13.418	988.765	754.586
120.279	13.294	988.364	753.644
121.293	13.313	987.019	752.639
122.308	13.228	986.221	751.580
123.322	13.446	984.805	751.425
124.337	13.355	984.052	750.370
125.352	13.213	982.831	748.727
126.366	13.289	981.923	748.314
127.381	13.265	981.036	747.463
128.395	13.252	980.207	746.706
129.410	13.336	979.233	746.276
130.424	13.454	978.146	745.914
131.439	13.389	977.942	745.403
132.454	13.382	976.768	744.407
133.468	13.524	975.697	744.165
134.483	13.455	974.960	743.225
135.497	13.376	974.275	742.286
136.512	13.485	973.218	741.904
137.527	13.547	972.437	741.518
138.541	13.440	971.942	740.598
139.556	13.566	971.154	740.493
140.570	13.561	970.473	739.889
141.585	13.718	969.286	739.617
142.600	13.565	967.976	737.870
143.614	13.716	967.755	738.308
144.629	13.688	966.597	737.237
145.643	13.545	965.962	736.050
146.658	13.566	964.820	735.209
147.673	13.609	963.747	734.514
148.687	13.489	963.138	733.454
149.702	13.457	962.162	732.508
150.716	13.519	961.348	732.097
151.731	13.571	960.499	731.616
152.746	13.389	960.575	730.804
153.760	13.504	959.360	730.323
154.775	13.544	958.924	730.102
155.789	13.594	958.424	729.878
156.804	13.712	957.460	729.596
157.819	13.621	957.052	728.822
158.833	13.684	956.532	728.639
159.848	13.711	955.197	727.676
160.862	13.601	954.550	726.634
161.877	13.676	953.021	725.737
162.892	13.658	952.032	724.841
163.906	13.620	951.571	724.260
164.921	13.671	950.314	723.460
165.935	13.713	949.554	723.002
166.950	13.693	948.801	722.276
167.964	13.714	947.635	721.415
168.979	13.697	946.720	720.580
169.994	13.763	945.533	719.902
171.008	13.627	945.553	719.262
172.023	13.725	944.657	718.942
173.037	13.684	944.347	718.463
174.052	13.704	943.322	717.706
175.067	13.689	942.749	717.145
176.081	13.676	941.945	716.413
177.096	13.707	941.198	715.912
178.110	13.667	940.730	715.322
179.125	13.661	940.591	715.127
180.140	13.840	939.702	715.161
181.154	13.791	939.078	714.410
182.169	13.904	938.893	714.694
183.183	13.891	938.313	714.134
184.198	14.046	936.964	713.708
185.213	13.884	936.751	712.788
186.227	13.917	935.840	712.171
187.242	14.001	935.100	711.907
188.256	14.076	934.512	711.718
189.271	14.094	933.883	711.254
190.286	13.871	933.116	709.652
191.300	13.867	932.406	709.032
192.315	13.814	931.791	708.275
193.329	13.716	931.361	707.466
194.344	13.868	930.645	707.509
195.359	13.937	929.980	707.236
196.373	14.035	929.435	707.175
197.388	14.064	928.957	706.874
198.402	14.085	928.275	706.377
199.417	14.183	927.766	706.344
200.432	14.129	927.219	705.639
201.446	14.118	927.113	705.448
202.461	14.161	926.478	705.085
203.475	14.282	925.535	704.815
204.490	14.097	925.029	703.585
205.504	14.174	924.066	703.118
206.519	14.142	923.409	702.417
207.534	14.168	922.696	701.924
208.548	14.187	921.837	701.290
209.563	14.190	921.103	700.681
210.577	14.213	920.362	700.151
211.592	14.293	919.594	699.841
212.607	14.370	919.129	699.751
213.621	14.318	918.474	698.973
214.636	14.331	917.696	698.371
215.650	14.363	916.489	697.525
216.665	14.433	916.148	697.498
217.680	14.332	915.446	696.480
218.694	14.379	914.680	696.029
219.709	14.498	913.850	695.833
220.723	14.363	913.802	695.172
221.738	14.352	912.944	694.415
222.753	14.381	912.360	694.027
223.767	14.515	911.954	694.215
224.782	14.580	910.960	693.666
225.796	14.484	910.641	692.966
226.811	14.580	909.661	692.558
227.826	14.460	908.924	691.434
228.840	14.519	908.350	691.181
229.855	14.502	907.696	690.554
230.869	14.642	906.593	690.232
231.884	14.512	905.935	689.131
232.899	14.391	905.365	688.137
233.913	14.477	904.624	687.870
234.928	14.536	904.257	687.773
235.942	14.442	903.542	686.781
236.957	14.464	902.941	686.353
237.972	14.454	902.271	685.743
238.986	14.473	901.978	685.538
240.001	14.482	901.126	684.865
241.015	14.530	900.529	684.547
242.030	14.477	899.965	683.844
243.045	14.714	899.279	684.232
244.059	14.519	898.992	683.154
245.074	14.639	898.030	682.854
246.088	14.620	897.663	682.436
247.103	14.589	897.168	681.875
248.117	14.646	896.671	681.669
249.132	14.786	895.742	681.474
250.147	14.924	894.892	681.329
251.161	14.835	894.424	680.546
252.176	15.032	893.795	680.810
253.190	15.039	893.048	680.212
254.205	15.097	892.336	679.842
255.220	14.989	891.785	678.923
256.234	15.103	891.013	678.739
257.249	15.121	890.096	678.054
258.263	14.990	889.637	677.115
259.278	15.066	888.824	676.744
260.293	15.082	888.637	676.606
261.307	15.139	887.894	676.211
262.322	15.115	887.360	675.645
263.336	15.203	886.554	675.330
264.351	15.150	885.548	674.286
265.366	15.261	885.139	674.364
266.380	15.239	884.551	673.766
267.395	15.339	883.637	673.414
268.409	15.344	883.000	672.889
269.424	15.227	882.245	671.786
270.439	15.196	881.907	671.342
271.453	15.119	881.236	670.463
272.468	15.159	880.465	669.977
273.482	15.187	879.974	669.657
274.497	15.245	879.483	669.456
275.512	15.191	878.622	668.527
276.526	15.265	878.365	668.566
277.541	15.367	877.694	668.403
278.555	15.359	877.206	667.941
279.570	15.360	876.400	667.273
280.585	15.434	875.555	666.863
281.599	15.446	874.732	666.226
282.614	15.425	874.092	665.598
283.628	15.459	873.443	665.177
284.643	15.436	872.831	664.561
285.657	15.625	872.227	664.793
286.672	15.428	871.736	663.578
287.687	15.450	871.090	663.114
288.701	15.418	870.882	662.773
289.716	15.542	870.214	662.693
290.730	15.526	869.549	662.065
291.745	15.416	869.256	661.352
292.760	15.515	868.713	661.268
293.774	15.650	867.806	661.052
294.789	15.622	867.132	660.370
295.803	15.608	866.141	659.500
296.818	15.560	865.683	658.904
297.833	15.689	864.465	658.427
298.847	15.641	864.253	658.018
299.862	15.677	863.832	657.780
300.876	15.735	863.366	657.595
301.891	15.649	862.794	656.766
302.906	15.731	862.120	656.515
303.920	15.826	861.521	656.370
304.935	15.934	860.861	656.230
305.949	15.799	860.514	655.382
306.964	15.939	859.654	655.214
307.979	15.797	859.484	654.474
308.993	15.835	858.593	653.883
310.008	15.908	857.913	653.591
311.022	15.943	856.974	652.956
312.037	15.906	856.898	652.695
313.052	15.683	856.533	651.494
314.066	15.863	855.601	651.425
315.081	15.856	855.098	650.958
316.095	15.742	854.533	650.029
317.110	15.808	854.180	649.957
318.125	15.733	853.709	649.251
319.139	15.774	853.379	649.102
320.154	15.865	852.565	648.777
321.168	15.800	852.054	648.082
322.183	15.913	851.609	648.121
323.197	15.902	850.787	647.395
324.212	15.843	850.479	646.875
325.227	15.856	849.668	646.253
326.241	15.901	849.347	646.121
327.256	15.969	848.630	645.781
328.270	15.884	847.945	644.876
329.285	16.015	847.124	644.695
330.300	15.921	846.909	644.116
331.314	15.910	846.252	643.519
332.329	16.159	845.472	643.817
333.343	16.080	845.400	643.405
334.358	15.952	845.084	642.621
335.373	16.017	844.610	642.449
336.387	16.191	844.075	642.650
337.402	16.197	843.753	642.368
338.416	16.262	843.473	642.347
339.431	16.152	843.232	641.686
340.446	16.210	842.991	641.666
341.460	16.240	842.474	641.333
342.475	16.260	841.862	640.884
343.489	16.382	841.397	640.937
344.504	16.366	841.081	640.580
345.519	16.475	840.365	640.390
346.533	16.165	840.641	639.369
347.548	16.353	839.525	639.174
348.562	16.378	838.833	638.687
349.577	16.404	838.279	638.307
350.592	16.224	837.764	637.180
351.606	16.299	837.176	636.959
352.621	16.272	836.671	636.415
353.635	16.336	835.833	635.961
354.650	16.294	835.106	635.197
355.665	16.513	834.611	635.584
356.679	16.494	833.888	634.908
357.694	16.442	833.567	634.413
358.708	16.477	832.569	633.725
359.723	16.520	832.267	633.603
360.738	16.522	831.709	633.128
361.752	16.581	830.860	632.649
362.767	16.537	830.755	632.348
363.781	16.701	829.730	632.122
364.796	16.783	829.260	632.016
365.810	16.750	829.086	631.702
366.825	16.723	828.729	631.274
367.840	16.802	828.126	631.056
368.854	16.659	828.070	630.422
369.869	16.671	827.461	629.948
370.883	16.721	827.124	629.822
371.898	16.718	826.700	629.431
372.913	16.871	825.650	629.145
373.927	16.797	825.451	628.662
374.942	16.798	825.337	628.525
375.956	16.835	825.075	628.407
376.971	17.013	824.230	628.365
377.986	16.939	823.861	627.754
379.000	17.020	823.422	627.664
380.015	17.069	822.906	627.397
381.029	17.005	822.260	626.614
382.044	16.986	821.824	626.156
383.059	17.014	821.021	625.593
384.073	16.985	820.081	624.714
385.088	17.107	819.650	624.779
386.102	16.922	819.736	624.107
387.117	17.046	818.770	623.773
388.132	17.014	817.904	622.940
389.146	17.062	817.721	622.921
390.161	17.079	817.098	622.455
391.175	17.092	816.617	622.079
392.190	17.093	816.138	621.664
393.205	16.995	815.382	620.675
394.219	16.944	815.198	620.293
395.234	17.021	814.959	620.339
396.248	17.054	814.297	619.900
397.263	17.034	814.059	619.592
398.278	17.092	813.698	619.474
399.292	16.847	813.577	618.432
400.307	17.053	813.064	618.738
401.321	17.042	812.313	618.072
402.336	17.096	812.001	617.976
403.350	17.165	811.043	617.443
404.365	17.135	811.112	617.333
405.380	17.222	810.608	617.210
406.394	17.396	809.830	617.194
407.409	17.315	809.615	616.683
408.423	17.392	809.155	616.555
409.438	17.313	808.925	616.039
410.453	17.519	808.000	616.026
411.467	17.370	808.069	615.487
412.482	17.520	807.702	615.695
413.496	17.421	807.441	615.083
414.511	17.560	806.614	614.900
415.526	17.471	806.169	614.187
416.540	17.476	805.637	613.744
417.555	17.296	805.352	612.824
418.569	17.485	805.041	613.213
419.584	17.535	804.424	612.871
420.599	17.672	803.892	612.903
421.613	100.450	1280.091	1424.240
422.628	86.215	1349.459	1424.345
