DTS Sentinel unit serial number:	SN413079Multiplexer serial number:	ORYXHardware model number:	OX4-SRSoftware version number:	ORYX F/W v4.00 Oryx Data Collector v3.7.2.0data status	okinstallation	princeton_trtdifferential loss correction	single-endedforward channel	channel 1reverse channel	N/Adate	2019/09/17time	21:10:35forward acquisition time	60.00reverse acquisition time	0.00gamma	496.2192k internal	0.2336k external	0.2336temperature offset calibration	0.9976default loss term (dB/km)	0.3790temperature slope calibration	1.0000multiplexer offset coefficient	1.0000multiplexer slope coefficient	1.0000fibre end	0.00T internal ref (°C)	28.09T ext. ref 1 (°C)	0.19T ext. ref 2 (°C)	19.74length (m)	temperature (°C)	Stokes	anti-Stokes-747.200	-30.992	0.069	-0.039
-746.185	-23.204	-0.248	0.150
-745.171	-24.496	-0.141	-0.084
-744.156	-22.376	-0.214	-0.130
-743.142	526.664	0.040	0.094
-742.127	134.886	-0.062	0.081
-741.112	263.106	-0.185	-0.322
-740.098	24.201	-0.369	-0.306
-739.083	-200.000	-0.101	-0.000
-738.069	800.000	0.119	-0.392
-737.054	137.224	-0.202	0.266
-736.039	-192.341	-0.578	0.005
-735.025	279.938	0.109	0.195
-734.010	-78.780	-0.115	-0.039
-732.996	91.864	-0.132	-0.149
-731.981	-62.436	0.115	-0.048
-730.966	421.945	-0.171	-0.369
-729.952	293.095	-0.164	-0.301
-728.937	800.000	0.042	0.116
-727.923	-160.062	-0.211	0.012
-726.908	287.677	0.106	-0.193
-725.894	800.000	0.026	-0.081
-724.879	68.656	-0.220	-0.227
-723.864	480.931	-0.096	0.218
-722.850	24.537	-0.177	-0.147
-721.835	356.646	0.111	0.221
-720.821	46.865	-0.068	-0.063
-719.806	-200.000	0.031	-0.187
-718.791	-153.976	0.066	0.005
-717.777	281.425	-0.146	-0.262
-716.762	305.100	0.155	-0.288
-715.748	8.690	-0.428	0.323
-714.733	87.144	0.317	-0.352
-713.718	-67.026	0.089	-0.035
-712.704	367.299	-0.110	-0.223
-711.689	-122.040	-0.147	-0.024
-710.675	378.946	-0.099	-0.204
-709.660	-200.000	-0.075	0.532
-708.645	-96.820	0.281	0.074
-707.631	10.788	0.185	0.142
-706.616	338.595	0.062	-0.122
-705.602	800.000	-0.062	-0.274
-704.587	-93.745	-0.222	-0.062
-703.572	-142.954	0.121	-0.012
-702.558	-200.000	-0.020	-0.206
-701.543	-200.000	0.008	0.055
-700.529	-116.763	-0.165	0.030
-699.514	-200.000	-0.071	-0.315
-698.499	68.950	0.098	-0.101
-697.485	-27.490	0.106	-0.062
-696.470	800.000	-0.059	0.182
-695.456	751.166	-0.046	0.124
-694.441	-157.072	-0.079	-0.005
-693.426	25.252	0.108	0.090
-692.412	335.411	-0.058	0.113
-691.397	-200.000	-0.009	0.198
-690.383	1.365	-0.179	-0.129
-689.368	5.943	-0.275	-0.204
-688.354	800.000	-0.095	-0.336
-687.339	240.646	-0.066	0.110
-686.324	-167.841	-0.374	-0.015
-685.310	69.584	0.087	0.090
-684.295	-35.368	-0.304	-0.166
-683.281	-8.174	-0.106	0.072
-682.266	-152.502	0.290	0.021
-681.251	-200.000	-0.005	-0.141
-680.237	90.422	0.133	0.149
-679.222	-125.702	-0.217	0.033
-678.208	-121.252	-0.192	0.032
-677.193	-18.040	0.230	-0.144
-676.178	800.000	0.029	-0.080
-675.164	-30.986	-0.280	0.159
-674.149	800.000	0.046	0.144
-673.135	92.320	0.047	0.053
-672.120	217.266	0.158	-0.252
-671.105	-91.164	-0.061	0.018
-670.091	-200.000	0.024	-0.193
-669.076	-199.608	-0.205	-0.001
-668.062	-45.129	-0.191	0.095
-667.047	63.898	-0.155	0.156
-666.032	-200.000	-0.051	-0.511
-665.018	-78.697	0.055	0.019
-664.003	-19.073	0.063	-0.039
-662.989	800.000	-0.096	0.282
-661.974	136.620	0.156	-0.203
-660.959	27.387	-0.276	-0.232
-659.945	-200.000	0.021	-0.139
-658.930	-99.755	-0.268	-0.067
-657.916	-61.535	-0.274	-0.115
-656.901	-200.000	0.012	-0.249
-655.886	800.000	0.027	-0.096
-654.872	24.356	0.272	-0.225
-653.857	115.685	0.203	-0.249
-652.843	17.455	-0.100	-0.079
-651.828	-106.206	-0.269	-0.060
-650.814	391.403	-0.112	-0.233
-649.799	40.788	-0.117	-0.106
-648.784	102.750	-0.056	0.066
-647.770	800.000	0.095	0.263
-646.755	-200.000	0.010	-0.085
-645.741	63.053	0.134	-0.134
-644.726	303.977	0.151	0.280
-643.711	80.432	0.065	0.070
-642.697	-200.000	-0.014	0.088
-641.682	-98.303	0.214	0.055
-640.668	-43.713	0.149	-0.075
-639.653	800.000	0.070	0.218
-638.638	-200.000	0.041	-0.393
-637.624	-130.758	0.198	0.027
-636.609	127.744	-0.270	0.344
-635.595	-200.000	-0.047	-0.572
-634.580	800.000	-0.040	0.111
-633.565	800.000	0.120	-0.457
-632.551	65.373	0.087	0.088
-631.536	-146.384	-0.043	0.004
-630.522	256.669	0.209	-0.359
-629.507	-96.145	-0.252	0.067
-628.492	470.692	-0.013	-0.028
-627.478	-128.253	-0.520	0.074
-626.463	800.000	-0.083	0.239
-625.449	-90.495	-0.334	-0.097
-624.434	-98.696	-0.359	0.092
-623.419	106.865	-0.234	-0.277
-622.405	-200.000	0.016	0.147
-621.390	-71.622	0.251	0.094
-620.376	-200.000	0.033	0.167
-619.361	-146.636	-0.312	-0.027
-618.346	109.985	-0.198	-0.238
-617.332	45.007	-0.478	-0.440
-616.317	-2.756	0.088	-0.062
-615.303	-200.000	0.096	-0.449
-614.288	-20.540	-0.066	0.041
-613.273	-19.459	0.161	-0.100
-612.259	-110.069	-0.454	-0.095
-611.244	252.941	0.109	0.186
-610.230	-13.915	-0.102	0.066
-609.215	-44.486	-0.102	-0.051
-608.201	-80.077	-0.098	-0.033
-607.186	-55.653	0.156	-0.070
-606.171	351.099	-0.173	-0.342
-605.157	800.000	-0.082	0.245
-604.142	-71.079	0.224	-0.084
-603.128	-200.000	-0.011	-0.109
-602.113	-200.000	0.023	0.281
-601.098	-200.000	0.046	-0.227
-600.084	216.650	-0.079	-0.126
-599.069	-169.942	-0.289	0.010
-598.055	104.241	-0.219	-0.257
-597.040	63.654	0.149	0.149
-596.025	-200.000	0.000	0.057
-595.011	-135.209	-0.201	0.024
-593.996	-200.000	-0.016	0.210
-592.982	-200.000	-0.013	-0.090
-591.967	69.590	-0.204	-0.210
-590.952	-153.388	0.482	0.033
-589.938	-103.809	-0.168	-0.039
-588.923	-200.000	-0.008	-0.280
-587.909	-200.000	0.015	0.112
-586.894	-62.160	0.258	-0.107
-585.879	-133.957	0.484	-0.060
-584.865	787.657	0.095	-0.260
-583.850	-200.000	0.015	-0.093
-582.836	-18.391	-0.313	0.195
-581.821	-78.617	0.073	0.025
-580.806	800.000	-0.028	0.097
-579.792	376.538	-0.174	0.356
-578.777	-152.524	0.159	-0.011
-577.763	-107.512	-0.178	-0.039
-576.748	17.682	0.309	0.245
-575.733	-64.555	0.091	-0.037
-574.719	-200.000	-0.009	0.086
-573.704	47.981	0.324	-0.302
-572.690	-183.013	0.155	-0.003
-571.675	-47.906	-0.092	0.044
-570.661	-92.224	-0.349	0.098
-569.646	117.848	0.126	0.155
-568.631	128.567	-0.145	-0.184
-567.617	-22.576	0.377	-0.228
-566.602	134.785	-0.188	-0.243
-565.588	-117.896	0.119	0.021
-564.573	-200.000	0.020	0.148
-563.558	-200.000	0.017	-0.111
-562.544	36.435	-0.254	-0.223
-561.529	-125.163	0.388	-0.059
-560.515	-200.000	-0.002	-0.090
-559.500	194.509	-0.127	0.191
-558.485	-200.000	0.003	-0.073
-557.471	148.657	0.087	0.117
-556.456	311.675	0.042	-0.079
-555.442	139.173	-0.158	-0.208
-554.427	29.820	0.269	-0.228
-553.412	-179.825	-0.347	-0.007
-552.398	62.618	0.094	0.093
-551.383	9.258	0.258	0.194
-550.369	-104.241	-0.073	0.017
-549.354	-56.351	0.131	-0.058
-548.339	560.715	0.069	-0.167
-547.325	-126.537	0.132	0.020
-546.310	-200.000	0.023	0.213
-545.296	-42.021	-0.125	-0.064
-544.281	-200.000	-0.011	0.094
-543.266	112.712	-0.103	-0.124
-542.252	800.000	0.084	0.340
-541.237	-52.771	-0.122	-0.056
-540.223	-200.000	0.013	-0.201
-539.208	-115.689	0.348	-0.065
-538.193	579.574	-0.087	-0.212
-537.179	-128.159	-0.204	0.029
-536.164	-200.000	-0.006	0.093
-535.150	-114.222	0.041	0.008
-534.135	800.000	-0.033	0.118
-533.121	349.417	-0.135	-0.265
-532.106	-134.587	-0.176	-0.021
-531.091	-43.034	-0.198	0.100
-530.077	105.006	-0.184	-0.216
-529.062	800.000	-0.059	-0.189
-528.048	800.000	0.123	0.344
-527.033	-200.000	-0.005	0.300
-526.018	123.201	-0.077	0.097
-525.004	-110.863	0.301	0.062
-523.989	-200.000	-0.053	-0.450
-522.975	-37.418	0.079	0.042
-521.960	800.000	-0.019	0.061
-520.945	-75.826	0.277	0.098
-519.931	366.928	0.113	-0.228
-518.916	89.805	0.175	0.195
-517.902	6.749	0.139	-0.103
-516.887	800.000	0.026	-0.095
-515.872	672.109	0.055	-0.142
-514.858	198.013	-0.142	-0.217
-513.843	-200.000	0.058	0.283
-512.829	-17.204	0.073	-0.046
-511.814	77.911	-0.044	0.047
-510.799	-72.754	0.031	0.011
-509.785	22.866	0.096	-0.078
-508.770	800.000	-0.077	-0.265
-507.756	-160.830	-0.033	-0.002
-506.741	550.150	0.087	0.208
-505.726	-94.626	0.091	-0.025
-504.712	212.648	0.214	-0.335
-503.697	13.572	0.065	-0.050
-502.683	22.825	-0.321	-0.261
-501.668	800.000	0.111	-0.396
-500.653	245.249	0.101	0.170
-499.639	177.693	0.210	-0.304
-498.624	-116.823	-0.128	0.023
-497.610	-200.000	0.027	-0.141
-496.595	205.031	0.141	0.218
-495.581	-122.262	0.167	-0.027
-494.566	800.000	0.104	-0.384
-493.551	2.936	-0.218	0.158
-492.537	274.537	0.025	-0.044
-491.522	-200.000	0.014	0.134
-490.508	278.559	0.088	0.155
-489.493	-71.563	-0.068	0.025
-488.478	-200.000	-0.052	-0.343
-487.464	-18.249	0.225	-0.140
-486.449	800.000	0.083	-0.259
-485.435	65.387	0.220	-0.221
-484.420	48.691	-0.217	-0.202
-483.405	225.960	-0.114	0.184
-482.391	16.506	-0.131	0.103
-481.376	112.186	-0.224	0.270
-480.362	-163.559	0.432	0.020
-479.347	657.813	-0.085	-0.218
-478.332	74.221	0.135	0.141
-477.318	-200.000	0.014	0.284
-476.303	-24.878	-0.143	-0.085
-475.289	29.129	-0.065	-0.055
-474.274	582.712	-0.125	0.305
-473.259	-27.237	0.079	-0.046
-472.245	800.000	0.073	-0.292
-471.230	-16.497	-0.149	0.094
-470.216	800.000	0.040	-0.125
-469.201	-73.639	-0.194	-0.070
-468.186	-20.502	0.170	-0.104
-467.172	-110.751	0.228	0.047
-466.157	140.998	-0.170	-0.223
-465.143	-121.590	-0.119	-0.020
-464.128	-200.000	-0.001	-0.266
-463.113	208.687	0.132	0.206
-462.099	147.939	-0.105	-0.141
-461.084	800.000	0.036	-0.121
-460.070	-52.074	0.248	-0.115
-459.055	-109.087	0.209	0.044
-458.040	-28.094	0.199	-0.115
-457.026	-1.468	-0.134	-0.094
-456.011	77.117	-0.124	-0.130
-454.997	-200.000	-0.018	0.397
-453.982	79.500	-0.050	-0.053
-452.968	318.598	-0.116	-0.219
-451.953	97.974	0.173	0.197
-450.938	-9.401	0.117	-0.078
-449.924	-45.137	-0.418	-0.206
-448.909	-147.893	0.239	-0.020
-447.895	-200.000	-0.010	-0.202
-446.880	-200.000	-0.002	-0.280
-445.865	-23.190	-0.017	-0.010
-444.851	-13.025	-0.215	0.139
-443.836	-200.000	0.005	-0.119
-442.822	-99.003	-0.140	0.035
-441.807	172.451	-0.244	-0.348
-440.792	-126.124	0.452	-0.067
-439.778	800.000	-0.068	-0.219
-438.763	80.706	-0.385	0.411
-437.749	706.622	0.138	0.361
-436.734	178.624	0.102	0.148
-435.719	-178.160	0.165	-0.004
-434.705	40.218	-0.294	0.262
-433.690	32.941	0.130	0.112
-432.676	-159.279	0.188	-0.010
-431.661	-80.931	0.161	0.053
-430.646	643.596	0.095	0.239
-429.632	-25.231	-0.098	-0.057
-428.617	317.074	0.184	-0.346
-427.603	-136.275	-0.179	0.021
-426.588	-117.053	-0.055	0.010
-425.573	-200.000	0.059	-0.406
-424.559	122.873	0.102	-0.127
-423.544	-42.374	0.106	0.054
-422.530	-23.706	0.218	-0.129
-421.515	-142.430	-0.267	0.026
-420.500	-29.694	0.178	-0.101
-419.486	18.900	-0.211	0.168
-418.471	30.722	-0.342	-0.291
-417.457	72.781	0.206	0.213
-416.442	486.893	-0.092	0.208
-415.428	-134.219	-0.090	0.011
-414.413	800.000	0.080	0.263
-413.398	36.322	0.188	0.164
-412.384	-161.273	-0.356	0.018
-411.369	-149.605	-0.141	-0.011
-410.355	-134.686	-0.209	-0.025
-409.340	-159.523	-0.150	0.008
-408.325	800.000	0.017	0.060
-407.311	-30.861	-0.165	-0.093
-406.296	241.913	-0.229	0.379
-405.282	-200.000	0.015	0.084
-404.267	-200.000	0.040	-0.259
-403.252	-200.000	0.015	-0.126
-402.238	82.827	0.144	-0.155
-401.223	148.143	0.149	0.199
-400.209	-120.694	-0.136	-0.023
-399.194	287.903	-0.147	0.264
-398.179	55.195	0.173	-0.166
-397.165	192.824	0.146	0.219
-396.150	-200.000	-0.009	-0.113
-395.136	94.241	-0.125	0.140
-394.121	-114.660	-0.393	-0.075
-393.106	467.045	-0.085	0.188
-392.092	-200.000	0.059	0.268
-391.077	566.256	0.067	-0.160
-390.063	-130.022	0.105	0.014
-389.048	-200.000	-0.023	-0.118
-388.033	3.558	-0.182	-0.131
-387.019	-200.000	0.007	0.065
-386.004	800.000	0.042	-0.131
-384.990	322.576	-0.083	0.156
-383.975	108.530	-0.096	0.114
-382.960	-62.304	0.109	-0.045
-381.946	-123.964	0.370	0.058
-380.931	275.140	0.224	0.393
-379.917	550.305	0.188	0.447
-378.902	-30.939	0.429	-0.240
-377.888	-200.000	-0.087	-0.414
-376.873	-81.368	-0.019	-0.006
-375.858	-137.226	0.329	-0.037
-374.844	288.333	-0.149	-0.267
-373.829	243.209	-0.133	-0.220
-372.815	62.277	-0.224	0.222
-371.800	80.452	0.173	0.184
-370.785	431.387	-0.041	0.088
-369.771	-151.856	0.173	0.013
-368.756	45.879	-0.157	0.143
-367.742	497.081	-0.079	-0.179
-366.727	-33.588	0.223	0.122
-365.712	800.000	0.019	-0.075
-364.698	237.248	-0.053	0.087
-363.683	111.542	-0.104	-0.125
-362.669	800.000	-0.093	0.300
-361.654	158.571	0.274	0.377
-360.639	353.655	-0.199	-0.392
-359.625	800.000	0.065	-0.279
-358.610	-49.653	-0.129	-0.061
-357.596	800.000	-0.031	-0.089
-356.581	-98.247	0.422	-0.107
-355.566	-94.800	-0.295	0.079
-354.552	101.697	-0.119	-0.137
-353.537	339.980	-0.120	-0.232
-352.523	81.243	-0.147	0.157
-351.508	642.216	-0.031	-0.078
-350.493	-106.769	-0.075	-0.016
-349.479	-52.198	0.132	-0.061
-348.464	37.511	-0.017	0.015
-347.450	-93.152	0.156	-0.043
-346.435	6.350	0.260	0.191
-345.420	432.047	0.022	0.047
-344.406	-114.878	-0.158	-0.030
-343.391	-18.745	-0.137	0.084
-342.377	-10.427	-0.251	-0.165
-341.362	-31.231	0.103	-0.058
-340.348	-5.070	0.228	0.155
-339.333	286.324	-0.073	0.130
-338.318	-200.000	-0.010	-0.049
-337.304	800.000	-0.074	-0.239
-336.289	-170.267	0.299	-0.010
-335.275	-60.294	0.446	0.188
-334.260	-161.446	-0.315	-0.016
-333.245	274.836	-0.067	-0.117
-332.231	-151.098	-0.136	-0.010
-331.216	-200.000	-0.020	0.366
-330.202	163.494	0.051	-0.071
-329.187	-200.000	0.061	0.461
-328.172	-121.455	-0.310	0.051
-327.158	-200.000	-0.067	-0.522
-326.143	588.591	0.044	-0.107
-325.129	356.704	-0.068	0.134
-324.114	16.281	-0.094	0.073
-323.099	-68.364	-0.139	0.053
-322.085	30.826	-0.146	-0.124
-321.070	198.051	-0.082	-0.123
-320.056	-121.291	0.411	-0.068
-319.041	662.443	-0.093	-0.236
-318.026	-104.116	-0.163	0.037
-317.012	-200.000	-0.008	-0.243
-315.997	3.641	0.107	-0.077
-314.983	-200.000	0.037	0.270
-313.968	450.208	-0.037	-0.080
-312.953	-171.802	0.309	0.010
-311.939	-200.000	-0.010	0.075
-310.924	283.195	-0.181	0.321
-309.910	179.435	-0.032	-0.047
-308.895	-200.000	-0.014	-0.363
-307.880	-200.000	0.021	-0.273
-306.866	-200.000	-0.011	0.362
-305.851	-200.000	0.023	0.290
-304.837	-57.862	-0.317	0.137
-303.822	121.043	-0.113	-0.139
-302.807	14.773	0.284	-0.220
-301.793	-139.087	0.241	-0.026
-300.778	-116.951	-0.171	0.031
-299.764	77.535	0.205	-0.216
-298.749	-7.562	-0.038	0.026
-297.735	155.920	-0.114	0.155
-296.720	-200.000	0.205	0.001
-295.705	-200.000	0.006	0.297
-294.691	-24.346	0.353	0.208
-293.676	-200.000	0.012	-0.133
-292.662	-200.000	-0.049	0.287
-291.647	15.569	0.347	0.269
-290.632	800.000	-0.050	-0.160
-289.618	499.156	0.024	-0.054
-288.603	738.349	-0.010	-0.026
-287.589	667.085	0.041	0.104
-286.574	-200.000	-0.027	0.524
-285.559	-1.257	0.124	0.086
-284.545	800.000	0.077	0.239
-283.530	679.156	0.131	-0.336
-282.516	800.000	-0.033	-0.127
-281.501	-200.000	0.070	0.396
-280.486	-73.179	-0.249	0.090
-279.472	166.190	0.219	0.307
-278.457	-63.597	0.169	-0.068
-277.443	-193.110	0.032	0.000
-276.428	130.030	0.217	-0.274
-275.413	-99.957	-0.336	0.083
-274.399	368.356	-0.212	0.423
-273.384	195.077	-0.021	-0.031
-272.370	800.000	0.024	0.066
-271.355	-136.951	-0.085	0.010
-270.340	-166.372	0.063	0.003
-269.326	-200.000	0.029	0.171
-268.311	-2.098	-0.308	0.213
-267.297	800.000	-0.073	0.292
-266.282	-200.000	0.026	0.196
-265.267	800.000	-0.066	-0.187
-264.253	-115.827	-0.477	0.088
-263.238	-17.828	-0.381	0.236
-262.224	93.609	0.172	-0.192
-261.209	-54.676	-0.115	0.051
-260.195	-200.000	-0.011	-0.140
-259.180	82.425	0.252	-0.269
-258.165	-31.527	-0.423	-0.234
-257.151	-137.796	0.147	-0.016
-256.136	-110.558	0.280	0.057
-255.122	724.723	0.059	-0.155
-254.107	36.140	-0.222	0.193
-253.092	706.544	-0.064	0.167
-252.078	145.921	-0.141	-0.186
-251.063	-200.000	0.032	-0.186
-250.049	-76.674	0.261	0.090
-249.034	-100.455	0.064	0.016
-248.019	-80.257	0.222	-0.073
-247.005	5.907	-0.054	0.040
-245.990	-98.098	0.301	-0.076
-244.976	-158.883	0.190	0.011
-243.961	284.281	-0.247	-0.437
-242.946	22.995	-0.138	0.111
-241.932	5.235	-0.194	0.141
-240.917	-45.342	0.306	-0.150
-239.903	-164.648	-0.341	0.015
-238.888	-200.000	0.032	-0.181
-237.873	-2.741	-0.366	0.252
-236.859	10.897	-0.375	0.282
-235.844	-200.000	-0.001	-0.019
-234.830	111.379	-0.134	0.159
-233.815	-200.000	0.010	-0.071
-232.800	360.859	-0.117	-0.231
-231.786	-27.665	-0.034	0.019
-230.771	-200.000	0.064	0.287
-229.757	-80.125	-0.096	-0.032
-228.742	-200.000	0.036	0.348
-227.727	-93.502	0.284	-0.077
-226.713	53.542	0.211	0.199
-225.698	70.669	-0.106	0.108
-224.684	-42.965	0.107	-0.053
-223.669	19.761	0.198	0.157
-222.655	800.000	0.104	0.304
-221.640	14.195	-0.095	-0.073
-220.625	-70.366	-0.398	0.149
-219.611	800.000	0.049	0.195
-218.596	800.000	-0.068	0.273
-217.582	-200.000	0.003	-0.043
-216.567	77.525	0.119	0.125
-215.552	54.231	-0.293	0.277
-214.538	800.000	0.036	-0.098
-213.523	29.812	-0.084	-0.070
-212.509	800.000	0.025	0.085
-211.494	200.804	-0.155	0.235
-210.479	511.266	0.073	0.166
-209.465	-200.000	-0.020	0.341
-208.450	508.533	-0.195	0.446
-207.436	-22.441	0.201	0.120
-206.421	-6.586	-0.193	-0.129
-205.406	127.525	0.090	0.113
-204.392	-109.151	0.217	0.045
-203.377	-114.049	0.297	0.057
-202.363	16.514	0.243	-0.189
-201.348	800.000	-0.066	-0.285
-200.333	161.548	-0.049	0.067
-199.319	-62.936	0.045	0.018
-198.304	39.499	-0.172	-0.152
-197.290	800.000	0.067	0.225
-196.275	101.588	0.157	-0.180
-195.260	-38.769	0.262	-0.136
-194.246	-200.000	-0.028	0.123
-193.231	-68.482	0.159	0.060
-192.217	-28.265	0.145	-0.082
-191.202	-123.063	0.251	-0.040
-190.187	131.127	-0.112	-0.142
-189.173	-200.000	0.030	-0.239
-188.158	2.511	0.107	0.076
-187.144	362.177	0.142	0.280
-186.129	42.421	0.159	0.142
-185.114	45.981	-0.191	-0.174
-184.100	-65.548	0.173	-0.068
-183.085	-138.767	-0.219	-0.024
-182.071	-12.415	-0.273	-0.175
-181.056	-115.631	0.333	0.061
-180.042	39.522	0.033	-0.029
-179.027	800.000	-0.056	0.173
-178.012	71.362	0.206	-0.210
-176.998	800.000	0.043	0.147
-175.983	470.490	-0.172	0.380
-174.969	-138.627	-0.144	-0.016
-173.954	496.987	0.087	0.196
-172.939	-200.000	0.045	0.245
-171.925	751.486	0.071	-0.188
-170.910	765.165	0.058	-0.155
-169.896	-14.641	0.267	-0.169
-168.881	800.000	0.083	0.283
-167.866	41.085	-0.262	0.232
-166.852	13.857	0.264	0.201
-165.837	618.041	-0.133	-0.328
-164.823	-200.000	-0.006	-0.284
-163.808	800.000	0.048	0.159
-162.793	800.000	-0.025	0.101
-161.779	800.000	-0.071	-0.296
-160.764	62.874	-0.100	0.098
-159.750	-200.000	0.001	-0.166
-158.735	15.516	0.235	0.181
-157.720	-88.470	-0.147	-0.043
-156.706	-47.471	-0.241	0.115
-155.691	89.889	-0.230	-0.252
-154.677	12.475	0.103	-0.078
-153.662	3.107	-0.198	0.141
-152.647	-104.127	-0.152	-0.035
-151.633	800.000	-0.072	0.236
-150.618	800.000	0.070	-0.229
-149.604	-102.613	0.096	0.022
-148.589	800.000	0.117	0.350
-147.574	-136.980	-0.343	0.039
-146.560	124.316	0.094	-0.116
-145.545	-83.055	-0.176	-0.056
-144.531	-13.100	0.553	0.352
-143.516	99.599	0.157	-0.178
-142.502	-200.000	-0.002	0.010
-141.487	-200.000	0.014	0.111
-140.472	-143.275	-0.076	-0.007
-139.458	69.383	0.231	0.234
-138.443	-28.025	0.341	0.194
-137.429	-160.601	0.377	0.020
-136.414	69.128	-0.056	0.057
-135.399	373.986	-0.159	0.318
-134.385	-60.803	-0.107	-0.044
-133.370	-77.745	0.444	0.151
-132.356	177.750	-0.116	-0.166
-131.341	-62.279	-0.258	-0.105
-130.326	-122.226	0.464	-0.074
-129.312	-12.053	-0.007	-0.005
-128.297	68.410	0.085	-0.086
-127.283	21.129	0.052	0.042
-126.268	54.157	0.275	0.260
-125.253	96.625	0.095	-0.106
-124.239	-25.102	-0.209	0.122
-123.224	83.060	-0.056	-0.060
-122.210	-5.589	0.203	0.137
-121.195	46.269	-0.269	0.245
-120.180	599.247	-0.086	0.208
-119.166	-6.147	-0.214	0.143
-118.151	-145.586	0.295	-0.026
-117.137	-99.812	0.286	-0.070
-116.122	-17.878	0.193	-0.119
-115.107	136.790	0.217	0.277
-114.093	-23.447	0.285	0.168
-113.078	22.851	-0.100	0.080
-112.064	-200.000	0.012	-0.137
-111.049	-48.029	-0.056	-0.026
-110.034	-200.000	-0.003	0.017
-109.020	62.497	-0.022	0.021
-108.005	-200.000	-0.004	0.018
-106.991	-97.429	-0.407	-0.104
-105.976	-200.000	0.041	-0.209
-104.962	-200.000	-0.022	-0.163
-103.947	-200.000	-0.074	-0.336
-102.932	-15.433	0.388	0.243
-101.918	19.155	0.203	0.160
-100.903	-154.172	0.192	0.013
-99.889	800.000	0.058	-0.190
-98.874	2.618	0.130	0.093
-97.859	-113.089	0.116	0.022
-96.845	25.443	-0.001	0.001
-95.830	-57.430	-0.111	-0.048
-94.816	-79.767	0.400	0.132
-93.801	707.252	0.034	0.088
-92.786	-100.006	-0.165	-0.040
-91.772	26.863	0.152	-0.125
-90.757	800.000	-0.018	0.058
-89.743	-6.163	0.029	-0.020
-88.728	576.480	0.005	-0.013
-87.713	-130.539	0.328	-0.043
-86.699	115.600	-0.052	0.062
-85.684	98.812	-0.062	0.070
-84.670	17.126	-0.209	-0.162
-83.655	-200.000	-0.051	0.309
-82.640	111.953	-0.071	-0.084
-81.626	-28.103	0.323	-0.183
-80.611	-11.240	-0.280	-0.181
-79.597	-200.000	0.038	0.289
-78.582	235.110	0.122	-0.197
-77.567	32.010	-0.142	-0.120
-76.553	-200.000	0.028	0.278
-75.538	130.599	0.226	-0.283
-74.524	-73.948	-0.285	-0.101
-73.509	-88.566	-0.222	0.065
-72.494	-200.000	0.006	-0.144
-71.480	-200.000	-0.024	0.424
-70.465	16.619	0.243	-0.188
-69.451	-200.000	-0.053	0.230
-68.436	-200.000	0.017	-0.393
-67.422	-2.780	0.305	0.208
-66.407	-37.723	0.146	0.076
-65.392	-36.071	-0.210	-0.111
-64.378	-16.188	-0.223	0.139
-63.363	33.832	0.073	0.062
-62.349	-16.524	-0.151	0.094
-61.334	177.168	-0.872	-1.241
-60.319	-2.398	0.573	0.393
-59.305	-200.000	-0.320	-1.391
-58.290	395.544	0.683	1.393
-57.276	406.986	0.614	1.268
-56.261	-200.000	111.815	648.263
-55.246	502.688	1475.224	3333.759
-54.232	153.840	2631.903	3526.891
-53.217	104.503	2129.498	2451.581
-52.203	39.219	1586.549	1387.853
-51.188	31.382	1335.067	1121.039
-50.173	28.550	1296.710	1072.260
-49.159	55.408	1352.553	1279.338
-48.144	53.791	1367.179	1283.500
-47.130	31.598	1323.300	1112.264
-46.115	28.301	1305.314	1077.737
-45.100	28.117	1300.445	1072.600
-44.086	27.912	1298.461	1069.718
-43.071	27.891	1295.869	1067.415
-42.057	27.976	1294.199	1066.496
-41.042	27.831	1292.334	1064.072
-40.027	27.972	1290.369	1063.234
-39.013	28.003	1288.906	1062.167
-37.998	27.923	1287.146	1060.210
-36.984	28.168	1284.992	1059.809
-35.969	28.069	1283.371	1057.860
-34.954	28.052	1282.018	1056.602
-33.940	28.135	1280.710	1055.961
-32.925	28.255	1278.666	1054.930
-31.911	28.167	1277.430	1053.358
-30.896	28.139	1275.869	1051.872
-29.881	28.134	1275.342	1051.365
-28.867	28.098	1273.782	1049.831
-27.852	28.202	1271.895	1048.830
-26.838	28.255	1271.072	1048.413
-25.823	28.274	1269.232	1046.962
-24.809	28.207	1268.456	1045.897
-23.794	28.208	1266.832	1044.523
-22.779	28.127	1265.440	1042.871
-21.765	28.204	1263.879	1041.985
-20.750	28.153	1262.782	1040.748
-19.736	28.209	1261.579	1040.031
-18.721	28.001	1260.885	1038.237
-17.706	28.045	1259.651	1037.431
-16.692	28.079	1258.564	1036.684
-15.677	28.076	1257.391	1035.661
-14.663	28.065	1256.356	1034.706
-13.648	27.998	1255.184	1033.317
-12.633	28.069	1254.102	1032.792
-11.619	27.966	1252.922	1031.196
-10.604	27.980	1252.536	1030.916
-9.590	27.957	1251.853	1030.182
-8.575	28.029	1250.595	1029.511
-7.560	28.112	1249.100	1028.711
-6.546	28.056	1248.542	1027.894
-5.531	27.996	1247.781	1026.890
-4.517	28.029	1246.975	1026.372
-3.502	27.956	1246.316	1025.377
-2.487	28.113	1245.035	1025.165
-1.473	27.910	1240.973	1020.643
-0.458	25.829	1224.851	995.850
0.556	19.820	1206.957	952.144
1.571	15.560	1211.729	932.229
2.586	14.273	1227.089	936.728
3.600	13.990	1215.386	926.133
4.615	10.384	1144.802	853.310
5.629	3.762	1073.211	767.089
6.644	0.405	1054.837	737.494
7.659	0.144	1052.743	734.691
8.673	0.103	1052.048	733.938
9.688	0.128	1050.726	733.076
10.702	0.288	1048.728	732.394
11.717	4.214	1053.474	754.785
12.731	11.439	1062.673	796.683
13.746	16.057	1068.253	823.405
14.761	16.933	1068.614	827.887
15.775	16.017	1066.811	821.950
16.790	15.168	1064.622	816.057
17.804	14.373	1063.102	810.954
18.819	14.042	1062.454	808.779
19.834	13.766	1061.407	806.565
20.848	13.616	1060.779	805.291
21.863	13.291	1059.656	802.789
22.877	13.211	1058.680	801.590
23.892	13.165	1058.525	801.180
24.907	13.184	1057.278	800.256
25.921	13.148	1056.728	799.593
26.936	13.187	1056.126	799.255
27.950	13.130	1055.319	798.299
28.965	13.290	1054.035	798.028
29.980	13.379	1052.650	797.338
30.994	13.409	1051.344	796.424
32.009	13.353	1051.160	795.945
33.023	13.471	1049.238	794.986
34.038	13.268	1048.870	793.663
35.053	13.335	1047.879	793.162
36.067	13.308	1046.924	792.241
37.082	13.290	1046.410	791.695
38.096	13.342	1045.694	791.334
39.111	13.396	1044.605	790.696
40.126	13.146	1043.563	788.646
41.140	13.209	1042.729	788.243
42.155	13.213	1041.084	786.951
43.169	13.137	1040.516	786.089
44.184	13.139	1039.453	785.228
45.199	13.026	1038.785	784.114
46.213	13.179	1037.121	783.517
47.228	13.227	1036.242	783.011
48.242	13.220	1034.793	781.814
49.257	13.296	1033.845	781.389
50.271	13.169	1033.573	780.513
51.286	13.253	1032.316	779.891
52.301	13.208	1031.169	778.741
53.315	13.217	1030.601	778.286
54.330	13.168	1029.814	777.394
55.344	13.217	1028.685	776.703
56.359	13.173	1027.747	775.721
57.374	13.306	1026.527	775.353
58.388	13.175	1025.907	774.201
59.403	13.049	1025.435	773.188
60.417	13.132	1024.698	772.953
61.432	13.113	1023.920	772.210
62.447	13.161	1022.522	771.312
63.461	13.055	1022.030	770.374
64.476	13.032	1021.306	769.656
65.490	13.129	1020.243	769.236
66.505	12.937	1019.946	768.049
67.520	13.030	1019.033	767.727
68.534	13.173	1018.057	767.588
69.549	13.029	1017.605	766.512
70.563	13.148	1016.657	766.284
71.578	13.154	1015.881	765.659
72.593	13.119	1015.000	764.766
73.607	13.076	1014.549	764.156
74.622	13.090	1013.768	763.564
75.636	13.096	1013.089	763.016
76.651	13.113	1011.939	762.160
77.666	13.071	1011.654	761.682
78.680	13.002	1011.347	761.065
79.695	13.112	1010.391	760.789
80.709	13.036	1009.869	759.976
81.724	13.186	1009.179	760.079
82.739	13.212	1008.029	759.266
83.753	13.229	1007.550	758.917
84.768	13.375	1006.642	758.834
85.782	13.368	1005.849	758.139
86.797	13.400	1004.797	757.425
87.812	13.244	1004.403	756.345
88.826	13.214	1003.522	755.477
89.841	13.304	1002.523	755.071
90.855	13.281	1001.506	754.135
91.870	13.393	1000.814	754.055
92.884	13.450	999.558	753.304
93.899	13.388	998.756	752.351
94.914	13.371	998.035	751.662
95.928	13.297	997.347	750.743
96.943	13.524	996.511	751.077
97.957	13.344	995.601	749.508
98.972	13.368	995.119	749.186
99.987	13.405	993.654	748.186
101.001	13.207	993.410	747.041
102.016	13.271	991.652	745.940
103.030	13.393	991.076	745.991
104.045	13.347	990.480	745.271
105.060	13.340	989.628	744.532
106.074	13.297	988.917	743.736
107.089	13.205	987.875	742.474
108.103	13.212	986.869	741.683
109.118	13.303	985.904	741.302
110.133	13.269	985.187	740.544
111.147	13.119	984.790	739.508
112.162	13.211	983.528	738.908
113.176	13.303	982.897	738.778
114.191	13.369	981.824	738.200
115.206	13.309	981.547	737.659
116.220	13.237	980.654	736.604
117.235	13.219	979.658	735.710
118.249	13.253	978.775	735.130
119.264	13.245	978.103	734.528
120.279	13.296	977.382	734.147
121.293	13.355	976.327	733.550
122.308	13.323	975.490	732.718
123.322	13.254	974.541	731.634
124.337	13.319	973.498	731.074
125.352	13.285	972.538	730.135
126.366	13.290	971.361	729.211
127.381	13.261	970.458	728.340
128.395	13.265	969.345	727.458
129.410	13.299	968.644	727.019
130.424	13.338	967.672	726.397
131.439	13.348	967.172	725.999
132.454	13.339	966.629	725.490
133.468	13.379	965.605	724.832
134.483	13.414	964.445	724.049
135.497	13.434	963.409	723.295
136.512	13.273	962.734	722.021
137.527	13.275	962.172	721.544
138.541	13.459	961.182	721.542
139.556	13.287	960.798	720.439
140.570	13.336	960.150	720.102
141.585	13.505	959.110	719.993
142.600	13.553	958.309	719.537
143.614	13.571	957.315	718.805
144.629	13.550	956.692	718.182
145.643	13.487	955.871	717.231
146.658	13.518	954.731	716.445
147.673	13.563	953.764	715.851
148.687	13.445	953.180	714.839
149.702	13.274	952.641	713.633
150.716	13.339	951.571	713.050
151.731	13.457	950.770	712.894
152.746	13.484	950.235	712.546
153.760	13.401	950.011	711.956
154.775	13.542	948.919	711.682
155.789	13.651	948.624	711.866
156.804	13.478	947.891	710.509
157.819	13.370	947.662	709.812
158.833	13.673	946.725	710.345
159.848	13.563	945.776	709.103
160.862	13.645	944.667	708.558
161.877	13.573	943.509	707.316
162.892	13.550	942.964	706.749
163.906	13.572	941.831	705.929
164.921	13.639	940.948	705.493
165.935	13.499	940.287	704.337
166.950	13.555	939.400	703.850
167.964	13.643	938.452	703.449
168.979	13.564	937.886	702.631
169.994	13.708	936.601	702.215
171.008	13.576	936.400	701.443
172.023	13.614	935.289	700.708
173.037	13.694	934.735	700.568
174.052	13.797	933.912	700.326
175.067	13.741	933.558	699.763
176.081	13.628	932.794	698.653
177.096	13.652	932.558	698.516
178.110	13.801	931.360	698.182
179.125	13.789	931.201	697.951
180.140	13.819	930.467	697.464
181.154	13.804	930.011	696.999
182.169	13.729	929.512	696.248
183.183	13.724	929.131	695.881
184.198	13.950	927.847	695.803
185.213	13.874	927.516	695.176
186.227	13.972	926.555	694.804
187.242	13.848	926.232	693.982
188.256	14.031	925.578	694.195
189.271	13.977	924.614	693.184
190.286	13.683	924.366	691.710
191.300	13.717	923.260	690.963
192.315	13.873	922.727	691.152
193.329	13.872	922.043	690.575
194.344	13.870	921.560	690.144
195.359	14.017	920.441	689.857
196.373	14.058	920.097	689.708
197.388	14.090	919.456	689.298
198.402	14.058	919.345	689.019
199.417	14.124	918.684	688.740
200.432	14.030	918.390	688.067
201.446	14.335	917.272	688.429
202.461	14.188	917.282	687.768
203.475	14.190	916.463	687.103
204.490	14.006	916.218	686.099
205.504	14.069	914.970	685.361
206.519	14.263	914.200	685.526
207.534	14.142	913.535	684.467
208.548	14.162	913.115	684.173
209.563	14.204	912.282	683.661
210.577	14.332	911.299	683.391
211.592	14.226	910.895	682.590
212.607	14.261	910.083	682.066
213.621	14.384	909.218	681.863
214.636	14.374	908.215	681.008
215.650	14.305	908.168	680.631
216.665	14.255	907.441	679.820
217.680	14.382	906.595	679.647
218.694	14.499	905.644	679.350
219.709	14.414	905.671	678.962
220.723	14.380	904.919	678.202
221.738	14.269	904.020	677.017
222.753	14.363	903.775	677.155
223.767	14.399	902.940	676.616
224.782	14.599	901.935	676.612
225.796	14.497	902.222	676.353
226.811	14.403	901.508	675.380
227.826	14.521	900.561	675.087
228.840	14.536	899.550	674.332
229.855	14.609	898.628	673.875
230.869	14.554	897.989	673.114
231.884	14.438	897.645	672.328
232.899	14.400	896.729	671.429
233.913	14.415	896.398	671.183
234.928	14.439	895.351	670.435
235.942	14.483	895.219	670.453
236.957	14.554	894.275	669.972
237.972	14.533	894.043	669.656
238.986	14.472	893.657	669.062
240.001	14.549	892.375	668.354
241.015	14.536	892.223	668.128
242.030	14.630	891.250	667.717
243.045	14.692	890.521	667.357
244.059	14.532	890.449	666.606
245.074	14.601	889.818	666.348
246.088	14.841	888.313	666.121
247.103	14.644	888.357	665.308
248.117	14.699	887.620	664.918
249.132	14.764	887.502	665.029
250.147	14.960	886.251	664.811
251.161	14.771	886.082	663.874
252.176	14.986	885.378	664.143
253.190	14.959	884.545	663.353
254.205	14.951	883.648	662.590
255.220	14.928	883.418	662.265
256.234	15.023	882.391	661.812
257.249	15.000	881.713	661.158
258.263	15.002	881.238	660.747
259.278	15.029	880.605	660.321
260.293	15.030	880.033	659.839
261.307	15.047	879.418	659.386
262.322	15.080	878.936	659.096
263.336	15.171	877.825	658.562
264.351	15.197	877.239	658.166
265.366	15.116	876.639	657.342
266.380	15.210	876.305	657.402
267.395	15.363	875.313	657.200
268.409	15.244	874.740	656.245
269.424	15.165	874.156	655.439
270.439	15.222	873.263	654.934
271.453	15.205	872.791	654.458
272.468	15.245	872.087	654.024
273.482	15.314	871.711	653.954
274.497	15.270	871.303	653.418
275.512	15.228	870.403	652.523
276.526	15.244	869.828	652.099
277.541	15.434	869.015	652.167
278.555	15.296	868.734	651.362
279.570	15.394	867.975	651.115
280.585	15.572	866.920	650.958
281.599	15.291	866.653	649.611
282.614	15.290	866.105	649.141
283.628	15.436	865.556	649.236
284.643	15.353	864.829	648.313
285.657	15.371	864.380	647.986
286.672	15.549	863.573	648.013
287.687	15.464	862.964	647.170
288.701	15.403	862.293	646.375
289.716	15.475	861.925	646.320
290.730	15.550	861.317	646.095
291.745	15.569	860.644	645.606
292.760	15.677	859.860	645.376
293.774	15.633	859.414	644.814
294.789	15.503	858.577	643.630
295.803	15.583	857.959	643.418
296.818	15.480	857.686	642.762
297.833	15.560	856.915	642.430
298.847	15.690	856.226	642.356
299.862	15.689	855.577	641.809
300.876	15.639	855.365	641.402
301.891	15.576	854.703	640.606
302.906	15.734	853.745	640.434
303.920	15.799	853.294	640.288
304.935	15.857	852.929	640.178
305.949	15.936	851.963	639.695
306.964	15.776	851.734	638.860
307.979	15.878	850.849	638.526
308.993	15.915	850.147	638.083
310.008	15.945	849.759	637.850
311.022	15.795	849.529	637.052
312.037	15.900	848.936	636.947
313.052	15.785	847.897	635.677
314.066	15.769	847.663	635.385
315.081	15.935	847.224	635.625
316.095	15.839	846.657	634.781
317.110	15.802	846.152	634.207
318.125	15.796	845.487	633.632
319.139	15.875	845.137	633.609
320.154	15.798	844.742	632.970
321.168	15.879	843.873	632.567
322.183	15.990	843.060	632.319
323.197	15.798	843.018	631.509
324.212	15.891	842.533	631.439
325.227	15.982	841.746	631.132
326.241	15.989	841.034	630.572
327.256	15.874	840.746	629.867
328.270	16.040	839.962	629.846
329.285	15.999	839.671	629.420
330.300	15.996	838.968	628.823
331.314	15.955	838.466	628.242
332.329	15.977	837.859	627.814
333.343	16.066	837.484	627.806
334.358	16.096	837.242	627.680
335.373	16.137	836.811	627.454
336.387	16.156	836.590	627.303
337.402	16.073	836.301	626.726
338.416	16.193	835.903	626.815
339.431	16.384	835.550	627.204
340.446	16.349	834.701	626.383
341.460	16.313	834.647	626.155
342.475	16.256	834.425	625.718
343.489	16.274	833.851	625.299
344.504	16.275	833.317	624.848
345.519	16.261	833.205	624.659
346.533	16.371	832.358	624.372
347.548	16.352	831.497	623.603
348.562	16.282	831.266	623.115
349.577	16.300	830.208	622.335
350.592	16.428	829.643	622.327
351.606	16.405	829.025	621.723
352.621	16.463	828.649	621.600
353.635	16.474	827.774	620.930
354.650	16.345	827.573	620.249
355.665	16.460	826.777	620.020
356.679	16.523	825.809	619.470
357.694	16.646	824.966	619.232
358.708	16.568	824.961	618.890
359.723	16.496	824.322	618.093
360.738	16.390	823.802	617.258
361.752	16.608	823.126	617.494
362.767	16.612	822.632	617.083
363.781	16.665	821.781	616.584
364.796	16.709	821.283	616.316
365.810	16.766	821.221	616.422
366.825	16.701	821.161	616.086
367.840	16.708	820.373	615.465
368.854	16.741	820.147	615.361
369.869	16.758	819.104	614.588
370.883	16.656	818.996	614.079
371.898	16.822	818.650	614.370
372.913	16.789	818.251	613.896
373.927	16.857	817.548	613.561
374.942	16.773	817.530	613.189
375.956	16.826	817.248	613.112
376.971	16.922	816.669	612.974
377.986	17.083	816.157	613.114
379.000	17.026	815.616	612.450
380.015	17.086	815.025	612.167
381.029	17.079	814.224	611.487
382.044	17.056	813.665	610.930
383.059	17.133	813.313	610.889
384.073	16.997	812.805	609.963
385.088	16.944	812.407	609.420
386.102	17.102	811.714	609.414
387.117	17.095	811.124	608.892
388.132	17.044	810.391	608.107
389.146	17.101	809.858	607.856
390.161	16.965	810.180	607.557
391.175	17.000	809.447	607.080
392.190	17.182	808.331	606.836
393.205	17.187	807.831	606.426
394.219	16.974	807.639	605.468
395.234	17.143	807.426	605.858
396.248	17.013	806.668	604.773
397.263	16.965	806.663	604.544
398.278	17.129	806.365	604.851
399.292	17.068	805.559	603.976
400.307	16.991	805.170	603.356
401.321	17.144	804.839	603.600
402.336	17.197	804.030	603.128
403.350	17.297	803.874	603.311
404.365	17.193	803.259	602.429
405.380	17.256	802.839	602.285
406.394	17.160	802.481	601.621
407.409	17.412	801.964	602.073
408.423	17.434	801.605	601.828
409.438	17.365	801.507	601.457
410.453	17.367	800.943	600.988
411.467	17.625	800.262	601.333
412.482	17.614	799.744	600.853
413.496	17.519	799.418	600.220
414.511	17.494	799.501	600.141
415.526	17.555	799.003	599.929
416.540	17.521	798.613	599.465
417.555	17.640	797.858	599.262
418.569	17.478	797.445	598.330
419.584	17.561	796.987	598.224
420.599	17.522	796.907	597.975
421.613	112.420	1295.291	1479.383
422.628	96.796	1367.841	1479.468
