DTS Sentinel unit serial number:	SN413079Multiplexer serial number:	ORYXHardware model number:	OX4-SRSoftware version number:	ORYX F/W v4.00 Oryx Data Collector v3.7.2.0data status	okinstallation	princeton_trtdifferential loss correction	single-endedforward channel	channel 1reverse channel	N/Adate	2019/09/18time	07:22:35forward acquisition time	60.00reverse acquisition time	0.00gamma	496.2192k internal	0.2340k external	0.2340temperature offset calibration	0.9978default loss term (dB/km)	0.3790temperature slope calibration	1.0000multiplexer offset coefficient	1.0000multiplexer slope coefficient	1.0000fibre end	0.00T internal ref (°C)	23.19T ext. ref 1 (°C)	0.20T ext. ref 2 (°C)	17.54length (m)	temperature (°C)	Stokes	anti-Stokes-747.200	800.000	0.134	0.389
-746.185	-191.732	-0.390	-0.004
-745.171	-57.633	-0.431	0.190
-744.156	218.713	0.128	0.205
-743.142	125.920	0.039	0.049
-742.127	793.011	-0.099	-0.272
-741.112	60.975	0.070	0.070
-740.098	-33.239	0.137	-0.076
-739.083	800.000	0.034	0.102
-738.069	536.263	-0.036	0.085
-737.054	-200.000	0.034	0.412
-736.039	-143.165	-0.202	0.019
-735.025	800.000	0.078	0.244
-734.010	-116.018	-0.388	0.072
-732.996	-11.619	-0.186	-0.122
-731.981	330.305	-0.177	-0.341
-730.966	-35.505	-0.188	0.103
-729.952	493.650	-0.040	0.092
-728.937	257.562	-0.220	-0.379
-727.923	-37.734	-0.338	0.180
-726.908	-5.741	0.013	0.009
-725.894	-46.337	-0.342	-0.168
-724.879	-129.030	-0.091	0.013
-723.864	800.000	0.104	0.319
-722.850	-70.306	-0.373	0.142
-721.835	450.767	-0.167	-0.370
-720.821	-200.000	-0.047	-0.227
-719.806	-74.738	-0.151	-0.054
-718.791	-58.699	-0.202	-0.088
-717.777	-28.977	-0.233	0.134
-716.762	139.902	-0.276	0.364
-715.748	-124.643	0.162	0.025
-714.733	-133.627	0.293	-0.037
-713.718	-200.000	0.014	0.242
-712.704	800.000	-0.083	-0.239
-711.689	32.493	-0.242	-0.210
-710.675	-95.088	0.112	0.030
-709.660	-108.329	0.239	0.052
-708.645	-113.244	0.266	-0.052
-707.631	-123.703	-0.304	0.048
-706.616	-200.000	-0.034	0.328
-705.602	538.714	0.074	0.176
-704.587	-87.621	-0.268	0.081
-703.572	796.994	-0.037	0.103
-702.558	-59.547	0.048	-0.020
-701.543	-80.708	0.216	-0.072
-700.529	6.104	-0.088	0.065
-699.514	-200.000	0.021	-0.147
-698.499	-150.270	-0.318	-0.025
-697.485	-40.690	0.194	-0.100
-696.470	-5.732	0.078	-0.054
-695.456	-14.297	0.354	0.228
-694.441	800.000	-0.041	0.161
-693.426	-14.337	-0.232	0.150
-692.412	110.392	0.064	-0.077
-691.397	-70.046	-0.242	0.092
-690.383	234.194	0.060	-0.099
-689.368	-45.164	0.251	-0.125
-688.354	574.356	-0.029	0.072
-687.339	72.223	0.251	0.261
-686.324	-20.557	0.441	0.271
-685.310	746.626	-0.084	0.227
-684.295	1.106	-0.221	-0.159
-683.281	-91.218	-0.307	-0.088
-682.266	-200.000	-0.001	-0.168
-681.251	105.024	0.091	0.107
-680.237	-53.415	-0.078	0.036
-679.222	-170.082	-0.242	-0.009
-678.208	-36.134	-0.176	-0.095
-677.193	-124.500	0.330	-0.051
-676.178	-133.638	0.182	0.023
-675.164	-98.956	0.204	-0.052
-674.149	-107.946	-0.205	-0.045
-673.135	247.049	0.136	-0.230
-672.120	-195.930	-0.214	0.002
-671.105	-11.278	0.309	0.203
-670.091	79.846	-0.237	-0.255
-669.076	800.000	-0.057	0.179
-668.062	80.267	-0.285	-0.306
-667.047	547.710	0.060	-0.144
-666.032	0.958	0.132	-0.095
-665.018	166.734	-0.082	0.116
-664.003	-65.611	-0.270	0.108
-662.989	-200.000	-0.001	0.204
-661.974	67.733	-0.075	0.077
-660.959	-48.747	-0.154	-0.074
-659.945	-200.000	0.026	-0.452
-658.930	-27.314	-0.324	-0.189
-657.916	532.857	-0.137	-0.325
-656.901	-78.094	0.097	0.033
-655.886	67.647	0.058	-0.059
-654.872	-10.755	-0.418	-0.276
-653.857	-200.000	0.161	0.711
-652.843	209.967	-0.158	0.248
-651.828	-62.950	-0.076	0.031
-650.814	112.290	-0.099	-0.120
-649.799	49.329	-0.159	-0.149
-648.784	-32.053	0.179	-0.100
-647.770	-163.636	-0.508	0.024
-646.755	64.913	-0.160	0.162
-645.741	-170.025	-0.326	0.012
-644.726	47.932	0.105	0.098
-643.711	-73.053	-0.215	0.079
-642.697	-135.369	0.103	0.012
-641.682	-200.000	0.051	0.626
-640.668	-200.000	-0.076	-0.586
-639.653	-200.000	-0.108	0.000
-638.638	800.000	0.048	0.168
-637.624	-19.550	0.247	-0.152
-636.609	-76.626	-0.147	0.051
-635.595	-104.720	-0.167	0.038
-634.580	800.000	0.081	0.227
-633.565	-160.732	-0.277	-0.015
-632.551	-8.818	0.219	-0.147
-631.536	-92.239	0.102	0.029
-630.522	166.378	-0.145	0.205
-629.507	-78.361	-0.122	0.042
-628.492	-30.048	-0.144	-0.082
-627.478	-54.455	0.140	-0.063
-626.463	-129.261	-0.148	0.021
-625.449	11.184	-0.205	-0.157
-624.434	-169.817	-0.083	0.003
-623.419	-200.000	0.023	0.101
-622.405	95.794	0.173	-0.197
-621.390	-74.908	-0.215	-0.077
-620.376	7.201	-0.081	-0.060
-619.361	800.000	-0.080	-0.236
-618.346	137.875	0.096	-0.126
-617.332	-200.000	0.010	-0.179
-616.317	311.235	-0.073	-0.136
-615.303	1.582	-0.098	0.070
-614.288	-200.000	0.032	-0.219
-613.273	800.000	-0.062	-0.176
-612.259	47.219	0.059	-0.055
-611.244	137.697	0.148	-0.193
-610.230	120.150	-0.078	-0.097
-609.215	-200.000	-0.009	0.127
-608.201	-157.604	0.239	0.014
-607.186	42.905	0.028	0.026
-606.171	7.837	-0.199	-0.149
-605.157	267.760	0.121	-0.212
-604.142	425.506	0.081	0.174
-603.128	-114.844	0.384	0.073
-602.113	49.754	0.271	0.255
-601.098	-67.454	-0.204	-0.080
-600.084	529.195	-0.076	0.178
-599.069	185.522	0.199	0.294
-598.055	800.000	0.066	-0.194
-597.040	-200.000	0.018	-0.084
-596.025	81.470	0.230	-0.248
-595.011	800.000	-0.092	0.265
-593.996	800.000	-0.002	-0.005
-592.982	-200.000	-0.033	0.228
-591.967	-52.124	-0.152	0.071
-590.952	173.415	-0.016	0.023
-589.938	-200.000	0.035	0.212
-588.923	-143.357	0.303	-0.029
-587.909	-37.101	-0.421	0.225
-586.894	-36.589	0.223	0.119
-585.879	-54.382	-0.294	-0.133
-584.865	65.225	0.243	-0.245
-583.850	-200.000	-0.003	0.055
-582.836	-15.748	-0.367	-0.233
-581.821	-145.856	0.035	0.003
-580.806	8.572	-0.161	-0.121
-579.792	110.506	0.037	-0.044
-578.777	-200.000	0.005	0.087
-577.763	-8.813	0.269	-0.180
-576.748	3.003	0.235	0.170
-575.733	-200.000	-0.006	0.034
-574.719	800.000	-0.037	-0.109
-573.704	800.000	0.015	-0.058
-572.690	-200.000	-0.029	-0.137
-571.675	283.508	0.078	-0.139
-570.661	-200.000	0.025	0.219
-569.646	78.563	0.283	0.301
-568.631	-114.931	0.093	-0.018
-567.617	206.690	-0.033	-0.051
-566.602	800.000	0.109	0.307
-565.588	800.000	-0.024	0.087
-564.573	112.719	0.042	-0.051
-563.558	-200.000	-0.029	0.304
-562.544	65.110	0.176	-0.177
-561.529	109.375	-0.234	-0.278
-560.515	800.000	0.011	0.034
-559.500	800.000	-0.080	-0.233
-558.485	-142.460	0.215	-0.021
-557.471	-90.152	-0.150	0.043
-556.456	-110.357	-0.196	0.041
-555.442	-71.205	-0.074	-0.028
-554.427	-200.000	-0.015	-0.091
-553.412	-200.000	-0.018	0.085
-552.398	-30.545	0.463	0.261
-551.383	-134.034	-0.269	0.033
-550.369	800.000	0.101	-0.280
-549.354	-200.000	0.002	-0.022
-548.339	-82.609	-0.494	0.159
-547.325	71.419	0.022	-0.023
-546.310	53.170	0.146	0.139
-545.296	-27.899	-0.131	0.076
-544.281	36.256	-0.206	-0.180
-543.266	-37.535	-0.081	-0.043
-542.252	-115.954	-0.130	-0.024
-541.237	-84.239	-0.079	0.025
-540.223	94.802	-0.115	-0.130
-539.208	87.429	0.023	0.026
-538.193	58.122	-0.175	0.171
-537.179	42.095	0.032	-0.029
-536.164	-150.750	-0.136	0.010
-535.150	48.039	-0.139	0.129
-534.135	200.675	0.091	-0.140
-533.121	-52.314	-0.126	0.058
-532.106	-200.000	0.024	0.308
-531.091	104.761	0.050	0.059
-530.077	172.137	-0.151	0.216
-529.062	533.703	0.069	0.163
-528.048	-200.000	0.007	-0.148
-527.033	-73.102	0.099	0.036
-526.018	196.907	0.145	-0.219
-525.004	-114.157	-0.117	0.022
-523.989	554.182	0.098	-0.234
-522.975	-147.428	-0.365	-0.031
-521.960	122.661	-0.060	0.075
-520.945	209.082	0.090	0.140
-519.931	544.313	0.105	0.250
-518.916	-200.000	-0.036	-0.164
-517.902	262.641	0.079	-0.135
-516.887	-200.000	0.003	-0.142
-515.872	-73.891	-0.266	-0.096
-514.858	81.238	0.085	-0.091
-513.843	-200.000	-0.020	-0.162
-512.829	556.380	-0.047	-0.112
-511.814	358.672	0.134	-0.266
-510.799	-108.102	0.257	-0.055
-509.785	-57.230	-0.157	0.069
-508.770	800.000	-0.021	0.070
-507.756	-200.000	-0.008	0.193
-506.741	-166.015	-0.035	0.001
-505.726	800.000	-0.065	0.249
-504.712	-39.161	-0.280	-0.146
-503.697	800.000	-0.055	-0.168
-502.683	178.897	-0.060	0.086
-501.668	-200.000	-0.005	-0.124
-500.653	-200.000	0.038	-0.221
-499.639	-117.924	-0.421	0.075
-498.624	-52.333	0.289	-0.133
-497.610	6.457	-0.157	-0.116
-496.595	326.632	-0.187	-0.355
-495.581	711.494	-0.088	-0.230
-494.566	392.987	0.115	0.237
-493.551	-15.008	-0.220	-0.140
-492.537	-153.381	-0.303	0.021
-491.522	-43.715	0.205	0.103
-490.508	44.235	-0.151	0.138
-489.493	800.000	-0.037	0.152
-488.478	439.373	-0.054	-0.118
-487.464	240.755	-0.077	-0.128
-486.449	303.973	-0.066	0.121
-485.435	-200.000	-0.013	-0.070
-484.420	-140.482	0.249	-0.026
-483.405	452.893	0.127	0.278
-482.391	-187.739	0.273	-0.004
-481.376	199.931	-0.233	0.355
-480.362	-8.198	0.083	-0.055
-479.347	33.524	-0.103	-0.089
-478.332	216.449	0.148	0.233
-477.318	-151.420	-0.274	0.020
-476.303	-71.716	-0.244	-0.090
-475.289	796.611	0.095	0.259
-474.274	-200.000	0.011	-0.100
-473.259	800.000	0.038	0.116
-472.245	478.451	0.045	0.101
-471.230	-122.619	0.201	-0.032
-470.216	-200.000	0.013	0.143
-469.201	623.396	0.121	0.303
-468.186	387.000	-0.115	-0.236
-467.172	-200.000	0.095	-0.555
-466.157	-38.063	0.165	0.087
-465.143	-200.000	-0.013	-0.116
-464.128	-109.886	-0.097	0.020
-463.113	-132.607	-0.255	-0.032
-462.099	279.145	-0.118	0.208
-461.084	-48.940	0.245	0.117
-460.070	50.903	0.126	-0.118
-459.055	-200.000	0.012	0.211
-458.040	800.000	0.120	-0.449
-457.026	-111.489	-0.278	-0.056
-456.011	-200.000	0.057	-0.250
-454.997	-146.342	0.265	-0.023
-453.982	-10.912	-0.522	0.342
-452.968	-200.000	0.014	-0.259
-451.953	-63.452	-0.310	0.126
-450.938	-138.718	-0.157	0.017
-449.924	-67.354	0.158	0.062
-448.909	27.744	0.285	-0.238
-447.895	13.474	-0.203	-0.156
-446.880	800.000	-0.036	0.116
-445.865	-200.000	0.075	-0.336
-444.851	-25.864	0.349	-0.204
-443.836	151.306	-0.021	-0.029
-442.822	-200.000	0.009	0.350
-441.807	800.000	0.058	-0.199
-440.792	89.380	0.231	0.255
-439.778	-200.000	-0.028	-0.147
-438.763	109.602	-0.237	0.281
-437.749	-200.000	-0.010	0.096
-436.734	-192.215	-0.280	-0.003
-435.719	-200.000	0.044	-0.496
-434.705	-39.199	-0.229	0.119
-433.690	-96.576	-0.086	0.023
-432.676	-75.871	-0.141	-0.050
-431.661	-200.000	-0.007	0.292
-430.646	-200.000	0.011	0.304
-429.632	1.555	0.083	0.059
-428.617	371.542	0.083	-0.167
-427.603	-7.477	-0.060	-0.040
-426.588	-200.000	-0.006	0.333
-425.573	414.948	0.058	0.122
-424.559	133.239	0.119	0.152
-423.544	-200.000	0.015	0.242
-422.530	-135.604	-0.343	-0.040
-421.515	-108.688	-0.201	0.043
-420.500	-177.798	-0.229	-0.005
-419.486	-139.641	-0.125	0.013
-418.471	-28.428	0.211	0.120
-417.457	-29.937	0.235	0.132
-416.442	-22.336	0.271	0.163
-415.428	-200.000	-0.001	0.157
-414.413	-25.473	-0.124	-0.073
-413.398	800.000	-0.114	0.465
-412.384	4.697	-0.028	0.020
-411.369	-129.456	-0.108	-0.015
-410.355	313.288	0.101	-0.187
-409.340	51.415	0.072	-0.068
-408.325	-73.973	-0.137	-0.049
-407.311	-83.461	0.094	0.030
-406.296	-62.907	-0.586	-0.240
-405.282	-176.870	-0.249	0.006
-404.267	-47.810	0.234	-0.112
-403.252	-200.000	0.002	-0.081
-402.238	-27.338	0.334	0.192
-401.223	-200.000	0.025	0.337
-400.209	800.000	0.017	0.050
-399.194	-200.000	0.011	-0.184
-398.179	-133.463	-0.202	0.025
-397.165	800.000	-0.106	0.316
-396.150	-200.000	-0.001	-0.203
-395.136	63.048	-0.091	-0.090
-394.121	342.459	-0.045	0.087
-393.106	444.499	0.137	-0.298
-392.092	800.000	-0.065	-0.205
-391.077	256.649	0.127	-0.215
-390.063	-200.000	-0.019	0.484
-389.048	-37.231	0.136	-0.072
-388.033	22.910	0.129	-0.105
-387.019	-200.000	-0.014	-0.135
-386.004	200.912	-0.150	0.228
-384.990	-62.727	0.391	-0.160
-383.975	800.000	0.052	0.203
-382.960	-200.000	0.050	0.249
-381.946	800.000	-0.068	0.273
-380.931	-15.766	-0.118	0.075
-379.917	800.000	0.050	-0.174
-378.902	-200.000	-0.004	-0.123
-377.888	-35.961	-0.241	-0.129
-376.873	800.000	0.063	-0.180
-375.858	-35.702	-0.121	0.065
-374.844	-200.000	0.047	0.228
-373.829	494.302	-0.087	-0.197
-372.815	-125.044	0.243	0.037
-371.800	-117.822	0.160	0.028
-370.785	-200.000	-0.011	0.159
-369.771	-1.650	0.224	-0.156
-368.756	-90.303	-0.281	-0.080
-367.742	185.457	-0.022	0.032
-366.727	122.292	0.049	0.061
-365.712	257.746	-0.031	0.053
-364.698	406.833	0.065	-0.135
-363.683	-200.000	-0.053	-0.230
-362.669	-23.061	0.046	0.027
-361.654	175.930	0.175	-0.251
-360.639	-31.640	0.149	0.083
-359.625	48.968	-0.101	-0.094
-358.610	16.491	-0.069	0.054
-357.596	-197.271	-0.042	-0.000
-356.581	-83.120	-0.172	-0.055
-355.566	442.163	0.174	-0.377
-354.552	800.000	-0.058	-0.179
-353.537	163.590	0.050	0.069
-352.523	-106.530	0.364	-0.080
-351.508	-142.630	-0.180	0.017
-350.493	535.963	0.086	-0.203
-349.479	-17.620	-0.152	0.094
-348.464	118.893	0.219	-0.267
-347.450	-134.647	-0.200	-0.024
-346.435	362.367	-0.076	0.151
-345.420	-59.442	0.360	-0.153
-344.406	-200.000	-0.003	-0.015
-343.391	-132.203	0.228	0.029
-342.377	-57.205	-0.102	-0.044
-341.362	18.376	0.305	-0.241
-340.348	-95.174	0.283	0.075
-339.333	248.540	-0.059	-0.099
-338.318	129.676	0.081	-0.102
-337.304	141.327	-0.279	0.364
-336.289	169.732	0.204	0.287
-335.275	65.979	0.266	0.266
-334.260	-173.043	-0.093	-0.003
-333.245	-25.390	-0.094	-0.055
-332.231	111.889	0.039	-0.046
-331.216	46.349	0.109	0.099
-330.202	-93.012	0.258	-0.071
-329.187	-133.034	0.089	0.011
-328.172	-200.000	-0.004	0.027
-327.158	-77.847	0.012	-0.004
-326.143	31.292	-0.201	0.170
-325.129	106.523	-0.026	-0.030
-324.114	64.035	0.022	0.022
-323.099	-200.000	0.008	-0.049
-322.085	800.000	-0.137	0.441
-321.070	-190.845	-0.268	-0.003
-320.056	298.745	0.072	0.131
-319.041	247.151	-0.124	-0.206
-318.026	32.653	0.355	-0.303
-317.012	800.000	-0.081	0.242
-315.997	-93.369	-0.543	0.148
-314.983	-0.702	-0.163	0.114
-313.968	800.000	-0.012	0.038
-312.953	569.848	0.022	0.052
-311.939	-113.595	0.357	0.069
-310.924	-200.000	0.006	0.053
-309.910	25.336	-0.243	0.199
-308.895	-200.000	-0.012	0.084
-307.880	-200.000	-0.008	0.180
-306.866	-20.003	-0.234	-0.142
-305.851	-11.374	-0.110	0.071
-304.837	-95.020	-0.167	-0.045
-303.822	-200.000	-0.048	-0.232
-302.807	67.797	0.083	-0.083
-301.793	-200.000	0.016	-0.116
-300.778	-164.897	-0.324	0.014
-299.764	85.035	-0.067	0.072
-298.749	-42.835	-0.122	0.061
-297.735	-163.571	0.440	0.020
-296.720	11.388	-0.063	-0.047
-295.705	800.000	0.075	0.310
-294.691	3.081	0.244	-0.175
-293.676	193.305	-0.171	-0.255
-292.662	-54.268	-0.221	-0.099
-291.647	110.142	0.315	-0.373
-290.632	181.319	0.143	0.207
-289.618	-113.307	-0.383	0.074
-288.603	538.337	0.109	-0.255
-287.589	-51.395	-0.163	-0.075
-286.574	-200.000	0.007	0.315
-285.559	203.792	-0.068	-0.104
-284.545	-78.626	0.358	-0.121
-283.530	800.000	-0.087	-0.252
-282.516	-90.074	-0.064	-0.018
-281.501	-121.066	-0.080	0.013
-280.486	-200.000	-0.007	0.165
-279.472	764.633	0.111	0.297
-278.457	-200.000	-0.007	0.398
-277.443	800.000	0.095	-0.391
-276.428	-100.923	-0.120	-0.029
-275.413	545.788	0.113	0.267
-274.399	-112.276	0.096	0.019
-273.384	96.651	0.100	0.113
-272.370	-113.794	0.180	-0.034
-271.355	145.654	0.112	0.147
-270.340	633.633	0.070	-0.174
-269.326	-11.514	-0.231	-0.149
-268.311	-35.496	0.095	-0.051
-267.297	13.838	0.065	0.049
-266.282	-168.314	0.424	0.016
-265.267	134.324	0.117	0.149
-264.253	800.000	0.035	-0.146
-263.238	-16.304	-0.309	0.193
-262.224	-39.104	-0.184	0.095
-261.209	325.791	0.059	0.110
-260.195	-152.460	0.313	-0.022
-259.180	-42.929	0.153	-0.077
-258.165	-34.206	-0.234	-0.127
-257.151	800.000	-0.086	0.262
-256.136	23.339	0.054	-0.044
-255.122	2.350	-0.240	-0.171
-254.107	103.264	0.072	-0.083
-253.092	-200.000	-0.051	-0.238
-252.078	184.187	0.102	-0.149
-251.063	-44.400	-0.116	-0.057
-250.049	-33.697	0.070	-0.038
-249.034	17.210	0.109	0.085
-248.019	-200.000	-0.054	0.333
-247.005	-84.476	-0.258	-0.080
-245.990	263.436	0.173	0.296
-244.976	60.639	0.261	-0.254
-243.961	433.521	0.136	0.289
-242.946	-41.431	0.289	0.146
-241.932	162.121	0.050	-0.069
-240.917	-103.274	0.429	0.100
-239.903	-38.030	-0.122	0.064
-238.888	-200.000	-0.007	-0.044
-237.873	38.305	0.154	0.135
-236.859	-200.000	-0.026	-0.303
-235.844	441.099	-0.134	-0.287
-234.830	-79.819	0.136	0.045
-233.815	167.555	0.095	0.133
-232.800	-0.067	0.330	0.231
-231.786	-98.632	-0.237	-0.060
-230.771	-60.515	-0.212	-0.089
-229.757	29.592	0.070	-0.058
-228.742	-136.667	-0.255	0.029
-227.727	-200.000	-0.001	0.010
-226.713	201.044	-0.090	-0.136
-225.698	-23.849	0.131	-0.077
-224.684	274.942	-0.155	0.269
-223.669	-37.418	-0.185	-0.097
-222.655	674.882	0.133	-0.338
-221.640	-67.581	0.302	-0.116
-220.625	47.940	0.056	0.052
-219.611	426.871	0.107	-0.227
-218.596	-90.138	-0.281	-0.080
-217.582	66.953	0.048	-0.048
-216.567	-68.108	-0.285	-0.109
-215.552	310.088	-0.102	-0.187
-214.538	-200.000	-0.020	-0.148
-213.523	-200.000	-0.051	0.244
-212.509	97.973	-0.095	-0.107
-211.494	-200.000	-0.054	-0.282
-210.479	800.000	-0.033	0.141
-209.465	-200.000	0.046	-0.259
-208.450	-103.854	0.422	0.097
-207.436	-8.224	0.295	0.195
-206.421	-67.247	0.149	-0.058
-205.406	328.755	0.156	-0.294
-204.392	-53.650	0.081	0.036
-203.377	-120.450	0.374	0.062
-202.363	-139.702	-0.196	0.020
-201.348	226.605	-0.182	0.290
-200.333	-41.234	-0.218	-0.110
-199.319	800.000	0.060	-0.164
-198.304	326.427	0.194	-0.365
-197.290	135.307	-0.152	-0.195
-196.275	800.000	-0.108	-0.360
-195.260	-145.977	0.178	0.015
-194.246	17.393	-0.161	0.126
-193.231	-104.213	-0.140	-0.032
-192.217	-200.000	-0.087	0.692
-191.202	-73.384	0.108	0.039
-190.187	-51.317	-0.248	0.114
-189.173	-106.213	0.479	0.105
-188.158	-95.617	0.286	-0.075
-187.144	-56.906	-0.228	0.099
-186.129	0.919	-0.379	-0.266
-185.114	179.000	-0.246	-0.353
-184.100	438.401	0.116	0.249
-183.085	-200.000	-0.010	-0.082
-182.071	-54.626	0.270	-0.120
-181.056	100.142	0.185	0.211
-180.042	24.553	0.091	-0.074
-179.027	-200.000	-0.006	-0.152
-178.012	93.635	0.137	0.152
-176.998	-200.000	0.068	0.385
-175.983	790.948	0.115	0.309
-174.969	-108.893	-0.181	0.038
-173.954	310.247	0.100	0.184
-172.939	305.313	0.113	0.205
-171.925	-46.928	0.061	-0.029
-170.910	-200.000	0.046	-0.248
-169.896	-169.201	-0.155	0.006
-168.881	-72.705	0.152	0.055
-167.866	-71.381	-0.025	0.009
-166.852	-64.028	0.306	0.122
-165.837	263.092	0.171	0.292
-164.823	-200.000	-0.023	-0.269
-163.808	41.459	-0.068	0.060
-162.793	-106.361	0.203	-0.045
-161.779	45.385	-0.158	-0.143
-160.764	259.558	0.119	-0.201
-159.750	13.115	0.126	0.096
-158.735	-16.380	-0.242	-0.151
-157.720	-200.000	0.572	0.000
-156.706	51.754	-0.261	0.243
-155.691	331.340	0.045	0.085
-154.677	-121.382	0.598	-0.098
-153.662	43.873	-0.111	0.100
-152.647	-151.356	-0.153	0.011
-151.633	-52.073	-0.140	0.064
-150.618	-60.404	0.208	-0.087
-149.604	-200.000	-0.078	0.342
-148.589	-200.000	0.063	0.342
-147.574	-24.835	-0.228	0.133
-146.560	800.000	-0.037	0.141
-145.545	113.027	-0.037	-0.044
-144.531	800.000	0.094	-0.278
-143.516	781.513	-0.124	0.334
-142.502	48.344	-0.084	0.077
-141.487	-124.034	0.220	-0.034
-140.472	14.547	-0.281	-0.215
-139.458	-200.000	0.027	0.351
-138.443	-200.000	0.015	0.277
-137.429	800.000	0.083	0.309
-136.414	-135.991	0.427	-0.049
-135.399	-93.868	0.225	-0.061
-134.385	277.519	0.162	-0.282
-133.370	-15.882	0.181	-0.113
-132.356	7.225	-0.110	0.081
-131.341	-194.951	-0.118	-0.001
-130.326	-168.474	-0.451	-0.017
-129.312	-62.414	-0.398	-0.162
-128.297	-85.921	-0.285	-0.086
-127.283	114.173	-0.215	-0.256
-126.268	800.000	0.068	0.222
-125.253	-149.486	-0.040	-0.003
-124.239	-110.760	-0.070	-0.014
-123.224	800.000	-0.176	0.549
-122.210	-155.380	-0.080	0.005
-121.195	-88.185	0.261	-0.077
-120.180	35.081	-0.273	0.234
-119.166	-200.000	-0.022	0.422
-118.151	-200.000	0.063	-0.511
-117.137	6.883	0.107	-0.078
-116.122	-48.428	0.183	-0.086
-115.107	6.383	0.172	0.125
-114.093	196.034	0.171	-0.255
-113.078	0.537	-0.248	0.173
-112.064	800.000	0.069	0.230
-111.049	800.000	-0.044	-0.142
-110.034	-96.765	0.224	0.058
-109.020	-118.148	0.292	0.051
-108.005	454.514	-0.135	-0.293
-106.991	152.464	0.146	0.196
-105.976	-132.951	0.090	0.011
-104.962	95.826	-0.179	0.199
-103.947	-10.967	0.075	-0.048
-102.932	-108.968	0.124	-0.026
-101.918	12.070	-0.237	0.178
-100.903	39.089	0.200	0.175
-99.889	55.331	-0.262	-0.248
-98.874	800.000	-0.158	0.476
-97.859	-73.324	-0.537	-0.192
-96.845	-200.000	0.002	-0.169
-95.830	669.000	0.069	-0.174
-94.816	36.444	-0.148	-0.127
-93.801	44.194	0.147	0.132
-92.786	-83.652	0.029	-0.009
-91.772	-102.130	0.170	-0.040
-90.757	-23.065	-0.245	-0.144
-89.743	-200.000	-0.002	0.191
-88.728	194.254	0.183	-0.271
-87.713	-1.290	-0.375	-0.259
-86.699	-83.269	0.127	0.040
-85.684	-197.349	0.126	0.001
-84.670	-16.148	-0.317	0.197
-83.655	-111.647	-0.092	-0.018
-82.640	-200.000	0.022	0.133
-81.626	-124.087	0.062	0.010
-80.611	123.538	-0.110	0.135
-79.597	-200.000	0.029	-0.123
-78.582	-200.000	0.019	-0.087
-77.567	184.105	-0.214	0.310
-76.553	-200.000	-0.047	0.249
-75.538	-97.928	0.361	0.091
-74.524	4.792	-0.346	0.249
-73.509	135.167	0.019	0.023
-72.494	63.280	0.157	0.154
-71.480	-48.736	0.055	-0.026
-70.465	-200.000	0.006	-0.061
-69.451	800.000	-0.163	0.450
-68.436	101.331	0.125	0.143
-67.422	31.700	-0.386	-0.324
-66.407	-200.000	0.051	0.245
-65.392	255.863	0.053	0.089
-64.378	45.873	0.036	0.032
-63.363	-200.000	0.001	-0.065
-62.349	-4.227	0.154	0.104
-61.334	9.878	-1.475	-1.093
-60.319	74.223	0.784	0.804
-59.305	435.490	-0.586	-1.244
-58.290	337.712	0.767	1.456
-57.276	800.000	0.431	1.809
-56.261	-200.000	125.674	650.213
-55.246	400.327	1583.762	3241.838
-54.232	140.427	2743.859	3534.749
-53.217	94.779	2168.723	2407.331
-52.203	34.867	1597.268	1363.837
-51.188	26.412	1340.702	1093.837
-50.173	23.849	1303.650	1048.468
-49.159	52.048	1372.443	1275.826
-48.144	48.649	1384.406	1266.325
-47.130	26.565	1332.209	1087.655
-46.115	23.341	1313.089	1052.877
-45.100	23.058	1308.199	1047.238
-44.086	23.170	1305.129	1045.402
-43.071	23.047	1303.206	1043.095
-42.057	23.098	1300.839	1041.454
-41.042	23.123	1299.340	1040.363
-40.027	23.139	1297.982	1039.326
-39.013	23.134	1295.846	1037.546
-37.998	23.097	1294.291	1036.043
-36.984	23.137	1292.438	1034.755
-35.969	23.128	1290.708	1033.277
-34.954	23.117	1289.227	1031.981
-33.940	23.111	1288.103	1031.008
-32.925	23.244	1286.586	1030.526
-31.911	23.202	1285.357	1029.260
-30.896	23.417	1283.410	1028.906
-29.881	23.346	1282.359	1027.610
-28.867	23.389	1281.063	1026.783
-27.852	23.316	1280.014	1025.476
-26.838	23.351	1278.290	1024.255
-25.823	23.357	1276.933	1023.164
-24.809	23.317	1275.763	1021.952
-23.794	23.278	1274.282	1020.502
-22.779	23.193	1273.007	1018.954
-21.765	23.376	1271.397	1018.677
-20.750	23.372	1270.074	1017.552
-19.736	23.142	1269.303	1015.572
-18.721	23.055	1268.303	1014.235
-17.706	23.115	1266.680	1013.237
-16.692	23.007	1265.703	1011.803
-15.677	23.163	1264.405	1011.615
-14.663	23.147	1263.139	1010.470
-13.648	22.995	1262.347	1008.926
-12.633	23.097	1261.674	1008.934
-11.619	23.150	1260.788	1008.485
-10.604	23.117	1259.865	1007.522
-9.590	23.214	1258.632	1007.043
-8.575	23.072	1257.937	1005.641
-7.560	23.107	1256.767	1004.866
-6.546	23.235	1255.793	1004.771
-5.531	23.086	1255.510	1003.661
-4.517	23.161	1254.588	1003.310
-3.502	23.139	1253.876	1002.575
-2.487	23.128	1252.743	1001.570
-1.473	23.094	1248.532	997.970
-0.458	21.611	1233.671	977.777
0.556	16.611	1218.432	941.509
1.571	13.218	1226.301	928.475
2.586	12.626	1241.564	936.581
3.600	12.554	1229.876	927.272
4.615	9.284	1157.549	855.292
5.629	3.163	1087.276	772.636
6.644	0.427	1070.710	747.250
7.659	0.169	1068.492	744.363
8.673	0.060	1067.993	743.409
9.688	0.135	1066.305	742.540
10.702	0.317	1064.562	742.157
11.717	4.087	1068.021	763.104
12.731	10.974	1077.370	803.840
13.746	15.384	1083.185	829.974
14.761	16.721	1084.036	837.163
15.775	15.953	1082.587	832.178
16.790	15.029	1080.966	826.300
17.804	14.323	1079.298	821.469
18.819	14.069	1077.960	819.126
19.834	13.890	1077.026	817.464
20.848	13.455	1076.213	814.635
21.863	13.445	1075.156	813.715
22.877	13.228	1074.881	812.364
23.892	13.105	1074.066	811.075
24.907	13.218	1072.924	810.695
25.921	13.238	1072.539	810.430
26.936	13.232	1071.412	809.477
27.950	13.258	1071.007	809.229
28.965	13.332	1069.186	808.140
29.980	13.369	1067.900	807.275
30.994	13.401	1066.713	806.465
32.009	13.455	1065.878	806.024
33.023	13.330	1065.003	804.685
34.038	13.398	1063.595	803.880
35.053	13.347	1063.175	803.243
36.067	13.364	1062.089	802.434
37.082	13.412	1061.129	801.871
38.096	13.342	1060.934	801.314
39.111	13.450	1059.989	801.050
40.126	13.286	1058.901	799.363
41.140	13.147	1057.783	797.778
42.155	13.260	1056.492	797.281
43.169	13.181	1054.984	795.692
44.184	13.111	1054.355	794.810
45.199	13.207	1053.018	794.192
46.213	13.148	1052.105	793.151
47.228	13.287	1051.008	792.922
48.242	13.256	1049.866	791.840
49.257	13.351	1048.689	791.339
50.271	13.199	1048.266	790.222
51.286	13.368	1047.247	790.190
52.301	13.220	1046.526	788.871
53.315	13.242	1045.371	788.033
54.330	13.224	1043.804	786.696
55.344	13.367	1043.075	786.761
56.359	13.172	1042.606	785.410
57.374	13.242	1041.512	784.846
58.388	13.305	1040.725	784.484
59.403	13.231	1039.911	783.451
60.417	13.142	1039.294	782.496
61.432	13.225	1038.365	782.118
62.447	13.138	1037.764	781.186
63.461	13.260	1036.661	780.861
64.476	13.131	1035.824	779.553
65.490	13.121	1035.225	778.985
66.505	13.138	1034.288	778.291
67.520	13.203	1033.695	778.083
68.534	13.201	1033.451	777.824
69.549	13.108	1032.478	776.581
70.563	13.077	1031.929	775.956
71.578	13.071	1030.851	775.047
72.593	13.016	1030.099	774.157
73.607	13.128	1029.202	773.939
74.622	13.066	1028.868	773.329
75.636	13.028	1028.019	772.446
76.651	13.120	1027.128	772.139
77.666	13.014	1027.047	771.510
78.680	12.946	1026.257	770.532
79.695	13.089	1025.221	770.355
80.709	13.082	1024.794	769.930
81.724	13.153	1024.065	769.646
82.739	13.141	1023.579	769.159
83.753	13.324	1022.446	769.087
84.768	13.396	1021.693	768.788
85.782	13.510	1020.398	768.277
86.797	13.352	1019.799	767.025
87.812	13.200	1019.052	765.688
88.826	13.267	1017.804	764.996
89.841	13.259	1017.214	764.448
90.855	13.241	1016.790	763.978
91.870	13.228	1015.635	762.981
92.884	13.311	1014.430	762.392
93.899	13.355	1013.892	762.125
94.914	13.458	1012.598	761.557
95.928	13.435	1012.025	760.955
96.943	13.397	1011.265	760.139
97.957	13.500	1010.348	759.854
98.972	13.255	1010.010	758.411
99.987	13.448	1008.551	758.134
101.001	13.315	1007.656	756.785
102.016	13.415	1006.708	756.463
103.030	13.307	1006.271	755.573
104.045	13.407	1005.624	755.474
105.060	13.267	1004.591	753.996
106.074	13.275	1003.460	753.117
107.089	13.313	1002.696	752.650
108.103	13.186	1001.677	751.240
109.118	13.211	1000.953	750.745
110.133	13.076	1000.139	749.454
111.147	13.192	998.916	748.997
112.162	13.266	997.859	748.474
113.176	13.345	997.658	748.615
114.191	13.367	997.015	748.167
115.206	13.280	996.025	746.961
116.220	13.225	995.261	746.077
117.235	13.216	994.458	745.366
118.249	13.399	993.288	745.247
119.264	13.256	992.709	744.106
120.279	13.310	992.127	743.845
121.293	13.326	991.120	743.098
122.308	13.285	990.189	742.149
123.322	13.168	989.189	740.811
124.337	13.193	988.109	740.046
125.352	13.238	986.960	739.323
126.366	13.355	985.901	738.987
127.381	13.279	985.122	737.998
128.395	13.359	983.659	737.194
129.410	13.304	983.055	736.430
130.424	13.315	982.255	735.814
131.439	13.515	980.849	735.583
132.454	13.341	981.034	734.886
133.468	13.307	979.636	733.621
134.483	13.403	978.704	733.284
135.497	13.337	977.730	732.198
136.512	13.378	977.069	731.820
137.527	13.344	976.385	731.094
138.541	13.323	975.760	730.468
139.556	13.345	975.355	730.197
140.570	13.462	974.464	729.980
141.585	13.367	973.433	728.727
142.600	13.548	972.285	728.598
143.614	13.601	971.689	728.319
144.629	13.529	971.126	727.517
145.643	13.520	970.048	726.604
146.658	13.507	969.108	725.779
147.673	13.428	968.250	724.727
148.687	13.504	967.309	724.292
149.702	13.388	966.484	723.100
150.716	13.583	965.585	723.218
151.731	13.457	965.048	722.200
152.746	13.418	964.256	721.373
153.760	13.409	963.656	720.823
154.775	13.520	963.481	721.109
155.789	13.637	962.432	720.772
156.804	13.614	961.579	719.969
157.819	13.677	960.823	719.612
158.833	13.603	960.761	719.180
159.848	13.721	959.648	718.793
160.862	13.642	958.616	717.617
161.877	13.547	957.824	716.549
162.892	13.553	957.260	716.089
163.906	13.608	955.829	715.196
164.921	13.591	955.225	714.606
165.935	13.587	954.446	713.942
166.950	13.737	953.586	713.880
167.964	13.616	952.615	712.572
168.979	13.754	951.554	712.309
169.994	13.751	950.522	711.458
171.008	13.656	950.357	710.864
172.023	13.751	949.199	710.343
173.037	13.790	948.517	709.936
174.052	13.851	947.833	709.623
175.067	13.689	947.447	708.577
176.081	13.641	946.777	707.808
177.096	13.615	946.113	707.141
178.110	13.728	945.414	707.037
179.125	13.859	944.482	706.833
180.140	13.759	944.373	706.267
181.154	13.813	943.776	705.987
182.169	13.939	943.282	706.089
183.183	13.925	942.902	705.683
184.198	13.929	941.526	704.606
185.213	13.931	941.314	704.393
186.227	13.884	940.592	703.595
187.242	13.974	940.174	703.599
188.256	14.019	939.125	702.944
189.271	13.969	938.541	702.230
190.286	13.874	937.434	700.941
191.300	13.789	937.147	700.306
192.315	13.850	936.162	699.765
193.329	13.830	935.735	699.299
194.344	13.841	935.165	698.856
195.359	13.876	934.479	698.431
196.373	14.020	933.819	698.482
197.388	14.017	933.644	698.276
198.402	14.034	932.851	697.691
199.417	14.061	932.300	697.332
200.432	14.222	931.456	697.312
201.446	14.212	931.064	696.916
202.461	14.201	930.972	696.738
203.475	14.174	930.057	695.880
204.490	14.168	929.236	695.179
205.504	14.006	928.507	693.895
206.519	14.050	927.742	693.443
207.534	14.171	927.193	693.478
208.548	14.188	926.413	692.903
209.563	14.124	926.127	692.364
210.577	14.183	925.229	691.877
211.592	14.309	924.188	691.560
212.607	14.414	923.204	691.198
213.621	14.241	922.861	690.163
214.636	14.278	921.989	689.603
215.650	14.298	920.989	688.875
216.665	14.300	920.723	688.624
217.680	14.449	919.853	688.528
218.694	14.463	919.337	688.139
219.709	14.447	918.151	687.124
220.723	14.450	918.255	687.152
221.738	14.391	917.202	686.062
222.753	14.438	916.889	685.960
223.767	14.478	916.183	685.535
224.782	14.595	915.538	685.475
225.796	14.503	915.193	684.779
226.811	14.626	913.884	684.240
227.826	14.411	913.842	683.269
228.840	14.532	912.736	682.876
229.855	14.567	912.026	682.427
230.869	14.489	911.583	681.717
231.884	14.463	910.504	680.742
232.899	14.593	909.886	680.750
233.913	14.504	909.229	679.836
234.928	14.463	908.748	679.248
235.942	14.465	908.437	678.965
236.957	14.577	907.457	678.629
237.972	14.662	906.713	678.357
238.986	14.499	906.323	677.344
240.001	14.514	905.437	676.684
241.015	14.588	905.093	676.665
242.030	14.662	904.462	676.432
243.045	14.579	903.584	675.381
244.059	14.714	902.939	675.384
245.074	14.630	902.660	674.779
246.088	14.667	901.898	674.297
247.103	14.731	901.298	674.049
248.117	14.758	900.919	673.814
249.132	14.829	900.210	673.510
250.147	14.899	899.562	673.247
251.161	14.937	898.617	672.633
252.176	14.993	898.172	672.466
253.190	14.857	897.539	671.388
254.205	14.903	897.175	671.239
255.220	14.958	896.460	670.865
256.234	15.015	895.578	670.374
257.249	15.031	894.647	669.681
258.263	14.977	894.270	669.126
259.278	15.200	893.240	669.187
260.293	15.143	892.762	668.540
261.307	15.143	892.501	668.287
262.322	15.209	891.508	667.744
263.336	15.232	890.778	667.232
264.351	15.251	889.561	666.337
265.366	15.103	889.524	665.662
266.380	15.230	888.845	665.600
267.395	15.122	888.330	664.726
268.409	15.295	887.308	664.586
269.424	15.231	886.873	663.950
270.439	15.268	885.832	663.257
271.453	15.194	885.182	662.420
272.468	15.220	884.689	662.094
273.482	15.203	884.282	661.665
274.497	15.298	883.493	661.392
275.512	15.145	882.887	660.274
276.526	15.383	882.210	660.650
277.541	15.343	882.055	660.318
278.555	15.369	881.395	659.866
279.570	15.407	880.589	659.354
280.585	15.521	879.512	658.935
281.599	15.515	878.849	658.357
282.614	15.512	878.303	657.881
283.628	15.416	877.778	657.052
284.643	15.430	877.464	656.813
285.657	15.427	876.970	656.371
286.672	15.476	875.940	655.736
287.687	15.425	875.359	655.044
288.701	15.499	874.990	654.997
289.716	15.478	874.547	654.527
290.730	15.638	873.957	654.651
291.745	15.512	873.358	653.654
292.760	15.667	872.293	653.401
293.774	15.731	871.561	653.045
294.789	15.551	871.405	652.172
295.803	15.546	870.613	651.500
296.818	15.505	869.928	650.772
297.833	15.451	869.665	650.307
298.847	15.572	868.692	649.990
299.862	15.684	868.241	650.030
300.876	15.775	867.248	649.579
301.891	15.819	866.566	649.182
302.906	15.850	866.388	649.109
303.920	16.081	865.225	649.070
304.935	15.831	865.082	647.944
305.949	15.799	864.422	647.267
306.964	15.961	863.836	647.395
307.979	15.865	863.596	646.789
308.993	15.931	862.550	646.201
310.008	15.806	862.181	645.388
311.022	15.797	861.818	645.027
312.037	15.907	860.479	644.386
313.052	15.852	860.388	644.052
314.066	15.854	860.005	643.715
315.081	15.884	859.474	643.377
316.095	15.778	858.653	642.299
317.110	15.822	858.348	642.180
318.125	15.819	857.699	641.627
319.139	15.847	857.348	641.416
320.154	16.043	856.198	641.247
321.168	16.167	855.392	641.057
322.183	15.962	855.469	640.276
323.197	16.134	854.839	640.401
324.212	15.923	854.326	639.161
325.227	15.860	853.591	638.315
326.241	15.982	853.439	638.607
327.256	16.074	852.566	638.248
328.270	15.937	852.325	637.492
329.285	16.090	851.426	637.342
330.300	16.034	851.311	636.988
331.314	16.065	850.396	636.364
332.329	16.003	850.339	636.030
333.343	16.039	849.175	635.237
334.358	16.348	848.885	636.131
335.373	16.005	848.781	634.703
336.387	16.066	848.929	634.989
337.402	16.117	848.379	634.712
338.416	16.231	847.718	634.591
339.431	16.357	847.220	634.635
340.446	16.256	846.891	633.951
341.460	16.255	846.583	633.663
342.475	16.267	846.186	633.355
343.489	16.454	845.539	633.514
344.504	16.448	844.951	632.994
345.519	16.478	844.626	632.810
346.533	16.439	843.891	632.057
347.548	16.432	843.644	631.787
348.562	16.492	842.730	631.273
349.577	16.498	842.308	630.922
350.592	16.283	841.856	629.728
351.606	16.434	841.127	629.689
352.621	16.394	840.224	628.805
353.635	16.477	839.231	628.319
354.650	16.395	839.127	627.879
355.665	16.539	838.411	627.821
356.679	16.535	838.005	627.449
357.694	16.715	837.174	627.436
358.708	16.647	836.296	626.471
359.723	16.507	836.096	625.749
360.738	16.609	835.608	625.706
361.752	16.641	834.777	625.144
362.767	16.740	834.037	624.902
363.781	16.550	834.220	624.281
364.796	16.636	833.523	624.021
365.810	16.877	833.106	624.542
366.825	16.767	832.807	623.857
367.840	16.678	832.454	623.210
368.854	16.777	831.460	622.776
369.869	16.931	831.200	623.093
370.883	16.826	830.801	622.352
371.898	16.814	830.494	622.024
372.913	16.878	830.507	622.211
373.927	16.965	829.444	621.681
374.942	16.774	829.152	620.705
375.956	16.997	828.507	620.985
376.971	17.028	827.892	620.584
377.986	16.911	827.782	620.017
379.000	16.993	827.432	620.001
380.015	16.992	826.751	619.430
381.029	16.933	826.494	618.969
382.044	17.123	825.163	618.608
383.059	17.193	824.735	618.488
384.073	16.960	825.042	617.814
385.088	16.990	824.398	617.389
386.102	17.117	823.361	617.019
387.117	16.943	822.921	616.003
388.132	17.114	822.129	615.974
389.146	16.962	821.747	615.081
390.161	17.170	821.036	615.251
391.175	17.144	820.639	614.803
392.190	17.191	820.189	614.582
393.205	17.117	819.632	613.843
394.219	17.126	819.271	613.552
395.234	17.180	818.974	613.469
396.248	17.248	818.356	613.198
397.263	17.173	818.425	612.923
398.278	17.145	817.598	612.149
399.292	17.085	817.592	611.874
400.307	17.124	817.040	611.549
401.321	17.226	816.366	611.357
402.336	17.179	815.422	610.427
403.350	17.250	815.707	610.840
404.365	17.280	814.977	610.347
405.380	17.291	814.312	609.836
406.394	17.264	813.718	609.241
407.409	17.428	813.366	609.510
408.423	17.515	813.080	609.554
409.438	17.434	812.763	608.971
410.453	17.592	812.260	609.107
411.467	17.388	812.173	608.257
412.482	17.581	811.603	608.464
413.496	17.590	811.146	608.101
414.511	17.641	810.394	607.664
415.526	17.491	810.510	607.165
416.540	17.711	809.936	607.465
417.555	17.637	809.303	606.672
418.569	17.591	808.918	606.165
419.584	17.440	808.891	605.557
420.599	17.774	807.977	606.005
421.613	113.679	1299.639	1487.699
422.628	98.202	1371.221	1487.792
