DTS Sentinel unit serial number:	SN413079Multiplexer serial number:	ORYXHardware model number:	OX4-SRSoftware version number:	ORYX F/W v4.00 Oryx Data Collector v3.7.2.0data status	okinstallation	princeton_trtdifferential loss correction	single-endedforward channel	channel 1reverse channel	N/Adate	2019/09/15time	15:38:35forward acquisition time	60.00reverse acquisition time	0.00gamma	496.2192k internal	0.2292k external	0.2292temperature offset calibration	0.9946default loss term (dB/km)	0.3790temperature slope calibration	1.0000multiplexer offset coefficient	1.0000multiplexer slope coefficient	1.0000fibre end	0.00T internal ref (°C)	41.56T ext. ref 1 (°C)	5.15T ext. ref 2 (°C)	39.55length (m)	temperature (°C)	Stokes	anti-Stokes-747.200	800.000	0.105	-0.326
-746.185	-150.190	-0.093	-0.007
-745.171	57.097	0.306	0.305
-744.156	-200.000	0.099	0.557
-743.142	331.703	-0.139	-0.274
-742.127	513.154	0.105	0.251
-741.112	31.154	-0.039	0.035
-740.098	88.983	0.181	0.206
-739.083	-69.586	0.290	0.113
-738.069	-200.000	-0.048	0.473
-737.054	132.179	-0.154	0.204
-736.039	14.573	-0.025	0.020
-735.025	-200.000	0.004	0.260
-734.010	-76.801	0.247	-0.088
-732.996	772.718	-0.014	0.040
-731.981	180.324	-0.200	-0.300
-730.966	-90.517	-0.245	-0.073
-729.952	36.298	-0.119	0.108
-728.937	800.000	0.063	0.241
-727.923	-0.840	-0.274	-0.198
-726.908	-19.483	-0.250	-0.159
-725.894	55.190	-0.281	-0.278
-724.879	108.936	0.152	-0.186
-723.864	141.822	-0.124	-0.168
-722.850	800.000	-0.017	0.051
-721.835	1.632	-0.070	-0.051
-720.821	800.000	-0.108	-0.317
-719.806	800.000	-0.063	-0.178
-718.791	250.677	-0.071	-0.123
-717.777	47.148	-0.154	-0.147
-716.762	239.357	0.140	-0.238
-715.748	52.867	-0.303	-0.296
-714.733	106.050	0.112	0.135
-713.718	-200.000	0.007	0.333
-712.704	188.302	-0.078	-0.119
-711.689	-48.879	0.210	-0.103
-710.675	3.350	-0.196	0.146
-709.660	-200.000	0.018	0.085
-708.645	44.374	-0.257	0.242
-707.631	492.649	-0.077	0.179
-706.616	470.795	-0.051	0.117
-705.602	-149.667	0.095	-0.008
-704.587	-58.064	-0.061	-0.027
-703.572	-54.024	0.341	0.158
-702.558	-60.753	-0.238	-0.103
-701.543	-200.000	0.026	-0.263
-700.529	-200.000	-0.041	-0.302
-699.514	800.000	-0.126	-0.383
-698.499	-77.338	-0.252	-0.089
-697.485	17.166	0.135	0.109
-696.470	709.877	-0.097	0.262
-695.456	-200.000	-0.021	0.208
-694.441	-65.422	0.175	0.072
-693.426	22.548	0.110	-0.092
-692.412	-13.762	-0.153	0.101
-691.397	-102.600	0.119	0.029
-690.383	-54.866	0.051	0.023
-689.368	82.678	-0.100	-0.111
-688.354	318.844	0.039	-0.075
-687.339	-126.766	-0.144	0.022
-686.324	45.513	-0.211	-0.199
-685.310	-129.566	-0.331	0.047
-684.295	-159.110	0.364	-0.021
-683.281	-74.143	0.136	-0.050
-682.266	171.050	0.145	0.213
-681.251	-109.017	-0.230	0.050
-680.237	-200.000	-0.006	-0.036
-679.222	-53.954	-0.084	-0.039
-678.208	-128.999	-0.271	-0.039
-677.193	152.966	-0.084	0.117
-676.178	-200.000	-0.010	-0.176
-675.164	-113.624	0.290	0.058
-674.149	-51.586	0.111	-0.053
-673.135	-148.758	0.327	-0.027
-672.120	-27.299	0.288	0.171
-671.105	-74.656	0.312	0.114
-670.091	-200.000	0.002	0.099
-669.076	169.186	0.108	-0.157
-668.062	-184.814	0.323	-0.005
-667.047	232.619	0.138	0.232
-666.032	-165.085	-0.114	0.005
-665.018	-86.132	0.240	-0.076
-664.003	-105.512	-0.141	-0.033
-662.989	-16.257	-0.228	0.148
-661.974	4.113	-0.196	0.146
-660.959	-72.255	-0.160	-0.061
-659.945	-9.780	-0.199	-0.135
-658.930	144.202	0.086	-0.117
-657.916	148.119	-0.178	0.245
-656.901	-115.555	-0.103	0.020
-655.886	800.000	-0.081	0.280
-654.872	284.939	-0.137	-0.252
-653.857	47.365	-0.130	0.123
-652.843	-80.933	0.171	-0.058
-651.828	272.924	0.025	-0.044
-650.814	-200.000	0.035	0.231
-649.799	800.000	0.098	0.321
-648.784	581.130	-0.086	-0.214
-647.770	38.975	0.118	0.108
-646.755	198.502	0.081	-0.127
-645.741	-200.000	0.057	-0.276
-644.726	-182.796	-0.108	-0.002
-643.711	-200.000	-0.003	0.062
-642.697	115.340	0.298	-0.371
-641.682	61.220	0.118	-0.120
-640.668	-22.535	0.067	0.041
-639.653	-200.000	0.021	0.145
-638.638	-200.000	0.011	-0.061
-637.624	-135.245	0.363	-0.044
-636.609	-48.995	-0.077	0.038
-635.595	-2.335	0.128	0.092
-634.580	-200.000	0.018	-0.148
-633.565	-63.617	-0.072	0.030
-632.551	800.000	0.068	0.239
-631.536	157.622	-0.165	-0.233
-630.522	-80.023	-0.131	-0.045
-629.507	-93.395	-0.102	-0.029
-628.492	-177.971	-0.241	-0.006
-627.478	188.419	-0.126	0.192
-626.463	-149.413	-0.245	-0.020
-625.449	-119.986	-0.190	-0.033
-624.434	571.287	-0.065	0.160
-623.419	800.000	-0.115	0.340
-622.405	-200.000	-0.095	0.446
-621.390	800.000	0.051	0.168
-620.376	64.763	0.170	0.175
-619.361	-129.653	0.090	-0.013
-618.346	800.000	-0.041	0.183
-617.332	800.000	0.144	0.416
-616.317	-200.000	0.028	0.473
-615.303	214.078	0.093	-0.150
-614.288	800.000	0.053	-0.211
-613.273	182.746	0.121	-0.181
-612.259	-118.829	-0.150	-0.027
-611.244	56.390	0.139	0.137
-610.230	-30.013	0.222	0.129
-609.215	-200.000	0.009	-0.158
-608.201	354.169	0.216	0.437
-607.186	-107.222	-0.165	0.037
-606.171	800.000	-0.036	-0.117
-605.157	-22.483	-0.271	-0.167
-604.142	-90.835	-0.151	0.044
-603.128	591.819	-0.110	-0.276
-602.113	43.172	-0.115	0.107
-601.098	83.635	0.211	-0.234
-600.084	200.302	-0.140	-0.220
-599.069	71.075	0.057	-0.061
-598.055	0.187	0.034	-0.025
-597.040	-134.766	0.271	-0.033
-596.025	800.000	-0.049	0.139
-595.011	-107.561	0.119	0.027
-593.996	148.442	0.072	-0.099
-592.982	-25.090	-0.454	0.274
-591.967	-200.000	0.040	-0.235
-590.952	188.419	0.142	-0.216
-589.938	-110.323	0.126	-0.027
-588.923	800.000	-0.069	0.256
-587.909	-52.160	-0.346	0.163
-586.894	431.156	-0.136	-0.300
-585.879	-122.375	-0.125	0.021
-584.865	269.943	-0.021	-0.038
-583.850	142.773	0.090	-0.121
-582.836	88.512	0.205	0.231
-581.821	-189.789	0.251	0.003
-580.806	197.644	0.014	0.022
-579.792	270.848	0.044	0.079
-578.777	261.342	0.117	0.205
-577.763	332.961	-0.126	-0.247
-576.748	-89.801	-0.303	-0.090
-575.733	-112.852	-0.159	-0.032
-574.719	18.612	0.138	-0.113
-573.704	-30.371	-0.181	0.104
-572.690	410.461	0.016	0.034
-571.675	-82.744	-0.130	0.043
-570.661	13.817	-0.147	-0.116
-569.646	13.150	0.115	-0.091
-568.631	-200.000	-0.054	-0.288
-567.617	-200.000	0.098	0.524
-566.602	-200.000	-0.039	-0.251
-565.588	-88.887	0.171	0.051
-564.573	5.943	-0.137	0.103
-563.558	-124.418	0.048	-0.008
-562.544	124.646	-0.117	-0.150
-561.529	800.000	-0.065	-0.242
-560.515	800.000	-0.024	-0.103
-559.500	263.579	-0.115	0.203
-558.485	-72.232	0.100	-0.038
-557.471	-200.000	-0.054	-0.259
-556.456	167.225	0.054	-0.078
-555.442	-105.949	0.140	0.032
-554.427	363.398	0.048	0.098
-553.412	50.024	0.185	-0.177
-552.398	-163.750	-0.219	-0.010
-551.383	-200.000	0.002	0.038
-550.369	383.269	-0.052	-0.108
-549.354	-106.030	0.219	0.050
-548.339	-200.000	0.001	0.066
-547.325	322.340	0.020	0.038
-546.310	-172.498	0.491	-0.016
-545.296	-200.000	-0.039	-0.278
-544.281	-10.652	-0.282	0.190
-543.266	-45.853	-0.170	-0.085
-542.252	390.887	0.171	-0.361
-541.237	189.419	-0.190	0.290
-540.223	175.266	0.059	-0.086
-539.208	800.000	-0.104	-0.315
-538.193	493.951	0.069	-0.161
-537.179	34.641	0.078	0.069
-536.164	34.864	0.164	0.146
-535.150	-6.781	0.148	0.102
-534.135	-183.577	-0.360	-0.006
-533.121	-195.258	-0.184	-0.001
-532.106	67.014	-0.092	-0.096
-531.091	800.000	-0.054	-0.190
-530.077	88.309	0.141	-0.158
-529.062	91.648	-0.112	0.127
-528.048	-6.371	-0.127	-0.088
-527.033	449.442	-0.041	0.092
-526.018	-200.000	0.018	0.170
-525.004	800.000	-0.022	-0.091
-523.989	-144.588	-0.190	0.018
-522.975	42.834	-0.186	-0.172
-521.960	-90.203	0.086	-0.025
-520.945	-132.794	-0.266	-0.035
-519.931	132.336	-0.034	-0.045
-518.916	244.529	-0.128	0.218
-517.902	-12.601	-0.169	-0.112
-516.887	59.188	-0.124	-0.124
-515.872	-200.000	-0.001	0.033
-514.858	229.606	0.113	0.187
-513.843	-93.292	0.159	0.045
-512.829	185.873	-0.176	0.266
-511.814	-200.000	0.019	0.106
-510.799	135.931	0.337	0.445
-509.785	-200.000	-0.041	0.224
-508.770	95.370	-0.169	0.195
-507.756	-81.281	-0.262	-0.088
-506.741	348.127	-0.048	0.097
-505.726	-91.621	0.379	-0.110
-504.712	-81.518	-0.076	0.025
-503.697	35.341	0.092	0.082
-502.683	800.000	0.033	-0.137
-501.668	-200.000	-0.019	-0.152
-500.653	-200.000	-0.031	-0.328
-499.639	282.818	0.178	-0.324
-498.624	69.824	0.219	0.229
-497.610	-4.496	-0.127	0.089
-496.595	199.467	0.126	-0.196
-495.581	-200.000	-0.015	0.181
-494.566	-116.373	0.063	-0.012
-493.551	-48.010	-0.123	-0.060
-492.537	-200.000	0.091	-0.410
-491.522	91.105	0.192	0.219
-490.508	-94.252	0.061	0.017
-489.493	-200.000	0.003	0.076
-488.478	-200.000	-0.012	-0.393
-487.464	-30.700	-0.236	0.135
-486.449	141.172	0.144	0.194
-485.435	800.000	-0.029	-0.127
-484.420	81.826	-0.187	0.205
-483.405	-200.000	0.015	0.127
-482.391	-200.000	0.007	-0.134
-481.376	37.305	0.304	-0.273
-480.362	-157.140	-0.255	0.016
-479.347	269.669	0.085	0.150
-478.332	82.115	0.243	-0.267
-477.318	-138.846	-0.146	-0.016
-476.303	259.938	0.032	0.056
-475.289	-200.000	0.022	0.131
-474.274	-184.254	0.210	0.004
-473.259	586.241	-0.125	0.312
-472.245	-23.038	-0.146	0.089
-471.230	-34.274	0.206	0.115
-470.216	-18.967	0.136	0.086
-469.201	33.089	0.008	-0.007
-468.186	135.125	-0.215	0.283
-467.172	-131.410	0.035	-0.005
-466.157	71.790	0.298	-0.314
-465.143	-53.125	0.136	0.063
-464.128	-85.060	-0.218	-0.069
-463.113	-44.213	-0.282	-0.143
-462.099	-108.906	0.284	0.061
-461.084	219.071	-0.002	-0.003
-460.070	564.843	-0.046	0.113
-459.055	170.108	-0.103	-0.150
-458.040	55.893	0.238	-0.234
-457.026	113.963	0.378	-0.466
-456.011	-85.605	-0.431	0.136
-454.997	486.691	-0.136	-0.313
-453.982	195.048	0.214	-0.329
-452.968	-200.000	-0.009	0.218
-451.953	-200.000	0.003	0.040
-450.938	261.755	0.123	0.216
-449.924	-200.000	0.002	-0.118
-448.909	424.246	-0.081	-0.177
-447.895	71.905	-0.178	-0.188
-446.880	170.999	0.089	0.128
-445.865	145.997	-0.151	0.205
-444.851	-75.665	-0.107	-0.038
-443.836	800.000	-0.109	-0.307
-442.822	800.000	-0.093	0.303
-441.807	-200.000	0.024	-0.380
-440.792	101.954	-0.036	0.042
-439.778	-200.000	-0.032	0.200
-438.763	-65.615	-0.298	0.121
-437.749	-10.090	0.065	-0.044
-436.734	-200.000	0.003	-0.194
-435.719	91.169	0.157	-0.178
-434.705	-120.538	0.333	-0.057
-433.690	-13.330	0.265	0.174
-432.676	-134.496	-0.246	0.030
-431.661	-200.000	-0.005	-0.286
-430.646	74.873	0.042	-0.045
-429.632	-200.000	-0.020	0.173
-428.617	-95.423	-0.182	0.049
-427.603	-200.000	-0.041	-0.195
-426.588	-200.000	0.030	-0.199
-425.573	-42.654	0.144	-0.074
-424.559	80.896	-0.276	-0.301
-423.544	-200.000	0.099	0.534
-422.530	-91.116	0.213	0.062
-421.515	-36.036	0.204	0.112
-420.500	-200.000	0.024	-0.142
-419.486	-200.000	-0.017	0.233
-418.471	87.009	0.084	-0.094
-417.457	-36.952	-0.219	-0.119
-416.442	245.210	0.087	-0.147
-415.428	-200.000	-0.035	-0.300
-414.413	-200.000	-0.002	-0.146
-413.398	125.406	-0.156	-0.199
-412.384	-74.603	0.319	0.116
-411.369	-110.589	-0.209	0.044
-410.355	-91.024	-0.154	-0.045
-409.340	-192.851	0.042	0.000
-408.325	-96.984	0.293	-0.078
-407.311	-45.453	0.146	0.073
-406.296	800.000	-0.040	0.139
-405.282	-106.976	-0.095	-0.021
-404.267	226.935	-0.053	0.088
-403.252	-20.652	0.293	0.182
-402.238	573.888	0.097	-0.240
-401.223	-71.401	0.156	-0.059
-400.209	-89.322	0.423	-0.126
-399.194	800.000	0.033	0.098
-398.179	-103.372	-0.063	0.015
-397.165	-159.730	0.399	-0.022
-396.150	337.982	0.241	0.474
-395.136	-133.653	-0.423	-0.053
-394.121	-200.000	0.000	-0.135
-393.106	675.165	0.151	-0.396
-392.092	226.784	0.087	-0.143
-391.077	701.270	0.116	-0.307
-390.063	-11.182	0.092	0.061
-389.048	-100.265	-0.211	-0.053
-388.033	16.872	-0.102	0.082
-387.019	446.931	-0.120	-0.266
-386.004	-92.280	0.277	0.079
-384.990	-127.165	0.149	-0.022
-383.975	379.251	0.065	-0.134
-382.960	692.361	0.025	-0.066
-381.946	182.599	0.032	0.047
-380.931	-61.127	-0.147	0.063
-379.917	43.124	-0.152	-0.140
-378.902	119.831	-0.098	0.122
-377.888	-164.470	0.109	0.005
-376.873	-14.906	-0.136	-0.088
-375.858	-106.750	-0.229	0.051
-374.844	-200.000	-0.012	-0.171
-373.829	800.000	-0.044	-0.147
-372.815	-36.436	0.179	0.097
-371.800	-36.951	-0.319	-0.173
-370.785	800.000	-0.093	-0.360
-369.771	177.671	-0.054	0.079
-368.756	269.078	0.210	0.373
-367.742	25.225	-0.172	-0.144
-366.727	-200.000	-0.048	0.247
-365.712	800.000	0.095	0.304
-364.698	160.801	-0.106	0.149
-363.683	38.624	-0.119	0.107
-362.669	-42.422	-0.076	0.039
-361.654	-52.543	-0.043	0.020
-360.639	-0.751	-0.093	-0.067
-359.625	-93.450	-0.205	0.057
-358.610	800.000	-0.092	-0.368
-357.596	282.365	-0.183	-0.330
-356.581	800.000	-0.070	-0.250
-355.566	93.459	-0.131	0.150
-354.552	106.397	-0.140	-0.168
-353.537	800.000	-0.020	0.058
-352.523	24.075	-0.190	0.158
-351.508	-6.323	0.100	-0.069
-350.493	-146.214	-0.338	0.030
-349.479	-200.000	0.004	-0.037
-348.464	-165.909	0.415	0.018
-347.450	800.000	-0.021	0.081
-346.435	-19.541	-0.168	-0.105
-345.420	-163.172	0.364	0.018
-344.406	-23.947	-0.386	0.233
-343.391	-200.000	0.001	-0.166
-342.377	178.853	-0.105	0.154
-341.362	-200.000	-0.020	-0.356
-340.348	663.891	-0.018	0.047
-339.333	30.398	-0.094	0.081
-338.318	315.616	-0.075	-0.143
-337.304	-9.606	0.352	0.236
-336.289	-200.000	0.034	-0.247
-335.275	-37.138	-0.208	-0.112
-334.260	-200.000	0.045	0.323
-333.245	800.000	0.038	0.112
-332.231	-79.831	0.072	0.024
-331.216	434.717	0.100	-0.218
-330.202	-119.535	-0.183	0.032
-329.187	-200.000	-0.010	-0.079
-328.172	733.117	0.070	-0.188
-327.158	-200.000	-0.025	0.267
-326.143	-55.077	0.172	-0.078
-325.129	-200.000	0.000	-0.100
-324.114	77.298	0.163	-0.175
-323.099	-200.000	-0.042	-0.380
-322.085	273.361	-0.108	-0.192
-321.070	800.000	0.095	0.414
-320.056	-77.892	0.253	0.088
-319.041	349.736	-0.097	0.193
-318.026	194.925	-0.084	0.129
-317.012	-200.000	0.003	0.283
-315.997	800.000	0.043	0.173
-314.983	98.855	-0.201	-0.234
-313.968	284.871	0.120	0.218
-312.953	122.909	-0.148	0.187
-311.939	484.720	0.062	0.143
-310.924	-96.241	-0.265	-0.071
-309.910	-109.691	0.239	-0.051
-308.895	-35.386	-0.075	-0.041
-307.880	-200.000	-0.054	-0.301
-306.866	125.169	0.117	-0.149
-305.851	242.673	0.044	-0.074
-304.837	439.858	0.117	0.258
-303.822	485.142	0.072	0.165
-302.807	800.000	-0.106	-0.351
-301.793	-200.000	0.001	0.214
-300.778	-200.000	0.001	0.056
-299.764	-69.420	0.209	-0.081
-298.749	-35.164	0.199	-0.109
-297.735	-101.036	-0.354	-0.087
-296.720	74.941	-0.033	-0.035
-295.705	800.000	0.043	-0.144
-294.691	-63.526	-0.148	0.061
-293.676	185.324	0.073	0.110
-292.662	-112.965	0.195	0.039
-291.647	14.959	0.176	-0.139
-290.632	800.000	0.116	-0.499
-289.618	-200.000	0.001	-0.222
-288.603	-200.000	-0.005	0.160
-287.589	279.641	-0.098	0.176
-286.574	800.000	0.042	0.147
-285.559	607.676	-0.192	0.482
-284.545	-126.067	-0.195	-0.029
-283.530	-40.050	-0.233	0.122
-282.516	189.119	0.095	-0.143
-281.501	-200.000	-0.032	0.148
-280.486	-200.000	-0.066	0.311
-279.472	198.580	0.091	0.140
-278.457	-114.323	-0.194	-0.037
-277.443	-85.285	0.216	0.068
-276.428	174.941	0.074	-0.107
-275.413	30.865	0.095	-0.082
-274.399	-1.221	0.273	0.194
-273.384	45.548	0.178	0.165
-272.370	377.807	-0.075	-0.153
-271.355	800.000	-0.034	-0.121
-270.340	-200.000	0.016	0.196
-269.326	-12.005	0.250	0.165
-268.311	-103.089	-0.255	-0.061
-267.297	-59.313	0.507	-0.219
-266.282	-39.512	-0.125	0.066
-265.267	-12.411	-0.371	0.244
-264.253	57.463	0.117	-0.115
-263.238	25.038	0.049	-0.041
-262.224	800.000	0.008	0.022
-261.209	118.240	-0.073	-0.091
-260.195	-52.739	-0.196	0.091
-259.180	-182.731	0.233	0.004
-258.165	674.922	0.131	-0.343
-257.151	-115.296	0.144	-0.027
-256.136	261.753	-0.034	0.060
-255.122	-200.000	-0.025	-0.318
-254.107	-124.393	0.268	0.042
-253.092	-200.000	0.065	0.314
-252.078	-200.000	0.088	0.506
-251.063	-200.000	0.004	0.247
-250.049	-91.175	0.333	0.096
-249.034	-62.884	0.211	0.088
-248.019	-52.495	0.095	0.044
-247.005	-200.000	0.008	0.247
-245.990	-92.607	0.119	-0.033
-244.976	-52.686	-0.233	0.108
-243.961	299.604	0.167	0.309
-242.946	800.000	-0.080	-0.346
-241.932	-88.957	0.163	-0.048
-240.917	-48.003	0.074	0.036
-239.903	800.000	-0.114	0.323
-238.888	350.365	-0.049	0.097
-237.873	32.265	-0.204	-0.177
-236.859	154.984	0.021	-0.029
-235.844	4.668	-0.158	0.116
-234.830	334.133	0.064	-0.124
-233.815	-85.684	0.050	-0.016
-232.800	-113.804	-0.343	-0.067
-231.786	-56.943	-0.308	-0.136
-230.771	-200.000	0.027	-0.220
-229.757	-185.288	0.026	0.000
-228.742	-126.854	-0.339	-0.050
-227.727	-200.000	-0.006	0.360
-226.713	478.405	-0.078	0.178
-225.698	122.878	0.040	-0.051
-224.684	-200.000	0.035	-0.456
-223.669	-97.681	-0.269	0.070
-222.655	-127.630	-0.329	-0.048
-221.640	33.429	0.116	0.101
-220.625	-41.364	0.122	-0.063
-219.611	-137.446	-0.007	0.001
-218.596	-22.226	0.098	0.060
-217.582	800.000	0.018	-0.057
-216.567	-31.554	-0.153	-0.086
-215.552	800.000	-0.061	-0.211
-214.538	-74.597	0.136	0.049
-213.523	-132.580	-0.172	-0.022
-212.509	-121.732	0.170	-0.028
-211.494	388.909	0.073	0.152
-210.479	-200.000	-0.019	-0.266
-209.465	-200.000	-0.038	-0.258
-208.450	315.729	0.024	0.046
-207.436	106.188	-0.127	-0.151
-206.421	249.349	0.260	0.442
-205.406	4.414	0.058	0.043
-204.392	-172.498	-0.213	-0.007
-203.377	800.000	-0.036	-0.109
-202.363	94.661	0.244	0.278
-201.348	-72.232	-0.131	0.049
-200.333	-31.546	0.183	-0.103
-199.319	-28.376	-0.129	-0.074
-198.304	85.684	-0.103	-0.113
-197.290	29.855	-0.375	0.320
-196.275	35.134	0.191	0.168
-195.260	95.836	-0.127	0.145
-194.246	-200.000	0.028	-0.173
-193.231	-200.000	0.040	-0.225
-192.217	453.783	-0.154	0.341
-191.202	58.144	-0.107	0.105
-190.187	-200.000	0.028	0.181
-189.173	142.986	0.085	0.114
-188.158	521.788	-0.172	-0.404
-187.144	-167.834	-0.246	-0.010
-186.129	41.357	-0.092	-0.083
-185.114	374.972	-0.025	0.050
-184.100	-89.046	0.246	0.073
-183.085	-94.737	-0.152	0.041
-182.071	-158.417	0.109	-0.006
-181.056	-20.033	-0.103	-0.064
-180.042	-121.859	0.179	0.030
-179.027	42.433	0.130	0.119
-178.012	-127.931	-0.227	0.033
-176.998	40.405	-0.058	0.052
-175.983	-125.841	0.032	-0.005
-174.969	-88.575	-0.128	0.038
-173.954	395.090	0.068	0.143
-172.939	137.173	0.102	0.133
-171.925	-73.642	0.179	0.065
-170.910	-92.639	0.420	0.118
-169.896	-200.000	-0.007	0.111
-168.881	108.020	-0.056	-0.066
-167.866	-97.081	0.234	0.061
-166.852	-136.189	0.091	0.011
-165.837	197.297	-0.068	0.104
-164.823	-89.958	0.534	0.156
-163.808	-149.097	-0.108	0.009
-162.793	800.000	-0.041	-0.170
-161.779	28.010	0.034	-0.028
-160.764	122.009	0.092	0.115
-159.750	-28.575	0.168	0.097
-158.735	346.652	-0.041	-0.080
-157.720	-150.791	0.359	0.027
-156.706	87.308	0.118	0.131
-155.691	-109.661	-0.110	0.023
-154.677	-200.000	0.019	0.201
-153.662	-168.963	-0.276	-0.010
-152.647	-87.102	-0.151	-0.046
-151.633	-84.058	-0.429	-0.136
-150.618	256.159	-0.170	-0.292
-149.604	-92.238	-0.112	0.032
-148.589	380.398	0.129	-0.265
-147.574	-200.000	-0.019	-0.553
-146.560	-8.832	-0.200	-0.134
-145.545	800.000	0.022	0.078
-144.531	-200.000	-0.030	-0.238
-143.516	-84.862	-0.227	-0.071
-142.502	-200.000	0.097	0.436
-141.487	-200.000	-0.032	0.268
-140.472	800.000	0.094	0.361
-139.458	-200.000	-0.034	0.209
-138.443	-78.125	0.233	0.080
-137.429	90.361	0.079	-0.088
-136.414	585.752	0.046	0.113
-135.399	800.000	0.015	-0.053
-134.385	800.000	0.103	-0.388
-133.370	222.925	-0.074	0.120
-132.356	695.996	-0.063	0.165
-131.341	8.326	0.174	-0.131
-130.326	-51.352	0.117	-0.055
-129.312	-117.854	0.250	0.045
-128.297	82.915	-0.127	-0.139
-127.283	-95.855	-0.120	-0.032
-126.268	-200.000	0.065	0.297
-125.253	139.886	0.133	-0.175
-124.239	103.723	0.112	0.131
-123.224	-77.995	0.176	0.061
-122.210	-113.158	-0.128	-0.025
-121.195	-200.000	-0.004	0.056
-120.180	-200.000	-0.005	-0.122
-119.166	-40.494	0.442	-0.229
-118.151	-67.100	-0.118	0.046
-117.137	-200.000	0.008	0.168
-116.122	-200.000	-0.026	-0.170
-115.107	21.855	0.286	-0.233
-114.093	-118.901	0.454	-0.080
-113.078	-67.011	-0.135	-0.053
-112.064	-200.000	-0.018	0.182
-111.049	-60.609	-0.406	-0.172
-110.034	44.542	-0.080	0.073
-109.020	-200.000	0.045	-0.299
-108.005	-132.507	-0.083	0.011
-106.991	400.861	0.094	0.197
-105.976	-120.962	0.333	0.056
-104.962	-200.000	-0.037	0.229
-103.947	-54.855	0.265	0.120
-102.932	240.324	0.059	-0.098
-101.918	-72.244	0.026	0.009
-100.903	26.192	-0.144	0.120
-99.889	16.242	0.271	0.213
-98.874	-200.000	-0.039	-0.239
-97.859	-78.860	-0.168	0.057
-96.845	-200.000	0.012	-0.109
-95.830	183.575	0.097	0.143
-94.816	800.000	-0.061	0.213
-93.801	-200.000	-0.002	-0.270
-92.786	-132.891	0.017	0.002
-91.772	-107.298	0.329	-0.072
-90.757	-39.880	0.178	0.093
-89.743	211.783	0.092	0.144
-88.728	720.720	-0.096	0.256
-87.713	715.676	0.081	0.214
-86.699	800.000	0.082	0.297
-85.684	43.470	0.078	0.071
-84.670	-200.000	0.005	-0.303
-83.655	703.745	0.128	0.338
-82.640	200.356	0.148	0.227
-81.626	-26.823	-0.064	0.037
-80.611	-27.021	-0.199	-0.116
-79.597	17.550	0.187	0.148
-78.582	800.000	-0.053	0.215
-77.567	108.534	0.110	-0.131
-76.553	-69.974	-0.083	-0.031
-75.538	-200.000	-0.015	0.121
-74.524	80.923	0.156	-0.168
-73.509	-77.307	-0.144	-0.050
-72.494	0.448	0.149	-0.106
-71.480	-120.643	-0.153	-0.026
-70.465	-124.858	0.182	0.028
-69.451	-101.211	0.217	0.053
-68.436	511.513	0.057	-0.132
-67.422	44.613	-0.159	0.146
-66.407	-12.063	-0.092	-0.060
-65.392	-66.870	0.084	0.033
-64.378	-200.000	-0.025	0.168
-63.363	90.478	-0.166	0.186
-62.349	-160.318	0.145	-0.008
-61.334	39.344	-0.558	-0.498
-60.319	-32.343	0.191	0.106
-59.305	-200.000	-0.058	-0.719
-58.290	84.226	0.419	0.457
-57.276	403.791	0.708	1.485
-56.261	-200.000	76.414	528.866
-55.246	522.107	1332.661	3117.772
-54.232	143.384	2563.047	3399.970
-53.217	119.119	2235.659	2754.883
-52.203	54.007	1670.466	1600.210
-51.188	45.568	1389.323	1278.451
-50.173	41.746	1342.976	1212.623
-49.159	60.440	1378.309	1359.370
-48.144	67.723	1397.538	1422.787
-47.130	45.989	1358.971	1252.895
-46.115	41.746	1342.260	1211.779
-45.100	41.486	1337.758	1206.101
-44.086	41.373	1335.448	1203.288
-43.071	41.361	1332.792	1200.774
-42.057	41.361	1330.698	1198.838
-41.042	41.511	1328.706	1197.895
-40.027	41.455	1327.237	1196.190
-39.013	41.524	1325.187	1194.705
-37.998	41.441	1323.640	1192.770
-36.984	41.536	1321.220	1191.106
-35.969	41.484	1320.184	1189.817
-34.954	41.666	1317.988	1188.871
-33.940	41.732	1316.202	1187.605
-32.925	41.637	1315.171	1186.066
-31.911	41.712	1313.326	1184.800
-30.896	41.612	1312.144	1183.092
-29.881	41.739	1310.482	1182.300
-28.867	41.744	1308.859	1180.821
-27.852	41.691	1307.766	1179.471
-26.838	41.769	1306.072	1178.356
-25.823	41.724	1304.488	1176.616
-24.809	41.726	1303.098	1175.331
-23.794	41.572	1302.013	1173.397
-22.779	41.566	1300.931	1172.339
-21.765	41.617	1299.562	1171.362
-20.750	41.626	1298.004	1169.961
-19.736	41.631	1296.634	1168.712
-18.721	41.461	1295.619	1166.754
-17.706	41.552	1294.374	1166.117
-16.692	41.442	1293.222	1164.390
-15.677	41.494	1292.448	1163.952
-14.663	41.480	1290.771	1162.314
-13.648	41.542	1289.322	1161.327
-12.633	41.435	1288.736	1160.131
-11.619	41.465	1287.729	1159.349
-10.604	41.537	1286.748	1158.840
-9.590	41.532	1285.634	1157.759
-8.575	41.476	1284.496	1156.367
-7.560	41.332	1283.815	1154.874
-6.546	41.463	1283.215	1155.044
-5.531	41.399	1282.196	1153.711
-4.517	41.500	1281.198	1153.352
-3.502	41.515	1280.430	1152.700
-2.487	41.534	1278.951	1151.437
-1.473	41.742	1275.539	1149.514
-0.458	41.205	1261.777	1134.012
0.556	36.355	1243.049	1097.436
1.571	31.969	1245.704	1074.626
2.586	30.098	1259.301	1075.414
3.600	28.155	1247.719	1054.250
4.615	21.282	1172.513	953.256
5.629	10.713	1091.544	833.380
6.644	5.525	1067.515	788.864
7.659	5.148	1064.696	784.818
8.673	5.011	1063.309	783.039
9.688	4.917	1061.843	781.419
10.702	5.424	1061.320	783.506
11.717	11.459	1069.294	819.705
12.731	18.920	1079.889	865.454
13.746	19.681	1080.031	869.321
14.761	17.700	1076.194	856.216
15.775	16.478	1074.173	848.402
16.790	15.348	1071.796	840.792
17.804	14.540	1070.477	835.634
18.819	14.189	1069.461	833.012
19.834	13.989	1068.159	830.922
20.848	13.723	1067.302	828.851
21.863	13.615	1066.199	827.381
22.877	13.311	1066.179	825.778
23.892	13.258	1065.375	824.818
24.907	13.393	1064.171	824.482
25.921	13.445	1063.123	823.859
26.936	13.403	1061.631	822.422
27.950	13.441	1060.364	821.555
28.965	13.438	1059.349	820.679
29.980	13.559	1057.562	819.821
30.994	13.572	1056.689	819.140
32.009	13.722	1055.526	818.906
33.023	13.528	1054.815	817.324
34.038	13.513	1053.300	816.003
35.053	13.459	1052.621	815.141
36.067	13.412	1052.027	814.377
37.082	13.551	1050.758	814.005
38.096	13.520	1050.273	813.403
39.111	13.573	1049.340	812.868
40.126	13.530	1047.918	811.487
41.140	13.307	1046.962	809.581
42.155	13.265	1045.521	808.189
43.169	13.318	1044.768	807.795
44.184	13.287	1043.486	806.583
45.199	13.218	1043.041	805.832
46.213	13.236	1041.798	804.889
47.228	13.419	1040.556	804.743
48.242	13.478	1039.090	803.825
49.257	13.375	1038.052	802.452
50.271	13.450	1037.480	802.303
51.286	13.507	1036.718	801.917
52.301	13.486	1035.544	800.839
53.315	13.377	1034.811	799.673
54.330	13.281	1033.864	798.410
55.344	13.327	1032.782	797.722
56.359	13.274	1032.248	796.985
57.374	13.302	1031.131	796.189
58.388	13.235	1030.089	794.990
59.403	13.252	1029.144	794.273
60.417	13.318	1028.227	793.811
61.432	13.206	1027.703	792.799
62.447	13.192	1026.906	792.047
63.461	13.136	1026.270	791.218
64.476	13.166	1025.224	790.484
65.490	13.206	1024.253	789.860
66.505	13.297	1023.721	789.811
67.520	13.185	1023.139	788.761
68.534	13.150	1022.161	787.767
69.549	13.286	1021.447	787.798
70.563	13.185	1020.793	786.742
71.578	12.957	1020.573	785.418
72.593	13.143	1018.987	785.009
73.607	13.157	1018.727	784.807
74.622	13.095	1018.105	783.964
75.636	13.189	1017.050	783.526
76.651	13.166	1016.339	782.805
77.666	13.125	1016.097	782.350
78.680	13.321	1014.780	782.197
79.695	13.180	1014.589	781.312
80.709	13.177	1014.001	780.777
81.724	13.438	1012.885	781.080
82.739	13.415	1012.662	780.731
83.753	13.429	1011.814	780.073
84.768	13.534	1010.933	779.818
85.782	13.657	1010.080	779.672
86.797	13.500	1009.170	778.164
87.812	13.484	1008.282	777.335
88.826	13.432	1007.403	776.345
89.841	13.323	1006.740	775.255
90.855	13.589	1005.303	775.323
91.870	13.559	1004.824	774.744
92.884	13.629	1003.740	774.167
93.899	13.588	1002.999	773.334
94.914	13.593	1002.374	772.811
95.928	13.680	1001.518	772.488
96.943	13.587	1000.653	771.318
97.957	13.534	999.491	770.107
98.972	13.448	998.744	769.063
99.987	13.641	997.984	769.306
101.001	13.687	996.805	768.545
102.016	13.565	996.126	767.388
103.030	13.563	995.384	766.737
104.045	13.639	994.439	766.291
105.060	13.492	993.775	765.034
106.074	13.436	992.812	763.966
107.089	13.326	991.802	762.613
108.103	13.348	990.682	761.788
109.118	13.278	989.748	760.678
110.133	13.189	989.179	759.766
111.147	13.326	987.797	759.268
112.162	13.299	987.381	758.756
113.176	13.437	986.435	758.596
114.191	13.455	985.606	757.973
115.206	13.311	984.729	756.574
116.220	13.270	984.324	756.007
117.235	13.305	983.479	755.448
118.249	13.272	982.651	754.597
119.264	13.344	981.210	753.750
120.279	13.222	981.117	753.056
121.293	13.263	980.347	752.588
122.308	13.405	978.422	751.689
123.322	13.287	977.599	750.452
124.337	13.247	976.554	749.405
125.352	13.359	975.514	749.046
126.366	13.130	974.613	747.252
127.381	13.324	973.517	747.222
128.395	13.239	972.758	746.189
129.410	13.357	971.534	745.718
130.424	13.476	970.809	745.628
131.439	13.500	970.362	745.329
132.454	13.631	969.287	745.024
133.468	13.597	968.692	744.352
134.483	13.575	967.844	743.535
135.497	13.561	966.987	742.747
136.512	13.533	966.216	741.961
137.527	13.538	965.432	741.317
138.541	13.547	964.939	740.915
139.556	13.603	963.882	740.286
140.570	13.605	963.261	739.752
141.585	13.578	962.933	739.315
142.600	13.678	961.722	738.766
143.614	13.713	961.113	738.389
144.629	13.863	960.150	738.250
145.643	13.647	959.448	736.685
146.658	13.703	957.950	735.719
147.673	13.635	956.951	734.584
148.687	13.477	956.702	733.629
149.702	13.502	955.251	732.564
150.716	13.720	954.423	732.825
151.731	13.621	953.902	731.922
152.746	13.578	953.389	731.276
153.760	13.478	952.965	730.444
154.775	13.621	952.189	730.418
155.789	13.695	951.788	730.369
156.804	13.592	951.066	729.297
157.819	13.724	949.938	728.947
158.833	13.648	949.815	728.454
159.848	13.704	948.768	727.835
160.862	13.818	947.726	727.471
161.877	13.610	946.723	725.726
162.892	13.652	945.641	725.013
163.906	13.604	944.564	723.916
164.921	13.509	944.097	723.079
165.935	13.583	943.510	722.890
166.950	13.644	942.542	722.348
167.964	13.651	941.551	721.556
168.979	13.736	940.385	720.965
169.994	13.708	939.658	720.226
171.008	13.720	939.233	719.887
172.023	13.815	938.464	719.648
173.037	13.760	937.910	718.920
174.052	13.908	937.013	718.809
175.067	13.800	936.243	717.686
176.081	13.637	935.563	716.397
177.096	13.557	935.529	715.962
178.110	13.624	934.639	715.506
179.125	13.749	933.879	715.404
180.140	13.779	933.523	715.195
181.154	13.883	933.255	715.374
182.169	13.876	932.516	714.714
183.183	13.877	932.099	714.336
184.198	13.943	930.929	713.662
185.213	13.862	930.370	712.818
186.227	13.932	929.871	712.677
187.242	13.948	928.967	711.988
188.256	13.998	928.814	712.023
189.271	14.027	927.636	711.179
190.286	13.917	926.683	709.915
191.300	13.704	926.221	708.588
192.315	13.781	925.222	708.090
193.329	13.762	925.031	707.799
194.344	13.785	923.957	707.017
195.359	13.898	923.404	707.011
196.373	14.027	922.899	707.109
197.388	14.119	922.560	707.180
198.402	14.197	921.823	706.885
199.417	14.335	921.352	707.047
200.432	14.472	920.507	706.916
201.446	14.390	920.411	706.430
202.461	14.366	919.700	705.720
203.475	14.390	918.793	705.063
204.490	14.274	918.408	704.217
205.504	14.089	917.727	702.851
206.519	14.150	916.741	702.291
207.534	14.264	916.112	702.226
208.548	14.280	915.323	701.628
209.563	14.170	914.860	700.747
210.577	14.180	914.544	700.486
211.592	14.366	913.570	700.458
212.607	14.322	912.905	699.700
213.621	14.411	911.832	699.191
214.636	14.393	911.021	698.430
215.650	14.307	910.429	697.555
216.665	14.432	909.856	697.578
217.680	14.444	909.228	697.086
218.694	14.471	908.833	696.834
219.709	14.474	908.123	696.240
220.723	14.684	907.093	696.264
221.738	14.460	906.292	694.656
222.753	14.454	905.823	694.209
223.767	14.385	905.872	693.899
224.782	14.597	904.980	694.034
225.796	14.644	904.094	693.492
226.811	14.683	903.517	693.148
227.826	14.615	902.487	692.015
228.840	14.546	901.917	691.231
229.855	14.494	901.278	690.463
230.869	14.486	900.935	690.108
231.884	14.597	899.743	689.592
232.899	14.482	898.973	688.465
233.913	14.489	898.513	688.081
234.928	14.519	897.494	687.362
235.942	14.498	896.906	686.766
236.957	14.338	897.075	686.177
237.972	14.580	896.352	686.559
238.986	14.575	895.597	685.897
240.001	14.457	894.754	684.706
241.015	14.583	893.753	684.396
242.030	14.593	893.612	684.272
243.045	14.666	893.359	684.313
244.059	14.580	892.165	682.988
245.074	14.653	891.899	683.022
246.088	14.794	891.105	682.930
247.103	14.835	890.543	682.606
248.117	14.879	889.995	682.306
249.132	14.908	889.844	682.248
250.147	14.998	889.005	681.912
251.161	14.985	888.209	681.189
252.176	15.092	887.444	680.976
253.190	15.073	886.824	680.363
254.205	15.130	886.366	680.183
255.220	15.171	885.541	679.656
256.234	15.186	884.982	679.229
257.249	15.211	884.646	679.011
258.263	15.080	883.724	677.711
259.278	15.065	883.052	677.079
260.293	15.334	882.076	677.355
261.307	15.258	881.855	676.816
262.322	15.225	881.398	676.276
263.336	15.232	880.667	675.682
264.351	15.169	879.835	674.730
265.366	15.340	879.019	674.731
266.380	15.401	878.326	674.386
267.395	15.256	877.702	673.264
268.409	15.308	876.782	672.710
269.424	15.247	876.096	671.876
270.439	15.288	875.300	671.373
271.453	15.138	875.355	670.755
272.468	15.217	874.374	670.260
273.482	15.380	873.515	670.194
274.497	15.290	873.341	669.640
275.512	15.270	872.702	669.011
276.526	15.330	871.937	668.606
277.541	15.414	871.536	668.575
278.555	15.402	871.007	668.061
279.570	15.647	870.287	668.425
280.585	15.441	869.526	666.962
281.599	15.404	868.714	666.134
282.614	15.485	867.686	665.606
283.628	15.520	867.672	665.677
284.643	15.402	867.070	664.688
285.657	15.432	866.552	664.352
286.672	15.427	866.125	663.945
287.687	15.607	864.927	663.680
288.701	15.473	865.134	663.248
289.716	15.513	864.257	662.677
290.730	15.534	863.708	662.279
291.745	15.605	862.820	661.819
292.760	15.630	862.476	661.595
293.774	15.714	861.892	661.420
294.789	15.776	860.848	660.804
295.803	15.609	860.146	659.551
296.818	15.657	859.402	659.108
297.833	15.709	858.909	658.878
298.847	15.684	858.444	658.366
299.862	15.603	857.978	657.630
300.876	15.775	857.719	658.046
301.891	15.752	856.991	657.342
302.906	15.779	856.341	656.891
303.920	15.926	855.477	656.743
304.935	15.857	855.197	656.199
305.949	15.984	854.629	656.199
306.964	15.819	853.797	654.862
307.979	15.861	853.591	654.810
308.993	15.781	853.003	653.987
310.008	15.975	852.446	654.259
311.022	15.935	851.521	653.337
312.037	15.994	850.939	653.059
313.052	15.881	850.529	652.248
314.066	15.842	849.921	651.574
315.081	15.762	849.744	651.070
316.095	15.889	848.588	650.619
317.110	15.815	847.857	649.715
318.125	15.871	847.517	649.614
319.139	15.885	846.903	649.140
320.154	15.719	846.917	648.453
321.168	15.889	846.061	648.392
322.183	15.970	845.333	648.090
323.197	16.011	844.878	647.842
324.212	15.926	844.762	647.368
325.227	16.023	843.889	647.016
326.241	16.023	843.390	646.575
327.256	16.014	842.549	645.839
328.270	15.970	842.089	645.260
329.285	15.909	841.920	644.842
330.300	15.914	841.074	644.155
331.314	16.018	840.373	643.957
332.329	16.114	839.862	643.877
333.343	16.154	839.717	643.859
334.358	16.187	839.128	643.479
335.373	16.097	838.784	642.814
336.387	16.206	838.339	642.830
337.402	16.155	838.275	642.530
338.416	16.328	837.711	642.700
339.431	16.315	837.297	642.277
340.446	16.318	837.114	642.092
341.460	16.490	836.475	642.198
342.475	16.329	836.644	641.657
343.489	16.430	835.772	641.317
344.504	16.526	835.136	641.134
345.519	16.482	834.978	640.789
346.533	16.458	834.546	640.313
347.548	16.370	833.713	639.282
348.562	16.409	832.888	638.739
349.577	16.422	832.531	638.460
350.592	16.311	831.893	637.494
351.606	16.353	831.141	637.019
352.621	16.420	830.614	636.813
353.635	16.512	829.904	636.558
354.650	16.454	829.509	635.980
355.665	16.426	829.099	635.506
356.679	16.530	828.081	635.060
357.694	16.525	827.600	634.614
358.708	16.404	826.946	633.604
359.723	16.425	826.785	633.504
360.738	16.555	826.055	633.374
361.752	16.753	825.145	633.363
362.767	16.626	824.911	632.649
363.781	16.693	824.417	632.466
364.796	16.771	823.993	632.375
365.810	16.798	823.619	632.134
366.825	16.937	822.878	632.026
367.840	16.942	822.539	631.731
368.854	16.916	822.051	631.203
369.869	16.747	821.774	630.304
370.883	16.728	821.270	629.793
371.898	16.917	820.690	629.994
372.913	16.791	820.809	629.559
373.927	16.921	819.804	629.216
374.942	17.011	819.450	629.225
375.956	16.916	819.221	628.638
376.971	17.002	818.648	628.462
377.986	17.035	818.283	628.250
379.000	17.104	817.793	628.071
380.015	16.971	817.616	627.390
381.029	17.152	816.549	627.183
382.044	17.139	815.990	626.652
383.059	17.185	815.227	626.178
384.073	17.055	815.056	625.512
385.088	17.023	814.338	624.790
386.102	17.257	813.428	624.894
387.117	16.927	813.271	623.508
388.132	17.077	812.644	623.523
389.146	16.986	812.209	622.801
390.161	17.149	811.620	622.891
391.175	17.143	811.364	622.615
392.190	17.126	810.447	621.796
393.205	17.199	810.177	621.801
394.219	17.091	810.017	621.226
395.234	17.118	809.513	620.886
396.248	16.996	809.267	620.196
397.263	16.956	808.709	619.567
398.278	16.983	808.273	619.276
399.292	16.990	807.864	618.933
400.307	17.073	807.257	618.714
401.321	17.067	806.875	618.347
402.336	17.081	806.154	617.791
403.350	17.236	805.784	618.015
404.365	17.232	805.651	617.845
405.380	17.308	805.094	617.639
406.394	17.411	804.375	617.406
407.409	17.412	804.127	617.165
408.423	17.628	803.614	617.502
409.438	17.585	803.363	617.098
410.453	17.468	803.008	616.346
411.467	17.595	802.526	616.380
412.482	17.644	801.831	615.969
413.496	17.524	801.940	615.566
414.511	17.552	801.541	615.306
415.526	17.678	800.988	615.283
416.540	17.541	800.522	614.376
417.555	17.484	800.220	613.882
418.569	17.610	799.522	613.745
419.584	17.610	798.955	613.259
420.599	17.769	798.280	613.257
421.613	89.034	1258.152	1351.885
422.628	75.852	1325.206	1352.005
