DTS Sentinel unit serial number:	SN413079Multiplexer serial number:	ORYXHardware model number:	OX4-SRSoftware version number:	ORYX F/W v4.00 Oryx Data Collector v3.7.2.0data status	okinstallation	princeton_trtdifferential loss correction	single-endedforward channel	channel 1reverse channel	N/Adate	2019/09/12time	23:14:35forward acquisition time	60.00reverse acquisition time	0.00gamma	496.2192k internal	0.2327k external	0.2327temperature offset calibration	1.0144default loss term (dB/km)	0.3790temperature slope calibration	1.0000multiplexer offset coefficient	1.0000multiplexer slope coefficient	1.0000fibre end	0.00T internal ref (°C)	29.14T ext. ref 1 (°C)	3.74T ext. ref 2 (°C)	23.79length (m)	temperature (°C)	Stokes	anti-Stokes-747.200	46.687	0.208	0.195
-746.185	637.031	-0.107	0.274
-745.171	60.799	-0.093	0.093
-744.156	64.745	0.179	0.182
-743.142	15.798	0.073	-0.058
-742.127	800.000	0.025	0.077
-741.112	-200.000	-0.051	-0.337
-740.098	-200.000	0.009	0.063
-739.083	155.787	0.081	0.112
-738.069	-16.921	-0.176	0.112
-737.054	-183.267	0.619	-0.011
-736.039	-1.512	-0.509	-0.362
-735.025	245.461	0.222	0.377
-734.010	-37.454	-0.185	-0.099
-732.996	-21.219	-0.202	-0.125
-731.981	-17.997	0.280	0.177
-730.966	-200.000	0.004	0.136
-729.952	265.962	-0.063	-0.111
-728.937	800.000	-0.043	-0.123
-727.923	160.848	-0.128	-0.180
-726.908	42.453	-0.126	0.116
-725.894	-200.000	0.000	-0.080
-724.879	31.105	-0.077	0.066
-723.864	60.141	-0.161	-0.160
-722.850	-32.258	0.171	0.096
-721.835	-200.000	-0.024	0.288
-720.821	-200.000	0.006	0.206
-719.806	107.774	0.042	-0.051
-718.791	100.545	-0.177	-0.207
-717.777	762.477	-0.076	0.206
-716.762	-35.332	-0.015	0.008
-715.748	-13.028	0.221	-0.145
-714.733	8.369	-0.208	0.157
-713.718	-29.433	-0.197	-0.114
-712.704	233.424	0.121	0.200
-711.689	8.492	0.118	0.089
-710.675	-200.000	0.004	-0.279
-709.660	-117.503	0.123	0.022
-708.645	-130.319	0.144	-0.020
-707.631	293.571	-0.124	-0.228
-706.616	800.000	0.097	0.299
-705.602	-200.000	-0.022	0.253
-704.587	-200.000	0.048	0.334
-703.572	121.646	0.134	-0.169
-702.558	-200.000	-0.018	0.117
-701.543	259.841	0.082	0.143
-700.529	-126.065	-0.211	0.032
-699.514	800.000	-0.058	0.174
-698.499	29.541	0.204	0.175
-697.485	272.924	-0.028	0.050
-696.470	-200.000	-0.056	0.528
-695.456	-114.982	0.149	-0.029
-694.441	163.272	0.041	0.058
-693.426	-112.077	0.162	-0.033
-692.412	-71.522	0.057	-0.022
-691.397	-104.834	0.284	0.066
-690.383	69.324	0.094	-0.098
-689.368	41.363	0.261	0.237
-688.354	207.580	0.193	0.303
-687.339	-200.000	-0.000	-0.064
-686.324	43.387	0.225	-0.207
-685.310	-200.000	0.001	0.022
-684.295	-106.951	0.251	-0.056
-683.281	-121.152	-0.357	-0.060
-682.266	-124.041	-0.184	0.029
-681.251	-200.000	-0.038	0.470
-680.237	-162.267	0.113	0.006
-679.222	-200.000	0.032	-0.234
-678.208	303.522	-0.178	-0.332
-677.193	191.982	0.029	0.044
-676.178	-58.608	0.402	0.175
-675.164	-107.619	-0.076	0.017
-674.149	-159.750	-0.416	0.023
-673.135	-73.698	0.434	-0.159
-672.120	122.492	-0.165	0.208
-671.105	-15.413	-0.161	-0.104
-670.091	136.902	0.080	-0.105
-669.076	98.292	-0.153	-0.177
-668.062	-34.393	0.187	0.103
-667.047	-200.000	-0.005	0.096
-666.032	-50.209	0.358	0.170
-665.018	800.000	0.037	0.114
-664.003	-107.638	-0.096	0.021
-662.989	-154.223	0.202	0.014
-661.974	417.162	0.051	0.110
-660.959	800.000	-0.060	-0.209
-659.945	277.020	0.144	-0.257
-658.930	-9.495	0.381	0.256
-657.916	723.049	0.072	-0.192
-656.901	116.228	-0.089	0.110
-655.886	-189.779	-0.179	-0.002
-654.872	800.000	0.039	-0.163
-653.857	17.473	0.236	0.188
-652.843	-142.495	0.346	0.034
-651.828	-27.996	0.170	-0.099
-650.814	4.988	-0.078	-0.058
-649.799	-54.082	-0.017	0.008
-648.784	-200.000	0.021	0.198
-647.770	326.106	-0.109	-0.210
-646.755	-122.511	0.297	-0.048
-645.741	-47.111	0.065	-0.032
-644.726	91.596	0.194	0.219
-643.711	800.000	-0.067	-0.258
-642.697	-44.177	0.136	0.068
-641.682	-200.000	0.093	0.419
-640.668	-200.000	-0.031	0.319
-639.653	275.354	-0.079	0.141
-638.638	-40.614	-0.217	0.113
-637.624	-66.042	-0.227	-0.091
-636.609	-103.072	-0.501	0.119
-635.595	-105.749	-0.220	0.050
-634.580	-134.080	-0.264	0.033
-633.565	-135.068	-0.142	-0.017
-632.551	-200.000	-0.016	0.089
-631.536	137.228	0.082	0.107
-630.522	61.337	-0.047	0.047
-629.507	-200.000	0.018	0.429
-628.492	11.606	-0.045	0.035
-627.478	22.664	-0.163	-0.134
-626.463	460.506	0.108	0.242
-625.449	-200.000	0.001	0.096
-624.434	-107.993	0.207	0.045
-623.419	163.969	-0.234	-0.331
-622.405	18.527	-0.175	0.141
-621.390	-53.763	-0.095	-0.043
-620.376	-178.210	-0.304	0.007
-619.361	-58.466	0.190	-0.083
-618.346	-79.368	0.256	-0.087
-617.332	-192.187	-0.561	0.005
-616.317	-8.669	-0.141	-0.095
-615.303	-177.352	0.113	-0.003
-614.288	102.808	-0.162	-0.191
-613.273	-192.919	-0.266	0.002
-612.259	239.984	-0.014	-0.023
-611.244	36.876	-0.078	-0.069
-610.230	256.712	0.174	0.299
-609.215	164.206	-0.085	0.120
-608.201	226.706	0.013	-0.021
-607.186	-4.293	0.172	-0.119
-606.171	-172.055	-0.099	-0.003
-605.157	-41.485	0.084	-0.044
-604.142	-112.187	0.313	0.063
-603.128	161.170	0.050	-0.071
-602.113	591.007	0.121	-0.298
-601.098	-153.188	0.218	0.015
-600.084	-189.195	0.195	-0.002
-599.069	95.025	-0.160	-0.183
-598.055	-64.697	0.147	0.060
-597.040	88.146	0.076	0.085
-596.025	118.412	-0.189	-0.234
-595.011	403.226	0.145	-0.305
-593.996	-187.671	-0.220	-0.003
-592.982	78.621	0.116	0.124
-591.967	-58.931	-0.289	-0.125
-590.952	-47.193	0.109	0.053
-589.938	-71.178	-0.083	-0.031
-588.923	-141.271	-0.127	0.013
-587.909	-65.942	0.184	0.074
-586.894	479.641	0.034	0.077
-585.879	595.946	0.160	-0.397
-584.865	-40.654	-0.245	0.127
-583.850	26.008	-0.121	0.101
-582.836	93.680	0.096	-0.109
-581.821	267.342	-0.068	-0.118
-580.806	310.452	-0.173	-0.324
-579.792	-200.000	-0.315	-0.001
-578.777	373.607	0.194	0.396
-577.763	800.000	-0.056	-0.180
-576.748	800.000	-0.098	-0.385
-575.733	122.786	-0.204	-0.255
-574.719	243.037	0.056	-0.094
-573.704	-88.008	-0.119	0.036
-572.690	-200.000	-0.018	-0.153
-571.675	-17.782	0.233	0.146
-570.661	-200.000	-0.027	0.271
-569.646	-200.000	0.073	-0.341
-568.631	-200.000	-0.022	-0.179
-567.617	-200.000	-0.026	-0.344
-566.602	-120.068	-0.024	0.004
-565.588	302.162	0.046	-0.085
-564.573	-46.626	-0.126	0.062
-563.558	-200.000	-0.037	0.200
-562.544	-56.045	0.030	-0.013
-561.529	-103.621	-0.298	0.070
-560.515	378.977	0.164	0.336
-559.500	85.619	0.184	0.202
-558.485	800.000	0.093	0.313
-557.471	-200.000	0.027	-0.255
-556.456	52.525	-0.069	-0.066
-555.442	-128.770	0.177	-0.025
-554.427	351.136	-0.118	0.233
-553.412	-28.328	-0.212	-0.123
-552.398	-78.813	0.353	-0.121
-551.383	-124.076	-0.063	-0.010
-550.369	-200.000	0.011	-0.143
-549.354	-40.259	0.054	0.028
-548.339	10.306	0.094	-0.072
-547.325	-15.748	-0.249	0.159
-546.310	402.521	0.036	0.076
-545.296	-200.000	-0.088	0.526
-544.281	-200.000	0.067	-0.379
-543.266	324.796	0.074	-0.141
-542.252	-30.370	-0.339	-0.193
-541.237	12.836	0.146	-0.113
-540.223	188.334	-0.195	-0.292
-539.208	452.080	-0.086	-0.191
-538.193	240.022	0.096	-0.159
-537.179	281.076	0.054	0.096
-536.164	-47.986	0.059	0.029
-535.150	-151.459	0.065	0.005
-534.135	-103.684	-0.098	-0.023
-533.121	800.000	0.062	0.208
-532.106	-200.000	-0.001	-0.195
-531.091	-56.669	-0.115	-0.051
-530.077	-200.000	0.048	0.409
-529.062	1.850	-0.172	0.124
-528.048	-5.352	0.217	0.149
-527.033	-106.099	0.294	-0.066
-526.018	150.089	-0.113	-0.153
-525.004	-200.000	-0.003	-0.175
-523.989	168.450	-0.157	0.224
-522.975	447.057	-0.040	0.089
-521.960	-200.000	0.010	0.254
-520.945	-200.000	0.044	-0.366
-519.931	-200.000	0.019	0.204
-518.916	-18.911	0.205	0.127
-517.902	86.673	0.256	0.282
-516.887	-90.799	-0.248	-0.071
-515.872	80.482	-0.178	-0.192
-514.858	154.494	0.217	0.298
-513.843	-69.599	-0.323	0.123
-512.829	103.737	-0.049	0.057
-511.814	28.979	0.106	0.090
-510.799	-141.795	0.192	-0.019
-509.785	-200.000	0.024	-0.230
-508.770	-129.764	-0.120	0.017
-507.756	-161.822	-0.208	0.011
-506.741	-200.000	-0.011	0.277
-505.726	238.697	0.136	0.225
-504.712	800.000	0.054	0.163
-503.697	800.000	0.060	-0.257
-502.683	-200.000	-0.045	-0.513
-501.668	-61.939	-0.191	-0.080
-500.653	-60.166	-0.225	-0.096
-499.639	272.126	-0.103	0.182
-498.624	-200.000	-0.005	0.246
-497.610	-51.465	0.181	-0.085
-496.595	-200.000	0.012	0.156
-495.581	-68.306	0.431	-0.167
-494.566	-116.602	0.188	0.035
-493.551	-200.000	0.061	-0.470
-492.537	800.000	0.074	-0.212
-491.522	-200.000	-0.014	-0.106
-490.508	-141.829	-0.422	0.042
-489.493	87.471	0.175	0.194
-488.478	800.000	0.094	0.262
-487.464	-63.286	-0.188	0.077
-486.449	-200.000	0.033	-0.255
-485.435	-47.879	-0.123	-0.059
-484.420	-200.000	-0.007	0.083
-483.405	-53.085	-0.195	-0.089
-482.391	-136.014	0.226	0.026
-481.376	71.579	0.190	0.197
-480.362	-9.713	0.186	0.124
-479.347	-200.000	0.021	0.175
-478.332	-51.858	-0.184	0.085
-477.318	17.096	0.192	-0.152
-476.303	645.247	-0.097	0.248
-475.289	800.000	0.059	0.235
-474.274	-43.424	-0.132	-0.066
-473.259	399.310	0.144	0.302
-472.245	732.266	0.093	-0.248
-471.230	800.000	-0.037	0.130
-470.216	30.169	-0.089	-0.076
-469.201	39.099	-0.024	-0.022
-468.186	-71.990	-0.261	-0.097
-467.172	166.892	0.190	0.269
-466.157	32.439	-0.214	-0.184
-465.143	800.000	0.038	0.154
-464.128	191.208	0.090	-0.136
-463.113	-200.000	0.037	0.430
-462.099	-200.000	-0.050	0.330
-461.084	800.000	-0.060	0.230
-460.070	173.346	-0.101	0.145
-459.055	303.982	0.240	0.444
-458.040	-8.915	-0.067	-0.045
-457.026	800.000	0.050	-0.177
-456.011	22.287	-0.189	0.154
-454.997	21.902	-0.240	-0.195
-453.982	-103.650	0.464	-0.109
-452.968	89.065	0.061	-0.068
-451.953	10.395	0.097	-0.074
-450.938	-62.520	-0.333	-0.138
-449.924	-200.000	0.013	-0.218
-448.909	-71.545	0.172	0.064
-447.895	-200.000	-0.024	-0.266
-446.880	-105.218	-0.070	0.016
-445.865	800.000	-0.050	0.160
-444.851	-155.060	-0.308	-0.020
-443.836	80.451	0.146	-0.157
-442.822	-6.630	-0.207	0.141
-441.807	5.811	-0.222	-0.164
-440.792	-200.000	0.006	-0.233
-439.778	-93.125	0.568	0.158
-438.763	114.589	-0.123	0.150
-437.749	-61.352	-0.237	0.099
-436.734	-111.079	-0.031	-0.006
-435.719	-200.000	-0.060	-0.363
-434.705	291.315	-0.048	0.087
-433.690	498.355	0.048	-0.111
-432.676	-5.023	-0.187	0.128
-431.661	114.667	-0.149	0.180
-430.646	72.645	0.104	-0.108
-429.632	201.291	0.063	0.097
-428.617	-27.590	-0.184	0.106
-427.603	-78.647	-0.350	-0.119
-426.588	524.584	0.113	-0.264
-425.573	-200.000	0.004	-0.064
-424.559	-35.022	-0.180	0.098
-423.544	332.975	0.045	-0.086
-422.530	78.913	0.152	-0.162
-421.515	-190.348	-0.077	-0.001
-420.500	73.150	0.158	-0.164
-419.486	0.457	0.086	-0.061
-418.471	35.790	-0.206	0.180
-417.457	206.024	-0.040	0.063
-416.442	82.822	-0.070	0.076
-415.428	-2.841	0.267	0.186
-414.413	192.277	0.160	-0.240
-413.398	793.843	-0.034	0.092
-412.384	-200.000	0.015	-0.070
-411.369	-189.030	0.107	-0.001
-410.355	-59.155	-0.237	-0.102
-409.340	36.228	0.057	-0.050
-408.325	-200.000	-0.073	0.353
-407.311	-65.362	-0.144	-0.058
-406.296	11.069	0.191	-0.146
-405.282	-161.415	0.348	-0.018
-404.267	-200.000	0.052	0.269
-403.252	-200.000	-0.010	0.271
-402.238	-200.000	-0.018	0.180
-401.223	57.566	-0.098	-0.095
-400.209	-23.962	-0.253	-0.151
-399.194	-200.000	-0.004	-0.166
-398.179	110.691	0.118	0.141
-397.165	208.811	0.033	0.052
-396.150	265.650	-0.118	0.204
-395.136	167.418	0.164	0.231
-394.121	-67.618	-0.128	0.050
-393.106	42.505	0.117	0.106
-392.092	-200.000	0.002	0.156
-391.077	800.000	-0.031	-0.100
-390.063	-77.414	0.186	-0.064
-389.048	473.914	0.018	-0.041
-388.033	800.000	0.085	0.316
-387.019	-39.386	-0.150	-0.078
-386.004	-171.626	-0.365	-0.012
-384.990	-165.484	-0.252	-0.011
-383.975	-200.000	-0.047	-0.252
-382.960	-200.000	-0.016	-0.248
-381.946	101.873	0.082	0.096
-380.931	800.000	-0.067	0.195
-379.917	-200.000	-0.000	-0.042
-378.902	-125.696	0.217	-0.033
-377.888	94.829	-0.241	-0.273
-376.873	56.985	-0.202	0.195
-375.858	-163.720	0.260	-0.012
-374.844	20.529	0.169	0.136
-373.829	-138.773	-0.082	-0.009
-372.815	30.920	-0.215	0.183
-371.800	181.941	-0.175	0.255
-370.785	-200.000	-0.012	0.169
-369.771	-148.285	0.449	-0.037
-368.756	-62.161	0.208	-0.086
-367.742	-98.626	-0.157	-0.040
-366.727	21.472	-0.120	0.097
-365.712	800.000	0.050	0.203
-364.698	14.456	-0.198	0.153
-363.683	-141.846	-0.064	-0.006
-362.669	-99.908	0.125	-0.031
-361.654	-173.645	-0.351	0.010
-360.639	800.000	-0.081	0.264
-359.625	-52.734	0.390	-0.179
-358.610	800.000	0.056	0.202
-357.596	-49.324	-0.202	0.096
-356.581	115.415	-0.073	-0.088
-355.566	148.456	0.286	-0.384
-354.552	-71.731	-0.184	0.068
-353.537	-65.782	0.172	0.068
-352.523	189.385	-0.017	0.025
-351.508	-200.000	-0.025	0.198
-350.493	24.776	0.222	-0.183
-349.479	11.300	0.244	-0.185
-348.464	-200.000	-0.008	0.087
-347.450	447.709	-0.124	0.270
-346.435	230.013	0.139	0.225
-345.420	-161.257	-0.267	-0.014
-344.406	284.662	0.086	-0.154
-343.391	-200.000	0.008	0.203
-342.377	-200.000	-0.074	0.363
-341.362	231.791	-0.083	0.135
-340.348	72.930	-0.205	-0.213
-339.333	-28.628	0.186	-0.106
-338.318	-17.906	0.035	0.022
-337.304	-39.998	-0.187	-0.097
-336.289	-39.876	0.154	-0.080
-335.275	-140.611	-0.132	-0.014
-334.260	800.000	-0.062	0.176
-333.245	306.832	0.193	-0.356
-332.231	-200.000	0.002	0.240
-331.216	264.628	0.080	0.138
-330.202	158.722	0.012	0.017
-329.187	52.169	0.275	0.260
-328.172	800.000	-0.056	0.230
-327.158	181.133	0.004	0.006
-326.143	49.637	0.235	0.220
-325.129	-73.156	0.202	0.073
-324.114	800.000	0.064	0.240
-323.099	46.369	-0.229	0.210
-322.085	339.968	-0.142	0.274
-321.070	-200.000	-0.020	-0.181
-320.056	430.840	0.042	0.090
-319.041	-71.308	-0.232	-0.086
-318.026	336.227	-0.334	0.643
-317.012	49.699	0.035	-0.033
-315.997	-17.166	0.260	-0.163
-314.983	214.655	0.170	-0.268
-313.968	-116.784	-0.261	-0.047
-312.953	-31.557	0.336	-0.187
-311.939	668.516	-0.041	-0.105
-310.924	-8.083	-0.143	0.096
-309.910	800.000	0.032	-0.131
-308.895	-200.000	0.022	-0.221
-307.880	-200.000	0.014	-0.062
-306.866	65.747	0.081	-0.082
-305.851	800.000	0.079	0.218
-304.837	-200.000	-0.050	0.253
-303.822	800.000	-0.027	0.106
-302.807	-189.690	-0.167	-0.002
-301.793	-35.634	0.170	0.092
-300.778	-17.449	0.204	-0.127
-299.764	521.043	-0.053	0.122
-298.749	-80.097	0.194	0.065
-297.735	-200.000	-0.014	0.192
-296.720	-141.816	-0.160	0.016
-295.705	210.429	-0.068	-0.106
-294.691	481.127	-0.042	0.095
-293.676	-200.000	0.003	-0.068
-292.662	139.539	0.107	0.139
-291.647	-176.063	0.291	0.008
-290.632	-200.000	-0.009	-0.058
-289.618	-200.000	-0.071	-0.317
-288.603	85.426	-0.286	-0.311
-287.589	-26.477	0.204	0.118
-286.574	800.000	0.048	-0.185
-285.559	136.955	0.143	0.185
-284.545	-200.000	-0.007	-0.080
-283.530	456.599	0.080	-0.176
-282.516	-108.091	-0.151	-0.032
-281.501	21.857	0.161	-0.130
-280.486	-183.115	0.357	0.006
-279.472	-62.967	-0.212	0.087
-278.457	92.390	-0.191	-0.213
-277.443	147.606	0.135	-0.180
-276.428	350.426	0.066	-0.130
-275.413	545.137	0.025	-0.060
-274.399	-0.442	0.099	0.070
-273.384	-200.000	-0.020	-0.140
-272.370	-200.000	-0.036	-0.164
-271.355	-171.929	0.186	0.006
-270.340	15.726	-0.073	0.057
-269.326	-119.487	-0.095	0.016
-268.311	800.000	-0.111	-0.335
-267.297	-200.000	0.005	-0.210
-266.282	-149.767	0.070	-0.005
-265.267	800.000	-0.166	-0.462
-264.253	-200.000	0.060	0.396
-263.238	-56.112	0.154	0.068
-262.224	-26.060	-0.126	-0.073
-261.209	-31.153	0.435	0.242
-260.195	438.258	-0.088	-0.191
-259.180	-44.657	-0.085	-0.042
-258.165	-112.239	0.480	-0.095
-257.151	-200.000	-0.011	-0.186
-256.136	-200.000	-0.014	-0.184
-255.122	-139.983	0.193	-0.020
-254.107	40.891	0.084	-0.075
-253.092	-57.355	0.587	-0.255
-252.078	-38.447	0.183	-0.096
-251.063	-200.000	0.039	-0.217
-250.049	424.165	0.068	0.145
-249.034	-133.074	-0.294	-0.037
-248.019	507.444	0.010	0.023
-247.005	-200.000	-0.009	-0.127
-245.990	800.000	-0.024	0.068
-244.976	476.780	0.111	-0.248
-243.961	-61.519	0.115	0.048
-242.946	-99.222	0.381	-0.095
-241.932	-200.000	0.082	0.516
-240.917	-45.533	-0.223	0.109
-239.903	104.176	-0.070	-0.081
-238.888	-123.987	-0.096	-0.015
-237.873	-126.241	-0.496	0.073
-236.859	22.661	-0.214	0.173
-235.844	173.436	0.098	0.139
-234.830	311.274	0.037	-0.069
-233.815	1.797	0.244	0.173
-232.800	800.000	0.033	0.096
-231.786	121.550	0.122	0.150
-230.771	42.538	-0.130	-0.117
-229.757	-200.000	0.030	-0.151
-228.742	133.699	-0.194	-0.248
-227.727	129.175	0.154	-0.194
-226.713	-108.535	-0.241	0.051
-225.698	704.345	-0.073	-0.190
-224.684	560.996	-0.079	0.187
-223.669	-39.492	0.097	0.050
-222.655	277.199	0.048	0.084
-221.640	13.477	0.115	-0.088
-220.625	-40.595	0.174	0.089
-219.611	-47.267	-0.253	-0.122
-218.596	-20.693	-0.362	-0.220
-217.582	-71.541	0.074	-0.027
-216.567	-200.000	-0.008	-0.084
-215.552	172.680	0.123	-0.175
-214.538	-200.000	-0.012	-0.169
-213.523	153.508	-0.096	-0.130
-212.509	53.712	-0.118	-0.112
-211.494	-129.504	-0.076	-0.010
-210.479	-113.503	0.228	-0.044
-209.465	-60.551	-0.220	-0.092
-208.450	330.403	0.057	-0.108
-207.436	800.000	0.062	0.262
-206.421	-112.312	0.179	-0.035
-205.406	278.395	0.101	0.177
-204.392	95.827	0.161	-0.182
-203.377	-61.118	0.280	0.116
-202.363	-200.000	0.015	-0.259
-201.348	-200.000	-0.051	-0.287
-200.333	74.786	0.167	0.173
-199.319	800.000	-0.116	-0.333
-198.304	-3.105	-0.049	-0.034
-197.290	-81.311	0.244	0.079
-196.275	218.325	0.030	0.047
-195.260	-5.302	0.081	0.055
-194.246	264.251	-0.115	-0.198
-193.231	31.402	-0.135	-0.114
-192.217	-200.000	0.020	0.119
-191.202	-53.820	0.383	0.172
-190.187	65.043	0.221	-0.220
-189.173	186.154	-0.124	0.183
-188.158	125.271	0.064	-0.080
-187.144	800.000	0.062	-0.248
-186.129	-3.933	-0.488	-0.334
-185.114	-80.313	-0.082	-0.027
-184.100	-104.422	-0.108	-0.025
-183.085	-92.393	-0.118	-0.033
-182.071	88.363	-0.245	0.269
-181.056	-40.890	-0.168	0.086
-180.042	-200.000	-0.011	-0.130
-179.027	800.000	-0.125	-0.409
-178.012	-161.125	0.324	0.017
-176.998	466.436	-0.107	-0.237
-175.983	-105.821	-0.207	0.046
-174.969	-155.306	0.247	-0.016
-173.954	-5.134	-0.071	-0.048
-172.939	800.000	0.019	0.061
-171.925	-47.717	-0.244	0.117
-170.910	-74.911	0.229	0.081
-169.896	34.140	-0.070	-0.060
-168.881	82.847	0.339	-0.363
-167.866	469.204	0.011	-0.025
-166.852	743.264	-0.067	0.177
-165.837	-19.580	0.262	0.160
-164.823	141.193	0.037	0.049
-163.808	-141.102	0.213	0.021
-162.793	800.000	0.045	0.143
-161.779	-18.565	0.311	0.191
-160.764	75.017	-0.143	0.149
-159.750	-3.873	0.140	-0.096
-158.735	-200.000	0.033	0.218
-157.720	-47.988	-0.121	0.058
-156.706	62.659	-0.111	0.109
-155.691	-185.996	-0.109	-0.002
-154.677	64.373	0.243	-0.241
-153.662	800.000	-0.117	-0.370
-152.647	-95.363	-0.184	0.049
-151.633	20.423	0.119	0.095
-150.618	367.897	0.057	0.114
-149.604	-86.180	0.380	-0.115
-148.589	-75.700	0.152	0.053
-147.574	92.914	0.147	0.164
-146.560	450.602	-0.130	0.283
-145.545	-74.573	-0.332	-0.118
-144.531	-32.612	-0.375	0.206
-143.516	127.542	0.167	0.208
-142.502	273.632	-0.164	0.286
-141.487	581.585	0.051	-0.123
-140.472	497.937	-0.056	-0.126
-139.458	-63.755	0.179	0.072
-138.443	-71.032	0.319	-0.118
-137.429	-110.257	0.191	-0.039
-136.414	-200.000	-0.004	0.176
-135.399	-116.229	0.094	0.017
-134.385	-102.163	0.479	-0.113
-133.370	59.706	-0.375	0.364
-132.356	-133.756	0.173	0.021
-131.341	-19.904	-0.326	0.198
-130.326	-200.000	-0.024	-0.191
-129.312	72.580	-0.153	0.157
-128.297	97.247	-0.115	-0.130
-127.283	-11.033	0.164	0.107
-126.268	-200.000	0.037	0.245
-125.253	41.381	-0.088	-0.079
-124.239	141.946	-0.154	0.201
-123.224	91.362	0.052	0.057
-122.210	-88.167	0.225	0.066
-121.195	-8.316	0.246	0.163
-120.180	-134.083	-0.489	-0.059
-119.166	-137.482	0.331	0.037
-118.151	-142.967	0.165	0.016
-117.137	800.000	0.048	-0.138
-116.122	-132.788	0.210	0.026
-115.107	-23.172	0.237	0.140
-114.093	5.018	0.405	0.293
-113.078	800.000	0.103	-0.316
-112.064	41.681	-0.404	-0.360
-111.049	198.330	0.058	0.087
-110.034	19.585	0.171	0.135
-109.020	800.000	0.066	-0.198
-108.005	-60.722	0.275	-0.115
-106.991	-62.831	-0.468	-0.190
-105.976	-55.851	0.093	0.041
-104.962	-71.341	0.172	0.063
-103.947	-94.849	0.165	0.044
-102.932	-58.401	-0.130	0.056
-101.918	-56.507	-0.290	-0.126
-100.903	-69.192	-0.117	0.044
-99.889	780.459	0.040	0.108
-98.874	-176.691	0.327	0.008
-97.859	588.328	-0.043	-0.104
-96.845	-35.313	0.323	-0.172
-95.830	95.837	0.134	-0.150
-94.816	-28.506	0.188	0.107
-93.801	-117.068	-0.115	-0.021
-92.786	34.935	0.082	-0.070
-91.772	35.500	-0.169	-0.146
-90.757	-200.000	0.025	-0.126
-89.743	8.844	0.032	0.023
-88.728	112.105	-0.075	-0.089
-87.713	366.982	0.072	-0.143
-86.699	95.161	-0.205	-0.229
-85.684	-200.000	0.011	0.226
-84.670	-89.864	0.319	0.092
-83.655	188.139	-0.097	0.143
-82.640	160.681	0.152	0.208
-81.626	175.273	-0.211	-0.301
-80.611	-49.812	-0.151	-0.070
-79.597	-200.000	0.010	-0.107
-78.582	-200.000	-0.010	-0.104
-77.567	-120.047	0.268	-0.045
-76.553	-122.750	0.217	-0.035
-75.538	246.823	-0.039	0.065
-74.524	60.673	0.097	0.094
-73.509	800.000	-0.066	-0.255
-72.494	-46.290	0.238	0.115
-71.480	279.253	0.025	-0.044
-70.465	-41.711	0.124	0.063
-69.451	800.000	0.050	0.176
-68.436	-73.319	0.173	0.062
-67.422	800.000	-0.134	0.408
-66.407	248.681	-0.208	0.346
-65.392	-200.000	0.007	-0.116
-64.378	190.713	-0.083	-0.122
-63.363	620.752	-0.047	0.117
-62.349	-26.247	0.168	0.097
-61.334	68.241	-0.919	-0.924
-60.319	22.088	0.526	0.421
-59.305	-200.000	0.075	-0.959
-58.290	196.077	0.745	1.112
-57.276	800.000	0.622	1.751
-56.261	-200.000	110.017	613.145
-55.246	510.778	1506.858	3440.191
-54.232	177.737	2686.956	3843.259
-53.217	111.046	2151.788	2542.459
-52.203	40.510	1599.696	1413.622
-51.188	32.716	1340.826	1138.004
-50.173	29.575	1300.682	1085.463
-49.159	53.578	1356.714	1277.065
-48.144	53.745	1371.518	1291.952
-47.130	32.582	1326.113	1124.541
-46.115	29.283	1307.852	1089.549
-45.100	29.093	1302.781	1084.163
-44.086	29.033	1300.377	1081.761
-43.071	28.995	1297.823	1079.376
-42.057	28.892	1296.217	1077.394
-41.042	29.038	1294.209	1076.533
-40.027	29.048	1292.346	1074.998
-39.013	28.961	1290.994	1073.325
-37.998	29.031	1289.371	1072.339
-36.984	29.071	1287.564	1071.027
-35.969	29.145	1285.218	1069.466
-34.954	29.240	1283.765	1068.766
-33.940	29.034	1283.212	1067.069
-32.925	29.186	1282.051	1066.942
-31.911	29.262	1279.706	1065.385
-30.896	29.268	1278.463	1064.344
-29.881	29.232	1277.167	1063.012
-28.867	29.244	1275.459	1061.620
-27.852	29.313	1273.595	1060.422
-26.838	29.291	1272.605	1059.429
-25.823	29.328	1271.076	1058.328
-24.809	29.189	1270.333	1056.867
-23.794	29.101	1268.872	1055.109
-22.779	29.243	1267.719	1054.920
-21.765	29.206	1266.816	1053.914
-20.750	29.158	1265.079	1052.154
-19.736	29.107	1264.303	1051.176
-18.721	29.145	1263.185	1050.420
-17.706	29.233	1261.501	1049.480
-16.692	29.151	1260.417	1048.068
-15.677	29.022	1259.371	1046.427
-14.663	29.141	1258.023	1045.942
-13.648	29.067	1257.477	1045.021
-12.633	29.125	1256.251	1044.290
-11.619	29.109	1255.492	1043.529
-10.604	29.083	1254.743	1042.716
-9.590	29.025	1253.994	1041.725
-8.575	29.065	1252.680	1040.820
-7.560	29.075	1251.899	1040.188
-6.546	29.081	1251.163	1039.564
-5.531	29.083	1249.799	1038.403
-4.517	29.042	1249.745	1038.086
-3.502	29.071	1248.307	1037.012
-2.487	29.156	1247.433	1036.725
-1.473	29.099	1242.971	1032.653
-0.458	27.471	1227.957	1011.110
0.556	25.282	1210.452	972.220
1.571	21.380	1215.882	955.221
2.586	20.509	1229.663	961.147
3.600	20.026	1218.716	949.855
4.615	15.415	1147.555	870.451
5.629	7.565	1074.729	776.870
6.644	4.147	1055.270	746.298
7.659	3.733	1052.751	742.460
8.673	3.597	1051.347	740.752
9.688	3.474	1050.541	739.528
10.702	3.933	1048.827	740.452
11.717	9.088	1055.546	769.905
12.731	17.437	1067.716	819.060
13.746	22.408	1073.671	847.555
14.761	23.178	1074.504	851.843
15.775	22.545	1072.891	847.447
16.790	21.707	1071.590	842.315
17.804	21.282	1069.391	838.474
18.819	21.059	1069.100	837.104
19.834	21.127	1068.789	837.110
20.848	21.243	1068.158	837.097
21.863	21.124	1067.380	835.843
22.877	20.976	1066.378	834.276
23.892	20.624	1066.209	832.384
24.907	20.604	1065.145	831.388
25.921	20.817	1063.839	831.310
26.936	20.601	1062.271	828.984
27.950	20.643	1061.119	828.208
28.965	20.744	1059.958	827.713
29.980	20.934	1058.469	827.378
30.994	21.038	1057.391	826.954
32.009	21.023	1056.692	826.261
33.023	21.042	1055.594	825.424
34.038	20.945	1054.866	824.322
35.053	20.777	1053.754	822.586
36.067	20.826	1052.870	822.053
37.082	20.772	1051.903	820.972
38.096	20.814	1051.687	820.930
39.111	20.971	1051.304	821.298
40.126	20.794	1049.323	818.845
41.140	20.310	1047.786	815.298
42.155	20.296	1046.138	813.881
43.169	20.195	1045.414	812.771
44.184	20.134	1044.640	811.811
45.199	20.057	1044.381	811.179
46.213	20.456	1042.893	811.816
47.228	20.769	1042.332	812.767
48.242	20.974	1041.614	813.091
49.257	20.815	1040.758	811.611
50.271	20.947	1040.280	811.782
51.286	20.911	1039.920	811.263
52.301	20.898	1038.490	810.011
53.315	20.800	1037.912	809.033
54.330	20.531	1036.651	806.731
55.344	20.618	1035.383	806.079
56.359	20.442	1034.739	804.688
57.374	20.323	1033.884	803.401
58.388	20.264	1032.539	802.014
59.403	20.154	1032.439	801.357
60.417	20.233	1031.165	800.662
61.432	20.147	1030.786	799.900
62.447	20.111	1029.696	798.818
63.461	20.021	1028.971	797.768
64.476	19.963	1028.216	796.846
65.490	19.763	1027.197	795.066
66.505	19.903	1026.673	795.235
67.520	20.015	1026.301	795.391
68.534	20.010	1025.023	794.307
69.549	19.824	1024.961	793.336
70.563	19.797	1023.600	792.086
71.578	19.505	1022.863	790.109
72.593	19.369	1021.881	788.660
73.607	19.367	1021.632	788.388
74.622	19.542	1020.686	788.390
75.636	19.558	1020.069	787.918
76.651	19.748	1019.215	788.051
77.666	19.709	1018.929	787.584
78.680	19.740	1017.838	786.811
79.695	19.810	1017.759	787.002
80.709	20.068	1017.169	787.646
81.724	20.225	1016.360	787.664
82.739	20.203	1015.851	787.098
83.753	20.849	1015.146	789.412
84.768	21.166	1014.872	790.565
85.782	21.444	1014.300	791.308
86.797	21.416	1013.276	790.311
87.812	20.973	1012.375	787.539
88.826	20.972	1011.823	787.034
89.841	21.160	1010.956	787.140
90.855	21.101	1010.093	786.131
91.870	21.263	1009.245	786.131
92.884	21.265	1007.916	785.034
93.899	21.168	1007.153	783.938
94.914	21.294	1006.099	783.613
95.928	21.027	1005.507	781.885
96.943	20.979	1004.431	780.764
97.957	20.884	1003.717	779.717
98.972	21.085	1002.919	779.925
99.987	21.238	1001.809	779.675
101.001	20.892	1001.264	777.640
102.016	20.889	1000.569	777.017
103.030	21.044	999.724	776.984
104.045	21.033	998.898	776.222
105.060	20.815	997.846	774.367
106.074	20.418	997.174	772.013
107.089	20.371	995.149	770.169
108.103	20.186	994.519	768.791
109.118	19.983	993.627	767.134
110.133	19.837	991.968	765.141
111.147	19.860	991.029	764.451
112.162	19.796	990.853	763.966
113.176	20.216	989.889	765.006
114.191	20.274	989.277	764.724
115.206	20.311	988.492	764.211
116.220	20.069	987.965	762.669
117.235	20.015	986.830	761.487
118.249	19.865	986.218	760.291
119.264	19.866	985.031	759.315
120.279	19.846	984.481	758.733
121.293	19.798	983.387	757.613
122.308	19.622	982.387	756.005
123.322	19.705	981.148	755.349
124.337	19.472	980.416	753.698
125.352	19.494	979.631	753.126
126.366	19.517	978.450	752.251
127.381	19.706	977.718	752.447
128.395	19.786	977.184	752.317
129.410	19.805	976.036	751.450
130.424	19.969	975.475	751.660
131.439	20.284	974.697	752.363
132.454	20.045	974.520	751.122
133.468	20.214	973.364	750.895
134.483	20.089	972.584	749.688
135.497	20.200	971.641	749.373
136.512	20.143	971.247	748.757
137.527	20.276	970.213	748.467
138.541	20.097	970.112	747.551
139.556	20.271	969.346	747.645
140.570	20.605	968.721	748.537
141.585	20.880	967.497	748.705
142.600	20.981	966.689	748.447
143.614	20.999	966.667	748.441
144.629	21.227	965.712	748.611
145.643	21.099	964.326	746.925
146.658	20.817	962.602	744.315
147.673	20.433	961.930	742.091
148.687	20.349	960.740	740.751
149.702	20.285	959.572	739.510
150.716	20.202	958.989	738.644
151.731	20.236	958.449	738.308
152.746	20.376	957.529	738.127
153.760	20.614	956.657	738.399
154.775	20.584	956.630	738.187
155.789	20.678	955.985	738.024
156.804	20.481	955.309	736.601
157.819	20.790	954.606	737.302
158.833	20.950	954.308	737.684
159.848	21.142	953.404	737.733
160.862	20.940	951.862	735.620
161.877	20.405	950.687	732.393
162.892	20.073	949.737	730.196
163.906	20.159	948.333	729.412
164.921	20.242	947.509	729.063
165.935	20.228	946.773	728.375
166.950	20.365	946.048	728.328
167.964	20.431	945.174	727.865
168.979	20.285	944.011	726.298
169.994	20.399	942.960	725.900
171.008	20.377	942.995	725.771
172.023	20.848	941.992	726.901
173.037	20.919	941.963	727.111
174.052	20.663	940.307	724.700
175.067	20.209	939.718	722.294
176.081	20.087	938.875	721.074
177.096	20.072	938.372	720.561
178.110	20.205	937.538	720.410
179.125	20.250	936.985	720.105
180.140	20.400	937.090	720.747
181.154	20.579	936.723	721.145
182.169	20.779	936.293	721.577
183.183	20.697	935.960	720.918
184.198	20.767	935.154	720.521
185.213	20.705	934.866	719.978
186.227	20.794	933.769	719.438
187.242	20.910	933.515	719.661
188.256	21.076	932.901	719.806
189.271	20.995	932.428	719.045
190.286	20.831	930.549	716.855
191.300	20.057	929.804	713.036
192.315	19.947	929.145	712.015
193.329	19.979	928.575	711.647
194.344	20.172	928.029	711.956
195.359	20.351	927.820	712.468
196.373	20.531	926.978	712.495
197.388	20.749	927.094	713.418
198.402	21.237	926.630	714.995
199.417	21.272	926.390	714.889
200.432	21.450	925.563	714.914
201.446	21.475	925.709	715.068
202.461	21.532	924.849	714.574
203.475	21.406	923.886	713.251
204.490	20.902	922.858	710.342
205.504	20.808	921.802	709.084
206.519	20.872	920.875	708.567
207.534	20.761	920.505	707.768
208.548	20.813	919.814	707.386
209.563	20.822	919.453	707.080
210.577	20.935	918.670	706.876
211.592	21.203	918.267	707.591
212.607	21.429	917.685	707.994
213.621	21.177	916.993	706.377
214.636	21.032	916.538	705.377
215.650	21.154	915.790	705.231
216.665	21.319	914.720	705.011
217.680	21.486	914.055	705.109
218.694	21.497	913.685	704.804
219.709	21.361	912.974	703.650
220.723	21.353	912.288	703.027
221.738	21.144	911.330	701.384
222.753	21.064	910.922	700.687
223.767	21.293	910.319	701.081
224.782	21.426	910.295	701.535
225.796	21.474	909.702	701.206
226.811	21.518	908.541	700.427
227.826	21.146	907.647	698.189
228.840	21.035	906.715	696.966
229.855	21.139	906.104	696.849
230.869	20.812	905.870	695.303
231.884	20.869	905.035	694.828
232.899	20.838	904.077	693.908
233.913	20.575	903.667	692.481
234.928	20.570	902.868	691.789
235.942	20.511	902.532	691.237
236.957	20.499	901.451	690.298
237.972	20.435	900.968	689.616
238.986	20.600	900.376	689.754
240.001	20.544	899.958	689.153
241.015	20.706	898.779	688.830
242.030	20.752	899.046	689.156
243.045	21.014	898.238	689.509
244.059	20.963	897.738	688.864
245.074	21.023	897.445	688.815
246.088	21.037	897.117	688.560
247.103	21.319	896.457	689.102
248.117	21.603	896.137	689.916
249.132	21.996	896.237	691.478
250.147	22.223	896.183	692.272
251.161	22.435	895.123	692.226
252.176	22.298	894.998	691.528
253.190	22.507	894.107	691.600
254.205	22.480	893.420	690.899
255.220	22.268	892.864	689.579
256.234	22.232	892.452	689.058
257.249	22.249	891.193	688.090
258.263	22.148	890.544	687.132
259.278	22.113	889.575	686.188
260.293	22.177	889.466	686.294
261.307	22.398	889.059	686.781
262.322	22.222	888.728	685.779
263.336	22.291	887.913	685.359
264.351	22.108	887.115	683.971
265.366	22.273	886.396	683.996
266.380	22.254	885.950	683.517
267.395	22.271	884.581	682.466
268.409	22.109	883.967	681.304
269.424	22.157	883.240	680.871
270.439	21.966	882.673	679.634
271.453	21.960	881.500	678.646
272.468	21.834	881.521	678.114
273.482	21.852	880.861	677.617
274.497	21.792	880.264	676.868
275.512	21.868	879.564	676.563
276.526	21.797	879.351	676.063
277.541	22.039	878.864	676.562
278.555	22.249	878.636	677.135
279.570	22.481	877.899	677.401
280.585	22.281	877.200	676.034
281.599	22.130	876.277	674.680
282.614	21.750	875.523	672.583
283.628	21.925	874.439	672.360
284.643	21.903	874.310	672.120
285.657	21.992	873.254	671.586
286.672	22.004	872.855	671.268
287.687	22.019	872.395	670.910
288.701	22.124	871.551	670.603
289.716	22.056	870.940	669.814
290.730	22.015	870.426	669.204
291.745	22.111	870.197	669.333
292.760	22.292	870.074	669.870
293.774	22.481	869.594	670.159
294.789	22.271	868.706	668.620
295.803	22.137	867.555	667.166
296.818	22.024	866.761	666.067
297.833	22.001	865.871	665.238
298.847	22.047	866.025	665.470
299.862	22.094	865.438	665.137
300.876	22.438	864.673	665.792
301.891	22.511	864.543	665.908
302.906	22.595	864.613	666.224
303.920	22.929	863.971	666.930
304.935	23.054	863.392	666.894
305.949	22.764	862.251	664.862
306.964	22.580	861.589	663.599
307.979	22.425	861.408	662.818
308.993	22.600	860.756	662.915
310.008	22.666	860.025	662.544
311.022	22.517	859.557	661.564
312.037	22.283	858.644	659.926
313.052	21.970	858.378	658.489
314.066	21.790	857.344	656.962
315.081	21.994	856.554	657.061
316.095	22.002	855.626	656.322
317.110	21.812	855.724	655.630
318.125	21.867	854.727	655.012
319.139	21.722	854.404	654.166
320.154	21.822	854.008	654.176
321.168	21.839	853.497	653.793
322.183	21.913	852.937	653.580
323.197	21.896	852.431	653.073
324.212	22.133	851.546	653.218
325.227	22.017	851.181	652.448
326.241	21.973	850.410	651.637
327.256	21.934	849.914	651.056
328.270	21.854	849.318	650.244
329.285	21.730	849.143	649.592
330.300	21.718	848.385	648.910
331.314	21.856	848.207	649.229
332.329	22.190	847.612	649.951
333.343	22.355	847.232	650.209
334.358	22.387	846.888	650.009
335.373	22.424	846.531	649.814
336.387	22.359	846.405	649.420
337.402	22.495	846.039	649.582
338.416	22.784	846.255	650.755
339.431	22.931	846.028	651.065
340.446	23.048	845.639	651.140
341.460	23.189	844.612	650.810
342.475	23.178	844.555	650.669
343.489	23.160	844.408	650.431
344.504	23.462	843.871	651.069
345.519	23.356	843.519	650.352
346.533	23.304	842.621	649.409
347.548	22.895	841.872	647.277
348.562	22.691	840.936	645.751
349.577	22.526	840.319	644.620
350.592	22.487	839.427	643.735
351.606	22.451	838.645	642.947
352.621	22.348	837.946	641.979
353.635	22.423	837.566	641.902
354.650	22.579	837.154	642.099
355.665	22.653	836.549	641.848
356.679	22.890	835.858	642.121
357.694	22.738	835.148	640.968
358.708	22.662	834.946	640.479
359.723	22.568	834.132	639.459
360.738	22.601	833.412	638.968
361.752	22.762	833.377	639.470
362.767	23.173	832.518	640.242
363.781	23.147	832.701	640.231
364.796	23.552	831.801	640.944
365.810	23.516	831.717	640.693
366.825	23.537	831.789	640.770
367.840	23.412	831.025	639.673
368.854	23.179	829.932	637.936
369.869	23.246	829.255	637.600
370.883	23.157	829.394	637.330
371.898	23.388	829.062	637.849
372.913	23.591	828.230	637.881
373.927	23.073	828.314	636.028
374.942	23.227	827.708	636.058
375.956	23.361	827.627	636.422
376.971	23.479	827.076	636.366
377.986	23.733	826.508	636.784
379.000	23.722	825.571	635.967
380.015	23.646	825.353	635.469
381.029	23.623	824.336	634.550
382.044	23.723	823.847	634.474
383.059	23.746	823.513	634.243
384.073	23.449	822.799	632.577
385.088	23.225	821.871	631.007
386.102	22.964	821.428	629.684
387.117	22.851	820.457	628.479
388.132	22.866	820.048	628.165
389.146	23.096	819.434	628.457
390.161	23.419	819.218	629.381
391.175	23.578	818.879	629.630
392.190	23.188	818.390	627.817
393.205	23.023	817.253	626.302
394.219	23.021	816.964	626.020
395.234	22.861	816.490	625.034
396.248	22.862	815.868	624.506
397.263	22.779	815.352	623.764
398.278	22.567	815.571	623.125
399.292	22.783	814.313	622.871
400.307	22.579	814.105	621.939
401.321	22.822	813.587	622.343
402.336	22.982	813.403	622.710
403.350	23.199	813.148	623.226
404.365	23.394	813.074	623.800
405.380	23.612	812.758	624.270
406.394	23.682	812.387	624.175
407.409	23.782	812.118	624.264
408.423	23.992	811.649	624.587
409.438	24.048	811.239	624.411
410.453	24.089	810.798	624.159
411.467	24.093	810.200	623.661
412.482	24.166	810.130	623.806
413.496	24.200	809.986	623.759
414.511	24.006	809.352	622.537
415.526	24.103	808.515	622.176
416.540	23.932	807.639	620.851
417.555	23.917	807.241	620.439
418.569	24.025	807.129	620.673
419.584	24.016	806.403	620.028
420.599	23.973	806.033	619.538
421.613	163.307	1372.035	1797.168
422.628	142.036	1454.527	1797.258
