DTS Sentinel unit serial number:	SN413079Multiplexer serial number:	ORYXHardware model number:	OX4-SRSoftware version number:	ORYX F/W v4.00 Oryx Data Collector v3.7.2.0data status	okinstallation	princeton_trtdifferential loss correction	single-endedforward channel	channel 1reverse channel	N/Adate	2019/09/19time	02:14:35forward acquisition time	60.00reverse acquisition time	0.00gamma	496.2192k internal	0.2344k external	0.2344temperature offset calibration	1.0018default loss term (dB/km)	0.3790temperature slope calibration	1.0000multiplexer offset coefficient	1.0000multiplexer slope coefficient	1.0000fibre end	0.00T internal ref (°C)	21.12T ext. ref 1 (°C)	0.68T ext. ref 2 (°C)	14.65length (m)	temperature (°C)	Stokes	anti-Stokes-747.200	800.000	0.052	0.187
-746.185	-200.000	0.030	0.174
-745.171	-62.257	0.072	-0.030
-744.156	-21.120	-0.095	0.058
-743.142	-91.834	-0.233	-0.066
-742.127	-18.413	-0.205	0.128
-741.112	156.649	0.168	-0.232
-740.098	83.419	-0.271	0.295
-739.083	351.863	-0.172	-0.340
-738.069	664.244	-0.078	0.201
-737.054	-116.090	-0.486	-0.090
-736.039	-38.928	-0.169	-0.089
-735.025	-200.000	0.002	-0.022
-734.010	-36.554	-0.180	-0.097
-732.996	-139.288	-0.401	0.043
-731.981	162.521	-0.052	0.073
-730.966	-21.431	-0.274	-0.167
-729.952	-200.000	-0.038	0.269
-728.937	-107.464	-0.209	0.046
-727.923	-145.563	-0.116	0.010
-726.908	-99.617	-0.178	-0.045
-725.894	-200.000	0.002	0.090
-724.879	-83.092	-0.248	0.080
-723.864	-200.000	-0.037	-0.188
-722.850	-200.000	-0.092	-0.481
-721.835	349.046	-0.054	0.107
-720.821	271.171	0.088	0.156
-719.806	-38.460	0.078	-0.041
-718.791	252.823	0.101	-0.173
-717.777	-200.000	-0.032	0.282
-716.762	6.496	-0.234	0.174
-715.748	-53.868	-0.185	0.084
-714.733	203.090	0.143	0.221
-713.718	-200.000	0.001	-0.284
-712.704	299.692	-0.032	-0.058
-711.689	-59.144	-0.172	-0.074
-710.675	-162.401	-0.169	-0.008
-709.660	-200.000	0.010	-0.159
-708.645	-158.029	-0.365	-0.021
-707.631	295.349	0.150	0.274
-706.616	196.577	-0.088	-0.134
-705.602	-50.322	-0.229	-0.108
-704.587	-108.865	0.197	0.042
-703.572	-117.071	0.274	-0.050
-702.558	-139.535	-0.257	-0.027
-701.543	40.255	0.117	-0.105
-700.529	-200.000	0.008	-0.095
-699.514	96.199	0.218	0.248
-698.499	-45.090	0.170	0.085
-697.485	-18.616	0.094	0.059
-696.470	-40.909	-0.466	-0.241
-695.456	-200.000	-0.026	-0.164
-694.441	393.624	0.110	-0.229
-693.426	-7.653	0.084	-0.057
-692.412	35.944	-0.371	0.326
-691.397	143.158	0.063	-0.084
-690.383	97.307	-0.143	0.164
-689.368	-4.728	0.178	-0.123
-688.354	-30.641	0.271	-0.153
-687.339	-97.025	0.277	0.072
-686.324	-11.636	-0.077	-0.051
-685.310	-49.094	0.258	0.123
-684.295	111.652	-0.170	0.205
-683.281	51.267	0.076	0.072
-682.266	-92.215	0.266	-0.075
-681.251	-23.917	-0.306	0.183
-680.237	-163.189	-0.079	0.004
-679.222	-101.083	0.209	0.051
-678.208	-108.155	0.147	0.032
-677.193	-200.000	0.040	0.220
-676.178	-55.961	-0.363	-0.162
-675.164	212.924	0.091	-0.144
-674.149	-48.683	-0.278	-0.133
-673.135	-76.070	0.438	0.154
-672.120	-1.963	0.146	-0.102
-671.105	-200.000	0.008	0.213
-670.091	-200.000	-0.040	-0.197
-669.076	-86.662	0.312	-0.095
-668.062	-160.179	-0.271	-0.015
-667.047	-57.974	0.079	0.034
-666.032	-122.612	0.201	-0.033
-665.018	800.000	0.019	-0.070
-664.003	174.017	-0.169	0.243
-662.989	511.053	-0.079	0.183
-661.974	-200.000	0.009	-0.226
-660.959	-200.000	0.044	0.254
-659.945	210.647	0.084	0.132
-658.930	142.585	0.199	-0.264
-657.916	-86.471	-0.126	0.039
-656.901	-138.979	-0.170	0.018
-655.886	-200.000	-0.037	-0.360
-654.872	-200.000	0.009	0.200
-653.857	-110.946	0.347	0.071
-652.843	326.971	0.163	0.312
-651.828	61.699	-0.093	-0.093
-650.814	-82.164	0.186	-0.060
-649.799	-57.217	-0.386	0.169
-648.784	-200.000	-0.022	0.207
-647.770	-104.104	-0.249	-0.058
-646.755	-130.547	-0.270	-0.036
-645.741	343.083	-0.143	-0.280
-644.726	800.000	0.066	0.202
-643.711	-200.000	0.009	-0.273
-642.697	-34.261	-0.338	0.185
-641.682	623.875	0.083	0.210
-640.668	-105.550	0.047	0.011
-639.653	137.953	0.019	0.024
-638.638	-200.000	0.017	0.141
-637.624	338.336	0.117	0.227
-636.609	193.362	0.119	-0.180
-635.595	-200.000	-0.013	0.066
-634.580	-34.211	0.128	-0.070
-633.565	-0.186	-0.296	0.210
-632.551	800.000	0.113	-0.382
-631.536	-91.792	0.326	-0.092
-630.522	0.892	0.116	-0.083
-629.507	-112.534	0.308	0.061
-628.492	1.245	-0.191	-0.137
-627.478	-122.937	0.457	0.073
-626.463	162.801	0.058	-0.081
-625.449	153.988	0.146	-0.199
-624.434	-154.125	-0.183	0.012
-623.419	800.000	0.121	-0.332
-622.405	-96.857	-0.072	-0.019
-621.390	-200.000	0.010	0.052
-620.376	-200.000	0.045	-0.302
-619.361	-86.759	0.258	-0.079
-618.346	-96.442	-0.188	0.049
-617.332	-200.000	-0.027	-0.117
-616.317	-93.730	-0.155	0.043
-615.303	800.000	-0.065	0.282
-614.288	12.446	0.105	0.081
-613.273	595.308	-0.103	0.254
-612.259	543.853	0.054	-0.128
-611.244	-65.629	0.321	0.128
-610.230	-200.000	0.009	-0.148
-609.215	-32.760	0.059	-0.032
-608.201	37.502	-0.173	0.153
-607.186	-200.000	-0.000	0.199
-606.171	124.506	0.111	0.139
-605.157	-66.160	0.171	0.068
-604.142	257.406	0.128	-0.219
-603.128	-79.911	0.255	-0.085
-602.113	-200.000	0.023	-0.178
-601.098	9.488	-0.222	0.167
-600.084	-200.000	-0.032	-0.164
-599.069	297.173	0.070	-0.129
-598.055	294.786	0.194	-0.353
-597.040	-114.259	-0.189	0.036
-596.025	-71.109	0.228	-0.085
-595.011	800.000	0.039	0.150
-593.996	96.590	-0.288	0.328
-592.982	40.189	0.005	0.004
-591.967	86.446	-0.159	0.175
-590.952	512.192	0.196	-0.454
-589.938	-58.442	-0.190	0.082
-588.923	60.300	0.209	-0.206
-587.909	138.167	-0.153	-0.200
-586.894	349.907	0.117	0.231
-585.879	-64.973	-0.280	-0.113
-584.865	79.903	-0.275	0.293
-583.850	-200.000	-0.053	0.359
-582.836	-200.000	-0.052	0.237
-581.821	800.000	0.069	0.252
-580.806	392.035	0.033	-0.069
-579.792	-134.561	-0.231	0.028
-578.777	6.299	-0.215	0.159
-577.763	115.913	-0.083	0.101
-576.748	400.021	0.145	0.302
-575.733	-200.000	0.047	0.242
-574.719	-147.800	-0.174	0.014
-573.704	800.000	0.034	0.129
-572.690	-161.532	-0.191	-0.010
-571.675	-62.683	-0.067	0.028
-570.661	-49.167	-0.192	-0.091
-569.646	3.457	0.209	0.152
-568.631	-200.000	0.002	-0.148
-567.617	277.026	0.063	-0.111
-566.602	-29.653	0.242	-0.138
-565.588	28.809	-0.152	-0.128
-564.573	794.169	-0.052	0.141
-563.558	-30.996	0.259	-0.146
-562.544	-48.005	-0.187	-0.090
-561.529	-62.867	-0.248	0.102
-560.515	120.086	0.208	-0.256
-559.500	-51.854	-0.099	0.046
-558.485	-200.000	-0.016	0.133
-557.471	-200.000	-0.019	-0.165
-556.456	-116.763	-0.111	0.020
-555.442	-200.000	0.068	0.312
-554.427	-131.408	-0.026	-0.003
-553.412	-129.817	-0.053	0.007
-552.398	303.193	0.055	0.101
-551.383	44.375	-0.148	-0.135
-550.369	-200.000	-0.048	-0.220
-549.354	388.717	0.052	-0.106
-548.339	104.596	-0.079	-0.092
-547.325	507.480	-0.103	-0.237
-546.310	68.287	0.143	-0.146
-545.296	-21.511	-0.269	0.163
-544.281	-200.000	0.000	-0.242
-543.266	-115.966	0.270	-0.050
-542.252	-44.364	0.057	0.028
-541.237	-22.817	0.260	0.156
-540.223	217.188	0.166	-0.262
-539.208	800.000	-0.055	0.173
-538.193	167.912	0.148	-0.209
-537.179	-150.163	-0.287	-0.022
-536.164	-37.251	0.359	0.191
-535.150	-139.228	0.368	-0.039
-534.135	32.391	0.191	-0.163
-533.121	368.783	-0.217	0.436
-532.106	-115.655	-0.300	-0.056
-531.091	800.000	0.021	-0.087
-530.077	-106.782	-0.145	-0.032
-529.062	24.586	0.219	0.180
-528.048	-106.244	0.416	0.093
-527.033	-9.734	-0.249	0.165
-526.018	-30.155	-0.019	-0.010
-525.004	-122.385	0.262	-0.042
-523.989	-83.148	0.165	-0.053
-522.975	73.195	-0.236	0.245
-521.960	-100.550	-0.099	0.024
-520.945	-10.628	0.257	0.169
-519.931	800.000	0.075	0.279
-518.916	-117.691	-0.220	0.039
-517.902	-176.513	0.404	-0.010
-516.887	540.402	-0.061	-0.145
-515.872	38.299	-0.239	0.211
-514.858	-6.648	0.132	0.089
-513.843	800.000	-0.114	-0.312
-512.829	651.861	0.058	-0.148
-511.814	142.194	-0.121	-0.159
-510.799	22.950	0.152	-0.124
-509.785	87.714	-0.092	0.101
-508.770	-57.516	0.365	0.159
-507.756	622.359	0.109	-0.272
-506.741	77.330	0.091	-0.095
-505.726	-58.198	-0.158	-0.068
-504.712	-50.669	-0.048	-0.023
-503.697	-63.776	0.244	0.099
-502.683	-200.000	-0.008	-0.057
-501.668	156.811	-0.168	0.229
-500.653	-5.830	-0.219	0.149
-499.639	-200.000	0.006	-0.045
-498.624	-200.000	-0.026	0.203
-497.610	138.459	0.094	0.122
-496.595	-48.416	0.218	0.104
-495.581	-105.038	-0.138	0.031
-494.566	-159.924	0.200	0.011
-493.551	-90.423	0.271	-0.078
-492.537	-200.000	0.011	0.308
-491.522	-26.562	-0.144	0.083
-490.508	-67.632	-0.350	0.136
-489.493	-8.923	-0.143	0.095
-488.478	-200.000	-0.025	-0.157
-487.464	-40.105	0.270	-0.140
-486.449	-47.082	-0.176	0.085
-485.435	-200.000	0.020	-0.175
-484.420	-116.730	-0.367	-0.067
-483.405	-85.384	0.192	0.059
-482.391	-148.934	-0.292	0.023
-481.376	92.087	0.258	-0.288
-480.362	323.869	-0.100	-0.189
-479.347	800.000	-0.053	0.206
-478.332	-110.371	0.172	-0.035
-477.318	1.331	-0.169	0.120
-476.303	-35.469	-0.242	-0.130
-475.289	-130.164	-0.033	0.005
-474.274	-120.903	-0.195	-0.033
-473.259	800.000	0.093	-0.361
-472.245	-107.328	0.227	-0.049
-471.230	-55.217	0.280	-0.125
-470.216	194.023	-0.141	-0.212
-469.201	209.844	0.078	-0.121
-468.186	108.745	0.312	0.369
-467.172	67.442	0.050	0.050
-466.157	51.505	0.187	-0.176
-465.143	272.596	0.092	-0.161
-464.128	-181.816	-0.039	-0.001
-463.113	-52.754	-0.194	-0.089
-462.099	-131.347	0.058	-0.008
-461.084	-200.000	0.037	-0.188
-460.070	-156.529	0.085	0.005
-459.055	-15.723	0.388	0.245
-458.040	-76.062	-0.198	-0.069
-457.026	-181.025	-0.259	-0.005
-456.011	-58.608	-0.375	-0.161
-454.997	-200.000	0.070	-0.405
-453.982	78.060	0.164	-0.173
-452.968	82.991	0.194	0.208
-451.953	-200.000	-0.056	0.269
-450.938	-37.811	-0.335	-0.176
-449.924	-67.516	0.105	0.041
-448.909	-1.621	0.270	0.189
-447.895	270.761	-0.068	-0.118
-446.880	-168.968	-0.178	0.007
-445.865	-59.696	-0.214	-0.091
-444.851	-16.535	-0.260	-0.163
-443.836	-84.811	0.131	0.041
-442.822	-200.000	0.035	-0.492
-441.807	-200.000	-0.002	-0.043
-440.792	391.594	-0.082	0.169
-439.778	-4.719	-0.104	-0.071
-438.763	-102.750	0.094	-0.022
-437.749	-158.152	0.441	-0.026
-436.734	-200.000	0.007	-0.160
-435.719	32.268	0.270	0.230
-434.705	44.015	0.210	0.190
-433.690	27.329	0.246	-0.205
-432.676	60.806	-0.103	-0.101
-431.661	44.952	-0.049	-0.044
-430.646	183.121	-0.106	-0.155
-429.632	-63.245	-0.383	-0.156
-428.617	-200.000	-0.049	-0.305
-427.603	129.438	0.251	-0.317
-426.588	-47.665	-0.398	0.191
-425.573	-124.944	0.305	-0.046
-424.559	180.149	-0.178	-0.257
-423.544	95.174	-0.144	0.162
-422.530	103.849	0.030	0.035
-421.515	-50.113	0.139	-0.065
-420.500	202.845	-0.041	-0.063
-419.486	-163.112	0.252	-0.012
-418.471	399.488	0.100	0.208
-417.457	-73.228	-0.328	0.119
-416.442	-200.000	-0.005	-0.088
-415.428	-25.516	-0.083	0.049
-414.413	-77.598	-0.076	-0.026
-413.398	99.471	-0.278	-0.318
-412.384	133.019	-0.138	-0.175
-411.369	9.837	0.193	-0.145
-410.355	147.113	0.263	-0.350
-409.340	-158.925	-0.206	0.012
-408.325	8.904	-0.268	-0.200
-407.311	600.569	0.075	0.185
-406.296	137.055	0.069	0.089
-405.282	-125.026	-0.163	0.025
-404.267	742.916	0.079	-0.211
-403.252	-200.000	-0.061	0.268
-402.238	-90.508	-0.189	-0.054
-401.223	-200.000	-0.045	0.218
-400.209	109.844	-0.148	-0.175
-399.194	11.623	-0.194	0.147
-398.179	-200.000	-0.070	-0.550
-397.165	-143.432	-0.276	0.026
-396.150	-96.443	0.182	-0.047
-395.136	-29.243	-0.222	-0.126
-394.121	800.000	-0.074	-0.232
-393.106	-40.133	0.138	0.071
-392.092	-64.212	-0.173	0.070
-391.077	198.221	0.190	0.287
-390.063	-200.000	0.026	-0.236
-389.048	-42.386	-0.421	-0.212
-388.033	-200.000	-0.031	-0.212
-387.019	800.000	-0.064	-0.273
-386.004	217.675	-0.053	0.083
-384.990	-84.547	-0.456	-0.142
-383.975	517.854	-0.052	-0.119
-382.960	-12.999	0.170	0.109
-381.946	800.000	-0.081	0.322
-380.931	53.658	0.095	-0.090
-379.917	-100.174	-0.299	-0.073
-378.902	-0.834	0.427	-0.299
-377.888	-24.140	0.254	0.150
-376.873	-124.734	0.188	0.029
-375.858	-173.649	0.089	-0.003
-374.844	-76.973	-0.601	0.207
-373.829	406.226	0.211	0.439
-372.815	-126.633	-0.078	-0.011
-371.800	-200.000	0.016	0.225
-370.785	106.415	0.135	0.157
-369.771	800.000	0.074	-0.246
-368.756	366.699	0.062	0.123
-367.742	-200.000	0.001	-0.198
-366.727	-42.692	0.522	-0.262
-365.712	-143.916	0.132	0.012
-364.698	-20.976	0.140	0.084
-363.683	-200.000	0.000	0.071
-362.669	-200.000	0.010	-0.392
-361.654	313.130	0.107	-0.199
-360.639	800.000	0.017	-0.049
-359.625	259.188	-0.010	-0.017
-358.610	128.237	0.133	0.167
-357.596	91.825	0.083	-0.092
-356.581	225.578	0.185	-0.296
-355.566	-164.474	0.068	-0.003
-354.552	-200.000	0.088	0.404
-353.537	27.379	0.051	0.042
-352.523	187.382	-0.087	0.128
-351.508	-89.682	-0.221	-0.064
-350.493	-3.295	0.108	-0.074
-349.479	-200.000	-0.046	0.368
-348.464	229.749	-0.141	0.228
-347.450	-163.218	-0.143	-0.007
-346.435	193.391	0.125	-0.187
-345.420	-200.000	0.029	-0.249
-344.406	-1.162	-0.145	0.101
-343.391	800.000	-0.039	0.159
-342.377	-137.235	0.649	-0.073
-341.362	-200.000	-0.004	-0.235
-340.348	-131.080	0.356	-0.047
-339.333	578.069	0.110	0.264
-338.318	-200.000	-0.017	0.316
-337.304	-64.892	-0.392	0.156
-336.289	-5.240	-0.331	-0.224
-335.275	67.581	-0.081	0.081
-334.260	-200.000	-0.016	-0.123
-333.245	15.442	0.091	0.071
-332.231	52.802	0.062	0.059
-331.216	274.677	0.068	-0.119
-330.202	800.000	0.061	0.210
-329.187	800.000	-0.111	0.335
-328.172	5.453	0.200	-0.146
-327.158	639.114	-0.069	0.173
-326.143	296.998	-0.174	0.313
-325.129	-74.942	0.238	-0.084
-324.114	-39.603	-0.176	-0.091
-323.099	227.927	-0.097	-0.155
-322.085	352.967	0.143	-0.278
-321.070	475.544	-0.109	0.243
-320.056	155.969	0.147	-0.199
-319.041	-110.288	-0.289	0.059
-318.026	47.501	0.059	0.054
-317.012	129.095	-0.079	0.099
-315.997	197.365	0.214	0.321
-314.983	800.000	0.102	0.324
-313.968	-120.605	-0.018	0.003
-312.953	111.670	0.309	0.367
-311.939	-13.068	0.091	0.058
-310.924	178.683	0.160	0.229
-309.910	362.601	-0.173	0.342
-308.895	-64.705	-0.278	0.111
-307.880	43.341	0.090	0.081
-306.866	20.216	-0.149	0.119
-305.851	97.058	-0.074	-0.083
-304.837	-150.216	-0.288	0.022
-303.822	142.337	0.323	0.422
-302.807	-50.815	-0.063	-0.029
-301.793	-200.000	0.001	-0.198
-300.778	120.179	0.131	-0.160
-299.764	377.357	0.312	0.628
-298.749	-17.610	0.112	0.069
-297.735	474.457	0.054	-0.120
-296.720	-100.483	-0.111	-0.027
-295.705	-200.000	0.014	0.362
-294.691	461.157	-0.271	0.595
-293.676	-200.000	-0.001	-0.130
-292.662	271.429	0.112	0.193
-291.647	656.744	0.232	-0.586
-290.632	89.559	-0.183	0.201
-289.618	-45.527	0.220	0.107
-288.603	37.864	0.086	-0.075
-287.589	-43.335	-0.111	0.055
-286.574	194.342	-0.043	0.064
-285.559	-98.114	-0.403	0.102
-284.545	71.952	-0.049	-0.050
-283.530	800.000	-0.062	0.189
-282.516	42.923	-0.210	0.188
-281.501	-200.000	0.076	-0.452
-280.486	624.950	-0.058	0.145
-279.472	167.650	-0.110	-0.153
-278.457	363.871	-0.159	-0.315
-277.443	180.442	0.095	-0.137
-276.428	-200.000	-0.034	0.224
-275.413	-200.000	-0.002	0.029
-274.399	-23.072	0.160	-0.095
-273.384	145.273	-0.287	-0.378
-272.370	-200.000	0.001	-0.179
-271.355	-149.796	0.387	0.030
-270.340	17.464	-0.299	-0.233
-269.326	-13.321	0.154	-0.098
-268.311	-79.439	0.354	-0.118
-267.297	421.116	-0.129	-0.272
-266.282	80.697	0.158	0.167
-265.267	-200.000	-0.013	-0.131
-264.253	86.399	-0.326	-0.353
-263.238	-73.576	0.296	-0.106
-262.224	343.242	-0.133	0.255
-261.209	-148.320	0.336	0.027
-260.195	-200.000	0.001	-0.028
-259.180	334.245	-0.077	0.147
-258.165	-156.974	-0.176	0.011
-257.151	444.823	-0.090	-0.194
-256.136	-49.674	-0.173	-0.081
-255.122	102.722	0.263	0.303
-254.107	139.894	0.302	0.391
-253.092	93.975	0.223	0.248
-252.078	-131.079	0.273	-0.036
-251.063	-95.798	0.215	-0.056
-250.049	353.496	0.053	0.103
-249.034	-153.783	-0.234	0.016
-248.019	800.000	0.058	0.158
-247.005	126.214	-0.150	0.187
-245.990	-54.954	0.032	0.014
-244.976	-24.998	0.242	0.141
-243.961	51.588	-0.097	0.090
-242.946	-200.000	-0.006	0.194
-241.932	271.562	-0.129	0.224
-240.917	-26.826	0.249	0.143
-239.903	-200.000	-0.042	0.217
-238.888	137.036	-0.102	0.131
-237.873	-200.000	0.005	0.287
-236.859	-42.910	-0.183	-0.091
-235.844	-75.487	-0.262	0.091
-234.830	159.713	-0.110	0.150
-233.815	-195.675	0.284	-0.002
-232.800	-98.143	-0.290	0.073
-231.786	-11.454	0.135	-0.087
-230.771	-86.119	-0.282	0.085
-229.757	-81.725	-0.214	-0.069
-228.742	-144.971	0.234	0.021
-227.727	-5.627	0.137	-0.092
-226.713	-87.240	-0.186	-0.056
-225.698	-77.704	-0.346	-0.118
-224.684	-200.000	0.032	-0.312
-223.669	-148.005	0.116	0.009
-222.655	-13.394	-0.218	0.138
-221.640	45.708	0.246	0.223
-220.625	325.962	-0.076	-0.142
-219.611	-200.000	0.024	0.313
-218.596	-136.827	-0.030	-0.003
-217.582	9.361	0.211	0.156
-216.567	332.573	0.152	-0.289
-215.552	-181.447	-0.119	0.002
-214.538	153.609	-0.122	-0.163
-213.523	5.634	-0.410	-0.297
-212.509	-82.884	0.173	-0.055
-211.494	-200.000	0.051	-0.271
-210.479	800.000	0.023	-0.084
-209.465	-93.748	-0.172	0.046
-208.450	-97.717	0.128	-0.033
-207.436	-19.891	0.441	-0.267
-206.421	-44.374	-0.179	0.088
-205.406	-48.786	0.199	-0.093
-204.392	-81.253	0.134	-0.044
-203.377	-18.129	0.257	-0.158
-202.363	80.541	-0.194	-0.205
-201.348	45.459	0.071	0.064
-200.333	-147.332	0.323	-0.027
-199.319	-200.000	0.044	0.220
-198.304	414.188	-0.084	-0.175
-197.290	-78.496	0.149	0.050
-196.275	-47.696	-0.196	-0.093
-195.260	-200.000	0.053	-0.272
-194.246	-200.000	0.023	-0.128
-193.231	73.694	-0.277	0.284
-192.217	-162.496	0.377	-0.018
-191.202	64.490	-0.192	0.190
-190.187	-171.462	-0.063	-0.002
-189.173	520.914	-0.028	-0.064
-188.158	371.524	-0.080	-0.158
-187.144	-27.732	-0.040	-0.023
-186.129	800.000	-0.033	-0.120
-185.114	311.027	-0.048	-0.089
-184.100	6.908	0.097	0.071
-183.085	-53.570	0.191	0.085
-182.071	-116.216	-0.116	-0.021
-181.056	96.965	-0.238	-0.267
-180.042	187.349	0.114	0.166
-179.027	378.717	0.111	0.223
-178.012	-200.000	0.005	-0.292
-176.998	-200.000	-0.027	0.359
-175.983	60.023	-0.183	-0.177
-174.969	-60.974	-0.241	-0.100
-173.954	-101.459	-0.156	0.037
-172.939	-88.141	0.084	-0.025
-171.925	-200.000	0.024	0.264
-170.910	800.000	-0.075	0.234
-169.896	-13.697	-0.180	-0.114
-168.881	428.980	-0.101	-0.214
-167.866	800.000	-0.052	0.187
-166.852	-200.000	-0.383	-0.001
-165.837	-164.191	-0.316	0.014
-164.823	327.152	0.035	0.066
-163.808	-200.000	-0.043	0.217
-162.793	-85.489	-0.165	0.050
-161.779	800.000	0.040	-0.141
-160.764	-21.938	0.218	-0.129
-159.750	-200.000	-0.003	0.095
-158.735	224.701	-0.032	-0.050
-157.720	-200.000	-0.002	-0.031
-156.706	342.717	-0.071	-0.136
-155.691	-32.279	0.343	0.188
-154.677	-6.273	0.082	0.055
-153.662	800.000	-0.092	-0.268
-152.647	-114.529	0.300	0.056
-151.633	-76.943	-0.139	-0.048
-150.618	95.037	-0.015	-0.017
-149.604	-200.000	0.014	-0.395
-148.589	25.528	-0.054	-0.044
-147.574	26.088	0.139	-0.114
-146.560	-180.551	-0.297	0.006
-145.545	-70.662	0.272	0.101
-144.531	217.462	0.025	0.038
-143.516	124.740	-0.090	0.111
-142.502	-200.000	0.007	0.220
-141.487	-12.437	-0.284	0.181
-140.472	800.000	-0.091	0.252
-139.458	-146.809	0.354	-0.030
-138.443	300.587	0.037	0.067
-137.429	-78.818	0.212	0.071
-136.414	-100.734	-0.234	0.056
-135.399	800.000	0.028	-0.080
-134.385	81.639	0.022	0.023
-133.370	12.596	0.201	0.151
-132.356	-59.252	0.150	0.063
-131.341	54.157	0.058	0.055
-130.326	282.029	-0.135	-0.236
-129.312	580.732	-0.099	0.237
-128.297	800.000	-0.088	0.265
-127.283	391.709	0.089	0.182
-126.268	-200.000	0.012	0.123
-125.253	-114.788	-0.166	-0.031
-124.239	800.000	-0.059	0.182
-123.224	352.623	0.073	0.142
-122.210	-100.614	0.280	-0.068
-121.195	102.417	-0.028	-0.032
-120.180	74.124	0.156	0.160
-119.166	-101.312	-0.219	-0.052
-118.151	-108.214	0.101	-0.021
-117.137	291.276	-0.064	-0.113
-116.122	-68.813	0.312	0.118
-115.107	800.000	-0.056	-0.228
-114.093	-33.881	-0.157	-0.085
-113.078	-22.612	-0.163	0.096
-112.064	-200.000	0.023	0.426
-111.049	35.773	0.410	-0.351
-110.034	290.419	0.086	-0.152
-109.020	-73.458	0.211	0.075
-108.005	67.307	0.117	-0.117
-106.991	508.357	-0.043	-0.097
-105.976	115.400	-0.418	0.498
-104.962	147.705	-0.067	0.088
-103.947	-57.931	0.202	0.086
-102.932	-98.753	-0.409	0.102
-101.918	83.021	0.158	0.167
-100.903	-55.385	0.145	0.064
-99.889	-141.280	-0.145	-0.014
-98.874	-62.635	-0.210	0.085
-97.859	66.034	-0.187	-0.186
-96.845	357.779	-0.247	0.481
-95.830	-200.000	-0.006	-0.160
-94.816	-200.000	0.011	0.103
-93.801	-200.000	-0.011	0.286
-92.786	253.254	0.147	-0.244
-91.772	-2.494	0.016	0.011
-90.757	306.895	0.173	0.315
-89.743	-86.953	0.323	-0.096
-88.728	800.000	-0.050	-0.142
-87.713	242.084	0.092	0.149
-86.699	590.858	0.112	-0.269
-85.684	-200.000	0.006	0.368
-84.670	24.367	-0.211	-0.170
-83.655	25.847	0.054	0.044
-82.640	-19.993	0.293	0.177
-81.626	30.816	-0.080	-0.067
-80.611	271.454	-0.115	0.198
-79.597	-5.274	-0.165	0.111
-78.582	13.657	-0.215	-0.163
-77.567	-175.126	0.119	-0.003
-76.553	149.016	0.187	-0.247
-75.538	-28.112	0.086	0.048
-74.524	-145.354	-0.262	-0.023
-73.509	-72.003	0.361	0.131
-72.494	800.000	-0.078	0.260
-71.480	800.000	0.045	-0.137
-70.465	182.130	-0.145	-0.208
-69.451	61.072	-0.256	0.248
-68.436	-200.000	0.006	-0.237
-67.422	-81.238	-0.463	0.149
-66.407	-200.000	0.088	0.446
-65.392	-97.297	-0.057	-0.014
-64.378	120.331	-0.054	0.066
-63.363	599.233	0.192	-0.465
-62.349	-187.669	-0.253	-0.003
-61.334	139.313	-0.992	-1.272
-60.319	800.000	0.323	1.011
-59.305	325.461	-0.432	-0.805
-58.290	340.911	0.775	1.475
-57.276	258.494	0.849	1.426
-56.261	-200.000	135.537	684.642
-55.246	336.074	1679.189	3174.421
-54.232	133.829	2805.207	3537.733
-53.217	88.016	2171.192	2345.706
-52.203	32.238	1601.491	1346.167
-51.188	24.267	1350.046	1086.404
-50.173	22.160	1312.894	1043.968
-49.159	49.816	1387.270	1273.768
-48.144	46.281	1395.848	1259.985
-47.130	24.367	1343.196	1081.326
-46.115	21.300	1324.232	1047.661
-45.100	21.037	1318.693	1041.668
-44.086	21.088	1315.837	1039.672
-43.071	20.914	1313.656	1036.875
-42.057	21.021	1311.730	1035.945
-41.042	20.959	1310.517	1034.577
-40.027	20.922	1309.222	1033.299
-39.013	20.983	1307.225	1032.041
-37.998	21.100	1305.432	1031.277
-36.984	21.097	1303.515	1029.704
-35.969	21.038	1301.798	1027.955
-34.954	21.175	1299.951	1027.268
-33.940	21.116	1298.728	1025.913
-32.925	21.179	1297.334	1025.141
-31.911	21.169	1296.552	1024.419
-30.896	21.231	1294.431	1023.067
-29.881	21.223	1293.237	1022.039
-28.867	21.173	1291.859	1020.615
-27.852	21.191	1290.550	1019.646
-26.838	21.194	1289.495	1018.789
-25.823	21.306	1287.581	1017.887
-24.809	21.187	1286.733	1016.483
-23.794	21.268	1284.860	1015.437
-22.779	21.105	1284.235	1013.956
-21.765	21.192	1282.970	1013.423
-20.750	21.235	1281.238	1012.262
-19.736	21.180	1280.063	1010.977
-18.721	21.113	1279.433	1010.050
-17.706	21.141	1278.028	1009.065
-16.692	21.089	1276.980	1007.896
-15.677	21.138	1275.596	1007.046
-14.663	21.121	1274.353	1005.924
-13.648	20.923	1273.637	1004.179
-12.633	21.106	1272.793	1004.528
-11.619	21.091	1271.890	1003.691
-10.604	21.132	1270.849	1003.063
-9.590	21.058	1270.083	1001.995
-8.575	21.011	1269.474	1001.205
-7.560	21.074	1268.103	1000.442
-6.546	21.092	1267.586	1000.101
-5.531	21.042	1266.700	999.077
-4.517	20.964	1266.221	998.209
-3.502	21.079	1264.854	997.750
-2.487	21.092	1263.776	996.934
-1.473	20.892	1259.884	992.686
-0.458	19.381	1244.116	971.717
0.556	14.829	1229.329	934.494
1.571	11.356	1237.597	921.114
2.586	10.729	1253.154	929.025
3.600	10.838	1240.869	920.450
4.615	8.097	1169.078	852.479
5.629	3.105	1100.175	776.995
6.644	0.778	1084.364	754.166
7.659	0.683	1082.410	752.267
8.673	0.652	1081.668	751.531
9.688	0.617	1079.887	750.050
10.702	0.695	1077.894	748.986
11.717	3.787	1080.646	766.181
12.731	10.196	1089.382	804.250
13.746	15.452	1096.341	835.542
14.761	17.115	1098.086	845.082
15.775	16.508	1096.529	840.792
16.790	15.511	1094.474	834.191
17.804	14.891	1092.679	829.672
18.819	14.545	1091.927	827.316
19.834	14.346	1091.036	825.581
20.848	14.049	1090.235	823.428
21.863	13.859	1089.215	821.647
22.877	13.704	1088.475	820.246
23.892	13.663	1087.683	819.376
24.907	13.569	1087.328	818.572
25.921	13.750	1085.657	818.135
26.936	13.805	1085.128	817.932
27.950	13.702	1084.473	816.863
28.965	13.731	1083.482	816.185
29.980	13.862	1081.939	815.596
30.994	13.846	1080.787	814.574
32.009	13.901	1079.909	814.109
33.023	13.835	1079.205	813.186
34.038	13.785	1077.829	811.833
35.053	13.892	1076.752	811.473
36.067	13.767	1076.176	810.353
37.082	13.753	1075.619	809.793
38.096	13.836	1074.751	809.473
39.111	13.753	1074.010	808.441
40.126	13.777	1072.868	807.626
41.140	13.737	1071.293	806.174
42.155	13.620	1070.403	804.864
43.169	13.763	1068.880	804.342
44.184	13.634	1068.245	803.166
45.199	13.677	1067.487	802.737
46.213	13.686	1066.248	801.775
47.228	13.692	1065.435	801.121
48.242	13.653	1064.081	799.845
49.257	13.863	1062.193	799.366
50.271	13.703	1062.077	798.439
51.286	13.723	1061.222	797.822
52.301	13.763	1060.431	797.347
53.315	13.695	1059.121	795.969
54.330	13.654	1058.401	795.159
55.344	13.734	1057.701	794.945
56.359	13.750	1056.446	794.011
57.374	13.705	1055.425	792.957
58.388	13.634	1054.775	792.059
59.403	13.676	1053.598	791.307
60.417	13.719	1053.127	791.088
61.432	13.553	1052.382	789.667
62.447	13.631	1051.425	789.249
63.461	13.677	1050.538	788.731
64.476	13.551	1049.929	787.608
65.490	13.528	1049.006	786.735
66.505	13.694	1048.069	786.751
67.520	13.651	1047.547	786.086
68.534	13.667	1046.541	785.338
69.549	13.619	1046.138	784.734
70.563	13.600	1045.243	783.909
71.578	13.454	1044.319	782.456
72.593	13.515	1043.510	782.066
73.607	13.561	1042.993	781.828
74.622	13.373	1042.765	780.700
75.636	13.592	1041.357	780.609
76.651	13.489	1041.072	779.842
77.666	13.525	1040.423	779.453
78.680	13.668	1039.060	779.039
79.695	13.645	1038.815	778.679
80.709	13.650	1037.806	777.872
81.724	13.592	1037.674	777.433
82.739	13.753	1035.930	776.815
83.753	13.797	1035.706	776.781
84.768	13.782	1034.672	775.867
85.782	13.753	1034.214	775.319
86.797	13.840	1032.600	774.446
87.812	13.671	1031.982	773.128
88.826	13.869	1030.848	773.132
89.841	13.821	1030.037	772.232
90.855	13.903	1028.814	771.628
91.870	13.907	1028.222	771.134
92.884	13.868	1027.041	770.001
93.899	13.925	1026.683	769.929
94.914	13.811	1025.611	768.527
95.928	13.915	1024.766	768.308
96.943	13.841	1023.943	767.282
97.957	13.902	1023.355	767.055
98.972	13.751	1022.134	765.371
99.987	13.792	1021.236	764.823
101.001	13.825	1020.421	764.295
102.016	13.841	1019.996	763.982
103.030	13.849	1018.987	763.198
104.045	13.808	1017.970	762.178
105.060	13.742	1017.337	761.335
106.074	13.716	1016.662	760.642
107.089	13.810	1015.127	759.859
108.103	13.698	1014.359	758.706
109.118	13.816	1013.234	758.336
110.133	13.772	1012.622	757.608
111.147	13.752	1011.621	756.700
112.162	13.808	1010.784	756.264
113.176	13.747	1010.202	755.484
114.191	13.685	1009.761	754.804
115.206	13.883	1008.541	754.725
116.220	13.764	1007.961	753.683
117.235	13.800	1007.012	753.071
118.249	13.928	1005.984	752.818
119.264	13.798	1005.255	751.614
120.279	13.734	1004.455	750.660
121.293	13.787	1003.649	750.231
122.308	13.795	1002.645	749.452
123.322	13.770	1001.722	748.581
124.337	13.711	1000.490	747.330
125.352	13.751	999.401	746.629
126.366	13.765	998.257	745.771
127.381	13.782	997.083	744.904
128.395	13.825	996.150	744.336
129.410	13.674	995.991	743.472
130.424	13.684	994.788	742.555
131.439	13.751	994.245	742.383
132.454	13.776	993.735	742.050
133.468	13.824	992.503	741.280
134.483	13.759	991.751	740.360
135.497	13.791	990.599	739.578
136.512	13.801	990.120	739.201
137.527	13.785	989.018	738.239
138.541	13.850	988.298	737.925
139.556	13.826	987.909	737.464
140.570	13.865	986.616	736.606
141.585	13.930	985.725	736.164
142.600	13.933	984.583	735.260
143.614	14.013	983.815	734.974
144.629	13.942	983.235	734.164
145.643	14.022	982.377	733.810
146.658	14.023	981.126	732.815
147.673	14.004	980.376	732.106
148.687	13.988	979.436	731.268
149.702	14.003	978.476	730.553
150.716	13.904	977.936	729.650
151.731	13.959	977.345	729.387
152.746	13.959	976.478	728.676
153.760	14.047	975.648	728.379
154.775	14.072	975.165	728.063
155.789	14.043	974.401	727.300
156.804	13.957	974.002	726.561
157.819	14.095	972.978	726.335
158.833	14.114	972.492	725.991
159.848	14.299	971.414	725.930
160.862	14.081	970.583	724.297
161.877	14.024	969.800	723.398
162.892	14.125	968.669	722.930
163.906	14.027	967.807	721.798
164.921	14.174	966.654	721.513
165.935	14.011	966.194	720.399
166.950	14.063	965.088	719.735
167.964	14.111	964.273	719.271
168.979	14.150	963.401	718.727
169.994	14.152	962.754	718.186
171.008	14.111	962.091	717.454
172.023	14.166	961.358	717.079
173.037	14.211	960.747	716.754
174.052	14.242	959.909	716.198
175.067	14.142	959.157	715.146
176.081	14.209	958.634	714.977
177.096	14.300	957.932	714.782
178.110	14.083	957.724	713.635
179.125	14.136	956.979	713.244
180.140	14.241	956.285	713.110
181.154	14.158	955.871	712.385
182.169	14.446	955.208	713.059
183.183	14.451	954.064	712.165
184.198	14.367	953.587	711.387
185.213	14.325	952.790	710.550
186.227	14.278	952.536	710.097
187.242	14.493	951.815	710.414
188.256	14.469	950.935	709.592
189.271	14.362	950.250	708.560
190.286	14.319	949.830	708.003
191.300	14.313	949.025	707.316
192.315	14.248	948.143	706.319
193.329	14.243	947.942	706.086
194.344	14.382	946.897	705.835
195.359	14.378	946.209	705.239
196.373	14.393	945.851	704.976
197.388	14.518	945.239	704.984
198.402	14.615	944.596	704.852
199.417	14.608	944.141	704.424
200.432	14.587	943.753	703.983
201.446	14.614	943.036	703.500
202.461	14.611	942.382	702.937
203.475	14.587	941.717	702.277
204.490	14.555	941.277	701.753
205.504	14.497	940.450	700.827
206.519	14.575	939.396	700.307
207.534	14.635	938.868	700.105
208.548	14.662	938.344	699.767
209.563	14.734	937.585	699.439
210.577	14.697	936.332	698.288
211.592	14.673	936.468	698.225
212.607	14.809	935.338	697.889
213.621	14.788	934.767	697.315
214.636	14.860	933.851	696.869
215.650	14.840	933.499	696.462
216.665	14.932	932.590	696.107
217.680	14.869	931.795	695.188
218.694	14.752	931.307	694.277
219.709	14.881	930.352	694.040
220.723	14.848	930.132	693.676
221.738	14.915	929.074	693.102
222.753	14.883	928.470	692.459
223.767	14.991	927.912	692.430
224.782	14.935	927.333	691.705
225.796	15.000	926.821	691.529
226.811	14.958	926.085	690.745
227.826	15.011	925.414	690.404
228.840	14.966	924.518	689.487
229.855	15.085	923.410	689.088
230.869	14.980	923.140	688.398
231.884	15.019	921.881	687.556
232.899	14.988	921.266	686.911
233.913	15.059	920.727	686.738
234.928	14.895	919.923	685.406
235.942	14.946	919.626	685.334
236.957	15.021	918.949	685.075
237.972	15.021	918.572	684.733
238.986	15.073	917.715	684.245
240.001	15.040	917.089	683.585
241.015	15.081	916.316	683.116
242.030	15.085	915.662	682.582
243.045	15.142	914.788	682.104
244.059	15.141	914.713	681.984
245.074	15.259	914.136	681.973
246.088	15.147	913.452	680.947
247.103	15.244	912.345	680.454
248.117	15.320	912.087	680.511
249.132	15.259	911.421	679.705
250.147	15.413	910.884	679.871
251.161	15.327	910.449	679.138
252.176	15.225	909.878	678.239
253.190	15.346	908.875	677.917
254.205	15.358	908.254	677.443
255.220	15.420	907.468	677.050
256.234	15.588	907.006	677.322
257.249	15.491	906.180	676.252
258.263	15.478	905.546	675.670
259.278	15.480	905.074	675.265
260.293	15.504	904.263	674.696
261.307	15.694	903.460	674.800
262.322	15.621	902.807	673.960
263.336	15.664	902.133	673.570
264.351	15.624	901.748	673.063
265.366	15.708	900.826	672.648
266.380	15.638	900.521	672.084
267.395	15.787	899.416	671.793
268.409	15.718	898.605	670.855
269.424	15.644	898.566	670.470
270.439	15.624	897.732	669.709
271.453	15.591	896.888	668.888
272.468	15.548	896.446	668.329
273.482	15.770	895.412	668.380
274.497	15.793	895.284	668.319
275.512	15.656	894.555	667.171
276.526	15.844	894.122	667.532
277.541	15.744	893.824	666.854
278.555	15.890	892.805	666.616
279.570	15.934	891.869	666.032
280.585	15.825	891.551	665.303
281.599	15.825	890.537	664.489
282.614	15.828	890.010	664.049
283.628	15.860	889.339	663.613
284.643	15.816	889.125	663.222
285.657	15.909	887.993	662.687
286.672	15.904	887.970	662.591
287.687	15.917	886.893	661.780
288.701	16.000	886.077	661.439
289.716	16.087	885.903	661.592
290.730	16.043	885.092	660.756
291.745	16.009	884.640	660.223
292.760	16.043	883.824	659.689
293.774	16.120	883.434	659.642
294.789	16.035	882.721	658.717
295.803	16.164	881.945	658.587
296.818	16.009	881.354	657.483
297.833	16.291	880.284	657.724
298.847	16.131	880.218	656.994
299.862	16.223	879.374	656.661
300.876	16.028	879.320	655.807
301.891	16.189	878.529	655.784
302.906	16.137	877.844	655.011
303.920	16.320	877.318	655.274
304.935	16.209	876.626	654.266
305.949	16.364	876.025	654.362
306.964	16.378	875.350	653.851
307.979	16.207	874.638	652.601
308.993	16.415	873.983	652.859
310.008	16.394	874.111	652.817
311.022	16.303	872.967	651.550
312.037	16.434	872.307	651.506
313.052	16.399	871.792	650.930
314.066	16.286	871.190	649.986
315.081	16.300	870.531	649.494
316.095	16.247	869.929	648.781
317.110	16.248	869.475	648.389
318.125	16.335	868.890	648.230
319.139	16.377	868.474	648.022
320.154	16.402	868.171	647.835
321.168	16.404	867.727	647.456
322.183	16.393	866.715	646.602
323.197	16.598	866.000	646.795
324.212	16.505	865.526	646.029
325.227	16.481	864.885	645.401
326.241	16.384	864.490	644.679
327.256	16.470	863.848	644.469
328.270	16.564	863.048	644.175
329.285	16.442	862.636	643.347
330.300	16.539	861.864	643.082
331.314	16.413	861.648	642.385
332.329	16.573	860.849	642.340
333.343	16.600	860.463	642.096
334.358	16.588	860.568	642.074
335.373	16.626	859.829	641.610
336.387	16.690	859.444	641.508
337.402	16.665	859.421	641.340
338.416	16.675	858.648	640.745
339.431	16.676	858.302	640.431
340.446	16.803	858.135	640.731
341.460	16.802	857.725	640.364
342.475	16.805	857.033	639.802
343.489	16.817	856.781	639.604
344.504	16.873	856.234	639.351
345.519	16.850	855.789	638.874
346.533	16.775	855.201	638.097
347.548	16.923	854.446	638.031
348.562	16.793	854.152	637.267
349.577	16.792	853.359	636.617
350.592	16.928	852.710	636.586
351.606	16.855	852.116	635.813
352.621	16.938	851.145	635.343
353.635	17.029	850.441	635.102
354.650	16.910	849.996	634.267
355.665	16.932	849.646	634.035
356.679	17.093	848.885	634.011
357.694	17.055	848.262	633.348
358.708	17.127	847.409	632.924
359.723	16.946	846.862	631.784
360.738	17.115	846.028	631.734
361.752	17.173	845.944	631.833
362.767	17.114	845.319	631.091
363.781	17.055	844.923	630.520
364.796	17.160	844.257	630.355
365.810	17.383	843.432	630.512
366.825	17.229	843.452	629.900
367.840	17.299	843.109	629.848
368.854	17.396	842.758	629.887
369.869	17.228	842.251	628.833
370.883	17.272	841.687	628.516
371.898	17.351	841.489	628.606
372.913	17.353	840.969	628.169
373.927	17.437	840.063	627.748
374.942	17.413	839.979	627.539
375.956	17.441	839.459	627.201
376.971	17.348	839.415	626.768
377.986	17.466	838.525	626.483
379.000	17.441	838.249	626.128
380.015	17.507	837.782	625.969
381.029	17.530	837.293	625.632
382.044	17.604	836.435	625.207
383.059	17.568	835.768	624.520
384.073	17.563	835.335	624.124
385.088	17.556	834.692	623.562
386.102	17.575	834.274	623.264
387.117	17.667	833.224	622.762
388.132	17.601	832.943	622.255
389.146	17.699	832.086	621.918
390.161	17.680	831.916	621.666
391.175	17.724	831.490	621.453
392.190	17.591	831.024	620.564
393.205	17.602	830.381	620.070
394.219	17.682	830.142	620.128
395.234	17.776	829.699	620.084
396.248	17.611	829.403	619.206
397.263	17.563	829.086	618.743
398.278	17.596	828.667	618.496
399.292	17.665	827.997	618.189
400.307	17.765	827.254	617.943
401.321	17.743	826.885	617.533
402.336	17.750	826.279	617.053
403.350	17.818	825.848	616.920
404.365	17.745	825.436	616.293
405.380	17.672	825.367	615.923
406.394	17.706	824.820	615.583
407.409	17.844	824.622	615.881
408.423	17.858	824.233	615.585
409.438	17.894	823.191	614.881
410.453	18.011	822.846	614.992
411.467	17.953	822.499	614.469
412.482	18.044	822.168	614.494
413.496	17.956	821.767	613.826
414.511	18.086	821.215	613.823
415.526	18.114	820.549	613.374
416.540	17.994	820.246	612.661
417.555	18.104	819.849	612.707
418.569	18.160	819.371	612.496
419.584	18.090	819.004	611.916
420.599	18.165	818.515	611.764
421.613	115.843	1301.509	1491.850
422.628	100.468	1371.836	1491.915
