DTS Sentinel unit serial number:	SN413079Multiplexer serial number:	ORYXHardware model number:	OX4-SRSoftware version number:	ORYX F/W v4.00 Oryx Data Collector v3.7.2.0data status	okinstallation	princeton_trtdifferential loss correction	single-endedforward channel	channel 1reverse channel	N/Adate	2019/09/16time	10:30:35forward acquisition time	60.00reverse acquisition time	0.00gamma	496.2192k internal	0.2306k external	0.2306temperature offset calibration	0.9965default loss term (dB/km)	0.3790temperature slope calibration	1.0000multiplexer offset coefficient	1.0000multiplexer slope coefficient	1.0000fibre end	0.00T internal ref (°C)	35.30T ext. ref 1 (°C)	12.57T ext. ref 2 (°C)	33.71length (m)	temperature (°C)	Stokes	anti-Stokes-747.200	-29.266	0.084	-0.049
-746.185	-37.529	-0.304	0.165
-745.171	-49.617	-0.076	0.037
-744.156	-90.072	0.150	0.045
-743.142	-182.883	-0.152	0.003
-742.127	-145.052	0.393	0.036
-741.112	134.348	0.109	0.143
-740.098	8.720	-0.138	-0.106
-739.083	556.921	0.036	-0.088
-738.069	594.173	-0.036	0.090
-737.054	-200.000	-0.015	0.094
-736.039	800.000	0.026	0.088
-735.025	151.180	0.058	0.081
-734.010	800.000	-0.086	-0.333
-732.996	6.951	-0.261	-0.198
-731.981	-28.584	0.175	0.103
-730.966	122.499	-0.105	0.134
-729.952	-200.000	0.063	-0.316
-728.937	-200.000	-0.016	0.263
-727.923	-36.443	-0.092	-0.051
-726.908	146.635	-0.261	-0.357
-725.894	800.000	0.024	0.090
-724.879	-174.994	0.033	-0.001
-723.864	-122.897	0.211	0.035
-722.850	92.136	-0.078	0.089
-721.835	-200.000	-0.000	-0.010
-720.821	-27.954	0.167	-0.098
-719.806	9.779	-0.166	0.128
-718.791	524.019	0.074	-0.177
-717.777	-200.000	0.008	-0.269
-716.762	-100.924	0.065	-0.016
-715.748	309.595	0.109	0.207
-714.733	3.160	-0.122	0.090
-713.718	43.511	-0.181	0.169
-712.704	663.906	0.088	-0.230
-711.689	93.249	-0.206	-0.237
-710.675	-44.764	0.285	-0.144
-709.660	800.000	0.025	0.078
-708.645	773.236	0.120	-0.332
-707.631	-200.000	0.013	-0.256
-706.616	95.157	0.107	0.124
-705.602	0.097	0.272	-0.197
-704.587	-2.493	-0.341	-0.242
-703.572	-185.805	-0.143	-0.002
-702.558	202.449	0.127	0.200
-701.543	20.240	-0.172	-0.141
-700.529	800.000	0.064	-0.185
-699.514	-163.944	-0.187	0.009
-698.499	81.476	0.084	-0.092
-697.485	-23.435	0.107	-0.065
-696.470	-200.000	0.038	-0.440
-695.456	123.853	0.060	-0.077
-694.441	51.736	0.183	0.177
-693.426	115.627	-0.171	-0.213
-692.412	-200.000	0.015	-0.368
-691.397	-200.000	-0.022	-0.193
-690.383	127.356	0.221	-0.285
-689.368	-53.904	-0.108	0.050
-688.354	-53.152	-0.227	0.106
-687.339	90.143	-0.019	0.022
-686.324	247.418	-0.063	0.107
-685.310	-200.000	0.004	0.050
-684.295	18.033	-0.262	-0.212
-683.281	800.000	-0.030	-0.098
-682.266	25.195	0.063	0.053
-681.251	301.967	0.027	0.052
-680.237	186.063	0.171	0.258
-679.222	95.224	0.298	0.344
-678.208	-88.067	-0.130	0.039
-677.193	-115.072	0.356	0.069
-676.178	-200.000	0.018	-0.181
-675.164	-73.889	0.415	0.153
-674.149	800.000	-0.024	0.107
-673.135	-101.151	-0.317	0.079
-672.120	-200.000	-0.008	-0.053
-671.105	800.000	-0.057	0.161
-670.091	-200.000	-0.039	-0.254
-669.076	800.000	0.126	-0.473
-668.062	53.301	0.135	-0.131
-667.047	-200.000	-0.013	-0.266
-666.032	96.618	0.218	-0.253
-665.018	800.000	-0.068	-0.204
-664.003	-102.320	0.082	0.020
-662.989	-200.000	-0.004	0.057
-661.974	-159.585	-0.051	-0.003
-660.959	36.123	-0.250	-0.223
-659.945	87.247	0.113	0.126
-658.930	800.000	0.022	-0.083
-657.916	240.263	-0.156	0.264
-656.901	4.697	0.165	0.123
-655.886	-43.094	-0.287	0.147
-654.872	-156.320	-0.544	-0.035
-653.857	-26.551	0.213	-0.127
-652.843	-87.721	0.195	-0.060
-651.828	22.104	0.107	0.088
-650.814	-145.981	-0.330	-0.030
-649.799	-92.536	-0.065	-0.018
-648.784	251.131	-0.056	-0.096
-647.770	160.614	-0.269	-0.380
-646.755	-90.896	-0.178	0.052
-645.741	-36.153	-0.261	0.143
-644.726	644.518	-0.103	-0.267
-643.711	-113.167	-0.195	0.039
-642.697	-30.499	0.158	-0.091
-641.682	-85.391	0.099	-0.031
-640.668	-28.772	0.304	0.177
-639.653	64.108	0.221	0.225
-638.638	-94.007	-0.252	0.070
-637.624	477.059	-0.068	-0.156
-636.609	800.000	0.031	0.128
-635.595	4.877	0.097	0.072
-634.580	414.715	-0.063	-0.136
-633.565	293.227	0.030	0.055
-632.551	405.324	-0.184	0.392
-631.536	123.605	-0.338	0.430
-630.522	-200.000	0.052	0.379
-629.507	6.016	-0.342	-0.256
-628.492	-136.204	-0.149	-0.018
-627.478	-121.154	0.187	-0.032
-626.463	-121.474	0.160	-0.027
-625.449	-63.766	0.518	-0.215
-624.434	12.523	-0.337	-0.263
-623.419	29.414	0.120	-0.103
-622.405	134.458	0.125	0.164
-621.390	-30.675	-0.365	0.209
-620.376	-25.603	-0.104	-0.062
-619.361	-108.054	0.126	0.028
-618.346	-200.000	0.023	-0.121
-617.332	-44.535	0.294	0.149
-616.317	800.000	-0.082	0.230
-615.303	-17.472	0.175	0.112
-614.288	-130.582	-0.240	0.033
-613.273	63.664	-0.092	0.094
-612.259	-200.000	0.021	0.158
-611.244	-23.115	0.065	0.040
-610.230	121.972	-0.048	0.061
-609.215	379.288	0.084	-0.174
-608.201	-176.551	-0.294	-0.008
-607.186	-97.728	0.125	-0.033
-606.171	173.542	-0.105	-0.154
-605.157	-91.490	0.077	0.022
-604.142	476.347	0.077	0.175
-603.128	11.320	-0.335	-0.260
-602.113	-200.000	-0.003	0.048
-601.098	146.482	0.062	0.084
-600.084	77.663	0.236	-0.255
-599.069	172.565	-0.134	-0.195
-598.055	-200.000	-0.089	-0.463
-597.040	362.995	-0.187	-0.380
-596.025	-7.301	0.184	-0.126
-595.011	-200.000	-0.045	-0.292
-593.996	-200.000	0.011	-0.147
-592.982	800.000	0.070	0.275
-591.967	-66.128	0.176	-0.071
-590.952	-200.000	0.015	0.164
-589.938	-1.306	-0.134	-0.096
-588.923	15.486	-0.149	0.118
-587.909	-88.784	0.079	0.024
-586.894	188.324	0.111	0.167
-585.879	17.156	0.129	0.103
-584.865	552.942	0.047	-0.114
-583.850	61.007	0.220	0.220
-582.836	400.890	0.102	0.216
-581.821	238.823	0.059	0.098
-580.806	-200.000	-0.040	-0.292
-579.792	-35.907	0.303	0.166
-578.777	245.501	0.095	0.162
-577.763	12.718	-0.233	-0.182
-576.748	800.000	-0.044	0.134
-575.733	800.000	0.077	0.219
-574.719	96.982	-0.170	0.197
-573.704	46.560	-0.157	-0.147
-572.690	-168.056	0.163	-0.006
-571.675	-164.522	0.218	0.010
-570.661	31.479	-0.273	-0.237
-569.646	-128.809	0.118	0.017
-568.631	30.414	0.229	-0.198
-567.617	-122.268	-0.071	0.012
-566.602	46.514	-0.092	0.086
-565.588	-200.000	-0.053	0.337
-564.573	34.811	0.066	-0.058
-563.558	332.316	-0.131	0.255
-562.544	-25.744	0.188	0.112
-561.529	800.000	-0.090	-0.253
-560.515	-73.678	0.085	-0.031
-559.500	-15.177	0.022	0.014
-558.485	295.884	-0.071	0.131
-557.471	86.221	-0.089	-0.099
-556.456	-166.810	-0.393	-0.016
-555.442	139.170	0.233	0.310
-554.427	264.344	-0.119	-0.210
-553.412	-129.559	-0.340	0.047
-552.398	226.135	0.138	-0.226
-551.383	-41.173	0.119	0.062
-550.369	384.731	-0.020	0.041
-549.354	-9.677	-0.139	0.094
-548.339	297.280	-0.117	-0.216
-547.325	-149.864	-0.208	-0.016
-546.310	-139.670	0.250	0.027
-545.296	99.983	-0.254	0.297
-544.281	-200.000	-0.060	0.367
-543.266	800.000	0.145	0.408
-542.252	-200.000	-0.001	0.042
-541.237	-113.638	0.137	-0.027
-540.223	-35.685	0.144	-0.079
-539.208	-200.000	-0.029	-0.141
-538.193	-170.517	-0.168	0.006
-537.179	-97.666	-0.176	0.046
-536.164	4.536	-0.045	0.033
-535.150	9.663	-0.159	0.122
-534.135	200.563	-0.203	-0.315
-533.121	46.147	-0.158	0.148
-532.106	800.000	-0.052	-0.173
-531.091	-92.188	-0.360	-0.103
-530.077	-40.759	-0.164	0.086
-529.062	-200.000	0.022	0.118
-528.048	-28.517	-0.189	-0.110
-527.033	21.441	0.125	0.103
-526.018	-200.000	-0.005	0.286
-525.004	140.754	0.023	0.031
-523.989	722.166	-0.064	0.172
-522.975	32.634	-0.129	-0.113
-521.960	79.162	-0.081	-0.087
-520.945	79.879	-0.083	-0.090
-519.931	-59.461	0.119	-0.052
-518.916	71.107	0.271	0.284
-517.902	238.313	0.107	-0.180
-516.887	-200.000	0.012	-0.135
-515.872	28.392	0.099	0.085
-514.858	229.555	-0.148	-0.244
-513.843	800.000	-0.083	0.340
-512.829	-137.715	0.254	-0.029
-511.814	110.494	-0.101	0.122
-510.799	164.636	-0.130	-0.185
-509.785	22.189	0.104	0.086
-508.770	-75.634	0.225	0.081
-507.756	-200.000	-0.038	0.177
-506.741	-137.507	0.269	-0.031
-505.726	-110.435	0.207	-0.043
-504.712	-129.849	0.241	0.033
-503.697	-107.221	0.249	0.055
-502.683	800.000	-0.034	-0.125
-501.668	185.289	0.083	0.124
-500.653	60.737	-0.224	-0.224
-499.639	345.375	0.025	0.049
-498.624	800.000	-0.123	-0.502
-497.610	-104.082	0.240	-0.056
-496.595	-108.802	-0.270	0.058
-495.581	136.219	0.028	0.037
-494.566	-141.326	-0.181	-0.019
-493.551	208.131	-0.087	-0.137
-492.537	-27.172	-0.162	0.095
-491.522	-20.531	0.309	-0.191
-490.508	-101.160	-0.274	-0.068
-489.493	-157.219	0.104	0.006
-488.478	533.655	-0.120	-0.286
-487.464	29.247	0.340	-0.291
-486.449	800.000	-0.061	-0.242
-485.435	-50.922	-0.382	-0.181
-484.420	-86.513	-0.105	0.033
-483.405	-200.000	0.028	0.278
-482.391	800.000	0.063	0.192
-481.376	71.148	-0.167	-0.175
-480.362	-52.804	0.125	0.058
-479.347	800.000	0.157	0.444
-478.332	-200.000	-0.069	-0.321
-477.318	800.000	0.118	-0.374
-476.303	-52.106	0.283	0.132
-475.289	-47.446	0.115	0.056
-474.274	85.164	-0.250	-0.276
-473.259	-75.117	0.140	0.050
-472.245	68.589	0.129	0.133
-471.230	336.492	-0.107	-0.209
-470.216	-200.000	0.017	-0.136
-469.201	-111.616	0.366	-0.075
-468.186	-49.908	-0.232	-0.111
-467.172	-54.998	0.107	-0.049
-466.157	13.185	0.226	-0.176
-465.143	20.961	0.218	-0.178
-464.128	-1.525	0.085	0.061
-463.113	-133.750	0.023	-0.003
-462.099	58.487	0.260	0.257
-461.084	-6.606	-0.269	0.185
-460.070	356.379	-0.120	-0.241
-459.055	-62.355	-0.347	-0.145
-458.040	-200.000	0.026	0.132
-457.026	-147.782	0.364	-0.031
-456.011	559.758	-0.157	-0.381
-454.997	-108.406	-0.134	-0.029
-453.982	441.634	0.064	0.141
-452.968	-200.000	0.004	0.160
-451.953	207.084	-0.063	-0.099
-450.938	-200.000	-0.036	-0.373
-449.924	800.000	-0.029	0.086
-448.909	800.000	0.073	0.228
-447.895	800.000	-0.053	0.181
-446.880	-25.116	-0.224	0.134
-445.865	32.734	0.071	0.061
-444.851	-153.881	-0.212	-0.015
-443.836	338.159	0.061	0.120
-442.822	531.867	-0.121	0.287
-441.807	-7.240	-0.062	-0.042
-440.792	-200.000	0.026	0.147
-439.778	63.825	-0.067	-0.068
-438.763	-25.466	0.031	0.018
-437.749	-179.729	-0.071	0.002
-436.734	90.673	-0.057	0.064
-435.719	-50.843	-0.198	0.094
-434.705	-147.012	0.322	0.028
-433.690	-153.906	-0.202	0.014
-432.676	-126.404	-0.076	0.011
-431.661	529.123	-0.020	0.048
-430.646	-141.338	0.263	0.027
-429.632	43.768	-0.082	-0.076
-428.617	-151.533	0.208	-0.015
-427.603	133.861	0.284	0.369
-426.588	-200.000	-0.022	0.318
-425.573	800.000	-0.117	-0.402
-424.559	-200.000	-0.003	0.184
-423.544	800.000	0.066	-0.267
-422.530	52.199	-0.015	-0.014
-421.515	-134.179	0.208	-0.026
-420.500	109.334	0.188	-0.226
-419.486	-129.542	0.205	-0.028
-418.471	-200.000	0.022	-0.421
-417.457	-123.360	0.252	-0.040
-416.442	48.216	0.118	0.111
-415.428	-104.282	0.201	-0.047
-414.413	-35.061	-0.128	-0.070
-413.398	-200.000	-0.009	-0.042
-412.384	-3.070	-0.198	-0.139
-411.369	-200.000	0.058	-0.277
-410.355	-137.752	-0.188	-0.021
-409.340	30.597	0.236	-0.202
-408.325	220.391	-0.092	0.148
-407.311	83.583	-0.209	-0.229
-406.296	-33.957	-0.149	-0.083
-405.282	-97.670	-0.286	0.074
-404.267	-148.075	-0.206	-0.017
-403.252	800.000	0.032	0.121
-402.238	-50.455	0.265	0.125
-401.223	-43.651	-0.119	0.060
-400.209	450.543	-0.022	0.049
-399.194	-169.022	0.407	-0.015
-398.179	-42.430	0.216	-0.111
-397.165	800.000	0.003	-0.011
-396.150	-92.850	-0.246	0.069
-395.136	-200.000	-0.012	-0.165
-394.121	-170.502	0.122	0.004
-393.106	-57.131	-0.100	0.044
-392.092	-200.000	0.029	-0.361
-391.077	-151.628	0.027	-0.002
-390.063	87.538	-0.093	0.103
-389.048	800.000	-0.091	-0.315
-388.033	63.061	-0.187	0.188
-387.019	154.266	0.170	0.234
-386.004	-88.296	-0.155	-0.046
-384.990	45.285	0.143	0.132
-383.975	-200.000	0.034	-0.212
-382.960	88.222	0.119	0.133
-381.946	-123.312	-0.328	0.053
-380.931	-69.336	0.177	-0.068
-379.917	-8.651	0.175	-0.118
-378.902	-200.000	0.004	-0.310
-377.888	34.745	0.080	0.070
-376.873	-91.899	-0.195	-0.055
-375.858	-200.000	-0.047	-0.292
-374.844	-70.086	-0.153	0.058
-373.829	-45.702	0.056	0.028
-372.815	103.959	-0.251	0.295
-371.800	489.423	0.078	0.179
-370.785	80.714	-0.078	0.084
-369.771	-200.000	-0.068	0.353
-368.756	800.000	-0.033	-0.100
-367.742	-95.833	-0.134	0.036
-366.727	-7.629	-0.183	0.124
-365.712	-116.179	-0.197	0.037
-364.698	702.151	0.101	-0.268
-363.683	227.829	-0.093	0.151
-362.669	800.000	0.028	-0.115
-361.654	-59.805	-0.214	-0.092
-360.639	-177.710	0.468	0.011
-359.625	800.000	0.082	-0.317
-358.610	350.633	0.131	-0.261
-357.596	-200.000	0.029	-0.395
-356.581	242.548	-0.169	0.284
-355.566	800.000	-0.016	0.044
-354.552	-120.128	0.151	0.026
-353.537	-200.000	-0.003	0.360
-352.523	87.749	0.057	-0.064
-351.508	-200.000	-0.044	-0.245
-350.493	372.751	-0.044	-0.090
-349.479	115.929	0.153	-0.188
-348.464	-200.000	-0.034	0.336
-347.450	23.585	-0.151	0.125
-346.435	800.000	0.056	0.203
-345.420	-200.000	-0.024	-0.121
-344.406	-75.923	-0.243	0.086
-343.391	-101.674	-0.290	0.070
-342.377	-162.472	0.478	0.024
-341.362	-13.989	-0.407	0.263
-340.348	-48.289	-0.003	-0.002
-339.333	-161.682	0.323	-0.017
-338.318	-200.000	0.002	0.118
-337.304	800.000	0.088	0.246
-336.289	68.314	0.317	-0.325
-335.275	138.350	0.230	-0.302
-334.260	-200.000	-0.001	0.175
-333.245	31.228	-0.107	0.092
-332.231	-134.269	-0.135	-0.017
-331.216	800.000	0.035	0.150
-330.202	-200.000	-0.001	0.243
-329.187	224.919	-0.175	0.284
-328.172	800.000	-0.037	0.156
-327.158	-47.764	-0.141	0.068
-326.143	-14.767	-0.200	0.128
-325.129	-158.613	-0.209	-0.012
-324.114	-82.694	-0.205	0.066
-323.099	557.749	0.179	-0.433
-322.085	800.000	-0.067	0.245
-321.070	91.376	0.046	0.051
-320.056	-200.000	0.006	-0.137
-319.041	8.696	-0.090	0.068
-318.026	-123.048	0.272	-0.044
-317.012	290.016	0.224	0.407
-315.997	547.271	-0.081	0.193
-314.983	408.362	0.106	0.225
-313.968	-200.000	-0.016	-0.186
-312.953	800.000	0.025	0.077
-311.939	-71.457	0.190	-0.071
-310.924	800.000	-0.030	-0.101
-309.910	169.454	0.293	-0.418
-308.895	-127.011	0.256	-0.038
-307.880	-17.710	-0.132	0.083
-306.866	-73.587	-0.148	-0.054
-305.851	-200.000	0.013	0.292
-304.837	-40.836	0.205	0.106
-303.822	-200.000	-0.035	0.350
-302.807	-94.926	0.315	-0.085
-301.793	10.059	-0.098	0.074
-300.778	4.420	-0.160	-0.118
-299.764	179.070	-0.136	-0.199
-298.749	-200.000	0.001	-0.383
-297.735	744.956	-0.106	-0.286
-296.720	800.000	-0.077	-0.215
-295.705	-98.730	-0.264	-0.067
-294.691	800.000	0.122	0.424
-293.676	156.174	-0.159	0.219
-292.662	-5.437	0.039	-0.027
-291.647	24.496	-0.070	-0.058
-290.632	371.762	0.036	-0.074
-289.618	-58.394	-0.356	-0.155
-288.603	-143.159	-0.192	-0.018
-287.589	136.820	0.108	-0.141
-286.574	91.985	-0.204	0.230
-285.559	-31.726	0.144	0.081
-284.545	8.196	0.261	0.196
-283.530	-200.000	0.031	0.166
-282.516	88.445	-0.051	-0.057
-281.501	-105.845	0.208	-0.047
-280.486	-200.000	0.022	0.298
-279.472	-68.896	0.054	0.021
-278.457	-65.211	-0.382	0.154
-277.443	-164.440	0.265	0.012
-276.428	-5.320	-0.060	-0.041
-275.413	578.227	-0.107	0.261
-274.399	-84.895	0.207	0.065
-273.384	-121.854	0.279	-0.046
-272.370	-200.000	0.011	0.189
-271.355	800.000	0.098	0.375
-270.340	-200.000	0.037	0.283
-269.326	-200.000	0.029	-0.201
-268.311	86.342	0.052	0.057
-267.297	800.000	0.025	0.074
-266.282	-63.966	-0.141	0.057
-265.267	-146.904	-0.072	-0.006
-264.253	-200.000	0.012	-0.231
-263.238	40.603	-0.119	-0.107
-262.224	14.591	-0.150	0.117
-261.209	155.908	-0.179	0.247
-260.195	-117.635	-0.446	0.080
-259.180	-110.553	0.070	0.014
-258.165	-24.326	0.198	-0.118
-257.151	800.000	-0.042	0.118
-256.136	738.770	-0.070	-0.188
-255.122	555.162	0.058	-0.139
-254.107	-81.330	0.182	0.060
-253.092	256.284	-0.031	0.053
-252.078	800.000	0.113	0.406
-251.063	-200.000	0.029	0.000
-250.049	56.049	0.137	0.132
-249.034	114.303	-0.148	0.180
-248.019	-57.106	0.202	-0.089
-247.005	435.765	-0.051	-0.111
-245.990	359.339	0.090	-0.180
-244.976	102.564	-0.121	0.142
-243.961	-200.000	-0.046	0.206
-242.946	800.000	-0.113	-0.424
-241.932	1.913	-0.193	0.139
-240.917	762.236	0.048	0.130
-239.903	591.041	-0.122	-0.300
-238.888	-75.957	-0.085	-0.030
-237.873	-200.000	-0.008	-0.250
-236.859	137.920	-0.310	-0.405
-235.844	247.634	-0.089	0.150
-234.830	63.098	0.097	-0.097
-233.815	26.852	-0.370	0.309
-232.800	800.000	0.050	0.168
-231.786	108.535	0.075	-0.090
-230.771	-200.000	0.048	0.304
-229.757	12.658	0.150	-0.115
-228.742	-200.000	-0.006	0.038
-227.727	487.343	0.154	-0.350
-226.713	-200.000	0.048	0.212
-225.698	-73.697	-0.505	0.183
-224.684	-200.000	-0.002	-0.199
-223.669	-161.458	0.193	0.010
-222.655	800.000	-0.088	-0.356
-221.640	60.415	0.241	-0.238
-220.625	23.194	-0.113	0.092
-219.611	336.379	0.073	-0.141
-218.596	46.750	0.060	0.055
-217.582	-200.000	-0.036	-0.197
-216.567	-39.898	0.120	-0.063
-215.552	35.540	-0.198	0.174
-214.538	-0.742	-0.072	0.051
-213.523	100.088	0.114	-0.132
-212.509	-8.422	0.066	-0.044
-211.494	-132.508	0.497	0.064
-210.479	173.748	-0.251	-0.360
-209.465	-144.364	0.067	0.006
-208.450	-44.585	-0.150	0.075
-207.436	6.836	0.072	-0.054
-206.421	33.126	0.109	-0.094
-205.406	331.893	-0.108	0.207
-204.392	181.086	0.148	-0.216
-203.377	-200.000	0.030	0.309
-202.363	553.807	-0.064	-0.154
-201.348	-200.000	0.006	-0.162
-200.333	-71.922	0.262	-0.097
-199.319	-200.000	-0.003	0.071
-198.304	-7.771	0.264	-0.178
-197.290	133.620	-0.191	-0.247
-196.275	689.093	0.142	-0.369
-195.260	-157.278	0.225	-0.014
-194.246	94.473	-0.205	0.232
-193.231	134.934	-0.173	-0.223
-192.217	392.052	0.178	0.368
-191.202	-104.990	-0.268	-0.061
-190.187	224.760	-0.118	-0.190
-189.173	-118.532	-0.211	0.037
-188.158	800.000	0.051	-0.211
-187.144	-82.138	-0.107	-0.035
-186.129	68.375	0.076	0.077
-185.114	-95.486	0.190	-0.051
-184.100	800.000	-0.037	0.122
-183.085	92.138	0.155	0.173
-182.071	142.124	-0.269	0.355
-181.056	42.262	0.223	-0.201
-180.042	-25.344	-0.076	-0.045
-179.027	-75.520	-0.080	0.028
-178.012	-88.284	-0.164	-0.049
-176.998	-200.000	0.025	-0.137
-175.983	-150.244	0.385	0.030
-174.969	-115.116	-0.213	0.040
-173.954	-200.000	-0.015	0.066
-172.939	131.375	0.278	-0.355
-171.925	-2.924	-0.117	-0.081
-170.910	-55.124	0.176	-0.079
-169.896	263.981	0.127	0.220
-168.881	800.000	-0.108	-0.361
-167.866	467.219	0.032	0.072
-166.852	-101.526	0.187	0.045
-165.837	-200.000	0.017	0.172
-164.823	-121.092	-0.252	0.042
-163.808	9.345	0.218	0.164
-162.793	13.969	-0.072	0.056
-161.779	727.530	0.049	-0.130
-160.764	-190.130	0.346	0.004
-159.750	-103.977	0.311	0.072
-158.735	118.952	0.145	0.178
-157.720	800.000	0.076	0.239
-156.706	800.000	-0.058	0.179
-155.691	-67.884	0.293	0.114
-154.677	-200.000	0.000	0.016
-153.662	-78.400	0.247	-0.084
-152.647	-200.000	0.037	-0.187
-151.633	-200.000	-0.003	-0.220
-150.618	-68.328	-0.082	-0.032
-149.604	393.057	-0.043	0.088
-148.589	800.000	0.020	0.066
-147.574	-79.589	-0.192	0.065
-146.560	-107.438	0.130	-0.028
-145.545	800.000	-0.027	0.085
-144.531	-200.000	0.019	0.265
-143.516	-200.000	-0.019	-0.092
-142.502	800.000	-0.082	-0.290
-141.487	-49.801	0.200	-0.094
-140.472	61.970	-0.144	-0.143
-139.458	71.758	0.272	-0.281
-138.443	15.310	0.294	0.229
-137.429	-34.314	0.263	-0.143
-136.414	-200.000	-0.033	-0.380
-135.399	144.412	-0.073	-0.096
-134.385	800.000	0.044	0.135
-133.370	-46.234	0.198	-0.097
-132.356	94.952	-0.127	-0.144
-131.341	-55.441	0.157	-0.070
-130.326	-49.445	0.113	0.053
-129.312	-125.887	0.289	-0.043
-128.297	88.583	0.067	0.074
-127.283	507.692	0.133	0.308
-126.268	800.000	0.082	0.240
-125.253	-191.626	-0.204	-0.002
-124.239	135.986	0.054	0.070
-123.224	88.678	0.039	0.043
-122.210	41.507	0.077	-0.069
-121.195	460.096	-0.116	0.257
-120.180	-93.591	-0.174	0.048
-119.166	-21.168	0.164	0.100
-118.151	108.926	0.104	-0.124
-117.137	800.000	0.043	-0.157
-116.122	-200.000	-0.010	-0.146
-115.107	21.803	0.147	0.119
-114.093	-45.107	-0.247	-0.122
-113.078	800.000	0.060	-0.166
-112.064	-148.688	0.259	0.021
-111.049	-200.000	-0.009	-0.189
-110.034	800.000	0.076	0.248
-109.020	205.669	0.124	-0.192
-108.005	102.840	0.163	0.190
-106.991	58.846	0.295	-0.288
-105.976	172.578	0.248	0.355
-104.962	-49.918	-0.068	-0.032
-103.947	480.858	0.045	-0.101
-102.932	-187.216	-0.236	0.003
-101.918	54.861	0.168	0.161
-100.903	-90.296	0.373	0.107
-99.889	147.639	-0.166	-0.221
-98.874	93.042	0.195	0.219
-97.859	76.361	-0.263	0.276
-96.845	162.365	-0.165	-0.230
-95.830	160.930	0.123	-0.171
-94.816	-90.659	-0.395	0.113
-93.801	204.317	-0.072	-0.110
-92.786	-200.000	0.026	0.278
-91.772	121.462	-0.098	-0.121
-90.757	60.498	0.163	-0.160
-89.743	145.624	0.071	-0.094
-88.728	795.399	0.088	-0.240
-87.713	-200.000	-0.007	-0.248
-86.699	525.577	-0.081	0.189
-85.684	2.450	-0.123	0.088
-84.670	1.706	0.332	-0.237
-83.655	800.000	-0.052	0.144
-82.640	-200.000	-0.009	0.042
-81.626	-200.000	0.015	-0.122
-80.611	-29.870	0.268	0.151
-79.597	-78.321	0.141	0.048
-78.582	55.018	0.177	-0.170
-77.567	-98.637	0.185	-0.047
-76.553	-96.142	-0.119	-0.031
-75.538	768.204	0.034	0.091
-74.524	800.000	-0.027	-0.077
-73.509	800.000	0.049	0.165
-72.494	-25.614	0.068	0.040
-71.480	-112.890	0.072	0.014
-70.465	524.986	0.060	0.140
-69.451	-74.447	-0.406	-0.145
-68.436	21.467	-0.289	0.233
-67.422	-107.774	0.460	-0.099
-66.407	-155.885	-0.222	0.014
-65.392	305.953	0.022	-0.040
-64.378	-200.000	-0.018	0.336
-63.363	-113.120	-0.200	0.039
-62.349	6.352	-0.077	0.056
-61.334	102.719	-0.826	-0.958
-60.319	40.177	0.421	0.375
-59.305	-200.000	-0.108	-0.694
-58.290	94.544	0.521	0.587
-57.276	739.834	0.513	1.365
-56.261	-200.000	91.697	535.857
-55.246	485.389	1413.720	3189.710
-54.232	144.930	2629.432	3482.363
-53.217	110.932	2232.164	2661.300
-52.203	46.595	1672.025	1537.066
-51.188	38.678	1402.058	1239.049
-50.173	35.457	1359.245	1181.376
-49.159	54.856	1405.451	1343.352
-48.144	58.608	1423.443	1383.974
-47.130	39.029	1379.424	1221.032
-46.115	35.501	1361.360	1183.302
-45.100	35.168	1357.264	1177.647
-44.086	35.138	1354.544	1175.054
-43.071	35.126	1352.336	1173.016
-42.057	35.030	1349.889	1170.264
-41.042	35.149	1347.779	1169.117
-40.027	35.182	1346.499	1168.160
-39.013	35.217	1344.232	1166.359
-37.998	35.278	1342.592	1165.258
-36.984	35.275	1340.807	1163.648
-35.969	35.313	1338.862	1162.140
-34.954	35.328	1337.173	1160.721
-33.940	35.380	1335.801	1159.797
-32.925	35.407	1334.609	1158.879
-31.911	35.468	1332.662	1157.511
-30.896	35.433	1331.269	1156.044
-29.881	35.386	1329.890	1154.521
-28.867	35.400	1328.197	1153.086
-27.852	35.537	1326.606	1152.486
-26.838	35.429	1325.604	1150.920
-25.823	35.386	1324.517	1149.670
-24.809	35.408	1322.931	1148.383
-23.794	35.426	1321.253	1146.988
-22.779	35.424	1319.703	1145.583
-21.765	35.448	1318.305	1144.466
-20.750	35.388	1317.623	1143.472
-19.736	35.247	1316.245	1141.395
-18.721	35.383	1314.509	1140.651
-17.706	35.254	1313.632	1139.078
-16.692	35.244	1312.642	1138.113
-15.677	35.330	1310.973	1137.135
-14.663	35.198	1310.277	1135.702
-13.648	35.131	1309.358	1134.462
-12.633	35.116	1308.024	1133.170
-11.619	35.230	1307.300	1133.175
-10.604	35.184	1306.414	1132.090
-9.590	35.167	1305.273	1130.959
-8.575	35.149	1304.437	1130.081
-7.560	35.165	1303.794	1129.575
-6.546	35.060	1303.227	1128.419
-5.531	35.128	1302.174	1127.864
-4.517	35.227	1300.617	1127.049
-3.502	35.240	1299.902	1126.465
-2.487	35.178	1298.795	1125.098
-1.473	35.392	1294.966	1122.988
-0.458	34.646	1280.563	1106.130
0.556	30.150	1263.343	1070.836
1.571	26.539	1269.697	1055.120
2.586	25.555	1284.447	1061.475
3.600	24.468	1273.656	1046.099
4.615	21.090	1202.560	968.892
5.629	15.572	1128.819	880.556
6.644	12.718	1108.853	850.189
7.659	12.560	1105.952	847.075
8.673	12.558	1104.369	845.782
9.688	12.444	1103.305	844.306
10.702	12.872	1101.702	845.198
11.717	16.394	1106.907	867.223
12.731	20.334	1111.141	890.725
13.746	19.580	1109.539	885.499
14.761	17.822	1106.250	873.798
15.775	16.649	1103.585	865.621
16.790	15.586	1101.837	858.745
17.804	14.760	1099.991	853.011
18.819	14.370	1098.398	849.712
19.834	13.916	1097.905	846.942
20.848	13.737	1096.829	845.121
21.863	13.612	1095.870	843.671
22.877	13.421	1094.809	841.813
23.892	13.391	1094.293	841.187
24.907	13.383	1093.338	840.338
25.921	13.412	1092.556	839.808
26.936	13.545	1090.984	839.199
27.950	13.447	1089.914	837.806
28.965	13.552	1088.141	836.901
29.980	13.726	1086.152	836.177
30.994	13.598	1085.428	834.896
32.009	13.672	1084.230	834.277
33.023	13.617	1083.518	833.377
34.038	13.563	1082.398	832.170
35.053	13.611	1081.237	831.444
36.067	13.570	1080.597	830.675
37.082	13.528	1079.984	829.917
38.096	13.628	1078.827	829.458
39.111	13.582	1078.252	828.709
40.126	13.568	1076.698	827.372
41.140	13.463	1075.125	825.570
42.155	13.456	1074.213	824.758
43.169	13.305	1073.796	823.615
44.184	13.317	1072.754	822.803
45.199	13.418	1070.875	821.788
46.213	13.479	1070.082	821.413
47.228	13.453	1069.231	820.556
48.242	13.518	1068.137	819.969
49.257	13.528	1066.996	819.069
50.271	13.473	1066.476	818.327
51.286	13.491	1065.334	817.464
52.301	13.485	1064.653	816.838
53.315	13.445	1063.117	815.390
54.330	13.406	1062.340	814.533
55.344	13.454	1061.099	813.745
56.359	13.368	1060.380	812.700
57.374	13.413	1059.622	812.268
58.388	13.287	1058.854	810.986
59.403	13.405	1057.862	810.737
60.417	13.326	1057.132	809.719
61.432	13.283	1056.087	808.633
62.447	13.279	1055.576	808.152
63.461	13.323	1053.957	807.058
64.476	13.262	1053.419	806.275
65.490	13.194	1052.728	805.343
66.505	13.281	1052.034	805.167
67.520	13.505	1050.935	805.343
68.534	13.383	1050.420	804.282
69.549	13.350	1049.609	803.431
70.563	13.393	1048.620	802.813
71.578	13.293	1048.043	801.812
72.593	13.250	1047.565	801.167
73.607	13.217	1046.895	800.424
74.622	13.247	1046.273	800.025
75.636	13.236	1045.457	799.277
76.651	13.172	1044.858	798.440
77.666	13.274	1044.019	798.221
78.680	13.245	1043.384	797.522
79.695	13.130	1042.952	796.570
80.709	13.239	1042.068	796.344
81.724	13.399	1041.003	796.233
82.739	13.461	1040.363	795.971
83.753	13.544	1039.331	795.509
84.768	13.611	1038.162	794.864
85.782	13.686	1037.410	794.580
86.797	13.527	1036.517	793.066
87.812	13.457	1035.711	792.042
88.826	13.474	1034.731	791.301
89.841	13.467	1034.065	790.693
90.855	13.564	1032.885	790.183
91.870	13.641	1032.143	789.911
92.884	13.627	1031.585	789.347
93.899	13.691	1030.205	788.528
94.914	13.557	1029.715	787.443
95.928	13.674	1028.630	787.101
96.943	13.540	1027.993	785.909
97.957	13.565	1026.950	785.159
98.972	13.563	1026.235	784.534
99.987	13.577	1025.129	783.686
101.001	13.613	1024.194	783.069
102.016	13.537	1023.340	781.989
103.030	13.549	1023.078	781.778
104.045	13.707	1021.889	781.543
105.060	13.576	1020.803	780.030
106.074	13.478	1020.097	778.958
107.089	13.408	1018.911	777.654
108.103	13.421	1017.874	776.856
109.118	13.412	1017.168	776.204
110.133	13.307	1016.696	775.285
111.147	13.385	1015.655	774.789
112.162	13.410	1014.606	774.036
113.176	13.455	1013.971	773.694
114.191	13.540	1012.971	773.257
115.206	13.516	1012.108	772.420
116.220	13.379	1011.636	771.350
117.235	13.452	1010.317	770.618
118.249	13.360	1009.867	769.778
119.264	13.467	1008.737	769.348
120.279	13.447	1008.116	768.709
121.293	13.423	1006.933	767.631
122.308	13.379	1006.069	766.701
123.322	13.431	1004.869	765.957
124.337	13.383	1003.880	764.912
125.352	13.457	1002.760	764.336
126.366	13.399	1001.838	763.295
127.381	13.490	1000.808	762.863
128.395	13.467	1000.158	762.194
129.410	13.479	999.354	761.569
130.424	13.481	998.668	760.987
131.439	13.645	997.387	760.696
132.454	13.442	997.074	759.459
133.468	13.645	995.980	759.491
134.483	13.681	995.473	759.202
135.497	13.713	994.256	758.354
136.512	13.573	993.396	756.991
137.527	13.713	992.188	756.641
138.541	13.554	992.257	755.904
139.556	13.642	991.237	755.461
140.570	13.616	990.530	754.735
141.585	13.668	990.059	754.544
142.600	13.684	989.094	753.815
143.614	13.786	988.020	753.395
144.629	13.790	987.271	752.776
145.643	13.577	986.936	751.489
146.658	13.744	985.380	750.993
147.673	13.625	984.345	749.599
148.687	13.662	983.511	749.063
149.702	13.543	982.879	747.980
150.716	13.521	982.204	747.301
151.731	13.534	981.299	746.602
152.746	13.698	980.344	746.548
153.760	13.641	980.264	746.168
154.775	13.636	979.370	745.396
155.789	13.727	978.674	745.211
156.804	13.769	978.100	744.896
157.819	13.697	977.823	744.295
158.833	13.788	976.970	743.989
159.848	13.842	975.677	743.180
160.862	13.860	974.778	742.510
161.877	13.702	973.873	741.048
162.892	13.746	972.505	740.141
163.906	13.614	972.016	739.114
164.921	13.688	971.233	738.782
165.935	13.716	969.982	737.888
166.950	13.767	969.233	737.482
167.964	13.697	968.358	736.438
168.979	13.778	967.294	735.925
169.994	13.810	966.283	735.233
171.008	13.773	966.017	734.800
172.023	13.765	965.075	733.984
173.037	13.884	964.294	733.851
174.052	13.790	963.710	732.925
175.067	13.772	963.125	732.339
176.081	13.766	962.646	731.883
177.096	13.922	961.411	731.566
178.110	13.852	960.865	730.775
179.125	13.906	960.498	730.672
180.140	13.879	959.872	730.010
181.154	13.973	959.299	729.922
182.169	13.948	959.060	729.567
183.183	14.048	958.128	729.234
184.198	14.031	957.377	728.521
185.213	14.073	956.504	727.979
186.227	14.184	955.836	727.890
187.242	14.163	955.320	727.339
188.256	14.219	954.930	727.224
189.271	14.062	953.710	725.545
190.286	14.073	952.974	724.967
191.300	13.822	952.500	723.451
192.315	13.766	951.720	722.550
193.329	13.777	951.063	722.036
194.344	13.903	950.806	722.322
195.359	13.996	949.724	721.843
196.373	14.077	949.285	721.796
197.388	14.191	948.588	721.696
198.402	14.221	948.128	721.415
199.417	14.223	947.576	720.936
200.432	14.295	946.907	720.675
201.446	14.299	946.625	720.415
202.461	14.248	946.368	719.934
203.475	14.415	945.411	719.865
204.490	14.277	944.456	718.482
205.504	14.292	943.636	717.855
206.519	14.320	942.979	717.412
207.534	14.317	942.532	716.998
208.548	14.289	941.509	716.036
209.563	14.319	940.822	715.580
210.577	14.364	940.432	715.411
211.592	14.482	939.111	714.850
212.607	14.499	938.715	714.556
213.621	14.398	938.284	713.732
214.636	14.343	937.593	712.909
215.650	14.418	936.845	712.598
216.665	14.580	935.746	712.390
217.680	14.565	935.076	711.756
218.694	14.532	934.549	711.148
219.709	14.530	933.954	710.627
220.723	14.543	933.377	710.180
221.738	14.602	932.427	709.644
222.753	14.481	932.081	708.803
223.767	14.637	931.294	708.803
224.782	14.607	930.880	708.302
225.796	14.693	930.353	708.200
226.811	14.728	929.155	707.376
227.826	14.649	928.518	706.491
228.840	14.692	927.698	705.990
229.855	14.592	926.995	704.968
230.869	14.555	926.380	704.283
231.884	14.640	925.688	704.052
232.899	14.600	924.755	703.110
233.913	14.623	924.111	702.655
234.928	14.573	923.785	702.136
235.942	14.527	923.111	701.367
236.957	14.507	922.110	700.463
237.972	14.720	921.506	700.835
238.986	14.666	920.823	700.025
240.001	14.570	920.444	699.273
241.015	14.794	919.646	699.546
242.030	14.744	919.365	699.058
243.045	14.682	918.994	698.455
244.059	14.932	917.801	698.532
245.074	14.706	917.072	696.974
246.088	14.793	916.545	696.871
247.103	14.834	915.902	696.495
248.117	14.915	915.613	696.549
249.132	15.006	915.220	696.566
250.147	15.054	914.225	695.949
251.161	15.217	913.286	695.849
252.176	15.184	912.592	695.121
253.190	15.148	912.159	694.582
254.205	15.067	911.540	693.711
255.220	15.164	910.647	693.374
256.234	15.315	910.005	693.445
257.249	15.109	909.462	692.121
258.263	15.089	908.804	691.475
259.278	15.236	907.573	691.083
260.293	15.190	907.412	690.712
261.307	15.361	906.733	690.838
262.322	15.332	906.006	690.102
263.336	15.429	905.374	689.959
264.351	15.292	904.919	688.989
265.366	15.351	904.162	688.593
266.380	15.312	903.534	687.896
267.395	15.362	902.765	687.453
268.409	15.409	901.750	686.812
269.424	15.379	901.003	686.061
270.439	15.339	900.143	685.180
271.453	15.300	899.634	684.574
272.468	15.263	899.104	683.958
273.482	15.413	898.332	683.923
274.497	15.325	897.971	683.228
275.512	15.414	897.456	683.136
276.526	15.319	897.105	682.422
277.541	15.524	896.204	682.511
278.555	15.364	895.468	681.242
279.570	15.530	895.194	681.646
280.585	15.515	894.461	680.965
281.599	15.595	893.507	680.505
282.614	15.536	892.729	679.611
283.628	15.592	892.223	679.392
284.643	15.540	891.578	678.632
285.657	15.455	891.079	677.847
286.672	15.584	890.327	677.739
287.687	15.700	889.318	677.378
288.701	15.584	889.360	676.880
289.716	15.620	888.779	676.523
290.730	15.721	887.919	676.216
291.745	15.598	887.588	675.410
292.760	15.737	886.830	675.330
293.774	15.800	885.979	674.877
294.789	15.722	885.596	674.212
295.803	15.820	884.766	673.915
296.818	15.767	884.074	673.114
297.833	15.672	883.581	672.298
298.847	15.780	882.938	672.184
299.862	15.776	882.194	671.542
300.876	15.808	881.938	671.414
301.891	15.889	881.358	671.234
302.906	15.927	880.578	670.732
303.920	15.952	880.063	670.380
304.935	15.833	879.598	669.496
305.949	16.018	878.460	669.306
306.964	15.947	878.168	668.739
307.979	16.068	877.445	668.612
308.993	16.141	876.836	668.375
310.008	15.990	876.586	667.528
311.022	16.032	875.821	667.052
312.037	15.991	875.196	666.355
313.052	15.918	874.671	665.609
314.066	15.924	873.831	664.934
315.081	15.953	873.178	664.495
316.095	15.940	872.840	664.125
317.110	15.827	872.332	663.236
318.125	15.940	871.983	663.357
319.139	15.925	871.299	662.720
320.154	15.906	871.191	662.502
321.168	15.970	870.254	661.985
322.183	16.164	869.258	661.928
323.197	16.014	868.876	660.992
324.212	15.976	868.824	660.743
325.227	16.001	868.268	660.359
326.241	16.007	867.606	659.821
327.256	16.041	866.909	659.365
328.270	16.097	866.239	659.017
329.285	16.065	865.963	658.625
330.300	15.944	865.057	657.405
331.314	16.105	864.582	657.612
332.329	16.192	863.995	657.447
333.343	16.117	863.822	656.967
334.358	16.195	863.280	656.800
335.373	16.280	862.626	656.575
336.387	16.233	862.461	656.207
337.402	16.296	862.229	656.218
338.416	16.413	861.773	656.266
339.431	16.311	861.356	655.496
340.446	16.439	860.923	655.605
341.460	16.367	860.679	655.080
342.475	16.573	860.076	655.364
343.489	16.528	859.449	654.652
344.504	16.647	858.983	654.702
345.519	16.565	858.596	654.032
346.533	16.665	858.122	653.998
347.548	16.516	857.426	652.835
348.562	16.375	857.133	652.007
349.577	16.467	856.610	651.909
350.592	16.400	856.000	651.127
351.606	16.271	855.334	650.067
352.621	16.529	854.328	650.237
353.635	16.464	853.867	649.580
354.650	16.583	853.334	649.573
355.665	16.592	852.405	648.844
356.679	16.583	851.897	648.363
357.694	16.577	851.263	647.803
358.708	16.601	850.744	647.439
359.723	16.625	850.221	647.077
360.738	16.676	849.591	646.737
361.752	16.727	848.571	646.097
362.767	16.676	848.143	645.520
363.781	16.731	847.790	645.404
364.796	16.839	847.280	645.369
365.810	16.752	847.135	644.872
366.825	16.898	846.907	645.194
367.840	16.917	846.099	644.595
368.854	16.869	845.502	643.899
369.869	16.872	845.119	643.565
370.883	16.935	844.438	643.229
371.898	16.921	844.422	643.104
372.913	16.892	844.206	642.772
373.927	17.065	843.010	642.459
374.942	17.023	842.995	642.234
375.956	16.988	842.622	641.760
376.971	17.067	842.051	641.568
377.986	17.256	841.261	641.623
379.000	17.238	840.796	641.142
380.015	17.245	840.374	640.791
381.029	17.142	839.929	640.008
382.044	17.151	839.062	639.321
383.059	17.240	838.363	639.067
384.073	17.147	838.166	638.513
385.088	17.077	837.806	637.919
386.102	17.219	836.515	637.410
387.117	17.170	835.969	636.755
388.132	17.109	835.772	636.320
389.146	17.163	835.084	635.942
390.161	17.225	834.913	635.987
391.175	17.252	834.164	635.464
392.190	17.354	833.467	635.256
393.205	17.116	832.876	633.861
394.219	17.176	833.017	634.137
395.234	17.179	832.450	633.659
396.248	17.160	831.979	633.174
397.263	17.233	831.524	633.043
398.278	17.172	831.439	632.697
399.292	17.243	830.921	632.511
400.307	17.159	830.298	631.667
401.321	17.224	829.670	631.375
402.336	17.235	829.794	631.454
403.350	17.242	829.036	630.848
404.365	17.269	828.356	630.373
405.380	17.424	828.072	630.679
406.394	17.532	827.319	630.447
407.409	17.438	827.092	629.873
408.423	17.648	826.397	630.062
409.438	17.608	826.325	629.804
410.453	17.651	825.847	629.544
411.467	17.711	825.280	629.276
412.482	17.667	824.929	628.790
413.496	17.643	824.564	628.368
414.511	17.542	824.685	628.034
415.526	17.739	823.506	627.803
416.540	17.684	823.186	627.301
417.555	17.737	822.886	627.215
418.569	17.747	822.089	626.589
419.584	17.847	821.506	626.456
420.599	17.796	821.294	626.048
421.613	101.787	1284.278	1434.362
422.628	87.866	1351.726	1434.454
