DTS Sentinel unit serial number:	SN413079Multiplexer serial number:	ORYXHardware model number:	OX4-SRSoftware version number:	ORYX F/W v4.00 Oryx Data Collector v3.7.2.0data status	okinstallation	princeton_trtdifferential loss correction	single-endedforward channel	channel 1reverse channel	N/Adate	2019/09/19time	04:54:35forward acquisition time	60.00reverse acquisition time	0.00gamma	496.2192k internal	0.2343k external	0.2343temperature offset calibration	1.0016default loss term (dB/km)	0.3790temperature slope calibration	1.0000multiplexer offset coefficient	1.0000multiplexer slope coefficient	1.0000fibre end	0.00T internal ref (°C)	19.80T ext. ref 1 (°C)	0.60T ext. ref 2 (°C)	13.07length (m)	temperature (°C)	Stokes	anti-Stokes-747.200	264.218	0.133	-0.231
-746.185	-200.000	-0.019	0.229
-745.171	4.896	-0.388	0.286
-744.156	17.024	-0.104	0.082
-743.142	800.000	0.151	0.435
-742.127	144.284	-0.098	0.131
-741.112	-50.685	0.073	0.034
-740.098	-75.352	-0.158	0.056
-739.083	-200.000	0.039	0.262
-738.069	556.510	-0.045	-0.108
-737.054	136.005	-0.246	0.321
-736.039	-52.876	-0.134	0.062
-735.025	800.000	0.206	0.708
-734.010	800.000	0.101	-0.297
-732.996	-171.664	-0.255	-0.008
-731.981	-141.478	-0.167	0.017
-730.966	151.100	-0.216	-0.294
-729.952	-8.578	-0.331	-0.222
-728.937	-52.956	-0.134	-0.062
-727.923	-52.783	-0.224	0.103
-726.908	-21.308	-0.348	-0.213
-725.894	1.354	0.159	-0.114
-724.879	800.000	0.079	-0.271
-723.864	-200.000	-0.020	-0.241
-722.850	-126.242	-0.124	-0.019
-721.835	-106.493	-0.141	-0.031
-720.821	3.563	0.027	-0.020
-719.806	-57.255	0.229	-0.101
-718.791	800.000	-0.103	-0.301
-717.777	505.780	-0.123	-0.286
-716.762	-15.544	0.178	-0.114
-715.748	113.678	-0.207	0.251
-714.733	-200.000	-0.061	-0.394
-713.718	800.000	-0.084	-0.364
-712.704	470.874	-0.192	0.432
-711.689	-51.227	0.293	-0.137
-710.675	-19.491	-0.070	-0.043
-709.660	235.124	-0.160	0.264
-708.645	-61.534	0.051	0.021
-707.631	-200.000	-0.009	-0.151
-706.616	-112.898	0.215	0.043
-705.602	3.405	0.231	-0.168
-704.587	44.199	-0.032	0.030
-703.572	-75.828	-0.060	-0.021
-702.558	800.000	-0.094	0.305
-701.543	-200.000	-0.034	-0.193
-700.529	-70.275	-0.047	0.018
-699.514	800.000	-0.081	0.329
-698.499	153.637	-0.180	0.247
-697.485	-53.807	-0.289	0.132
-696.470	-88.221	0.398	-0.119
-695.456	59.786	-0.093	-0.091
-694.441	800.000	0.090	-0.265
-693.426	740.996	-0.078	-0.210
-692.412	-117.542	0.089	-0.016
-691.397	-200.000	-0.015	0.068
-690.383	108.972	-0.129	0.154
-689.368	39.568	0.108	0.096
-688.354	-200.000	-0.024	-0.136
-687.339	800.000	0.026	0.086
-686.324	-88.982	-0.336	-0.099
-685.310	800.000	-0.139	0.527
-684.295	-200.000	0.003	-0.049
-683.281	-69.315	-0.050	-0.019
-682.266	-89.582	0.104	0.031
-681.251	138.574	0.068	-0.089
-680.237	169.004	-0.111	0.158
-679.222	-64.743	0.445	0.180
-678.208	354.678	0.118	-0.235
-677.193	503.777	-0.102	-0.236
-676.178	-91.111	-0.414	-0.119
-675.164	-100.740	0.199	-0.049
-674.149	-82.579	-0.131	-0.042
-673.135	-81.299	0.092	0.030
-672.120	-200.000	-0.009	0.224
-671.105	87.374	0.206	-0.227
-670.091	-69.402	0.031	-0.012
-669.076	98.208	0.086	0.098
-668.062	-13.663	-0.080	-0.051
-667.047	800.000	-0.071	0.257
-666.032	-200.000	0.002	-0.019
-665.018	5.335	0.106	0.078
-664.003	-200.000	0.016	-0.077
-662.989	-31.091	-0.084	0.047
-661.974	32.373	-0.090	-0.078
-660.959	-96.005	0.127	0.034
-659.945	-84.361	-0.161	-0.051
-658.930	-90.884	0.181	0.052
-657.916	-200.000	-0.045	0.264
-656.901	-19.674	0.165	-0.102
-655.886	800.000	-0.077	0.221
-654.872	364.664	-0.158	-0.317
-653.857	-99.018	-0.160	0.040
-652.843	345.901	-0.073	-0.144
-651.828	-200.000	-0.018	-0.120
-650.814	93.368	-0.220	0.248
-649.799	-200.000	-0.035	-0.276
-648.784	-200.000	0.030	-0.192
-647.770	-182.735	-0.044	0.001
-646.755	-79.043	-0.199	-0.068
-645.741	-105.643	0.119	-0.027
-644.726	-200.000	-0.016	-0.116
-643.711	-128.701	0.474	-0.067
-642.697	311.594	0.124	-0.232
-641.682	9.645	0.091	0.069
-640.668	90.943	-0.056	0.063
-639.653	-162.919	0.223	-0.011
-638.638	800.000	-0.036	-0.109
-637.624	-200.000	-0.019	0.100
-636.609	-68.449	0.029	-0.011
-635.595	557.706	0.014	-0.033
-634.580	87.682	0.340	0.376
-633.565	143.676	-0.016	-0.021
-632.551	-126.929	-0.239	-0.035
-631.536	800.000	-0.137	0.451
-630.522	800.000	-0.060	-0.195
-629.507	-111.765	-0.151	0.030
-628.492	270.581	-0.168	-0.295
-627.478	32.860	0.038	0.033
-626.463	-77.769	-0.187	-0.064
-625.449	-200.000	-0.045	-0.322
-624.434	-200.000	0.028	-0.252
-623.419	800.000	-0.111	0.318
-622.405	164.731	0.128	0.180
-621.390	-200.000	0.005	0.037
-620.376	-89.705	0.054	0.016
-619.361	-60.368	-0.223	-0.094
-618.346	33.821	0.144	-0.125
-617.332	115.117	0.142	0.173
-616.317	43.116	0.152	0.138
-615.303	5.194	-0.223	0.164
-614.288	800.000	-0.069	0.190
-613.273	58.123	-0.203	-0.198
-612.259	-74.005	0.433	-0.157
-611.244	-164.785	-0.117	0.005
-610.230	-200.000	-0.000	-0.000
-609.215	-27.474	-0.190	0.110
-608.201	-200.000	0.012	-0.072
-607.186	-6.996	0.161	-0.109
-606.171	-43.385	-0.249	0.126
-605.157	-167.641	0.119	-0.005
-604.142	-169.727	0.100	-0.004
-603.128	8.769	0.204	0.153
-602.113	-16.804	-0.105	0.066
-601.098	56.350	-0.183	-0.177
-600.084	800.000	-0.086	-0.317
-599.069	-81.494	0.239	0.078
-598.055	135.604	-0.151	-0.196
-597.040	-74.870	0.204	-0.073
-596.025	-200.000	-0.041	0.191
-595.011	82.617	-0.206	0.223
-593.996	99.777	-0.186	-0.214
-592.982	800.000	0.031	-0.136
-591.967	109.275	0.018	-0.021
-590.952	86.012	0.147	0.161
-589.938	-200.000	-0.041	0.322
-588.923	129.528	0.283	0.360
-587.909	-32.900	-0.100	-0.055
-586.894	434.311	-0.036	-0.077
-585.879	-39.740	0.261	-0.136
-584.865	-91.910	0.187	-0.053
-583.850	-46.091	-0.175	-0.086
-582.836	-55.654	0.278	0.124
-581.821	800.000	-0.055	-0.201
-580.806	45.868	-0.165	-0.152
-579.792	251.236	0.159	0.269
-578.777	-108.505	0.154	0.033
-577.763	406.627	-0.047	0.100
-576.748	78.146	0.152	-0.162
-575.733	138.350	-0.095	-0.124
-574.719	797.440	-0.116	0.319
-573.704	-87.996	0.294	0.088
-572.690	800.000	-0.029	-0.092
-571.675	139.872	-0.149	0.195
-570.661	13.649	-0.118	0.091
-569.646	-147.967	-0.246	-0.020
-568.631	114.229	0.088	0.107
-567.617	-126.298	-0.248	0.037
-566.602	-200.000	-0.006	0.292
-565.588	-54.950	-0.357	0.160
-564.573	-41.563	0.271	0.138
-563.558	188.413	0.060	0.089
-562.544	-87.050	0.124	0.038
-561.529	-200.000	0.005	0.025
-560.515	-118.468	0.205	-0.036
-559.500	8.717	-0.198	-0.148
-558.485	-200.000	-0.015	-0.215
-557.471	-200.000	0.003	-0.166
-556.456	-44.787	0.273	-0.136
-555.442	-174.798	-0.161	-0.005
-554.427	-48.450	-0.023	0.011
-553.412	-129.362	-0.179	0.025
-552.398	-82.984	-0.301	-0.096
-551.383	800.000	-0.126	-0.356
-550.369	631.123	-0.094	0.237
-549.354	-200.000	-0.021	0.236
-548.339	602.738	0.040	-0.099
-547.325	531.374	-0.084	0.198
-546.310	459.731	-0.039	-0.087
-545.296	537.875	0.115	0.272
-544.281	-87.811	0.220	0.066
-543.266	151.670	0.128	-0.173
-542.252	-133.257	0.221	-0.028
-541.237	195.286	0.157	0.237
-540.223	-101.740	0.272	-0.065
-539.208	-97.722	0.249	0.064
-538.193	-102.956	0.090	0.021
-537.179	800.000	0.068	0.212
-536.164	680.985	0.104	-0.269
-535.150	-200.000	-0.067	-0.329
-534.135	149.012	-0.091	0.122
-533.121	101.304	0.131	0.152
-532.106	297.313	-0.072	-0.132
-531.091	-200.000	0.000	-0.069
-530.077	80.883	0.156	0.167
-529.062	-172.791	0.045	-0.001
-528.048	-200.000	0.032	0.237
-527.033	220.552	-0.238	-0.378
-526.018	-33.307	0.121	0.067
-525.004	-45.897	0.198	-0.097
-523.989	-84.443	-0.135	0.042
-522.975	379.880	-0.156	0.317
-521.960	800.000	-0.144	0.411
-520.945	-60.385	-0.076	-0.032
-519.931	-164.545	-0.197	-0.009
-518.916	-52.956	-0.339	-0.155
-517.902	336.153	0.054	0.104
-516.887	-141.015	-0.126	-0.013
-515.872	-91.005	-0.114	0.032
-514.858	55.311	0.206	0.198
-513.843	444.903	-0.070	-0.152
-512.829	-0.137	-0.211	0.149
-511.814	61.824	-0.253	-0.250
-510.799	216.039	0.231	-0.365
-509.785	416.569	-0.061	0.130
-508.770	440.567	0.169	0.368
-507.756	-56.736	-0.219	0.096
-506.741	-68.971	-0.294	0.112
-505.726	-200.000	0.001	0.241
-504.712	47.097	-0.268	0.248
-503.697	711.713	-0.049	0.129
-502.683	-170.829	0.116	0.004
-501.668	-19.591	0.186	0.114
-500.653	800.000	-0.083	-0.297
-499.639	-30.152	-0.093	-0.052
-498.624	-92.119	0.432	-0.121
-497.610	-76.837	0.085	-0.030
-496.595	-140.648	-0.318	0.033
-495.581	-151.680	0.235	-0.017
-494.566	-123.445	-0.311	0.049
-493.551	-74.409	-0.074	-0.027
-492.537	258.914	0.088	0.150
-491.522	-136.338	0.194	0.022
-490.508	4.075	0.379	0.275
-489.493	599.944	-0.156	0.384
-488.478	-90.320	0.496	0.143
-487.464	-2.223	-0.341	-0.237
-486.449	-200.000	0.010	-0.098
-485.435	-75.318	-0.268	0.095
-484.420	58.786	0.215	0.210
-483.405	49.031	-0.110	0.102
-482.391	-200.000	-0.082	-0.609
-481.376	-200.000	0.040	-0.484
-480.362	-180.250	0.352	-0.007
-479.347	-144.964	-0.153	0.014
-478.332	-129.502	-0.202	-0.028
-477.318	58.359	0.139	0.135
-476.303	-44.183	0.155	0.077
-475.289	800.000	0.102	-0.383
-474.274	-111.108	-0.340	0.069
-473.259	-118.409	0.129	-0.023
-472.245	289.922	0.017	-0.031
-471.230	-82.052	-0.042	-0.014
-470.216	257.607	-0.194	0.330
-469.201	244.745	0.035	0.059
-468.186	58.942	0.107	0.104
-467.172	800.000	-0.031	0.132
-466.157	-13.205	0.033	0.021
-465.143	214.358	-0.187	0.294
-464.128	23.410	0.241	-0.197
-463.113	800.000	-0.084	-0.326
-462.099	144.735	0.056	-0.075
-461.084	-200.000	-0.005	0.031
-460.070	-200.000	0.011	-0.242
-459.055	-47.243	-0.067	0.032
-458.040	-180.011	-0.174	0.004
-457.026	1.335	0.347	0.247
-456.011	288.337	0.128	-0.229
-454.997	328.831	-0.121	0.230
-453.982	74.608	-0.197	0.205
-452.968	2.506	0.140	-0.100
-451.953	-200.000	-0.017	0.133
-450.938	176.448	-0.233	-0.335
-449.924	-200.000	-0.037	0.252
-448.909	350.072	0.107	-0.210
-447.895	-200.000	-0.001	-0.111
-446.880	541.613	-0.074	-0.176
-445.865	272.639	-0.159	0.278
-444.851	175.761	-0.054	0.077
-443.836	800.000	-0.017	-0.051
-442.822	-45.124	-0.222	0.109
-441.807	145.189	-0.206	0.272
-440.792	-200.000	0.061	-0.320
-439.778	-200.000	-0.045	-0.529
-438.763	-79.056	-0.194	-0.065
-437.749	800.000	0.015	0.059
-436.734	-200.000	0.033	-0.271
-435.719	11.524	0.098	-0.074
-434.705	-135.835	0.394	-0.046
-433.690	-37.667	-0.154	-0.081
-432.676	-200.000	0.012	0.155
-431.661	-200.000	0.026	-0.131
-430.646	-9.707	0.053	0.035
-429.632	-200.000	-0.014	-0.230
-428.617	-200.000	-0.002	-0.069
-427.603	-200.000	-0.025	-0.149
-426.588	-141.765	0.216	0.021
-425.573	-164.995	-0.203	-0.009
-424.559	61.077	0.059	0.058
-423.544	-110.636	-0.059	-0.012
-422.530	-85.506	0.125	-0.039
-421.515	141.803	0.082	0.108
-420.500	-200.000	0.013	-0.275
-419.486	-75.837	-0.408	0.143
-418.471	-200.000	0.022	0.411
-417.457	-127.084	-0.097	-0.014
-416.442	29.890	-0.090	-0.076
-415.428	800.000	-0.030	0.094
-414.413	146.756	-0.112	-0.148
-413.398	-80.893	0.184	-0.060
-412.384	149.328	-0.118	-0.158
-411.369	-56.915	0.276	0.120
-410.355	593.787	0.039	0.094
-409.340	-96.279	-0.414	-0.108
-408.325	-125.865	0.208	0.031
-407.311	94.477	0.045	0.051
-406.296	-200.000	-0.025	-0.386
-405.282	27.702	0.326	0.271
-404.267	24.228	-0.235	0.192
-403.252	-67.664	0.334	0.129
-402.238	465.193	0.115	0.254
-401.223	688.216	0.090	0.233
-400.209	-200.000	-0.003	0.105
-399.194	186.303	-0.229	-0.337
-398.179	-17.770	-0.186	-0.115
-397.165	43.184	-0.070	0.063
-396.150	-3.214	-0.348	-0.240
-395.136	-131.095	0.129	0.017
-394.121	-200.000	0.009	-0.098
-393.106	-200.000	-0.037	0.391
-392.092	-76.960	0.206	-0.071
-391.077	-200.000	-0.023	-0.123
-390.063	-102.565	0.177	-0.042
-389.048	-86.349	-0.406	-0.123
-388.033	-200.000	0.024	0.127
-387.019	6.614	-0.170	-0.124
-386.004	-200.000	0.050	-0.231
-384.990	-71.189	0.136	-0.050
-383.975	84.105	-0.261	-0.281
-382.960	543.919	-0.042	-0.099
-381.946	800.000	0.078	-0.219
-380.931	-200.000	-0.005	0.065
-379.917	-196.360	0.081	-0.001
-378.902	-59.993	-0.070	0.029
-377.888	-113.325	0.269	0.052
-376.873	188.008	-0.152	0.224
-375.858	-97.538	-0.078	-0.020
-374.844	-82.099	0.138	0.044
-373.829	-123.725	0.236	0.037
-372.815	-42.745	0.199	0.100
-371.800	-128.351	-0.095	-0.013
-370.785	800.000	0.075	0.320
-369.771	206.338	-0.176	0.270
-368.756	-200.000	0.009	0.209
-367.742	-180.816	-0.272	-0.005
-366.727	-94.194	-0.302	0.082
-365.712	369.991	0.058	-0.116
-364.698	63.669	0.224	-0.222
-363.683	-18.576	0.189	0.116
-362.669	800.000	-0.000	0.001
-361.654	-40.754	-0.346	0.177
-360.639	-200.000	0.017	-0.133
-359.625	-200.000	0.000	0.055
-358.610	-76.761	0.089	0.031
-357.596	54.033	-0.198	-0.188
-356.581	800.000	0.100	-0.282
-355.566	-72.541	-0.179	0.065
-354.552	262.174	-0.052	0.088
-353.537	55.797	0.101	-0.097
-352.523	-200.000	0.001	0.221
-351.508	-200.000	-0.104	-0.000
-350.493	-200.000	-0.026	0.144
-349.479	507.823	-0.106	0.243
-348.464	-57.712	-0.096	-0.041
-347.450	10.912	-0.187	-0.141
-346.435	-23.916	-0.146	-0.086
-345.420	800.000	0.092	-0.309
-344.406	-63.493	-0.093	0.038
-343.391	-200.000	0.006	0.047
-342.377	-165.183	-0.435	0.019
-341.362	-87.808	0.129	0.038
-340.348	-62.029	0.202	0.083
-339.333	186.219	0.294	-0.431
-338.318	-132.556	-0.224	0.028
-337.304	-200.000	0.022	-0.123
-336.289	319.798	-0.081	0.151
-335.275	-200.000	0.010	0.218
-334.260	252.261	-0.057	0.095
-333.245	-67.650	0.118	0.045
-332.231	-182.833	-0.237	-0.004
-331.216	800.000	-0.123	0.345
-330.202	-200.000	-0.009	-0.178
-329.187	-148.908	0.423	-0.034
-328.172	800.000	0.082	-0.259
-327.158	-200.000	0.030	0.227
-326.143	-90.112	0.225	-0.065
-325.129	-37.499	-0.201	0.106
-324.114	343.221	0.102	-0.196
-323.099	-127.951	-0.099	0.014
-322.085	-130.481	-0.029	-0.004
-321.070	-200.000	-0.011	-0.446
-320.056	-31.941	0.155	-0.085
-319.041	-200.000	-0.022	0.196
-318.026	-200.000	-0.042	-0.362
-317.012	-200.000	-0.007	-0.359
-315.997	453.546	0.044	0.096
-314.983	-200.000	0.008	0.166
-313.968	-200.000	0.063	-0.275
-312.953	80.283	0.203	0.216
-311.939	292.948	-0.187	-0.337
-310.924	149.887	0.172	0.229
-309.910	800.000	-0.030	-0.090
-308.895	265.467	-0.062	0.107
-307.880	-136.736	0.170	0.019
-306.866	-10.194	0.227	-0.148
-305.851	800.000	-0.020	0.056
-304.837	-86.883	0.355	0.107
-303.822	25.909	-0.065	0.054
-302.807	-113.835	-0.042	-0.008
-301.793	-200.000	0.006	0.068
-300.778	59.200	-0.113	-0.110
-299.764	-147.977	0.211	-0.017
-298.749	14.418	0.138	0.106
-297.735	-200.000	-0.054	0.306
-296.720	49.090	-0.175	0.162
-295.705	-200.000	0.066	-0.303
-294.691	-48.856	-0.382	-0.180
-293.676	800.000	-0.034	-0.125
-292.662	555.680	0.007	-0.016
-291.647	-45.039	-0.192	-0.094
-290.632	205.086	0.102	-0.156
-289.618	5.133	-0.195	0.141
-288.603	534.138	0.027	-0.062
-287.589	-92.833	0.341	0.094
-286.574	-200.000	0.011	-0.293
-285.559	-84.959	-0.429	0.132
-284.545	-135.055	-0.213	-0.025
-283.530	800.000	-0.091	0.254
-282.516	503.367	0.122	-0.277
-281.501	151.523	-0.147	0.197
-280.486	266.706	-0.168	-0.288
-279.472	93.774	0.226	-0.252
-278.457	-79.121	-0.387	0.129
-277.443	65.331	0.126	0.125
-276.428	611.710	-0.148	-0.363
-275.413	657.619	-0.102	-0.257
-274.399	85.691	0.289	-0.312
-273.384	-6.802	-0.174	-0.116
-272.370	192.687	0.073	0.109
-271.355	-117.618	0.315	0.056
-270.340	-90.062	0.175	-0.050
-269.326	-130.367	0.193	-0.026
-268.311	-200.000	0.002	-0.036
-267.297	-86.838	-0.148	-0.044
-266.282	236.626	0.025	0.041
-265.267	-56.486	-0.167	-0.073
-264.253	285.032	0.015	0.026
-263.238	173.602	0.092	-0.130
-262.224	-0.821	-0.484	-0.337
-261.209	-200.000	0.035	0.275
-260.195	73.494	0.200	0.205
-259.180	-197.159	-0.008	0.000
-258.165	-32.075	0.341	0.188
-257.151	630.334	-0.067	-0.166
-256.136	229.930	-0.014	0.022
-255.122	-104.038	0.190	-0.043
-254.107	69.954	0.067	-0.068
-253.092	-200.000	-0.012	0.152
-252.078	-200.000	-0.016	0.212
-251.063	-28.190	0.428	0.243
-250.049	-200.000	-0.090	0.523
-249.034	-16.795	0.185	-0.115
-248.019	58.322	0.082	0.079
-247.005	-116.404	0.149	0.027
-245.990	-200.000	0.089	-0.457
-244.976	364.659	-0.030	0.059
-243.961	163.528	0.130	0.180
-242.946	601.207	-0.037	0.090
-241.932	-134.391	-0.117	-0.014
-240.917	144.640	0.205	0.269
-239.903	369.393	-0.166	-0.329
-238.888	-146.857	0.355	-0.030
-237.873	-200.000	-0.030	0.396
-236.859	-50.099	-0.166	0.077
-235.844	767.193	-0.032	-0.085
-234.830	-110.521	-0.246	0.050
-233.815	280.475	0.126	-0.222
-232.800	800.000	-0.015	-0.063
-231.786	-129.543	-0.215	-0.029
-230.771	165.151	0.193	-0.267
-229.757	-14.161	0.187	0.118
-228.742	346.578	-0.133	0.256
-227.727	378.246	0.123	0.246
-226.713	-21.861	0.108	0.065
-225.698	-200.000	-0.034	0.162
-224.684	-2.013	0.046	0.032
-223.669	355.279	-0.062	-0.121
-222.655	313.406	0.141	-0.260
-221.640	548.628	-0.059	-0.139
-220.625	-200.000	0.052	0.473
-219.611	63.897	0.149	-0.147
-218.596	10.557	0.146	0.109
-217.582	-200.000	0.000	-0.251
-216.567	110.041	0.054	-0.063
-215.552	124.178	0.159	0.196
-214.538	19.134	0.240	0.189
-213.523	312.736	0.085	0.156
-212.509	37.771	0.133	0.116
-211.494	-124.635	-0.167	0.025
-210.479	111.267	-0.119	-0.141
-209.465	800.000	-0.029	0.095
-208.450	-200.000	-0.009	-0.127
-207.436	37.601	-0.117	0.102
-206.421	34.215	0.100	0.085
-205.406	-180.124	-0.368	0.008
-204.392	-82.131	-0.335	-0.107
-203.377	-96.417	-0.297	0.077
-202.363	532.978	-0.085	0.198
-201.348	52.660	0.122	-0.114
-200.333	519.048	0.130	-0.298
-199.319	235.350	0.137	0.222
-198.304	-91.028	-0.123	0.035
-197.290	16.131	-0.205	0.158
-196.275	800.000	-0.054	-0.146
-195.260	204.601	0.166	-0.252
-194.246	57.723	0.013	0.012
-193.231	-85.608	-0.218	0.066
-192.217	-60.090	0.279	0.117
-191.202	-200.000	0.029	0.158
-190.187	-200.000	0.009	-0.159
-189.173	144.243	-0.211	0.276
-188.158	-25.068	0.296	-0.172
-187.144	39.937	-0.059	-0.052
-186.129	19.448	-0.051	0.040
-185.114	295.584	0.044	0.079
-184.100	-200.000	-0.024	0.308
-183.085	-125.925	-0.045	0.007
-182.071	-200.000	0.120	0.617
-181.056	-200.000	0.012	-0.140
-180.042	-12.198	0.217	0.139
-179.027	800.000	-0.020	0.077
-178.012	-35.444	0.372	0.198
-176.998	-89.796	-0.352	0.101
-175.983	-200.000	-0.016	-0.302
-174.969	-51.889	0.262	0.120
-173.954	800.000	0.170	-0.593
-172.939	-200.000	0.014	-0.422
-171.925	800.000	0.036	0.151
-170.910	277.828	-0.100	-0.174
-169.896	-200.000	0.004	0.064
-168.881	-90.329	-0.051	0.014
-167.866	-110.627	-0.177	-0.036
-166.852	-134.969	-0.182	-0.021
-165.837	-200.000	0.014	-0.234
-164.823	8.254	-0.071	0.052
-163.808	-54.193	-0.206	-0.092
-162.793	800.000	0.120	0.346
-161.779	-155.744	-0.063	0.004
-160.764	-43.927	-0.105	-0.052
-159.750	290.927	0.204	-0.363
-158.735	-43.752	-0.064	-0.032
-157.720	12.718	-0.086	0.065
-156.706	43.619	-0.083	-0.074
-155.691	-200.000	-0.007	0.373
-154.677	-24.142	-0.080	-0.047
-153.662	-200.000	0.018	-0.292
-152.647	-31.653	0.346	-0.190
-151.633	212.805	0.067	-0.103
-150.618	109.266	0.158	0.185
-149.604	50.613	-0.396	0.367
-148.589	242.237	-0.053	-0.086
-147.574	62.086	0.289	0.282
-146.560	-200.000	-0.031	0.243
-145.545	-200.000	0.020	-0.206
-144.531	303.660	0.133	0.242
-143.516	800.000	-0.093	0.274
-142.502	-50.595	0.122	-0.056
-141.487	186.538	0.191	-0.279
-140.472	-129.246	-0.162	0.022
-139.458	-109.170	-0.123	0.026
-138.443	383.424	-0.030	0.061
-137.429	152.858	-0.175	-0.234
-136.414	-24.519	-0.139	-0.081
-135.399	273.896	-0.081	-0.141
-134.385	-200.000	-0.018	0.226
-133.370	27.435	0.041	0.033
-132.356	31.621	0.229	0.192
-131.341	-92.697	0.311	-0.085
-130.326	-200.000	-0.009	0.048
-129.312	-200.000	0.052	0.305
-128.297	0.832	-0.206	0.144
-127.283	-200.000	0.008	0.256
-126.268	-200.000	-0.047	0.253
-125.253	-108.039	-0.108	-0.023
-124.239	587.031	0.051	-0.122
-123.224	-200.000	-0.011	0.074
-122.210	556.894	0.117	-0.275
-121.195	291.374	0.188	-0.334
-120.180	-93.872	0.209	-0.056
-119.166	-200.000	-0.013	-0.263
-118.151	-200.000	0.041	0.368
-117.137	-158.400	-0.205	-0.012
-116.122	82.614	0.305	0.323
-115.107	427.199	-0.109	0.230
-114.093	-104.285	-0.329	0.075
-113.078	-200.000	-0.005	0.088
-112.064	-89.851	-0.245	-0.070
-111.049	-200.000	0.000	0.108
-110.034	29.082	-0.134	-0.111
-109.020	260.775	0.138	-0.234
-108.005	-108.571	0.390	-0.082
-106.991	-176.939	0.038	-0.001
-105.976	468.506	0.107	0.234
-104.962	-50.388	-0.240	0.111
-103.947	-9.816	0.225	0.146
-102.932	89.373	0.031	0.034
-101.918	800.000	-0.081	-0.297
-100.903	69.990	-0.071	-0.072
-99.889	800.000	-0.037	0.146
-98.874	-25.059	-0.081	0.047
-97.859	-200.000	-0.011	0.333
-96.845	-200.000	-0.032	0.165
-95.830	-200.000	-0.024	-0.177
-94.816	800.000	-0.064	0.185
-93.801	-187.451	-0.189	-0.002
-92.786	146.750	-0.104	0.137
-91.772	198.059	-0.241	0.360
-90.757	800.000	0.017	-0.069
-89.743	-200.000	0.039	0.252
-88.728	800.000	0.163	-0.458
-87.713	-106.125	-0.027	0.006
-86.699	96.383	0.091	0.102
-85.684	-11.674	-0.052	0.033
-84.670	-167.166	0.467	0.019
-83.655	109.775	-0.117	-0.137
-82.640	-156.579	-0.372	0.023
-81.626	-95.524	-0.223	0.058
-80.611	-41.923	-0.192	-0.096
-79.597	-21.398	-0.218	0.130
-78.582	-200.000	0.041	-0.213
-77.567	-87.740	0.073	0.021
-76.553	602.717	-0.149	-0.361
-75.538	-113.718	-0.175	-0.033
-74.524	150.715	0.175	0.232
-73.509	-115.672	0.204	0.037
-72.494	62.413	0.177	-0.173
-71.480	138.915	-0.183	-0.235
-70.465	-3.832	-0.151	-0.102
-69.451	452.208	0.084	-0.181
-68.436	-93.820	-0.315	-0.085
-67.422	-200.000	-0.019	0.172
-66.407	-200.000	-0.004	0.412
-65.392	800.000	0.057	0.178
-64.378	199.322	0.031	-0.046
-63.363	-200.000	-0.017	-0.237
-62.349	289.808	0.126	-0.224
-61.334	170.860	-0.750	-1.048
-60.319	278.034	0.493	0.856
-59.305	242.836	-0.973	-1.589
-58.290	217.059	0.944	1.465
-57.276	-200.000	0.265	1.654
-56.261	-200.000	137.427	632.649
-55.246	340.144	1652.800	3143.142
-54.232	135.807	2786.203	3536.438
-53.217	82.974	2161.277	2291.233
-52.203	30.374	1594.916	1328.031
-51.188	22.786	1347.047	1075.553
-50.173	20.841	1312.567	1036.418
-49.159	46.942	1387.529	1257.219
-48.144	42.778	1396.148	1239.399
-47.130	22.904	1343.676	1073.409
-46.115	19.939	1325.167	1040.779
-45.100	19.794	1319.787	1035.648
-44.086	19.729	1317.372	1033.321
-43.071	19.612	1315.312	1030.968
-42.057	19.564	1313.257	1029.032
-41.042	19.765	1311.540	1028.841
-40.027	19.802	1309.771	1027.630
-39.013	19.675	1308.025	1025.469
-37.998	19.753	1306.331	1024.559
-36.984	19.748	1304.512	1023.062
-35.969	19.899	1302.701	1022.493
-34.954	19.791	1301.290	1020.705
-33.940	19.872	1299.968	1020.106
-32.925	19.828	1298.860	1018.940
-31.911	19.815	1297.377	1017.657
-30.896	19.806	1295.632	1016.200
-29.881	20.033	1293.856	1016.093
-28.867	19.951	1292.893	1014.815
-27.852	19.997	1291.435	1013.902
-26.838	19.913	1290.256	1012.445
-25.823	19.856	1288.925	1011.027
-24.809	19.875	1287.259	1009.792
-23.794	19.795	1286.386	1008.603
-22.779	19.857	1284.721	1007.619
-21.765	19.876	1283.431	1006.676
-20.750	19.804	1282.638	1005.593
-19.736	19.811	1281.283	1004.532
-18.721	19.719	1280.482	1003.329
-17.706	19.830	1278.809	1002.626
-16.692	19.808	1277.831	1001.690
-15.677	19.688	1276.862	1000.194
-14.663	19.759	1275.259	999.310
-13.648	19.745	1273.830	998.070
-12.633	19.746	1273.449	997.739
-11.619	19.847	1272.158	997.270
-10.604	19.659	1271.977	996.001
-9.590	19.781	1270.655	995.635
-8.575	19.655	1269.960	994.325
-7.560	19.737	1268.732	993.792
-6.546	19.706	1268.066	993.054
-5.531	19.668	1267.256	992.166
-4.517	19.712	1266.293	991.622
-3.502	19.773	1265.677	991.450
-2.487	19.719	1264.762	990.385
-1.473	19.693	1260.262	986.672
-0.458	17.862	1245.252	964.542
0.556	13.185	1229.757	926.281
1.571	9.575	1237.719	911.796
2.586	8.904	1253.182	919.263
3.600	9.176	1240.747	911.599
4.615	6.977	1170.213	847.924
5.629	2.599	1102.135	776.379
6.644	0.688	1086.650	755.848
7.659	0.516	1084.804	753.639
8.673	0.552	1083.884	753.113
9.688	0.655	1082.645	752.702
10.702	0.600	1080.064	750.567
11.717	3.335	1082.394	765.726
12.731	9.262	1090.408	800.936
13.746	14.960	1098.297	835.184
14.761	17.086	1100.460	847.378
15.775	16.470	1098.876	843.009
16.790	15.353	1097.617	836.406
17.804	14.830	1095.378	832.019
18.819	14.468	1094.521	829.494
19.834	14.191	1093.658	827.393
20.848	14.016	1092.807	825.807
21.863	13.711	1091.767	823.430
22.877	13.720	1090.351	822.335
23.892	13.563	1090.286	821.434
24.907	13.518	1089.800	820.772
25.921	13.646	1088.769	820.555
26.936	13.602	1087.737	819.491
27.950	13.701	1086.793	819.193
28.965	13.786	1085.377	818.474
29.980	13.741	1084.252	817.334
30.994	13.943	1083.047	817.344
32.009	13.873	1082.194	816.284
33.023	13.845	1081.066	815.223
34.038	13.805	1079.920	814.094
35.053	13.674	1079.512	813.070
36.067	13.728	1078.262	812.321
37.082	13.738	1077.315	811.584
38.096	13.793	1076.644	811.274
39.111	13.752	1076.117	810.610
40.126	13.682	1075.094	809.421
41.140	13.873	1072.675	808.461
42.155	13.725	1072.006	807.163
43.169	13.645	1071.375	806.227
44.184	13.688	1070.297	805.557
45.199	13.692	1069.146	804.638
46.213	13.728	1068.111	803.961
47.228	13.638	1067.300	802.842
48.242	13.689	1065.934	801.991
49.257	13.642	1065.112	801.074
50.271	13.547	1064.809	800.320
51.286	13.684	1063.553	799.962
52.301	13.631	1062.352	798.736
53.315	13.640	1061.284	797.904
54.330	13.765	1060.243	797.652
55.344	13.624	1059.524	796.364
56.359	13.736	1058.510	796.069
57.374	13.629	1057.786	794.940
58.388	13.635	1057.092	794.376
59.403	13.627	1055.909	793.380
60.417	13.629	1054.967	792.609
61.432	13.601	1054.549	792.093
62.447	13.568	1053.183	790.841
63.461	13.583	1052.630	790.428
64.476	13.638	1051.456	789.735
65.490	13.596	1050.897	789.044
66.505	13.582	1050.098	788.308
67.520	13.564	1049.770	787.906
68.534	13.555	1049.159	787.336
69.549	13.630	1047.786	786.592
70.563	13.546	1046.792	785.377
71.578	13.636	1046.045	785.178
72.593	13.540	1045.376	784.148
73.607	13.642	1044.550	783.944
74.622	13.500	1044.302	783.016
75.636	13.435	1043.706	782.195
76.651	13.420	1042.612	781.233
77.666	13.486	1042.027	781.038
78.680	13.530	1041.454	780.748
79.695	13.474	1041.263	780.271
80.709	13.565	1040.277	779.888
81.724	13.658	1039.109	779.381
82.739	13.687	1038.263	778.813
83.753	13.773	1037.782	778.791
84.768	13.863	1036.380	778.091
85.782	13.768	1035.956	777.260
86.797	13.621	1035.281	775.995
87.812	13.546	1034.371	774.895
88.826	13.603	1033.480	774.423
89.841	13.740	1032.124	773.978
90.855	13.808	1030.969	773.361
91.870	13.739	1030.348	772.506
92.884	13.839	1028.967	771.868
93.899	13.807	1028.590	771.368
94.914	13.855	1027.629	770.801
95.928	13.857	1026.758	770.086
96.943	13.764	1025.843	768.902
97.957	13.776	1024.982	768.244
98.972	13.771	1024.203	767.570
99.987	13.823	1023.316	767.079
101.001	13.679	1022.357	765.625
102.016	13.620	1021.919	764.956
103.030	13.808	1020.254	764.512
104.045	13.746	1019.655	763.709
105.060	13.735	1019.036	763.125
106.074	13.691	1017.983	762.070
107.089	13.736	1016.537	761.123
108.103	13.743	1016.088	760.752
109.118	13.763	1015.029	759.985
110.133	13.687	1014.283	759.012
111.147	13.646	1013.182	757.931
112.162	13.686	1012.515	757.550
113.176	13.695	1011.875	757.043
114.191	13.739	1011.342	756.781
115.206	13.823	1010.360	756.362
116.220	13.823	1009.180	755.412
117.235	13.765	1008.257	754.391
118.249	13.726	1007.764	753.777
119.264	13.649	1006.921	752.729
120.279	13.728	1005.813	752.193
121.293	13.832	1004.850	751.877
122.308	13.770	1004.472	751.246
123.322	13.778	1003.052	750.154
124.337	13.589	1002.421	748.763
125.352	13.640	1000.919	747.803
126.366	13.638	999.830	746.913
127.381	13.637	998.661	745.973
128.395	13.605	998.332	745.518
129.410	13.688	997.146	744.937
130.424	13.717	996.097	744.217
131.439	13.799	995.531	744.099
132.454	13.643	995.105	743.014
133.468	13.696	993.751	742.175
134.483	13.725	992.793	741.525
135.497	13.755	992.184	741.136
136.512	13.687	991.044	739.914
137.527	13.696	990.593	739.553
138.541	13.714	990.102	739.203
139.556	13.583	989.253	737.919
140.570	13.840	988.576	738.490
141.585	13.835	987.614	737.685
142.600	13.889	986.595	737.100
143.614	13.913	985.684	736.460
144.629	13.928	985.336	736.200
145.643	14.005	984.177	735.612
146.658	13.988	983.051	734.629
147.673	13.948	982.434	733.929
148.687	13.828	981.525	732.651
149.702	14.026	980.216	732.485
150.716	13.786	980.164	731.321
151.731	13.887	979.082	730.894
152.746	14.037	978.250	730.867
153.760	13.892	977.934	729.929
154.775	13.949	977.512	729.799
155.789	13.959	976.475	729.005
156.804	14.043	975.842	728.837
157.819	13.994	975.076	727.987
158.833	14.221	973.947	728.073
159.848	14.156	973.546	727.426
160.862	14.058	972.528	726.171
161.877	14.281	971.131	726.038
162.892	14.086	971.021	725.039
163.906	14.116	969.799	724.194
164.921	14.123	968.712	723.347
165.935	13.984	968.255	722.338
166.950	13.984	967.426	721.658
167.964	14.160	966.184	721.429
168.979	14.190	965.165	720.737
169.994	14.124	964.628	719.983
171.008	14.103	963.711	719.147
172.023	14.083	963.492	718.830
173.037	14.288	962.425	718.856
174.052	14.098	961.897	717.580
175.067	14.190	961.301	717.468
176.081	14.167	960.530	716.732
177.096	14.219	959.849	716.381
178.110	14.153	959.566	715.822
179.125	14.249	958.826	715.622
180.140	14.201	958.371	715.012
181.154	14.110	958.211	714.439
182.169	14.309	957.389	714.618
183.183	14.330	956.577	714.039
184.198	14.258	955.648	712.973
185.213	14.345	955.108	712.878
186.227	14.450	954.284	712.649
187.242	14.504	953.670	712.357
188.256	14.489	953.321	711.971
189.271	14.340	952.222	710.453
190.286	14.303	951.201	709.471
191.300	14.330	950.665	709.123
192.315	14.211	950.542	708.458
193.329	14.234	949.701	707.867
194.344	14.219	949.043	707.251
195.359	14.369	948.194	707.194
196.373	14.361	947.683	706.716
197.388	14.381	947.326	706.472
198.402	14.636	946.597	706.948
199.417	14.456	946.158	705.795
200.432	14.532	945.525	705.580
201.446	14.681	944.745	705.567
202.461	14.523	944.821	704.892
203.475	14.693	943.577	704.621
204.490	14.643	943.180	704.050
205.504	14.559	942.009	702.760
206.519	14.637	940.957	702.242
207.534	14.672	940.238	701.788
208.548	14.554	939.873	700.959
209.563	14.633	939.050	700.613
210.577	14.635	938.377	700.059
211.592	14.650	937.764	699.602
212.607	14.699	937.213	699.335
213.621	14.801	936.261	698.990
214.636	14.784	935.728	698.457
215.650	14.760	934.835	697.631
216.665	14.745	934.679	697.389
217.680	14.811	933.621	696.811
218.694	14.894	932.480	696.243
219.709	14.930	931.945	695.932
220.723	14.924	931.535	695.540
221.738	14.884	930.616	694.629
222.753	14.705	930.525	693.755
223.767	14.834	930.021	693.853
224.782	14.912	929.200	693.500
225.796	14.886	928.630	692.906
226.811	15.041	927.630	692.742
227.826	14.940	926.999	691.790
228.840	14.765	926.230	690.432
229.855	14.983	925.285	690.570
230.869	14.893	925.005	689.926
231.884	15.035	923.772	689.532
232.899	14.903	923.610	688.804
233.913	15.005	922.609	688.417
234.928	14.923	922.094	687.635
235.942	14.977	921.469	687.329
236.957	14.960	920.909	686.781
237.972	14.884	920.523	686.119
238.986	15.020	919.406	685.786
240.001	14.874	919.018	684.837
241.015	15.094	917.915	684.853
242.030	15.059	917.968	684.689
243.045	14.994	917.052	683.681
244.059	15.081	916.283	683.402
245.074	15.154	915.414	682.992
246.088	15.167	914.938	682.630
247.103	15.217	914.149	682.182
248.117	15.206	913.638	681.697
249.132	15.251	913.262	681.540
250.147	15.217	912.196	680.543
251.161	15.254	911.788	680.332
252.176	15.442	910.665	680.195
253.190	15.415	910.588	679.965
254.205	15.469	909.629	679.408
255.220	15.492	908.986	678.963
256.234	15.374	908.649	678.172
257.249	15.306	908.082	677.417
258.263	15.361	907.146	676.877
259.278	15.453	906.193	676.478
260.293	15.529	906.028	676.603
261.307	15.510	905.368	675.975
262.322	15.520	904.317	675.170
263.336	15.607	903.596	674.919
264.351	15.636	902.952	674.496
265.366	15.771	902.064	674.313
266.380	15.761	901.413	673.728
267.395	15.699	900.780	672.946
268.409	15.614	900.642	672.445
269.424	15.597	899.763	671.662
270.439	15.617	898.730	670.910
271.453	15.682	898.023	670.581
272.468	15.583	898.054	670.152
273.482	15.613	897.039	669.453
274.497	15.626	896.358	668.939
275.512	15.786	895.773	669.079
276.526	15.844	895.133	668.770
277.541	15.899	894.683	668.596
278.555	15.639	894.538	667.393
279.570	15.819	893.465	667.250
280.585	15.858	892.684	666.759
281.599	15.892	891.871	666.230
282.614	15.870	891.322	665.673
283.628	15.867	890.514	665.001
284.643	15.878	889.904	664.530
285.657	15.873	889.746	664.333
286.672	15.836	889.104	663.649
287.687	15.920	888.129	663.190
288.701	15.871	887.908	662.776
289.716	15.997	887.425	662.851
290.730	16.070	886.155	662.132
291.745	16.122	885.501	661.786
292.760	16.125	885.018	661.379
293.774	16.091	884.544	660.834
294.789	16.020	883.822	659.959
295.803	16.015	882.988	659.259
296.818	16.156	882.045	659.045
297.833	16.133	881.495	658.486
298.847	16.069	880.972	657.789
299.862	16.112	880.564	657.593
300.876	16.155	880.063	657.328
301.891	16.188	879.122	656.696
302.906	16.164	879.053	656.493
303.920	16.179	878.455	656.046
304.935	16.373	877.518	656.042
305.949	16.295	876.951	655.257
306.964	16.271	876.778	654.976
307.979	16.214	876.124	654.209
308.993	16.258	875.308	653.713
310.008	16.465	874.437	653.805
311.022	16.353	874.387	653.276
312.037	16.358	873.720	652.739
313.052	16.263	872.845	651.662
314.066	16.189	872.602	651.137
315.081	16.243	872.146	650.948
316.095	16.408	871.099	650.745
317.110	16.395	870.493	650.185
318.125	16.386	870.020	649.737
319.139	16.336	869.520	649.116
320.154	16.448	869.176	649.231
321.168	16.405	868.414	648.439
322.183	16.312	868.161	647.839
323.197	16.503	867.306	647.874
324.212	16.579	866.926	647.822
325.227	16.517	866.075	646.892
326.241	16.469	865.277	646.057
327.256	16.543	864.587	645.766
328.270	16.428	864.562	645.250
329.285	16.425	864.091	644.830
330.300	16.510	863.227	644.454
331.314	16.567	862.481	644.059
332.329	16.628	861.991	643.864
333.343	16.585	861.995	643.648
334.358	16.610	861.468	643.293
335.373	16.503	861.147	642.589
336.387	16.585	861.057	642.777
337.402	16.722	860.572	642.880
338.416	16.628	860.279	642.248
339.431	16.626	859.777	641.806
340.446	16.636	859.009	641.215
341.460	16.735	858.497	641.152
342.475	16.819	858.346	641.298
343.489	16.896	857.684	641.037
344.504	16.974	857.269	640.967
345.519	16.870	856.772	640.144
346.533	16.850	856.141	639.541
347.548	16.724	856.128	639.001
348.562	16.803	855.193	638.545
349.577	16.860	854.832	638.432
350.592	16.947	853.832	637.958
351.606	16.884	853.198	637.191
352.621	17.005	852.578	637.124
353.635	16.880	852.161	636.287
354.650	16.963	851.376	635.955
355.665	16.987	850.515	635.347
356.679	16.976	850.025	634.881
357.694	17.032	849.487	634.634
358.708	16.894	848.974	633.680
359.723	17.018	848.071	633.413
360.738	17.080	847.597	633.233
361.752	17.227	847.135	633.382
362.767	17.050	846.402	632.117
363.781	17.167	845.892	632.116
364.796	17.123	845.763	631.799
365.810	17.100	845.603	631.539
366.825	17.271	845.051	631.707
367.840	17.272	844.214	631.027
368.854	17.290	843.841	630.760
369.869	17.124	843.351	629.722
370.883	17.260	842.980	629.894
371.898	17.223	842.722	629.509
372.913	17.285	842.113	629.226
373.927	17.144	842.054	628.605
374.942	17.462	841.113	629.025
375.956	17.491	840.536	628.641
376.971	17.448	840.452	628.365
377.986	17.525	839.758	628.074
379.000	17.451	839.271	627.383
380.015	17.554	838.718	627.293
381.029	17.381	838.587	626.501
382.044	17.654	837.562	626.685
383.059	17.439	836.952	625.382
384.073	17.546	836.152	625.123
385.088	17.482	835.871	624.623
386.102	17.453	835.358	624.076
387.117	17.402	834.810	623.428
388.132	17.517	833.957	623.157
389.146	17.601	833.426	623.010
390.161	17.541	833.210	622.575
391.175	17.564	832.959	622.416
392.190	17.581	832.421	622.020
393.205	17.430	831.844	620.982
394.219	17.615	830.999	620.971
395.234	17.649	830.998	621.038
396.248	17.495	830.822	620.293
397.263	17.480	830.523	619.960
398.278	17.476	829.849	619.389
399.292	17.619	829.325	619.460
400.307	17.482	828.982	618.654
401.321	17.800	827.920	618.960
402.336	17.736	827.584	618.422
403.350	17.690	827.092	617.833
404.365	17.790	826.894	617.993
405.380	17.836	825.793	617.280
406.394	17.725	825.638	616.708
407.409	17.783	825.346	616.645
408.423	17.820	825.086	616.530
409.438	18.059	824.318	616.763
410.453	17.890	824.068	615.913
411.467	17.940	823.647	615.724
412.482	17.902	823.339	615.301
413.496	17.905	823.192	615.148
414.511	17.980	822.589	614.913
415.526	18.118	822.060	614.959
416.540	18.083	821.969	614.712
417.555	17.948	821.017	613.461
418.569	18.084	820.388	613.425
419.584	17.968	820.745	613.220
420.599	17.993	819.991	612.695
421.613	115.675	1301.957	1492.622
422.628	100.345	1372.129	1492.657
