DTS Sentinel unit serial number:	SN413079Multiplexer serial number:	ORYXHardware model number:	OX4-SRSoftware version number:	ORYX F/W v4.00 Oryx Data Collector v3.7.2.0data status	okinstallation	princeton_trtdifferential loss correction	single-endedforward channel	channel 1reverse channel	N/Adate	2019/09/14time	18:42:35forward acquisition time	60.00reverse acquisition time	0.00gamma	496.2192k internal	0.2305k external	0.2305temperature offset calibration	1.0034default loss term (dB/km)	0.3790temperature slope calibration	1.0000multiplexer offset coefficient	1.0000multiplexer slope coefficient	1.0000fibre end	0.00T internal ref (°C)	36.20T ext. ref 1 (°C)	4.93T ext. ref 2 (°C)	29.93length (m)	temperature (°C)	Stokes	anti-Stokes-747.200	800.000	0.030	-0.117
-746.185	-10.718	0.076	-0.051
-745.171	-200.000	0.039	0.396
-744.156	-200.000	0.052	0.370
-743.142	11.175	0.309	0.241
-742.127	114.093	-0.159	0.197
-741.112	-145.499	-0.192	-0.018
-740.098	-200.000	-0.009	-0.076
-739.083	-200.000	-0.001	-0.069
-738.069	800.000	-0.137	0.562
-737.054	-200.000	0.059	0.457
-736.039	499.931	0.101	-0.237
-735.025	-55.018	0.235	0.108
-734.010	-136.037	-0.190	0.023
-732.996	-173.611	-0.086	0.003
-731.981	-200.000	0.005	0.092
-730.966	-16.281	-0.105	-0.068
-729.952	56.874	-0.148	-0.146
-728.937	51.308	0.086	-0.084
-727.923	-29.919	-0.026	-0.015
-726.908	-79.686	-0.340	-0.117
-725.894	-200.000	0.011	-0.054
-724.879	71.331	-0.080	-0.084
-723.864	-200.000	0.013	-0.073
-722.850	-110.261	-0.403	-0.085
-721.835	-54.604	0.166	-0.077
-720.821	56.759	-0.035	-0.035
-719.806	124.672	0.095	-0.122
-718.791	72.520	0.060	0.063
-717.777	-200.000	-0.000	-0.116
-716.762	212.377	-0.161	0.258
-715.748	633.439	0.125	0.321
-714.733	-92.802	-0.549	-0.156
-713.718	275.472	-0.116	-0.209
-712.704	-112.045	-0.228	-0.047
-711.689	-200.000	0.044	-0.293
-710.675	800.000	0.026	-0.092
-709.660	-82.055	0.191	0.064
-708.645	-32.187	-0.195	-0.111
-707.631	-200.000	-0.041	-0.260
-706.616	-200.000	0.018	-0.177
-705.602	-200.000	0.010	-0.184
-704.587	53.973	0.244	-0.239
-703.572	-28.073	-0.320	-0.188
-702.558	-200.000	0.055	-0.264
-701.543	34.699	-0.288	-0.256
-700.529	800.000	0.087	-0.244
-699.514	-200.000	0.038	-0.240
-698.499	248.724	-0.138	-0.237
-697.485	800.000	0.153	-0.510
-696.470	-99.180	-0.241	0.062
-695.456	162.583	-0.133	0.190
-694.441	116.463	-0.067	-0.083
-693.426	8.939	-0.136	0.104
-692.412	135.944	0.070	0.093
-691.397	-48.099	0.275	-0.135
-690.383	-25.738	-0.311	-0.187
-689.368	-200.000	-0.031	-0.237
-688.354	62.638	0.078	-0.079
-687.339	-76.718	0.168	0.060
-686.324	37.970	-0.312	0.282
-685.310	-112.237	0.306	-0.062
-684.295	-160.567	0.239	-0.013
-683.281	-200.000	-0.012	-0.338
-682.266	-111.573	-0.189	-0.039
-681.251	-153.701	-0.097	0.007
-680.237	36.946	0.106	0.095
-679.222	-200.000	-0.001	-0.017
-678.208	800.000	-0.060	-0.220
-677.193	-35.483	-0.122	0.067
-676.178	800.000	-0.051	-0.170
-675.164	-96.984	-0.316	-0.084
-674.149	-39.400	-0.298	0.158
-673.135	224.354	0.093	-0.153
-672.120	-28.448	0.106	-0.062
-671.105	8.299	0.197	0.150
-670.091	800.000	0.034	0.097
-669.076	-48.385	0.230	-0.113
-668.062	-127.339	0.064	-0.009
-667.047	197.602	-0.217	-0.336
-666.032	-183.791	-0.350	0.006
-665.018	319.344	0.134	-0.258
-664.003	219.404	-0.169	-0.274
-662.989	32.265	0.063	0.055
-661.974	171.717	-0.213	0.310
-660.959	9.532	0.270	-0.208
-659.945	337.477	-0.091	-0.180
-658.930	-123.291	0.258	-0.042
-657.916	7.900	0.201	-0.153
-656.901	-92.023	0.299	0.086
-655.886	-200.000	0.029	-0.248
-654.872	-63.784	0.230	-0.096
-653.857	200.011	0.093	-0.145
-652.843	147.263	-0.075	-0.102
-651.828	-84.653	0.183	-0.059
-650.814	-153.304	-0.188	0.013
-649.799	184.486	-0.048	-0.073
-648.784	-180.670	0.102	-0.002
-647.770	-117.749	-0.193	0.035
-646.755	390.399	0.150	-0.316
-645.741	800.000	0.028	-0.096
-644.726	-184.720	0.171	0.003
-643.711	-16.160	0.072	-0.046
-642.697	-155.119	-0.256	-0.017
-641.682	-5.513	-0.157	-0.109
-640.668	-200.000	-0.023	-0.233
-639.653	-200.000	0.048	0.286
-638.638	-200.000	0.018	0.184
-637.624	-46.836	0.115	-0.057
-636.609	-64.259	-0.238	0.098
-635.595	800.000	-0.077	-0.232
-634.580	-34.695	0.080	0.045
-633.565	800.000	-0.078	0.252
-632.551	-48.537	0.032	-0.015
-631.536	233.832	-0.038	0.063
-630.522	263.535	0.122	-0.214
-629.507	800.000	0.111	-0.385
-628.492	-75.858	-0.366	-0.131
-627.478	-92.712	-0.252	-0.072
-626.463	-74.418	-0.128	-0.047
-625.449	-200.000	0.028	-0.219
-624.434	800.000	0.065	0.226
-623.419	42.743	-0.215	0.199
-622.405	-7.537	0.275	0.188
-621.390	-64.756	-0.348	0.143
-620.376	-61.071	-0.107	-0.046
-619.361	206.658	0.207	-0.326
-618.346	30.836	-0.138	0.120
-617.332	-43.665	-0.091	-0.047
-616.317	-12.013	-0.058	-0.038
-615.303	65.484	0.251	0.257
-614.288	23.708	-0.401	0.334
-613.273	800.000	0.031	0.092
-612.259	255.420	-0.235	0.407
-611.244	-116.756	0.416	-0.077
-610.230	91.281	0.219	-0.248
-609.215	-55.673	-0.336	-0.152
-608.201	217.578	0.174	0.281
-607.186	-81.683	-0.260	0.087
-606.171	108.073	-0.048	-0.058
-605.157	18.139	-0.139	-0.112
-604.142	385.645	-0.080	0.166
-603.128	-26.571	-0.278	0.165
-602.113	-54.718	0.191	-0.087
-601.098	-64.446	-0.321	0.132
-600.084	-200.000	0.003	0.068
-599.069	-160.049	0.233	-0.013
-598.055	85.269	-0.192	-0.213
-597.040	52.542	-0.169	-0.164
-596.025	-77.898	-0.151	-0.053
-595.011	275.107	0.090	0.161
-593.996	34.084	-0.121	0.107
-592.982	-38.075	0.182	0.098
-591.967	250.069	-0.151	-0.260
-590.952	-200.000	-0.054	-0.381
-589.938	79.693	-0.109	0.119
-588.923	-157.535	-0.330	0.020
-587.909	-92.532	0.080	-0.023
-586.894	-44.577	-0.193	0.098
-585.879	-200.000	-0.010	-0.185
-584.865	-200.000	0.063	-0.540
-583.850	283.034	-0.086	-0.157
-582.836	-200.000	-0.034	0.219
-581.821	44.372	0.072	-0.067
-580.806	-200.000	-0.017	0.567
-579.792	319.878	-0.063	-0.120
-578.777	-200.000	-0.037	-0.211
-577.763	510.030	-0.102	0.239
-576.748	-103.481	0.152	0.036
-575.733	140.082	-0.102	-0.136
-574.719	16.785	-0.103	0.083
-573.704	-36.623	-0.161	0.087
-572.690	800.000	-0.043	0.135
-571.675	-167.511	-0.148	-0.006
-570.661	-72.540	-0.124	0.046
-569.646	132.759	0.078	-0.102
-568.631	800.000	-0.023	0.067
-567.617	-1.405	-0.068	-0.049
-566.602	39.406	0.083	-0.075
-565.588	-157.274	0.374	-0.023
-564.573	-20.395	-0.096	-0.060
-563.558	-178.593	-0.135	-0.003
-562.544	-85.365	-0.152	0.048
-561.529	392.443	-0.056	0.119
-560.515	800.000	-0.075	-0.329
-559.500	800.000	0.088	0.303
-558.485	-105.436	-0.161	0.037
-557.471	69.265	0.184	0.192
-556.456	-89.969	-0.354	-0.104
-555.442	-200.000	0.014	-0.205
-554.427	166.540	-0.148	-0.212
-553.412	800.000	0.026	0.095
-552.398	-200.000	0.014	0.120
-551.383	-200.000	0.022	-0.319
-550.369	-19.601	0.222	-0.139
-549.354	-200.000	-0.064	-0.533
-548.339	800.000	-0.061	0.254
-547.325	-69.513	-0.276	-0.107
-546.310	-200.000	-0.016	0.128
-545.296	135.534	-0.143	0.187
-544.281	711.797	0.067	-0.180
-543.266	-115.843	0.076	-0.014
-542.252	-200.000	0.057	0.546
-541.237	83.162	0.114	0.125
-540.223	800.000	-0.042	0.173
-539.208	-132.988	-0.256	-0.033
-538.193	156.913	0.094	-0.131
-537.179	584.513	-0.184	-0.456
-536.164	800.000	-0.104	0.388
-535.150	-200.000	-0.242	0.001
-534.135	137.079	-0.107	-0.141
-533.121	-97.696	0.233	-0.061
-532.106	34.834	0.032	-0.028
-531.091	-1.637	0.191	0.136
-530.077	-3.960	0.268	-0.187
-529.062	-200.000	-0.008	0.086
-528.048	7.137	0.271	0.204
-527.033	1.131	-0.105	0.076
-526.018	313.442	-0.031	-0.058
-525.004	800.000	0.090	-0.271
-523.989	-99.740	0.185	-0.047
-522.975	-88.386	0.324	0.098
-521.960	61.547	-0.064	-0.064
-520.945	38.334	0.199	-0.179
-519.931	254.823	0.260	-0.449
-518.916	-168.742	-0.225	0.009
-517.902	-95.183	0.252	0.069
-516.887	84.497	-0.092	0.102
-515.872	21.553	0.071	-0.058
-514.858	-130.726	-0.253	-0.034
-513.843	146.444	-0.175	0.237
-512.829	661.090	-0.057	-0.148
-511.814	62.577	0.229	0.230
-510.799	-141.389	0.357	0.036
-509.785	-90.185	-0.281	-0.082
-508.770	206.614	0.125	-0.196
-507.756	139.333	-0.092	0.122
-506.741	4.192	-0.405	0.299
-505.726	108.156	-0.188	0.227
-504.712	-102.056	-0.289	0.070
-503.697	-200.000	-0.009	-0.071
-502.683	0.868	-0.261	0.189
-501.668	337.217	0.100	-0.195
-500.653	-200.000	0.035	0.254
-499.639	-96.727	-0.163	-0.043
-498.624	-96.621	0.107	-0.028
-497.610	122.201	-0.128	0.161
-496.595	-51.937	0.120	-0.056
-495.581	144.459	0.140	-0.188
-494.566	-110.887	-0.072	-0.015
-493.551	36.768	-0.185	-0.165
-492.537	-24.036	0.068	-0.041
-491.522	95.916	0.165	-0.190
-490.508	285.614	-0.283	0.515
-489.493	-75.566	-0.190	0.068
-488.478	56.421	0.190	0.187
-487.464	-89.277	-0.380	0.113
-486.449	-98.990	-0.145	-0.037
-485.435	-107.356	0.216	-0.048
-484.420	800.000	0.070	-0.227
-483.405	84.299	-0.066	0.072
-482.391	-14.245	-0.289	0.188
-481.376	145.559	-0.086	0.116
-480.362	142.290	0.207	0.277
-479.347	800.000	-0.027	0.080
-478.332	293.846	-0.200	-0.368
-477.318	-2.761	0.149	0.105
-476.303	-104.857	0.169	0.039
-475.289	800.000	0.093	0.311
-474.274	-200.000	-0.027	0.346
-473.259	-200.000	-0.025	-0.268
-472.245	309.615	0.091	0.172
-471.230	-17.100	-0.285	0.181
-470.216	-200.000	-0.022	0.243
-469.201	-31.201	0.229	0.130
-468.186	-200.000	-0.026	-0.270
-467.172	118.176	-0.159	0.198
-466.157	166.009	0.088	0.126
-465.143	-140.646	-0.163	-0.017
-464.128	14.235	0.086	0.068
-463.113	-62.464	-0.251	-0.105
-462.099	-114.171	-0.159	0.031
-461.084	-116.845	0.132	-0.024
-460.070	-48.353	-0.168	0.081
-459.055	800.000	-0.083	-0.270
-458.040	-27.087	-0.255	0.150
-457.026	-138.393	0.064	0.007
-456.011	-17.408	-0.146	0.093
-454.997	-200.000	0.015	-0.322
-453.982	61.897	0.105	0.105
-452.968	800.000	0.073	0.254
-451.953	255.141	-0.118	-0.204
-450.938	276.273	0.067	0.119
-449.924	420.377	0.059	0.128
-448.909	321.166	0.048	-0.092
-447.895	-200.000	-0.129	-0.000
-446.880	10.632	-0.148	-0.114
-445.865	800.000	0.086	0.269
-444.851	-114.432	-0.287	-0.056
-443.836	-116.424	-0.252	-0.047
-442.822	56.614	0.173	0.169
-441.807	800.000	-0.031	-0.117
-440.792	800.000	0.028	-0.081
-439.778	736.613	0.015	-0.041
-438.763	-200.000	-0.020	-0.287
-437.749	800.000	-0.065	0.216
-436.734	-135.299	0.230	-0.028
-435.719	800.000	-0.048	-0.135
-434.705	-76.179	0.223	0.079
-433.690	-18.808	0.281	-0.176
-432.676	270.654	0.075	-0.132
-431.661	-137.358	0.062	0.007
-430.646	800.000	-0.053	-0.156
-429.632	800.000	-0.019	-0.078
-428.617	0.641	0.238	0.171
-427.603	10.265	-0.079	-0.060
-426.588	-126.654	-0.115	0.017
-425.573	-200.000	-0.019	-0.218
-424.559	-87.520	0.175	-0.053
-423.544	-25.831	-0.147	-0.087
-422.530	436.071	0.047	-0.103
-421.515	197.540	0.176	0.270
-420.500	671.433	0.063	-0.164
-419.486	-200.000	-0.113	-0.571
-418.471	-7.689	0.128	0.087
-417.457	41.330	-0.020	0.018
-416.442	-200.000	0.003	-0.125
-415.428	-200.000	0.011	0.220
-414.413	-52.413	-0.100	0.047
-413.398	155.987	0.098	-0.135
-412.384	-103.208	-0.098	-0.023
-411.369	434.451	-0.099	-0.216
-410.355	-200.000	0.033	-0.266
-409.340	352.992	-0.114	0.228
-408.325	-147.038	-0.055	0.005
-407.311	158.541	-0.150	0.210
-406.296	180.484	-0.137	0.202
-405.282	-153.258	0.337	-0.024
-404.267	-57.525	-0.257	0.113
-403.252	-200.000	0.021	-0.231
-402.238	-60.366	-0.159	0.068
-401.223	-15.830	0.295	0.189
-400.209	-171.141	0.440	0.015
-399.194	207.519	-0.117	0.184
-398.179	800.000	0.059	-0.177
-397.165	-82.585	-0.199	-0.065
-396.150	248.772	-0.185	0.315
-395.136	733.140	-0.079	0.211
-394.121	-200.000	-0.025	-0.125
-393.106	-195.231	0.162	-0.001
-392.092	-200.000	0.023	-0.570
-391.077	59.815	0.258	-0.256
-390.063	-126.756	0.451	-0.067
-389.048	-99.749	0.360	0.091
-388.033	800.000	-0.075	-0.249
-387.019	75.541	-0.220	0.233
-386.004	-74.447	0.197	-0.071
-384.990	-164.220	-0.330	0.015
-383.975	800.000	-0.038	0.141
-382.960	-132.618	-0.258	0.033
-381.946	-77.710	-0.238	-0.083
-380.931	313.687	0.136	0.257
-379.917	12.217	0.233	0.180
-378.902	691.837	-0.091	0.239
-377.888	800.000	-0.045	0.194
-376.873	1.694	-0.180	-0.130
-375.858	800.000	-0.035	-0.103
-374.844	-200.000	-0.001	0.153
-373.829	800.000	-0.050	0.145
-372.815	69.218	-0.190	0.196
-371.800	-1.769	-0.258	0.182
-370.785	12.929	-0.119	0.093
-369.771	-127.158	0.177	-0.026
-368.756	-49.560	-0.108	0.052
-367.742	-189.066	-0.066	-0.001
-366.727	800.000	-0.051	-0.152
-365.712	148.749	-0.065	-0.089
-364.698	-200.000	0.045	0.277
-363.683	-200.000	0.010	-0.156
-362.669	-108.964	0.177	0.038
-361.654	371.543	0.034	0.070
-360.639	-12.996	0.137	-0.090
-359.625	-200.000	-0.065	0.328
-358.610	714.532	0.034	-0.092
-357.596	152.323	0.038	0.051
-356.581	216.019	-0.161	0.256
-355.566	-28.459	-0.117	-0.068
-354.552	-153.969	-0.111	-0.008
-353.537	-200.000	0.025	-0.154
-352.523	-86.309	0.325	-0.100
-351.508	-125.139	-0.362	0.056
-350.493	-15.679	0.191	-0.122
-349.479	-22.053	-0.178	-0.108
-348.464	171.285	0.149	0.215
-347.450	68.472	-0.032	0.033
-346.435	-5.426	0.103	0.071
-345.420	-200.000	-0.028	-0.147
-344.406	-63.781	-0.215	0.088
-343.391	578.406	0.126	0.309
-342.377	81.715	-0.356	0.386
-341.362	147.514	0.097	0.131
-340.348	320.773	-0.061	0.116
-339.333	800.000	0.097	0.308
-338.318	-75.154	0.182	-0.065
-337.304	-148.787	-0.023	0.002
-336.289	-68.115	-0.210	-0.082
-335.275	-57.586	0.141	-0.062
-334.260	196.676	0.053	-0.082
-333.245	-15.912	-0.297	-0.190
-332.231	11.874	0.183	-0.141
-331.216	234.493	-0.170	-0.281
-330.202	-95.713	0.429	-0.115
-329.187	-113.727	-0.213	0.042
-328.172	20.694	0.126	0.102
-327.158	293.041	0.094	-0.172
-326.143	-200.000	0.078	0.447
-325.129	-200.000	0.050	0.237
-324.114	704.626	-0.116	0.307
-323.099	-101.676	-0.126	0.031
-322.085	9.022	0.035	0.027
-321.070	431.660	0.120	0.260
-320.056	-95.556	0.156	0.042
-319.041	226.101	0.021	0.035
-318.026	-59.423	-0.175	-0.075
-317.012	-187.618	-0.276	0.004
-315.997	-73.603	0.229	0.083
-314.983	573.182	-0.083	-0.202
-313.968	-21.609	0.337	-0.206
-312.953	-9.945	-0.163	0.108
-311.939	250.886	0.151	0.257
-310.924	-94.642	-0.168	0.046
-309.910	-200.000	0.035	-0.275
-308.895	-200.000	0.016	0.157
-307.880	800.000	0.022	-0.070
-306.866	66.924	0.078	-0.080
-305.851	142.646	0.250	0.332
-304.837	-200.000	0.023	0.126
-303.822	79.808	-0.138	0.149
-302.807	-158.867	0.270	0.015
-301.793	-63.770	-0.176	-0.072
-300.778	163.542	-0.069	0.098
-299.764	-128.229	-0.161	-0.023
-298.749	-70.530	0.131	0.050
-297.735	-84.857	0.141	0.044
-296.720	-33.490	-0.176	-0.097
-295.705	-129.767	-0.294	-0.040
-294.691	17.955	0.070	-0.056
-293.676	-36.464	-0.281	-0.151
-292.662	-200.000	0.012	-0.199
-291.647	-200.000	-0.281	-0.000
-290.632	-183.001	0.205	0.004
-289.618	529.793	0.052	-0.124
-288.603	-200.000	0.015	-0.067
-287.589	120.804	-0.092	-0.114
-286.574	-200.000	-0.000	-0.051
-285.559	-200.000	0.050	-0.253
-284.545	800.000	0.088	-0.245
-283.530	800.000	-0.032	-0.104
-282.516	800.000	-0.024	-0.098
-281.501	-60.627	-0.328	-0.139
-280.486	120.329	0.156	-0.194
-279.472	-70.291	0.315	-0.119
-278.457	342.378	0.085	-0.165
-277.443	371.063	0.080	-0.162
-276.428	133.105	0.202	0.261
-275.413	27.819	-0.085	-0.071
-274.399	800.000	-0.085	0.256
-273.384	-157.102	-0.248	0.015
-272.370	179.476	0.143	0.209
-271.355	-51.632	-0.152	-0.071
-270.340	98.165	-0.041	0.048
-269.326	291.487	0.172	-0.312
-268.311	221.509	-0.129	-0.207
-267.297	22.858	-0.149	0.122
-266.282	515.619	-0.047	0.109
-265.267	712.480	0.029	0.077
-264.253	133.015	0.203	-0.262
-263.238	42.988	-0.195	-0.177
-262.224	-64.606	0.240	0.097
-261.209	800.000	0.014	-0.055
-260.195	800.000	0.075	-0.286
-259.180	-119.830	0.203	-0.035
-258.165	-200.000	-0.031	0.170
-257.151	800.000	-0.076	0.280
-256.136	3.284	-0.390	0.284
-255.122	-119.002	0.282	-0.049
-254.107	-200.000	-0.041	-0.199
-253.092	11.650	0.144	0.110
-252.078	4.852	-0.298	-0.219
-251.063	800.000	-0.031	-0.098
-250.049	-67.398	-0.146	0.057
-249.034	-200.000	-0.055	0.278
-248.019	-200.000	-0.022	0.100
-247.005	-122.829	-0.290	0.047
-245.990	-22.528	0.166	-0.100
-244.976	-35.641	0.407	0.220
-243.961	-104.648	0.158	0.036
-242.946	-51.585	-0.236	0.110
-241.932	800.000	-0.032	0.089
-240.917	214.334	-0.201	0.318
-239.903	-110.729	0.402	-0.083
-238.888	-129.769	-0.170	-0.023
-237.873	-153.506	-0.295	-0.020
-236.859	-200.000	0.086	-0.417
-235.844	-97.296	0.177	0.046
-234.830	435.339	0.076	-0.164
-233.815	119.498	0.294	0.363
-232.800	-200.000	0.012	-0.146
-231.786	790.251	-0.116	-0.319
-230.771	-112.145	-0.218	0.044
-229.757	-116.131	0.073	0.014
-228.742	-111.692	0.381	-0.077
-227.727	-83.686	0.191	-0.061
-226.713	-200.000	-0.010	-0.460
-225.698	-130.872	0.252	0.034
-224.684	272.922	0.138	-0.243
-223.669	65.217	-0.053	0.053
-222.655	-9.984	0.178	-0.118
-221.640	-69.213	-0.209	0.080
-220.625	-50.912	0.390	0.183
-219.611	270.266	0.085	-0.149
-218.596	241.216	0.103	-0.171
-217.582	25.553	0.456	0.379
-216.567	690.710	0.014	0.036
-215.552	186.452	0.063	0.094
-214.538	740.978	-0.067	-0.179
-213.523	-111.668	0.102	-0.021
-212.509	800.000	-0.089	0.301
-211.494	271.617	0.153	-0.269
-210.479	-125.108	0.235	-0.036
-209.465	140.693	-0.154	-0.203
-208.450	-10.056	0.160	-0.106
-207.436	-56.050	0.235	-0.104
-206.421	-200.000	-0.025	0.170
-205.406	-200.000	-0.022	-0.426
-204.392	592.239	-0.083	0.203
-203.377	275.524	0.135	0.238
-202.363	-151.522	0.144	0.011
-201.348	128.491	-0.249	-0.316
-200.333	-41.172	0.140	-0.072
-199.319	366.776	-0.160	0.321
-198.304	-21.333	0.155	0.094
-197.290	-200.000	-0.029	0.140
-196.275	135.902	0.226	0.294
-195.260	-200.000	0.029	0.278
-194.246	-112.884	0.154	-0.030
-193.231	338.196	0.130	0.252
-192.217	-168.656	0.211	0.008
-191.202	-200.000	-0.055	-0.381
-190.187	-200.000	-0.028	0.135
-189.173	65.477	0.209	0.211
-188.158	441.865	0.088	-0.192
-187.144	-78.600	0.398	-0.135
-186.129	0.892	0.375	-0.267
-185.114	800.000	0.033	0.121
-184.100	-200.000	0.002	-0.008
-183.085	-30.225	0.116	-0.065
-182.071	481.941	-0.178	-0.403
-181.056	-128.209	0.187	-0.027
-180.042	-70.230	-0.334	0.126
-179.027	27.205	-0.356	-0.298
-178.012	-127.414	0.474	-0.069
-176.998	187.708	0.132	0.196
-175.983	-47.674	0.102	-0.049
-174.969	-38.246	-0.479	0.253
-173.954	242.908	-0.101	0.169
-172.939	-200.000	0.007	-0.134
-171.925	-200.000	0.044	-0.409
-170.910	82.032	0.195	-0.210
-169.896	-3.694	0.051	0.035
-168.881	-91.182	0.192	-0.055
-167.866	-200.000	0.053	-0.292
-166.852	-97.977	0.136	-0.035
-165.837	246.379	0.125	-0.210
-164.823	742.472	0.101	0.270
-163.808	-129.706	0.285	-0.039
-162.793	800.000	0.100	0.298
-161.779	800.000	0.053	0.201
-160.764	-200.000	0.013	0.163
-159.750	81.944	0.142	-0.153
-158.735	-33.000	0.264	0.146
-157.720	142.267	-0.065	0.085
-156.706	-38.566	0.087	0.046
-155.691	-136.495	0.271	0.031
-154.677	-45.964	0.154	-0.076
-153.662	-200.000	-0.031	-0.436
-152.647	-80.807	-0.074	-0.025
-151.633	800.000	-0.089	-0.267
-150.618	-192.188	-0.338	0.003
-149.604	-116.567	0.333	-0.061
-148.589	-61.198	0.402	-0.169
-147.574	3.424	0.104	-0.075
-146.560	377.559	-0.046	-0.093
-145.545	79.567	0.375	-0.401
-144.531	-92.326	0.095	-0.027
-143.516	-103.913	0.452	-0.105
-142.502	702.591	-0.118	0.310
-141.487	356.062	-0.223	0.441
-140.472	-105.459	0.229	0.052
-139.458	-200.000	0.005	-0.232
-138.443	-110.093	0.251	0.052
-137.429	583.315	-0.039	-0.095
-136.414	473.673	-0.024	-0.054
-135.399	-200.000	-0.015	0.066
-134.385	-143.652	-0.298	0.028
-133.370	-88.139	0.157	0.047
-132.356	280.737	-0.051	0.090
-131.341	210.494	0.124	-0.193
-130.326	24.329	-0.141	-0.116
-129.312	679.996	0.099	-0.255
-128.297	-133.360	0.175	0.022
-127.283	44.565	-0.055	0.051
-126.268	-40.236	0.096	0.049
-125.253	-129.886	-0.272	0.037
-124.239	114.708	0.075	-0.091
-123.224	800.000	-0.115	0.470
-122.210	9.127	0.048	-0.036
-121.195	85.709	0.215	-0.235
-120.180	-122.945	0.016	0.003
-119.166	-19.420	0.086	0.053
-118.151	180.220	0.133	0.193
-117.137	249.060	-0.122	0.206
-116.122	-171.006	0.161	0.005
-115.107	456.656	-0.070	0.154
-114.093	-200.000	-0.030	-0.189
-113.078	6.736	0.210	-0.155
-112.064	324.782	-0.097	0.183
-111.049	81.552	0.371	0.399
-110.034	-177.057	0.342	-0.009
-109.020	-200.000	-0.014	-0.226
-108.005	3.900	-0.121	-0.088
-106.991	-200.000	0.050	-0.266
-105.976	695.236	-0.104	0.270
-104.962	800.000	0.028	-0.119
-103.947	800.000	-0.010	0.042
-102.932	-200.000	0.028	-0.134
-101.918	56.513	-0.099	0.095
-100.903	800.000	0.056	0.190
-99.889	110.596	0.104	-0.124
-98.874	-159.432	-0.255	-0.014
-97.859	-141.206	-0.483	-0.049
-96.845	800.000	-0.037	0.112
-95.830	-200.000	0.030	-0.266
-94.816	-200.000	-0.006	-0.154
-93.801	91.302	0.090	0.100
-92.786	2.544	-0.198	0.142
-91.772	-86.948	0.382	-0.116
-90.757	-133.195	0.226	0.028
-89.743	7.566	-0.059	0.044
-88.728	15.309	0.170	-0.133
-87.713	-87.935	-0.341	-0.102
-86.699	-143.675	0.296	0.028
-85.684	2.861	0.159	-0.115
-84.670	98.534	-0.113	-0.129
-83.655	-54.051	-0.309	0.139
-82.640	-37.957	0.373	-0.197
-81.626	-200.000	-0.003	-0.046
-80.611	-200.000	0.003	-0.218
-79.597	-55.066	0.092	0.041
-78.582	-200.000	-0.050	0.337
-77.567	800.000	0.047	0.147
-76.553	5.639	-0.322	-0.236
-75.538	-11.909	0.011	-0.007
-74.524	-5.221	-0.256	0.175
-73.509	800.000	-0.022	0.076
-72.494	800.000	0.025	0.089
-71.480	-200.000	-0.011	0.347
-70.465	-38.747	-0.266	0.139
-69.451	-200.000	-0.012	0.177
-68.436	-153.609	0.243	0.017
-67.422	33.463	-0.249	0.214
-66.407	470.938	-0.024	0.054
-65.392	-45.108	-0.109	0.054
-64.378	467.342	-0.165	0.366
-63.363	75.060	0.281	-0.294
-62.349	104.912	-0.235	0.274
-61.334	38.826	-1.175	-1.040
-60.319	52.935	0.371	0.352
-59.305	800.000	-0.293	-0.803
-58.290	-200.000	0.215	1.245
-57.276	800.000	0.466	1.380
-56.261	-200.000	93.447	557.727
-55.246	628.627	1375.786	3444.967
-54.232	189.596	2581.475	3834.898
-53.217	125.460	2178.388	2723.150
-52.203	48.168	1635.120	1515.019
-51.188	39.739	1370.944	1218.438
-50.173	36.405	1328.555	1160.722
-49.159	57.789	1375.769	1333.096
-48.144	62.312	1393.528	1377.825
-47.130	40.030	1349.229	1200.718
-46.115	36.326	1331.577	1162.703
-45.100	36.138	1326.187	1156.821
-44.086	36.085	1324.196	1154.720
-43.071	36.012	1322.021	1152.342
-42.057	36.025	1319.655	1150.314
-41.042	35.985	1318.068	1148.644
-40.027	36.128	1316.604	1148.176
-39.013	36.151	1314.789	1146.685
-37.998	36.083	1312.830	1144.525
-36.984	36.184	1310.999	1143.484
-35.969	36.243	1309.272	1142.283
-34.954	36.206	1307.634	1140.587
-33.940	36.217	1306.327	1139.464
-32.925	36.333	1304.635	1138.630
-31.911	36.319	1303.225	1137.272
-30.896	36.385	1302.080	1136.614
-29.881	36.250	1300.882	1134.729
-28.867	36.337	1298.926	1133.489
-27.852	36.337	1297.479	1132.181
-26.838	36.289	1296.524	1131.024
-25.823	36.278	1294.611	1129.243
-24.809	36.146	1293.803	1127.723
-23.794	36.245	1291.921	1126.617
-22.779	36.289	1290.391	1125.492
-21.765	36.348	1289.378	1124.911
-20.750	36.262	1287.948	1123.117
-19.736	36.158	1286.931	1121.583
-18.721	36.167	1285.613	1120.441
-17.706	36.136	1284.373	1119.136
-16.692	36.227	1282.784	1118.230
-15.677	36.153	1282.255	1117.298
-14.663	36.177	1280.659	1116.004
-13.648	36.254	1279.313	1115.233
-12.633	36.228	1278.784	1114.577
-11.619	36.067	1278.362	1113.231
-10.604	36.166	1276.529	1112.164
-9.590	36.141	1275.810	1111.348
-8.575	36.080	1275.651	1110.814
-7.560	36.126	1274.616	1110.134
-6.546	36.084	1273.864	1109.197
-5.531	36.074	1273.004	1108.344
-4.517	36.204	1271.914	1108.100
-3.502	36.087	1270.868	1106.467
-2.487	36.146	1269.630	1105.685
-1.473	36.089	1265.791	1101.973
-0.458	34.488	1249.609	1078.794
0.556	29.899	1230.899	1035.082
1.571	25.502	1235.256	1013.916
2.586	24.263	1250.344	1019.132
3.600	23.315	1239.854	1005.112
4.615	17.713	1167.062	916.007
5.629	8.984	1090.500	811.838
6.644	5.031	1069.895	776.770
7.659	4.781	1066.933	773.311
8.673	4.905	1066.076	773.232
9.688	4.983	1064.544	772.441
10.702	4.957	1063.106	771.201
11.717	9.704	1069.985	799.716
12.731	17.466	1080.265	846.055
13.746	19.956	1082.875	860.417
14.761	18.989	1081.391	854.359
15.775	17.961	1078.977	847.278
16.790	16.766	1077.300	839.961
17.804	16.074	1075.126	834.770
18.819	15.743	1074.226	832.358
19.834	15.526	1073.532	830.673
20.848	15.326	1072.666	828.942
21.863	15.102	1071.902	827.170
22.877	14.953	1071.057	825.711
23.892	14.939	1070.418	825.078
24.907	14.933	1069.577	824.323
25.921	15.039	1068.345	823.825
26.936	15.074	1066.952	822.848
27.950	15.039	1065.966	821.844
28.965	15.102	1063.798	820.409
29.980	15.185	1062.874	820.032
30.994	15.446	1061.207	819.945
32.009	15.343	1060.405	818.752
33.023	15.272	1059.120	817.341
34.038	15.130	1058.960	816.451
35.053	15.106	1057.571	815.192
36.067	15.011	1056.925	814.161
37.082	15.071	1056.365	813.948
38.096	15.115	1055.404	813.351
39.111	15.177	1054.740	813.069
40.126	15.138	1053.034	811.492
41.140	15.044	1051.762	809.983
42.155	14.832	1050.858	808.191
43.169	14.777	1049.562	806.858
44.184	14.772	1048.576	806.005
45.199	14.896	1047.548	805.741
46.213	14.917	1046.189	804.726
47.228	15.006	1045.630	804.653
48.242	15.049	1044.312	803.774
49.257	14.990	1043.341	802.673
50.271	15.014	1042.677	802.205
51.286	15.069	1041.624	801.586
52.301	15.076	1040.730	800.863
53.315	15.063	1039.115	799.484
54.330	14.859	1038.669	798.097
55.344	14.972	1037.920	797.993
56.359	14.971	1036.707	796.984
57.374	14.918	1035.903	796.044
58.388	14.684	1034.971	794.141
59.403	14.823	1033.853	793.875
60.417	14.950	1033.086	793.819
61.432	14.702	1032.786	792.342
62.447	14.788	1031.643	791.803
63.461	14.703	1031.396	791.140
64.476	14.750	1029.867	790.120
65.490	14.760	1029.140	789.540
66.505	14.761	1028.325	788.851
67.520	14.776	1028.101	788.680
68.534	14.876	1027.294	788.462
69.549	14.835	1026.293	787.427
70.563	14.802	1025.386	786.508
71.578	14.568	1025.025	785.062
72.593	14.627	1023.940	784.440
73.607	14.680	1023.168	784.027
74.622	14.618	1023.020	783.553
75.636	14.705	1021.912	783.042
76.651	14.766	1021.304	782.793
77.666	14.746	1020.972	782.376
78.680	14.596	1020.301	781.088
79.695	14.679	1019.360	780.688
80.709	14.786	1018.908	780.775
81.724	14.835	1018.321	780.484
82.739	14.886	1017.348	779.909
83.753	15.059	1016.439	779.945
84.768	15.148	1015.698	779.721
85.782	15.227	1014.847	779.370
86.797	15.293	1013.846	778.839
87.812	15.149	1013.151	777.564
88.826	15.011	1012.386	776.270
89.841	15.182	1011.055	775.972
90.855	15.143	1010.672	775.429
91.870	15.245	1009.589	775.001
92.884	15.273	1008.603	774.304
93.899	15.241	1007.812	773.483
94.914	15.369	1007.018	773.394
95.928	15.150	1006.464	771.892
96.943	15.139	1005.487	771.022
97.957	15.073	1004.722	770.063
98.972	15.071	1003.956	769.401
99.987	15.331	1002.868	769.693
101.001	15.211	1001.650	768.139
102.016	15.121	1001.027	767.179
103.030	15.087	1000.448	766.515
104.045	15.157	999.600	766.117
105.060	15.142	998.693	765.284
106.074	15.005	997.766	763.883
107.089	14.912	996.395	762.339
108.103	14.813	995.867	761.418
109.118	14.847	994.655	760.578
110.133	14.857	993.734	759.852
111.147	14.846	992.854	759.063
112.162	14.855	992.170	758.515
113.176	15.043	991.313	758.641
114.191	15.001	990.896	758.066
115.206	14.954	989.647	756.830
116.220	14.909	989.088	756.132
117.235	15.028	987.993	755.767
118.249	14.956	987.159	754.736
119.264	14.846	986.513	753.678
120.279	14.881	985.919	753.319
121.293	14.814	985.047	752.281
122.308	14.760	984.030	751.199
123.322	14.771	982.708	750.171
124.337	14.699	981.918	749.177
125.352	14.906	980.320	748.821
126.366	14.826	979.586	747.837
127.381	14.858	978.695	747.232
128.395	14.899	977.607	746.516
129.410	14.972	976.810	746.171
130.424	14.950	976.280	745.601
131.439	15.038	975.744	745.519
132.454	14.986	975.320	744.893
133.468	15.014	974.001	743.946
134.483	14.975	973.128	743.040
135.497	15.020	972.229	742.488
136.512	15.070	971.016	741.717
137.527	15.089	970.519	741.354
138.541	15.048	969.835	740.587
139.556	14.983	969.066	739.649
140.570	15.103	968.348	739.565
141.585	15.327	967.772	740.049
142.600	15.289	966.871	739.126
143.614	15.317	966.076	738.576
144.629	15.320	965.358	737.974
145.643	15.218	964.525	736.822
146.658	15.224	963.454	735.965
147.673	15.119	962.288	734.550
148.687	15.055	961.441	733.556
149.702	15.099	960.075	732.646
150.716	14.990	959.612	731.749
151.731	15.033	958.808	731.258
152.746	15.043	958.087	730.687
153.760	15.196	957.592	730.915
154.775	15.287	957.119	730.882
155.789	15.201	956.655	730.089
156.804	15.303	955.532	729.611
157.819	15.311	955.205	729.335
158.833	15.228	954.802	728.600
159.848	15.446	953.866	728.769
160.862	15.265	953.259	727.455
161.877	15.086	951.989	725.647
162.892	15.191	950.188	724.662
163.906	15.197	949.221	723.887
164.921	15.194	948.390	723.175
165.935	15.140	948.064	722.630
166.950	15.250	946.983	722.215
167.964	15.217	946.683	721.782
168.979	15.301	945.571	721.234
169.994	15.232	944.767	720.257
171.008	15.350	943.910	720.046
172.023	15.331	943.519	719.605
173.037	15.453	942.720	719.455
174.052	15.369	941.877	718.389
175.067	15.259	940.934	717.133
176.081	15.107	940.524	716.106
177.096	15.235	940.146	716.302
178.110	15.160	939.808	715.662
179.125	15.325	938.698	715.459
180.140	15.416	938.237	715.433
181.154	15.497	938.013	715.540
182.169	15.499	937.220	714.883
183.183	15.691	936.465	715.059
184.198	15.489	936.436	714.115
185.213	15.414	935.711	713.183
186.227	15.519	934.940	712.975
187.242	15.616	933.962	712.578
188.256	15.731	933.406	712.580
189.271	15.682	932.717	711.782
190.286	15.477	931.802	710.154
191.300	15.288	930.833	708.554
192.315	14.978	930.871	707.210
193.329	15.164	929.932	707.217
194.344	15.257	929.609	707.305
195.359	15.440	928.666	707.294
196.373	15.491	928.153	707.058
197.388	15.635	927.982	707.471
198.402	15.673	927.529	707.222
199.417	15.836	926.864	707.334
200.432	15.826	926.389	706.870
201.446	15.796	926.082	706.448
202.461	15.888	925.546	706.362
203.475	15.861	924.736	705.566
204.490	15.773	924.011	704.583
205.504	15.652	923.311	703.481
206.519	15.587	922.605	702.608
207.534	15.596	922.008	702.129
208.548	15.735	921.038	701.908
209.563	15.806	920.079	701.414
210.577	15.881	919.597	701.295
211.592	15.885	918.832	700.668
212.607	15.897	918.384	700.314
213.621	15.960	917.253	699.649
214.636	15.871	916.831	698.897
215.650	15.868	916.269	698.395
216.665	15.803	915.912	697.789
217.680	16.080	914.869	698.082
218.694	16.038	914.105	697.265
219.709	16.055	913.810	697.048
220.723	15.996	913.119	696.215
221.738	16.069	912.180	695.739
222.753	15.941	911.511	694.636
223.767	16.001	911.209	694.594
224.782	16.154	910.577	694.681
225.796	16.012	910.240	693.779
226.811	16.163	909.291	693.614
227.826	16.032	908.516	692.425
228.840	16.117	907.630	692.036
229.855	16.134	906.783	691.399
230.869	15.999	905.949	690.147
231.884	16.036	905.246	689.703
232.899	15.961	905.139	689.253
233.913	16.092	904.188	689.004
234.928	16.115	903.233	688.310
235.942	15.852	903.058	687.042
236.957	16.055	902.277	687.215
237.972	15.978	901.645	686.358
238.986	16.024	901.116	686.081
240.001	16.090	900.190	685.584
241.015	16.124	899.805	685.370
242.030	16.145	899.359	685.052
243.045	16.116	898.773	684.431
244.059	16.064	897.769	683.393
245.074	16.298	897.423	684.020
246.088	16.296	896.680	683.381
247.103	16.304	896.096	682.910
248.117	16.348	895.944	682.912
249.132	16.446	895.648	683.020
250.147	16.488	894.781	682.467
251.161	16.537	894.290	682.233
252.176	16.653	893.523	682.053
253.190	16.704	892.671	681.549
254.205	16.717	892.066	681.080
255.220	16.699	891.370	680.415
256.234	16.683	890.450	679.587
257.249	16.861	889.718	679.684
258.263	16.897	888.979	679.202
259.278	16.601	888.758	677.788
260.293	16.758	888.370	678.062
261.307	16.845	887.487	677.673
262.322	16.850	887.091	677.333
263.336	16.783	886.500	676.553
264.351	16.898	885.279	676.020
265.366	16.915	884.907	675.744
266.380	16.862	884.325	675.030
267.395	16.769	884.001	674.350
268.409	16.769	882.967	673.502
269.424	16.859	882.040	673.093
270.439	16.833	881.230	672.313
271.453	16.709	880.857	671.478
272.468	16.847	880.615	671.780
273.482	16.755	879.662	670.631
274.497	16.649	878.940	669.599
275.512	16.846	878.675	670.120
276.526	16.865	878.105	669.698
277.541	16.868	877.084	668.873
278.555	16.944	876.987	669.039
279.570	17.018	876.007	668.525
280.585	17.181	875.119	668.429
281.599	17.177	874.125	667.596
282.614	16.885	873.962	666.263
283.628	16.853	873.618	665.819
284.643	16.913	873.058	665.568
285.657	16.985	872.086	665.052
286.672	16.981	871.531	664.553
287.687	17.031	871.191	664.430
288.701	17.010	870.611	663.846
289.716	17.076	869.843	663.460
290.730	17.144	869.253	663.217
291.745	17.093	868.801	662.614
292.760	17.056	868.657	662.303
293.774	17.203	868.000	662.317
294.789	17.165	867.210	661.504
295.803	17.157	866.220	660.662
296.818	17.083	865.526	659.784
297.833	17.124	864.457	659.073
298.847	17.164	864.055	658.861
299.862	17.192	863.800	658.719
300.876	17.223	863.277	658.381
301.891	17.390	862.425	658.319
302.906	17.386	862.124	658.017
303.920	17.483	862.006	658.242
304.935	17.455	861.325	657.555
305.949	17.370	860.221	656.328
306.964	17.341	860.101	656.067
307.979	17.566	859.248	656.226
308.993	17.485	858.560	655.328
310.008	17.515	858.399	655.265
311.022	17.395	857.693	654.204
312.037	17.367	856.877	653.419
313.052	17.243	856.111	652.297
314.066	17.318	855.655	652.180
315.081	17.366	855.575	652.246
316.095	17.357	854.641	651.442
317.110	17.344	853.988	650.836
318.125	17.223	853.891	650.244
319.139	17.254	853.120	649.716
320.154	17.384	852.423	649.623
321.168	17.450	851.993	649.493
322.183	17.476	851.548	649.195
323.197	17.337	851.164	648.314
324.212	17.376	850.662	648.023
325.227	17.374	849.817	647.315
326.241	17.411	849.288	646.995
327.256	17.424	848.902	646.693
328.270	17.405	848.277	646.088
329.285	17.431	847.848	645.801
330.300	17.378	846.850	644.784
331.314	17.470	846.660	644.932
332.329	17.478	846.465	644.756
333.343	17.579	845.603	644.425
334.358	17.630	845.462	644.453
335.373	17.631	845.024	644.065
336.387	17.594	844.965	643.823
337.402	17.569	844.544	643.350
338.416	17.712	843.829	643.288
339.431	17.856	843.278	643.355
340.446	18.003	843.115	643.729
341.460	17.865	842.861	642.958
342.475	17.942	842.088	642.601
343.489	17.908	842.098	642.424
344.504	18.012	841.374	642.203
345.519	18.042	840.906	641.905
346.533	17.937	840.530	641.166
347.548	17.936	839.692	640.466
348.562	17.832	839.077	639.548
349.577	17.838	838.339	638.955
350.592	17.893	837.428	638.408
351.606	17.723	837.217	637.558
352.621	17.770	836.547	637.166
353.635	17.867	835.993	637.047
354.650	17.794	835.295	636.187
355.665	17.957	834.783	636.351
356.679	17.951	834.562	636.104
357.694	18.019	833.364	635.387
358.708	18.079	832.718	635.061
359.723	17.924	832.241	634.065
360.738	18.121	831.185	633.934
361.752	18.059	830.999	633.505
362.767	18.188	830.620	633.639
363.781	18.167	830.197	633.184
364.796	18.241	829.664	632.994
365.810	18.435	829.452	633.494
366.825	18.529	828.705	633.213
367.840	18.296	828.499	632.139
368.854	18.245	828.298	631.743
369.869	18.231	827.797	631.253
370.883	18.309	827.277	631.089
371.898	18.437	826.953	631.256
372.913	18.364	826.453	630.552
373.927	18.390	825.817	630.106
374.942	18.410	825.494	629.874
375.956	18.549	824.900	629.877
376.971	18.547	824.322	629.372
377.986	18.649	823.813	629.303
379.000	18.589	823.298	628.635
380.015	18.630	822.970	628.479
381.029	18.594	822.222	627.718
382.044	18.615	821.673	627.322
383.059	18.689	820.930	626.971
384.073	18.667	820.555	626.547
385.088	18.492	820.115	625.516
386.102	18.542	819.478	625.158
387.117	18.471	818.747	624.287
388.132	18.529	817.961	623.845
389.146	18.579	817.802	623.849
390.161	18.626	817.676	623.867
391.175	18.668	816.940	623.404
392.190	18.505	816.794	622.646
393.205	18.483	815.883	621.817
394.219	18.506	815.809	621.787
395.234	18.287	815.684	620.843
396.248	18.541	814.799	621.035
397.263	18.560	813.876	620.344
398.278	18.411	813.950	619.809
399.292	18.595	813.114	619.780
400.307	18.466	812.948	619.134
401.321	18.427	812.434	618.548
402.336	18.626	811.781	618.711
403.350	18.660	811.713	618.730
404.365	18.674	811.409	618.493
405.380	18.652	810.908	617.978
406.394	18.806	810.383	618.078
407.409	18.966	809.810	618.158
408.423	18.983	809.176	617.684
409.438	19.132	808.929	617.975
410.453	19.035	808.921	617.566
411.467	19.106	808.258	617.260
412.482	19.009	808.025	616.680
413.496	19.228	807.487	616.997
414.511	19.107	807.143	616.249
415.526	19.030	806.546	615.462
416.540	19.067	806.302	615.353
417.555	19.090	805.447	614.727
418.569	19.162	805.025	614.609
419.584	19.155	804.194	613.894
420.599	19.093	804.282	613.687
421.613	154.061	1369.939	1787.197
422.628	133.649	1452.369	1787.302
