DTS Sentinel unit serial number:	SN413079Multiplexer serial number:	ORYXHardware model number:	OX4-SRSoftware version number:	ORYX F/W v4.00 Oryx Data Collector v3.7.2.0data status	okinstallation	princeton_trtdifferential loss correction	single-endedforward channel	channel 1reverse channel	N/Adate	2019/09/14time	14:50:35forward acquisition time	60.00reverse acquisition time	0.00gamma	496.2192k internal	0.2294k external	0.2294temperature offset calibration	1.0072default loss term (dB/km)	0.3790temperature slope calibration	1.0000multiplexer offset coefficient	1.0000multiplexer slope coefficient	1.0000fibre end	0.00T internal ref (°C)	39.17T ext. ref 1 (°C)	4.99T ext. ref 2 (°C)	33.78length (m)	temperature (°C)	Stokes	anti-Stokes-747.200	-128.941	-0.264	0.038
-746.185	800.000	0.086	0.352
-745.171	-40.914	0.336	0.177
-744.156	-97.280	-0.286	0.076
-743.142	43.768	0.122	-0.114
-742.127	-79.860	0.140	0.048
-741.112	-102.632	0.331	-0.081
-740.098	800.000	0.095	0.363
-739.083	157.626	0.072	-0.102
-738.069	-101.621	-0.157	0.039
-737.054	53.976	-0.081	0.080
-736.039	-62.088	-0.418	-0.179
-735.025	77.728	0.166	-0.181
-734.010	-200.000	-0.043	-0.195
-732.996	72.974	-0.201	-0.215
-731.981	16.317	0.284	-0.229
-730.966	-200.000	-0.010	-0.112
-729.952	767.319	0.124	0.344
-728.937	-20.648	-0.255	0.160
-727.923	-59.755	-0.111	0.048
-726.908	-16.401	0.065	-0.042
-725.894	238.545	0.178	0.302
-724.879	-108.344	-0.235	0.052
-723.864	800.000	0.117	-0.388
-722.850	24.889	0.239	-0.203
-721.835	-200.000	-0.014	0.110
-720.821	-136.255	0.121	0.014
-719.806	-140.030	-0.151	-0.016
-718.791	-15.036	0.112	0.073
-717.777	-101.234	-0.383	0.096
-716.762	124.409	-0.225	0.289
-715.748	318.048	0.089	-0.171
-714.733	-80.551	0.381	-0.130
-713.718	-20.545	0.160	0.101
-712.704	394.960	-0.052	0.110
-711.689	-200.000	0.014	-0.462
-710.675	-61.760	-0.399	-0.171
-709.660	800.000	-0.081	-0.265
-708.645	599.161	0.032	0.081
-707.631	50.581	-0.102	-0.099
-706.616	-200.000	0.007	0.145
-705.602	112.300	0.086	0.106
-704.587	-200.000	-0.026	-0.166
-703.572	-200.000	-0.006	0.073
-702.558	-83.324	-0.096	-0.032
-701.543	42.405	-0.128	0.119
-700.529	487.891	0.145	-0.339
-699.514	83.630	-0.131	0.146
-698.499	-200.000	0.010	-0.153
-697.485	149.849	-0.025	-0.035
-696.470	-71.609	0.174	0.066
-695.456	-200.000	0.001	-0.138
-694.441	-58.255	-0.196	0.087
-693.426	-200.000	-0.011	-0.155
-692.412	21.303	0.163	0.135
-691.397	29.398	-0.024	-0.021
-690.383	-9.623	-0.285	0.194
-689.368	-105.824	-0.397	-0.091
-688.354	386.975	-0.132	-0.279
-687.339	545.609	0.022	0.053
-686.324	163.142	0.167	-0.240
-685.310	-200.000	-0.076	-0.416
-684.295	126.684	-0.318	-0.411
-683.281	-200.000	0.037	-0.529
-682.266	-73.394	-0.212	-0.079
-681.251	376.745	-0.097	-0.202
-680.237	-69.538	0.239	-0.093
-679.222	99.917	-0.061	0.073
-678.208	-200.000	-0.030	-0.136
-677.193	221.371	0.046	0.075
-676.178	800.000	0.107	-0.342
-675.164	-162.729	-0.296	0.015
-674.149	70.004	0.095	-0.100
-673.135	-200.000	0.021	0.285
-672.120	79.086	-0.081	-0.088
-671.105	-200.000	-0.017	-0.149
-670.091	8.731	-0.217	-0.167
-669.076	459.195	0.029	-0.065
-668.062	-93.045	-0.226	0.064
-667.047	800.000	0.015	-0.054
-666.032	-55.133	-0.155	0.071
-665.018	-100.406	-0.317	-0.080
-664.003	800.000	0.075	-0.303
-662.989	312.457	-0.086	-0.165
-661.974	75.149	0.202	-0.217
-660.959	53.824	-0.180	-0.176
-659.945	-200.000	0.008	0.082
-658.930	-130.279	0.293	-0.041
-657.916	-38.544	0.169	-0.091
-656.901	-200.000	0.009	-0.063
-655.886	-137.515	0.091	-0.011
-654.872	-128.197	-0.234	-0.034
-653.857	29.764	-0.252	0.218
-652.843	-200.000	-0.034	-0.242
-651.828	95.301	-0.113	-0.132
-650.814	674.779	-0.059	0.157
-649.799	46.292	-0.140	0.132
-648.784	107.259	0.281	-0.340
-647.770	-50.089	0.302	-0.146
-646.755	103.195	-0.164	-0.196
-645.741	22.524	0.079	0.065
-644.726	-99.789	-0.380	-0.097
-643.711	-51.343	0.130	0.062
-642.697	-83.868	-0.151	0.049
-641.682	-144.389	0.348	0.033
-640.668	4.664	0.115	0.086
-639.653	-117.064	0.197	0.037
-638.638	-200.000	-0.024	-0.205
-637.624	-200.000	-0.012	-0.305
-636.609	-71.049	-0.289	0.111
-635.595	164.242	0.146	0.209
-634.580	460.427	-0.109	-0.247
-633.565	-156.301	-0.221	0.014
-632.551	-143.311	0.112	0.011
-631.536	-200.000	0.015	0.068
-630.522	34.345	0.145	-0.129
-629.507	800.000	0.057	-0.183
-628.492	15.976	-0.081	0.065
-627.478	-65.047	0.217	0.089
-626.463	800.000	-0.068	-0.276
-625.449	-200.000	-0.003	-0.320
-624.434	-56.014	-0.403	-0.183
-623.419	150.219	-0.097	0.134
-622.405	-72.306	0.127	-0.048
-621.390	104.269	0.051	-0.062
-620.376	-67.282	-0.174	-0.070
-619.361	800.000	-0.045	-0.163
-618.346	-118.814	-0.301	0.054
-617.332	28.079	-0.091	-0.078
-616.317	676.482	0.044	0.117
-615.303	44.669	0.181	-0.169
-614.288	132.339	-0.087	0.114
-613.273	-51.506	-0.161	-0.077
-612.259	154.551	-0.100	-0.140
-611.244	-103.707	-0.212	-0.050
-610.230	-143.565	0.196	0.019
-609.215	454.704	0.099	0.223
-608.201	-200.000	-0.076	0.433
-607.186	-101.007	0.296	0.074
-606.171	-13.483	-0.231	-0.152
-605.157	51.940	-0.162	0.157
-604.142	-32.048	-0.246	0.140
-603.128	-78.752	-0.245	0.085
-602.113	520.663	-0.025	0.059
-601.098	-200.000	-0.014	0.000
-600.084	546.882	-0.058	-0.140
-599.069	281.963	0.223	-0.407
-598.055	-149.746	-0.140	-0.011
-597.040	-200.000	-0.024	-0.137
-596.025	139.892	-0.206	-0.276
-595.011	-47.090	-0.299	-0.148
-593.996	-149.266	0.356	0.029
-592.982	-103.917	-0.109	-0.026
-591.967	263.555	0.030	-0.053
-590.952	0.929	0.311	0.226
-589.938	-131.415	-0.227	0.031
-588.923	-200.000	0.042	-0.335
-587.909	-109.966	0.038	-0.008
-586.894	-12.855	0.065	-0.043
-585.879	-200.000	-0.021	0.119
-584.865	535.058	-0.093	-0.223
-583.850	-46.106	0.276	0.138
-582.836	60.788	0.145	-0.147
-581.821	-31.583	0.281	-0.160
-580.806	131.922	-0.079	0.104
-579.792	-20.348	-0.148	0.093
-578.777	46.404	-0.096	0.091
-577.763	1.154	-0.225	-0.164
-576.748	-200.000	-0.016	-0.112
-575.733	-53.165	-0.332	-0.155
-574.719	-90.632	-0.133	-0.039
-573.704	258.280	0.113	0.198
-572.690	-200.000	0.006	0.231
-571.675	-21.172	-0.133	-0.083
-570.661	125.776	0.162	0.208
-569.646	-200.000	0.003	0.041
-568.631	573.759	0.034	0.085
-567.617	62.243	0.047	0.048
-566.602	-141.099	0.324	-0.034
-565.588	800.000	-0.120	-0.346
-564.573	-103.934	-0.131	0.031
-563.558	-200.000	-0.012	0.123
-562.544	-71.187	-0.138	0.053
-561.529	233.605	-0.203	-0.340
-560.515	-200.000	-0.038	0.186
-559.500	-112.577	0.080	0.016
-558.485	-200.000	0.040	0.238
-557.471	-37.110	-0.258	0.140
-556.456	-200.000	0.010	-0.062
-555.442	130.214	0.109	0.141
-554.427	-110.240	-0.156	-0.033
-553.412	-132.455	0.352	0.046
-552.398	-200.000	0.036	0.311
-551.383	-14.987	-0.106	-0.069
-550.369	101.483	0.067	0.080
-549.354	221.569	-0.268	-0.438
-548.339	-166.770	-0.071	0.003
-547.325	573.170	-0.029	0.071
-546.310	-200.000	-0.018	0.335
-545.296	40.704	0.150	-0.137
-544.281	800.000	0.051	-0.196
-543.266	-107.129	-0.206	0.046
-542.252	158.503	0.137	0.193
-541.237	659.246	-0.093	0.243
-540.223	-37.987	-0.145	0.078
-539.208	-200.000	0.042	-0.368
-538.193	-200.000	0.101	-0.486
-537.179	138.242	-0.048	0.064
-536.164	-74.362	-0.271	0.099
-535.150	-167.086	0.339	-0.014
-534.135	28.516	0.086	0.074
-533.121	602.597	0.038	0.097
-532.106	283.127	0.230	0.419
-531.091	79.505	-0.187	0.204
-530.077	124.405	0.204	0.260
-529.062	87.337	-0.173	0.194
-528.048	113.206	-0.132	0.162
-527.033	-200.000	0.081	0.388
-526.018	2.329	-0.222	0.163
-525.004	170.684	-0.150	0.217
-523.989	-89.503	-0.087	0.026
-522.975	-74.462	0.446	0.163
-521.960	582.323	0.161	-0.402
-520.945	56.172	0.073	0.072
-519.931	800.000	-0.050	0.176
-518.916	41.434	0.056	-0.051
-517.902	-200.000	0.029	-0.143
-516.887	800.000	0.172	-0.511
-515.872	19.409	-0.260	-0.212
-514.858	-155.321	-0.061	-0.004
-513.843	-200.000	0.005	-0.389
-512.829	-47.645	0.244	-0.120
-511.814	-45.047	0.074	-0.037
-510.799	-40.897	-0.070	-0.037
-509.785	-131.731	-0.446	-0.059
-508.770	-77.075	-0.133	0.047
-507.756	-200.000	-0.032	0.201
-506.741	525.098	-0.048	-0.113
-505.726	-94.720	-0.351	-0.097
-504.712	493.611	-0.092	0.214
-503.697	-140.981	0.282	-0.029
-502.683	50.806	0.021	0.020
-501.668	800.000	0.031	0.103
-500.653	334.703	0.073	-0.143
-499.639	126.698	-0.131	-0.168
-498.624	-200.000	0.011	0.058
-497.610	800.000	0.045	0.188
-496.595	79.121	-0.168	0.182
-495.581	425.340	0.071	-0.156
-494.566	83.045	0.121	0.134
-493.551	800.000	-0.069	0.294
-492.537	-66.130	-0.009	-0.003
-491.522	-97.987	-0.435	-0.113
-490.508	36.368	-0.148	0.132
-489.493	37.858	-0.111	-0.100
-488.478	-200.000	-0.021	-0.259
-487.464	-200.000	-0.021	-0.202
-486.449	-25.153	-0.240	0.144
-485.435	-86.919	0.331	-0.102
-484.420	-200.000	-0.026	0.364
-483.405	-200.000	0.003	-0.176
-482.391	-164.420	-0.144	0.007
-481.376	-200.000	0.011	-0.299
-480.362	-200.000	-0.075	0.362
-479.347	-145.314	0.198	0.018
-478.332	-19.866	0.277	-0.173
-477.318	-200.000	-0.029	0.181
-476.303	-200.000	-0.032	-0.160
-475.289	-54.178	-0.094	-0.043
-474.274	-200.000	-0.023	-0.185
-473.259	-45.908	0.348	0.174
-472.245	-133.451	0.083	-0.011
-471.230	-87.796	0.017	0.005
-470.216	-74.471	0.247	0.090
-469.201	-27.457	-0.158	-0.093
-468.186	-62.453	-0.059	0.025
-467.172	-200.000	0.005	0.046
-466.157	289.765	-0.185	-0.340
-465.143	60.774	-0.322	-0.323
-464.128	288.716	0.113	-0.207
-463.113	98.950	-0.189	-0.221
-462.099	-118.154	0.275	0.050
-461.084	206.774	0.124	0.196
-460.070	37.990	-0.168	0.151
-459.055	37.163	0.195	0.174
-458.040	-40.510	-0.080	0.042
-457.026	292.144	0.077	-0.142
-456.011	-200.000	0.010	0.130
-454.997	-37.710	0.037	-0.020
-453.982	-3.071	-0.275	0.194
-452.968	800.000	-0.076	-0.254
-451.953	313.760	0.040	-0.077
-450.938	-200.000	-0.017	0.103
-449.924	-200.000	-0.011	0.185
-448.909	601.946	0.098	0.247
-447.895	-111.306	-0.246	0.051
-446.880	800.000	0.097	0.397
-445.865	-132.437	-0.323	-0.042
-444.851	260.809	-0.061	0.107
-443.836	-131.701	0.091	0.012
-442.822	-200.000	-0.047	-0.303
-441.807	541.383	0.092	-0.221
-440.792	622.292	0.043	-0.110
-439.778	-200.000	-0.007	-0.149
-438.763	-91.134	-0.182	-0.053
-437.749	6.255	0.032	0.024
-436.734	-78.035	-0.094	-0.033
-435.719	320.136	0.149	0.286
-434.705	-200.000	-0.074	-0.467
-433.690	233.088	-0.105	-0.175
-432.676	-200.000	-0.025	0.372
-431.661	-115.567	0.215	-0.041
-430.646	-60.391	0.088	-0.038
-429.632	-116.286	0.184	0.034
-428.617	-138.935	-0.048	0.005
-427.603	51.143	-0.175	-0.168
-426.588	-126.383	0.259	0.039
-425.573	66.110	0.040	-0.041
-424.559	-62.239	0.276	-0.116
-423.544	-97.450	-0.080	-0.021
-422.530	-78.776	0.186	-0.064
-421.515	-31.172	-0.198	0.113
-420.500	104.383	-0.124	0.147
-419.486	-200.000	-0.013	-0.092
-418.471	797.656	-0.025	-0.070
-417.457	221.594	0.126	-0.205
-416.442	-53.426	-0.066	0.030
-415.428	116.665	0.183	0.227
-414.413	287.871	-0.075	-0.136
-413.398	435.877	0.065	-0.143
-412.384	-51.415	-0.132	0.062
-411.369	242.518	-0.202	0.341
-410.355	-200.000	0.023	0.149
-409.340	-140.778	0.193	-0.020
-408.325	110.401	-0.173	-0.210
-407.311	-87.236	0.096	0.029
-406.296	-200.000	-0.059	0.294
-405.282	188.717	-0.147	0.221
-404.267	37.604	-0.032	0.029
-403.252	-90.040	-0.333	-0.098
-402.238	800.000	0.066	0.281
-401.223	-150.314	-0.132	-0.010
-400.209	626.640	-0.052	-0.132
-399.194	-63.978	0.128	0.053
-398.179	-96.950	0.290	0.077
-397.165	5.555	0.109	0.081
-396.150	50.205	-0.133	0.127
-395.136	800.000	-0.074	0.319
-394.121	244.311	-0.084	0.142
-393.106	-200.000	0.012	0.393
-392.092	160.316	0.169	-0.238
-391.077	113.984	0.129	-0.158
-390.063	-200.000	-0.026	0.299
-389.048	-200.000	0.015	-0.172
-388.033	11.364	0.217	-0.167
-387.019	-168.543	0.331	0.013
-386.004	-134.049	0.414	-0.052
-384.990	21.989	0.245	0.202
-383.975	-6.280	0.181	0.125
-382.960	-27.114	0.176	0.103
-381.946	-36.060	0.156	0.085
-380.931	156.899	0.301	-0.419
-379.917	85.483	0.127	0.141
-378.902	-98.847	-0.197	0.051
-377.888	162.159	0.037	0.053
-376.873	800.000	-0.044	0.165
-375.858	800.000	0.073	0.271
-374.844	84.295	-0.104	0.114
-373.829	-200.000	0.022	-0.193
-372.815	482.063	0.198	0.454
-371.800	-15.684	0.075	0.048
-370.785	-80.251	0.089	0.030
-369.771	639.809	-0.134	-0.343
-368.756	-163.608	-0.155	0.007
-367.742	-200.000	0.004	0.297
-366.727	82.961	0.134	-0.147
-365.712	90.594	0.240	-0.270
-364.698	5.904	-0.202	-0.150
-363.683	-98.180	0.324	0.084
-362.669	135.055	-0.025	-0.033
-361.654	-133.923	0.145	-0.018
-360.639	-107.512	-0.011	-0.002
-359.625	141.738	-0.074	-0.099
-358.610	69.338	0.054	0.056
-357.596	-45.854	-0.230	0.115
-356.581	800.000	0.102	-0.295
-355.566	-108.561	-0.125	0.027
-354.552	178.772	0.055	-0.081
-353.537	25.025	-0.180	0.150
-352.523	125.314	0.095	0.121
-351.508	-92.404	-0.250	-0.071
-350.493	-89.884	-0.140	0.041
-349.479	45.345	0.081	-0.075
-348.464	79.488	-0.147	-0.159
-347.450	122.736	-0.151	-0.190
-346.435	-32.404	0.268	-0.151
-345.420	-111.569	-0.094	-0.019
-344.406	-76.884	-0.315	0.111
-343.391	-125.347	-0.189	-0.029
-342.377	-200.000	-0.049	-0.224
-341.362	-196.677	0.195	-0.001
-340.348	-41.225	0.124	0.065
-339.333	178.025	-0.162	-0.238
-338.318	238.104	0.142	0.237
-337.304	-200.000	-0.015	-0.250
-336.289	275.243	-0.093	-0.167
-335.275	-200.000	0.049	0.222
-334.260	28.045	-0.062	0.052
-333.245	-64.897	-0.118	0.048
-332.231	10.253	0.270	0.207
-331.216	47.305	0.164	-0.154
-330.202	76.105	0.102	-0.109
-329.187	-200.000	-0.008	-0.214
-328.172	-24.147	-0.212	-0.127
-327.158	-137.748	-0.296	0.033
-326.143	156.857	0.082	-0.115
-325.129	-73.889	0.270	-0.099
-324.114	103.594	-0.076	0.090
-323.099	225.276	-0.045	-0.073
-322.085	237.332	0.145	0.243
-321.070	-200.000	-0.004	-0.076
-320.056	31.565	0.210	-0.181
-319.041	255.206	0.122	0.210
-318.026	-200.000	-0.007	-0.094
-317.012	-113.901	-0.235	0.046
-315.997	-38.376	-0.255	0.136
-314.983	800.000	-0.026	-0.077
-313.968	-200.000	0.011	0.124
-312.953	800.000	0.024	0.095
-311.939	-29.268	-0.063	-0.037
-310.924	352.232	-0.158	0.315
-309.910	54.785	-0.192	0.187
-308.895	-96.681	-0.236	-0.063
-307.880	40.717	0.294	-0.266
-306.866	182.485	-0.131	-0.194
-305.851	-144.866	0.249	0.023
-304.837	-109.042	-0.166	0.036
-303.822	52.850	-0.212	-0.203
-302.807	57.518	0.060	0.059
-301.793	800.000	0.021	0.087
-300.778	-200.000	-0.005	0.076
-299.764	138.950	0.056	-0.074
-298.749	-66.292	-0.126	0.050
-297.735	507.190	0.122	0.284
-296.720	299.196	0.115	-0.213
-295.705	40.920	0.329	0.299
-294.691	-149.762	-0.348	0.027
-293.676	230.117	-0.137	0.226
-292.662	-137.098	-0.126	-0.015
-291.647	-1.578	-0.211	-0.149
-290.632	-89.862	-0.258	0.076
-289.618	486.306	0.142	0.325
-288.603	-157.317	0.278	-0.017
-287.589	107.251	0.116	-0.138
-286.574	-200.000	0.037	0.321
-285.559	-200.000	-0.057	0.308
-284.545	108.046	0.114	-0.136
-283.530	-200.000	0.020	0.146
-282.516	347.836	0.168	0.333
-281.501	-20.313	0.286	-0.177
-280.486	-70.255	-0.195	0.074
-279.472	450.278	-0.155	-0.343
-278.457	370.984	-0.100	-0.204
-277.443	-71.621	-0.297	0.112
-276.428	-4.167	-0.038	-0.027
-275.413	442.143	-0.056	0.123
-274.399	84.895	0.158	0.174
-273.384	-45.937	0.173	0.086
-272.370	-200.000	-0.009	-0.093
-271.355	59.965	-0.202	-0.200
-270.340	99.521	-0.102	0.118
-269.326	29.880	-0.113	0.096
-268.311	315.750	-0.080	0.151
-267.297	7.038	0.075	0.056
-266.282	-200.000	-0.010	0.242
-265.267	-38.553	0.237	-0.126
-264.253	-105.856	-0.110	0.025
-263.238	-200.000	-0.005	0.145
-262.224	340.346	0.135	-0.265
-261.209	381.362	0.074	0.152
-260.195	800.000	0.005	0.017
-259.180	-200.000	0.047	0.262
-258.165	406.552	-0.102	-0.216
-257.151	-200.000	0.018	-0.230
-256.136	284.593	0.093	0.168
-255.122	305.898	-0.279	0.521
-254.107	89.301	-0.132	-0.148
-253.092	-46.084	0.476	-0.235
-252.078	361.638	-0.099	-0.200
-251.063	14.526	-0.240	-0.188
-250.049	216.040	-0.142	0.226
-249.034	20.330	0.102	-0.083
-248.019	800.000	-0.096	0.326
-247.005	107.032	-0.270	-0.321
-245.990	-71.194	0.184	0.069
-244.976	160.526	0.057	-0.080
-243.961	800.000	-0.044	0.167
-242.946	48.887	0.091	-0.086
-241.932	-146.459	-0.280	-0.024
-240.917	-20.597	-0.177	-0.109
-239.903	-103.505	0.387	0.091
-238.888	-41.867	0.206	-0.106
-237.873	-77.104	-0.186	0.065
-236.859	800.000	0.042	-0.184
-235.844	27.658	-0.108	0.091
-234.830	800.000	-0.089	0.338
-233.815	38.077	-0.321	0.287
-232.800	25.155	0.236	0.196
-231.786	-200.000	0.003	-0.143
-230.771	800.000	0.031	-0.134
-229.757	-76.485	0.163	0.057
-228.742	-31.206	-0.104	0.059
-227.727	2.835	-0.099	-0.072
-226.713	785.913	0.074	-0.203
-225.698	-160.968	-0.236	-0.012
-224.684	39.204	-0.132	-0.119
-223.669	122.009	-0.126	-0.157
-222.655	-110.314	0.145	0.030
-221.640	-200.000	0.006	0.247
-220.625	-82.220	-0.215	0.070
-219.611	-200.000	-0.001	0.049
-218.596	-150.930	-0.278	0.021
-217.582	-200.000	0.021	-0.092
-216.567	133.701	0.213	0.276
-215.552	-104.291	0.312	0.073
-214.538	-61.731	0.188	-0.079
-213.523	-119.433	-0.277	0.048
-212.509	-200.000	-0.002	-0.344
-211.494	-200.000	-0.009	-0.156
-210.479	-65.551	-0.271	-0.109
-209.465	98.310	0.172	-0.199
-208.450	-28.737	-0.240	0.138
-207.436	-74.141	0.129	-0.047
-206.421	3.095	0.198	-0.144
-205.406	175.039	0.185	0.269
-204.392	-140.784	0.229	-0.024
-203.377	-200.000	-0.018	0.292
-202.363	-200.000	0.013	0.117
-201.348	-151.361	0.252	-0.019
-200.333	-124.281	0.379	-0.059
-199.319	226.432	0.222	-0.361
-198.304	83.149	0.137	-0.149
-197.290	5.872	0.270	-0.200
-196.275	-200.000	0.026	-0.214
-195.260	319.297	-0.050	-0.095
-194.246	-35.969	0.232	-0.126
-193.231	-48.897	0.143	0.069
-192.217	800.000	-0.049	0.184
-191.202	10.605	-0.303	-0.231
-190.187	298.715	-0.036	-0.067
-189.173	-67.042	-0.221	-0.087
-188.158	-200.000	0.010	0.198
-187.144	192.574	0.108	-0.163
-186.129	413.903	-0.032	0.068
-185.114	-151.897	-0.202	-0.015
-184.100	-35.241	-0.082	-0.044
-183.085	36.246	0.170	-0.150
-182.071	-118.118	-0.179	0.032
-181.056	-167.851	0.378	0.015
-180.042	34.037	0.380	-0.331
-179.027	-200.000	-0.020	-0.127
-178.012	417.135	-0.090	-0.192
-176.998	14.642	-0.109	-0.085
-175.983	93.812	-0.231	0.262
-174.969	-200.000	-0.001	-0.124
-173.954	-200.000	-0.000	0.128
-172.939	158.540	0.155	0.215
-171.925	113.516	-0.029	0.035
-170.910	-157.713	0.205	0.012
-169.896	533.998	0.013	-0.031
-168.881	141.067	0.072	-0.095
-167.866	224.586	-0.076	0.123
-166.852	-3.332	-0.095	0.066
-165.837	593.206	0.178	0.439
-164.823	602.452	0.113	-0.282
-163.808	800.000	0.094	-0.271
-162.793	-99.663	-0.054	0.014
-161.779	509.563	0.048	-0.111
-160.764	-78.717	-0.043	-0.015
-159.750	85.372	0.196	0.215
-158.735	642.080	-0.044	0.111
-157.720	-86.690	0.445	-0.136
-156.706	-17.813	-0.229	0.143
-155.691	-200.000	0.007	-0.089
-154.677	99.182	0.178	0.206
-153.662	-114.158	-0.167	0.032
-152.647	-117.244	0.200	-0.036
-151.633	203.574	0.098	-0.152
-150.618	-3.978	-0.082	0.057
-149.604	171.773	-0.178	0.256
-148.589	-200.000	0.000	-0.026
-147.574	800.000	-0.148	0.456
-146.560	-191.299	0.128	-0.001
-145.545	-45.378	-0.413	-0.205
-144.531	-38.526	0.149	-0.079
-143.516	800.000	0.081	-0.290
-142.502	-135.552	0.288	-0.034
-141.487	20.540	-0.102	-0.083
-140.472	-144.717	0.108	-0.010
-139.458	-109.319	0.248	-0.053
-138.443	-71.907	-0.125	-0.046
-137.429	60.908	-0.267	0.264
-136.414	-200.000	0.027	-0.234
-135.399	-45.602	-0.064	0.032
-134.385	-41.660	-0.287	-0.147
-133.370	-107.689	-0.106	-0.023
-132.356	-80.100	0.367	-0.123
-131.341	-162.229	-0.433	0.022
-130.326	-15.240	0.192	-0.123
-129.312	-200.000	0.010	0.177
-128.297	-139.344	-0.263	0.028
-127.283	800.000	-0.083	-0.248
-126.268	0.536	0.172	0.122
-125.253	-23.477	-0.207	-0.124
-124.239	-200.000	0.022	0.206
-123.224	800.000	-0.032	-0.133
-122.210	-200.000	0.003	0.174
-121.195	-181.378	0.130	-0.003
-120.180	29.241	-0.109	0.093
-119.166	-106.541	0.076	-0.017
-118.151	-88.832	0.318	0.094
-117.137	213.571	-0.106	-0.168
-116.122	-174.875	-0.139	0.004
-115.107	-89.956	0.411	-0.120
-114.093	447.328	-0.037	0.082
-113.078	800.000	-0.075	0.272
-112.064	75.599	-0.093	0.098
-111.049	-54.770	-0.258	-0.116
-110.034	-200.000	0.050	-0.301
-109.020	-44.595	-0.246	0.123
-108.005	373.004	-0.021	0.043
-106.991	800.000	-0.076	-0.276
-105.976	-60.502	0.118	0.050
-104.962	452.139	-0.126	-0.278
-103.947	-75.520	-0.135	-0.048
-102.932	85.743	-0.103	-0.112
-101.918	31.869	0.016	-0.014
-100.903	95.374	0.128	0.146
-99.889	23.179	-0.273	-0.224
-98.874	-54.987	-0.171	0.077
-97.859	800.000	-0.047	-0.183
-96.845	-124.244	0.171	0.027
-95.830	800.000	0.067	-0.206
-94.816	-71.779	-0.176	-0.065
-93.801	389.805	-0.163	0.337
-92.786	-200.000	-0.003	0.381
-91.772	181.444	0.039	-0.057
-90.757	-29.941	-0.137	0.078
-89.743	270.080	0.065	-0.114
-88.728	-129.494	0.185	-0.026
-87.713	33.201	-0.064	-0.056
-86.699	-200.000	-0.039	-0.230
-85.684	-78.051	0.150	-0.052
-84.670	-200.000	0.011	0.370
-83.655	94.807	0.114	0.129
-82.640	8.227	-0.349	-0.262
-81.626	-106.820	-0.091	0.020
-80.611	-94.557	-0.121	-0.033
-79.597	-81.649	0.167	-0.055
-78.582	17.730	0.322	0.255
-77.567	-200.000	-0.046	-0.298
-76.553	24.000	0.191	-0.157
-75.538	133.358	0.132	-0.170
-74.524	800.000	0.095	-0.262
-73.509	507.620	0.152	0.351
-72.494	-58.309	0.143	-0.062
-71.480	104.709	-0.062	-0.072
-70.465	-63.431	0.112	-0.046
-69.451	800.000	0.104	0.335
-68.436	-200.000	-0.015	0.304
-67.422	51.302	0.056	-0.053
-66.407	142.777	-0.139	0.184
-65.392	179.864	0.074	0.108
-64.378	-87.668	0.102	-0.031
-63.363	-149.058	-0.285	-0.023
-62.349	-200.000	-0.054	0.255
-61.334	129.902	-0.756	-0.963
-60.319	-10.286	-0.229	-0.151
-59.305	-200.000	0.142	-0.651
-58.290	183.381	0.670	0.986
-57.276	245.157	0.902	1.510
-56.261	-200.000	81.253	493.707
-55.246	552.758	1360.733	3254.540
-54.232	183.481	2588.721	3808.636
-53.217	119.676	2241.804	2764.452
-52.203	49.968	1694.388	1590.940
-51.188	42.582	1424.714	1290.474
-50.173	39.154	1381.087	1229.514
-49.159	56.929	1419.404	1376.451
-48.144	62.148	1438.038	1427.482
-47.130	43.010	1399.123	1269.793
-46.115	39.315	1382.111	1231.235
-45.100	39.064	1377.677	1225.670
-44.086	39.024	1375.125	1223.105
-43.071	38.895	1372.906	1220.283
-42.057	39.036	1370.123	1218.631
-41.042	39.062	1368.383	1217.199
-40.027	39.054	1367.576	1216.382
-39.013	39.057	1365.474	1214.481
-37.998	39.066	1363.437	1212.677
-36.984	39.262	1361.486	1212.105
-35.969	39.215	1359.786	1210.250
-34.954	39.269	1358.026	1208.969
-33.940	39.213	1356.765	1207.458
-32.925	39.239	1355.551	1206.485
-31.911	39.250	1354.182	1205.286
-30.896	39.250	1352.568	1203.803
-29.881	39.268	1351.024	1202.492
-28.867	39.235	1349.547	1200.931
-27.852	39.318	1347.718	1199.756
-26.838	39.322	1346.067	1198.264
-25.823	39.181	1344.696	1196.139
-24.809	39.216	1343.525	1195.262
-23.794	39.296	1341.985	1194.330
-22.779	39.355	1340.179	1193.037
-21.765	39.306	1339.287	1191.894
-20.750	39.287	1337.671	1190.296
-19.736	39.164	1336.605	1188.556
-18.721	39.133	1335.791	1187.595
-17.706	39.013	1334.691	1185.847
-16.692	39.211	1332.916	1185.419
-15.677	39.092	1332.200	1184.018
-14.663	39.130	1331.008	1183.141
-13.648	39.033	1330.058	1181.662
-12.633	39.049	1328.935	1180.716
-11.619	39.045	1327.786	1179.622
-10.604	39.060	1327.166	1179.119
-9.590	39.145	1325.739	1178.314
-8.575	39.108	1325.045	1177.425
-7.560	39.101	1323.811	1176.242
-6.546	39.103	1322.951	1175.440
-5.531	39.090	1322.174	1174.625
-4.517	38.993	1321.545	1173.443
-3.502	39.077	1320.769	1173.207
-2.487	39.100	1319.231	1171.934
-1.473	39.171	1315.386	1168.894
-0.458	37.608	1299.820	1145.820
0.556	33.907	1278.554	1099.356
1.571	29.288	1281.901	1075.271
2.586	27.763	1296.678	1078.563
3.600	26.169	1284.088	1058.660
4.615	19.479	1208.314	959.053
5.629	9.769	1126.978	843.847
6.644	5.207	1103.986	803.136
7.659	4.811	1101.135	798.961
8.673	5.017	1100.193	799.262
9.688	4.905	1099.290	797.963
10.702	5.157	1097.474	797.861
11.717	10.432	1105.586	830.791
12.731	18.785	1117.865	883.066
13.746	21.232	1119.615	896.953
14.761	19.761	1117.073	887.295
15.775	18.645	1114.587	879.526
16.790	17.546	1112.784	872.398
17.804	16.814	1111.049	867.213
18.819	16.498	1110.282	864.922
19.834	16.173	1109.053	862.227
20.848	15.986	1108.386	860.679
21.863	15.912	1106.941	859.103
22.877	15.819	1106.402	858.133
23.892	15.664	1105.762	856.770
24.907	15.740	1104.845	856.372
25.921	15.767	1104.004	855.782
26.936	15.783	1102.386	854.532
27.950	15.852	1100.921	853.674
28.965	15.900	1099.730	852.915
29.980	15.949	1098.249	851.943
30.994	16.011	1096.971	851.186
32.009	16.167	1095.614	850.845
33.023	16.131	1094.502	849.723
34.038	16.043	1093.118	848.134
35.053	15.919	1092.879	847.246
36.067	15.687	1092.036	845.355
37.082	15.976	1090.916	845.864
38.096	15.935	1090.173	845.009
39.111	16.013	1089.304	844.647
40.126	15.911	1088.230	843.232
41.140	15.832	1086.567	841.471
42.155	15.704	1085.262	839.750
43.169	15.531	1084.332	838.089
44.184	15.582	1083.376	837.533
45.199	15.626	1082.221	836.787
46.213	15.679	1081.117	836.122
47.228	15.806	1080.295	836.041
48.242	15.818	1079.469	835.389
49.257	15.773	1078.408	834.269
50.271	15.827	1077.758	833.963
51.286	15.865	1076.490	833.093
52.301	15.746	1075.683	831.808
53.315	15.620	1074.913	830.513
54.330	15.665	1073.248	829.380
55.344	15.763	1072.452	829.174
56.359	15.681	1071.872	828.244
57.374	15.546	1070.836	826.710
58.388	15.481	1070.106	825.750
59.403	15.530	1069.265	825.269
60.417	15.513	1068.685	824.667
61.432	15.510	1067.613	823.752
62.447	15.425	1066.850	822.674
63.461	15.559	1066.148	822.715
64.476	15.342	1065.183	820.837
65.490	15.368	1064.435	820.317
66.505	15.506	1063.437	820.148
67.520	15.511	1062.702	819.534
68.534	15.590	1062.119	819.397
69.549	15.468	1061.873	818.540
70.563	15.422	1060.846	817.451
71.578	15.326	1060.019	816.275
72.593	15.372	1059.134	815.743
73.607	15.353	1057.812	814.560
74.622	15.370	1057.550	814.369
75.636	15.348	1056.920	813.706
76.651	15.391	1056.158	813.256
77.666	15.357	1055.348	812.396
78.680	15.432	1055.089	812.487
79.695	15.457	1054.027	811.716
80.709	15.523	1053.553	811.602
81.724	15.584	1052.977	811.378
82.739	15.744	1051.714	811.105
83.753	15.757	1051.733	811.113
84.768	16.026	1050.470	811.363
85.782	16.174	1049.319	811.112
86.797	16.029	1048.549	809.749
87.812	15.703	1048.291	807.912
88.826	15.755	1046.856	806.981
89.841	15.913	1045.827	806.873
90.855	15.962	1044.771	806.221
91.870	16.089	1043.966	806.140
92.884	15.989	1043.454	805.194
93.899	16.024	1042.499	804.554
94.914	16.101	1041.580	804.138
95.928	16.057	1040.749	803.216
96.943	15.963	1039.784	801.956
97.957	15.847	1038.864	800.623
98.972	15.916	1037.654	799.944
99.987	15.965	1037.116	799.691
101.001	15.890	1036.225	798.582
102.016	15.800	1035.167	797.266
103.030	16.005	1034.429	797.599
104.045	15.966	1033.544	796.663
105.060	15.970	1032.768	796.010
106.074	15.750	1031.650	794.040
107.089	15.709	1030.287	792.730
108.103	15.569	1029.530	791.419
109.118	15.670	1028.262	790.847
110.133	15.495	1028.024	789.770
111.147	15.688	1026.728	789.610
112.162	15.635	1026.206	788.892
113.176	15.708	1025.240	788.422
114.191	15.726	1024.598	787.942
115.206	15.670	1023.726	786.940
116.220	15.700	1022.754	786.264
117.235	15.618	1021.732	785.026
118.249	15.690	1021.131	784.833
119.264	15.717	1019.994	784.012
120.279	15.671	1019.114	783.054
121.293	15.562	1018.678	782.140
122.308	15.559	1017.516	781.165
123.322	15.666	1016.158	780.552
124.337	15.597	1014.934	779.223
125.352	15.495	1014.126	778.059
126.366	15.601	1012.852	777.506
127.381	15.582	1012.031	776.716
128.395	15.664	1010.860	776.130
129.410	15.695	1009.825	775.408
130.424	15.662	1009.472	774.917
131.439	15.707	1008.649	774.425
132.454	15.782	1007.810	774.057
133.468	15.822	1006.910	773.480
134.483	15.865	1005.830	772.779
135.497	15.913	1005.086	772.360
136.512	15.953	1004.190	771.786
137.527	15.843	1003.637	770.790
138.541	15.891	1002.839	770.328
139.556	15.900	1002.411	769.971
140.570	15.952	1001.458	769.411
141.585	16.065	1000.911	769.435
142.600	16.082	999.760	768.562
143.614	16.114	998.788	767.893
144.629	16.140	998.477	767.703
145.643	16.093	996.947	766.246
146.658	15.974	995.964	764.880
147.673	15.954	994.715	763.766
148.687	15.941	993.947	763.049
149.702	15.875	993.023	761.971
150.716	15.826	992.435	761.230
151.731	15.855	991.635	760.680
152.746	15.800	991.255	760.076
153.760	15.873	990.386	759.670
154.775	15.900	989.885	759.339
155.789	16.020	989.050	759.172
156.804	16.040	987.935	758.340
157.819	16.107	987.160	757.979
158.833	16.147	987.095	758.044
159.848	16.330	985.800	757.804
160.862	16.093	984.947	756.019
161.877	15.987	983.887	754.663
162.892	15.888	983.097	753.548
163.906	15.918	982.103	752.850
164.921	15.849	981.187	751.776
165.935	15.923	979.885	751.041
166.950	15.997	979.076	750.687
167.964	15.931	978.564	749.930
168.979	16.040	977.324	749.401
169.994	16.041	977.029	749.112
171.008	16.108	975.919	748.492
172.023	16.113	975.469	748.102
173.037	16.147	974.741	747.627
174.052	16.158	973.689	746.806
175.067	16.022	972.813	745.466
176.081	15.787	972.928	744.446
177.096	15.951	972.017	744.407
178.110	16.018	971.383	744.155
179.125	15.946	970.719	743.263
180.140	15.957	970.129	742.792
181.154	16.068	969.957	743.082
182.169	16.177	969.428	743.092
183.183	16.233	968.888	742.861
184.198	16.289	967.679	742.112
185.213	16.285	967.113	741.595
186.227	16.346	966.260	741.144
187.242	16.395	965.600	740.786
188.256	16.327	965.340	740.224
189.271	16.373	964.463	739.690
190.286	16.226	963.315	738.101
191.300	16.067	962.536	736.741
192.315	15.829	961.895	735.147
193.329	15.914	961.413	735.083
194.344	16.017	960.888	735.065
195.359	16.176	960.049	735.054
196.373	16.342	959.226	735.083
197.388	16.330	959.087	734.855
198.402	16.478	958.724	735.156
199.417	16.475	958.322	734.770
200.432	16.635	957.623	734.866
201.446	16.654	957.161	734.529
202.461	16.688	956.447	734.060
203.475	16.626	955.822	733.250
204.490	16.468	954.906	731.796
205.504	16.479	953.478	730.688
206.519	16.442	953.153	730.214
207.534	16.436	952.394	729.539
208.548	16.493	951.840	729.298
209.563	16.354	951.225	728.160
210.577	16.518	950.426	728.193
211.592	16.761	949.626	728.561
212.607	16.749	949.134	728.069
213.621	16.600	948.354	726.766
214.636	16.730	947.524	726.619
215.650	16.688	946.958	725.945
216.665	16.849	946.067	725.886
217.680	16.902	945.275	725.442
218.694	16.808	944.648	724.493
219.709	16.848	943.901	724.029
220.723	16.835	943.038	723.244
221.738	16.825	942.730	722.901
222.753	16.749	942.285	722.174
223.767	16.773	941.819	721.856
224.782	17.040	940.762	722.116
225.796	16.955	940.410	721.423
226.811	16.931	939.539	720.585
227.826	16.828	938.734	719.468
228.840	16.753	938.024	718.544
229.855	16.921	937.323	718.653
230.869	16.760	936.629	717.378
231.884	16.825	935.931	717.055
232.899	16.742	935.079	715.988
233.913	16.653	934.200	714.875
234.928	16.725	933.860	714.857
235.942	16.718	932.991	714.097
236.957	16.781	932.546	713.958
237.972	16.749	931.834	713.217
238.986	16.819	931.034	712.837
240.001	16.850	930.351	712.381
241.015	16.721	929.863	711.399
242.030	16.814	929.249	711.258
243.045	16.927	928.886	711.392
244.059	16.929	928.259	710.857
245.074	16.918	927.818	710.409
246.088	16.953	927.139	709.973
247.103	17.028	926.341	709.615
248.117	17.199	925.561	709.667
249.132	17.320	925.308	709.917
250.147	17.452	924.585	709.848
251.161	17.383	924.082	709.115
252.176	17.428	923.427	708.736
253.190	17.475	922.773	708.366
254.205	17.431	922.437	707.862
255.220	17.518	921.269	707.265
256.234	17.384	921.212	706.600
257.249	17.470	920.316	706.210
258.263	17.446	919.461	705.391
259.278	17.666	918.290	705.342
260.293	17.619	917.796	704.707
261.307	17.681	917.089	704.355
262.322	17.706	917.033	704.352
263.336	17.676	915.982	703.358
264.351	17.691	915.431	702.936
265.366	17.658	914.608	702.108
266.380	17.697	914.039	701.769
267.395	17.707	913.101	701.028
268.409	17.543	912.322	699.691
269.424	17.524	911.620	699.016
270.439	17.694	910.435	698.743
271.453	17.548	909.971	697.725
272.468	17.489	909.611	697.147
273.482	17.744	908.730	697.453
274.497	17.620	908.369	696.604
275.512	17.483	908.170	695.832
276.526	17.556	907.370	695.456
277.541	17.710	906.634	695.457
278.555	17.740	906.390	695.331
279.570	17.827	905.697	695.093
280.585	17.958	904.616	694.734
281.599	17.694	904.226	693.300
282.614	17.780	903.226	692.820
283.628	17.708	902.648	692.024
284.643	17.743	901.742	691.411
285.657	17.665	901.417	690.786
286.672	17.853	900.746	690.971
287.687	17.841	900.105	690.367
288.701	17.899	899.344	689.959
289.716	17.857	898.775	689.291
290.730	17.858	898.177	688.774
291.745	17.889	897.963	688.676
292.760	17.961	896.881	688.074
293.774	18.056	896.453	688.068
294.789	18.047	895.656	687.361
295.803	17.767	895.280	685.886
296.818	17.998	894.089	685.838
297.833	17.876	893.593	684.909
298.847	17.945	892.804	684.519
299.862	17.937	892.411	684.126
300.876	18.019	892.043	684.112
301.891	18.104	891.524	683.992
302.906	18.078	891.108	683.509
303.920	18.246	890.750	683.845
304.935	18.325	889.687	683.286
305.949	18.305	889.416	682.935
306.964	18.121	888.342	681.317
307.979	18.104	888.088	680.995
308.993	18.162	887.395	680.635
310.008	18.303	886.531	680.473
311.022	18.213	886.046	679.682
312.037	18.220	885.128	678.946
313.052	18.092	884.600	677.974
314.066	18.125	883.778	677.414
315.081	18.115	883.245	676.904
316.095	18.248	882.632	676.903
317.110	18.060	882.276	675.823
318.125	17.953	881.898	675.051
319.139	18.054	881.551	675.126
320.154	18.143	880.777	674.824
321.168	17.954	880.474	673.789
322.183	18.175	879.669	673.984
323.197	18.169	879.184	673.529
324.212	18.252	878.487	673.262
325.227	18.133	877.985	672.349
326.241	18.376	877.113	672.577
327.256	18.144	877.266	671.722
328.270	18.183	876.208	671.005
329.285	18.233	875.562	670.648
330.300	18.134	874.805	669.620
331.314	18.305	874.421	669.938
332.329	18.292	874.251	669.696
333.343	18.292	873.888	669.359
334.358	18.456	873.186	669.403
335.373	18.449	872.798	669.018
336.387	18.326	872.624	668.346
337.402	18.528	872.282	668.815
338.416	18.499	872.071	668.481
339.431	18.633	871.496	668.504
340.446	18.603	870.773	667.770
341.460	18.733	870.526	668.028
342.475	18.709	870.652	667.974
343.489	18.735	870.112	667.600
344.504	18.608	869.670	666.710
345.519	18.801	869.272	667.096
346.533	18.810	868.254	666.287
347.548	18.729	867.546	665.372
348.562	18.640	866.667	664.294
349.577	18.511	866.243	663.413
350.592	18.455	865.569	662.620
351.606	18.365	865.370	662.063
352.621	18.545	864.313	661.890
353.635	18.723	863.848	662.161
354.650	18.784	862.921	661.628
355.665	18.875	862.176	661.348
356.679	18.821	861.569	660.615
357.694	18.880	860.724	660.134
358.708	18.704	860.416	659.165
359.723	18.783	860.045	659.127
360.738	18.789	859.140	658.399
361.752	18.774	858.715	657.955
362.767	19.030	858.150	658.443
363.781	18.979	857.747	657.882
364.796	19.147	856.943	657.850
365.810	19.157	856.416	657.426
366.825	19.074	856.748	657.305
367.840	19.035	856.180	656.660
368.854	19.004	855.338	655.841
369.869	18.942	854.976	655.268
370.883	19.078	854.293	655.204
371.898	19.069	854.430	655.218
372.913	19.108	854.179	655.116
373.927	19.142	852.915	654.215
374.942	19.087	852.792	653.855
375.956	19.346	852.151	654.290
376.971	19.128	852.297	653.515
377.986	19.368	851.604	653.837
379.000	19.368	850.900	653.239
380.015	19.469	850.084	652.937
381.029	19.410	849.621	652.302
382.044	19.419	849.111	651.885
383.059	19.398	848.693	651.428
384.073	19.377	847.816	650.617
385.088	19.345	846.993	649.808
386.102	19.157	846.843	648.927
387.117	19.217	846.428	648.777
388.132	19.244	845.658	648.232
389.146	19.297	844.803	647.716
390.161	19.473	844.343	647.966
391.175	19.374	844.296	647.504
392.190	19.315	843.444	646.572
393.205	19.314	843.091	646.239
394.219	19.369	842.305	645.786
395.234	19.241	842.164	645.140
396.248	19.137	841.727	644.360
397.263	19.172	841.293	644.103
398.278	19.165	840.665	643.538
399.292	19.265	840.383	643.637
400.307	19.246	839.956	643.184
401.321	19.301	839.435	642.931
402.336	19.293	838.842	642.393
403.350	19.478	838.230	642.556
404.365	19.292	838.547	642.048
405.380	19.630	837.557	642.491
406.394	19.488	837.139	641.587
407.409	19.683	836.419	641.701
408.423	19.663	836.798	641.861
409.438	19.771	836.014	641.603
410.453	19.796	835.669	641.374
411.467	19.773	835.020	640.734
412.482	19.847	834.699	640.705
413.496	20.001	833.876	640.589
414.511	19.885	833.523	639.831
415.526	19.869	833.328	639.566
416.540	19.865	833.098	639.317
417.555	19.861	832.356	638.676
418.569	19.815	832.019	638.193
419.584	20.023	831.307	638.357
420.599	20.083	830.615	637.988
421.613	149.847	1364.525	1761.217
422.628	130.803	1442.351	1761.346
