DTS Sentinel unit serial number:	SN413079Multiplexer serial number:	ORYXHardware model number:	OX4-SRSoftware version number:	ORYX F/W v4.00 Oryx Data Collector v3.7.2.0data status	okinstallation	princeton_trtdifferential loss correction	single-endedforward channel	channel 1reverse channel	N/Adate	2019/09/12time	18:44:34forward acquisition time	15.00reverse acquisition time	0.00gamma	496.2192k internal	0.2318k external	0.2318temperature offset calibration	1.0103default loss term (dB/km)	0.3790temperature slope calibration	1.0000multiplexer offset coefficient	1.0000multiplexer slope coefficient	1.0000fibre end	0.00T internal ref (°C)	33.00T ext. ref 1 (°C)	2.96T ext. ref 2 (°C)	27.49length (m)	temperature (°C)	Stokes	anti-Stokes-747.200	580.312	0.244	-0.605
-746.185	-39.805	0.252	-0.133
-745.171	86.406	0.508	0.567
-744.156	800.000	0.224	0.753
-743.142	105.543	0.278	0.333
-742.127	-18.781	-0.314	0.198
-741.112	362.882	-0.117	-0.237
-740.098	25.118	-0.385	-0.324
-739.083	800.000	-0.230	0.865
-738.069	-18.437	0.381	-0.241
-737.054	77.562	-0.351	0.378
-736.039	-19.368	0.129	0.081
-735.025	14.991	0.438	0.347
-734.010	140.665	0.095	0.127
-732.996	-200.000	-0.012	0.273
-731.981	0.028	0.021	-0.015
-730.966	-200.000	0.112	0.595
-729.952	-56.667	0.509	-0.228
-728.937	800.000	0.168	-0.525
-727.923	-124.621	0.116	-0.018
-726.908	-200.000	-0.206	-0.939
-725.894	-200.000	0.083	-0.480
-724.879	88.671	-0.098	-0.110
-723.864	8.304	0.592	-0.450
-722.850	529.622	-0.074	0.177
-721.835	67.964	-0.267	0.276
-720.821	-7.111	-0.416	-0.285
-719.806	-113.565	0.704	0.139
-718.791	-6.822	0.498	-0.343
-717.777	-83.765	0.405	0.131
-716.762	154.261	-0.264	-0.367
-715.748	36.306	-0.364	-0.324
-714.733	-90.867	-0.688	0.200
-713.718	-200.000	0.000	-0.126
-712.704	48.473	0.565	-0.535
-711.689	51.313	-0.477	0.457
-710.675	616.887	-0.351	0.889
-709.660	800.000	-0.261	-0.930
-708.645	800.000	0.193	-0.585
-707.631	39.615	-0.260	-0.235
-706.616	-75.093	0.405	-0.147
-705.602	-79.987	-0.327	-0.111
-704.587	-102.852	0.378	-0.091
-703.572	-200.000	-0.044	-0.417
-702.558	225.458	-0.265	0.433
-701.543	-116.226	-0.935	-0.175
-700.529	147.801	-0.409	-0.558
-699.514	-200.000	0.035	0.186
-698.499	-200.000	0.025	0.287
-697.485	800.000	-0.157	-0.513
-696.470	209.780	-0.488	-0.772
-695.456	-22.582	-0.628	0.384
-694.441	-200.000	-0.074	0.504
-693.426	-154.343	-0.386	0.026
-692.412	-49.073	0.247	-0.119
-691.397	800.000	-0.164	0.503
-690.383	-103.422	-0.867	-0.206
-689.368	-27.698	-0.411	-0.241
-688.354	-200.000	0.006	0.131
-687.339	800.000	-0.069	0.240
-686.324	-200.000	0.007	0.349
-685.310	-31.676	-0.125	-0.071
-684.295	16.403	0.344	0.274
-683.281	-74.350	0.067	-0.024
-682.266	-200.000	0.017	0.217
-681.251	-200.000	-0.181	-1.132
-680.237	139.451	-0.279	-0.371
-679.222	321.252	-0.272	-0.522
-678.208	-200.000	0.005	-0.051
-677.193	-0.373	-0.094	0.067
-676.178	-148.524	1.071	0.088
-675.164	-200.000	0.025	0.531
-674.149	-144.534	-0.876	-0.082
-673.135	68.282	-0.148	0.153
-672.120	288.470	0.201	0.367
-671.105	-45.713	0.682	-0.340
-670.091	-92.130	-0.662	0.189
-669.076	459.666	-0.178	-0.401
-668.062	800.000	-0.014	0.055
-667.047	560.538	0.109	0.266
-666.032	-54.003	0.587	-0.270
-665.018	235.231	-0.226	-0.377
-664.003	300.502	0.508	0.945
-662.989	315.462	-0.111	0.211
-661.974	-200.000	0.219	-1.191
-660.959	38.147	-0.172	-0.154
-659.945	-34.076	-0.392	0.217
-658.930	-87.286	-0.677	-0.207
-657.916	-88.214	0.634	-0.191
-656.901	679.707	0.265	-0.695
-655.886	-114.465	-0.420	-0.081
-654.872	98.105	0.229	-0.265
-653.857	800.000	0.226	0.839
-652.843	621.349	-0.338	0.857
-651.828	357.625	-0.220	0.442
-650.814	-126.155	0.371	0.056
-649.799	-200.000	0.061	0.289
-648.784	38.656	-0.368	0.331
-647.770	-200.000	-0.069	0.392
-646.755	-152.902	0.436	-0.031
-645.741	-63.814	0.172	0.071
-644.726	-39.755	0.448	-0.236
-643.711	278.763	0.441	-0.793
-642.697	330.925	0.238	-0.462
-641.682	39.195	0.714	-0.644
-640.668	85.108	0.260	-0.287
-639.653	-200.000	0.113	-0.653
-638.638	-35.972	-0.439	-0.239
-637.624	-110.788	0.251	0.052
-636.609	47.478	-0.108	0.101
-635.595	-20.623	-0.356	-0.220
-634.580	-38.881	0.474	-0.252
-633.565	66.490	-0.079	-0.081
-632.551	-117.977	-0.244	0.044
-631.536	-115.608	0.616	-0.117
-630.522	-113.095	1.022	-0.203
-629.507	77.712	0.264	-0.283
-628.492	-30.872	0.333	0.190
-627.478	69.350	0.279	-0.289
-626.463	-30.291	0.185	-0.106
-625.449	31.279	-0.435	0.376
-624.434	-77.151	-0.578	-0.203
-623.419	67.931	-0.211	0.218
-622.405	177.132	-0.494	-0.724
-621.390	-200.000	-0.027	0.690
-620.376	-200.000	-0.068	0.582
-619.361	-9.437	-0.291	0.195
-618.346	295.895	-0.265	0.489
-617.332	171.187	0.303	0.437
-616.317	87.800	0.257	0.287
-615.303	-200.000	-0.051	-1.043
-614.288	-200.000	-0.044	-0.310
-613.273	558.282	0.149	-0.362
-612.259	-59.188	0.342	-0.149
-611.244	-200.000	0.137	-0.853
-610.230	133.965	0.570	-0.743
-609.215	-155.323	0.519	0.034
-608.201	760.284	-0.210	0.574
-607.186	-200.000	0.049	0.596
-606.171	-91.412	0.053	0.015
-605.157	-143.319	-1.203	-0.116
-604.142	-46.907	1.060	-0.521
-603.128	499.609	-0.049	-0.113
-602.113	-104.002	-0.412	0.097
-601.098	-200.000	0.028	0.138
-600.084	-68.684	-0.468	-0.182
-599.069	-96.130	0.678	0.181
-598.055	-200.000	0.262	0.000
-597.040	-90.319	-1.273	0.372
-596.025	36.317	0.335	0.297
-595.011	6.000	0.773	-0.576
-593.996	-56.978	-0.670	0.297
-592.982	25.203	0.117	0.097
-591.967	-48.081	0.109	0.053
-590.952	5.081	0.224	0.166
-589.938	-91.572	0.661	-0.189
-588.923	31.595	0.104	-0.090
-587.909	82.194	-0.100	0.109
-586.894	-135.559	-1.226	0.147
-585.879	495.444	-0.145	0.335
-584.865	381.718	-0.410	0.846
-583.850	-115.306	0.195	-0.037
-582.836	-94.343	-0.653	-0.179
-581.821	408.918	0.146	-0.311
-580.806	436.324	0.103	0.225
-579.792	-172.717	-0.956	0.030
-578.777	92.758	-0.327	0.371
-577.763	-176.066	1.055	-0.028
-576.748	173.329	0.349	-0.506
-575.733	-32.351	-0.957	-0.537
-574.719	-200.000	-0.134	0.645
-573.704	-60.869	0.563	0.240
-572.690	-74.923	-0.420	0.151
-571.675	-52.881	0.453	0.210
-570.661	82.653	0.498	-0.544
-569.646	-55.985	0.284	-0.127
-568.631	-200.000	-0.122	-0.724
-567.617	-200.000	-0.008	0.856
-566.602	70.288	0.439	0.456
-565.588	448.237	0.156	0.346
-564.573	-114.937	-0.306	0.059
-563.558	137.278	0.444	0.583
-562.544	10.804	-0.431	0.331
-561.529	-34.475	-0.551	0.303
-560.515	-178.162	-0.582	-0.014
-559.500	-106.679	-0.571	-0.128
-558.485	-200.000	0.071	-0.989
-557.471	613.035	0.262	-0.658
-556.456	353.405	-0.400	-0.798
-555.442	-23.717	-0.084	-0.050
-554.427	-93.170	-0.146	0.041
-553.412	800.000	-0.122	0.404
-552.398	154.916	-0.407	0.562
-551.383	330.145	-0.329	-0.637
-550.369	170.374	0.511	-0.734
-549.354	800.000	0.303	1.005
-548.339	-163.124	0.747	0.036
-547.325	46.195	0.521	0.484
-546.310	-4.168	-0.379	-0.263
-545.296	17.554	-0.141	0.113
-544.281	-32.342	0.588	-0.329
-543.266	-200.000	0.013	-0.710
-542.252	-102.983	-0.274	-0.065
-541.237	-157.424	0.781	-0.047
-540.223	-3.444	0.593	-0.414
-539.208	-175.446	0.441	0.012
-538.193	-200.000	0.069	0.538
-537.179	316.614	-0.325	-0.616
-536.164	-103.827	-0.273	0.064
-535.150	800.000	-0.043	-0.127
-534.135	113.144	0.371	0.452
-533.121	-141.737	-1.026	-0.103
-532.106	-24.866	0.711	0.424
-531.091	-85.230	-0.345	-0.108
-530.077	16.192	-0.502	-0.397
-529.062	120.634	-0.783	-0.977
-528.048	143.718	0.234	0.313
-527.033	-3.971	0.061	-0.043
-526.018	-147.686	-0.342	-0.029
-525.004	105.471	-0.238	0.283
-523.989	-200.000	-0.074	-0.461
-522.975	9.210	0.175	-0.132
-521.960	103.474	-0.206	0.242
-520.945	-81.650	-1.193	-0.393
-519.931	-70.617	-0.363	0.138
-518.916	101.929	0.388	-0.455
-517.902	143.027	-0.392	0.523
-516.887	-128.869	-0.920	-0.130
-515.872	122.171	0.286	0.358
-514.858	768.655	-0.170	0.465
-513.843	7.085	-0.314	0.235
-512.829	-200.000	-0.044	-0.230
-511.814	-200.000	-0.122	0.566
-510.799	-200.000	-0.016	0.096
-509.785	792.204	0.107	-0.296
-508.770	-146.432	0.782	0.068
-507.756	-200.000	0.066	-0.510
-506.741	-200.000	-0.007	-0.558
-505.726	-172.066	0.892	-0.029
-504.712	-32.892	-0.445	0.248
-503.697	-200.000	-0.048	0.945
-502.683	-200.000	0.054	-0.544
-501.668	-91.858	-0.295	-0.084
-500.653	-24.541	0.510	-0.304
-499.639	89.125	-0.146	0.163
-498.624	-119.102	0.291	0.051
-497.610	-76.222	-0.715	-0.253
-496.595	-108.466	0.377	0.081
-495.581	22.277	0.261	-0.214
-494.566	800.000	-0.080	0.300
-493.551	800.000	-0.153	0.599
-492.537	13.896	-0.444	-0.346
-491.522	-118.962	-0.866	-0.152
-490.508	-200.000	-0.090	-0.563
-489.493	-200.000	-0.131	-0.592
-488.478	362.478	-0.101	-0.203
-487.464	-61.167	0.655	-0.277
-486.449	71.522	-0.350	-0.364
-485.435	-200.000	0.011	-0.161
-484.420	658.321	-0.237	0.612
-483.405	-80.885	0.397	0.132
-482.391	-39.770	-0.608	-0.318
-481.376	800.000	-0.186	0.579
-480.362	-158.204	0.316	-0.019
-479.347	-134.422	1.134	0.139
-478.332	800.000	0.179	0.515
-477.318	484.867	0.451	1.029
-476.303	-170.834	-0.798	0.027
-475.289	-200.000	0.013	-0.158
-474.274	-70.526	-0.358	0.136
-473.259	345.679	-0.241	-0.475
-472.245	-30.738	0.362	0.205
-471.230	-62.952	-0.355	0.147
-470.216	-200.000	-0.060	-0.337
-469.201	-152.915	0.692	-0.049
-468.186	25.480	0.372	-0.310
-467.172	-84.559	0.179	0.057
-466.157	-69.903	0.258	-0.099
-465.143	-158.024	0.656	0.039
-464.128	99.847	-0.161	-0.187
-463.113	800.000	0.085	0.300
-462.099	800.000	0.034	0.136
-461.084	414.714	-0.240	0.512
-460.070	146.661	-0.539	0.724
-459.055	205.035	-0.339	-0.526
-458.040	-15.227	-0.422	-0.270
-457.026	-200.000	-0.044	-0.668
-456.011	-44.454	-0.118	0.059
-454.997	-45.218	-0.117	0.058
-453.982	62.651	0.524	0.524
-452.968	8.566	0.407	0.307
-451.953	-200.000	0.166	-1.261
-450.938	142.377	-0.306	-0.407
-449.924	14.014	0.934	0.727
-448.909	-21.479	0.051	-0.031
-447.895	-55.540	0.311	-0.139
-446.880	800.000	-0.130	-0.419
-445.865	-106.667	0.693	0.154
-444.851	146.583	0.215	-0.289
-443.836	-147.912	-0.248	0.021
-442.822	-1.231	-0.324	-0.229
-441.807	-168.842	0.301	-0.011
-440.792	75.056	0.113	-0.119
-439.778	18.474	-0.122	0.098
-438.763	36.264	-0.469	0.413
-437.749	-40.860	0.903	0.467
-436.734	-200.000	-0.048	-0.296
-435.719	-13.757	-0.589	0.381
-434.705	-200.000	-0.942	-0.004
-433.690	-51.202	0.531	0.249
-432.676	28.120	-0.228	-0.192
-431.661	714.025	0.249	0.660
-430.646	-0.045	-0.440	-0.313
-429.632	608.936	0.271	0.676
-428.617	452.394	-0.235	0.519
-427.603	-54.159	-0.484	-0.220
-426.588	665.361	0.456	-1.176
-425.573	-200.000	-0.093	-0.632
-424.559	-16.138	0.593	0.377
-423.544	-40.445	-0.933	-0.484
-422.530	377.041	0.256	-0.522
-421.515	225.742	-0.253	-0.410
-420.500	-16.534	-0.774	-0.490
-419.486	-17.328	0.550	-0.346
-418.471	800.000	-0.081	-0.319
-417.457	-200.000	-0.040	0.555
-416.442	-200.000	0.220	-1.074
-415.428	-200.000	-0.047	0.206
-414.413	800.000	0.042	-0.166
-413.398	800.000	0.265	-0.900
-412.384	-104.852	-1.069	-0.245
-411.369	-71.542	-0.523	-0.195
-410.355	744.130	-0.293	-0.788
-409.340	-47.584	-0.360	-0.175
-408.325	516.647	0.266	0.620
-407.311	-62.537	-0.810	0.336
-406.296	-200.000	0.067	0.429
-405.282	589.634	0.205	0.504
-404.267	800.000	0.074	0.295
-403.252	-17.170	-0.546	-0.344
-402.238	-71.392	0.478	0.179
-401.223	-25.117	0.266	-0.157
-400.209	-139.763	0.755	-0.080
-399.194	617.171	0.318	0.796
-398.179	193.814	-0.112	0.169
-397.165	-92.844	-1.367	-0.381
-396.150	-4.561	-0.794	0.547
-395.136	194.513	-0.258	0.390
-394.121	21.025	-0.130	0.105
-393.106	388.863	-0.390	0.806
-392.092	778.905	0.045	-0.123
-391.077	543.380	-0.206	0.491
-390.063	652.600	0.405	-1.037
-389.048	-102.975	0.063	0.015
-388.033	-150.952	0.302	0.023
-387.019	20.120	0.567	-0.457
-386.004	-200.000	0.014	0.375
-384.990	-200.000	-0.017	0.119
-383.975	336.124	-0.348	0.673
-382.960	-88.987	-0.063	-0.019
-381.946	226.692	0.079	-0.128
-380.931	56.170	0.595	0.577
-379.917	800.000	-0.129	-0.442
-378.902	-200.000	0.075	-0.596
-377.888	459.906	0.518	-1.150
-376.873	-31.991	-0.040	-0.022
-375.858	800.000	0.369	-1.107
-374.844	800.000	-0.140	-0.584
-373.829	-101.821	0.429	-0.104
-372.815	-200.000	0.202	0.995
-371.800	-200.000	0.092	-0.480
-370.785	80.864	-0.734	-0.790
-369.771	-49.242	-0.369	-0.176
-368.756	-111.213	0.865	-0.176
-367.742	-95.328	0.986	0.265
-366.727	-200.000	0.002	0.418
-365.712	-200.000	0.051	0.341
-364.698	-200.000	0.026	-0.165
-363.683	-67.983	-0.487	-0.189
-362.669	-136.766	-0.324	-0.037
-361.654	-200.000	-0.007	0.041
-360.639	-40.368	-1.014	0.526
-359.625	-62.898	0.456	-0.188
-358.610	56.864	-0.407	0.395
-357.596	124.487	-0.230	0.289
-356.581	261.792	-0.448	0.774
-355.566	261.083	0.255	-0.441
-354.552	-200.000	0.146	-1.000
-353.537	368.291	0.223	-0.450
-352.523	-32.508	0.585	-0.325
-351.508	367.317	0.138	0.277
-350.493	18.330	0.788	-0.627
-349.479	800.000	0.203	0.664
-348.464	137.725	-0.488	0.637
-347.450	-200.000	-0.079	-0.685
-346.435	-155.629	0.680	0.044
-345.420	22.730	0.473	-0.386
-344.406	39.400	0.509	0.455
-343.391	-86.202	0.457	-0.140
-342.377	-115.083	0.566	0.107
-341.362	-106.649	-0.333	0.074
-340.348	61.620	0.392	-0.389
-339.333	800.000	0.113	0.463
-338.318	-200.000	-0.123	-0.725
-337.304	-200.000	-0.056	0.402
-336.289	-119.010	0.742	-0.129
-335.275	508.099	0.336	-0.778
-334.260	-200.000	0.004	-0.229
-333.245	-119.306	0.301	0.052
-332.231	-62.261	-0.652	-0.271
-331.216	209.833	0.531	-0.829
-330.202	-34.643	-1.173	-0.639
-329.187	-28.588	-0.736	-0.422
-328.172	-67.839	0.283	0.110
-327.158	50.728	-0.396	-0.373
-326.143	101.119	-0.255	-0.295
-325.129	15.617	-0.412	0.322
-324.114	-0.681	-0.555	-0.392
-323.099	248.686	-0.253	-0.426
-322.085	156.394	0.410	-0.563
-321.070	-200.000	-0.086	0.996
-320.056	60.530	-0.508	-0.501
-319.041	-175.994	0.616	-0.016
-318.026	-11.126	0.309	-0.203
-317.012	0.284	0.440	0.312
-315.997	-95.496	-0.790	-0.211
-314.983	335.195	0.154	0.297
-313.968	458.443	0.438	0.970
-312.953	-200.000	-0.070	-0.512
-311.939	10.744	0.129	-0.098
-310.924	-71.398	-0.256	0.096
-309.910	-44.754	0.692	0.343
-308.895	101.814	-0.368	0.428
-307.880	-76.989	1.382	0.480
-306.866	-200.000	0.101	0.657
-305.851	-200.000	-0.065	0.907
-304.837	312.643	-0.369	0.689
-303.822	-166.241	-0.935	0.039
-302.807	19.316	0.454	-0.363
-301.793	-49.421	-0.063	-0.030
-300.778	225.389	-0.163	0.263
-299.764	130.828	-0.203	-0.259
-298.749	-37.622	0.342	0.181
-297.735	-85.375	0.285	0.088
-296.720	-200.000	0.042	-0.389
-295.705	-95.472	0.716	-0.191
-294.691	-106.449	0.852	-0.189
-293.676	240.052	-0.419	0.694
-292.662	-158.086	0.380	-0.022
-291.647	-42.551	-0.556	-0.282
-290.632	382.666	0.277	0.566
-289.618	-52.992	0.919	-0.420
-288.603	88.476	0.517	0.571
-287.589	-99.380	-0.589	0.148
-286.574	-83.284	-0.868	0.277
-285.559	-32.792	0.704	-0.389
-284.545	-103.162	0.307	0.072
-283.530	544.670	-0.124	-0.294
-282.516	110.663	0.135	-0.162
-281.501	-200.000	-0.059	0.471
-280.486	-114.084	-0.587	-0.113
-279.472	-134.471	-0.159	-0.019
-278.457	-157.565	-0.220	0.013
-277.443	155.483	-0.268	0.367
-276.428	-53.790	-0.450	0.204
-275.413	51.617	0.390	-0.368
-274.399	-30.964	-0.551	0.309
-273.384	549.145	0.180	0.429
-272.370	-200.000	-0.016	0.542
-271.355	550.119	-0.204	0.486
-270.340	108.991	-0.247	0.294
-269.326	-191.671	-0.361	0.004
-268.311	-136.345	0.151	-0.017
-267.297	104.843	0.704	0.825
-266.282	-36.387	0.662	-0.354
-265.267	-82.248	0.261	-0.084
-264.253	-6.623	1.289	-0.871
-263.238	236.605	0.511	-0.839
-262.224	-107.367	0.884	-0.193
-261.209	46.204	0.549	-0.505
-260.195	-87.527	0.286	-0.086
-259.180	-84.544	-0.318	0.100
-258.165	-200.000	-0.012	-0.263
-257.151	-103.910	-0.824	-0.191
-256.136	264.075	-0.100	-0.172
-255.122	254.918	0.200	-0.341
-254.107	-108.563	-0.251	0.054
-253.092	-16.003	-0.728	0.460
-252.078	-200.000	0.027	-0.391
-251.063	700.657	0.182	-0.476
-250.049	-200.000	0.050	-0.449
-249.034	-160.384	-0.645	-0.034
-248.019	-90.796	-0.386	-0.110
-247.005	43.621	0.376	0.341
-245.990	-104.743	-1.024	-0.234
-244.976	-15.848	-1.318	0.833
-243.961	360.779	-0.154	0.306
-242.946	-91.869	-0.349	-0.098
-241.932	-120.866	-0.326	0.055
-240.917	-45.333	0.580	0.286
-239.903	-28.349	0.178	-0.102
-238.888	-7.924	-0.361	0.242
-237.873	155.650	0.632	0.864
-236.859	-39.869	0.487	0.252
-235.844	-200.000	-0.060	0.987
-234.830	800.000	0.162	0.651
-233.815	800.000	0.318	1.001
-232.800	-200.000	-0.415	-0.000
-231.786	-200.000	-0.046	0.360
-230.771	315.173	0.178	0.332
-229.757	-200.000	-0.043	-0.866
-228.742	-96.779	-0.327	0.085
-227.727	-200.000	0.038	0.330
-226.713	489.854	0.261	-0.592
-225.698	-15.360	-0.739	0.469
-224.684	207.959	-0.306	-0.474
-223.669	-79.320	-0.475	0.160
-222.655	-101.136	-0.657	0.159
-221.640	120.514	-0.500	-0.615
-220.625	290.865	0.138	-0.249
-219.611	-62.068	-0.881	0.365
-218.596	176.594	0.263	0.379
-217.582	46.453	0.029	0.027
-216.567	-109.251	0.468	-0.098
-215.552	184.884	-0.529	0.778
-214.538	81.744	0.776	0.833
-213.523	475.811	-0.312	-0.698
-212.509	-182.027	-0.615	0.012
-211.494	64.984	0.498	-0.499
-210.479	397.574	-0.380	0.787
-209.465	800.000	0.255	1.088
-208.450	-129.866	0.333	0.045
-207.436	124.501	-0.198	0.246
-206.421	109.497	0.281	0.333
-205.406	145.571	0.372	0.494
-204.392	-200.000	0.007	-0.227
-203.377	-8.455	0.482	0.321
-202.363	234.219	0.124	0.202
-201.348	-172.671	-0.583	0.018
-200.333	721.761	-0.183	-0.483
-199.319	800.000	-0.240	0.781
-198.304	-200.000	-0.070	0.000
-197.290	796.931	0.113	0.308
-196.275	-200.000	0.016	0.456
-195.260	-99.015	-0.363	-0.091
-194.246	-147.921	0.346	0.029
-193.231	282.110	0.443	0.786
-192.217	126.749	-0.055	-0.068
-191.202	251.305	-0.424	-0.714
-190.187	-200.000	0.027	-0.770
-189.173	13.887	0.403	0.310
-188.158	-200.000	0.042	-0.461
-187.144	18.501	0.414	-0.328
-186.129	142.913	-0.212	-0.279
-185.114	3.378	-0.529	0.382
-184.100	-72.241	-0.155	-0.057
-183.085	-200.000	0.062	-1.369
-182.071	-162.013	-1.069	-0.053
-181.056	-92.708	0.915	0.254
-180.042	800.000	-0.066	0.243
-179.027	-200.000	-0.227	1.094
-178.012	203.957	0.210	-0.322
-176.998	-110.767	-1.038	0.212
-175.983	190.437	-0.246	0.366
-174.969	800.000	-0.188	0.581
-173.954	-14.564	0.684	0.435
-172.939	190.002	0.462	0.687
-171.925	30.135	-0.256	0.216
-170.910	272.599	-0.144	0.251
-169.896	-1.794	0.510	0.355
-168.881	556.958	-0.121	-0.288
-167.866	-54.453	-0.238	-0.107
-166.852	169.359	0.482	-0.680
-165.837	134.410	-0.470	-0.603
-164.823	189.449	0.260	-0.386
-163.808	120.536	0.929	-1.141
-162.793	-39.237	-0.661	-0.343
-161.779	-200.000	-0.074	0.675
-160.764	-24.504	0.845	0.498
-159.750	59.727	0.434	0.424
-158.735	110.495	-0.380	-0.452
-157.720	44.607	0.629	0.571
-156.706	-57.305	-0.280	0.122
-155.691	800.000	-0.193	-0.527
-154.677	223.978	-0.529	0.844
-153.662	447.940	0.262	-0.571
-152.647	-69.054	-0.171	-0.065
-151.633	-200.000	-0.096	0.884
-150.618	-3.140	0.337	-0.232
-149.604	113.888	0.081	-0.098
-148.589	-169.831	0.287	-0.010
-147.574	-52.385	0.435	0.199
-146.560	-200.000	-0.065	-0.550
-145.545	-116.132	0.951	-0.175
-144.531	91.191	0.301	-0.334
-143.516	59.608	0.664	0.647
-142.502	1.642	-0.222	0.158
-141.487	800.000	0.046	0.130
-140.472	-63.515	-0.160	-0.065
-139.458	-200.000	0.040	-0.446
-138.443	733.644	-0.085	0.224
-137.429	-200.000	-0.056	-0.322
-136.414	-200.000	-0.124	-0.927
-135.399	501.194	-0.127	-0.291
-134.385	153.134	0.214	-0.289
-133.370	35.118	-0.602	-0.521
-132.356	800.000	0.096	0.358
-131.341	10.978	0.427	0.322
-130.326	-119.724	0.417	-0.071
-129.312	25.629	0.265	0.218
-128.297	-112.053	0.831	0.165
-127.283	163.049	0.342	-0.474
-126.268	474.476	-0.110	-0.245
-125.253	800.000	-0.156	0.468
-124.239	-200.000	-0.012	0.587
-123.224	-200.000	0.125	-1.162
-122.210	800.000	0.075	0.228
-121.195	-102.963	-0.222	0.052
-120.180	187.245	0.273	0.402
-119.166	800.000	0.114	0.371
-118.151	-52.898	0.590	0.268
-117.137	235.532	-0.351	0.572
-116.122	-53.699	-0.339	0.153
-115.107	800.000	-0.320	-0.983
-114.093	-66.125	-0.506	-0.199
-113.078	427.033	0.241	0.512
-112.064	-85.682	-0.099	0.030
-111.049	32.388	-0.243	0.207
-110.034	800.000	0.289	0.788
-109.020	800.000	-0.236	0.938
-108.005	85.813	0.413	-0.448
-106.991	-200.000	0.088	-0.787
-105.976	57.672	-0.553	-0.533
-104.962	610.197	0.491	1.210
-103.947	800.000	0.192	0.678
-102.932	-78.357	0.264	0.089
-101.918	-200.000	-0.059	0.335
-100.903	163.636	-0.427	0.593
-99.889	4.195	0.287	-0.208
-98.874	211.734	0.196	-0.304
-97.859	2.662	-0.120	-0.085
-96.845	-90.595	-0.112	-0.032
-95.830	-200.000	0.138	-1.205
-94.816	84.825	-0.485	0.524
-93.801	-144.679	0.699	-0.064
-92.786	93.475	0.583	-0.651
-91.772	-115.571	-0.548	-0.102
-90.757	-158.354	-0.331	-0.019
-89.743	800.000	0.117	0.393
-88.728	-42.982	0.326	-0.163
-87.713	800.000	0.129	-0.509
-86.699	41.709	0.362	-0.323
-85.684	-22.860	0.286	0.170
-84.670	328.153	0.060	-0.114
-83.655	-76.745	0.444	-0.153
-82.640	39.205	0.203	-0.179
-81.626	-118.647	0.465	0.081
-80.611	800.000	0.160	0.679
-79.597	-200.000	-0.028	0.366
-78.582	-200.000	-0.003	-0.033
-77.567	696.946	0.321	0.830
-76.553	40.862	0.651	0.579
-75.538	34.413	0.459	-0.395
-74.524	-87.698	-0.153	-0.046
-73.509	-200.000	0.011	-0.522
-72.494	302.547	0.101	0.184
-71.480	395.907	0.249	-0.513
-70.465	-2.597	0.538	-0.371
-69.451	-133.198	0.574	0.072
-68.436	489.084	-0.190	0.429
-67.422	232.224	0.272	-0.440
-66.407	65.042	-0.208	0.207
-65.392	97.813	0.122	0.138
-64.378	-102.559	0.615	-0.145
-63.363	115.694	0.429	-0.518
-62.349	800.000	0.039	0.119
-61.334	-110.493	-0.867	0.177
-60.319	383.579	-0.095	0.192
-59.305	768.923	-0.516	-1.383
-58.290	-200.000	0.026	1.078
-57.276	-200.000	0.192	1.852
-56.261	-200.000	96.338	576.360
-55.246	650.351	1365.182	3442.794
-54.232	201.631	2529.524	3838.791
-53.217	118.318	2125.842	2582.665
-52.203	44.452	1596.122	1443.952
-51.188	36.322	1336.793	1160.666
-50.173	33.618	1294.909	1108.477
-49.159	56.848	1345.377	1290.525
-48.144	57.928	1361.365	1312.234
-47.130	36.599	1319.201	1146.852
-46.115	33.288	1301.788	1112.254
-45.100	32.829	1296.719	1105.190
-44.086	33.050	1293.928	1104.059
-43.071	33.122	1291.403	1102.279
-42.057	33.042	1289.215	1099.902
-41.042	32.822	1288.263	1097.767
-40.027	32.911	1287.036	1097.195
-39.013	32.725	1285.068	1094.394
-37.998	32.953	1282.564	1093.541
-36.984	33.127	1280.571	1092.802
-35.969	32.927	1279.686	1090.847
-34.954	32.866	1277.866	1088.899
-33.940	33.032	1276.527	1088.672
-32.925	32.938	1275.777	1087.448
-31.911	33.248	1272.938	1086.767
-30.896	33.070	1272.291	1085.151
-29.881	33.018	1271.385	1084.035
-28.867	33.166	1268.900	1082.720
-27.852	33.077	1268.680	1081.982
-26.838	33.194	1266.943	1081.125
-25.823	33.148	1265.766	1079.817
-24.809	33.001	1264.349	1077.727
-23.794	33.336	1261.241	1076.941
-22.779	33.084	1261.541	1075.718
-21.765	32.925	1260.805	1074.145
-20.750	33.425	1257.898	1074.462
-19.736	32.897	1258.508	1071.943
-18.721	32.867	1256.995	1070.444
-17.706	32.932	1255.787	1069.742
-16.692	32.988	1254.269	1068.718
-15.677	32.695	1254.533	1067.245
-14.663	32.876	1252.413	1066.424
-13.648	33.068	1250.857	1066.136
-12.633	32.962	1250.631	1065.304
-11.619	33.338	1248.551	1065.606
-10.604	33.030	1248.618	1063.889
-9.590	32.918	1247.654	1062.393
-8.575	32.976	1246.972	1062.097
-7.560	32.765	1245.656	1059.750
-6.546	33.004	1245.138	1060.610
-5.531	32.674	1244.762	1058.392
-4.517	32.679	1244.396	1058.069
-3.502	33.027	1241.905	1057.858
-2.487	33.142	1242.005	1058.547
-1.473	32.878	1237.456	1053.154
-0.458	31.163	1222.429	1030.860
0.556	28.406	1205.717	992.974
1.571	24.802	1209.278	976.191
2.586	23.569	1224.953	981.940
3.600	23.279	1214.321	971.738
4.615	17.575	1140.430	883.043
5.629	7.412	1066.371	776.128
6.644	3.277	1046.432	741.664
7.659	2.853	1043.212	737.280
8.673	2.939	1041.416	736.357
9.688	2.772	1040.916	735.136
10.702	3.027	1039.701	735.434
11.717	9.126	1047.826	770.456
12.731	19.069	1061.179	828.294
13.746	23.988	1066.736	856.296
14.761	24.747	1067.550	860.527
15.775	24.645	1067.274	859.738
16.790	24.248	1067.288	857.761
17.804	24.346	1067.300	858.167
18.819	24.620	1065.229	857.740
19.834	24.826	1064.951	858.432
20.848	24.754	1064.397	857.562
21.863	24.809	1064.403	857.757
22.877	24.553	1063.490	855.715
23.892	24.466	1062.957	854.795
24.907	24.945	1061.329	855.700
25.921	24.562	1060.540	853.159
26.936	24.430	1058.952	851.179
27.950	24.578	1058.014	851.053
28.965	24.479	1055.935	848.835
29.980	24.536	1054.013	847.485
30.994	24.806	1054.689	849.235
32.009	24.735	1052.770	847.278
33.023	24.714	1051.630	846.185
34.038	24.400	1052.905	845.649
35.053	24.311	1050.978	843.609
36.067	24.186	1050.589	842.627
37.082	24.602	1049.710	843.816
38.096	24.275	1049.625	842.125
39.111	24.441	1048.440	841.887
40.126	24.516	1047.068	841.060
41.140	24.329	1045.508	838.853
42.155	24.135	1044.433	837.006
43.169	24.277	1043.094	836.526
44.184	24.251	1042.099	835.533
45.199	23.862	1041.466	833.127
46.213	24.215	1041.051	834.377
47.228	24.641	1039.989	835.444
48.242	24.639	1039.365	834.857
49.257	24.454	1038.221	833.002
50.271	24.807	1037.042	833.626
51.286	24.581	1037.293	832.703
52.301	24.505	1036.917	831.975
53.315	24.509	1035.501	830.780
54.330	24.466	1034.929	830.049
55.344	24.561	1033.459	829.237
56.359	24.512	1032.691	828.322
57.374	24.167	1032.804	826.736
58.388	24.500	1030.925	826.703
59.403	24.114	1030.827	824.761
60.417	24.388	1030.019	825.313
61.432	24.209	1029.394	823.909
62.447	24.535	1028.222	824.404
63.461	24.463	1027.348	823.301
64.476	24.392	1026.741	822.410
65.490	24.092	1025.262	819.772
66.505	24.201	1025.549	820.434
67.520	24.318	1024.310	819.904
68.534	23.904	1024.155	817.806
69.549	23.738	1022.812	815.897
70.563	23.842	1021.587	815.327
71.578	23.934	1021.437	815.559
72.593	23.940	1019.498	813.964
73.607	23.971	1019.150	813.754
74.622	23.953	1019.593	813.953
75.636	23.909	1018.533	812.837
76.651	23.982	1018.227	812.854
77.666	23.879	1017.822	811.987
78.680	23.881	1017.973	812.045
79.695	23.901	1016.173	810.629
80.709	24.192	1015.862	811.635
81.724	24.240	1014.825	810.953
82.739	24.140	1014.396	810.082
83.753	24.400	1013.227	810.259
84.768	25.025	1013.093	812.916
85.782	24.979	1010.645	810.673
86.797	24.909	1010.481	810.155
87.812	24.699	1009.681	808.489
88.826	24.711	1009.170	808.066
89.841	24.992	1008.204	808.486
90.855	24.873	1007.889	807.626
91.870	24.495	1006.702	804.900
92.884	24.793	1005.059	804.854
93.899	24.794	1003.939	803.892
94.914	24.889	1003.519	803.912
95.928	24.761	1002.401	802.370
96.943	24.735	1002.488	802.254
97.957	24.731	1000.726	800.756
98.972	24.511	1000.122	799.215
99.987	24.728	1000.042	800.053
101.001	24.608	998.170	797.946
102.016	24.639	997.259	797.286
103.030	24.846	996.171	797.269
104.045	24.688	995.549	795.997
105.060	24.701	994.462	795.116
106.074	24.794	993.530	794.712
107.089	24.717	992.901	793.797
108.103	24.755	991.491	792.767
109.118	24.312	991.362	790.633
110.133	23.940	990.838	788.495
111.147	24.162	988.971	787.923
112.162	24.132	988.754	787.545
113.176	24.313	987.134	786.987
114.191	24.256	987.401	786.876
115.206	23.891	986.032	784.105
116.220	24.137	984.693	784.058
117.235	24.203	983.360	783.214
118.249	23.978	983.858	782.552
119.264	23.899	983.061	781.503
120.279	24.235	981.512	781.674
121.293	24.052	980.982	780.383
122.308	24.192	981.406	781.264
123.322	24.325	978.981	779.848
124.337	23.914	979.145	778.109
125.352	23.660	977.265	775.436
126.366	23.874	976.083	775.367
127.381	24.327	975.953	777.168
128.395	24.610	975.222	777.751
129.410	24.514	973.910	776.215
130.424	24.500	973.033	775.390
131.439	24.350	973.295	774.878
132.454	24.505	972.430	774.792
133.468	24.514	972.380	774.726
134.483	24.779	970.639	774.414
135.497	24.838	970.184	774.239
136.512	24.374	969.851	771.897
137.527	24.663	968.393	771.918
138.541	25.000	966.904	772.115
139.556	24.380	967.039	769.479
140.570	24.693	966.394	770.247
141.585	24.974	964.287	769.706
142.600	24.893	964.531	769.486
143.614	25.076	963.535	769.409
144.629	25.032	962.570	768.383
145.643	24.811	961.256	766.320
146.658	24.967	959.806	765.762
147.673	24.653	958.850	763.593
148.687	24.701	958.749	763.650
149.702	24.884	957.121	763.066
150.716	24.475	956.901	761.079
151.731	24.559	956.012	760.661
152.746	25.212	955.118	762.660
153.760	25.005	954.534	761.246
154.775	24.988	954.214	760.851
155.789	24.883	954.163	760.299
156.804	24.899	952.169	758.710
157.819	24.817	952.004	758.161
158.833	25.094	951.083	758.535
159.848	24.830	950.723	757.062
160.862	25.103	949.111	756.865
161.877	25.033	947.648	755.336
162.892	24.930	946.831	754.184
163.906	25.297	945.505	754.605
164.921	24.700	945.944	752.376
165.935	24.647	943.921	750.479
166.950	24.868	944.153	751.524
167.964	24.920	942.977	750.742
168.979	24.719	941.967	749.030
169.994	24.787	940.332	747.949
171.008	24.710	940.230	747.479
172.023	25.001	939.613	748.135
173.037	25.087	938.461	747.511
174.052	24.837	937.567	745.692
175.067	24.738	937.699	745.319
176.081	24.352	937.286	743.314
177.096	24.483	937.077	743.632
178.110	24.284	935.951	741.841
179.125	24.267	934.321	740.414
180.140	24.423	933.780	740.568
181.154	24.460	933.884	740.741
182.169	24.866	933.689	742.203
183.183	24.943	932.721	741.686
184.198	24.698	931.837	739.904
185.213	24.709	930.930	739.162
186.227	24.909	931.161	740.107
187.242	24.888	930.510	739.440
188.256	25.035	930.217	739.748
189.271	24.901	928.534	737.790
190.286	24.571	928.061	735.989
191.300	24.049	927.318	733.189
192.315	23.747	925.547	730.481
193.329	23.869	925.310	730.732
194.344	24.263	925.475	732.413
195.359	24.754	925.380	734.291
196.373	24.942	924.611	734.389
197.388	25.307	924.240	735.524
198.402	25.487	923.450	735.567
199.417	25.151	923.750	734.366
200.432	25.176	922.399	733.326
201.446	25.128	921.676	732.491
202.461	25.301	920.811	732.447
203.475	24.371	919.725	727.724
204.490	23.786	918.711	724.475
205.504	24.702	918.569	728.029
206.519	24.881	918.238	728.433
207.534	25.026	917.195	728.130
208.548	25.123	916.910	728.232
209.563	24.505	916.430	725.277
210.577	24.814	915.523	725.751
211.592	25.414	914.553	727.346
212.607	25.374	914.584	727.143
213.621	24.939	913.763	724.666
214.636	25.221	913.671	725.670
215.650	25.088	912.298	723.980
216.665	25.238	911.552	723.928
217.680	25.182	910.708	722.969
218.694	25.119	910.269	722.303
219.709	24.668	910.072	720.266
220.723	25.051	909.205	721.056
221.738	24.788	908.925	719.714
222.753	25.086	907.592	719.790
223.767	25.156	907.759	720.139
224.782	25.367	907.246	720.517
225.796	25.299	906.477	719.570
226.811	25.082	905.882	718.162
227.826	24.492	904.670	714.777
228.840	24.360	904.016	713.672
229.855	24.454	903.113	713.269
230.869	24.500	902.620	713.001
231.884	24.681	902.760	713.770
232.899	24.772	902.755	714.067
233.913	24.852	900.536	712.567
234.928	24.739	900.872	712.319
235.942	24.538	899.939	710.721
236.957	24.539	898.945	709.877
237.972	24.587	898.936	709.999
238.986	24.654	898.171	709.597
240.001	24.148	899.208	708.341
241.015	24.688	897.120	708.774
242.030	25.009	896.078	709.160
243.045	24.685	896.575	708.206
244.059	25.179	895.500	709.250
245.074	25.127	894.748	708.383
246.088	25.183	893.583	707.620
247.103	25.046	893.951	707.309
248.117	25.161	894.703	708.295
249.132	25.823	893.256	709.697
250.147	25.949	892.710	709.695
251.161	25.782	892.578	708.870
252.176	25.483	891.659	706.903
253.190	25.869	890.795	707.670
254.205	25.731	891.206	707.394
255.220	25.876	889.903	706.865
256.234	25.594	889.796	705.613
257.249	25.685	887.964	704.451
258.263	25.618	887.499	703.759
259.278	25.780	886.640	703.650
260.293	25.815	886.361	703.502
261.307	25.737	885.778	702.673
262.322	25.417	886.469	701.908
263.336	25.517	883.950	700.242
264.351	24.593	883.064	695.879
265.366	24.957	882.247	696.590
266.380	25.702	881.591	698.904
267.395	25.752	881.807	699.208
268.409	25.884	881.302	699.259
269.424	25.847	880.404	698.341
270.439	26.045	879.622	698.426
271.453	25.555	879.228	696.154
272.468	25.597	878.258	695.488
273.482	26.033	878.281	697.128
274.497	25.603	876.780	694.216
275.512	25.263	876.750	692.819
276.526	25.692	876.504	694.219
277.541	25.752	876.935	694.731
278.555	25.901	875.885	694.410
279.570	25.677	875.476	693.164
280.585	25.714	875.636	693.369
281.599	25.789	873.628	692.009
282.614	25.339	872.376	689.226
283.628	25.356	871.914	688.867
284.643	25.523	871.860	689.404
285.657	25.238	871.293	687.802
286.672	25.448	870.303	687.763
287.687	25.436	869.561	687.073
288.701	25.767	869.153	687.950
289.716	25.477	868.578	686.328
290.730	25.348	869.121	686.206
291.745	24.892	868.296	683.749
292.760	25.533	867.037	685.143
293.774	26.189	866.661	687.283
294.789	26.397	865.984	687.478
295.803	25.997	865.562	685.559
296.818	25.974	864.719	684.746
297.833	25.370	864.713	682.386
298.847	25.426	863.752	681.776
299.862	25.336	863.796	681.412
300.876	26.075	862.738	683.314
301.891	26.179	862.593	683.536
302.906	26.161	861.225	682.324
303.920	26.089	861.366	682.100
304.935	26.476	861.001	683.212
305.949	26.190	859.698	681.042
306.964	25.764	859.329	679.083
307.979	25.559	859.078	678.052
308.993	26.111	858.586	679.681
310.008	26.192	857.179	678.813
311.022	26.295	856.855	678.882
312.037	25.747	857.066	676.928
313.052	25.198	856.264	674.173
314.066	24.954	855.296	672.436
315.081	24.930	854.929	671.998
316.095	25.652	854.717	674.478
317.110	25.569	853.931	673.490
318.125	24.997	852.185	669.913
319.139	24.598	851.439	667.777
320.154	24.714	851.072	667.865
321.168	24.885	851.928	669.115
322.183	25.382	850.976	670.162
323.197	25.692	850.118	670.582
324.212	25.606	850.406	670.430
325.227	25.356	849.800	668.962
326.241	25.430	848.633	668.259
327.256	25.500	847.596	667.644
328.270	25.542	847.570	667.723
329.285	25.095	847.078	665.615
330.300	25.290	845.799	665.275
331.314	25.164	846.607	665.382
332.329	25.552	845.070	665.551
333.343	25.649	845.374	666.091
334.358	25.998	843.744	666.038
335.373	25.560	844.629	665.058
336.387	25.922	844.653	666.357
337.402	26.106	844.091	666.535
338.416	25.896	844.116	665.719
339.431	26.195	844.134	666.780
340.446	26.169	844.372	666.811
341.460	26.060	843.121	665.362
342.475	26.420	841.217	665.124
343.489	26.789	841.209	666.418
344.504	26.151	841.611	664.331
345.519	26.660	840.535	665.292
346.533	26.029	840.662	663.016
347.548	26.380	839.895	663.640
348.562	26.218	839.714	662.842
349.577	26.439	838.132	662.346
350.592	26.258	837.092	660.802
351.606	25.920	837.033	659.462
352.621	25.928	835.901	658.540
353.635	25.946	836.234	658.809
354.650	26.109	834.798	658.215
355.665	25.638	834.009	655.820
356.679	25.704	834.010	656.002
357.694	26.309	831.646	656.283
358.708	25.966	831.104	654.549
359.723	25.658	831.515	653.699
360.738	25.578	831.434	653.284
361.752	26.108	830.823	654.672
362.767	25.979	830.957	654.249
363.781	26.336	830.723	655.302
364.796	26.432	829.698	654.785
365.810	26.268	829.701	654.135
366.825	26.336	829.535	654.193
367.840	26.218	828.222	652.675
368.854	26.096	828.312	652.245
369.869	25.901	827.736	651.029
370.883	26.086	826.541	650.699
371.898	26.561	826.108	652.011
372.913	26.560	825.304	651.317
373.927	26.469	824.715	650.465
374.942	26.182	824.461	649.176
375.956	26.438	824.131	649.781
376.971	26.798	823.011	650.129
377.986	26.708	822.758	649.551
379.000	26.318	823.832	648.942
380.015	26.698	821.934	648.748
381.029	26.047	821.865	646.305
382.044	26.553	820.648	647.100
383.059	26.775	820.149	647.444
384.073	26.543	820.175	646.578
385.088	26.220	819.372	644.734
386.102	26.273	818.245	643.981
387.117	26.197	817.377	642.970
388.132	25.588	817.343	640.717
389.146	25.916	816.590	641.237
390.161	25.986	816.593	641.430
391.175	26.389	817.117	643.219
392.190	26.639	815.383	642.686
393.205	25.801	814.657	639.083
394.219	24.863	812.384	633.924
395.234	24.972	812.227	634.131
396.248	25.573	812.567	636.469
397.263	26.165	813.125	638.946
398.278	25.890	812.461	637.393
399.292	25.615	811.901	635.926
400.307	25.525	812.365	635.917
401.321	25.893	810.747	635.890
402.336	26.328	810.733	637.360
403.350	26.204	810.976	637.055
404.365	26.824	810.392	638.725
405.380	26.639	810.228	637.886
406.394	27.055	808.879	638.231
407.409	26.806	807.887	636.519
408.423	26.837	808.734	637.237
409.438	26.755	808.302	636.552
410.453	26.632	807.519	635.450
411.467	26.798	807.397	635.880
412.482	26.705	806.738	634.979
413.496	26.651	807.019	634.955
414.511	26.417	806.858	633.951
415.526	26.504	805.475	633.112
416.540	26.563	805.602	633.363
417.555	26.391	804.428	631.784
418.569	26.502	804.120	631.872
419.584	26.795	802.839	631.831
420.599	26.458	803.541	631.152
421.613	159.603	1371.285	1792.747
422.628	138.622	1453.998	1792.846
