DTS Sentinel unit serial number:	SN413079Multiplexer serial number:	ORYXHardware model number:	OX4-SRSoftware version number:	ORYX F/W v4.00 Oryx Data Collector v3.7.2.0data status	okinstallation	princeton_trtdifferential loss correction	single-endedforward channel	channel 1reverse channel	N/Adate	2019/09/12time	19:41:34forward acquisition time	15.00reverse acquisition time	0.00gamma	496.2192k internal	0.2323k external	0.2323temperature offset calibration	1.0130default loss term (dB/km)	0.3790temperature slope calibration	1.0000multiplexer offset coefficient	1.0000multiplexer slope coefficient	1.0000fibre end	0.00T internal ref (°C)	32.06T ext. ref 1 (°C)	3.42T ext. ref 2 (°C)	26.67length (m)	temperature (°C)	Stokes	anti-Stokes-747.200	-55.477	0.562	0.255
-746.185	-129.149	0.223	-0.031
-745.171	123.312	-0.290	-0.367
-744.156	170.641	0.561	-0.812
-743.142	-200.000	-0.064	1.387
-742.127	-200.000	0.075	0.998
-741.112	246.588	-0.598	-1.018
-740.098	-0.483	0.089	-0.064
-739.083	800.000	0.081	-0.347
-738.069	-200.000	0.019	0.748
-737.054	-200.000	0.044	-0.240
-736.039	-37.538	-0.684	0.368
-735.025	-9.285	-0.174	-0.117
-734.010	-200.000	-0.047	-0.624
-732.996	-14.554	-1.080	-0.701
-731.981	800.000	0.146	0.608
-730.966	-200.000	0.016	-0.184
-729.952	-71.477	-0.374	0.141
-728.937	203.907	0.278	-0.435
-727.923	55.861	-0.252	0.246
-726.908	-49.028	-0.115	-0.055
-725.894	-200.000	0.047	-0.636
-724.879	-200.000	0.754	-0.002
-723.864	-200.000	-0.918	-0.002
-722.850	-87.516	0.148	-0.045
-721.835	89.569	-0.145	-0.163
-720.821	299.712	0.543	1.010
-719.806	-92.111	0.794	0.226
-718.791	-200.000	-0.002	0.126
-717.777	-200.000	-0.064	-0.321
-716.762	55.594	-0.086	-0.084
-715.748	54.697	0.240	-0.234
-714.733	18.618	-0.625	-0.505
-713.718	800.000	0.200	-0.862
-712.704	-200.000	-0.008	-0.621
-711.689	-147.570	-0.414	0.035
-710.675	-186.796	0.270	0.004
-709.660	800.000	-0.221	0.738
-708.645	-92.440	0.927	-0.263
-707.631	-8.477	-0.127	0.086
-706.616	-119.804	0.525	-0.091
-705.602	-200.000	-0.024	-0.399
-704.587	-131.162	-0.395	-0.053
-703.572	-79.262	0.473	-0.162
-702.558	-200.000	0.142	0.645
-701.543	16.213	-0.683	0.543
-700.529	77.305	-0.571	-0.613
-699.514	127.016	-0.202	0.258
-698.499	6.705	-0.391	0.293
-697.485	-83.270	0.650	-0.210
-696.470	29.784	-0.218	-0.187
-695.456	-200.000	0.066	0.377
-694.441	370.322	0.125	0.255
-693.426	-72.535	0.296	-0.110
-692.412	-102.376	0.425	-0.103
-691.397	57.061	-0.090	0.089
-690.383	-140.069	0.597	-0.063
-689.368	-200.000	-0.046	0.367
-688.354	-3.803	-0.372	-0.260
-687.339	-172.284	0.767	0.025
-686.324	-62.390	0.339	-0.142
-685.310	49.759	-0.356	-0.338
-684.295	-80.783	0.612	-0.205
-683.281	-15.545	0.295	-0.190
-682.266	70.477	-0.287	-0.299
-681.251	-63.412	0.440	-0.182
-680.237	105.852	-0.371	-0.442
-679.222	-154.249	0.613	0.042
-678.208	-200.000	-0.065	0.528
-677.193	-89.529	0.490	0.145
-676.178	-126.120	-0.796	-0.120
-675.164	204.791	0.213	0.333
-674.149	82.118	0.422	-0.461
-673.135	-200.000	-0.058	0.519
-672.120	-168.598	-1.217	-0.047
-671.105	800.000	0.045	0.189
-670.091	-64.116	0.403	0.166
-669.076	-200.000	0.044	0.580
-668.062	285.309	0.295	0.535
-667.047	-136.857	0.167	0.019
-666.032	-17.459	-0.650	0.412
-665.018	-200.000	0.021	0.554
-664.003	420.175	-0.208	0.448
-662.989	-158.857	-0.528	-0.030
-661.974	-86.888	-0.233	0.072
-660.959	-8.736	0.429	0.290
-659.945	-56.758	-0.465	-0.207
-658.930	47.182	0.456	0.427
-657.916	-47.229	-0.109	0.053
-656.901	26.667	-0.509	0.429
-655.886	597.056	0.081	-0.201
-654.872	-200.000	0.134	0.686
-653.857	20.427	0.454	0.370
-652.843	43.557	0.310	0.285
-651.828	19.921	0.128	0.104
-650.814	48.712	0.829	0.782
-649.799	800.000	-0.261	0.765
-648.784	56.350	-0.752	0.735
-647.770	132.441	-0.337	0.436
-646.755	-200.000	-0.002	0.745
-645.741	268.565	0.071	0.124
-644.726	-14.090	-0.272	-0.176
-643.711	-71.001	0.900	-0.341
-642.697	-14.133	-0.484	-0.314
-641.682	-200.000	0.025	-0.291
-640.668	-71.579	0.438	0.165
-639.653	-119.263	0.772	0.135
-638.638	-96.506	-0.322	-0.086
-637.624	-65.410	-0.134	-0.054
-636.609	174.355	-0.267	-0.389
-635.595	-27.973	-0.916	0.533
-634.580	-200.000	0.070	-0.422
-633.565	-113.749	0.446	0.087
-632.551	277.103	0.086	-0.153
-631.536	-200.000	-0.089	0.534
-630.522	134.584	0.245	0.319
-629.507	-93.178	-0.434	-0.121
-628.492	-200.000	0.055	-0.300
-627.478	47.035	-0.372	-0.348
-626.463	8.679	0.626	0.474
-625.449	276.605	-0.229	0.408
-624.434	120.541	-0.204	-0.255
-623.419	800.000	0.183	-0.801
-622.405	-43.040	0.220	0.112
-621.390	-60.412	0.538	0.230
-620.376	29.622	0.150	0.128
-619.361	-54.014	-0.529	-0.242
-618.346	-200.000	0.025	-0.323
-617.332	800.000	-0.033	0.100
-616.317	3.808	-0.150	0.110
-615.303	7.230	0.501	-0.376
-614.288	-200.000	-0.065	-0.457
-613.273	-86.095	-1.223	0.379
-612.259	401.663	-0.361	0.761
-611.244	-51.066	0.658	-0.310
-610.230	-84.478	-0.645	0.205
-609.215	-101.400	0.624	-0.153
-608.201	-113.606	0.352	-0.069
-607.186	800.000	0.043	-0.173
-606.171	125.185	0.374	-0.474
-605.157	165.802	-0.439	0.624
-604.142	-153.620	-0.905	-0.063
-603.128	-165.585	-1.050	-0.046
-602.113	-200.000	-0.087	-0.892
-601.098	431.921	-0.201	-0.437
-600.084	-65.601	0.285	-0.115
-599.069	-200.000	0.033	-0.254
-598.055	80.192	0.569	0.615
-597.040	800.000	-0.208	-0.659
-596.025	68.697	-0.232	-0.239
-595.011	-61.093	-0.746	-0.316
-593.996	-138.434	0.658	-0.073
-592.982	-94.128	0.652	0.179
-591.967	378.564	0.188	-0.386
-590.952	36.964	-0.166	-0.147
-589.938	727.133	0.500	1.339
-588.923	-172.543	0.898	0.028
-587.909	214.082	-0.175	-0.278
-586.894	-70.316	0.510	-0.194
-585.879	580.252	-0.112	-0.276
-584.865	455.409	-0.193	0.429
-583.850	304.423	0.414	0.772
-582.836	-55.943	0.307	0.137
-581.821	-200.000	0.036	0.800
-580.806	-16.052	-0.438	0.279
-579.792	117.916	0.283	0.350
-578.777	800.000	0.193	-0.624
-577.763	800.000	0.139	0.392
-576.748	-200.000	-0.039	-0.190
-575.733	54.459	0.528	0.511
-574.719	-200.000	0.046	-0.272
-573.704	-156.549	1.157	-0.072
-572.690	24.002	-0.433	-0.358
-571.675	-89.777	0.526	-0.154
-570.661	800.000	-0.099	-0.289
-569.646	-59.806	0.526	-0.226
-568.631	-122.167	-0.753	-0.124
-567.617	56.043	-0.287	-0.280
-566.602	800.000	0.130	-0.385
-565.588	-77.775	-1.305	0.452
-564.573	-88.639	0.202	-0.060
-563.558	17.259	-0.749	-0.596
-562.544	-107.621	0.323	-0.071
-561.529	-79.064	0.351	-0.120
-560.515	521.847	0.110	-0.260
-559.500	-29.095	-0.887	-0.510
-558.485	-111.479	0.203	-0.041
-557.471	80.942	0.428	-0.463
-556.456	13.893	-0.476	-0.371
-555.442	218.661	0.224	-0.358
-554.427	19.749	-0.328	0.265
-553.412	-170.100	0.575	0.020
-552.398	-31.552	0.702	0.395
-551.383	-40.462	0.466	0.243
-550.369	-33.259	-0.131	0.073
-549.354	-76.545	-0.742	0.261
-548.339	11.962	0.320	0.247
-547.325	-200.000	-0.464	0.001
-546.310	151.885	0.145	0.198
-545.296	-157.536	-0.574	-0.034
-544.281	-158.933	-1.405	-0.080
-543.266	645.376	0.106	-0.271
-542.252	-148.142	-0.253	0.021
-541.237	-60.435	0.265	-0.113
-540.223	91.877	-0.506	0.570
-539.208	32.620	0.034	-0.030
-538.193	267.378	0.139	0.243
-537.179	-200.000	-0.021	0.166
-536.164	100.669	-0.260	-0.303
-535.150	-12.713	0.298	-0.195
-534.135	800.000	-0.087	0.315
-533.121	-200.000	0.022	1.101
-532.106	162.121	0.198	0.278
-531.091	800.000	0.170	0.579
-530.077	346.536	-0.275	0.542
-529.062	-7.154	-0.135	-0.092
-528.048	-47.914	0.527	0.256
-527.033	-43.626	0.326	0.165
-526.018	86.711	0.661	0.730
-525.004	10.599	0.827	0.631
-523.989	235.161	0.093	-0.154
-522.975	-0.995	-0.483	0.342
-521.960	41.889	-0.235	-0.213
-520.945	800.000	-0.163	-0.519
-519.931	-106.302	-0.769	0.172
-518.916	52.840	-0.949	-0.908
-517.902	-112.297	0.829	0.166
-516.887	-169.834	0.331	-0.012
-515.872	-92.711	0.544	-0.152
-514.858	-22.832	0.545	0.329
-513.843	285.214	-0.252	0.455
-512.829	64.861	-0.396	0.400
-511.814	10.382	0.321	0.244
-510.799	-105.671	-0.729	0.165
-509.785	800.000	0.201	-0.666
-508.770	403.284	-0.295	0.622
-507.756	168.368	-0.245	0.350
-506.741	75.891	-0.123	-0.130
-505.726	-21.521	-0.444	-0.271
-504.712	-76.056	0.188	-0.067
-503.697	-21.406	0.378	0.231
-502.683	-200.000	0.040	0.297
-501.668	559.611	0.406	-0.981
-500.653	-84.880	-1.116	0.351
-499.639	-89.558	0.533	0.157
-498.624	547.372	0.205	-0.491
-497.610	195.939	0.376	0.572
-496.595	-5.759	0.923	0.632
-495.581	-172.385	-0.070	-0.002
-494.566	-70.815	1.064	0.401
-493.551	-60.400	-0.806	-0.343
-492.537	55.436	-0.151	-0.146
-491.522	152.678	0.877	-1.198
-490.508	63.147	0.190	-0.191
-489.493	92.316	0.317	-0.357
-488.478	-200.000	0.058	0.372
-487.464	60.107	0.328	-0.324
-486.449	395.954	0.110	-0.229
-485.435	-200.000	0.120	0.649
-484.420	-200.000	-0.014	0.217
-483.405	68.868	-0.302	-0.310
-482.391	352.694	0.511	1.012
-481.376	-84.383	-0.599	-0.189
-480.362	-108.660	0.387	0.083
-479.347	-92.169	0.402	0.113
-478.332	-140.672	-0.220	-0.023
-477.318	800.000	-0.148	0.483
-476.303	-90.279	0.436	-0.126
-475.289	35.054	-0.552	0.483
-474.274	-48.211	0.355	-0.171
-473.259	-200.000	-0.001	0.047
-472.245	-17.793	0.844	-0.529
-471.230	54.805	0.367	-0.354
-470.216	-2.803	-0.308	0.215
-469.201	32.666	-0.543	0.469
-468.186	-137.245	-0.697	-0.079
-467.172	235.113	-0.097	-0.160
-466.157	271.014	0.215	-0.377
-465.143	800.000	-0.080	-0.318
-464.128	404.443	-0.162	-0.342
-463.113	-200.000	0.016	-0.439
-462.099	326.483	0.310	-0.592
-461.084	800.000	-0.116	-0.333
-460.070	-10.138	-0.534	0.354
-459.055	55.639	0.379	-0.367
-458.040	117.144	-0.359	0.441
-457.026	-43.081	0.268	0.135
-456.011	168.565	0.385	-0.548
-454.997	-200.000	0.668	-0.002
-453.982	-8.612	-0.317	-0.213
-452.968	749.540	-0.289	-0.778
-451.953	800.000	-0.109	0.449
-450.938	-200.000	0.057	0.413
-449.924	29.454	-0.494	-0.420
-448.909	-97.744	0.206	-0.053
-447.895	-200.000	-0.006	-0.386
-446.880	800.000	-0.118	-0.480
-445.865	236.076	0.212	0.350
-444.851	271.479	-0.235	-0.414
-443.836	-147.181	-0.767	0.065
-442.822	-102.788	0.524	-0.124
-441.807	-104.933	-0.246	0.056
-440.792	14.928	0.481	-0.376
-439.778	-15.049	-0.417	0.267
-438.763	160.126	0.099	0.137
-437.749	-200.000	0.166	-1.069
-436.734	-150.201	0.467	0.036
-435.719	-116.024	0.711	-0.132
-434.705	-25.217	-0.632	-0.374
-433.690	472.106	-0.153	0.344
-432.676	48.080	-0.074	-0.069
-431.661	-42.292	0.584	-0.297
-430.646	-15.564	-0.654	-0.416
-429.632	74.086	-0.215	0.225
-428.617	50.511	-0.306	0.289
-427.603	-102.611	-0.420	-0.100
-426.588	-1.412	-0.389	0.274
-425.573	688.478	-0.113	-0.294
-424.559	-98.127	-0.049	-0.013
-423.544	518.568	0.176	0.412
-422.530	-31.781	0.354	-0.198
-421.515	-166.991	0.281	-0.011
-420.500	29.997	-0.165	0.140
-419.486	-75.021	-0.360	-0.129
-418.471	-53.734	-0.218	0.099
-417.457	-94.065	-0.395	0.108
-416.442	-41.375	0.293	0.151
-415.428	-200.000	0.195	-0.933
-414.413	273.126	0.242	0.426
-413.398	-19.740	-0.617	0.380
-412.384	800.000	0.091	0.293
-411.369	65.039	0.500	-0.504
-410.355	372.622	-0.149	-0.302
-409.340	800.000	-0.079	-0.299
-408.325	115.966	-0.426	0.520
-407.311	-200.000	0.101	-0.506
-406.296	163.550	0.402	-0.563
-405.282	35.760	0.617	-0.540
-404.267	-117.820	0.489	0.088
-403.252	133.085	-0.161	-0.207
-402.238	800.000	-0.099	-0.307
-401.223	132.231	0.122	-0.157
-400.209	374.707	-0.041	-0.083
-399.194	1.160	-0.747	0.534
-398.179	24.823	-0.322	-0.266
-397.165	-125.393	-0.497	0.076
-396.150	800.000	-0.202	0.626
-395.136	-2.136	1.039	0.726
-394.121	800.000	-0.181	-0.614
-393.106	-200.000	-0.063	-0.568
-392.092	-28.121	-0.223	0.128
-391.077	-141.183	-0.671	-0.068
-390.063	-39.352	0.571	0.298
-389.048	-52.500	0.274	-0.126
-388.033	300.190	0.375	0.688
-387.019	-129.684	0.583	-0.080
-386.004	321.205	0.294	-0.557
-384.990	-200.000	-0.000	0.703
-383.975	-183.063	-0.666	0.012
-382.960	-78.739	-0.220	-0.075
-381.946	675.512	-0.011	-0.029
-380.931	17.456	-0.145	0.115
-379.917	-200.000	-0.063	-0.277
-378.902	-59.802	0.864	-0.368
-377.888	161.936	-0.522	0.728
-376.873	-158.118	0.116	-0.007
-375.858	84.168	-0.422	0.459
-374.844	110.573	0.466	0.557
-373.829	82.540	-0.485	-0.524
-372.815	-135.546	-0.691	-0.082
-371.800	-107.514	-0.330	0.072
-370.785	-143.473	0.834	0.079
-369.771	68.522	0.776	-0.792
-368.756	-200.000	-0.027	-0.222
-367.742	37.830	-0.502	-0.444
-366.727	430.715	0.141	-0.303
-365.712	-46.370	-0.244	-0.120
-364.698	40.844	-0.050	0.045
-363.683	96.865	-0.181	0.206
-362.669	-200.000	-0.022	0.165
-361.654	-20.843	-0.315	0.192
-360.639	-198.922	-0.158	0.001
-359.625	161.558	-0.262	0.365
-358.610	-200.000	-0.054	0.539
-357.596	800.000	-0.173	0.743
-356.581	277.183	0.296	-0.523
-355.566	182.405	0.330	0.484
-354.552	-108.077	-0.703	-0.152
-353.537	478.140	0.247	0.556
-352.523	-200.000	0.030	0.740
-351.508	382.711	0.128	-0.263
-350.493	-76.675	-0.348	-0.121
-349.479	206.097	0.071	0.110
-348.464	800.000	0.043	-0.152
-347.450	105.542	-0.278	-0.327
-346.435	-23.733	0.420	0.250
-345.420	-86.474	1.003	-0.306
-344.406	-110.255	0.242	-0.050
-343.391	-143.852	0.437	0.041
-342.377	800.000	-0.287	0.852
-341.362	395.141	-0.149	0.308
-340.348	800.000	-0.075	-0.243
-339.333	280.778	0.160	0.284
-338.318	242.855	-0.069	0.115
-337.304	285.232	-0.169	-0.302
-336.289	-74.680	0.599	0.214
-335.275	306.208	-0.243	-0.450
-334.260	66.125	0.199	0.201
-333.245	-36.261	0.799	0.428
-332.231	-200.000	-0.010	0.068
-331.216	-89.983	0.617	-0.179
-330.202	-56.918	-0.480	-0.210
-329.187	-65.874	1.047	0.416
-328.172	-200.000	0.009	-0.540
-327.158	-200.000	0.159	-0.768
-326.143	-6.752	0.573	-0.387
-325.129	-139.530	-0.860	0.091
-324.114	-44.548	0.618	0.307
-323.099	383.502	0.178	-0.363
-322.085	-200.000	-0.141	0.668
-321.070	510.880	0.428	-0.990
-320.056	-11.422	-0.267	-0.174
-319.041	-140.933	0.400	0.041
-318.026	7.357	-0.626	0.465
-317.012	800.000	-0.097	0.412
-315.997	47.027	0.420	0.388
-314.983	483.299	-0.107	-0.242
-313.968	104.823	-0.647	-0.757
-312.953	41.488	0.605	-0.544
-311.939	-66.699	-0.537	0.211
-310.924	-89.064	-0.815	0.239
-309.910	77.346	0.398	-0.421
-308.895	-200.000	0.040	0.563
-307.880	70.828	0.349	-0.359
-306.866	-153.750	-0.844	0.058
-305.851	95.332	-0.792	-0.897
-304.837	-157.622	-0.856	-0.051
-303.822	-12.387	-0.462	-0.300
-302.807	76.850	0.821	-0.865
-301.793	145.383	0.202	-0.268
-300.778	273.060	0.440	0.771
-299.764	-6.386	0.247	-0.167
-298.749	-200.000	0.044	0.706
-297.735	272.631	-0.280	0.490
-296.720	73.405	-0.149	-0.155
-295.705	121.682	-0.313	-0.387
-294.691	124.997	0.389	-0.486
-293.676	177.962	-0.390	-0.564
-292.662	-200.000	0.087	-0.701
-291.647	-200.000	0.016	-0.437
-290.632	-55.339	0.852	0.379
-289.618	142.289	0.414	-0.546
-288.603	504.909	-0.492	1.131
-287.589	111.702	-0.270	-0.324
-286.574	-200.000	-0.037	-0.636
-285.559	800.000	-0.398	1.273
-284.545	-200.000	0.096	0.431
-283.530	280.090	0.355	-0.629
-282.516	800.000	0.203	0.742
-281.501	363.353	0.066	-0.132
-280.486	472.703	-0.157	0.351
-279.472	304.409	-0.372	-0.684
-278.457	621.898	-0.028	-0.070
-277.443	552.368	-0.320	0.762
-276.428	-81.917	0.277	0.090
-275.413	-41.115	-0.165	-0.084
-274.399	-148.411	0.544	0.044
-273.384	-200.000	0.008	-0.579
-272.370	143.328	-0.267	-0.353
-271.355	-200.000	0.046	0.764
-270.340	-200.000	-0.045	0.286
-269.326	78.182	0.562	-0.594
-268.311	31.603	0.161	0.138
-267.297	190.320	0.230	-0.342
-266.282	35.942	0.488	-0.425
-265.267	-71.895	-0.138	-0.051
-264.253	3.816	0.426	-0.308
-263.238	294.430	0.135	-0.244
-262.224	38.642	0.076	-0.067
-261.209	800.000	-0.165	-0.451
-260.195	-200.000	-0.007	0.082
-259.180	54.646	-0.570	-0.545
-258.165	121.974	-0.686	0.849
-257.151	448.712	-0.437	0.953
-256.136	-23.781	-0.653	0.387
-255.122	-56.802	-0.414	0.181
-254.107	-200.000	0.150	-0.868
-253.092	800.000	0.155	0.445
-252.078	-98.369	-0.603	0.153
-251.063	-193.420	-0.460	-0.004
-250.049	-160.852	-0.051	0.003
-249.034	800.000	0.071	-0.218
-248.019	429.327	0.048	-0.102
-247.005	31.371	-0.020	-0.017
-245.990	48.887	-0.479	-0.446
-244.976	62.012	0.264	-0.260
-243.961	228.887	-0.555	0.896
-242.946	-200.000	-0.005	0.200
-241.932	62.889	-0.540	-0.536
-240.917	312.032	-0.293	-0.545
-239.903	-200.000	-0.127	0.863
-238.888	-94.952	0.536	-0.144
-237.873	800.000	-0.162	0.689
-236.859	115.796	-0.666	-0.806
-235.844	-8.116	0.445	0.297
-234.830	-177.383	0.578	0.014
-233.815	-101.127	-0.494	0.120
-232.800	-113.621	1.221	-0.236
-231.786	-23.106	1.019	-0.608
-230.771	141.434	0.256	0.336
-229.757	33.777	-0.339	0.291
-228.742	-200.000	0.007	-0.210
-227.727	491.032	0.165	-0.374
-226.713	8.367	-0.520	-0.387
-225.698	-3.802	0.107	-0.073
-224.684	-63.429	-0.068	0.028
-223.669	-142.836	0.617	0.059
-222.655	-64.785	0.200	0.080
-221.640	-37.622	0.334	0.176
-220.625	134.932	0.204	0.263
-219.611	-4.271	-0.898	0.615
-218.596	-94.454	0.733	0.198
-217.582	647.459	0.095	0.239
-216.567	-90.859	0.662	0.189
-215.552	13.439	-0.304	-0.233
-214.538	330.685	-0.240	0.458
-213.523	286.087	0.411	0.733
-212.509	-173.582	0.964	-0.029
-211.494	-200.000	0.055	-0.439
-210.479	72.438	-0.489	0.504
-209.465	-142.686	-1.170	0.113
-208.450	102.562	0.463	-0.536
-207.436	800.000	0.341	-0.952
-206.421	260.118	-0.448	-0.765
-205.406	199.233	-0.251	0.380
-204.392	800.000	-0.479	1.526
-203.377	97.235	0.323	0.366
-202.363	138.749	0.224	0.291
-201.348	-200.000	-0.048	-0.507
-200.333	800.000	0.126	-0.466
-199.319	-59.163	0.494	0.210
-198.304	198.591	0.185	0.281
-197.290	103.602	0.578	0.671
-196.275	-82.387	0.457	0.147
-195.260	295.767	0.317	-0.573
-194.246	-200.000	0.053	0.340
-193.231	142.172	0.402	0.527
-192.217	-200.000	-0.024	-0.595
-191.202	56.446	-0.457	0.439
-190.187	-91.460	-0.283	-0.080
-189.173	11.260	-0.009	0.007
-188.158	11.712	-0.347	0.263
-187.144	111.987	0.545	0.651
-186.129	135.508	-0.735	0.944
-185.114	-140.264	-0.129	-0.013
-184.100	-96.463	-0.557	0.145
-183.085	770.904	-0.046	-0.123
-182.071	-200.000	0.040	0.310
-181.056	-200.000	0.081	-0.696
-180.042	61.488	-0.486	0.477
-179.027	-200.000	-0.031	0.238
-178.012	-138.612	0.412	-0.045
-176.998	66.408	0.415	0.416
-175.983	-61.761	0.109	-0.045
-174.969	-59.378	-0.839	0.356
-173.954	170.176	0.256	-0.361
-172.939	-200.000	0.005	-1.022
-171.925	44.019	-0.605	-0.548
-170.910	30.925	-0.453	-0.383
-169.896	732.293	-0.123	0.324
-168.881	324.517	0.223	0.421
-167.866	-114.147	0.498	-0.095
-166.852	706.338	0.090	-0.233
-165.837	461.481	0.170	-0.373
-164.823	-46.174	-1.199	0.583
-163.808	800.000	-0.100	0.429
-162.793	-123.497	0.249	0.039
-161.779	-50.073	-0.054	0.025
-160.764	-97.906	-0.484	0.123
-159.750	45.770	-0.767	0.700
-158.735	512.919	0.276	-0.635
-157.720	282.441	-0.507	-0.898
-156.706	-1.156	-0.651	-0.454
-155.691	800.000	0.180	0.564
-154.677	800.000	0.183	-0.537
-153.662	-200.000	-0.035	-0.501
-152.647	-135.572	0.792	-0.093
-151.633	-200.000	-0.025	0.341
-150.618	800.000	-0.136	0.509
-149.604	53.826	0.452	0.429
-148.589	-54.220	-0.651	-0.292
-147.574	-185.829	0.200	-0.003
-146.560	191.758	-0.217	-0.323
-145.545	-58.248	0.422	-0.181
-144.531	-200.000	0.023	-0.154
-143.516	523.427	-0.269	-0.624
-142.502	-200.000	-0.041	0.284
-141.487	127.078	0.311	0.389
-140.472	-200.000	-0.036	0.202
-139.458	371.518	0.219	-0.438
-138.443	-12.169	-0.405	-0.262
-137.429	-29.741	-0.309	-0.174
-136.414	57.806	-0.727	-0.701
-135.399	-3.583	-0.663	0.454
-134.385	800.000	0.113	0.418
-133.370	800.000	0.044	0.152
-132.356	170.114	-0.292	0.412
-131.341	-101.932	-0.635	0.151
-130.326	-75.171	0.470	-0.165
-129.312	26.533	0.335	0.276
-128.297	647.180	-0.142	0.358
-127.283	183.080	-0.170	0.248
-126.268	466.051	0.065	-0.142
-125.253	149.669	-0.262	0.349
-124.239	-200.000	-0.030	0.585
-123.224	-200.000	-0.014	0.786
-122.210	13.914	-0.459	0.352
-121.195	-31.477	-0.337	0.187
-120.180	-112.996	-1.032	-0.201
-119.166	192.346	-0.326	-0.485
-118.151	-32.239	0.290	-0.159
-117.137	501.343	0.022	0.051
-116.122	16.240	-0.273	0.212
-115.107	130.584	-0.333	0.420
-114.093	526.425	0.183	-0.424
-113.078	189.354	0.412	-0.609
-112.064	-29.297	0.103	0.058
-111.049	16.625	-0.598	0.465
-110.034	-200.000	-0.006	0.422
-109.020	800.000	0.269	1.058
-108.005	25.245	-0.295	0.241
-106.991	-71.232	0.503	-0.186
-105.976	-200.000	-0.042	0.752
-104.962	-67.693	1.304	0.503
-103.947	-200.000	0.065	0.551
-102.932	800.000	-0.093	-0.392
-101.918	23.858	0.518	0.421
-100.903	-60.024	-0.808	0.340
-99.889	148.506	0.400	0.533
-98.874	676.349	-0.177	0.452
-97.859	-126.755	0.673	-0.098
-96.845	784.177	0.164	0.443
-95.830	652.130	0.113	-0.286
-94.816	-200.000	-0.004	0.241
-93.801	116.642	0.425	0.513
-92.786	-200.000	-0.246	-1.339
-91.772	800.000	-0.196	0.599
-90.757	-89.932	-0.740	0.213
-89.743	-59.923	0.783	0.330
-88.728	-120.399	-0.542	-0.091
-87.713	-200.000	0.054	-0.265
-86.699	-78.558	-0.556	-0.187
-85.684	307.525	0.181	0.332
-84.670	800.000	-0.045	0.128
-83.655	800.000	-0.087	0.360
-82.640	21.372	0.645	0.516
-81.626	321.589	0.271	0.508
-80.611	56.126	0.242	0.231
-79.597	484.624	-0.153	0.343
-78.582	-200.000	0.003	0.283
-77.567	-40.511	-1.018	-0.520
-76.553	-111.716	0.608	-0.121
-75.538	800.000	0.250	0.819
-74.524	-102.623	-0.231	0.054
-73.509	-69.906	0.536	0.201
-72.494	-15.108	0.231	-0.145
-71.480	101.827	0.273	0.313
-70.465	123.768	0.793	0.979
-69.451	-200.000	0.193	-1.065
-68.436	77.274	-0.891	-0.932
-67.422	739.274	0.156	-0.411
-66.407	-96.773	0.850	-0.220
-65.392	-65.008	-0.360	0.143
-64.378	-10.703	0.798	-0.519
-63.363	735.409	-0.157	-0.412
-62.349	-149.525	-0.312	-0.024
-61.334	-26.627	-1.142	-0.657
-60.319	351.474	0.589	1.146
-59.305	371.221	-0.587	-1.171
-58.290	144.710	0.687	0.902
-57.276	-200.000	0.212	1.816
-56.261	-200.000	96.608	602.987
-55.246	660.384	1358.347	3438.365
-54.232	203.965	2522.838	3840.415
-53.217	119.826	2117.961	2580.360
-52.203	44.085	1588.621	1431.643
-51.188	35.801	1328.493	1147.998
-50.173	32.654	1287.451	1094.254
-49.159	56.291	1338.015	1277.592
-48.144	57.152	1353.617	1297.524
-47.130	35.763	1313.323	1134.486
-46.115	32.393	1294.890	1098.875
-45.100	32.066	1290.059	1092.830
-44.086	31.896	1287.588	1089.706
-43.071	32.188	1285.427	1089.528
-42.057	31.796	1283.185	1085.313
-41.042	32.160	1280.658	1085.238
-40.027	32.102	1279.659	1084.015
-39.013	31.965	1278.190	1081.935
-37.998	31.880	1275.921	1079.483
-36.984	32.218	1274.190	1079.915
-35.969	32.012	1272.014	1076.848
-34.954	31.929	1270.845	1075.338
-33.940	32.298	1269.392	1076.183
-32.925	32.141	1267.930	1073.998
-31.911	32.125	1267.029	1073.102
-30.896	32.135	1265.730	1072.019
-29.881	32.269	1263.597	1070.930
-28.867	32.222	1262.746	1069.899
-27.852	32.042	1261.462	1067.747
-26.838	32.223	1259.291	1066.896
-25.823	32.277	1258.479	1066.473
-24.809	31.942	1257.672	1063.846
-23.794	32.138	1256.727	1064.113
-22.779	31.989	1254.807	1061.603
-21.765	32.182	1253.774	1061.777
-20.750	32.116	1251.906	1059.779
-19.736	32.278	1250.674	1059.607
-18.721	31.937	1249.583	1056.721
-17.706	31.941	1248.749	1055.997
-16.692	32.049	1246.994	1055.081
-15.677	32.265	1245.953	1055.368
-14.663	32.275	1244.594	1054.232
-13.648	31.892	1243.879	1051.440
-12.633	31.940	1242.880	1050.819
-11.619	32.200	1242.424	1051.850
-10.604	31.967	1241.621	1049.824
-9.590	31.875	1240.689	1048.478
-8.575	31.971	1240.010	1048.400
-7.560	31.810	1238.307	1046.018
-6.546	31.984	1237.568	1046.324
-5.531	31.862	1237.328	1045.401
-4.517	31.716	1235.975	1043.404
-3.502	31.882	1236.160	1044.442
-2.487	31.967	1234.669	1043.612
-1.473	31.836	1230.699	1039.489
-0.458	30.309	1214.870	1017.713
0.556	27.937	1196.939	978.627
1.571	24.419	1202.221	963.890
2.586	23.366	1215.978	969.081
3.600	22.597	1205.308	956.322
4.615	16.970	1134.579	871.299
5.629	7.731	1060.979	770.139
6.644	3.608	1040.611	735.669
7.659	3.849	1036.642	733.941
8.673	3.031	1036.617	729.975
9.688	3.195	1034.917	729.490
10.702	3.615	1032.507	729.713
11.717	9.577	1040.207	763.416
12.731	18.914	1053.823	817.971
13.746	23.418	1061.219	845.165
14.761	24.395	1060.590	849.245
15.775	23.769	1059.651	845.442
16.790	23.527	1058.133	843.003
17.804	23.488	1057.054	841.883
18.819	23.299	1056.628	840.573
19.834	23.168	1056.447	839.736
20.848	23.692	1055.706	841.555
21.863	23.154	1056.239	839.353
22.877	23.309	1054.682	838.775
23.892	22.976	1053.873	836.484
24.907	23.383	1052.532	837.266
25.921	23.447	1050.835	836.144
26.936	23.022	1050.994	834.193
27.950	23.022	1048.567	832.195
28.965	22.852	1047.705	830.634
29.980	23.196	1046.065	830.878
30.994	23.119	1045.325	829.854
32.009	23.379	1043.929	829.889
33.023	23.175	1043.102	828.204
34.038	23.042	1043.068	827.482
35.053	23.185	1041.357	826.719
36.067	22.760	1041.154	824.500
37.082	23.238	1039.247	825.147
38.096	23.112	1039.294	824.522
39.111	23.439	1037.670	824.684
40.126	23.420	1036.598	823.670
41.140	22.685	1035.077	818.975
42.155	22.513	1034.361	817.541
43.169	22.828	1032.155	817.184
44.184	22.557	1032.951	816.485
45.199	22.622	1030.825	815.031
46.213	22.939	1030.770	816.382
47.228	23.122	1031.002	817.338
48.242	23.443	1029.604	817.642
49.257	23.140	1029.788	816.313
50.271	23.368	1029.199	816.827
51.286	23.896	1026.983	817.426
52.301	23.319	1027.307	814.957
53.315	23.292	1025.787	813.553
54.330	23.093	1025.629	812.443
55.344	23.227	1023.118	810.995
56.359	22.829	1023.835	809.668
57.374	22.974	1022.070	808.865
58.388	22.559	1021.786	806.668
59.403	22.540	1020.147	805.214
60.417	22.651	1020.021	805.554
61.432	22.493	1018.930	803.897
62.447	22.430	1018.387	803.111
63.461	22.738	1016.584	803.021
64.476	22.365	1016.992	801.575
65.490	22.261	1016.099	800.327
66.505	22.338	1015.423	800.070
67.520	22.562	1014.568	800.348
68.534	22.780	1012.674	799.769
69.549	22.425	1012.818	798.202
70.563	22.399	1010.748	796.381
71.578	21.734	1010.768	793.319
72.593	21.770	1009.670	792.550
73.607	21.831	1009.385	792.532
74.622	21.853	1009.320	792.508
75.636	22.200	1008.300	793.204
76.651	22.258	1006.874	792.272
77.666	22.290	1006.686	792.202
78.680	22.122	1006.286	791.061
79.695	21.972	1005.204	789.464
80.709	22.351	1005.908	791.653
81.724	22.312	1004.011	789.915
82.739	22.452	1004.666	790.990
83.753	23.056	1003.868	792.999
84.768	23.293	1005.226	795.065
85.782	23.554	1002.307	793.858
86.797	23.479	1001.175	792.553
87.812	23.377	1000.624	791.593
88.826	23.579	999.402	791.456
89.841	23.534	999.000	790.869
90.855	23.345	998.394	789.474
91.870	23.697	997.381	790.172
92.884	23.513	996.398	788.506
93.899	23.498	994.867	787.157
94.914	23.390	995.040	786.744
95.928	23.296	993.878	785.339
96.943	23.436	992.120	784.498
97.957	23.390	991.263	783.549
98.972	23.536	990.626	783.623
99.987	23.509	989.423	782.480
101.001	23.192	988.828	780.543
102.016	23.220	988.721	780.515
103.030	23.343	986.549	779.273
104.045	23.525	987.061	780.405
105.060	23.385	986.237	779.071
106.074	23.076	985.022	776.688
107.089	22.785	984.316	774.784
108.103	22.762	982.733	773.368
109.118	22.339	981.911	770.801
110.133	22.412	979.881	769.459
111.147	22.268	979.005	768.073
112.162	22.557	978.329	768.734
113.176	22.633	977.695	768.499
114.191	22.767	976.420	768.012
115.206	22.441	976.087	766.267
116.220	22.119	975.484	764.322
117.235	22.523	974.113	764.936
118.249	22.492	973.698	764.409
119.264	22.169	972.599	762.079
120.279	22.144	971.580	761.103
121.293	22.118	970.668	760.210
122.308	21.964	970.728	759.522
123.322	21.910	967.743	756.886
124.337	21.653	967.544	755.557
125.352	21.956	966.210	755.753
126.366	21.867	965.813	754.990
127.381	22.319	965.248	756.428
128.395	22.420	965.104	756.681
129.410	22.337	964.173	755.530
130.424	22.460	963.116	755.160
131.439	22.817	961.907	755.676
132.454	22.456	962.562	754.575
133.468	22.796	960.315	754.199
134.483	22.861	959.909	754.093
135.497	22.743	960.257	753.793
136.512	22.831	958.670	752.857
137.527	22.577	958.294	751.412
138.541	22.780	957.018	751.210
139.556	22.759	956.877	750.945
140.570	23.149	955.744	751.644
141.585	23.369	955.251	752.126
142.600	23.414	954.938	752.001
143.614	23.792	952.984	751.996
144.629	23.962	952.504	752.273
145.643	23.402	950.934	748.602
146.658	23.240	949.724	746.897
147.673	23.386	949.182	747.020
148.687	23.063	947.841	744.540
149.702	23.068	946.624	743.540
150.716	22.798	945.776	741.675
151.731	23.320	944.563	742.847
152.746	23.057	945.270	742.234
153.760	23.457	943.556	742.497
154.775	23.117	943.943	741.310
155.789	23.870	942.746	743.454
156.804	23.219	942.046	740.116
157.819	23.468	941.758	740.864
158.833	23.487	941.225	740.460
159.848	24.053	939.888	741.703
160.862	23.777	938.261	739.204
161.877	23.211	938.379	736.877
162.892	22.592	938.730	734.506
163.906	22.640	936.379	732.804
164.921	22.700	934.947	731.866
165.935	22.931	935.139	732.912
166.950	23.233	933.517	732.826
167.964	23.426	931.518	731.989
168.979	22.882	931.552	729.703
169.994	22.905	931.287	729.525
171.008	23.203	930.579	730.134
172.023	23.493	930.045	730.848
173.037	23.453	930.429	730.918
174.052	23.464	927.953	728.955
175.067	22.981	927.220	726.330
176.081	22.952	925.784	725.021
177.096	22.273	926.409	722.657
178.110	22.472	925.124	722.409
179.125	22.367	924.793	721.658
180.140	22.574	924.977	722.586
181.154	22.904	924.840	723.765
182.169	23.258	924.292	724.723
183.183	23.511	923.305	724.917
184.198	23.341	922.427	723.471
185.213	23.486	921.484	723.259
186.227	23.683	920.691	723.376
187.242	23.436	920.605	722.238
188.256	23.754	920.039	723.023
189.271	23.440	920.233	721.836
190.286	23.094	918.321	718.863
191.300	22.492	916.961	715.290
192.315	22.424	916.299	714.436
193.329	22.071	916.405	713.021
194.344	22.761	915.160	714.786
195.359	22.792	915.129	714.824
196.373	23.415	914.276	716.616
197.388	23.558	914.423	717.247
198.402	23.746	914.553	718.042
199.417	23.789	914.266	717.927
200.432	23.991	913.259	717.890
201.446	23.788	913.109	716.890
202.461	24.050	912.616	717.496
203.475	23.699	911.867	715.429
204.490	23.327	910.212	712.570
205.504	23.509	909.156	712.411
206.519	23.596	908.351	712.068
207.534	23.599	907.834	711.613
208.548	23.161	908.239	710.107
209.563	23.405	906.412	709.592
210.577	23.452	905.773	709.220
211.592	23.447	906.838	709.969
212.607	23.920	905.454	710.713
213.621	23.690	904.907	709.303
214.636	23.687	903.921	708.458
215.650	23.503	903.231	707.118
216.665	23.690	902.462	707.200
217.680	23.926	902.333	707.975
218.694	23.843	900.964	706.508
219.709	23.796	900.078	705.565
220.723	23.263	900.792	703.945
221.738	23.253	898.558	702.096
222.753	23.387	898.733	702.700
223.767	23.449	898.005	702.315
224.782	23.604	898.396	703.175
225.796	24.058	897.416	704.142
226.811	23.797	896.410	702.258
227.826	23.214	895.851	699.456
228.840	23.303	894.962	699.051
229.855	23.247	894.026	698.036
230.869	23.059	893.968	697.186
231.884	23.050	892.922	696.274
232.899	23.143	891.971	695.838
233.913	23.163	890.860	694.986
234.928	22.748	891.622	693.888
235.942	22.787	890.293	692.946
236.957	22.878	890.065	693.064
237.972	22.692	889.994	692.217
238.986	22.773	888.260	691.125
240.001	22.850	887.908	691.094
241.015	22.711	888.152	690.677
242.030	22.901	886.869	690.360
243.045	23.507	886.181	692.130
244.059	22.985	886.597	690.357
245.074	23.558	884.507	690.899
246.088	23.461	884.572	690.509
247.103	23.641	884.782	691.313
248.117	23.886	885.423	692.710
249.132	24.375	883.891	693.352
250.147	24.820	884.018	695.119
251.161	24.685	883.383	694.032
252.176	24.825	883.412	694.539
253.190	24.578	882.345	692.679
254.205	24.726	882.275	693.136
255.220	24.335	881.558	690.999
256.234	24.321	880.819	690.304
257.249	24.299	879.716	689.293
258.263	24.388	878.605	688.706
259.278	24.122	879.135	688.033
260.293	24.388	877.552	687.758
261.307	24.474	877.929	688.323
262.322	24.464	877.117	687.587
263.336	24.583	875.713	686.886
264.351	24.449	875.209	685.915
265.366	24.225	874.978	684.810
266.380	24.392	874.586	685.084
267.395	24.487	873.885	684.840
268.409	24.066	872.738	682.268
269.424	24.772	871.135	683.654
270.439	24.155	870.971	681.105
271.453	24.113	870.341	680.393
272.468	23.897	870.577	679.691
273.482	24.643	868.715	681.020
274.497	24.222	868.859	679.468
275.512	24.030	868.239	678.192
276.526	24.006	868.302	678.088
277.541	24.309	867.466	678.529
278.555	24.705	866.954	679.577
279.570	24.999	865.844	679.761
280.585	24.680	865.884	678.520
281.599	24.382	865.114	676.728
282.614	24.197	863.115	674.402
283.628	24.059	862.667	673.472
284.643	23.999	863.458	673.804
285.657	24.063	862.277	673.062
286.672	24.109	861.388	672.483
287.687	24.419	861.680	673.824
288.701	24.333	861.277	673.124
289.716	24.142	860.564	671.787
290.730	24.145	860.533	671.715
291.745	24.356	859.395	671.562
292.760	24.341	858.564	670.796
293.774	24.805	858.911	672.753
294.789	24.570	857.909	671.028
295.803	24.730	856.828	670.721
296.818	24.318	855.808	668.318
297.833	24.236	855.433	667.661
298.847	24.134	854.872	666.783
299.862	24.504	854.285	667.650
300.876	24.346	854.516	667.180
301.891	24.795	854.236	668.578
302.906	24.721	853.821	667.921
303.920	24.991	852.642	667.943
304.935	25.006	852.834	668.094
305.949	25.197	850.811	667.159
306.964	24.836	850.542	665.548
307.979	24.543	850.233	664.158
308.993	24.561	850.853	664.650
310.008	24.862	850.278	665.261
311.022	24.864	848.318	663.676
312.037	24.320	848.620	661.832
313.052	24.467	846.355	660.553
314.066	24.235	845.044	658.616
315.081	23.876	844.879	657.102
316.095	24.375	844.709	658.754
317.110	24.065	845.118	657.869
318.125	23.630	844.525	655.741
319.139	23.295	843.747	653.842
320.154	23.676	843.035	654.638
321.168	24.320	841.649	655.875
322.183	24.313	841.538	655.703
323.197	24.119	841.656	655.025
324.212	24.090	841.416	654.674
325.227	23.828	841.066	653.379
326.241	23.660	840.315	652.123
327.256	23.846	839.898	652.423
328.270	24.042	837.699	651.374
329.285	23.718	836.939	649.542
330.300	23.904	836.461	649.794
331.314	23.640	837.542	649.608
332.329	24.055	837.618	651.130
333.343	24.897	836.032	652.910
334.358	24.511	835.725	651.206
335.373	24.404	836.021	650.987
336.387	24.605	835.455	651.221
337.402	24.672	835.210	651.219
338.416	25.175	834.603	652.518
339.431	25.279	835.203	653.308
340.446	25.256	835.822	653.652
341.460	25.049	834.569	651.861
342.475	25.350	833.767	652.270
343.489	25.340	833.224	651.752
344.504	25.536	833.198	652.385
345.519	25.794	831.693	652.082
346.533	25.361	832.760	651.291
347.548	24.975	831.201	648.617
348.562	25.140	829.868	648.116
349.577	24.865	830.119	647.258
350.592	24.590	829.340	645.601
351.606	24.687	828.266	645.059
352.621	24.609	828.340	644.778
353.635	24.396	827.262	643.114
354.650	25.240	826.104	645.194
355.665	24.642	825.994	642.900
356.679	24.863	826.287	643.866
357.694	25.106	824.733	643.471
358.708	24.486	824.466	640.980
359.723	24.700	823.899	641.250
360.738	24.292	822.910	638.962
361.752	25.105	822.324	641.358
362.767	25.283	822.203	641.846
363.781	25.793	821.849	643.336
364.796	25.301	822.737	642.213
365.810	25.447	821.538	641.742
366.825	25.597	820.482	641.394
367.840	25.329	819.913	639.936
368.854	25.348	819.197	639.390
369.869	24.947	818.758	637.564
370.883	24.882	818.765	637.280
371.898	25.330	817.600	637.911
372.913	25.261	818.436	638.259
373.927	25.001	817.514	636.559
374.942	25.049	816.228	635.674
375.956	25.291	816.195	636.449
376.971	25.242	816.162	636.194
377.986	25.626	816.153	637.491
379.000	25.641	815.403	636.901
380.015	25.823	814.618	636.876
381.029	25.631	813.770	635.481
382.044	25.837	813.670	636.071
383.059	25.378	813.339	634.136
384.073	25.471	812.329	633.621
385.088	25.047	811.613	631.512
386.102	25.149	810.130	630.663
387.117	24.932	809.757	629.554
388.132	25.014	808.661	628.934
389.146	25.002	808.927	629.044
390.161	25.346	808.997	630.248
391.175	25.448	808.412	630.096
392.190	25.471	806.597	628.707
393.205	25.118	806.409	627.267
394.219	24.612	805.897	625.046
395.234	24.404	806.371	624.629
396.248	24.766	805.826	625.418
397.263	24.680	805.757	625.007
398.278	24.683	804.554	624.030
399.292	24.568	803.837	623.017
400.307	24.563	803.283	622.517
401.321	24.654	802.767	622.378
402.336	24.811	802.534	622.688
403.350	25.414	801.981	624.300
404.365	25.456	802.773	625.009
405.380	25.653	802.901	625.737
406.394	26.204	802.237	627.078
407.409	26.031	801.885	626.146
408.423	26.317	800.815	626.248
409.438	26.266	800.916	626.094
410.453	25.971	799.819	624.162
411.467	25.887	799.280	623.393
412.482	26.066	799.177	623.876
413.496	25.827	800.168	623.770
414.511	25.865	799.583	623.390
415.526	25.864	798.508	622.493
416.540	26.038	797.476	622.232
417.555	25.735	797.057	620.806
418.569	26.114	796.503	621.625
419.584	25.952	796.975	621.381
420.599	25.829	795.987	620.133
421.613	161.837	1370.410	1793.762
422.628	140.385	1454.123	1793.812
