DTS Sentinel unit serial number:	SN413079Multiplexer serial number:	ORYXHardware model number:	OX4-SRSoftware version number:	ORYX F/W v4.00 Oryx Data Collector v3.7.2.0data status	okinstallation	princeton_trtdifferential loss correction	single-endedforward channel	channel 1reverse channel	N/Adate	2019/09/12time	21:22:35forward acquisition time	60.00reverse acquisition time	0.00gamma	496.2192k internal	0.2326k external	0.2326temperature offset calibration	1.0141default loss term (dB/km)	0.3790temperature slope calibration	1.0000multiplexer offset coefficient	1.0000multiplexer slope coefficient	1.0000fibre end	0.00T internal ref (°C)	30.56T ext. ref 1 (°C)	3.62T ext. ref 2 (°C)	25.21length (m)	temperature (°C)	Stokes	anti-Stokes-747.200	800.000	-0.076	0.315
-746.185	-200.000	-0.054	0.321
-745.171	-87.390	0.492	-0.151
-744.156	-43.830	-0.383	0.194
-743.142	61.907	0.064	-0.065
-742.127	198.614	-0.218	0.336
-741.112	55.397	-0.140	-0.137
-740.098	288.097	0.085	0.156
-739.083	475.806	-0.141	-0.322
-738.069	-158.913	0.102	-0.006
-737.054	800.000	-0.244	0.694
-736.039	-79.281	0.107	0.037
-735.025	29.474	0.162	0.139
-734.010	124.887	-0.265	0.337
-732.996	27.521	-0.103	-0.088
-731.981	800.000	-0.034	0.108
-730.966	194.109	-0.122	-0.186
-729.952	259.623	-0.077	-0.134
-728.937	25.001	-0.301	-0.252
-727.923	800.000	0.084	-0.318
-726.908	-10.422	-0.037	0.025
-725.894	516.941	-0.142	0.334
-724.879	36.019	-0.307	-0.273
-723.864	13.310	-0.188	0.147
-722.850	800.000	-0.080	0.268
-721.835	-10.495	0.123	-0.082
-720.821	800.000	0.164	-0.488
-719.806	285.918	0.164	0.298
-718.791	120.256	-0.126	-0.157
-717.777	-5.340	-0.060	0.041
-716.762	49.297	-0.206	0.196
-715.748	-200.000	0.039	-0.317
-714.733	-200.000	-0.074	0.330
-713.718	-128.406	-0.145	0.021
-712.704	454.986	-0.118	-0.264
-711.689	800.000	0.091	0.399
-710.675	-114.360	-0.318	-0.062
-709.660	21.042	0.376	-0.307
-708.645	169.764	0.048	0.068
-707.631	-200.000	-0.046	-0.352
-706.616	-48.428	0.446	-0.216
-705.602	-3.959	0.206	0.144
-704.587	-148.494	0.110	0.009
-703.572	-180.259	0.467	-0.010
-702.558	-200.000	-0.033	-0.150
-701.543	800.000	0.087	-0.348
-700.529	-82.039	-0.170	-0.056
-699.514	48.884	0.137	0.130
-698.499	-200.000	-0.029	0.304
-697.485	351.630	-0.192	0.382
-696.470	800.000	-0.048	-0.163
-695.456	141.870	0.152	-0.202
-694.441	446.838	-0.182	0.403
-693.426	-57.804	-0.214	0.094
-692.412	800.000	-0.019	-0.062
-691.397	-200.000	-0.033	-0.225
-690.383	-200.000	0.007	-0.088
-689.368	-200.000	-0.114	0.000
-688.354	101.306	-0.078	-0.091
-687.339	800.000	0.083	-0.306
-686.324	-40.725	-0.259	-0.135
-685.310	800.000	0.096	-0.277
-684.295	31.220	-0.101	-0.087
-683.281	-50.725	-0.257	-0.122
-682.266	-200.000	-0.021	0.180
-681.251	-200.000	0.023	0.241
-680.237	-200.000	0.024	0.234
-679.222	800.000	0.024	-0.101
-678.208	283.893	-0.092	-0.166
-677.193	424.780	0.039	-0.084
-676.178	371.958	-0.050	0.103
-675.164	-200.000	0.037	-0.205
-674.149	-200.000	0.006	-0.074
-673.135	-200.000	-0.003	-0.222
-672.120	116.964	0.077	-0.095
-671.105	-164.584	-0.236	-0.011
-670.091	3.401	0.081	0.059
-669.076	592.016	-0.040	0.098
-668.062	-56.235	-0.194	0.087
-667.047	62.603	-0.356	0.358
-666.032	-55.948	-0.195	-0.087
-665.018	-56.951	-0.048	0.021
-664.003	800.000	-0.072	0.219
-662.989	-149.591	-0.270	0.021
-661.974	-13.643	-0.216	0.141
-660.959	-42.832	0.299	0.153
-659.945	-19.471	0.348	0.217
-658.930	-200.000	-0.026	-0.217
-657.916	34.205	0.003	0.002
-656.901	800.000	-0.052	0.174
-655.886	-85.424	-0.176	-0.055
-654.872	800.000	-0.026	-0.101
-653.857	-17.284	0.229	-0.145
-652.843	100.709	-0.247	0.288
-651.828	-3.790	0.141	0.099
-650.814	-142.004	0.232	0.023
-649.799	-136.224	-0.371	0.044
-648.784	116.871	0.055	-0.067
-647.770	418.602	0.015	-0.031
-646.755	243.214	0.130	0.219
-645.741	-200.000	-0.004	-0.159
-644.726	121.858	0.075	-0.095
-643.711	-46.700	0.150	-0.074
-642.697	-57.320	-0.353	-0.156
-641.682	236.215	0.171	0.284
-640.668	-24.088	-0.055	0.033
-639.653	-200.000	0.006	0.050
-638.638	-12.330	0.346	0.228
-637.624	-178.483	-0.208	-0.005
-636.609	50.095	-0.148	-0.141
-635.595	-67.887	-0.226	-0.089
-634.580	92.758	0.195	-0.221
-633.565	-200.000	0.032	0.281
-632.551	4.283	-0.120	-0.088
-631.536	63.434	-0.084	-0.085
-630.522	533.208	-0.200	-0.475
-629.507	121.334	0.072	-0.090
-628.492	800.000	0.069	-0.196
-627.478	-37.509	-0.471	-0.252
-626.463	139.264	-0.170	-0.224
-625.449	-21.863	0.297	-0.181
-624.434	-200.000	-0.004	-0.093
-623.419	-197.043	0.175	-0.001
-622.405	96.942	0.136	-0.156
-621.390	-76.186	0.203	-0.072
-620.376	-121.143	0.160	-0.027
-619.361	-200.000	0.020	0.098
-618.346	-200.000	-0.014	0.246
-617.332	450.930	-0.021	0.046
-616.317	-200.000	0.081	-0.383
-615.303	560.681	-0.112	-0.271
-614.288	-107.358	-0.212	0.047
-613.273	223.868	-0.117	-0.190
-612.259	-200.000	-0.072	0.366
-611.244	-58.695	-0.070	-0.030
-610.230	332.308	-0.182	-0.353
-609.215	-58.450	-0.348	-0.152
-608.201	-143.569	-0.270	0.026
-607.186	316.485	0.104	0.197
-606.171	558.307	0.113	-0.274
-605.157	199.982	0.041	0.063
-604.142	-200.000	-0.002	0.157
-603.128	106.454	-0.155	-0.185
-602.113	-149.103	0.065	-0.005
-601.098	-5.625	0.236	-0.162
-600.084	221.507	0.137	0.220
-599.069	225.363	-0.147	0.238
-598.055	-200.000	-0.010	-0.128
-597.040	387.157	0.064	0.133
-596.025	-44.277	-0.217	0.109
-595.011	506.431	0.026	-0.061
-593.996	800.000	-0.095	0.269
-592.982	-78.018	0.231	0.080
-591.967	-200.000	-0.011	0.153
-590.952	-200.000	-0.003	0.339
-589.938	-80.135	0.174	0.059
-588.923	-147.925	0.161	-0.013
-587.909	-200.000	0.022	-0.150
-586.894	27.265	-0.138	0.116
-585.879	-200.000	0.001	-0.095
-584.865	-14.691	-0.204	-0.132
-583.850	62.166	0.125	-0.125
-582.836	6.242	-0.187	-0.139
-581.821	143.323	0.026	0.034
-580.806	-200.000	0.006	0.071
-579.792	800.000	0.104	-0.288
-578.777	150.705	0.132	-0.180
-577.763	-110.584	-0.440	0.091
-576.748	800.000	-0.009	0.028
-575.733	181.718	0.163	0.241
-574.719	-97.252	0.022	0.006
-573.704	291.780	0.039	0.072
-572.690	-37.901	-0.396	-0.211
-571.675	154.508	-0.029	-0.040
-570.661	-200.000	-0.052	0.000
-569.646	68.372	-0.173	-0.178
-568.631	-190.959	0.066	-0.001
-567.617	-124.176	0.157	-0.025
-566.602	-59.577	-0.151	0.065
-565.588	-97.142	0.057	-0.015
-564.573	-83.376	0.327	0.105
-563.558	-109.073	0.244	-0.052
-562.544	-142.621	0.171	-0.017
-561.529	-104.828	-0.038	0.009
-560.515	-63.934	0.262	-0.107
-559.500	-200.000	0.047	-0.217
-558.485	-125.768	-0.020	-0.003
-557.471	24.175	-0.341	0.282
-556.456	-200.000	-0.025	0.177
-555.442	-200.000	-0.071	0.324
-554.427	-169.786	-0.336	-0.012
-553.412	309.572	0.078	-0.147
-552.398	-13.944	0.341	0.221
-551.383	40.015	-0.231	-0.208
-550.369	-35.485	-0.234	-0.127
-549.354	36.545	-0.195	-0.172
-548.339	286.627	0.193	-0.348
-547.325	-55.009	-0.212	0.096
-546.310	56.058	0.167	0.162
-545.296	-145.409	0.045	-0.004
-544.281	-200.000	0.009	-0.231
-543.266	86.095	0.300	0.331
-542.252	-107.096	0.122	-0.027
-541.237	42.931	-0.334	0.305
-540.223	-200.000	0.000	-0.048
-539.208	-92.632	-0.273	0.076
-538.193	13.714	-0.089	0.069
-537.179	67.199	-0.289	0.294
-536.164	-200.000	0.003	0.059
-535.150	-192.100	0.223	-0.002
-534.135	800.000	0.053	-0.184
-533.121	800.000	-0.068	0.200
-532.106	-95.333	-0.389	0.105
-531.091	-178.788	-0.166	0.004
-530.077	-200.000	-0.043	0.281
-529.062	545.233	-0.096	-0.229
-528.048	-157.228	0.079	0.005
-527.033	211.500	-0.183	0.288
-526.018	308.152	0.174	-0.325
-525.004	-110.126	0.232	-0.048
-523.989	72.672	0.137	-0.143
-522.975	245.427	0.238	-0.400
-521.960	-200.000	-0.013	-0.228
-520.945	-123.827	0.073	-0.011
-519.931	278.611	-0.097	0.172
-518.916	138.364	0.068	-0.090
-517.902	-83.513	-0.394	0.126
-516.887	-63.150	0.128	-0.053
-515.872	800.000	-0.102	0.302
-514.858	-200.000	0.043	0.276
-513.843	-181.616	-0.110	0.002
-512.829	159.602	0.166	0.230
-511.814	107.276	-0.130	0.154
-510.799	-200.000	0.037	-0.288
-509.785	-200.000	-0.062	-0.438
-508.770	-200.000	0.008	-0.485
-507.756	-200.000	0.051	0.358
-506.741	181.844	0.082	0.120
-505.726	179.271	-0.135	-0.198
-504.712	12.010	0.291	-0.224
-503.697	-35.292	0.179	0.097
-502.683	800.000	-0.100	-0.374
-501.668	-67.372	0.021	0.008
-500.653	604.606	0.086	-0.215
-499.639	213.194	-0.216	-0.341
-498.624	379.253	-0.064	0.131
-497.610	-9.596	-0.146	0.097
-496.595	89.740	0.026	0.029
-495.581	800.000	-0.025	0.105
-494.566	-152.616	-0.099	-0.007
-493.551	-42.862	-0.144	0.073
-492.537	-200.000	-0.001	0.208
-491.522	5.324	0.132	-0.097
-490.508	75.282	0.086	-0.091
-489.493	161.138	0.147	-0.206
-488.478	16.314	0.099	-0.078
-487.464	-167.145	-0.515	-0.021
-486.449	800.000	-0.130	-0.485
-485.435	-136.717	-0.322	-0.037
-484.420	577.422	-0.050	0.123
-483.405	-53.184	0.389	-0.178
-482.391	425.997	0.114	-0.246
-481.376	-38.950	-0.284	0.149
-480.362	59.691	0.119	-0.117
-479.347	-42.671	-0.095	0.048
-478.332	147.381	-0.087	-0.117
-477.318	-7.950	-0.365	-0.246
-476.303	-20.014	0.037	0.023
-475.289	-200.000	0.029	0.324
-474.274	-8.465	-0.247	-0.166
-473.259	563.292	0.054	-0.131
-472.245	95.178	-0.112	0.127
-471.230	-200.000	0.024	0.321
-470.216	-14.443	0.232	-0.149
-469.201	-92.489	-0.254	-0.071
-468.186	800.000	0.042	0.174
-467.172	304.943	0.127	0.235
-466.157	800.000	-0.081	-0.253
-465.143	-172.991	0.305	0.009
-464.128	-200.000	-0.043	0.240
-463.113	-200.000	0.030	-0.206
-462.099	135.074	-0.073	0.095
-461.084	-200.000	0.001	0.035
-460.070	-17.553	0.098	0.062
-459.055	-48.620	-0.392	0.188
-458.040	800.000	0.072	-0.211
-457.026	-200.000	0.010	0.107
-456.011	335.141	-0.173	0.334
-454.997	-17.228	0.223	0.140
-453.982	-149.197	0.350	-0.028
-452.968	379.814	-0.036	-0.074
-451.953	-14.931	0.223	-0.143
-450.938	-145.590	0.142	0.013
-449.924	-169.289	-0.163	-0.006
-448.909	-26.417	-0.051	-0.030
-447.895	-200.000	0.032	-0.244
-446.880	1.800	0.245	-0.176
-445.865	-63.895	-0.070	-0.029
-444.851	2.703	0.099	-0.072
-443.836	-151.212	-0.226	0.017
-442.822	126.385	-0.216	-0.272
-441.807	-167.346	0.187	-0.007
-440.792	791.671	-0.101	0.276
-439.778	7.053	-0.257	-0.191
-438.763	-47.662	-0.249	-0.120
-437.749	97.813	0.186	0.213
-436.734	337.584	-0.092	0.178
-435.719	-200.000	-0.032	0.145
-434.705	-200.000	-0.168	0.000
-433.690	217.111	0.060	0.095
-432.676	-82.402	0.195	-0.063
-431.661	-106.614	-0.152	-0.034
-430.646	800.000	0.084	0.260
-429.632	28.044	0.074	0.063
-428.617	348.915	0.062	-0.123
-427.603	-118.208	-0.154	-0.027
-426.588	25.492	0.097	-0.080
-425.573	-114.923	-0.247	-0.047
-424.559	-127.484	-0.137	0.020
-423.544	138.511	0.070	-0.092
-422.530	-100.972	0.100	-0.024
-421.515	-97.051	0.162	0.042
-420.500	-200.000	0.002	-0.345
-419.486	15.897	0.180	0.141
-418.471	-138.868	0.232	0.025
-417.457	60.146	0.144	0.142
-416.442	-99.055	-0.078	0.020
-415.428	-200.000	-0.023	-0.191
-414.413	51.379	-0.215	-0.203
-413.398	-181.486	-0.080	0.002
-412.384	-56.730	0.167	-0.074
-411.369	-45.821	-0.264	-0.130
-410.355	-142.068	-0.176	-0.017
-409.340	-77.754	0.439	0.151
-408.325	-43.452	-0.135	0.068
-407.311	-165.481	0.370	-0.016
-406.296	800.000	0.086	-0.282
-405.282	-106.681	-0.106	-0.023
-404.267	-27.084	0.092	0.054
-403.252	-200.000	0.016	0.339
-402.238	-137.089	-0.319	0.036
-401.223	59.342	0.151	0.148
-400.209	76.156	0.293	-0.308
-399.194	-37.305	0.024	-0.013
-398.179	-131.595	0.252	-0.033
-397.165	-182.094	-0.114	-0.002
-396.150	-144.063	-0.158	0.015
-395.136	322.980	-0.095	-0.180
-394.121	514.599	-0.092	0.214
-393.106	800.000	0.103	0.301
-392.092	800.000	-0.083	0.237
-391.077	-200.000	0.015	-0.148
-390.063	-23.813	-0.116	0.069
-389.048	-150.469	-0.122	0.009
-388.033	-118.743	0.368	-0.064
-387.019	-200.000	0.024	0.185
-386.004	14.787	-0.142	-0.110
-384.990	800.000	-0.031	0.128
-383.975	800.000	-0.071	0.232
-382.960	103.308	-0.132	0.154
-381.946	800.000	0.047	0.197
-380.931	-52.998	0.304	0.139
-379.917	800.000	-0.033	0.103
-378.902	240.307	0.115	-0.191
-377.888	128.953	0.112	-0.143
-376.873	800.000	-0.017	-0.053
-375.858	240.603	-0.044	-0.072
-374.844	-166.775	0.407	0.017
-373.829	-149.907	0.218	0.017
-372.815	-136.146	0.153	-0.018
-371.800	42.125	0.352	0.318
-370.785	753.341	0.117	0.313
-369.771	-22.330	-0.089	-0.054
-368.756	66.369	0.166	0.168
-367.742	-200.000	0.059	0.342
-366.727	-108.074	0.110	-0.024
-365.712	-20.562	-0.373	-0.228
-364.698	-32.020	0.202	0.112
-363.683	800.000	-0.067	-0.215
-362.669	-200.000	0.000	0.012
-361.654	135.042	0.129	0.167
-360.639	-17.686	0.113	0.071
-359.625	457.168	0.088	-0.194
-358.610	122.575	0.143	0.177
-357.596	-56.088	-0.156	-0.069
-356.581	-105.702	-0.304	-0.068
-355.566	313.615	-0.079	-0.148
-354.552	-1.201	-0.050	0.035
-353.537	-200.000	0.025	0.169
-352.523	800.000	-0.083	0.232
-351.508	800.000	-0.132	0.406
-350.493	422.762	0.048	-0.103
-349.479	-200.000	-0.039	-0.194
-348.464	-142.053	-0.122	-0.012
-347.450	144.821	0.101	0.133
-346.435	75.194	0.246	0.258
-345.420	476.829	-0.141	-0.318
-344.406	-133.303	0.078	0.010
-343.391	-77.417	0.244	-0.084
-342.377	393.279	-0.057	-0.119
-341.362	134.600	0.162	-0.209
-340.348	-200.000	-0.004	-0.381
-339.333	-44.622	0.096	-0.047
-338.318	-141.711	-0.222	-0.022
-337.304	800.000	0.050	0.153
-336.289	-200.000	0.020	-0.094
-335.275	-96.565	-0.332	0.087
-334.260	306.200	-0.090	-0.167
-333.245	-124.220	0.117	-0.018
-332.231	800.000	0.029	-0.092
-331.216	11.697	-0.241	0.184
-330.202	-48.713	0.189	-0.090
-329.187	-200.000	-0.028	-0.210
-328.172	795.929	0.024	-0.064
-327.158	98.528	-0.064	-0.073
-326.143	21.999	0.065	0.053
-325.129	-200.000	-0.041	0.204
-324.114	-103.839	0.159	0.037
-323.099	64.276	0.157	0.157
-322.085	-200.000	0.012	-0.080
-321.070	800.000	0.055	-0.181
-320.056	-162.653	-0.014	-0.001
-319.041	119.447	-0.010	-0.012
-318.026	-63.357	0.331	0.135
-317.012	-129.694	0.335	-0.046
-315.997	-50.448	-0.092	-0.043
-314.983	302.033	0.020	0.037
-313.968	353.197	-0.048	-0.094
-312.953	23.596	-0.148	0.121
-311.939	800.000	-0.066	0.250
-310.924	22.521	0.185	0.150
-309.910	-139.628	-0.110	-0.012
-308.895	-200.000	-0.025	-0.250
-307.880	800.000	0.070	0.197
-306.866	-84.400	-0.078	-0.025
-305.851	-200.000	-0.011	0.200
-304.837	-157.508	0.264	-0.016
-303.822	52.892	0.123	0.117
-302.807	-200.000	-0.011	-0.143
-301.793	-200.000	-0.009	-0.264
-300.778	-200.000	0.021	-0.132
-299.764	558.119	-0.139	-0.332
-298.749	-200.000	-0.031	0.202
-297.735	-200.000	-0.012	0.148
-296.720	121.965	0.167	0.207
-295.705	800.000	-0.030	-0.128
-294.691	257.018	0.111	0.189
-293.676	-117.803	-0.240	-0.043
-292.662	-172.763	0.059	0.002
-291.647	36.019	-0.135	-0.117
-290.632	111.265	-0.072	0.086
-289.618	-200.000	0.001	0.316
-288.603	-65.918	0.113	0.045
-287.589	-97.309	-0.020	-0.005
-286.574	-27.356	-0.307	-0.177
-285.559	134.722	-0.055	-0.070
-284.545	800.000	-0.002	0.006
-283.530	73.239	-0.235	-0.243
-282.516	412.324	-0.140	-0.295
-281.501	-200.000	0.014	-0.074
-280.486	800.000	0.075	0.315
-279.472	110.492	0.055	0.066
-278.457	-46.188	0.070	0.034
-277.443	-91.961	-0.089	-0.025
-276.428	317.252	0.111	0.208
-275.413	-143.065	0.123	-0.012
-274.399	6.981	-0.349	-0.258
-273.384	159.674	-0.133	-0.183
-272.370	55.223	-0.122	0.117
-271.355	20.484	0.316	-0.253
-270.340	-200.000	-0.017	-0.520
-269.326	-8.263	-0.196	0.131
-268.311	58.020	0.312	0.302
-267.297	-23.633	-0.258	-0.153
-266.282	-2.905	0.183	0.127
-265.267	-76.232	-0.348	0.121
-264.253	800.000	-0.063	0.223
-263.238	36.958	-0.171	0.150
-262.224	362.953	0.057	0.113
-261.209	-96.312	-0.093	-0.024
-260.195	204.645	-0.079	0.121
-259.180	18.199	0.406	0.320
-258.165	-111.883	-0.293	-0.059
-257.151	88.701	0.200	0.220
-256.136	-191.985	-0.242	-0.002
-255.122	-200.000	-0.029	0.199
-254.107	-122.320	-0.065	0.010
-253.092	800.000	0.033	-0.140
-252.078	800.000	0.012	-0.048
-251.063	-191.083	0.138	0.001
-250.049	-143.257	0.096	0.009
-249.034	-71.074	0.184	0.069
-248.019	-200.000	-0.027	0.310
-247.005	-58.188	-0.114	0.049
-245.990	-77.354	0.159	-0.055
-244.976	64.934	-0.226	-0.225
-243.961	250.878	-0.138	-0.233
-242.946	-119.050	0.269	-0.047
-241.932	207.837	-0.035	0.055
-240.917	800.000	0.050	-0.164
-239.903	16.049	-0.153	-0.119
-238.888	100.416	-0.236	0.271
-237.873	74.941	0.193	0.201
-236.859	-104.584	-0.410	0.094
-235.844	-82.503	0.236	0.076
-234.830	71.947	-0.385	-0.396
-233.815	-97.848	0.331	0.085
-232.800	800.000	0.134	0.423
-231.786	-200.000	-0.039	0.358
-230.771	-200.000	-0.007	0.075
-229.757	-9.880	0.122	-0.080
-228.742	-142.816	0.443	-0.043
-227.727	-200.000	0.009	0.153
-226.713	800.000	0.093	0.315
-225.698	1.804	-0.172	-0.122
-224.684	-50.008	0.046	-0.022
-223.669	-14.253	0.255	0.162
-222.655	258.161	-0.037	0.064
-221.640	52.058	-0.098	-0.093
-220.625	-58.026	-0.088	-0.038
-219.611	797.238	0.037	-0.102
-218.596	800.000	-0.073	-0.227
-217.582	-50.338	-0.262	-0.122
-216.567	-200.000	0.056	-0.243
-215.552	371.240	0.083	0.166
-214.538	176.849	0.028	0.040
-213.523	210.080	-0.106	-0.165
-212.509	-52.227	-0.302	0.138
-211.494	-48.703	-0.209	-0.099
-210.479	680.317	-0.149	-0.384
-209.465	800.000	-0.032	0.132
-208.450	250.207	0.038	0.064
-207.436	103.998	0.072	-0.084
-206.421	-200.000	0.026	-0.180
-205.406	800.000	0.062	0.251
-204.392	800.000	-0.041	-0.166
-203.377	-32.822	0.303	-0.167
-202.363	-200.000	0.022	-0.107
-201.348	-49.568	0.211	0.099
-200.333	-66.770	0.181	0.071
-199.319	176.704	-0.113	0.162
-198.304	-200.000	-0.049	-0.400
-197.290	98.887	0.280	-0.320
-196.275	70.572	-0.205	0.209
-195.260	7.216	0.417	0.307
-194.246	-29.123	0.030	0.017
-193.231	-200.000	-0.075	0.532
-192.217	763.225	-0.118	0.316
-191.202	490.816	-0.118	0.267
-190.187	37.322	-0.317	0.277
-189.173	10.190	0.226	0.170
-188.158	70.290	0.136	0.139
-187.144	-33.491	0.095	-0.052
-186.129	87.234	-0.168	0.183
-185.114	-200.000	-0.037	0.277
-184.100	-122.956	0.226	0.036
-183.085	72.239	-0.258	-0.265
-182.071	152.092	-0.063	0.084
-181.056	-200.000	0.013	0.277
-180.042	-200.000	-0.035	0.233
-179.027	148.725	0.037	-0.049
-178.012	261.961	0.130	0.222
-176.998	149.518	0.036	0.048
-175.983	-200.000	0.000	0.216
-174.969	-200.000	-0.078	-0.525
-173.954	-15.384	-0.090	0.057
-172.939	271.162	0.161	-0.280
-171.925	-50.699	-0.209	0.097
-170.910	128.924	0.174	0.219
-169.896	-134.076	-0.184	-0.022
-168.881	672.761	0.016	0.040
-167.866	-152.195	-0.192	-0.014
-166.852	800.000	0.127	-0.436
-165.837	104.400	0.197	-0.228
-164.823	-200.000	-0.009	-0.223
-163.808	-39.406	-0.102	-0.053
-162.793	-142.594	-0.065	0.006
-161.779	-49.336	0.313	0.147
-160.764	117.637	0.117	0.142
-159.750	800.000	0.081	0.224
-158.735	-200.000	0.002	0.078
-157.720	-88.138	0.090	0.027
-156.706	205.193	0.063	-0.096
-155.691	-147.818	0.303	-0.025
-154.677	408.659	0.250	-0.522
-153.662	273.802	-0.075	-0.131
-152.647	-71.082	0.187	-0.069
-151.633	-45.931	0.019	0.009
-150.618	-78.675	-0.023	0.008
-149.604	-38.639	0.224	0.117
-148.589	-130.380	-0.197	0.026
-147.574	-6.797	0.134	-0.090
-146.560	457.587	0.087	0.191
-145.545	109.622	0.162	0.191
-144.531	-60.188	0.343	0.144
-143.516	-200.000	-0.018	0.220
-142.502	71.110	0.132	0.134
-141.487	-158.689	0.036	0.002
-140.472	67.185	0.268	0.269
-139.458	17.366	-0.133	-0.104
-138.443	-200.000	-0.030	-0.213
-137.429	205.225	0.142	0.217
-136.414	432.884	0.093	-0.198
-135.399	18.193	-0.095	-0.075
-134.385	-61.135	0.301	0.125
-133.370	208.970	0.056	-0.086
-132.356	246.393	-0.171	0.285
-131.341	-92.992	0.387	0.106
-130.326	343.197	0.078	0.151
-129.312	-65.983	-0.169	-0.067
-128.297	-145.939	-0.175	-0.015
-127.283	66.862	-0.063	-0.063
-126.268	-159.045	-0.103	-0.006
-125.253	59.034	-0.390	-0.378
-124.239	-200.000	-0.035	-0.192
-123.224	-115.433	-0.183	-0.034
-122.210	-132.895	0.179	-0.022
-121.195	-168.387	0.163	0.006
-120.180	-164.077	0.141	0.006
-119.166	268.948	-0.041	0.071
-118.151	-9.622	-0.182	0.119
-117.137	800.000	0.085	0.342
-116.122	-200.000	-0.003	0.302
-115.107	-23.481	0.314	-0.185
-114.093	136.474	0.179	0.230
-113.078	-200.000	-0.006	0.150
-112.064	261.896	-0.022	-0.038
-111.049	4.165	-0.068	-0.049
-110.034	-137.656	-0.097	-0.011
-109.020	269.730	0.015	0.026
-108.005	84.530	0.139	0.150
-106.991	-83.142	0.071	-0.022
-105.976	50.406	-0.146	-0.136
-104.962	-83.363	0.588	-0.186
-103.947	-161.853	-0.295	0.015
-102.932	600.145	-0.079	0.192
-101.918	8.772	-0.129	0.096
-100.903	222.345	-0.146	0.232
-99.889	-65.557	-0.099	-0.039
-98.874	-200.000	-0.009	0.055
-97.859	30.459	0.276	-0.232
-96.845	152.055	-0.149	0.199
-95.830	-94.410	0.245	-0.066
-94.816	-200.000	-0.019	0.119
-93.801	800.000	-0.058	0.184
-92.786	-200.000	0.000	-0.211
-91.772	-110.790	0.208	0.042
-90.757	-16.545	-0.253	0.158
-89.743	206.311	0.044	-0.067
-88.728	800.000	-0.095	0.318
-87.713	-89.674	0.481	0.139
-86.699	-31.235	0.185	-0.103
-85.684	86.120	-0.051	-0.055
-84.670	54.882	0.238	0.226
-83.655	-150.366	-0.110	0.008
-82.640	254.220	0.013	0.022
-81.626	429.305	-0.148	-0.315
-80.611	-29.222	-0.068	-0.038
-79.597	104.408	0.203	-0.234
-78.582	800.000	-0.071	0.257
-77.567	9.875	-0.071	0.053
-76.553	-200.000	-0.017	-0.136
-75.538	11.989	-0.090	-0.068
-74.524	39.775	0.054	0.048
-73.509	-200.000	0.040	0.189
-72.494	-200.000	0.012	0.484
-71.480	-97.520	0.078	0.020
-70.465	-63.129	0.109	0.044
-69.451	228.942	-0.049	-0.078
-68.436	408.460	0.063	-0.131
-67.422	-123.175	-0.073	-0.012
-66.407	-43.276	-0.180	0.090
-65.392	-83.142	0.209	0.066
-64.378	147.395	0.066	0.088
-63.363	-150.955	-0.079	0.006
-62.349	-58.100	0.282	0.121
-61.334	99.120	-1.090	-1.237
-60.319	44.765	0.566	0.512
-59.305	188.940	-0.489	-0.719
-58.290	369.711	0.562	1.118
-57.276	800.000	0.599	1.647
-56.261	-200.000	103.724	584.961
-55.246	550.107	1436.573	3382.207
-54.232	188.344	2618.225	3842.910
-53.217	115.261	2136.078	2560.875
-52.203	42.272	1587.252	1415.823
-51.188	34.146	1324.349	1133.139
-50.173	30.985	1282.861	1079.330
-49.159	54.719	1335.002	1263.955
-48.144	55.714	1351.407	1285.308
-47.130	34.084	1307.042	1117.784
-46.115	30.706	1289.129	1082.805
-45.100	30.548	1284.365	1077.846
-44.086	30.462	1282.454	1075.703
-43.071	30.495	1279.737	1073.572
-42.057	30.465	1277.545	1071.516
-41.042	30.452	1275.997	1070.097
-40.027	30.512	1274.700	1069.313
-39.013	30.543	1272.753	1067.816
-37.998	30.503	1271.034	1066.101
-36.984	30.576	1269.306	1065.027
-35.969	30.603	1267.385	1063.530
-34.954	30.500	1266.144	1061.859
-33.940	30.488	1265.587	1061.278
-32.925	30.569	1263.588	1060.020
-31.911	30.695	1261.708	1059.122
-30.896	30.653	1260.308	1057.664
-29.881	30.804	1259.294	1057.627
-28.867	30.660	1257.550	1055.305
-27.852	30.698	1256.207	1054.352
-26.838	30.653	1255.175	1053.189
-25.823	30.740	1253.351	1052.109
-24.809	30.602	1252.521	1050.593
-23.794	30.585	1251.255	1049.395
-22.779	30.666	1249.676	1048.484
-21.765	30.592	1248.614	1047.132
-20.750	30.705	1246.980	1046.359
-19.736	30.555	1245.775	1044.460
-18.721	30.512	1244.316	1042.955
-17.706	30.522	1243.179	1042.015
-16.692	30.546	1242.410	1041.463
-15.677	30.590	1241.397	1040.822
-14.663	30.478	1240.349	1039.277
-13.648	30.426	1239.418	1038.161
-12.633	30.483	1238.006	1037.255
-11.619	30.416	1237.363	1036.306
-10.604	30.488	1236.359	1035.823
-9.590	30.554	1235.300	1035.262
-8.575	30.563	1234.271	1034.410
-7.560	30.517	1233.528	1033.489
-6.546	30.406	1232.860	1032.269
-5.531	30.455	1231.686	1031.520
-4.517	30.362	1231.545	1030.847
-3.502	30.580	1230.403	1031.056
-2.487	30.447	1229.354	1029.403
-1.473	30.400	1225.088	1025.528
-0.458	28.847	1210.360	1004.677
0.556	26.776	1192.270	966.327
1.571	22.897	1197.294	949.502
2.586	21.847	1211.743	955.160
3.600	21.448	1201.002	944.455
4.615	16.157	1130.511	861.980
5.629	7.711	1056.980	765.334
6.644	3.998	1038.667	734.412
7.659	3.625	1036.055	730.738
8.673	3.377	1035.215	728.906
9.688	3.482	1033.037	727.805
10.702	3.789	1031.686	728.237
11.717	9.280	1038.795	759.178
12.731	18.129	1051.280	810.358
13.746	23.026	1057.081	838.028
14.761	23.714	1057.831	841.813
15.775	23.332	1056.158	838.599
16.790	22.671	1054.762	834.289
17.804	22.271	1053.445	831.285
18.819	21.990	1053.342	829.803
19.834	22.038	1052.544	829.326
20.848	22.141	1052.378	829.607
21.863	22.007	1051.767	828.421
22.877	21.806	1051.000	826.795
23.892	21.780	1050.025	825.833
24.907	21.634	1049.283	824.491
25.921	21.725	1048.106	823.918
26.936	21.700	1046.380	822.371
27.950	21.614	1045.197	820.969
28.965	21.743	1043.668	820.299
29.980	21.886	1042.767	820.184
30.994	22.041	1041.355	819.725
32.009	22.042	1040.808	819.225
33.023	22.038	1039.748	818.303
34.038	21.925	1038.940	817.068
35.053	21.705	1038.026	815.251
36.067	21.610	1037.219	814.106
37.082	21.752	1036.232	813.919
38.096	21.834	1035.997	814.043
39.111	21.869	1035.313	813.597
40.126	21.833	1033.554	811.973
41.140	21.408	1032.127	808.814
42.155	21.154	1031.095	806.761
43.169	21.092	1029.860	805.439
44.184	21.028	1029.101	804.478
45.199	21.011	1028.436	803.808
46.213	21.315	1027.591	804.475
47.228	21.752	1027.413	806.275
48.242	21.932	1026.237	806.111
49.257	21.784	1025.818	805.032
50.271	22.076	1024.601	805.341
51.286	22.064	1024.144	804.857
52.301	22.065	1022.939	803.845
53.315	21.852	1022.252	802.258
54.330	21.709	1020.732	800.343
55.344	21.492	1020.560	799.146
56.359	21.379	1019.150	797.455
57.374	21.482	1018.200	797.109
58.388	21.366	1017.152	795.690
59.403	21.219	1016.443	794.398
60.417	21.247	1016.026	794.127
61.432	21.122	1015.429	793.021
62.447	21.149	1014.041	791.994
63.461	20.988	1013.924	791.100
64.476	20.953	1012.754	789.957
65.490	20.879	1011.920	788.905
66.505	21.006	1011.124	788.789
67.520	20.949	1010.896	788.281
68.534	20.860	1009.682	786.861
69.549	20.867	1008.904	786.218
70.563	20.734	1007.834	784.718
71.578	20.410	1006.989	782.528
72.593	20.389	1005.674	781.343
73.607	20.426	1005.791	781.532
74.622	20.504	1005.567	781.637
75.636	20.478	1004.864	780.908
76.651	20.657	1003.832	780.839
77.666	20.805	1003.090	780.856
78.680	20.685	1002.687	779.934
79.695	20.713	1002.116	779.548
80.709	21.046	1000.880	780.008
81.724	20.998	1000.942	779.770
82.739	21.255	1000.495	780.501
83.753	21.706	999.771	781.882
84.768	22.145	999.723	783.734
85.782	22.366	999.087	784.152
86.797	22.225	998.231	782.784
87.812	22.052	997.065	781.030
88.826	22.124	996.290	780.671
89.841	22.164	995.603	780.244
90.855	22.199	994.679	779.604
91.870	22.292	993.652	779.143
92.884	22.138	992.876	777.786
93.899	22.221	991.498	777.002
94.914	22.068	990.858	775.756
95.928	22.184	989.850	775.409
96.943	22.031	988.831	773.869
97.957	21.789	988.233	772.266
98.972	22.045	987.286	772.586
99.987	22.134	986.483	772.279
101.001	21.946	985.478	770.600
102.016	21.849	984.624	769.439
103.030	22.017	984.033	769.643
104.045	22.121	983.554	769.658
105.060	22.003	982.247	768.051
106.074	21.643	981.268	765.641
107.089	21.454	980.143	763.870
108.103	21.250	978.919	761.961
109.118	20.986	977.606	759.723
110.133	20.850	976.460	758.172
111.147	20.919	975.549	757.698
112.162	20.956	975.340	757.630
113.176	21.075	974.747	757.619
114.191	21.201	974.426	757.847
115.206	21.105	973.374	756.549
116.220	20.997	972.296	755.173
117.235	20.939	971.633	754.341
118.249	20.950	970.260	753.256
119.264	20.764	969.588	751.866
120.279	20.633	968.999	750.774
121.293	20.641	968.005	749.973
122.308	20.564	967.197	748.950
123.322	20.531	965.791	747.652
124.337	20.332	965.294	746.346
125.352	20.535	963.837	746.027
126.366	20.420	963.074	744.875
127.381	20.562	962.387	744.888
128.395	20.761	961.850	745.258
129.410	20.790	960.700	744.425
130.424	20.890	960.355	744.517
131.439	21.137	959.846	745.112
132.454	21.111	959.431	744.615
133.468	21.132	958.315	743.771
134.483	21.141	957.312	742.967
135.497	21.227	956.539	742.668
136.512	21.273	955.533	742.013
137.527	21.138	955.048	740.998
138.541	21.278	954.493	741.096
139.556	21.319	953.688	740.580
140.570	21.612	952.878	741.125
141.585	21.771	952.689	741.586
142.600	21.931	951.551	741.310
143.614	22.133	950.536	741.307
144.629	22.259	949.935	741.303
145.643	22.106	948.668	739.607
146.658	21.748	947.699	737.279
147.673	21.614	946.213	735.493
148.687	21.393	945.682	734.087
149.702	21.274	944.343	732.484
150.716	21.335	943.577	732.084
151.731	21.439	942.912	731.937
152.746	21.406	942.575	731.471
153.760	21.553	942.129	731.677
154.775	21.681	941.442	731.612
155.789	21.700	940.679	731.033
156.804	21.662	940.144	730.394
157.819	21.709	939.562	730.076
158.833	21.834	939.356	730.368
159.848	22.199	938.001	730.770
160.862	22.040	936.813	729.119
161.877	21.419	935.432	725.404
162.892	21.228	934.191	723.588
163.906	21.222	933.090	722.643
164.921	21.234	932.346	722.052
165.935	21.337	931.837	722.022
166.950	21.515	930.755	721.855
167.964	21.439	930.391	721.197
168.979	21.178	929.333	719.235
169.994	21.275	928.072	718.595
171.008	21.497	928.034	719.414
172.023	21.909	927.248	720.433
173.037	21.987	926.806	720.349
174.052	21.823	925.540	718.627
175.067	21.278	924.625	715.622
176.081	21.052	923.688	713.908
177.096	20.899	923.624	713.168
178.110	21.085	922.652	713.116
179.125	21.108	922.301	712.874
180.140	21.283	922.016	713.307
181.154	21.533	921.867	714.149
182.169	21.794	921.587	714.933
183.183	21.865	921.277	714.917
184.198	21.863	920.131	713.960
185.213	21.686	919.604	712.767
186.227	21.944	918.879	713.191
187.242	21.914	918.683	712.851
188.256	22.171	917.461	712.884
189.271	22.223	917.170	712.806
190.286	21.716	915.711	709.554
191.300	20.978	915.251	706.150
192.315	20.939	913.972	704.942
193.329	21.050	913.482	704.950
194.344	21.211	913.336	705.427
195.359	21.242	912.850	705.112
196.373	21.620	912.300	706.151
197.388	21.784	912.211	706.680
198.402	22.217	911.686	707.956
199.417	22.337	911.141	707.952
200.432	22.371	911.057	707.961
201.446	22.557	910.584	708.279
202.461	22.495	910.250	707.708
203.475	22.226	909.285	705.816
204.490	21.879	907.912	703.293
205.504	21.697	907.025	701.816
206.519	21.721	906.098	701.135
207.534	21.697	905.669	700.642
208.548	21.895	905.240	701.039
209.563	21.819	904.531	700.127
210.577	21.872	904.127	699.964
211.592	22.346	903.662	701.429
212.607	22.439	902.986	701.215
213.621	22.294	902.186	699.953
214.636	22.109	901.642	698.734
215.650	22.142	901.061	698.353
216.665	22.350	900.060	698.342
217.680	22.411	899.686	698.233
218.694	22.261	899.484	697.416
219.709	22.297	898.600	696.814
220.723	22.109	897.913	695.475
221.738	21.968	897.034	694.174
222.753	21.976	896.373	693.634
223.767	22.136	896.171	694.049
224.782	22.385	895.838	694.713
225.796	22.450	895.261	694.457
226.811	22.146	894.339	692.485
227.826	21.953	893.344	690.895
228.840	21.786	893.131	690.009
229.855	21.973	891.726	689.597
230.869	21.879	890.967	688.582
231.884	21.776	890.668	687.885
232.899	21.743	890.061	687.228
233.913	21.689	889.027	686.154
234.928	21.431	888.507	684.686
235.942	21.395	887.715	683.870
236.957	21.388	886.981	683.220
237.972	21.470	886.864	683.387
238.986	21.371	886.347	682.545
240.001	21.362	885.871	682.080
241.015	21.617	885.411	682.662
242.030	21.853	884.932	683.150
243.045	21.779	884.418	682.406
244.059	21.783	884.191	682.184
245.074	21.935	883.500	682.182
246.088	22.235	882.289	682.352
247.103	22.247	882.520	682.516
248.117	22.625	882.612	683.992
249.132	22.972	882.461	685.160
250.147	23.271	881.703	685.672
251.161	23.378	881.535	685.893
252.176	23.375	880.672	685.151
253.190	23.376	880.524	684.979
254.205	23.387	879.610	684.249
255.220	23.347	878.175	682.917
256.234	23.154	877.968	681.952
257.249	23.049	877.353	681.009
258.263	22.969	876.666	680.108
259.278	23.032	875.991	679.766
260.293	23.246	875.311	680.001
261.307	23.197	875.336	679.773
262.322	23.335	874.610	679.680
263.336	23.233	873.855	678.641
264.351	23.129	873.054	677.559
265.366	23.225	872.592	677.509
266.380	23.212	872.143	677.051
267.395	23.057	871.338	675.774
268.409	22.967	870.155	674.454
269.424	23.079	869.668	674.443
270.439	22.948	868.924	673.307
271.453	22.758	867.662	671.547
272.468	22.846	867.605	671.777
273.482	22.902	866.980	671.448
274.497	22.733	866.358	670.263
275.512	22.745	866.248	670.164
276.526	22.892	865.596	670.160
277.541	22.883	865.581	670.053
278.555	23.207	865.014	670.785
279.570	23.458	864.358	671.167
280.585	23.387	863.461	670.143
281.599	23.179	862.142	668.275
282.614	22.639	861.903	665.991
283.628	22.657	860.945	665.257
284.643	22.831	860.562	665.559
285.657	22.723	860.187	664.806
286.672	22.898	859.275	664.699
287.687	22.938	858.916	664.512
288.701	22.793	858.546	663.624
289.716	22.978	857.767	663.657
290.730	22.872	857.400	662.916
291.745	23.068	856.767	663.104
292.760	23.150	856.526	663.165
293.774	23.563	855.735	664.039
294.789	23.351	855.183	662.761
295.803	23.189	854.024	661.200
296.818	22.894	853.535	659.659
297.833	22.953	852.595	659.094
298.847	22.943	852.139	658.647
299.862	23.025	852.095	658.859
300.876	23.306	851.643	659.498
301.891	23.352	851.335	659.374
302.906	23.695	850.752	660.139
303.920	23.638	850.691	659.821
304.935	23.849	850.293	660.238
305.949	23.663	849.200	658.642
306.964	23.419	848.324	656.999
307.979	23.367	847.685	656.254
308.993	23.501	847.580	656.611
310.008	23.650	846.732	656.448
311.022	23.332	846.222	654.816
312.037	23.104	845.349	653.241
313.052	22.814	844.875	651.748
314.066	22.518	843.848	649.807
315.081	22.711	843.539	650.223
316.095	22.845	842.652	649.973
317.110	22.834	842.239	649.558
318.125	22.656	841.577	648.336
319.139	22.603	840.936	647.588
320.154	22.516	840.826	647.126
321.168	22.799	840.069	647.526
322.183	22.860	839.743	647.441
323.197	22.754	839.552	646.848
324.212	22.941	838.818	646.909
325.227	22.789	838.108	645.748
326.241	22.843	837.321	645.283
327.256	22.718	836.749	644.327
328.270	22.596	836.047	643.286
329.285	22.563	835.794	642.915
330.300	22.624	834.881	642.376
331.314	22.733	834.875	642.711
332.329	23.118	834.598	643.845
333.343	23.395	834.490	644.711
334.358	23.202	833.815	643.430
335.373	23.231	833.392	643.152
336.387	23.364	833.075	643.334
337.402	23.535	833.225	644.016
338.416	23.819	832.817	644.674
339.431	23.967	833.120	645.386
340.446	23.869	832.360	644.387
341.460	24.020	832.165	644.725
342.475	24.128	831.810	644.783
343.489	24.228	831.223	644.633
344.504	24.406	830.713	644.824
345.519	24.280	830.501	644.148
346.533	23.972	830.065	642.638
347.548	23.853	829.136	641.433
348.562	23.524	828.217	639.481
349.577	23.417	827.268	638.307
350.592	23.221	826.527	636.972
351.606	23.166	825.885	636.224
352.621	23.349	825.038	636.175
353.635	23.328	824.804	635.862
354.650	23.250	824.408	635.220
355.665	23.245	823.555	634.488
356.679	23.508	823.072	635.003
357.694	23.526	822.662	634.692
358.708	23.624	821.395	634.008
359.723	23.628	820.981	633.649
360.738	23.627	820.381	633.126
361.752	23.701	819.827	632.906
362.767	24.162	819.555	634.283
363.781	24.332	819.386	634.699
364.796	24.396	819.153	634.691
365.810	24.370	818.847	634.304
366.825	24.475	818.371	634.254
367.840	24.443	817.803	633.641
368.854	24.019	817.314	631.702
369.869	23.854	816.741	630.620
370.883	23.852	816.511	630.380
371.898	24.268	816.151	631.519
372.913	24.205	815.901	631.048
373.927	23.960	815.068	629.479
374.942	24.061	814.768	629.550
375.956	24.223	814.605	629.939
376.971	24.362	814.006	629.915
377.986	24.591	813.577	630.334
379.000	24.587	812.897	629.735
380.015	24.583	812.244	629.160
381.029	24.594	811.448	628.526
382.044	24.489	811.443	628.098
383.059	24.562	810.555	627.613
384.073	24.536	809.891	626.953
385.088	23.981	809.092	624.330
386.102	23.903	808.319	623.406
387.117	23.736	807.911	622.449
388.132	23.778	807.005	621.844
389.146	23.847	806.660	621.766
390.161	24.062	806.964	622.696
391.175	24.293	806.490	623.082
392.190	24.195	805.771	622.128
393.205	23.831	804.908	620.139
394.219	23.608	804.416	618.927
395.234	23.586	803.851	618.361
396.248	23.505	803.294	617.594
397.263	23.739	802.778	617.959
398.278	23.378	802.551	616.472
399.292	23.364	801.952	615.911
400.307	23.365	801.662	615.637
401.321	23.450	801.125	615.464
402.336	23.787	800.695	616.249
403.350	23.967	800.591	616.739
404.365	24.310	800.683	617.944
405.380	24.649	800.199	618.687
406.394	24.867	799.570	618.901
407.409	24.822	799.579	618.700
408.423	24.868	798.992	618.349
409.438	24.973	798.479	618.260
410.453	24.829	798.266	617.544
411.467	24.805	797.485	616.802
412.482	24.884	797.773	617.242
413.496	25.118	797.020	617.409
414.511	25.254	796.370	617.319
415.526	24.956	796.273	616.165
416.540	24.672	795.751	614.729
417.555	24.819	795.074	614.659
418.569	24.691	794.810	613.958
419.584	24.730	794.356	613.688
420.599	24.606	794.003	612.937
421.613	163.361	1370.059	1796.217
422.628	141.714	1454.006	1796.331
