DTS Sentinel unit serial number:	SN413079Multiplexer serial number:	ORYXHardware model number:	OX4-SRSoftware version number:	ORYX F/W v4.00 Oryx Data Collector v3.7.2.0data status	okinstallation	princeton_trtdifferential loss correction	single-endedforward channel	channel 1reverse channel	N/Adate	2019/09/16time	03:18:35forward acquisition time	60.00reverse acquisition time	0.00gamma	496.2192k internal	0.2330k external	0.2330temperature offset calibration	0.9980default loss term (dB/km)	0.3790temperature slope calibration	1.0000multiplexer offset coefficient	1.0000multiplexer slope coefficient	1.0000fibre end	0.00T internal ref (°C)	27.75T ext. ref 1 (°C)	10.51T ext. ref 2 (°C)	21.90length (m)	temperature (°C)	Stokes	anti-Stokes-747.200	-200.000	0.056	0.265
-746.185	107.006	-0.192	-0.230
-745.171	-117.381	-0.348	0.063
-744.156	247.200	0.134	0.228
-743.142	-200.000	0.017	0.083
-742.127	35.735	-0.142	0.126
-741.112	800.000	0.098	0.405
-740.098	-60.608	0.102	-0.043
-739.083	165.828	0.146	0.208
-738.069	80.613	0.113	0.123
-737.054	-70.708	0.131	0.050
-736.039	-142.320	-0.262	0.026
-735.025	800.000	-0.024	-0.074
-734.010	-200.000	-0.009	-0.434
-732.996	-79.865	0.372	0.126
-731.981	800.000	0.063	-0.253
-730.966	-7.365	-0.142	0.097
-729.952	800.000	0.038	-0.110
-728.937	-60.808	-0.090	0.038
-727.923	-200.000	0.043	0.294
-726.908	-93.898	-0.324	0.090
-725.894	800.000	-0.104	-0.317
-724.879	-91.675	-0.043	0.012
-723.864	20.513	0.264	-0.215
-722.850	-94.230	-0.330	-0.091
-721.835	-78.704	-0.172	0.059
-720.821	163.659	-0.188	-0.266
-719.806	617.933	0.085	-0.215
-718.791	800.000	0.159	-0.474
-717.777	-200.000	0.012	-0.065
-716.762	-126.770	-0.392	0.058
-715.748	44.965	-0.251	0.233
-714.733	142.567	0.024	0.032
-713.718	-163.719	-0.266	-0.013
-712.704	98.495	-0.178	-0.206
-711.689	-25.473	-0.260	-0.154
-710.675	121.447	0.112	-0.140
-709.660	57.743	0.157	-0.155
-708.645	-145.018	-0.084	0.008
-707.631	-126.052	-0.159	0.024
-706.616	-200.000	0.057	0.253
-705.602	440.570	0.109	0.240
-704.587	87.111	-0.102	0.114
-703.572	800.000	0.032	0.134
-702.558	-200.000	0.037	-0.228
-701.543	5.764	0.124	-0.092
-700.529	-200.000	-0.095	-0.439
-699.514	-200.000	-0.018	0.238
-698.499	5.891	0.163	-0.121
-697.485	340.343	0.142	-0.278
-696.470	800.000	0.024	0.095
-695.456	361.071	-0.199	-0.401
-694.441	800.000	0.062	-0.188
-693.426	-1.464	-0.124	0.088
-692.412	68.881	-0.114	-0.117
-691.397	-200.000	0.003	-0.279
-690.383	-188.964	-0.301	0.004
-689.368	-20.738	-0.332	-0.204
-688.354	-160.197	0.239	0.013
-687.339	-200.000	0.024	-0.291
-686.324	-55.943	0.359	-0.161
-685.310	-46.526	-0.447	-0.220
-684.295	159.022	0.069	-0.097
-683.281	-0.102	0.236	-0.169
-682.266	-89.664	-0.072	-0.021
-681.251	800.000	0.030	-0.097
-680.237	150.423	0.228	-0.311
-679.222	-2.932	0.115	-0.080
-678.208	-93.186	-0.094	0.026
-677.193	800.000	0.095	0.301
-676.178	528.047	-0.162	-0.383
-675.164	58.787	-0.317	-0.312
-674.149	-70.652	0.225	-0.085
-673.135	-13.225	-0.012	-0.008
-672.120	243.334	0.110	0.185
-671.105	-52.659	0.116	0.054
-670.091	-60.628	-0.078	0.033
-669.076	184.155	-0.242	-0.360
-668.062	38.177	-0.062	0.055
-667.047	-22.062	-0.046	0.028
-666.032	-140.092	-0.327	0.035
-665.018	38.054	0.181	-0.161
-664.003	106.187	0.101	-0.120
-662.989	-86.840	0.299	-0.092
-661.974	800.000	0.044	-0.144
-660.959	121.758	-0.204	-0.255
-659.945	-17.386	0.136	0.086
-658.930	154.152	-0.154	0.212
-657.916	-125.056	-0.169	-0.026
-656.901	-172.832	0.196	0.006
-655.886	-200.000	-0.022	-0.181
-654.872	-114.548	-0.025	-0.005
-653.857	-124.557	0.248	-0.039
-652.843	-200.000	0.027	0.335
-651.828	43.296	-0.059	0.054
-650.814	64.054	-0.196	0.197
-649.799	-200.000	0.025	0.318
-648.784	-106.849	0.136	-0.030
-647.770	-24.938	0.240	-0.143
-646.755	-200.000	-0.083	-0.370
-645.741	-76.815	-0.037	-0.013
-644.726	330.900	-0.108	-0.208
-643.711	-139.588	0.245	-0.026
-642.697	279.692	-0.095	0.170
-641.682	800.000	-0.080	0.254
-640.668	-84.334	0.290	-0.092
-639.653	-109.562	-0.069	0.015
-638.638	-46.381	-0.258	0.127
-637.624	-5.524	0.236	0.162
-636.609	26.288	0.091	0.076
-635.595	90.200	0.049	0.055
-634.580	-200.000	-0.031	-0.194
-633.565	-200.000	0.012	-0.095
-632.551	800.000	0.048	-0.143
-631.536	510.884	-0.112	0.262
-630.522	109.621	-0.113	0.136
-629.507	70.141	-0.100	-0.103
-628.492	14.348	-0.206	0.161
-627.478	-35.576	-0.171	0.093
-626.463	800.000	0.082	0.229
-625.449	74.828	0.088	0.093
-624.434	-65.906	-0.393	-0.157
-623.419	334.173	0.045	-0.087
-622.405	194.234	-0.033	0.049
-621.390	-14.835	0.147	-0.095
-620.376	-180.735	-0.238	-0.005
-619.361	-53.789	0.244	-0.112
-618.346	70.611	0.107	-0.111
-617.332	-200.000	-0.049	-0.317
-616.317	24.156	-0.248	-0.205
-615.303	2.873	-0.166	-0.121
-614.288	264.630	-0.115	-0.200
-613.273	53.878	-0.105	-0.101
-612.259	328.771	-0.069	-0.132
-611.244	-200.000	0.008	0.042
-610.230	-111.317	-0.316	-0.065
-609.215	139.979	0.224	0.295
-608.201	71.116	0.345	0.358
-607.186	-100.721	-0.370	0.091
-606.171	81.598	-0.201	0.218
-605.157	800.000	-0.094	-0.272
-604.142	748.533	-0.036	-0.098
-603.128	-200.000	0.010	0.047
-602.113	-116.824	0.161	-0.030
-601.098	408.461	0.035	0.074
-600.084	-200.000	-0.005	-0.091
-599.069	-200.000	-0.077	-0.361
-598.055	-57.582	0.090	0.040
-597.040	-200.000	-0.002	-0.012
-596.025	800.000	-0.040	-0.134
-595.011	-115.879	-0.046	0.009
-593.996	54.971	0.112	0.109
-592.982	61.246	-0.121	-0.120
-591.967	471.853	-0.074	-0.167
-590.952	397.033	-0.149	-0.311
-589.938	314.000	0.110	0.208
-588.923	-12.511	0.150	-0.098
-587.909	-66.792	-0.150	-0.059
-586.894	-8.112	0.082	-0.055
-585.879	-94.327	0.394	-0.108
-584.865	-120.619	-0.130	0.022
-583.850	117.336	-0.171	-0.211
-582.836	29.164	-0.112	-0.095
-581.821	-13.520	0.122	0.079
-580.806	96.656	-0.105	-0.121
-579.792	800.000	0.047	-0.136
-578.777	48.461	0.257	0.241
-577.763	-166.323	-0.230	0.010
-576.748	800.000	0.049	-0.158
-575.733	88.894	-0.304	-0.339
-574.719	-117.102	0.053	0.010
-573.704	8.834	0.084	0.063
-572.690	59.029	-0.277	0.273
-571.675	30.405	-0.157	0.134
-570.661	-75.956	0.098	-0.034
-569.646	96.883	0.083	-0.095
-568.631	247.580	-0.170	-0.288
-567.617	367.725	-0.123	0.249
-566.602	-117.109	-0.256	0.047
-565.588	58.709	-0.286	-0.281
-564.573	324.727	0.177	-0.338
-563.558	-61.989	0.196	-0.082
-562.544	151.012	-0.119	-0.162
-561.529	-78.606	0.146	-0.050
-560.515	-110.337	0.144	-0.030
-559.500	63.076	0.180	-0.181
-558.485	-107.238	-0.079	-0.017
-557.471	156.603	-0.090	-0.124
-556.456	-74.432	0.107	0.039
-555.442	-36.911	-0.132	0.071
-554.427	-200.000	-0.032	0.165
-553.412	-11.568	0.280	-0.184
-552.398	36.930	-0.230	0.203
-551.383	136.645	0.100	0.130
-550.369	-200.000	-0.014	-0.270
-549.354	-200.000	-0.015	0.148
-548.339	598.246	-0.097	0.239
-547.325	337.333	0.119	0.232
-546.310	-200.000	0.035	-0.209
-545.296	101.335	0.078	0.091
-544.281	-200.000	-0.017	0.380
-543.266	800.000	-0.041	-0.152
-542.252	540.300	0.070	-0.166
-541.237	-14.165	-0.085	-0.054
-540.223	188.410	0.096	0.144
-539.208	126.301	-0.218	-0.276
-538.193	154.778	-0.162	0.222
-537.179	-86.041	-0.136	-0.042
-536.164	128.358	-0.063	-0.080
-535.150	800.000	-0.032	0.133
-534.135	-162.748	-0.190	0.009
-533.121	111.751	-0.071	0.085
-532.106	-46.296	-0.178	0.087
-531.091	-21.673	0.104	0.063
-530.077	66.907	-0.121	0.123
-529.062	201.973	0.064	-0.099
-528.048	-17.823	-0.278	0.174
-527.033	800.000	0.162	0.475
-526.018	-102.031	0.142	0.034
-525.004	-28.287	0.219	0.126
-523.989	-200.000	-0.023	0.170
-522.975	-86.948	-0.162	0.049
-521.960	366.304	0.068	0.136
-520.945	115.753	-0.120	0.146
-519.931	534.256	-0.177	-0.418
-518.916	-200.000	0.034	0.253
-517.902	-200.000	-0.074	0.329
-516.887	-25.903	-0.065	0.038
-515.872	-12.772	0.444	-0.289
-514.858	75.752	0.135	-0.142
-513.843	800.000	-0.064	0.249
-512.829	-56.749	0.126	-0.056
-511.814	-200.000	0.038	0.480
-510.799	800.000	0.034	0.123
-509.785	-93.453	0.160	0.044
-508.770	-168.960	-0.258	-0.010
-507.756	537.737	0.041	0.097
-506.741	-137.490	-0.329	-0.037
-505.726	112.134	-0.074	0.089
-504.712	-111.697	-0.090	-0.018
-503.697	-141.991	-0.444	0.044
-502.683	244.200	-0.040	0.068
-501.668	-42.517	0.335	-0.170
-500.653	574.464	-0.062	-0.150
-499.639	35.345	0.292	-0.255
-498.624	-106.327	-0.091	0.020
-497.610	800.000	0.092	-0.288
-496.595	-200.000	0.001	0.152
-495.581	-100.524	0.445	-0.110
-494.566	102.603	-0.197	0.230
-493.551	9.160	-0.291	0.219
-492.537	47.217	0.195	0.181
-491.522	-32.192	0.176	0.098
-490.508	-46.866	-0.312	0.152
-489.493	-56.715	0.226	0.100
-488.478	332.756	0.032	-0.062
-487.464	-76.881	0.079	-0.028
-486.449	0.079	0.191	-0.136
-485.435	-200.000	0.081	0.412
-484.420	-72.298	-0.079	-0.029
-483.405	-144.159	0.375	0.035
-482.391	800.000	0.062	0.205
-481.376	-1.312	0.248	0.174
-480.362	-87.250	-0.091	0.028
-479.347	-14.939	-0.176	-0.113
-478.332	45.775	-0.131	-0.121
-477.318	-84.342	0.099	0.031
-476.303	117.614	-0.035	0.042
-475.289	-94.946	-0.335	0.090
-474.274	-71.605	-0.211	0.078
-473.259	-124.543	0.190	0.029
-472.245	211.931	0.059	-0.093
-471.230	-68.099	-0.466	-0.181
-470.216	20.818	0.190	0.153
-469.201	800.000	0.045	0.173
-468.186	520.368	0.017	-0.039
-467.172	800.000	0.022	-0.074
-466.157	252.720	-0.124	0.211
-465.143	76.274	-0.312	0.329
-464.128	-33.277	-0.048	0.026
-463.113	184.296	0.108	-0.159
-462.099	23.146	0.323	0.264
-461.084	-73.977	-0.207	0.075
-460.070	183.882	-0.235	-0.346
-459.055	800.000	-0.052	0.146
-458.040	50.405	0.100	-0.094
-457.026	-86.979	0.057	0.017
-456.011	191.400	0.186	-0.279
-454.997	-141.870	-0.269	0.027
-453.982	14.632	0.064	-0.050
-452.968	-57.307	0.052	0.023
-451.953	-200.000	-0.023	-0.132
-450.938	33.821	0.132	-0.115
-449.924	42.363	-0.537	-0.486
-448.909	-162.710	0.089	-0.004
-447.895	158.263	-0.149	-0.206
-446.880	800.000	0.026	0.079
-445.865	-200.000	0.036	-0.234
-444.851	800.000	-0.077	-0.244
-443.836	-200.000	0.047	-0.274
-442.822	800.000	-0.022	0.076
-441.807	-200.000	-0.028	-0.150
-440.792	-159.005	-0.319	-0.018
-439.778	23.583	-0.134	-0.110
-438.763	134.130	0.092	0.119
-437.749	47.694	0.059	-0.055
-436.734	-84.967	0.056	0.017
-435.719	-68.523	-0.156	0.060
-434.705	-42.567	-0.155	-0.078
-433.690	164.793	0.072	0.101
-432.676	274.070	0.112	-0.197
-431.661	-200.000	-0.005	0.038
-430.646	-23.923	0.106	0.063
-429.632	158.882	-0.084	0.116
-428.617	-200.000	0.041	-0.298
-427.603	232.261	-0.100	-0.163
-426.588	80.421	-0.279	0.298
-425.573	-90.275	-0.199	0.057
-424.559	-200.000	0.041	0.386
-423.544	-28.203	-0.067	0.038
-422.530	29.533	0.128	-0.108
-421.515	800.000	-0.048	-0.132
-420.500	-60.810	0.161	0.068
-419.486	134.943	0.158	-0.204
-418.471	52.185	-0.205	0.194
-417.457	-23.574	-0.084	-0.050
-416.442	-200.000	-0.005	0.121
-415.428	-84.139	0.234	0.074
-414.413	-112.250	0.522	-0.104
-413.398	178.422	0.127	-0.185
-412.384	21.569	0.036	-0.029
-411.369	-135.179	0.265	-0.032
-410.355	-200.000	0.042	-0.186
-409.340	-91.756	0.149	0.042
-408.325	27.774	0.130	-0.109
-407.311	513.621	-0.098	-0.228
-406.296	-200.000	0.012	0.071
-405.282	741.406	0.081	-0.217
-404.267	308.472	0.065	0.120
-403.252	678.006	-0.081	0.210
-402.238	526.323	-0.106	-0.249
-401.223	-200.000	0.092	-0.427
-400.209	800.000	0.104	0.311
-399.194	730.874	0.088	-0.233
-398.179	-110.447	-0.116	-0.024
-397.165	-114.565	-0.190	0.036
-396.150	-83.176	-0.257	-0.082
-395.136	22.667	0.401	0.326
-394.121	-200.000	0.004	-0.018
-393.106	-125.937	0.175	0.026
-392.092	-43.197	-0.163	0.082
-391.077	-122.862	0.344	0.055
-390.063	-168.075	0.424	-0.016
-389.048	-114.893	-0.312	0.059
-388.033	20.591	-0.071	0.057
-387.019	314.240	-0.083	-0.155
-386.004	800.000	0.019	0.071
-384.990	-49.319	0.320	-0.152
-383.975	-177.339	-0.446	0.011
-382.960	800.000	0.009	0.028
-381.946	-74.284	-0.089	0.032
-380.931	-67.806	0.090	0.035
-379.917	-200.000	-0.038	0.263
-378.902	27.258	-0.287	0.240
-377.888	-137.514	0.203	-0.023
-376.873	-103.594	0.269	-0.063
-375.858	138.140	-0.153	0.199
-374.844	-180.635	0.308	0.006
-373.829	-82.538	0.102	-0.033
-372.815	149.182	-0.170	0.228
-371.800	-137.104	0.155	0.018
-370.785	-156.292	-0.389	0.024
-369.771	31.009	-0.252	-0.214
-368.756	-107.917	-0.246	0.053
-367.742	474.763	-0.167	-0.375
-366.727	-61.261	0.242	-0.101
-365.712	-11.208	0.218	0.142
-364.698	74.108	-0.201	0.210
-363.683	258.118	-0.097	-0.166
-362.669	-18.876	0.066	0.041
-361.654	-109.202	0.254	-0.053
-360.639	-200.000	0.022	-0.276
-359.625	-108.419	0.167	0.036
-358.610	82.501	0.158	0.170
-357.596	-200.000	-0.023	0.261
-356.581	-200.000	0.002	0.061
-355.566	655.151	0.069	0.176
-354.552	-138.447	0.276	0.030
-353.537	83.451	-0.372	0.402
-352.523	-96.783	0.282	-0.074
-351.508	800.000	0.013	0.037
-350.493	150.403	-0.117	0.157
-349.479	196.431	-0.127	-0.191
-348.464	673.896	0.110	0.283
-347.450	-34.066	0.222	-0.121
-346.435	-44.523	-0.355	-0.176
-345.420	-200.000	0.008	0.039
-344.406	402.356	-0.099	0.206
-343.391	217.591	-0.203	0.321
-342.377	186.852	0.098	-0.145
-341.362	-200.000	-0.007	0.147
-340.348	-178.426	-0.175	0.004
-339.333	-200.000	0.018	-0.260
-338.318	-200.000	0.013	-0.110
-337.304	-116.685	-0.265	-0.048
-336.289	-137.036	-0.318	-0.036
-335.275	79.339	0.070	-0.075
-334.260	-200.000	0.008	0.274
-333.245	-200.000	0.032	0.141
-332.231	-87.302	0.190	0.057
-331.216	-90.094	-0.126	0.036
-330.202	277.426	0.215	-0.379
-329.187	-200.000	-0.019	-0.365
-328.172	-23.373	-0.114	-0.068
-327.158	-55.089	0.115	0.051
-326.143	-164.405	0.037	0.002
-325.129	162.749	-0.150	-0.209
-324.114	800.000	0.086	0.239
-323.099	800.000	0.003	-0.014
-322.085	179.567	-0.071	-0.103
-321.070	182.265	0.027	-0.040
-320.056	9.508	0.064	-0.048
-319.041	18.961	0.127	-0.101
-318.026	470.160	0.138	0.307
-317.012	-200.000	0.007	0.162
-315.997	800.000	-0.012	0.048
-314.983	800.000	0.035	0.123
-313.968	-200.000	-0.030	-0.319
-312.953	-48.371	-0.310	-0.148
-311.939	-105.326	0.072	-0.016
-310.924	-11.038	-0.122	0.079
-309.910	20.267	0.169	-0.135
-308.895	34.600	0.076	-0.066
-307.880	-14.279	-0.100	0.064
-306.866	-95.496	-0.053	0.014
-305.851	40.281	0.149	0.133
-304.837	577.504	0.079	0.191
-303.822	-69.266	-0.260	0.099
-302.807	-178.621	0.291	0.007
-301.793	-31.232	0.141	0.078
-300.778	-17.681	-0.167	0.104
-299.764	105.928	0.161	-0.188
-298.749	-80.151	-0.033	0.011
-297.735	-200.000	-0.068	0.653
-296.720	224.611	-0.205	-0.328
-295.705	-12.012	-0.340	-0.221
-294.691	-134.643	0.147	-0.018
-293.676	-35.119	-0.264	-0.142
-292.662	-124.328	-0.125	0.019
-291.647	-200.000	-0.014	0.126
-290.632	-122.904	0.294	0.047
-289.618	800.000	0.032	0.139
-288.603	-108.004	0.022	-0.005
-287.589	44.992	0.076	-0.069
-286.574	-200.000	-0.050	-0.394
-285.559	134.860	0.104	0.133
-284.545	753.514	0.089	0.237
-283.530	-33.906	0.222	0.121
-282.516	558.646	0.054	0.129
-281.501	549.886	0.081	0.192
-280.486	800.000	-0.128	0.403
-279.472	800.000	-0.074	0.214
-278.457	346.817	0.069	0.134
-277.443	25.234	0.162	0.133
-276.428	-123.762	0.243	-0.038
-275.413	-200.000	0.001	-0.222
-274.399	-131.978	-0.091	0.012
-273.384	-110.738	0.092	-0.019
-272.370	214.765	-0.132	-0.207
-271.355	-123.676	0.164	-0.026
-270.340	497.150	0.050	0.114
-269.326	-19.115	0.254	0.156
-268.311	-84.865	-0.038	-0.012
-267.297	-114.703	-0.567	0.107
-266.282	-88.193	0.445	-0.132
-265.267	178.761	-0.100	-0.145
-264.253	414.926	-0.133	0.279
-263.238	7.796	-0.193	0.143
-262.224	-200.000	0.039	-0.213
-261.209	261.047	0.110	-0.188
-260.195	57.777	-0.227	-0.220
-259.180	69.815	-0.051	-0.052
-258.165	244.261	0.111	0.184
-257.151	-114.958	-0.099	-0.019
-256.136	-136.818	-0.185	0.021
-255.122	7.492	-0.174	-0.129
-254.107	-12.079	-0.256	-0.165
-253.092	-20.465	-0.073	-0.044
-252.078	-121.550	0.192	0.032
-251.063	-16.668	0.199	-0.125
-250.049	800.000	-0.045	-0.149
-249.034	-53.241	-0.243	0.110
-248.019	176.342	0.178	-0.255
-247.005	800.000	0.067	-0.290
-245.990	89.247	-0.204	-0.224
-244.976	58.888	-0.235	-0.228
-243.961	165.387	-0.186	-0.259
-242.946	-114.875	-0.396	-0.074
-241.932	800.000	0.138	0.395
-240.917	-104.800	0.235	-0.053
-239.903	-200.000	0.015	0.246
-238.888	427.834	0.073	0.155
-237.873	-89.046	-0.206	0.060
-236.859	32.803	0.476	0.406
-235.844	-1.235	-0.103	0.072
-234.830	-52.683	0.191	-0.087
-233.815	193.190	0.348	-0.519
-232.800	79.739	-0.166	0.176
-231.786	-80.350	0.096	0.032
-230.771	-200.000	0.014	-0.072
-229.757	800.000	0.074	0.254
-228.742	-4.065	-0.132	0.091
-227.727	-37.050	0.270	0.142
-226.713	-200.000	-0.070	-0.327
-225.698	-200.000	0.023	-0.309
-224.684	194.838	-0.096	0.144
-223.669	-200.000	0.009	0.272
-222.655	-200.000	-0.076	0.452
-221.640	-155.022	-0.223	-0.014
-220.625	43.270	0.225	0.202
-219.611	8.216	-0.076	0.056
-218.596	-74.495	0.405	-0.144
-217.582	147.019	0.168	-0.223
-216.567	32.130	-0.108	-0.092
-215.552	-200.000	0.020	-0.591
-214.538	308.206	0.032	-0.059
-213.523	-200.000	-0.010	-0.167
-212.509	-200.000	-0.040	0.207
-211.494	-200.000	0.005	-0.081
-210.479	-11.396	-0.240	0.156
-209.465	12.200	-0.080	-0.061
-208.450	-134.032	-0.252	0.031
-207.436	800.000	-0.059	0.192
-206.421	-145.294	0.058	-0.005
-205.406	-200.000	0.014	-0.266
-204.392	-72.654	0.094	0.034
-203.377	-146.899	0.211	-0.018
-202.363	-52.196	-0.064	0.029
-201.348	-96.049	0.462	-0.121
-200.333	23.595	0.332	0.269
-199.319	67.413	0.198	0.199
-198.304	20.279	0.158	0.126
-197.290	-65.339	-0.397	0.157
-196.275	800.000	0.007	0.020
-195.260	-200.000	-0.032	-0.216
-194.246	-46.623	0.095	-0.046
-193.231	235.665	-0.146	0.238
-192.217	-6.010	0.074	0.050
-191.202	-54.181	-0.031	0.014
-190.187	-38.184	0.216	-0.113
-189.173	114.645	-0.083	0.099
-188.158	256.327	-0.146	-0.248
-187.144	116.546	0.240	0.289
-186.129	103.717	-0.220	0.255
-185.114	66.093	-0.194	-0.194
-184.100	67.397	0.183	-0.184
-183.085	-200.000	0.098	-0.449
-182.071	-179.460	-0.345	0.007
-181.056	-11.012	0.088	-0.057
-180.042	-133.807	0.466	-0.057
-179.027	-98.346	-0.036	0.009
-178.012	800.000	0.038	0.150
-176.998	800.000	-0.065	0.194
-175.983	12.054	-0.091	-0.069
-174.969	-144.272	0.479	-0.044
-173.954	8.857	0.235	0.174
-172.939	-132.770	-0.086	0.011
-171.925	449.108	-0.046	-0.100
-170.910	42.490	0.144	-0.129
-169.896	57.442	0.080	-0.077
-168.881	17.072	0.081	0.063
-167.866	10.955	-0.178	0.134
-166.852	44.440	-0.251	-0.227
-165.837	7.584	0.183	-0.135
-164.823	-200.000	0.012	-0.162
-163.808	18.445	0.135	-0.106
-162.793	231.559	-0.205	0.330
-161.779	-90.171	0.283	0.081
-160.764	29.054	-0.133	-0.111
-159.750	-200.000	-0.023	0.159
-158.735	-102.611	0.111	-0.026
-157.720	-200.000	0.015	0.118
-156.706	-200.000	0.059	-0.497
-155.691	332.340	0.109	0.207
-154.677	110.362	-0.080	0.094
-153.662	130.617	0.128	-0.161
-152.647	-112.713	0.166	-0.032
-151.633	-148.055	0.265	-0.022
-150.618	-70.678	-0.297	0.110
-149.604	-200.000	0.189	0.000
-148.589	-60.297	0.239	-0.100
-147.574	-200.000	0.038	0.229
-146.560	138.882	0.073	-0.094
-145.545	-105.313	0.262	-0.059
-144.531	-200.000	0.011	0.322
-143.516	-93.786	0.256	0.069
-142.502	374.536	0.043	0.086
-141.487	-121.317	0.026	-0.004
-140.472	800.000	-0.111	-0.316
-139.458	-200.000	0.036	-0.294
-138.443	-46.660	-0.187	-0.090
-137.429	-123.211	-0.063	-0.010
-136.414	-200.000	0.016	-0.071
-135.399	51.423	-0.091	-0.085
-134.385	362.619	0.119	-0.236
-133.370	46.632	0.446	-0.407
-132.356	-200.000	-0.025	-0.273
-131.341	-200.000	0.069	-0.347
-130.326	800.000	-0.112	0.310
-129.312	195.476	-0.160	0.239
-128.297	-11.530	-0.200	-0.129
-127.283	-128.539	0.142	0.020
-126.268	-104.256	0.080	0.018
-125.253	49.809	0.358	-0.331
-124.239	124.869	0.428	-0.530
-123.224	-200.000	-0.001	0.213
-122.210	-200.000	0.011	-0.304
-121.195	-105.275	0.319	-0.071
-120.180	-132.955	0.269	-0.034
-119.166	38.509	0.141	-0.123
-118.151	295.198	0.082	-0.147
-117.137	-200.000	0.009	-0.127
-116.122	-131.234	0.041	0.005
-115.107	-51.492	0.281	-0.129
-114.093	-0.485	0.138	0.097
-113.078	-200.000	0.019	0.172
-112.064	95.216	-0.034	-0.038
-111.049	-145.046	0.259	0.023
-110.034	-84.005	-0.391	0.122
-109.020	-136.311	0.278	0.032
-108.005	-68.187	0.063	-0.024
-106.991	-125.449	-0.348	-0.052
-105.976	511.982	0.160	0.366
-104.962	-135.106	-0.076	-0.009
-103.947	-200.000	-0.011	0.438
-102.932	323.094	0.036	0.067
-101.918	402.513	0.106	0.220
-100.903	800.000	0.080	0.289
-99.889	39.026	0.146	-0.128
-98.874	89.420	0.173	-0.190
-97.859	81.017	-0.143	-0.152
-96.845	715.530	0.168	0.436
-95.830	-200.000	0.018	0.100
-94.816	28.866	0.338	-0.281
-93.801	154.707	0.126	0.169
-92.786	-200.000	0.026	-0.313
-91.772	-200.000	-0.048	-0.253
-90.757	369.200	-0.043	-0.085
-89.743	198.345	-0.168	0.253
-88.728	-43.806	0.334	-0.165
-87.713	496.463	0.085	0.192
-86.699	633.881	-0.200	-0.497
-85.684	97.497	-0.095	0.107
-84.670	-125.760	0.241	-0.036
-83.655	-116.719	0.329	0.059
-82.640	-40.908	-0.242	-0.123
-81.626	-96.227	-0.367	0.096
-80.611	211.475	0.103	0.159
-79.597	-51.845	-0.036	0.016
-78.582	-74.001	0.073	0.026
-77.567	222.418	0.128	0.203
-76.553	-92.080	0.234	-0.065
-75.538	-113.510	0.155	0.030
-74.524	57.088	0.220	-0.210
-73.509	240.499	0.075	-0.122
-72.494	418.657	-0.092	0.193
-71.480	114.847	-0.138	-0.165
-70.465	129.475	0.201	-0.252
-69.451	-114.982	0.293	0.055
-68.436	800.000	0.052	0.217
-67.422	4.984	0.190	-0.137
-66.407	-44.558	0.127	-0.062
-65.392	-200.000	-0.016	0.110
-64.378	-200.000	-0.014	-0.344
-63.363	800.000	-0.046	-0.152
-62.349	-12.165	-0.294	0.188
-61.334	81.086	-0.927	-0.981
-60.319	79.196	0.516	0.542
-59.305	-200.000	-0.103	-1.365
-58.290	318.537	0.594	1.103
-57.276	264.180	0.896	1.528
-56.261	-200.000	112.669	639.292
-55.246	472.115	1500.378	3310.244
-54.232	148.245	2665.234	3524.798
-53.217	103.985	2152.345	2478.992
-52.203	39.052	1603.495	1404.645
-51.188	30.985	1350.351	1134.015
-50.173	28.176	1312.732	1085.740
-49.159	55.683	1367.866	1298.381
-48.144	54.386	1382.448	1304.353
-47.130	31.484	1338.538	1126.924
-46.115	27.791	1321.092	1090.183
-45.100	27.677	1316.224	1085.439
-44.086	27.607	1313.806	1082.992
-43.071	27.597	1311.733	1081.178
-42.057	27.567	1309.282	1078.937
-41.042	27.528	1308.571	1078.076
-40.027	27.665	1306.437	1077.084
-39.013	27.712	1304.566	1075.781
-37.998	27.654	1302.375	1073.585
-36.984	27.615	1300.929	1072.123
-35.969	27.822	1298.793	1071.534
-34.954	27.705	1297.353	1069.617
-33.940	27.828	1295.777	1068.997
-32.925	27.769	1294.741	1067.755
-31.911	27.821	1293.611	1067.085
-30.896	27.852	1291.914	1065.825
-29.881	27.903	1290.209	1064.672
-28.867	27.859	1289.123	1063.479
-27.852	27.915	1287.337	1062.286
-26.838	27.858	1286.141	1060.926
-25.823	27.826	1284.900	1059.676
-24.809	27.789	1284.166	1058.814
-23.794	27.700	1283.050	1057.335
-22.779	27.871	1280.641	1056.297
-21.765	27.817	1279.750	1055.211
-20.750	27.820	1278.407	1054.078
-19.736	27.762	1277.441	1052.907
-18.721	27.730	1276.169	1051.632
-17.706	27.728	1274.599	1050.283
-16.692	27.701	1273.832	1049.456
-15.677	27.736	1272.895	1048.844
-14.663	27.789	1271.313	1047.799
-13.648	27.666	1270.439	1046.335
-12.633	27.708	1268.989	1045.337
-11.619	27.645	1268.852	1044.822
-10.604	27.708	1267.566	1044.083
-9.590	27.719	1266.478	1043.210
-8.575	27.643	1265.826	1042.196
-7.560	27.691	1264.793	1041.580
-6.546	27.683	1264.185	1040.990
-5.531	27.688	1263.410	1040.337
-4.517	27.804	1262.027	1039.817
-3.502	27.673	1261.563	1038.652
-2.487	27.785	1260.216	1038.134
-1.473	27.635	1256.519	1034.200
-0.458	26.194	1240.759	1013.110
0.556	21.244	1224.384	975.697
1.571	17.664	1230.356	960.234
2.586	16.827	1245.558	967.240
3.600	16.895	1234.424	958.892
4.615	15.461	1167.768	899.357
5.629	12.217	1100.967	831.423
6.644	10.565	1084.518	810.679
7.659	10.529	1082.560	808.964
8.673	10.430	1081.074	807.289
9.688	10.507	1079.374	806.331
10.702	10.691	1077.291	805.620
11.717	12.583	1078.942	816.174
12.731	15.715	1083.325	834.995
13.746	17.534	1086.008	846.032
14.761	17.507	1085.365	845.323
15.775	16.650	1082.803	839.005
16.790	15.643	1081.011	832.559
17.804	14.832	1078.860	826.820
18.819	14.397	1077.830	823.805
19.834	14.132	1077.012	821.797
20.848	13.863	1076.463	819.976
21.863	13.630	1075.370	817.923
22.877	13.682	1074.347	817.329
23.892	13.567	1073.714	816.208
24.907	13.681	1072.826	816.021
25.921	13.523	1072.088	814.612
26.936	13.540	1071.177	813.929
27.950	13.601	1069.138	812.610
28.965	13.769	1067.710	812.273
29.980	13.882	1065.704	811.228
30.994	13.867	1064.520	810.183
32.009	13.865	1064.012	809.714
33.023	13.762	1062.948	808.329
34.038	13.847	1061.495	807.569
35.053	13.710	1060.742	806.256
36.067	13.602	1060.463	805.448
37.082	13.728	1059.122	804.973
38.096	13.725	1059.082	804.857
39.111	13.770	1058.050	804.216
40.126	13.704	1056.505	802.651
41.140	13.528	1055.249	800.778
42.155	13.446	1054.113	799.446
43.169	13.562	1052.900	799.015
44.184	13.499	1051.681	797.715
45.199	13.526	1050.800	797.106
46.213	13.531	1049.745	796.259
47.228	13.558	1048.804	795.606
48.242	13.536	1047.770	794.646
49.257	13.584	1046.762	794.039
50.271	13.622	1046.051	793.613
51.286	13.598	1044.914	792.568
52.301	13.672	1043.722	791.947
53.315	13.593	1043.042	790.985
54.330	13.589	1041.995	790.099
55.344	13.603	1041.363	789.617
56.359	13.577	1040.564	788.816
57.374	13.623	1039.293	788.002
58.388	13.502	1038.347	786.639
59.403	13.500	1037.862	786.194
60.417	13.510	1036.982	785.507
61.432	13.483	1036.156	784.685
62.447	13.501	1035.244	784.009
63.461	13.365	1034.099	782.427
64.476	13.479	1033.315	782.305
65.490	13.499	1032.278	781.543
66.505	13.403	1032.157	780.932
67.520	13.488	1031.351	780.654
68.534	13.444	1030.684	779.872
69.549	13.466	1029.840	779.266
70.563	13.283	1028.937	777.655
71.578	13.354	1028.003	777.213
72.593	13.485	1026.990	776.993
73.607	13.294	1026.846	775.918
74.622	13.359	1026.024	775.536
75.636	13.388	1025.072	774.883
76.651	13.322	1024.321	773.940
77.666	13.446	1023.485	773.818
78.680	13.408	1023.245	773.388
79.695	13.416	1022.458	772.762
80.709	13.474	1021.883	772.534
81.724	13.555	1020.966	772.147
82.739	13.466	1020.616	771.401
83.753	13.572	1019.924	771.300
84.768	13.750	1018.486	770.971
85.782	13.744	1017.512	770.139
86.797	13.646	1017.237	769.411
87.812	13.595	1016.193	768.317
88.826	13.673	1014.804	767.557
89.841	13.722	1014.114	767.193
90.855	13.638	1013.570	766.329
91.870	13.896	1012.379	766.548
92.884	13.781	1011.600	765.361
93.899	13.809	1010.595	764.665
94.914	13.808	1010.074	764.199
95.928	13.784	1009.348	763.471
96.943	13.869	1007.930	762.720
97.957	13.867	1007.124	762.034
98.972	13.716	1006.683	760.937
99.987	13.755	1005.290	759.995
101.001	13.772	1004.391	759.327
102.016	13.787	1003.549	758.696
103.030	13.839	1002.933	758.399
104.045	13.773	1002.057	757.367
105.060	13.678	1001.255	756.263
106.074	13.627	1000.350	755.278
107.089	13.612	998.936	754.076
108.103	13.545	998.336	753.250
109.118	13.504	997.324	752.233
110.133	13.618	996.536	752.090
111.147	13.555	995.976	751.317
112.162	13.614	995.248	750.967
113.176	13.566	993.996	749.741
114.191	13.654	993.536	749.726
115.206	13.598	992.717	748.789
116.220	13.639	992.038	748.395
117.235	13.661	990.739	747.445
118.249	13.517	990.240	746.353
119.264	13.509	989.788	745.910
120.279	13.464	988.636	744.774
121.293	13.677	987.470	744.787
122.308	13.562	986.601	743.552
123.322	13.450	985.980	742.513
124.337	13.510	984.962	741.952
125.352	13.646	983.818	741.631
126.366	13.555	982.644	740.273
127.381	13.442	981.788	739.062
128.395	13.591	980.631	738.790
129.410	13.538	979.674	737.767
130.424	13.677	978.876	737.718
131.439	13.651	978.276	737.084
132.454	13.721	977.502	736.749
133.468	13.673	976.424	735.656
134.483	13.645	975.530	734.795
135.497	13.828	974.819	735.003
136.512	13.754	973.998	733.993
137.527	13.617	973.017	732.582
138.541	13.735	972.587	732.717
139.556	13.631	972.210	731.906
140.570	13.722	971.639	731.816
141.585	13.786	970.810	731.409
142.600	13.818	969.715	730.660
143.614	13.942	968.604	730.301
144.629	13.936	967.810	729.613
145.643	13.958	966.939	728.990
146.658	13.890	966.261	728.113
147.673	13.715	965.427	726.657
148.687	13.826	963.820	725.866
149.702	13.726	963.618	725.212
150.716	13.672	963.048	724.484
151.731	13.871	961.608	724.205
152.746	13.769	961.476	723.598
153.760	13.821	960.674	723.157
154.775	13.899	960.011	722.930
155.789	13.943	959.075	722.354
156.804	13.944	958.197	721.635
157.819	13.907	957.794	721.107
158.833	14.095	957.176	721.393
159.848	13.956	956.333	720.092
160.862	14.065	955.435	719.823
161.877	14.032	953.828	718.407
162.892	13.801	953.666	717.223
163.906	13.889	952.333	716.537
164.921	13.939	951.518	716.076
165.935	13.913	951.082	715.571
166.950	13.945	950.008	714.839
167.964	13.899	949.438	714.147
168.979	13.961	948.319	713.510
169.994	13.988	947.298	712.794
171.008	13.958	946.634	712.101
172.023	14.059	945.728	711.791
173.037	14.014	945.657	711.482
174.052	13.973	944.674	710.504
175.067	13.977	943.945	709.910
176.081	14.082	943.021	709.599
177.096	13.883	943.160	708.790
178.110	14.019	942.320	708.678
179.125	14.040	941.798	708.312
180.140	14.025	941.425	707.903
181.154	14.093	940.654	707.553
182.169	14.125	940.121	707.226
183.183	14.186	939.373	706.860
184.198	14.291	938.435	706.537
185.213	14.176	937.711	705.441
186.227	14.139	937.774	705.267
187.242	14.137	936.936	704.568
188.256	14.388	936.180	705.001
189.271	14.234	935.510	703.779
190.286	14.198	934.587	702.873
191.300	13.978	933.917	701.378
192.315	13.935	933.328	700.691
193.329	14.046	932.834	700.726
194.344	14.022	932.118	700.027
195.359	14.155	931.592	700.126
196.373	14.272	930.436	699.689
197.388	14.360	930.212	699.830
198.402	14.403	929.759	699.608
199.417	14.513	929.032	699.460
200.432	14.542	928.828	699.367
201.446	14.487	928.281	698.660
202.461	14.530	927.679	698.327
203.475	14.451	927.368	697.698
204.490	14.482	926.026	696.758
205.504	14.517	925.223	696.237
206.519	14.525	924.640	695.771
207.534	14.461	924.205	695.115
208.548	14.637	923.261	695.079
209.563	14.560	922.514	694.133
210.577	14.466	921.953	693.260
211.592	14.465	921.812	693.085
212.607	14.610	920.464	692.615
213.621	14.605	919.874	692.089
214.636	14.570	919.111	691.309
215.650	14.855	918.293	691.812
216.665	14.739	917.618	690.760
217.680	14.706	917.168	690.224
218.694	14.834	916.330	690.060
219.709	14.707	916.118	689.316
220.723	14.723	915.337	688.734
221.738	14.660	914.516	687.798
222.753	14.673	914.171	687.528
223.767	14.861	913.273	687.567
224.782	14.818	912.860	687.016
225.796	14.822	912.214	686.488
226.811	14.869	911.533	686.106
227.826	14.804	910.658	685.122
228.840	14.862	909.902	684.729
229.855	14.760	909.004	683.577
230.869	14.723	908.343	682.868
231.884	14.737	907.719	682.395
232.899	14.766	906.721	681.704
233.913	14.905	906.161	681.789
234.928	14.824	905.354	680.790
235.942	14.648	905.079	679.806
236.957	14.811	904.190	679.743
237.972	14.869	903.901	679.700
238.986	14.799	903.138	678.783
240.001	14.729	902.629	678.057
241.015	14.727	901.998	677.512
242.030	14.905	900.959	677.395
243.045	14.856	900.814	677.025
244.059	14.985	900.072	676.932
245.074	14.887	899.309	675.900
246.088	14.893	898.746	675.442
247.103	14.977	898.229	675.334
248.117	15.043	897.425	674.933
249.132	15.163	896.870	674.940
250.147	15.185	896.337	674.568
251.161	15.272	895.607	674.308
252.176	15.176	895.708	673.941
253.190	15.352	894.705	673.832
254.205	15.277	894.298	673.166
255.220	15.350	893.337	672.675
256.234	15.347	892.265	671.799
257.249	15.314	891.718	671.194
258.263	15.239	891.547	670.707
259.278	15.405	890.269	670.348
260.293	15.511	889.670	670.259
261.307	15.467	889.267	669.720
262.322	15.506	888.476	669.222
263.336	15.566	887.659	668.788
264.351	15.519	887.210	668.200
265.366	15.515	886.653	667.706
266.380	15.588	885.915	667.381
267.395	15.486	885.348	666.492
268.409	15.395	884.676	665.565
269.424	15.402	883.868	664.929
270.439	15.623	882.482	664.699
271.453	15.575	882.179	664.224
272.468	15.367	881.930	663.153
273.482	15.428	881.512	663.023
274.497	15.680	880.240	663.002
275.512	15.614	879.689	662.267
276.526	15.590	879.443	661.929
277.541	15.574	878.931	661.420
278.555	15.669	878.387	661.328
279.570	15.734	877.587	660.923
280.585	15.632	877.102	660.096
281.599	15.678	876.128	659.486
282.614	15.751	875.193	659.010
283.628	15.649	874.885	658.321
284.643	15.741	874.285	658.172
285.657	15.690	873.459	657.292
286.672	15.713	873.372	657.260
287.687	15.843	872.305	656.903
288.701	15.852	871.775	656.481
289.716	15.794	871.146	655.723
290.730	15.887	870.318	655.404
291.745	15.869	870.235	655.216
292.760	15.885	869.236	654.468
293.774	15.898	868.883	654.193
294.789	15.776	868.585	653.439
295.803	15.868	867.355	652.810
296.818	15.860	866.995	652.452
297.833	15.992	865.885	652.069
298.847	15.935	865.419	651.442
299.862	15.808	865.393	650.874
300.876	15.918	864.704	650.720
301.891	15.978	863.979	650.350
302.906	16.091	863.671	650.497
303.920	16.250	862.855	650.436
304.935	16.126	862.457	649.603
305.949	16.152	861.581	648.986
306.964	16.041	861.737	648.616
307.979	16.024	860.699	647.713
308.993	16.201	859.964	647.783
310.008	16.208	859.560	647.449
311.022	16.226	858.996	647.036
312.037	16.133	858.204	646.026
313.052	16.114	857.689	645.506
314.066	16.127	857.022	644.999
315.081	16.180	856.440	644.706
316.095	16.181	855.951	644.284
317.110	16.164	855.580	643.885
318.125	16.117	854.861	643.106
319.139	16.062	854.795	642.790
320.154	16.058	854.466	642.471
321.168	16.255	853.371	642.338
322.183	16.232	852.548	641.576
323.197	16.204	852.386	641.289
324.212	16.258	851.778	640.983
325.227	16.317	851.405	640.868
326.241	16.105	850.950	639.665
327.256	16.352	849.932	639.778
328.270	16.279	849.372	639.025
329.285	16.086	849.076	638.015
330.300	16.142	848.565	637.784
331.314	16.213	848.160	637.694
332.329	16.319	847.528	637.563
333.343	16.405	847.197	637.580
334.358	16.451	846.588	637.241
335.373	16.411	845.983	636.579
336.387	16.275	846.204	636.174
337.402	16.499	845.663	636.555
338.416	16.554	845.041	636.239
339.431	16.516	844.982	635.993
340.446	16.514	844.650	635.679
341.460	16.666	844.423	636.025
342.475	16.677	843.468	635.291
343.489	16.733	843.133	635.193
344.504	16.759	842.832	635.004
345.519	16.441	842.302	633.360
346.533	16.724	841.554	633.801
347.548	16.557	841.217	632.867
348.562	16.586	840.470	632.357
349.577	16.620	839.975	632.055
350.592	16.631	839.412	631.617
351.606	16.470	838.888	630.565
352.621	16.678	837.973	630.596
353.635	16.731	837.433	630.333
354.650	16.667	836.625	629.429
355.665	16.672	836.338	629.176
356.679	16.729	835.462	628.674
357.694	16.837	834.687	628.435
358.708	16.710	833.915	627.329
359.723	16.870	833.544	627.587
360.738	16.799	833.223	627.025
361.752	16.827	832.653	626.645
362.767	16.823	832.053	626.123
363.781	17.019	831.518	626.388
364.796	17.104	830.789	626.099
365.810	17.018	830.675	625.640
366.825	17.163	830.458	625.955
367.840	17.122	829.748	625.215
368.854	16.958	829.148	624.104
369.869	17.024	828.788	624.020
370.883	17.170	828.234	624.085
371.898	17.132	828.040	623.742
372.913	17.150	827.582	623.407
373.927	17.212	827.122	623.234
374.942	17.194	826.488	622.636
375.956	17.214	826.001	622.286
376.971	17.344	825.729	622.501
377.986	17.267	825.551	622.033
379.000	17.440	824.501	621.816
380.015	17.329	824.183	621.117
381.029	17.255	823.502	620.280
382.044	17.331	823.187	620.264
383.059	17.461	822.393	620.083
384.073	17.211	822.437	619.153
385.088	17.256	821.415	618.491
386.102	17.181	821.061	617.896
387.117	17.220	820.422	617.502
388.132	17.310	819.540	617.112
389.146	17.274	819.203	616.672
390.161	17.419	818.753	616.804
391.175	17.384	818.331	616.306
392.190	17.296	817.897	615.605
393.205	17.318	817.116	615.041
394.219	17.515	816.557	615.280
395.234	17.403	816.128	614.497
396.248	17.281	815.707	613.686
397.263	17.250	815.516	613.375
398.278	17.289	815.346	613.334
399.292	17.296	814.787	612.886
400.307	17.265	814.026	612.148
401.321	17.259	814.093	612.123
402.336	17.512	813.168	612.283
403.350	17.564	812.588	611.979
404.365	17.481	812.571	611.611
405.380	17.576	811.811	611.325
406.394	17.544	811.446	610.883
407.409	17.728	810.664	610.899
408.423	17.745	810.663	610.907
409.438	17.648	810.429	610.327
410.453	17.847	809.903	610.592
411.467	17.684	809.476	609.631
412.482	17.782	809.179	609.702
413.496	17.858	808.773	609.614
414.511	17.828	808.499	609.247
415.526	17.751	807.930	608.490
416.540	17.914	807.212	608.478
417.555	17.823	806.877	607.845
418.569	17.799	806.316	607.283
419.584	17.819	806.181	607.200
420.599	17.806	805.646	606.698
421.613	111.553	1294.538	1477.061
422.628	96.257	1365.776	1477.163
