DTS Sentinel unit serial number:	SN413079Multiplexer serial number:	ORYXHardware model number:	OX4-SRSoftware version number:	ORYX F/W v4.00 Oryx Data Collector v3.7.2.0data status	okinstallation	princeton_trtdifferential loss correction	single-endedforward channel	channel 1reverse channel	N/Adate	2019/09/17time	01:46:35forward acquisition time	60.00reverse acquisition time	0.00gamma	496.2192k internal	0.2324k external	0.2324temperature offset calibration	0.9956default loss term (dB/km)	0.3790temperature slope calibration	1.0000multiplexer offset coefficient	1.0000multiplexer slope coefficient	1.0000fibre end	0.00T internal ref (°C)	29.58T ext. ref 1 (°C)	0.11T ext. ref 2 (°C)	24.56length (m)	temperature (°C)	Stokes	anti-Stokes-747.200	490.060	-0.117	0.270
-746.185	-103.978	-0.236	0.056
-745.171	-170.175	0.215	0.008
-744.156	46.519	-0.369	0.346
-743.142	300.564	0.169	0.315
-742.127	-27.994	-0.075	0.044
-741.112	366.507	0.126	-0.256
-740.098	-109.873	-0.407	0.086
-739.083	-200.000	0.023	0.245
-738.069	-145.294	-0.081	-0.007
-737.054	136.680	0.026	-0.034
-736.039	-101.528	-0.226	-0.055
-735.025	130.960	0.185	0.239
-734.010	-153.205	-0.443	-0.031
-732.996	-23.877	-0.321	-0.194
-731.981	-120.557	-0.063	0.011
-730.966	800.000	-0.033	-0.132
-729.952	36.254	0.127	0.113
-728.937	435.500	-0.090	-0.198
-727.923	341.363	0.116	0.228
-726.908	-23.816	-0.092	-0.056
-725.894	-200.000	0.001	-0.180
-724.879	51.037	0.192	0.184
-723.864	800.000	-0.045	0.191
-722.850	800.000	-0.080	-0.324
-721.835	800.000	-0.066	0.192
-720.821	-102.959	0.237	-0.057
-719.806	-3.613	-0.190	0.133
-718.791	627.266	0.058	-0.147
-717.777	45.798	0.070	-0.065
-716.762	-0.667	-0.144	0.103
-715.748	800.000	0.140	-0.426
-714.733	160.806	0.370	0.522
-713.718	-51.004	-0.268	0.127
-712.704	-93.541	0.171	-0.048
-711.689	374.094	0.133	-0.273
-710.675	-102.774	0.171	0.041
-709.660	-105.306	0.114	0.026
-708.645	-194.326	-0.094	-0.001
-707.631	330.846	-0.015	-0.030
-706.616	225.219	-0.269	-0.439
-705.602	621.911	0.091	0.231
-704.587	-142.280	0.191	-0.019
-703.572	72.540	0.261	-0.274
-702.558	-19.167	0.162	0.101
-701.543	-7.265	0.148	0.101
-700.529	-120.722	-0.205	0.035
-699.514	322.922	0.060	-0.115
-698.499	-200.000	0.005	-0.057
-697.485	-168.358	0.398	0.015
-696.470	-87.070	-0.189	-0.058
-695.456	-125.319	-0.187	0.029
-694.441	-4.835	0.023	0.016
-693.426	72.491	0.243	0.255
-692.412	-98.513	0.183	-0.047
-691.397	-200.000	0.031	-0.300
-690.383	62.973	0.222	-0.224
-689.368	-200.000	-0.056	-0.319
-688.354	800.000	-0.082	0.282
-687.339	800.000	-0.055	-0.211
-686.324	-83.335	-0.007	-0.002
-685.310	-200.000	0.023	-0.102
-684.295	69.067	-0.106	-0.110
-683.281	155.736	-0.072	-0.100
-682.266	-20.883	-0.460	-0.284
-681.251	-89.229	-0.411	-0.122
-680.237	-20.117	0.382	0.237
-679.222	446.128	0.061	-0.134
-678.208	-200.000	-0.005	0.339
-677.193	-42.296	-0.280	0.144
-676.178	-53.042	0.174	-0.081
-675.164	38.636	-0.093	-0.084
-674.149	-147.796	0.429	0.036
-673.135	778.786	-0.103	0.284
-672.120	176.406	0.079	0.116
-671.105	-200.000	0.013	-0.242
-670.091	506.469	0.147	-0.344
-669.076	48.800	-0.075	0.071
-668.062	-102.170	0.036	-0.009
-667.047	144.366	0.159	0.214
-666.032	-200.000	0.044	-0.386
-665.018	217.607	-0.054	0.087
-664.003	218.528	0.023	-0.037
-662.989	187.757	-0.075	0.113
-661.974	371.680	-0.149	0.305
-660.959	800.000	-0.031	0.119
-659.945	-19.044	-0.118	-0.074
-658.930	-33.500	0.229	-0.127
-657.916	-200.000	0.049	-0.323
-656.901	-200.000	-0.020	0.199
-655.886	-200.000	-0.008	0.126
-654.872	270.166	-0.096	-0.169
-653.857	89.762	0.124	-0.139
-652.843	-174.826	0.266	0.008
-651.828	-136.582	0.102	-0.012
-650.814	263.565	-0.078	-0.137
-649.799	-200.000	-0.023	-0.224
-648.784	-33.087	0.329	0.184
-647.770	-200.000	-0.038	-0.495
-646.755	194.999	-0.143	-0.219
-645.741	86.385	0.433	-0.480
-644.726	-63.387	-0.010	0.004
-643.711	139.830	-0.085	-0.113
-642.697	-200.000	0.016	-0.134
-641.682	10.977	-0.431	-0.331
-640.668	-138.080	0.181	-0.020
-639.653	-75.225	-0.252	-0.091
-638.638	-51.760	-0.134	0.063
-637.624	156.386	-0.327	0.454
-636.609	12.420	-0.378	0.293
-635.595	-200.000	-0.101	-0.530
-634.580	800.000	-0.057	0.194
-633.565	-115.092	0.208	0.040
-632.551	411.571	-0.212	0.453
-631.536	678.337	-0.133	0.349
-630.522	-16.625	-0.081	0.051
-629.507	-32.658	0.414	0.231
-628.492	800.000	0.036	-0.103
-627.478	-112.373	0.337	-0.068
-626.463	-139.873	0.114	0.012
-625.449	-87.792	-0.174	-0.053
-624.434	799.624	-0.087	-0.241
-623.419	100.874	-0.126	-0.147
-622.405	306.929	0.171	0.320
-621.390	-122.383	0.080	-0.013
-620.376	-49.959	0.317	0.151
-619.361	-61.642	0.211	0.089
-618.346	-200.000	-0.016	0.187
-617.332	684.035	-0.016	-0.042
-616.317	-200.000	-0.018	0.324
-615.303	535.993	0.080	0.190
-614.288	-200.000	-0.011	-0.245
-613.273	15.044	-0.207	-0.163
-612.259	396.793	-0.026	-0.054
-611.244	-200.000	-0.028	0.165
-610.230	-9.120	0.157	0.106
-609.215	-51.790	0.132	0.062
-608.201	70.324	0.099	-0.103
-607.186	800.000	0.025	0.096
-606.171	-69.900	0.126	0.048
-605.157	-117.447	0.237	0.043
-604.142	-93.943	0.158	-0.043
-603.128	590.320	0.091	0.226
-602.113	-103.714	0.227	0.053
-601.098	-72.227	0.189	-0.070
-600.084	800.000	-0.070	0.249
-599.069	100.172	-0.035	-0.040
-598.055	54.811	-0.128	-0.124
-597.040	-120.506	-0.298	0.051
-596.025	635.154	-0.052	-0.133
-595.011	93.866	-0.072	-0.082
-593.996	-36.060	0.083	-0.045
-592.982	331.265	-0.056	-0.109
-591.967	-113.922	0.136	0.027
-590.952	-36.451	-0.046	0.025
-589.938	371.498	-0.048	0.098
-588.923	52.355	0.123	0.118
-587.909	37.043	0.049	0.044
-586.894	37.209	-0.360	0.320
-585.879	-91.674	-0.073	0.021
-584.865	-32.562	-0.410	0.229
-583.850	2.284	-0.151	-0.110
-582.836	-200.000	0.087	-0.446
-581.821	-200.000	-0.011	-0.105
-580.806	-131.675	0.113	-0.015
-579.792	514.403	-0.053	-0.123
-578.777	-154.777	-0.203	-0.014
-577.763	-200.000	0.028	-0.172
-576.748	-33.429	-0.210	-0.116
-575.733	257.625	0.067	-0.116
-574.719	-47.710	-0.247	0.120
-573.704	-200.000	-0.049	0.323
-572.690	88.480	-0.116	0.129
-571.675	-94.139	0.131	-0.036
-570.661	-200.000	0.013	0.326
-569.646	-24.622	-0.120	0.072
-568.631	190.743	-0.016	-0.025
-567.617	115.057	0.100	-0.122
-566.602	-92.543	0.113	-0.032
-565.588	620.833	-0.060	0.151
-564.573	-117.152	-0.172	-0.031
-563.558	-82.025	0.197	0.064
-562.544	174.724	-0.043	-0.062
-561.529	-28.094	-0.233	-0.135
-560.515	279.938	-0.099	0.178
-559.500	-113.823	0.205	0.040
-558.485	-58.846	0.333	0.144
-557.471	-29.354	-0.200	-0.115
-556.456	-19.908	-0.093	0.058
-555.442	-0.455	0.147	0.104
-554.427	800.000	-0.061	-0.223
-553.412	800.000	-0.064	0.243
-552.398	-118.150	-0.146	0.026
-551.383	111.772	-0.102	-0.123
-550.369	-200.000	-0.046	-0.292
-549.354	755.499	-0.031	-0.083
-548.339	-36.493	0.337	0.182
-547.325	-8.349	-0.052	0.035
-546.310	-91.403	0.362	-0.104
-545.296	-38.928	0.274	-0.145
-544.281	-200.000	-0.008	0.096
-543.266	-23.135	-0.041	-0.025
-542.252	318.739	-0.074	0.140
-541.237	800.000	0.077	-0.221
-540.223	25.149	-0.174	0.144
-539.208	40.885	0.179	0.162
-538.193	800.000	0.023	0.076
-537.179	-120.100	-0.362	-0.062
-536.164	25.637	0.213	-0.178
-535.150	-200.000	-0.000	0.543
-534.135	494.064	0.048	-0.111
-533.121	-200.000	0.011	-0.174
-532.106	-2.443	0.112	0.079
-531.091	-130.404	-0.107	-0.015
-530.077	23.710	0.230	0.190
-529.062	112.268	0.161	-0.194
-528.048	265.052	0.095	0.166
-527.033	82.995	-0.143	0.156
-526.018	451.035	0.073	-0.162
-525.004	193.521	0.248	0.376
-523.989	-43.071	0.194	0.098
-522.975	-0.800	-0.058	0.041
-521.960	-79.240	0.183	-0.062
-520.945	-200.000	-0.026	-0.197
-519.931	101.283	-0.211	-0.246
-518.916	-200.000	-0.003	-0.210
-517.902	-200.000	0.022	0.244
-516.887	167.171	-0.263	-0.374
-515.872	800.000	0.129	-0.508
-514.858	-200.000	-0.003	0.147
-513.843	-35.726	-0.293	0.159
-512.829	280.459	-0.037	-0.067
-511.814	-120.812	0.343	-0.058
-510.799	340.119	0.160	0.313
-509.785	-200.000	0.005	-0.030
-508.770	226.007	0.092	0.150
-507.756	-48.378	0.335	0.162
-506.741	-25.734	0.174	0.103
-505.726	48.904	-0.184	-0.173
-504.712	99.260	-0.081	0.093
-503.697	2.639	-0.289	-0.209
-502.683	-23.456	-0.413	-0.248
-501.668	-71.519	-0.260	0.097
-500.653	-200.000	0.044	-0.228
-499.639	79.550	0.119	0.128
-498.624	-200.000	0.042	0.407
-497.610	800.000	0.068	0.195
-496.595	-92.691	0.220	0.062
-495.581	800.000	0.053	0.228
-494.566	800.000	-0.015	-0.043
-493.551	94.841	0.137	-0.156
-492.537	800.000	-0.050	-0.212
-491.522	800.000	0.066	0.214
-490.508	-82.738	0.180	0.058
-489.493	-53.783	-0.113	-0.051
-488.478	-200.000	-0.016	0.184
-487.464	5.689	0.134	0.099
-486.449	142.408	-0.173	0.229
-485.435	221.786	-0.095	0.153
-484.420	-200.000	0.003	-0.063
-483.405	-133.537	0.297	-0.037
-482.391	501.070	-0.089	-0.206
-481.376	-74.739	-0.091	-0.033
-480.362	-36.738	0.405	0.218
-479.347	291.588	-0.076	0.138
-478.332	-200.000	0.007	0.108
-477.318	-60.862	-0.134	-0.057
-476.303	-57.978	-0.195	-0.085
-475.289	-103.322	-0.096	-0.023
-474.274	-26.730	0.251	0.147
-473.259	-146.586	0.149	-0.013
-472.245	299.295	0.132	0.243
-471.230	253.237	0.104	-0.177
-470.216	94.444	-0.028	0.032
-469.201	333.852	0.137	0.265
-468.186	245.306	-0.055	0.093
-467.172	187.761	0.167	0.248
-466.157	58.712	-0.125	-0.123
-465.143	765.260	0.164	0.445
-464.128	-141.968	-0.147	0.015
-463.113	-20.339	-0.179	-0.110
-462.099	461.563	-0.124	-0.275
-461.084	-200.000	-0.020	0.090
-460.070	-154.981	0.386	0.025
-459.055	-38.693	0.248	-0.131
-458.040	15.452	0.309	-0.243
-457.026	-71.376	0.386	0.144
-456.011	-52.766	-0.172	0.079
-454.997	-6.543	0.144	-0.098
-453.982	-200.000	0.058	-0.308
-452.968	-152.820	-0.241	-0.017
-451.953	800.000	0.055	0.205
-450.938	-28.861	-0.118	0.067
-449.924	-200.000	0.002	-0.151
-448.909	-93.439	0.127	0.035
-447.895	-3.387	-0.230	-0.160
-446.880	-14.796	-0.287	0.184
-445.865	-154.658	-0.259	-0.017
-444.851	352.197	0.132	-0.262
-443.836	21.847	-0.167	-0.136
-442.822	-35.240	-0.347	0.189
-441.807	475.223	-0.082	-0.185
-440.792	-56.828	-0.374	-0.165
-439.778	-110.099	-0.044	0.009
-438.763	21.914	0.179	-0.145
-437.749	155.964	-0.115	0.158
-436.734	-96.101	0.252	-0.067
-435.719	-45.381	-0.410	-0.203
-434.705	-73.738	-0.532	-0.193
-433.690	-52.959	0.188	-0.086
-432.676	12.584	0.123	0.094
-431.661	536.092	0.067	-0.158
-430.646	-18.273	-0.248	0.154
-429.632	465.185	0.145	-0.323
-428.617	-200.000	0.022	-0.292
-427.603	-132.811	0.196	0.025
-426.588	-14.789	-0.043	0.028
-425.573	-32.748	-0.124	-0.069
-424.559	-142.850	-0.263	0.025
-423.544	313.808	0.044	-0.083
-422.530	590.091	0.037	-0.090
-421.515	396.710	-0.199	0.414
-420.500	58.134	0.083	-0.081
-419.486	-200.000	0.036	0.326
-418.471	-140.936	-0.313	0.032
-417.457	560.355	-0.065	-0.156
-416.442	-76.959	0.154	-0.054
-415.428	-87.247	-0.369	-0.112
-414.413	-200.000	0.015	0.145
-413.398	629.690	-0.108	-0.273
-412.384	140.924	0.174	-0.230
-411.369	-95.643	0.218	0.058
-410.355	-51.763	-0.239	0.111
-409.340	232.370	0.221	-0.362
-408.325	-75.422	0.247	-0.088
-407.311	73.672	-0.148	0.154
-406.296	42.980	-0.284	-0.258
-405.282	800.000	0.055	-0.181
-404.267	-148.381	0.287	-0.023
-403.252	-7.435	0.267	-0.180
-402.238	-200.000	-0.011	-0.429
-401.223	800.000	0.012	-0.035
-400.209	-3.765	-0.247	-0.171
-399.194	-200.000	0.021	0.336
-398.179	-12.353	-0.213	0.138
-397.165	380.620	-0.189	0.386
-396.150	-200.000	0.051	-0.341
-395.136	58.145	-0.282	-0.276
-394.121	21.471	0.109	-0.088
-393.106	770.311	0.110	-0.299
-392.092	241.574	-0.036	-0.059
-391.077	-200.000	0.006	0.085
-390.063	-6.942	0.409	-0.276
-389.048	533.671	0.075	-0.177
-388.033	-34.460	0.223	-0.122
-387.019	371.872	-0.110	0.222
-386.004	-79.383	-0.147	0.049
-384.990	800.000	-0.081	-0.348
-383.975	-200.000	0.011	-0.138
-382.960	83.629	-0.099	-0.107
-381.946	-50.955	-0.159	-0.074
-380.931	-71.579	-0.162	-0.060
-379.917	7.839	-0.110	0.082
-378.902	-111.732	-0.101	0.020
-377.888	22.109	0.312	-0.254
-376.873	-73.128	0.194	0.071
-375.858	800.000	0.094	-0.367
-374.844	425.247	-0.146	-0.312
-373.829	452.718	-0.130	0.286
-372.815	153.938	0.186	0.254
-371.800	-13.892	-0.105	0.068
-370.785	-100.586	0.536	0.132
-369.771	-60.651	0.256	-0.108
-368.756	800.000	-0.034	-0.101
-367.742	126.563	0.117	0.148
-366.727	106.947	0.271	0.321
-365.712	800.000	-0.059	-0.255
-364.698	-85.905	0.264	-0.081
-363.683	800.000	0.163	-0.474
-362.669	-80.025	0.148	-0.049
-361.654	-126.198	0.246	-0.037
-360.639	-113.354	0.110	-0.022
-359.625	0.614	-0.177	0.126
-358.610	800.000	0.045	-0.133
-357.596	-141.718	0.398	0.040
-356.581	-46.710	-0.246	0.120
-355.566	80.772	-0.050	-0.053
-354.552	-200.000	-0.094	0.463
-353.537	-124.861	-0.128	0.020
-352.523	-49.341	-0.069	-0.033
-351.508	-72.444	0.165	0.061
-350.493	115.366	-0.281	-0.341
-349.479	86.654	-0.214	0.235
-348.464	-165.904	-0.150	-0.006
-347.450	245.455	-0.047	-0.078
-346.435	800.000	-0.072	-0.285
-345.420	-48.680	-0.061	-0.029
-344.406	48.438	-0.120	0.112
-343.391	-137.560	-0.158	-0.018
-342.377	-101.878	0.197	-0.047
-341.362	309.462	0.177	0.329
-340.348	164.542	0.013	-0.019
-339.333	148.362	0.253	0.339
-338.318	-90.433	0.151	-0.044
-337.304	800.000	0.064	-0.274
-336.289	800.000	0.042	0.158
-335.275	646.964	-0.052	0.132
-334.260	-200.000	-0.004	0.351
-333.245	-200.000	-0.013	0.121
-332.231	-200.000	-0.001	0.029
-331.216	94.547	0.118	0.133
-330.202	145.756	-0.183	-0.243
-329.187	-83.506	0.240	0.076
-328.172	-66.221	-0.065	-0.026
-327.158	-87.849	-0.110	0.033
-326.143	800.000	-0.040	-0.123
-325.129	-62.837	0.308	0.127
-324.114	46.742	-0.226	-0.208
-323.099	-200.000	-0.054	0.308
-322.085	-30.444	0.512	-0.289
-321.070	800.000	0.029	-0.120
-320.056	305.500	-0.123	0.228
-319.041	-152.888	-0.107	0.008
-318.026	800.000	0.050	-0.155
-317.012	-144.015	0.356	0.033
-315.997	-155.944	-0.266	-0.017
-314.983	-82.579	0.020	0.006
-313.968	800.000	0.058	0.230
-312.953	255.740	-0.242	-0.412
-311.939	66.205	-0.147	0.149
-310.924	-35.731	-0.347	0.187
-309.910	-129.705	0.172	-0.024
-308.895	-197.902	-0.046	0.000
-307.880	79.184	0.089	-0.095
-306.866	64.692	-0.255	0.256
-305.851	294.696	0.163	0.295
-304.837	-186.365	-0.178	-0.003
-303.822	50.633	-0.083	0.078
-302.807	130.899	-0.199	-0.253
-301.793	56.771	-0.119	0.115
-300.778	-45.186	0.252	0.124
-299.764	-200.000	0.024	-0.132
-298.749	-87.744	0.192	-0.057
-297.735	253.285	-0.039	0.067
-296.720	800.000	0.037	0.117
-295.705	-83.599	-0.381	-0.121
-294.691	43.625	-0.021	0.019
-293.676	117.176	0.127	-0.154
-292.662	247.861	0.101	0.169
-291.647	302.206	0.085	0.156
-290.632	454.984	-0.132	0.291
-289.618	800.000	0.037	0.153
-288.603	-151.846	0.427	-0.031
-287.589	98.682	-0.265	0.304
-286.574	-76.842	-0.235	0.082
-285.559	288.368	-0.150	-0.270
-284.545	42.700	0.021	-0.019
-283.530	-41.754	-0.217	-0.111
-282.516	-200.000	-0.059	-0.343
-281.501	479.428	0.078	-0.176
-280.486	800.000	-0.051	0.198
-279.472	214.292	0.132	-0.208
-278.457	65.994	-0.320	-0.322
-277.443	-200.000	-0.065	0.322
-276.428	-200.000	-0.026	0.414
-275.413	241.323	-0.156	-0.259
-274.399	217.059	0.023	0.036
-273.384	-200.000	-0.000	-0.011
-272.370	255.953	0.028	0.047
-271.355	-200.000	0.065	0.350
-270.340	-146.701	0.144	-0.012
-269.326	-134.665	0.024	0.003
-268.311	429.247	0.221	0.474
-267.297	-20.359	0.309	-0.189
-266.282	-200.000	0.026	-0.164
-265.267	800.000	0.060	0.169
-264.253	150.162	-0.181	-0.243
-263.238	-22.611	0.044	0.026
-262.224	167.339	-0.167	0.235
-261.209	-200.000	0.022	0.173
-260.195	800.000	0.171	-0.517
-259.180	28.300	-0.245	-0.205
-258.165	-0.258	-0.201	0.142
-257.151	295.023	0.115	0.208
-256.136	-129.508	-0.200	-0.027
-255.122	-92.736	-0.313	0.087
-254.107	45.074	0.159	-0.146
-253.092	800.000	0.031	-0.110
-252.078	190.674	-0.240	-0.357
-251.063	-79.144	-0.244	-0.082
-250.049	-200.000	0.041	0.233
-249.034	-114.950	-0.420	-0.079
-248.019	-90.005	-0.197	-0.057
-247.005	142.205	0.117	0.153
-245.990	-123.864	-0.441	-0.069
-244.976	-135.317	-0.373	-0.044
-243.961	-200.000	-0.026	-0.311
-242.946	255.095	0.039	0.066
-241.932	338.789	0.030	0.057
-240.917	54.616	0.140	-0.133
-239.903	-200.000	-0.031	0.161
-238.888	-200.000	-0.091	0.581
-237.873	-18.647	0.112	0.069
-236.859	207.267	-0.099	0.153
-235.844	70.599	-0.180	0.184
-234.830	-200.000	0.343	-0.001
-233.815	29.266	-0.338	0.284
-232.800	800.000	0.053	-0.156
-231.786	38.677	-0.146	0.129
-230.771	-117.532	0.281	-0.050
-229.757	-26.852	-0.052	-0.030
-228.742	-79.017	-0.035	-0.012
-227.727	-2.515	0.207	0.143
-226.713	-116.297	-0.380	0.070
-225.698	258.108	0.027	-0.045
-224.684	48.299	-0.096	-0.089
-223.669	-200.000	-0.040	0.394
-222.655	-46.884	-0.149	-0.072
-221.640	-113.403	-0.118	0.023
-220.625	-26.143	-0.265	-0.154
-219.611	411.410	-0.021	0.044
-218.596	793.496	0.066	-0.180
-217.582	800.000	-0.010	0.036
-216.567	-45.890	0.218	-0.107
-215.552	800.000	-0.068	-0.253
-214.538	560.751	0.036	0.085
-213.523	-102.919	0.232	0.055
-212.509	226.328	-0.062	-0.099
-211.494	-68.566	0.271	0.104
-210.479	201.595	0.133	0.202
-209.465	-69.476	0.217	-0.082
-208.450	696.857	0.094	0.243
-207.436	-200.000	0.004	0.026
-206.421	51.045	-0.124	0.116
-205.406	-15.031	0.196	0.124
-204.392	293.889	0.134	-0.242
-203.377	504.257	0.050	0.115
-202.363	-29.617	-0.178	0.100
-201.348	800.000	0.027	-0.093
-200.333	800.000	-0.055	-0.214
-199.319	109.385	0.281	0.333
-198.304	148.423	0.112	0.149
-197.290	48.113	-0.218	-0.202
-196.275	-200.000	0.013	0.220
-195.260	-41.601	-0.092	0.047
-194.246	139.362	0.159	0.207
-193.231	-144.106	-0.240	0.022
-192.217	-114.891	-0.256	0.048
-191.202	47.940	0.199	0.184
-190.187	483.836	-0.029	-0.065
-189.173	18.848	0.209	0.166
-188.158	-84.586	-0.490	0.153
-187.144	179.580	0.215	-0.311
-186.129	236.646	-0.098	-0.160
-185.114	769.598	0.040	-0.108
-184.100	97.643	0.173	-0.197
-183.085	800.000	-0.070	0.298
-182.071	27.709	0.216	-0.179
-181.056	61.414	0.060	0.059
-180.042	-11.291	-0.129	0.084
-179.027	-134.507	0.201	0.024
-178.012	-32.580	0.109	0.060
-176.998	25.660	-0.160	0.132
-175.983	-30.298	0.721	-0.404
-174.969	38.797	-0.110	0.097
-173.954	800.000	-0.080	-0.230
-172.939	-79.678	-0.230	0.077
-171.925	-199.201	0.087	-0.000
-170.910	-140.904	0.407	0.041
-169.896	-95.916	0.273	-0.072
-168.881	63.566	-0.304	-0.302
-167.866	-41.900	-0.313	-0.159
-166.852	-200.000	0.005	-0.185
-165.837	-78.258	0.363	0.123
-164.823	-200.000	-0.028	-0.267
-163.808	-73.848	0.183	0.066
-162.793	-142.981	-0.313	0.030
-161.779	-113.944	0.040	0.008
-160.764	-69.749	0.271	-0.102
-159.750	800.000	-0.063	0.176
-158.735	368.626	-0.121	-0.242
-157.720	-123.839	0.187	0.029
-156.706	-93.024	-0.161	0.044
-155.691	-77.193	0.117	-0.040
-154.677	133.571	0.258	0.329
-153.662	-74.980	0.189	0.067
-152.647	492.262	-0.151	-0.340
-151.633	616.450	-0.084	-0.209
-150.618	-138.432	-0.445	0.048
-149.604	359.772	-0.085	0.167
-148.589	50.936	-0.159	-0.148
-147.574	-45.871	0.149	0.072
-146.560	57.092	0.015	-0.015
-145.545	-200.000	-0.018	0.114
-144.531	454.680	0.132	0.290
-143.516	800.000	-0.027	-0.113
-142.502	-200.000	0.019	-0.217
-141.487	79.844	0.178	-0.188
-140.472	-38.414	-0.183	0.096
-139.458	14.865	0.122	-0.094
-138.443	-200.000	0.026	0.244
-137.429	-119.737	0.405	-0.069
-136.414	225.706	-0.029	-0.046
-135.399	-65.562	-0.038	0.015
-134.385	-200.000	0.062	0.327
-133.370	-25.375	0.217	-0.127
-132.356	66.299	0.201	0.201
-131.341	-48.962	-0.034	-0.016
-130.326	48.383	-0.025	0.023
-129.312	-68.620	-0.276	-0.105
-128.297	-200.000	0.032	0.149
-127.283	-200.000	-0.002	0.070
-126.268	726.858	-0.101	0.265
-125.253	800.000	-0.063	0.263
-124.239	-92.214	0.246	-0.068
-123.224	205.321	-0.095	-0.145
-122.210	-173.073	-0.029	0.001
-121.195	257.929	-0.251	-0.425
-120.180	523.954	0.060	-0.140
-119.166	117.851	-0.300	0.364
-118.151	-146.439	-0.127	0.011
-117.137	-119.103	0.267	0.046
-116.122	-200.000	-0.037	0.188
-115.107	294.407	0.185	0.332
-114.093	94.156	-0.151	0.169
-113.078	-121.968	0.142	0.023
-112.064	337.758	-0.207	-0.396
-111.049	0.859	0.268	0.189
-110.034	-37.225	0.110	0.058
-109.020	24.035	-0.123	-0.100
-108.005	-200.000	0.007	0.170
-106.991	146.580	-0.157	-0.207
-105.976	520.523	0.131	-0.303
-104.962	37.888	-0.112	0.098
-103.947	-37.673	0.364	-0.191
-102.932	-101.443	-0.190	0.046
-101.918	-200.000	-0.042	-0.490
-100.903	-200.000	-0.001	0.260
-99.889	662.689	-0.013	-0.034
-98.874	-61.144	-0.214	-0.089
-97.859	-88.910	-0.347	0.101
-96.845	-119.982	0.133	0.023
-95.830	-200.000	0.050	-0.359
-94.816	210.316	0.080	0.124
-93.801	-183.670	-0.087	0.001
-92.786	-97.288	0.147	-0.038
-91.772	49.048	0.267	0.247
-90.757	-83.703	-0.219	-0.069
-89.743	-117.937	0.149	0.026
-88.728	60.341	-0.158	-0.154
-87.713	-200.000	-0.015	-0.088
-86.699	-61.128	-0.312	-0.130
-85.684	204.903	-0.179	0.273
-84.670	-200.000	0.016	-0.289
-83.655	95.334	0.181	0.202
-82.640	-200.000	0.018	0.102
-81.626	-200.000	0.001	0.053
-80.611	800.000	0.063	0.204
-79.597	283.595	0.105	0.186
-78.582	-200.000	0.030	0.186
-77.567	-69.222	0.159	0.060
-76.553	-200.000	0.007	0.182
-75.538	-133.028	-0.306	0.038
-74.524	129.442	0.091	0.114
-73.509	186.099	0.197	-0.288
-72.494	-87.103	0.182	-0.055
-71.480	83.468	0.109	0.117
-70.465	-88.720	0.060	-0.018
-69.451	116.377	-0.061	0.074
-68.436	-76.025	0.077	-0.027
-67.422	-200.000	0.067	0.598
-66.407	-200.000	-0.013	0.340
-65.392	211.689	0.042	0.065
-64.378	-200.000	0.064	-0.284
-63.363	272.689	-0.099	0.172
-62.349	160.020	-0.204	0.280
-61.334	95.967	-1.255	-1.409
-60.319	-77.580	0.535	0.182
-59.305	800.000	-0.325	-1.145
-58.290	158.859	0.872	1.191
-57.276	360.347	0.806	1.585
-56.261	-200.000	106.954	582.321
-55.246	445.346	1472.880	3179.337
-54.232	147.311	2656.894	3514.956
-53.217	105.770	2157.988	2508.343
-52.203	40.863	1606.644	1424.565
-51.188	32.981	1345.632	1145.517
-50.173	29.973	1305.353	1093.454
-49.159	53.570	1358.792	1281.021
-48.144	54.197	1373.593	1298.692
-47.130	33.152	1329.376	1132.522
-46.115	29.751	1311.336	1096.976
-45.100	29.464	1307.381	1091.922
-44.086	29.640	1303.952	1090.054
-43.071	29.442	1301.850	1087.090
-42.057	29.499	1299.305	1085.258
-41.042	29.298	1298.448	1083.314
-40.027	29.534	1296.348	1082.905
-39.013	29.443	1294.439	1080.734
-37.998	29.456	1292.868	1079.455
-36.984	29.532	1291.101	1078.379
-35.969	29.575	1289.141	1076.954
-34.954	29.614	1287.661	1075.902
-33.940	29.566	1286.581	1074.678
-32.925	29.603	1285.500	1073.945
-31.911	29.584	1283.660	1072.258
-30.896	29.693	1282.191	1071.618
-29.881	29.743	1280.761	1070.670
-28.867	29.572	1279.724	1068.773
-27.852	29.713	1277.931	1068.045
-26.838	29.720	1276.400	1066.765
-25.823	29.676	1275.549	1065.758
-24.809	29.624	1274.392	1064.450
-23.794	29.657	1272.624	1063.122
-22.779	29.685	1271.575	1062.365
-21.765	29.701	1270.227	1061.288
-20.750	29.729	1268.681	1060.111
-19.736	29.475	1267.793	1057.872
-18.721	29.465	1266.733	1056.890
-17.706	29.597	1264.944	1056.111
-16.692	29.576	1263.898	1055.075
-15.677	29.475	1262.865	1053.594
-14.663	29.507	1261.805	1052.850
-13.648	29.528	1260.799	1052.090
-12.633	29.480	1260.162	1051.242
-11.619	29.493	1259.133	1050.415
-10.604	29.530	1258.092	1049.717
-9.590	29.559	1256.782	1048.747
-8.575	29.550	1256.300	1048.249
-7.560	29.653	1254.735	1047.490
-6.546	29.557	1254.433	1046.651
-5.531	29.550	1253.249	1045.578
-4.517	29.477	1252.852	1044.793
-3.502	29.528	1251.903	1044.250
-2.487	29.579	1250.934	1043.687
-1.473	29.541	1247.303	1040.402
-0.458	28.095	1232.401	1019.877
0.556	23.097	1215.870	984.444
1.571	19.583	1222.682	970.169
2.586	18.732	1237.739	977.187
3.600	18.597	1226.543	967.504
4.615	13.667	1153.275	883.419
5.629	4.767	1077.069	780.505
6.644	0.391	1057.108	744.407
7.659	0.121	1054.601	741.243
8.673	-0.092	1053.861	739.612
9.688	0.010	1052.338	738.979
10.702	0.269	1050.285	738.741
11.717	5.570	1057.066	769.551
12.731	14.025	1068.940	820.004
13.746	17.568	1072.338	840.042
14.761	16.976	1071.253	836.202
15.775	15.922	1069.034	829.210
16.790	14.876	1066.902	822.336
17.804	14.323	1065.312	818.323
18.819	13.883	1064.563	815.513
19.834	13.743	1063.220	813.725
20.848	13.482	1062.261	811.642
21.863	13.133	1062.016	809.673
22.877	13.050	1061.013	808.429
23.892	13.017	1059.752	807.238
24.907	12.992	1059.361	806.743
25.921	13.065	1058.745	806.559
26.936	12.976	1058.026	805.509
27.950	13.006	1057.115	804.888
28.965	13.180	1056.192	804.961
29.980	13.285	1054.571	804.165
30.994	13.340	1053.481	803.530
32.009	13.298	1052.433	802.456
33.023	13.276	1051.328	801.435
34.038	13.058	1051.096	800.133
35.053	13.110	1049.774	799.306
36.067	13.061	1049.437	798.745
37.082	13.233	1048.070	798.463
38.096	13.274	1047.382	798.064
39.111	13.292	1046.909	797.724
40.126	13.158	1045.546	795.965
41.140	13.055	1044.505	794.610
42.155	13.068	1043.283	793.674
43.169	13.036	1042.559	792.897
44.184	13.000	1041.419	791.787
45.199	12.993	1040.019	790.619
46.213	13.062	1039.105	790.186
47.228	13.158	1038.361	790.008
48.242	13.143	1037.257	789.024
49.257	13.121	1036.213	788.056
50.271	13.132	1035.319	787.359
51.286	13.224	1034.935	787.436
52.301	13.177	1033.647	786.162
53.315	13.149	1032.529	785.111
54.330	13.070	1031.510	783.892
55.344	12.998	1030.850	782.978
56.359	12.996	1030.057	782.296
57.374	13.113	1029.140	782.086
58.388	13.031	1027.937	780.716
59.403	13.087	1027.068	780.249
60.417	13.162	1026.054	779.767
61.432	12.940	1025.746	778.416
62.447	12.956	1025.226	778.028
63.461	12.887	1024.166	776.828
64.476	12.907	1023.177	776.102
65.490	13.057	1022.167	775.975
66.505	12.885	1021.943	774.925
67.520	12.969	1020.977	774.522
68.534	12.937	1020.589	774.006
69.549	12.812	1019.949	772.866
70.563	12.960	1019.195	772.919
71.578	12.852	1018.480	771.802
72.593	12.860	1017.564	771.079
73.607	12.858	1017.175	770.707
74.622	12.844	1016.476	770.045
75.636	12.931	1015.013	769.273
76.651	12.856	1014.879	768.753
77.666	12.830	1014.103	767.975
78.680	12.904	1013.388	767.714
79.695	12.982	1013.031	767.735
80.709	12.901	1012.377	766.795
81.724	13.046	1011.874	767.020
82.739	13.007	1011.194	766.258
83.753	13.214	1010.430	766.570
84.768	13.226	1009.135	765.577
85.782	13.156	1008.468	764.675
86.797	13.153	1007.452	763.827
87.812	12.981	1006.973	762.600
88.826	13.098	1005.631	762.055
89.841	13.093	1005.046	761.523
90.855	13.154	1004.002	760.947
91.870	13.292	1003.155	760.873
92.884	13.147	1002.641	759.749
93.899	13.213	1001.235	758.917
94.914	13.371	1000.681	759.154
95.928	13.375	999.809	758.447
96.943	13.265	999.171	757.390
97.957	13.138	998.226	756.027
98.972	13.167	997.682	755.679
99.987	13.195	996.624	754.937
101.001	13.112	995.745	753.830
102.016	13.253	994.640	753.569
103.030	13.282	994.035	753.175
104.045	13.298	993.176	752.531
105.060	13.035	992.931	751.082
106.074	13.113	991.571	750.341
107.089	13.130	990.160	749.284
108.103	13.049	989.583	748.413
109.118	13.052	988.575	747.599
110.133	13.002	987.777	746.703
111.147	12.883	987.258	745.705
112.162	13.094	986.213	745.801
113.176	13.186	985.240	745.419
114.191	13.084	985.055	744.750
115.206	13.108	983.998	743.993
116.220	13.127	983.048	743.297
117.235	13.200	981.379	742.297
118.249	13.144	980.850	741.579
119.264	13.031	980.793	740.962
120.279	13.063	979.749	740.252
121.293	12.995	978.797	739.160
122.308	13.028	977.952	738.607
123.322	13.029	977.418	738.142
124.337	13.035	975.634	736.758
125.352	13.000	975.051	736.095
126.366	13.061	973.594	735.202
127.381	13.014	972.803	734.329
128.395	13.116	972.111	734.195
129.410	13.070	971.018	733.100
130.424	13.115	970.291	732.688
131.439	13.134	969.838	732.363
132.454	13.109	968.672	731.311
133.468	13.197	967.791	730.969
134.483	13.180	967.028	730.251
135.497	13.123	966.375	729.441
136.512	13.164	965.429	728.845
137.527	13.178	964.524	728.157
138.541	13.323	963.728	728.132
139.556	13.223	963.241	727.261
140.570	13.232	962.718	726.839
141.585	13.332	961.686	726.435
142.600	13.334	960.916	725.800
143.614	13.384	959.910	725.192
144.629	13.322	959.105	724.250
145.643	13.223	958.140	723.025
146.658	13.287	957.135	722.480
147.673	13.185	956.581	721.553
148.687	13.190	955.956	721.040
149.702	13.219	954.975	720.361
150.716	13.209	954.328	719.769
151.731	13.230	953.436	719.124
152.746	13.248	952.655	718.547
153.760	13.261	951.963	718.019
154.775	13.298	951.591	717.837
155.789	13.317	951.169	717.536
156.804	13.301	950.453	716.864
157.819	13.381	949.464	716.402
158.833	13.455	948.945	716.264
159.848	13.465	948.204	715.687
160.862	13.483	946.865	714.691
161.877	13.404	946.179	713.768
162.892	13.249	945.536	712.550
163.906	13.272	944.398	711.732
164.921	13.355	943.880	711.632
165.935	13.454	942.924	711.277
166.950	13.483	941.621	710.353
167.964	13.447	941.365	709.945
168.979	13.317	940.164	708.419
169.994	13.476	939.488	708.527
171.008	13.532	938.696	708.106
172.023	13.619	938.356	708.160
173.037	13.617	937.323	707.307
174.052	13.549	936.504	706.339
175.067	13.533	935.715	705.614
176.081	13.364	935.855	704.934
177.096	13.498	934.995	704.796
178.110	13.438	934.632	704.206
179.125	13.444	933.965	703.663
180.140	13.475	933.290	703.226
181.154	13.533	932.917	703.127
182.169	13.675	932.321	703.219
183.183	13.750	932.017	703.245
184.198	13.596	931.057	701.807
185.213	13.697	930.150	701.489
186.227	13.722	929.261	700.863
187.242	13.728	928.785	700.466
188.256	13.683	928.413	699.934
189.271	13.778	927.422	699.525
190.286	13.498	926.680	697.726
191.300	13.561	925.997	697.413
192.315	13.425	925.603	696.482
193.329	13.501	924.859	696.179
194.344	13.476	924.309	695.601
195.359	13.650	923.595	695.733
196.373	13.719	922.861	695.406
197.388	13.779	922.724	695.491
198.402	13.919	921.787	695.310
199.417	13.838	921.216	694.480
200.432	13.891	920.797	694.326
201.446	13.975	920.493	694.384
202.461	13.989	919.896	693.931
203.475	13.929	919.337	693.198
204.490	13.958	918.298	692.475
205.504	14.039	917.490	692.141
206.519	13.838	917.040	690.904
207.534	13.897	916.336	690.557
208.548	13.973	915.477	690.165
209.563	13.924	914.837	689.416
210.577	14.053	914.000	689.260
211.592	14.043	913.702	688.935
212.607	14.035	913.167	688.436
213.621	14.097	912.214	687.915
214.636	14.119	911.354	687.294
215.650	14.180	910.794	687.062
216.665	14.046	910.306	686.081
217.680	14.175	909.360	685.841
218.694	14.086	908.920	685.079
219.709	14.247	907.811	684.845
220.723	14.121	907.264	683.854
221.738	14.226	906.784	683.864
222.753	14.125	906.333	683.049
223.767	14.344	905.322	683.125
224.782	14.251	905.102	682.516
225.796	14.252	904.504	682.008
226.811	14.330	903.610	681.596
227.826	14.246	902.939	680.685
228.840	14.180	902.098	679.721
229.855	14.247	901.365	679.382
230.869	14.259	900.872	679.001
231.884	14.247	900.026	678.255
232.899	14.322	899.194	677.873
233.913	14.231	898.367	676.817
234.928	14.189	898.238	676.491
235.942	14.317	897.540	676.425
236.957	14.328	896.798	675.849
237.972	14.232	896.539	675.204
238.986	14.313	895.600	674.765
240.001	14.324	894.924	674.241
241.015	14.355	894.564	674.037
242.030	14.380	894.160	673.776
243.045	14.256	893.489	672.709
244.059	14.324	892.740	672.359
245.074	14.394	892.232	672.200
246.088	14.532	891.080	671.826
247.103	14.485	890.778	671.352
248.117	14.509	890.455	671.145
249.132	14.632	889.276	670.692
250.147	14.771	888.905	670.909
251.161	14.745	888.191	670.208
252.176	14.648	887.949	669.575
253.190	14.863	886.745	669.470
254.205	14.773	886.065	668.538
255.220	14.680	885.756	667.874
256.234	14.767	885.226	667.764
257.249	14.845	884.170	667.217
258.263	14.795	883.716	666.618
259.278	14.748	883.269	666.032
260.293	14.865	882.341	665.743
261.307	14.926	881.765	665.490
262.322	14.872	881.523	665.033
263.336	15.069	880.417	664.922
264.351	15.021	879.786	664.196
265.366	14.923	879.498	663.532
266.380	15.051	878.694	663.374
267.395	15.002	878.244	662.782
268.409	14.912	877.556	661.848
269.424	15.079	876.461	661.623
270.439	14.974	875.515	660.438
271.453	14.975	874.902	659.918
272.468	15.014	874.510	659.717
273.482	14.925	874.407	659.233
274.497	15.048	873.442	658.931
275.512	15.076	872.990	658.642
276.526	15.083	872.235	658.040
277.541	15.162	871.717	657.905
278.555	15.001	871.341	656.930
279.570	15.201	870.840	657.277
280.585	15.178	870.258	656.691
281.599	15.129	868.993	655.487
282.614	15.184	868.552	655.311
283.628	15.201	867.774	654.729
284.643	15.171	867.293	654.193
285.657	15.240	866.314	653.664
286.672	15.163	866.544	653.481
287.687	15.090	865.747	652.536
288.701	15.146	865.327	652.383
289.716	15.263	864.566	652.205
290.730	15.385	863.661	651.939
291.745	15.421	863.228	651.694
292.760	15.393	862.584	651.040
293.774	15.440	862.096	650.797
294.789	15.384	861.488	650.064
295.803	15.263	860.931	649.118
296.818	15.371	860.247	648.963
297.833	15.324	859.509	648.167
298.847	15.335	859.122	647.862
299.862	15.565	858.005	647.849
300.876	15.505	857.952	647.518
301.891	15.470	857.379	646.894
302.906	15.536	856.834	646.680
303.920	15.529	856.784	646.558
304.935	15.515	855.869	645.757
305.949	15.558	855.190	645.352
306.964	15.639	854.301	644.936
307.979	15.524	854.063	644.258
308.993	15.605	853.381	643.995
310.008	15.677	852.499	643.549
311.022	15.688	851.917	643.096
312.037	15.576	851.558	642.340
313.052	15.585	851.053	641.935
314.066	15.575	850.309	641.279
315.081	15.532	850.102	640.902
316.095	15.560	849.365	640.396
317.110	15.642	848.748	640.187
318.125	15.621	847.894	639.406
319.139	15.706	847.884	639.666
320.154	15.719	846.949	638.955
321.168	15.635	847.209	638.775
322.183	15.828	846.036	638.564
323.197	15.671	845.861	637.781
324.212	15.609	845.135	636.944
325.227	15.611	844.556	636.458
326.241	15.784	843.612	636.345
327.256	15.767	843.178	635.896
328.270	15.777	842.830	635.613
329.285	15.662	842.296	634.720
330.300	15.836	841.526	634.742
331.314	15.805	841.089	634.239
332.329	15.867	840.736	634.151
333.343	15.854	840.251	633.678
334.358	15.942	839.634	633.488
335.373	15.732	839.573	632.599
336.387	15.854	839.107	632.648
337.402	15.929	838.721	632.585
338.416	16.099	838.363	632.894
339.431	16.009	838.110	632.312
340.446	16.069	837.572	632.075
341.460	16.132	837.110	631.907
342.475	16.045	836.991	631.432
343.489	16.216	836.346	631.530
344.504	16.200	835.743	630.961
345.519	16.174	835.523	630.642
346.533	16.033	835.076	629.722
347.548	16.122	834.316	629.424
348.562	16.257	833.715	629.418
349.577	16.195	833.005	628.595
350.592	16.176	832.420	628.029
351.606	16.168	831.768	627.450
352.621	16.220	831.217	627.174
353.635	16.104	830.514	626.158
354.650	16.229	830.029	626.200
355.665	16.194	829.302	625.465
356.679	16.180	828.937	625.085
357.694	16.379	827.963	625.031
358.708	16.410	827.654	624.855
359.723	16.227	827.603	624.086
360.738	16.244	826.666	623.388
361.752	16.291	825.916	622.941
362.767	16.401	825.355	622.868
363.781	16.566	824.888	623.068
364.796	16.546	824.239	622.446
365.810	16.479	824.357	622.236
366.825	16.387	823.761	621.393
367.840	16.569	823.603	621.889
368.854	16.461	822.616	620.690
369.869	16.468	822.420	620.512
370.883	16.506	821.927	620.226
371.898	16.598	821.761	620.384
372.913	16.609	821.210	619.952
373.927	16.596	820.490	619.308
374.942	16.627	820.090	619.062
375.956	16.683	819.694	618.913
376.971	16.634	819.577	618.591
377.986	16.759	818.725	618.352
379.000	16.746	818.635	618.180
380.015	16.801	818.019	617.859
381.029	16.830	817.194	617.289
382.044	16.880	816.555	616.933
383.059	16.912	815.823	616.441
384.073	16.817	815.418	615.737
385.088	16.796	814.772	615.119
386.102	16.788	814.270	614.654
387.117	16.847	813.721	614.401
388.132	16.793	813.153	613.723
389.146	16.864	812.662	613.554
390.161	16.796	812.644	613.241
391.175	16.904	811.676	612.847
392.190	16.780	811.359	612.104
393.205	16.865	810.730	611.881
394.219	16.838	810.475	611.537
395.234	16.912	809.885	611.304
396.248	16.779	809.611	610.566
397.263	16.909	809.231	610.692
398.278	16.919	808.758	610.316
399.292	16.932	808.131	609.836
400.307	16.811	807.771	609.077
401.321	16.811	807.591	608.886
402.336	16.859	807.025	608.579
403.350	16.945	806.413	608.372
404.365	16.892	806.262	608.014
405.380	16.983	805.469	607.689
406.394	17.178	804.939	607.935
407.409	17.156	805.047	607.881
408.423	17.253	804.296	607.607
409.438	17.137	804.155	607.032
410.453	17.285	803.586	607.077
411.467	17.272	803.101	606.614
412.482	17.206	802.851	606.133
413.496	17.292	802.212	605.906
414.511	17.457	801.873	606.182
415.526	17.335	801.672	605.541
416.540	17.413	801.064	605.306
417.555	17.333	800.721	604.708
418.569	17.505	800.248	604.911
419.584	17.312	800.155	604.099
420.599	17.289	799.549	603.507
421.613	108.475	1292.294	1467.083
422.628	93.286	1364.070	1467.185
