DTS Sentinel unit serial number:	SN413079Multiplexer serial number:	ORYXHardware model number:	OX4-SRSoftware version number:	ORYX F/W v4.00 Oryx Data Collector v3.7.2.0data status	okinstallation	princeton_trtdifferential loss correction	single-endedforward channel	channel 1reverse channel	N/Adate	2019/09/17time	17:58:35forward acquisition time	60.00reverse acquisition time	0.00gamma	496.2192k internal	0.2291k external	0.2291temperature offset calibration	0.9953default loss term (dB/km)	0.3790temperature slope calibration	1.0000multiplexer offset coefficient	1.0000multiplexer slope coefficient	1.0000fibre end	0.00T internal ref (°C)	43.50T ext. ref 1 (°C)	0.33T ext. ref 2 (°C)	38.19length (m)	temperature (°C)	Stokes	anti-Stokes-747.200	-200.000	0.033	-0.273
-746.185	-143.894	0.397	0.038
-745.171	-38.224	-0.086	0.047
-744.156	65.206	-0.133	0.138
-743.142	-174.052	0.212	0.006
-742.127	800.000	0.079	0.303
-741.112	126.969	0.005	-0.007
-740.098	184.235	-0.102	0.154
-739.083	379.461	0.163	-0.342
-738.069	129.121	0.229	0.300
-737.054	-79.143	0.274	0.095
-736.039	56.844	0.125	-0.125
-735.025	9.229	0.177	0.137
-734.010	-43.824	-0.380	-0.196
-732.996	69.784	-0.146	-0.154
-731.981	-73.062	0.256	0.096
-730.966	277.077	-0.082	0.149
-729.952	-166.141	-0.249	0.011
-728.937	-54.413	-0.359	-0.167
-727.923	63.826	-0.104	-0.107
-726.908	-66.773	-0.161	0.065
-725.894	-46.479	-0.064	-0.032
-724.879	-200.000	0.030	0.166
-723.864	-200.000	0.021	0.137
-722.850	343.482	-0.187	-0.374
-721.835	594.065	0.089	-0.224
-720.821	-86.136	0.129	-0.041
-719.806	-27.279	0.065	0.038
-718.791	99.146	0.125	-0.148
-717.777	-96.071	0.213	-0.058
-716.762	-200.000	-0.045	0.279
-715.748	-38.356	-0.278	0.151
-714.733	-47.293	-0.282	0.140
-713.718	-97.696	-0.289	0.077
-712.704	-200.000	0.096	0.474
-711.689	800.000	0.079	-0.225
-710.675	800.000	0.136	-0.400
-709.660	542.508	0.155	0.377
-708.645	-200.000	-0.000	-0.035
-707.631	71.750	-0.304	0.323
-706.616	-200.000	0.008	-0.205
-705.602	-200.000	0.030	-0.168
-704.587	683.414	0.012	-0.031
-703.572	-60.346	0.329	-0.143
-702.558	-9.646	-0.089	-0.061
-701.543	-200.000	0.034	0.302
-700.529	182.825	0.140	-0.211
-699.514	-158.050	-0.039	0.002
-698.499	-14.643	-0.091	0.060
-697.485	-53.554	-0.086	0.040
-696.470	800.000	0.031	0.103
-695.456	-200.000	0.000	0.216
-694.441	-140.466	0.031	-0.003
-693.426	-37.314	-0.146	0.080
-692.412	25.096	-0.142	-0.120
-691.397	216.774	-0.152	0.248
-690.383	21.061	-0.343	-0.284
-689.368	290.907	-0.039	0.073
-688.354	121.194	-0.243	0.309
-687.339	-66.179	0.051	-0.021
-686.324	-78.574	0.212	-0.074
-685.310	185.925	0.035	0.054
-684.295	-200.000	0.011	-0.126
-683.281	-125.646	-0.126	0.019
-682.266	-200.000	-0.017	0.237
-681.251	619.319	0.075	0.194
-680.237	-151.024	0.169	0.013
-679.222	97.282	-0.071	-0.084
-678.208	372.347	0.037	-0.077
-677.193	21.926	-0.069	-0.058
-676.178	167.323	-0.058	0.084
-675.164	-65.590	0.124	-0.051
-674.149	-14.158	0.153	-0.101
-673.135	-200.000	-0.006	0.231
-672.120	-145.302	0.214	-0.020
-671.105	-200.000	-0.025	-0.364
-670.091	-96.434	0.169	0.046
-669.076	20.785	0.099	0.082
-668.062	82.730	-0.106	-0.118
-667.047	800.000	-0.134	0.401
-666.032	-75.867	-0.151	0.055
-665.018	170.692	0.025	-0.036
-664.003	10.380	0.182	-0.141
-662.989	275.053	0.261	-0.473
-661.974	-200.000	0.037	-0.280
-660.959	49.621	0.030	0.029
-659.945	176.206	0.146	-0.216
-658.930	-200.000	-0.011	0.145
-657.916	646.860	0.074	-0.194
-656.901	-130.699	-0.494	0.068
-655.886	-48.272	0.343	-0.169
-654.872	-1.914	0.245	-0.176
-653.857	-200.000	0.037	0.224
-652.843	-10.712	0.088	0.059
-651.828	800.000	0.068	-0.249
-650.814	377.057	-0.123	-0.256
-649.799	280.770	0.120	-0.219
-648.784	105.122	-0.228	-0.274
-647.770	71.291	-0.143	-0.151
-646.755	255.110	0.343	0.598
-645.741	639.902	-0.040	0.103
-644.726	-139.496	-0.117	-0.013
-643.711	-200.000	0.008	0.138
-642.697	-101.204	0.305	-0.076
-641.682	800.000	0.048	0.152
-640.668	-108.600	-0.282	-0.062
-639.653	35.750	0.236	-0.211
-638.638	-33.978	-0.425	0.238
-637.624	78.125	0.083	0.090
-636.609	-73.118	0.278	-0.104
-635.595	-78.070	0.290	-0.102
-634.580	-21.269	-0.324	-0.202
-633.565	131.800	0.071	0.093
-632.551	-58.021	-0.243	0.108
-631.536	-100.306	-0.295	0.075
-630.522	391.707	-0.072	0.153
-629.507	-95.016	0.396	-0.109
-628.492	-200.000	0.066	0.354
-627.478	167.631	0.107	-0.156
-626.463	-151.008	-0.216	0.017
-625.449	241.936	0.097	0.165
-624.434	800.000	-0.049	-0.145
-623.419	-200.000	0.018	-0.385
-622.405	800.000	-0.074	0.222
-621.390	-137.106	0.120	-0.014
-620.376	-107.103	-0.307	-0.069
-619.361	800.000	-0.056	-0.211
-618.346	135.653	0.096	0.127
-617.332	-200.000	-0.069	-0.323
-616.317	-191.648	0.277	0.003
-615.303	800.000	-0.071	0.244
-614.288	-200.000	0.018	0.101
-613.273	80.550	-0.099	0.108
-612.259	-80.348	-0.172	0.059
-611.244	417.949	-0.150	-0.327
-610.230	323.889	-0.107	-0.209
-609.215	70.601	-0.183	-0.193
-608.201	170.056	-0.212	-0.309
-607.186	-165.260	-0.142	0.006
-606.171	-200.000	0.003	0.119
-605.157	800.000	-0.105	-0.324
-604.142	57.667	0.355	-0.353
-603.128	215.876	0.013	-0.020
-602.113	316.166	0.208	-0.401
-601.098	-200.000	-0.045	-0.585
-600.084	-187.672	-0.330	0.004
-599.069	-200.000	-0.001	-0.132
-598.055	108.025	0.220	-0.266
-597.040	798.172	0.061	0.170
-596.025	-200.000	0.035	-0.232
-595.011	-15.870	-0.289	-0.188
-593.996	34.711	-0.134	-0.119
-592.982	800.000	-0.036	0.147
-591.967	66.324	-0.339	0.351
-590.952	-124.188	-0.160	-0.026
-589.938	-200.000	-0.016	0.181
-588.923	800.000	-0.107	0.306
-587.909	800.000	0.018	-0.055
-586.894	16.027	0.175	-0.140
-585.879	686.116	0.036	0.097
-584.865	-200.000	-0.008	0.100
-583.850	-131.947	0.114	0.015
-582.836	112.695	-0.083	-0.102
-581.821	-171.141	0.056	0.002
-580.806	-200.000	0.033	-0.291
-579.792	-116.734	-0.287	-0.054
-578.777	-7.010	-0.305	-0.210
-577.763	-149.866	-0.119	0.009
-576.748	-12.402	0.128	0.085
-575.733	-200.000	-0.020	-0.165
-574.719	-52.867	0.027	0.012
-573.704	549.132	0.032	0.079
-572.690	-112.467	0.248	-0.050
-571.675	-9.255	0.077	0.053
-570.661	186.793	-0.164	0.249
-569.646	-16.695	-0.060	0.039
-568.631	-200.000	0.021	-0.404
-567.617	107.608	-0.090	-0.109
-566.602	174.455	0.155	0.228
-565.588	800.000	-0.066	0.184
-564.573	-173.251	0.159	-0.005
-563.558	-40.115	0.286	-0.152
-562.544	569.681	-0.058	-0.142
-561.529	567.722	0.101	0.250
-560.515	19.456	0.284	0.232
-559.500	-43.954	0.403	0.206
-558.485	-95.620	-0.188	0.051
-557.471	800.000	-0.059	-0.233
-556.456	-45.454	-0.221	-0.111
-555.442	800.000	0.046	0.200
-554.427	800.000	0.047	-0.163
-553.412	54.289	0.170	0.166
-552.398	-59.771	-0.331	0.144
-551.383	111.061	0.155	0.190
-550.369	68.645	-0.184	0.192
-549.354	72.920	0.081	-0.086
-548.339	-200.000	-0.010	0.117
-547.325	-167.625	0.048	-0.002
-546.310	-50.700	-0.280	0.134
-545.296	369.285	-0.096	0.197
-544.281	-200.000	0.048	-0.336
-543.266	-200.000	-0.011	-0.256
-542.252	93.757	-0.212	0.244
-541.237	-23.874	-0.094	0.057
-540.223	183.688	-0.033	-0.050
-539.208	-200.000	0.014	-0.159
-538.193	800.000	0.089	0.266
-537.179	-43.164	0.068	0.035
-536.164	175.717	-0.354	0.522
-535.150	800.000	-0.086	0.281
-534.135	-87.044	0.308	0.095
-533.121	-145.882	0.374	0.034
-532.106	-101.684	-0.304	-0.075
-531.091	218.254	-0.029	0.048
-530.077	-200.000	0.006	0.051
-529.062	534.396	0.069	-0.166
-528.048	-77.525	-0.179	-0.063
-527.033	800.000	0.114	0.390
-526.018	101.247	0.079	-0.093
-525.004	281.982	0.109	0.198
-523.989	214.904	0.014	-0.023
-522.975	-101.813	-0.111	-0.027
-521.960	-103.928	0.107	0.025
-520.945	-200.000	-0.047	0.276
-519.931	-200.000	-0.027	0.382
-518.916	-114.493	-0.127	0.025
-517.902	486.707	-0.052	0.120
-516.887	362.248	-0.090	0.184
-515.872	144.585	-0.177	0.240
-514.858	-44.751	0.159	-0.081
-513.843	160.539	0.206	0.292
-512.829	-200.000	-0.008	0.328
-511.814	23.704	0.223	-0.186
-510.799	-200.000	-0.017	-0.093
-509.785	-200.000	0.003	0.061
-508.770	-94.792	-0.336	-0.093
-507.756	-8.307	-0.097	-0.066
-506.741	-39.673	0.435	-0.231
-505.726	-115.240	0.286	-0.055
-504.712	-45.222	0.022	0.011
-503.697	189.432	-0.099	-0.150
-502.683	-200.000	-0.048	-0.346
-501.668	141.350	-0.088	-0.118
-500.653	-136.944	-0.282	-0.033
-499.639	-200.000	-0.010	0.053
-498.624	-188.107	0.285	0.004
-497.610	30.823	0.027	0.024
-496.595	58.031	-0.091	-0.090
-495.581	382.188	-0.099	-0.207
-494.566	-62.345	-0.204	0.086
-493.551	-8.569	0.300	0.205
-492.537	-200.000	-0.024	-0.319
-491.522	363.127	-0.150	-0.305
-490.508	315.107	-0.105	0.200
-489.493	2.888	0.213	0.157
-488.478	91.463	-0.103	-0.118
-487.464	-200.000	-0.043	-0.285
-486.449	800.000	0.064	0.257
-485.435	-200.000	0.015	0.119
-484.420	-200.000	-0.004	-0.125
-483.405	-32.381	0.145	0.082
-482.391	-56.296	-0.221	-0.099
-481.376	800.000	0.033	0.120
-480.362	42.192	0.066	-0.061
-479.347	261.845	-0.130	-0.228
-478.332	-92.115	0.247	0.071
-477.318	-200.000	0.050	-0.233
-476.303	36.537	-0.120	0.107
-475.289	-200.000	-0.013	0.086
-474.274	-200.000	-0.006	-0.270
-473.259	-84.914	-0.160	-0.051
-472.245	-45.105	0.070	-0.035
-471.230	-43.444	0.401	-0.205
-470.216	92.347	0.169	0.193
-469.201	-28.044	-0.179	0.105
-468.186	554.883	-0.076	0.186
-467.172	-115.558	0.213	-0.041
-466.157	28.269	0.063	-0.054
-465.143	763.184	-0.029	0.081
-464.128	65.449	0.049	0.050
-463.113	-200.000	-0.035	-0.234
-462.099	-153.733	-0.022	-0.002
-461.084	-62.787	-0.192	0.081
-460.070	800.000	-0.031	-0.088
-459.055	-1.724	0.027	0.020
-458.040	120.307	0.115	0.144
-457.026	-61.488	0.123	0.052
-456.011	-29.015	0.201	0.117
-454.997	800.000	-0.038	-0.126
-453.982	38.150	0.115	0.104
-452.968	-43.901	0.038	0.019
-451.953	-200.000	-0.019	-0.148
-450.938	800.000	-0.148	0.417
-449.924	179.794	-0.166	0.247
-448.909	-177.474	-0.310	0.008
-447.895	94.590	-0.275	0.317
-446.880	-200.000	0.037	-0.211
-445.865	17.683	0.046	0.037
-444.851	-77.745	0.085	0.030
-443.836	-107.331	0.158	-0.035
-442.822	-36.792	0.028	-0.015
-441.807	-200.000	-0.007	-0.078
-440.792	135.807	0.184	-0.243
-439.778	161.703	-0.225	0.318
-438.763	-155.356	-0.299	-0.020
-437.749	186.598	-0.066	0.099
-436.734	-165.678	0.227	0.010
-435.719	656.654	-0.062	-0.160
-434.705	-87.791	0.325	-0.099
-433.690	335.450	-0.122	0.239
-432.676	-169.416	-0.268	0.010
-431.661	-121.273	-0.254	0.043
-430.646	-105.121	-0.223	0.052
-429.632	465.092	0.099	0.223
-428.617	572.927	-0.071	-0.175
-427.603	-179.028	0.450	0.010
-426.588	-25.153	0.256	0.153
-425.573	3.583	0.262	-0.193
-424.559	110.587	0.116	0.141
-423.544	96.714	-0.181	-0.210
-422.530	191.977	-0.225	0.344
-421.515	-68.720	0.136	0.053
-420.500	-52.177	-0.080	0.038
-419.486	-40.658	0.140	-0.074
-418.471	1.593	-0.149	-0.109
-417.457	-79.346	0.488	0.167
-416.442	-84.159	-0.358	0.115
-415.428	-40.997	-0.059	-0.031
-414.413	-133.485	0.069	-0.009
-413.398	-85.804	-0.139	-0.043
-412.384	-103.679	0.235	0.056
-411.369	-112.236	-0.067	-0.014
-410.355	13.544	-0.102	-0.080
-409.340	-200.000	0.037	-0.304
-408.325	-49.905	-0.213	0.102
-407.311	-87.161	-0.150	-0.046
-406.296	-200.000	0.044	0.345
-405.282	-200.000	-0.007	0.304
-404.267	-130.939	-0.249	-0.034
-403.252	-18.927	-0.266	-0.167
-402.238	-59.703	-0.111	0.048
-401.223	800.000	-0.060	-0.218
-400.209	-71.952	-0.313	-0.118
-399.194	61.044	-0.137	0.138
-398.179	-116.117	0.197	0.037
-397.165	544.729	-0.075	0.181
-396.150	-138.452	0.227	-0.025
-395.136	477.595	0.103	0.236
-394.121	-40.198	0.134	0.071
-393.106	-49.913	-0.224	0.107
-392.092	110.970	-0.097	0.119
-391.077	6.289	0.135	0.101
-390.063	-63.134	-0.334	-0.139
-389.048	-198.293	0.150	0.001
-388.033	223.463	0.037	-0.061
-387.019	-109.598	0.048	-0.010
-386.004	179.274	0.255	0.377
-384.990	419.473	0.159	-0.343
-383.975	80.355	0.120	-0.131
-382.960	800.000	-0.076	-0.230
-381.946	-34.650	0.167	-0.092
-380.931	-115.740	0.177	0.034
-379.917	800.000	0.079	0.228
-378.902	54.805	0.176	0.171
-377.888	-200.000	-0.007	0.072
-376.873	69.064	-0.055	-0.057
-375.858	588.611	-0.105	-0.262
-374.844	-168.029	0.377	-0.015
-373.829	-21.768	-0.118	0.072
-372.815	-111.010	0.283	-0.059
-371.800	387.270	0.128	0.268
-370.785	-200.000	-0.025	0.118
-369.771	-10.345	-0.261	0.175
-368.756	-73.490	-0.213	-0.078
-367.742	800.000	-0.088	-0.348
-366.727	295.523	-0.201	-0.371
-365.712	-200.000	-0.045	-0.209
-364.698	-200.000	0.025	-0.231
-363.683	800.000	0.056	0.177
-362.669	-21.794	-0.039	0.024
-361.654	234.731	0.030	0.051
-360.639	-77.095	0.216	0.076
-359.625	-200.000	0.009	-0.091
-358.610	-11.898	-0.088	-0.058
-357.596	800.000	-0.099	-0.321
-356.581	169.327	0.146	-0.210
-355.566	-118.313	-0.142	-0.025
-354.552	44.404	-0.231	-0.214
-353.537	203.166	0.145	-0.226
-352.523	-36.826	-0.312	-0.169
-351.508	-144.391	0.206	0.019
-350.493	-25.431	-0.212	-0.126
-349.479	-78.085	-0.069	0.024
-348.464	800.000	-0.106	-0.315
-347.450	-200.000	0.016	0.207
-346.435	-82.551	0.343	-0.112
-345.420	-43.129	-0.023	0.012
-344.406	33.471	0.308	-0.270
-343.391	-157.530	0.211	0.013
-342.377	20.188	-0.227	0.185
-341.362	-108.209	-0.095	0.021
-340.348	-139.642	-0.209	0.022
-339.333	36.547	-0.043	-0.038
-338.318	-140.252	-0.182	-0.019
-337.304	-78.373	0.201	-0.070
-336.289	800.000	0.017	0.051
-335.275	-100.140	0.247	0.062
-334.260	-151.612	0.180	-0.013
-333.245	78.806	-0.193	-0.208
-332.231	59.073	-0.299	0.297
-331.216	41.216	0.115	0.105
-330.202	228.108	0.131	0.214
-329.187	-156.818	0.044	-0.003
-328.172	5.049	0.046	-0.034
-327.158	-133.158	0.101	0.013
-326.143	-120.163	0.173	-0.030
-325.129	4.502	0.102	0.075
-324.114	-200.000	0.004	-0.326
-323.099	408.474	-0.087	-0.186
-322.085	64.148	-0.204	0.207
-321.070	-191.348	-0.345	0.004
-320.056	-160.032	0.360	0.020
-319.041	77.035	-0.070	-0.075
-318.026	800.000	-0.049	-0.199
-317.012	-42.975	0.229	0.117
-315.997	369.885	0.071	-0.145
-314.983	-200.000	-0.028	-0.146
-313.968	307.696	-0.126	-0.236
-312.953	18.502	-0.241	-0.194
-311.939	-120.897	-0.194	0.033
-310.924	-34.568	0.161	0.089
-309.910	-106.268	-0.318	0.072
-308.895	56.457	-0.084	-0.082
-307.880	268.128	0.058	-0.103
-306.866	-200.000	-0.000	0.105
-305.851	800.000	0.136	-0.424
-304.837	-118.786	0.258	-0.046
-303.822	117.331	-0.042	-0.052
-302.807	800.000	-0.168	-0.587
-301.793	-2.300	0.180	-0.127
-300.778	197.339	0.012	-0.019
-299.764	-92.266	-0.071	0.020
-298.749	-150.796	-0.338	0.026
-297.735	130.549	-0.104	-0.135
-296.720	173.995	0.130	0.189
-295.705	-163.528	0.190	-0.009
-294.691	-47.647	0.235	-0.115
-293.676	800.000	0.058	0.216
-292.662	-39.443	0.230	0.121
-291.647	-46.207	0.503	0.249
-290.632	-200.000	0.032	0.213
-289.618	-200.000	0.012	-0.336
-288.603	-200.000	-0.022	0.140
-287.589	413.408	0.176	-0.376
-286.574	725.628	-0.079	-0.212
-285.559	-106.004	0.107	-0.024
-284.545	294.024	-0.157	-0.288
-283.530	-82.304	0.300	0.098
-282.516	-152.472	0.222	0.016
-281.501	-200.000	0.429	0.002
-280.486	58.115	-0.178	-0.176
-279.472	390.051	0.096	0.200
-278.457	-102.538	-0.278	-0.067
-277.443	-157.667	-0.382	-0.023
-276.428	-200.000	-0.054	0.343
-275.413	-150.083	-0.304	-0.024
-274.399	-112.667	0.214	0.043
-273.384	158.866	-0.077	-0.108
-272.370	21.060	0.128	-0.105
-271.355	-200.000	0.107	0.692
-270.340	100.388	0.150	-0.175
-269.326	-130.660	0.329	-0.045
-268.311	198.819	-0.103	-0.159
-267.297	457.160	-0.080	0.179
-266.282	81.745	-0.272	0.296
-265.267	-89.110	-0.070	-0.021
-264.253	-200.000	0.205	-0.000
-263.238	-120.747	0.066	-0.011
-262.224	-117.380	0.382	0.070
-261.209	-63.032	-0.180	0.075
-260.195	-69.692	0.235	-0.090
-259.180	-71.664	0.105	0.039
-258.165	-200.000	-0.024	-0.213
-257.151	-200.000	0.079	-0.424
-256.136	-62.666	0.165	-0.069
-255.122	800.000	0.012	-0.037
-254.107	-133.572	0.347	0.044
-253.092	51.988	0.046	-0.044
-252.078	-200.000	0.009	0.242
-251.063	-200.000	-0.022	0.172
-250.049	-200.000	0.001	-0.042
-249.034	124.724	-0.116	-0.147
-248.019	330.810	-0.116	-0.225
-247.005	-200.000	-0.015	-0.182
-245.990	266.555	0.087	0.153
-244.976	655.818	-0.144	-0.370
-243.961	1.709	0.226	0.164
-242.946	-200.000	0.010	0.167
-241.932	6.704	-0.069	-0.051
-240.917	-141.529	-0.058	0.006
-239.903	-1.102	-0.107	0.076
-238.888	800.000	0.032	-0.119
-237.873	7.969	0.268	-0.202
-236.859	-108.704	-0.402	-0.086
-235.844	677.651	-0.076	0.197
-234.830	-65.458	0.155	0.063
-233.815	56.271	0.054	0.053
-232.800	99.243	0.257	0.298
-231.786	287.256	-0.111	0.202
-230.771	-98.172	0.028	0.007
-229.757	164.753	-0.034	-0.048
-228.742	144.739	-0.077	-0.103
-227.727	36.201	0.224	0.198
-226.713	368.692	0.116	-0.235
-225.698	800.000	0.014	0.048
-224.684	-52.367	0.135	-0.063
-223.669	-22.542	-0.170	0.103
-222.655	27.144	-0.076	-0.064
-221.640	-49.031	0.141	-0.067
-220.625	-35.138	-0.148	-0.081
-219.611	800.000	0.039	-0.152
-218.596	209.638	0.126	0.198
-217.582	60.839	0.311	0.309
-216.567	-188.877	-0.352	0.004
-215.552	-200.000	-0.061	-0.339
-214.538	0.805	0.190	0.136
-213.523	140.291	0.108	0.142
-212.509	-46.132	0.305	-0.151
-211.494	19.334	-0.155	0.124
-210.479	-200.000	0.016	0.223
-209.465	-200.000	-0.003	0.110
-208.450	-162.726	-0.385	-0.019
-207.436	201.317	0.160	0.247
-206.421	-88.773	-0.304	-0.090
-205.406	224.478	-0.069	-0.112
-204.392	-200.000	0.041	0.183
-203.377	111.278	0.109	0.132
-202.363	347.557	-0.005	0.010
-201.348	162.087	-0.064	0.091
-200.333	412.766	-0.129	-0.275
-199.319	-40.658	-0.126	-0.065
-198.304	-200.000	0.008	-0.071
-197.290	-200.000	-0.041	0.236
-196.275	-78.996	0.230	0.078
-195.260	-115.568	-0.238	0.045
-194.246	394.836	0.068	0.142
-193.231	80.646	0.145	0.156
-192.217	-200.000	0.005	-0.092
-191.202	-200.000	-0.014	0.078
-190.187	7.988	0.115	0.086
-189.173	-200.000	-0.056	-0.256
-188.158	-200.000	-0.014	-0.200
-187.144	76.318	-0.075	-0.080
-186.129	63.650	0.133	0.133
-185.114	-200.000	-0.005	-0.248
-184.100	85.104	-0.138	0.152
-183.085	610.962	0.063	-0.158
-182.071	800.000	0.029	0.115
-181.056	-200.000	0.066	0.476
-180.042	18.814	-0.191	0.153
-179.027	520.746	0.069	0.162
-178.012	-200.000	0.031	0.465
-176.998	454.304	0.094	0.209
-175.983	251.612	0.147	-0.251
-174.969	-200.000	0.088	0.000
-173.954	47.795	-0.103	-0.096
-172.939	81.212	-0.059	0.064
-171.925	-33.391	0.149	0.083
-170.910	800.000	-0.050	-0.173
-169.896	10.046	0.198	0.151
-168.881	-112.124	-0.464	-0.093
-167.866	-71.881	0.202	-0.075
-166.852	-200.000	-0.011	-0.060
-165.837	-31.754	-0.456	0.256
-164.823	-62.101	0.151	-0.063
-163.808	-200.000	-0.024	-0.150
-162.793	-128.258	0.088	-0.013
-161.779	-131.262	-0.080	0.011
-160.764	-200.000	0.005	0.206
-159.750	635.343	-0.169	0.429
-158.735	20.316	-0.080	-0.065
-157.720	112.556	-0.249	-0.301
-156.706	-200.000	-0.003	0.376
-155.691	-200.000	-0.022	0.101
-154.677	-40.225	-0.101	0.053
-153.662	200.281	-0.067	-0.102
-152.647	112.358	0.059	-0.071
-151.633	-68.171	-0.077	0.030
-150.618	47.066	-0.114	0.106
-149.604	241.435	-0.141	-0.235
-148.589	75.094	0.231	-0.244
-147.574	800.000	-0.089	0.369
-146.560	171.371	0.244	0.351
-145.545	-180.944	-0.413	-0.008
-144.531	-132.719	-0.163	0.021
-143.516	281.805	0.091	0.163
-142.502	-200.000	-0.002	0.111
-141.487	539.286	0.055	-0.131
-140.472	-81.816	-0.093	0.030
-139.458	-57.825	0.262	-0.115
-138.443	91.916	0.041	0.047
-137.429	-149.007	0.070	-0.006
-136.414	144.699	0.055	0.074
-135.399	367.339	0.134	-0.270
-134.385	-119.518	-0.122	0.021
-133.370	261.144	-0.149	-0.257
-132.356	800.000	-0.116	0.390
-131.341	110.688	0.073	-0.088
-130.326	-200.000	0.014	0.228
-129.312	344.175	0.144	0.282
-128.297	-42.576	0.250	-0.127
-127.283	621.122	0.083	-0.209
-126.268	326.968	0.029	-0.055
-125.253	800.000	-0.010	0.035
-124.239	437.801	0.049	-0.108
-123.224	411.912	-0.078	-0.166
-122.210	800.000	-0.095	0.409
-121.195	-200.000	0.021	0.177
-120.180	800.000	0.041	-0.148
-119.166	-55.886	-0.359	0.160
-118.151	356.752	0.083	0.166
-117.137	140.052	0.069	-0.090
-116.122	-200.000	-0.017	0.293
-115.107	-130.194	-0.122	0.017
-114.093	173.646	0.116	0.167
-113.078	139.412	0.258	-0.339
-112.064	-200.000	-0.029	0.442
-111.049	-200.000	-0.013	0.142
-110.034	-141.452	0.216	0.022
-109.020	-138.570	0.268	0.029
-108.005	133.801	0.186	-0.241
-106.991	122.762	-0.103	-0.129
-105.976	-200.000	-0.004	-0.204
-104.962	-19.694	-0.202	0.125
-103.947	-62.048	0.219	0.091
-102.932	424.774	-0.043	-0.093
-101.918	-91.479	0.221	-0.063
-100.903	-200.000	-0.066	0.349
-99.889	-51.878	0.047	0.022
-98.874	272.648	-0.142	0.250
-97.859	-116.092	-0.143	-0.027
-96.845	-133.322	-0.246	-0.031
-95.830	-129.876	0.436	-0.060
-94.816	568.740	-0.068	-0.164
-93.801	-71.689	0.113	0.042
-92.786	146.292	-0.037	-0.050
-91.772	46.259	0.017	-0.016
-90.757	164.059	-0.078	0.110
-89.743	-76.156	0.164	0.058
-88.728	352.186	-0.084	-0.165
-87.713	-200.000	-0.001	0.023
-86.699	-200.000	0.020	0.167
-85.684	27.732	0.242	0.203
-84.670	-149.181	-0.106	0.008
-83.655	-200.000	0.019	-0.116
-82.640	193.384	-0.160	0.242
-81.626	-99.561	-0.142	-0.036
-80.611	676.856	-0.034	0.089
-79.597	-15.231	0.107	-0.068
-78.582	-131.989	-0.225	-0.029
-77.567	148.426	0.192	0.258
-76.553	182.255	0.221	0.325
-75.538	235.529	0.153	0.253
-74.524	-120.357	0.164	-0.028
-73.509	329.772	0.122	-0.234
-72.494	-175.492	-0.246	0.007
-71.480	57.053	0.108	0.105
-70.465	800.000	0.054	0.217
-69.451	33.581	-0.129	0.111
-68.436	770.856	-0.084	0.229
-67.422	-54.994	0.067	-0.030
-66.407	-200.000	-0.009	-0.106
-65.392	6.513	-0.316	0.234
-64.378	7.117	-0.252	0.187
-63.363	66.464	0.127	-0.128
-62.349	185.763	0.097	0.144
-61.334	36.855	-0.757	-0.667
-60.319	-47.709	0.112	0.054
-59.305	800.000	0.169	-0.699
-58.290	65.240	0.689	0.694
-57.276	800.000	0.671	1.940
-56.261	-200.000	73.009	553.575
-55.246	566.186	1305.908	3157.475
-54.232	137.385	2572.376	3354.008
-53.217	121.354	2257.732	2802.552
-52.203	56.722	1689.156	1638.710
-51.188	47.638	1404.411	1305.601
-50.173	43.841	1356.324	1237.698
-49.159	62.056	1388.006	1379.013
-48.144	70.771	1406.991	1451.248
-47.130	48.006	1370.342	1275.982
-46.115	43.658	1353.972	1234.240
-45.100	43.440	1349.539	1228.823
-44.086	43.321	1347.338	1226.046
-43.071	43.318	1344.553	1223.448
-42.057	43.280	1342.520	1221.317
-41.042	43.226	1340.505	1219.109
-40.027	43.391	1338.627	1218.352
-39.013	43.424	1336.770	1216.808
-37.998	43.449	1334.770	1215.092
-36.984	43.476	1333.103	1213.687
-35.969	43.602	1331.190	1212.654
-34.954	43.624	1329.429	1211.132
-33.940	43.576	1328.189	1209.671
-32.925	43.577	1326.940	1208.490
-31.911	43.615	1325.403	1207.271
-30.896	43.669	1323.734	1206.023
-29.881	43.627	1322.477	1204.580
-28.867	43.606	1321.264	1203.303
-27.852	43.624	1319.669	1201.907
-26.838	43.610	1318.258	1200.493
-25.823	43.479	1316.681	1198.234
-24.809	43.548	1315.562	1197.574
-23.794	43.547	1314.117	1196.209
-22.779	43.545	1312.707	1194.863
-21.765	43.702	1310.248	1193.503
-20.750	43.573	1309.806	1192.291
-19.736	43.444	1308.626	1190.411
-18.721	43.480	1307.196	1189.273
-17.706	43.519	1306.196	1188.550
-16.692	43.404	1305.463	1187.160
-15.677	43.515	1303.672	1186.132
-14.663	43.377	1302.496	1184.208
-13.648	43.372	1301.596	1183.315
-12.633	43.402	1300.440	1182.389
-11.619	43.407	1299.509	1181.528
-10.604	43.499	1298.423	1181.027
-9.590	43.413	1297.484	1179.625
-8.575	43.343	1296.826	1178.573
-7.560	43.321	1295.906	1177.560
-6.546	43.475	1294.470	1177.105
-5.531	43.410	1293.660	1175.946
-4.517	43.378	1293.119	1175.219
-3.502	43.395	1292.346	1174.571
-2.487	43.532	1291.059	1174.151
-1.473	43.534	1287.548	1170.921
-0.458	42.473	1272.560	1151.165
0.556	36.265	1251.377	1103.711
1.571	30.318	1251.799	1069.832
2.586	27.685	1264.325	1065.087
3.600	25.536	1253.402	1043.335
4.615	18.324	1176.026	939.418
5.629	6.766	1091.101	812.345
6.644	0.801	1066.370	763.804
7.659	0.235	1063.762	759.016
8.673	0.228	1062.681	758.143
9.688	0.068	1061.057	756.110
10.702	0.160	1060.118	755.840
11.717	5.771	1068.392	790.004
12.731	15.001	1079.104	844.638
13.746	18.063	1082.584	862.773
14.761	17.047	1081.153	856.432
15.775	16.167	1078.376	849.724
16.790	15.104	1076.593	842.896
17.804	14.478	1074.788	838.263
18.819	13.987	1073.731	834.895
19.834	13.722	1072.832	832.793
20.848	13.418	1071.969	830.525
21.863	13.287	1070.636	828.759
22.877	13.005	1070.348	827.052
23.892	13.029	1069.552	826.482
24.907	13.068	1068.205	825.563
25.921	12.897	1068.405	824.793
26.936	13.107	1067.324	824.934
27.950	13.098	1066.720	824.347
28.965	13.159	1065.343	823.513
29.980	13.165	1063.694	822.195
30.994	13.152	1062.613	821.224
32.009	13.239	1061.317	820.584
33.023	13.181	1060.850	819.862
34.038	13.136	1059.762	818.723
35.053	13.133	1058.896	817.966
36.067	13.234	1057.471	817.294
37.082	13.270	1056.900	816.961
38.096	13.197	1056.529	816.239
39.111	13.083	1056.092	815.266
40.126	13.166	1054.755	814.572
41.140	13.109	1053.174	813.000
42.155	12.990	1051.923	811.374
43.169	12.940	1051.083	810.408
44.184	13.074	1049.833	810.033
45.199	13.129	1048.776	809.416
46.213	13.161	1048.129	808.998
47.228	13.102	1047.161	807.890
48.242	13.293	1045.541	807.503
49.257	13.089	1044.963	805.991
50.271	13.158	1044.181	805.652
51.286	13.143	1043.257	804.793
52.301	13.177	1042.508	804.310
53.315	13.173	1041.146	803.172
54.330	13.109	1040.187	802.046
55.344	13.094	1039.565	801.424
56.359	13.082	1038.440	800.430
57.374	13.020	1037.770	799.542
58.388	13.124	1036.582	799.057
59.403	12.973	1036.262	798.010
60.417	13.064	1035.318	797.651
61.432	12.968	1034.636	796.594
62.447	12.913	1033.832	795.637
63.461	12.934	1033.043	795.063
64.476	12.835	1032.464	794.069
65.490	12.869	1031.427	793.364
66.505	12.968	1030.573	793.112
67.520	12.977	1030.081	792.708
68.534	13.028	1029.020	792.065
69.549	12.917	1028.493	791.056
70.563	12.856	1027.956	790.285
71.578	12.918	1026.771	789.597
72.593	12.947	1025.928	789.019
73.607	13.006	1024.916	788.455
74.622	12.899	1024.484	787.538
75.636	12.979	1023.915	787.414
76.651	13.043	1023.125	787.042
77.666	12.824	1022.571	785.501
78.680	13.012	1021.842	785.769
79.695	12.909	1021.040	784.591
80.709	12.942	1020.517	784.280
81.724	13.088	1019.817	784.366
82.739	13.088	1018.868	783.563
83.753	13.129	1018.239	783.207
84.768	13.320	1016.991	783.084
85.782	13.255	1016.459	782.297
86.797	13.260	1015.021	781.144
87.812	13.176	1014.508	780.283
88.826	13.033	1013.699	778.918
89.841	13.252	1012.475	778.938
90.855	13.169	1011.607	777.812
91.870	13.165	1011.270	777.465
92.884	13.304	1010.120	777.167
93.899	13.231	1009.404	776.200
94.914	13.333	1008.436	775.867
95.928	13.406	1007.480	775.408
96.943	13.327	1006.816	774.458
97.957	13.241	1005.811	773.215
98.972	13.254	1005.231	772.759
99.987	13.238	1004.196	771.822
101.001	13.179	1003.461	770.914
102.016	13.184	1002.515	770.141
103.030	13.374	1001.531	770.202
104.045	13.239	1000.858	768.985
105.060	13.287	999.867	768.382
106.074	13.141	999.063	767.017
107.089	13.182	997.934	766.274
108.103	13.031	997.158	764.908
109.118	13.128	996.259	764.602
110.133	13.033	995.407	763.442
111.147	13.107	994.470	762.994
112.162	13.108	993.306	762.042
113.176	13.197	992.525	761.783
114.191	13.375	991.966	762.109
115.206	13.179	991.246	760.585
116.220	13.169	990.631	759.999
117.235	13.212	989.392	759.178
118.249	13.276	988.532	758.745
119.264	13.047	988.105	757.301
120.279	13.225	987.129	757.299
121.293	13.068	986.483	756.021
122.308	13.105	985.577	755.427
123.322	13.130	984.359	754.543
124.337	13.123	983.710	753.946
125.352	13.070	982.621	752.803
126.366	13.125	981.402	752.053
127.381	13.294	979.820	751.543
128.395	13.135	979.226	750.296
129.410	13.237	978.183	749.896
130.424	13.281	977.553	749.547
131.439	13.263	977.001	748.972
132.454	13.247	976.382	748.362
133.468	13.302	975.749	748.060
134.483	13.218	974.467	746.629
135.497	13.425	973.350	746.642
136.512	13.306	972.702	745.544
137.527	13.290	971.927	744.811
138.541	13.261	971.345	744.166
139.556	13.410	970.462	744.094
140.570	13.382	969.733	743.344
141.585	13.315	969.198	742.569
142.600	13.443	968.093	742.228
143.614	13.493	967.404	741.858
144.629	13.546	966.274	741.166
145.643	13.560	965.648	740.683
146.658	13.475	964.528	739.378
147.673	13.391	963.498	738.146
148.687	13.444	962.583	737.618
149.702	13.394	962.047	736.919
150.716	13.304	961.230	735.827
151.731	13.412	960.399	735.606
152.746	13.325	959.841	734.726
153.760	13.391	958.930	734.256
154.775	13.426	958.519	734.032
155.789	13.491	957.631	733.575
156.804	13.474	957.078	733.013
157.819	13.521	956.593	732.785
158.833	13.471	955.831	731.913
159.848	13.521	954.717	731.217
160.862	13.513	954.038	730.597
161.877	13.564	952.979	729.948
162.892	13.428	952.133	728.638
163.906	13.405	951.063	727.649
164.921	13.363	950.205	726.744
165.935	13.361	949.598	726.210
166.950	13.514	948.663	726.102
167.964	13.522	947.972	725.540
168.979	13.465	947.096	724.558
169.994	13.543	945.866	723.895
171.008	13.583	945.377	723.631
172.023	13.602	944.522	722.993
173.037	13.624	943.851	722.511
174.052	13.578	943.288	721.816
175.067	13.579	942.722	721.327
176.081	13.580	941.635	720.433
177.096	13.393	941.881	719.746
178.110	13.584	940.723	719.626
179.125	13.531	940.371	719.064
180.140	13.566	939.722	718.655
181.154	13.563	939.567	718.460
182.169	13.813	938.772	718.872
183.183	13.638	938.301	717.691
184.198	13.761	937.389	717.461
185.213	13.777	936.535	716.812
186.227	13.789	936.076	716.450
187.242	13.745	935.476	715.739
188.256	13.906	935.028	716.026
189.271	13.686	933.930	714.174
190.286	13.784	932.770	713.646
191.300	13.681	932.541	712.964
192.315	13.618	931.910	712.147
193.329	13.669	931.108	711.690
194.344	13.652	930.761	711.289
195.359	13.777	929.842	711.059
196.373	13.751	929.419	710.563
197.388	13.880	928.561	710.393
198.402	13.914	928.445	710.388
199.417	13.988	927.847	710.183
200.432	14.052	927.209	709.909
201.446	14.124	926.477	709.592
202.461	14.122	925.916	709.088
203.475	14.055	925.598	708.499
204.490	13.907	924.607	707.048
205.504	14.045	923.929	707.055
206.519	14.055	922.973	706.299
207.534	14.065	922.276	705.749
208.548	13.968	922.190	705.210
209.563	14.036	921.327	704.775
210.577	14.066	920.662	704.328
211.592	14.204	919.746	704.150
212.607	14.216	919.107	703.651
213.621	14.087	918.288	702.416
214.636	14.163	917.682	702.212
215.650	14.213	917.137	701.942
216.665	14.244	916.442	701.480
217.680	14.195	915.865	700.768
218.694	14.226	915.293	700.399
219.709	14.191	914.635	699.687
220.723	14.321	913.646	699.416
221.738	14.458	912.806	699.285
222.753	14.341	912.376	698.402
223.767	14.278	912.013	697.800
224.782	14.500	911.265	698.095
225.796	14.404	910.479	697.030
226.811	14.528	909.985	697.109
227.826	14.409	909.851	696.448
228.840	14.257	908.768	694.922
229.855	14.420	907.556	694.613
230.869	14.270	907.217	693.667
231.884	14.328	906.602	693.377
232.899	14.538	905.800	693.574
233.913	14.331	905.111	692.125
234.928	14.295	904.471	691.424
235.942	14.443	904.000	691.620
236.957	14.300	903.768	690.787
237.972	14.404	902.832	690.441
238.986	14.347	902.049	689.545
240.001	14.340	901.547	689.072
241.015	14.350	900.716	688.415
242.030	14.360	900.182	687.988
243.045	14.510	899.773	688.233
244.059	14.473	899.279	687.645
245.074	14.611	898.323	687.421
246.088	14.510	897.948	686.655
247.103	14.665	896.850	686.392
248.117	14.644	896.574	686.033
249.132	14.795	895.778	685.986
250.147	14.772	895.521	685.632
251.161	14.723	894.963	684.945
252.176	14.764	894.341	684.574
253.190	14.763	893.429	683.814
254.205	14.782	892.751	683.311
255.220	14.780	892.332	682.921
256.234	14.842	891.468	682.453
257.249	14.866	890.883	682.042
258.263	14.853	890.184	681.394
259.278	14.924	889.010	680.725
260.293	14.963	888.786	680.651
261.307	15.013	888.204	680.348
262.322	15.052	887.542	679.941
263.336	14.989	886.421	678.767
264.351	15.092	885.996	678.797
265.366	15.186	885.331	678.608
266.380	15.102	884.833	677.828
267.395	14.968	884.334	676.842
268.409	14.980	883.517	676.208
269.424	14.971	882.949	675.677
270.439	14.965	881.844	674.745
271.453	15.065	881.218	674.610
272.468	15.052	880.801	674.181
273.482	14.990	880.391	673.556
274.497	15.110	879.938	673.634
275.512	15.020	879.391	672.793
276.526	15.204	878.943	673.131
277.541	15.076	878.067	671.885
278.555	15.127	877.530	671.621
279.570	15.290	876.967	671.781
280.585	15.280	875.967	670.918
281.599	15.196	875.058	669.825
282.614	15.176	874.573	669.315
283.628	15.244	873.915	669.025
284.643	15.252	873.333	668.552
285.657	15.300	872.670	668.175
286.672	15.304	872.056	667.662
287.687	15.341	871.397	667.246
288.701	15.413	870.730	666.963
289.716	15.296	870.274	666.088
290.730	15.354	869.605	665.746
291.745	15.337	869.271	665.367
292.760	15.492	868.231	665.125
293.774	15.504	867.667	664.682
294.789	15.328	867.094	663.489
295.803	15.428	866.342	663.250
296.818	15.331	865.819	662.407
297.833	15.508	864.701	662.191
298.847	15.414	864.327	661.473
299.862	15.602	863.624	661.617
300.876	15.459	863.284	660.736
301.891	15.578	862.983	660.917
302.906	15.604	862.369	660.491
303.920	15.627	861.509	659.865
304.935	15.731	861.152	659.940
305.949	15.619	860.622	659.036
306.964	15.850	859.655	659.143
307.979	15.755	859.425	658.535
308.993	15.715	858.722	657.784
310.008	15.864	858.234	657.933
311.022	15.833	857.787	657.412
312.037	15.745	857.032	656.431
313.052	15.664	856.304	655.500
314.066	15.582	856.110	654.972
315.081	15.649	855.644	654.819
316.095	15.768	854.644	654.459
317.110	15.734	854.180	653.912
318.125	15.802	853.687	653.740
319.139	15.694	853.116	652.827
320.154	15.828	853.039	653.232
321.168	15.839	852.502	652.806
322.183	15.743	851.846	651.872
323.197	15.757	851.237	651.401
324.212	15.811	850.911	651.303
325.227	15.708	850.251	650.344
326.241	15.767	849.667	650.069
327.256	15.932	848.947	650.096
328.270	15.805	848.568	649.259
329.285	15.870	847.767	648.840
330.300	15.898	847.254	648.496
331.314	15.738	846.673	647.378
332.329	15.962	846.120	647.759
333.343	15.869	846.042	647.284
334.358	15.914	845.495	646.981
335.373	16.035	844.909	646.941
336.387	16.126	844.398	646.844
337.402	15.950	844.533	646.213
338.416	16.047	843.837	645.993
339.431	16.037	843.708	645.800
340.446	16.191	842.946	645.749
341.460	16.190	842.336	645.223
342.475	16.111	842.179	644.741
343.489	16.250	841.876	644.983
344.504	16.213	841.272	644.324
345.519	16.242	840.880	644.075
346.533	16.324	840.244	643.846
347.548	16.233	839.560	642.918
348.562	16.309	839.141	642.829
349.577	16.189	838.700	641.978
350.592	16.162	838.037	641.310
351.606	16.183	837.222	640.710
352.621	16.269	836.575	640.483
353.635	16.325	835.887	640.113
354.650	16.275	835.493	639.565
355.665	16.393	834.421	639.133
356.679	16.269	834.022	638.303
357.694	16.192	833.560	637.602
358.708	16.276	832.981	637.420
359.723	16.414	832.331	637.386
360.738	16.532	831.468	637.114
361.752	16.469	830.967	636.439
362.767	16.444	830.482	635.917
363.781	16.533	829.972	635.805
364.796	16.632	829.160	635.496
365.810	16.638	829.101	635.418
366.825	16.495	828.788	634.584
367.840	16.740	828.435	635.179
368.854	16.623	827.694	634.116
369.869	16.626	827.238	633.722
370.883	16.651	827.030	633.600
371.898	16.662	826.523	633.197
372.913	16.675	826.178	632.925
373.927	16.656	825.709	632.439
374.942	16.618	825.241	631.880
375.956	16.844	824.584	632.164
376.971	16.855	824.082	631.766
377.986	16.876	823.923	631.666
379.000	16.936	823.259	631.324
380.015	16.963	822.876	631.073
381.029	16.934	821.982	630.224
382.044	16.894	821.610	629.736
383.059	17.021	820.805	629.535
384.073	17.056	820.088	629.058
385.088	16.919	820.007	628.434
386.102	16.925	819.331	627.883
387.117	16.871	818.856	627.262
388.132	16.970	818.058	626.963
389.146	17.026	817.637	626.790
390.161	16.960	817.325	626.253
391.175	16.904	817.198	625.894
392.190	17.038	816.404	625.725
393.205	16.957	815.703	624.833
394.219	16.887	815.924	624.690
395.234	16.922	815.084	624.118
396.248	16.936	814.629	623.767
397.263	17.029	813.856	623.461
398.278	17.064	813.924	623.586
399.292	17.011	813.291	622.853
400.307	16.966	812.927	622.354
401.321	16.951	812.402	621.842
402.336	16.920	812.146	621.478
403.350	16.923	811.706	621.098
404.365	17.046	811.373	621.234
405.380	17.097	810.698	620.852
406.394	17.194	810.119	620.705
407.409	17.257	809.727	620.582
408.423	17.361	809.234	620.528
409.438	17.243	808.717	619.648
410.453	17.338	808.478	619.755
411.467	17.276	808.063	619.156
412.482	17.383	807.400	618.982
413.496	17.417	807.250	618.936
414.511	17.348	806.981	618.427
415.526	17.373	806.342	617.973
416.540	17.485	805.824	617.927
417.555	17.401	805.623	617.412
418.569	17.419	805.138	617.052
419.584	17.432	804.406	616.482
420.599	17.449	804.129	616.280
421.613	82.655	1246.230	1305.924
422.628	70.288	1310.660	1306.051
