DTS Sentinel unit serial number:	SN413079Multiplexer serial number:	ORYXHardware model number:	OX4-SRSoftware version number:	ORYX F/W v4.00 Oryx Data Collector v3.7.2.0data status	okinstallation	princeton_trtdifferential loss correction	single-endedforward channel	channel 1reverse channel	N/Adate	2019/09/16time	06:10:35forward acquisition time	60.00reverse acquisition time	0.00gamma	496.2192k internal	0.2331k external	0.2331temperature offset calibration	0.9986default loss term (dB/km)	0.3790temperature slope calibration	1.0000multiplexer offset coefficient	1.0000multiplexer slope coefficient	1.0000fibre end	0.00T internal ref (°C)	27.44T ext. ref 1 (°C)	11.30T ext. ref 2 (°C)	21.80length (m)	temperature (°C)	Stokes	anti-Stokes-747.200	19.422	-0.140	-0.113
-746.185	3.167	0.195	0.143
-745.171	-200.000	-0.012	-0.114
-744.156	-200.000	0.015	0.148
-743.142	800.000	-0.106	-0.358
-742.127	394.672	0.093	0.194
-741.112	71.936	0.137	0.143
-740.098	-23.765	-0.420	0.253
-739.083	-90.732	0.089	-0.026
-738.069	-200.000	0.144	0.640
-737.054	-12.405	0.539	-0.354
-736.039	-100.138	-0.111	0.028
-735.025	-200.000	0.012	0.382
-734.010	-200.000	0.014	-0.148
-732.996	-200.000	0.015	-0.175
-731.981	-112.998	-0.348	-0.069
-730.966	45.735	-0.398	0.370
-729.952	-200.000	-0.016	0.129
-728.937	-121.040	-0.090	-0.015
-727.923	-52.891	-0.260	-0.120
-726.908	-23.388	-0.323	-0.195
-725.894	51.711	-0.246	0.235
-724.879	-200.000	0.014	-0.132
-723.864	770.692	-0.089	-0.245
-722.850	264.201	0.119	-0.209
-721.835	26.206	0.048	0.041
-720.821	29.857	0.225	0.193
-719.806	160.582	-0.295	0.414
-718.791	-87.759	-0.444	-0.135
-717.777	-177.598	-0.206	-0.005
-716.762	220.815	0.038	-0.061
-715.748	-18.242	-0.121	0.076
-714.733	-39.085	0.079	0.042
-713.718	365.629	0.097	-0.196
-712.704	212.270	0.069	-0.109
-711.689	-200.000	0.037	-0.252
-710.675	-200.000	-0.008	-0.254
-709.660	-105.434	0.187	-0.043
-708.645	186.317	-0.304	0.455
-707.631	-200.000	0.037	0.167
-706.616	-2.475	0.193	-0.136
-705.602	607.331	0.133	-0.334
-704.587	-200.000	0.006	0.131
-703.572	130.672	0.008	0.011
-702.558	-5.783	0.124	0.085
-701.543	221.407	-0.153	0.247
-700.529	800.000	0.040	-0.164
-699.514	30.645	0.222	-0.191
-698.499	-200.000	-0.029	-0.224
-697.485	2.400	-0.309	-0.224
-696.470	106.618	-0.082	-0.098
-695.456	-200.000	0.010	0.175
-694.441	-81.391	0.118	0.039
-693.426	-97.580	-0.116	0.030
-692.412	-14.529	0.073	0.047
-691.397	-200.000	0.032	-0.199
-690.383	-109.265	0.228	0.049
-689.368	-56.188	-0.329	-0.147
-688.354	-200.000	0.007	0.053
-687.339	-33.716	-0.095	-0.053
-686.324	441.152	0.078	-0.171
-685.310	33.624	0.081	-0.071
-684.295	18.209	0.114	-0.092
-683.281	-11.755	0.409	-0.270
-682.266	602.124	-0.053	0.132
-681.251	-29.504	0.111	-0.064
-680.237	-150.078	0.138	-0.011
-679.222	-64.698	0.196	-0.080
-678.208	-98.261	-0.145	0.037
-677.193	7.398	0.112	-0.084
-676.178	104.826	-0.177	0.209
-675.164	-120.657	0.052	-0.009
-674.149	-18.562	-0.286	0.179
-673.135	-52.106	-0.150	-0.070
-672.120	465.886	-0.061	0.136
-671.105	50.360	-0.372	0.353
-670.091	-200.000	-0.003	0.290
-669.076	20.557	0.100	0.081
-668.062	-200.000	0.048	-0.415
-667.047	-200.000	0.015	-0.121
-666.032	-200.000	-0.026	0.216
-665.018	-200.000	0.028	0.314
-664.003	-95.200	0.262	0.071
-662.989	496.745	0.037	-0.084
-661.974	9.300	-0.240	-0.182
-660.959	14.597	-0.195	-0.153
-659.945	437.300	-0.037	-0.081
-658.930	268.468	0.117	0.206
-657.916	800.000	0.049	-0.137
-656.901	-97.773	-0.199	-0.052
-655.886	-99.118	0.172	-0.044
-654.872	505.128	-0.128	-0.298
-653.857	800.000	-0.097	-0.383
-652.843	-153.078	-0.027	-0.002
-651.828	-54.376	-0.188	0.085
-650.814	-73.886	-0.212	0.077
-649.799	-4.518	0.172	0.119
-648.784	-96.712	0.252	0.066
-647.770	720.460	-0.092	-0.245
-646.755	31.372	0.264	0.228
-645.741	21.899	0.096	-0.078
-644.726	-171.521	-0.214	-0.007
-643.711	-54.537	0.317	-0.144
-642.697	-36.804	0.229	-0.123
-641.682	-95.823	-0.150	0.040
-640.668	-200.000	0.001	0.123
-639.653	337.340	0.093	0.182
-638.638	194.302	-0.179	-0.272
-637.624	32.805	0.212	0.184
-636.609	-160.952	-0.096	0.005
-635.595	44.179	0.059	0.054
-634.580	65.347	-0.055	-0.056
-633.565	184.168	0.115	0.170
-632.551	434.846	-0.127	-0.276
-631.536	424.324	-0.068	0.146
-630.522	-200.000	-0.053	0.304
-629.507	800.000	-0.037	-0.111
-628.492	-124.453	0.170	0.026
-627.478	-200.000	-0.007	-0.354
-626.463	101.689	-0.149	0.175
-625.449	-200.000	-0.064	0.299
-624.434	17.614	-0.154	-0.123
-623.419	61.435	-0.032	0.032
-622.405	-34.351	0.254	-0.139
-621.390	-116.081	0.286	0.053
-620.376	-200.000	0.001	0.185
-619.361	457.583	-0.184	0.409
-618.346	232.752	-0.228	0.376
-617.332	-14.267	-0.174	-0.113
-616.317	-78.562	0.144	0.049
-615.303	-83.333	0.060	0.019
-614.288	-200.000	-0.000	0.163
-613.273	-116.125	0.299	-0.056
-612.259	-162.920	-0.275	-0.013
-611.244	-159.056	-0.166	-0.009
-610.230	-138.009	0.120	0.013
-609.215	289.749	0.130	0.236
-608.201	783.495	0.088	0.241
-607.186	74.712	0.228	-0.240
-606.171	800.000	-0.062	0.197
-605.157	-200.000	-0.010	0.185
-604.142	354.274	-0.181	0.360
-603.128	-150.520	0.303	0.023
-602.113	1.125	-0.273	-0.196
-601.098	-200.000	0.028	-0.134
-600.084	800.000	0.074	-0.318
-599.069	265.511	-0.104	-0.181
-598.055	-147.059	-0.485	-0.042
-597.040	-200.000	-0.002	-0.139
-596.025	3.393	-0.141	0.103
-595.011	-200.000	-0.007	0.075
-593.996	10.233	0.144	0.109
-592.982	-58.516	0.329	-0.143
-591.967	-200.000	-0.039	-0.175
-590.952	-38.496	-0.279	0.147
-589.938	-63.729	0.119	0.049
-588.923	168.478	0.119	0.170
-587.909	686.035	0.089	0.233
-586.894	-61.885	0.270	-0.113
-585.879	-80.241	0.102	-0.034
-584.865	-6.726	-0.226	-0.154
-583.850	-97.447	0.382	0.099
-582.836	27.065	0.121	-0.102
-581.821	167.853	-0.184	-0.262
-580.806	263.717	-0.056	0.097
-579.792	-200.000	0.023	0.531
-578.777	-124.360	0.369	-0.058
-577.763	-200.000	0.038	-0.203
-576.748	-200.000	0.011	0.111
-575.733	159.196	0.323	-0.450
-574.719	-79.381	-0.122	0.041
-573.704	-200.000	-0.005	0.142
-572.690	-0.418	-0.235	-0.167
-571.675	89.509	-0.191	-0.213
-570.661	59.539	-0.019	0.019
-569.646	-17.444	-0.199	-0.125
-568.631	-2.714	0.050	-0.035
-567.617	30.122	-0.102	0.087
-566.602	-48.940	-0.147	-0.070
-565.588	152.235	0.111	0.151
-564.573	-42.243	-0.268	-0.137
-563.558	-9.341	0.207	-0.138
-562.544	1.619	-0.233	-0.167
-561.529	205.592	-0.236	0.366
-560.515	384.320	0.204	-0.420
-559.500	-200.000	0.049	-0.271
-558.485	-70.498	-0.239	-0.090
-557.471	109.041	0.191	0.228
-556.456	-119.613	-0.224	-0.039
-555.442	-200.000	-0.014	0.121
-554.427	-33.902	-0.139	0.076
-553.412	-131.157	0.197	-0.026
-552.398	-57.679	0.305	-0.134
-551.383	59.822	-0.074	-0.073
-550.369	-131.365	0.197	0.026
-549.354	-67.617	0.291	-0.114
-548.339	11.117	-0.027	-0.021
-547.325	-13.546	-0.047	0.030
-546.310	358.489	-0.101	-0.202
-545.296	-200.000	0.000	-0.215
-544.281	-133.984	0.110	-0.014
-543.266	-200.000	-0.026	0.194
-542.252	-51.086	0.168	-0.079
-541.237	-133.386	-0.283	0.036
-540.223	255.449	-0.121	-0.207
-539.208	-200.000	0.027	-0.312
-538.193	-200.000	0.007	-0.196
-537.179	46.186	0.148	0.137
-536.164	235.742	-0.235	-0.388
-535.150	-156.125	0.207	-0.013
-534.135	356.766	-0.019	0.038
-533.121	-167.845	-0.185	-0.007
-532.106	280.117	0.129	0.230
-531.091	183.162	-0.100	-0.147
-530.077	-39.039	0.373	-0.196
-529.062	-200.000	-0.032	0.177
-528.048	-61.929	0.277	-0.116
-527.033	121.631	0.161	0.201
-526.018	36.280	0.140	-0.123
-525.004	-161.411	0.159	0.008
-523.989	248.514	0.061	0.103
-522.975	-133.557	-0.290	-0.036
-521.960	-200.000	-0.068	0.443
-520.945	800.000	-0.067	-0.189
-519.931	164.856	-0.110	0.155
-518.916	-87.028	-0.060	0.018
-517.902	800.000	-0.038	-0.142
-516.887	-200.000	-0.013	0.068
-515.872	231.837	0.156	-0.256
-514.858	50.970	-0.117	-0.111
-513.843	62.938	0.013	-0.013
-512.829	-85.409	0.153	-0.048
-511.814	-52.869	-0.354	-0.163
-510.799	2.448	-0.083	0.060
-509.785	800.000	0.030	-0.102
-508.770	-65.544	0.248	-0.099
-507.756	245.078	-0.122	-0.204
-506.741	-101.781	0.114	-0.028
-505.726	-44.372	0.261	0.130
-504.712	-104.383	-0.158	-0.036
-503.697	358.116	0.101	0.201
-502.683	107.509	0.228	-0.270
-501.668	181.265	-0.081	0.118
-500.653	800.000	0.084	0.240
-499.639	-186.807	0.113	0.002
-498.624	139.778	-0.058	-0.077
-497.610	-200.000	0.026	-0.139
-496.595	87.531	0.062	-0.068
-495.581	67.781	0.109	-0.111
-494.566	800.000	0.014	0.048
-493.551	21.146	0.140	0.113
-492.537	-127.513	-0.288	-0.042
-491.522	-145.297	-0.278	-0.025
-490.508	14.923	0.089	0.070
-489.493	81.655	0.152	0.164
-488.478	607.451	-0.107	0.266
-487.464	-76.235	-0.230	0.081
-486.449	-108.693	-0.211	-0.045
-485.435	-200.000	0.024	0.178
-484.420	-19.925	-0.166	0.102
-483.405	-175.159	0.239	-0.007
-482.391	633.620	-0.028	-0.071
-481.376	-109.825	-0.170	-0.036
-480.362	1.143	-0.315	0.225
-479.347	-34.279	0.097	-0.053
-478.332	-95.543	0.165	-0.044
-477.318	14.242	-0.257	0.199
-476.303	-200.000	0.012	-0.061
-475.289	154.507	-0.226	0.308
-474.274	170.202	-0.102	-0.146
-473.259	800.000	-0.077	-0.282
-472.245	23.251	0.248	-0.203
-471.230	640.109	-0.160	-0.405
-470.216	-129.160	0.227	0.032
-469.201	245.678	0.107	0.180
-468.186	-150.589	0.371	-0.028
-467.172	-54.644	-0.152	-0.068
-466.157	-200.000	0.003	0.067
-465.143	-200.000	-0.047	-0.215
-464.128	379.599	0.112	-0.228
-463.113	-200.000	-0.008	-0.038
-462.099	82.401	0.215	0.232
-461.084	25.928	-0.163	-0.135
-460.070	92.563	-0.106	-0.120
-459.055	-139.321	-0.184	-0.020
-458.040	-200.000	0.002	-0.153
-457.026	-63.974	0.141	-0.057
-456.011	121.029	-0.059	-0.073
-454.997	494.148	0.057	0.130
-453.982	-153.844	-0.081	0.006
-452.968	26.310	0.065	0.054
-451.953	200.496	0.067	-0.103
-450.938	-4.410	-0.147	-0.101
-449.924	5.837	-0.098	0.072
-448.909	-25.397	0.052	0.031
-447.895	191.742	0.202	0.302
-446.880	-25.431	-0.223	-0.131
-445.865	240.120	-0.058	-0.096
-444.851	-33.732	-0.160	0.088
-443.836	-20.747	0.222	0.136
-442.822	58.132	0.280	0.272
-441.807	-108.305	0.221	0.048
-440.792	-76.433	-0.243	-0.085
-439.778	-126.907	-0.056	0.008
-438.763	-200.000	-0.078	0.419
-437.749	170.914	-0.102	0.145
-436.734	-200.000	-0.040	-0.288
-435.719	-97.942	-0.143	0.037
-434.705	53.927	-0.241	-0.231
-433.690	-117.762	0.344	0.062
-432.676	-200.000	-0.038	0.352
-431.661	1.474	0.099	-0.071
-430.646	19.684	0.144	-0.115
-429.632	-57.249	-0.071	0.031
-428.617	33.758	-0.051	0.045
-427.603	-200.000	-0.233	-0.001
-426.588	7.551	-0.120	0.090
-425.573	-200.000	0.030	-0.301
-424.559	17.084	0.094	-0.074
-423.544	-149.980	0.086	0.007
-422.530	-100.109	0.149	0.037
-421.515	-63.942	-0.118	-0.048
-420.500	-155.383	0.094	0.006
-419.486	-152.333	-0.077	-0.005
-418.471	671.362	-0.068	0.176
-417.457	267.448	0.118	0.206
-416.442	83.787	0.155	-0.168
-415.428	800.000	0.092	-0.337
-414.413	-30.091	0.169	0.096
-413.398	683.588	0.051	0.133
-412.384	-75.315	-0.100	-0.036
-411.369	-100.464	0.304	-0.075
-410.355	-200.000	-0.019	0.090
-409.340	-200.000	-0.024	-0.141
-408.325	-200.000	0.023	0.326
-407.311	-98.020	0.268	0.069
-406.296	144.607	0.107	-0.142
-405.282	-113.357	-0.271	0.053
-404.267	-200.000	0.061	-0.371
-403.252	462.345	-0.106	-0.235
-402.238	-135.555	-0.345	0.041
-401.223	111.945	-0.115	0.138
-400.209	-200.000	-0.003	0.123
-399.194	303.143	-0.064	-0.119
-398.179	135.383	-0.114	-0.147
-397.165	-200.000	0.033	-0.285
-396.150	-131.925	0.545	-0.071
-395.136	-118.227	0.171	0.030
-394.121	157.616	0.043	-0.059
-393.106	-14.862	-0.125	-0.079
-392.092	800.000	-0.060	-0.200
-391.077	71.639	-0.238	0.245
-390.063	-174.149	0.438	-0.013
-389.048	1.125	-0.022	0.016
-388.033	-200.000	-0.045	0.405
-387.019	21.135	0.036	0.029
-386.004	31.149	-0.173	0.147
-384.990	-125.292	0.273	0.041
-383.975	-121.444	-0.060	0.010
-382.960	-200.000	-0.043	0.260
-381.946	-38.366	-0.148	-0.078
-380.931	-82.380	0.202	0.065
-379.917	-200.000	-0.002	-0.034
-378.902	-200.000	-0.005	0.105
-377.888	164.628	0.178	0.249
-376.873	13.099	-0.145	-0.112
-375.858	-40.438	0.337	0.174
-374.844	-77.211	-0.103	-0.035
-373.829	-40.562	0.258	-0.133
-372.815	69.713	0.026	0.027
-371.800	196.621	-0.081	-0.122
-370.785	-96.866	-0.211	-0.055
-369.771	-200.000	0.002	-0.138
-368.756	-200.000	0.011	0.186
-367.742	41.215	0.149	-0.134
-366.727	-200.000	-0.008	-0.126
-365.712	-114.101	0.105	-0.020
-364.698	-87.268	-0.143	-0.043
-363.683	-200.000	0.005	-0.071
-362.669	-87.008	0.132	0.040
-361.654	603.428	-0.072	-0.179
-360.639	-45.772	-0.273	-0.134
-359.625	-45.938	0.193	0.095
-358.610	629.713	0.086	0.216
-357.596	-113.816	-0.248	0.048
-356.581	513.026	0.048	-0.111
-355.566	13.825	0.194	-0.149
-354.552	-70.613	0.183	0.068
-353.537	31.390	0.249	0.212
-352.523	-167.406	-0.224	0.009
-351.508	256.068	0.084	0.143
-350.493	16.699	-0.126	-0.099
-349.479	800.000	0.068	0.244
-348.464	96.076	0.203	0.230
-347.450	-9.897	-0.095	0.062
-346.435	-88.497	0.116	-0.034
-345.420	-200.000	0.007	0.321
-344.406	63.819	-0.304	-0.303
-343.391	800.000	-0.062	-0.189
-342.377	-157.080	-0.226	-0.014
-341.362	96.645	-0.124	0.140
-340.348	-200.000	0.029	0.169
-339.333	144.194	-0.124	-0.164
-338.318	-195.701	0.146	0.001
-337.304	62.784	-0.177	0.175
-336.289	76.615	-0.283	-0.297
-335.275	-200.000	0.014	0.433
-334.260	-12.754	-0.121	-0.078
-333.245	235.279	-0.121	0.197
-332.231	-200.000	-0.007	0.074
-331.216	-23.460	0.387	0.230
-330.202	-200.000	0.017	-0.223
-329.187	-53.446	-0.205	-0.093
-328.172	309.839	-0.116	-0.216
-327.158	134.101	-0.193	0.248
-326.143	218.810	-0.150	0.238
-325.129	425.376	0.055	-0.118
-324.114	-146.470	0.105	0.009
-323.099	79.587	-0.085	-0.091
-322.085	-66.443	-0.197	0.077
-321.070	72.108	-0.262	-0.270
-320.056	-11.360	0.206	-0.134
-319.041	800.000	0.072	0.280
-318.026	-84.056	0.173	0.054
-317.012	-99.436	0.289	-0.072
-315.997	800.000	-0.012	0.039
-314.983	-200.000	-0.037	-0.328
-313.968	262.607	0.155	-0.267
-312.953	-80.319	0.109	0.036
-311.939	35.616	-0.144	0.125
-310.924	381.398	-0.027	0.054
-309.910	451.953	0.097	0.212
-308.895	-200.000	-0.016	0.097
-307.880	-200.000	0.055	0.290
-306.866	800.000	0.074	0.220
-305.851	-53.899	0.204	0.092
-304.837	162.826	-0.108	-0.150
-303.822	-126.564	0.135	0.020
-302.807	-122.412	0.170	0.027
-301.793	-200.000	0.004	0.105
-300.778	800.000	0.043	0.122
-299.764	232.230	-0.267	0.433
-298.749	45.262	-0.051	-0.046
-297.735	-84.981	0.162	0.050
-296.720	-200.000	-0.001	0.091
-295.705	254.471	0.173	-0.293
-294.691	-137.304	0.166	0.019
-293.676	41.884	-0.283	0.254
-292.662	51.088	-0.174	0.163
-291.647	-17.539	-0.104	0.065
-290.632	327.170	0.058	-0.110
-289.618	-200.000	-0.019	0.300
-288.603	43.470	-0.007	0.007
-287.589	800.000	-0.027	-0.076
-286.574	800.000	-0.045	0.185
-285.559	-39.795	-0.270	0.139
-284.545	388.473	-0.089	0.183
-283.530	30.708	-0.257	-0.217
-282.516	800.000	-0.018	-0.072
-281.501	324.853	-0.057	-0.108
-280.486	32.845	0.137	0.117
-279.472	129.973	-0.024	-0.031
-278.457	149.822	-0.069	0.093
-277.443	181.926	0.042	0.061
-276.428	-110.740	-0.341	0.070
-275.413	-145.512	-0.089	-0.008
-274.399	-27.925	-0.300	-0.172
-273.384	-61.931	-0.131	-0.054
-272.370	-40.290	-0.222	0.114
-271.355	-200.000	-0.007	0.306
-270.340	-124.106	0.180	-0.028
-269.326	-95.526	0.259	0.069
-268.311	-200.000	-0.023	0.099
-267.297	80.755	0.114	-0.121
-266.282	226.339	0.116	-0.186
-265.267	-135.313	-0.172	0.020
-264.253	-162.304	-0.304	0.015
-263.238	87.285	0.103	-0.112
-262.224	-117.825	-0.364	-0.065
-261.209	800.000	-0.031	0.086
-260.195	-38.855	-0.064	0.034
-259.180	-101.998	-0.250	-0.060
-258.165	452.667	0.158	0.345
-257.151	355.173	-0.074	-0.145
-256.136	800.000	0.050	-0.214
-255.122	-136.839	0.051	-0.006
-254.107	-123.079	0.139	0.022
-253.092	800.000	0.060	-0.243
-252.078	-54.338	-0.213	0.095
-251.063	-105.000	-0.241	0.055
-250.049	-50.671	-0.186	-0.086
-249.034	-72.133	-0.123	-0.045
-248.019	800.000	-0.068	0.240
-247.005	-128.645	-0.157	0.022
-245.990	-6.014	-0.516	0.348
-244.976	28.492	-0.101	-0.084
-243.961	-196.705	0.122	-0.001
-242.946	97.506	0.159	-0.180
-241.932	-200.000	-0.005	-0.233
-240.917	656.455	0.061	-0.155
-239.903	-200.000	0.021	-0.471
-238.888	140.326	0.124	0.162
-237.873	800.000	-0.073	0.270
-236.859	-61.110	-0.157	0.065
-235.844	-24.447	0.163	0.096
-234.830	-200.000	-0.018	-0.124
-233.815	294.642	-0.059	0.107
-232.800	-200.000	-0.006	0.180
-231.786	-45.851	0.410	0.200
-230.771	-96.791	-0.033	0.009
-229.757	580.027	0.131	-0.316
-228.742	-200.000	0.044	-0.255
-227.727	800.000	-0.037	0.109
-226.713	217.961	-0.133	-0.209
-225.698	113.734	0.115	-0.138
-224.684	-200.000	0.033	-0.251
-223.669	554.152	0.042	-0.099
-222.655	704.965	-0.126	0.327
-221.640	218.645	0.036	0.057
-220.625	-90.833	-0.493	-0.140
-219.611	-154.778	-0.260	-0.017
-218.596	-161.772	-0.249	-0.012
-217.582	-149.530	0.068	0.005
-216.567	-33.312	0.301	0.164
-215.552	-80.766	0.074	0.024
-214.538	4.994	-0.201	-0.146
-213.523	-166.644	-0.064	0.003
-212.509	800.000	-0.029	0.117
-211.494	162.201	0.114	0.157
-210.479	-200.000	0.022	-0.179
-209.465	-87.645	-0.066	-0.020
-208.450	-85.598	0.249	-0.076
-207.436	-1.641	0.258	-0.179
-206.421	84.495	0.123	-0.133
-205.406	800.000	-0.049	0.181
-204.392	-200.000	0.033	0.233
-203.377	-187.843	0.132	-0.002
-202.363	-200.000	0.025	-0.165
-201.348	84.433	-0.147	0.159
-200.333	-128.899	-0.089	0.012
-199.319	-10.268	-0.106	-0.070
-198.304	-200.000	-0.024	0.232
-197.290	-200.000	-0.012	-0.076
-196.275	-200.000	0.105	-0.463
-195.260	-200.000	-0.039	-0.297
-194.246	-200.000	0.070	0.448
-193.231	-200.000	-0.008	-0.119
-192.217	217.092	0.012	-0.020
-191.202	800.000	-0.019	-0.077
-190.187	-158.871	0.201	-0.011
-189.173	-158.165	-0.491	0.028
-188.158	-76.094	0.286	-0.100
-187.144	242.303	-0.082	0.136
-186.129	-200.000	-0.018	-0.154
-185.114	-36.832	0.093	0.049
-184.100	395.178	0.021	-0.044
-183.085	181.733	0.147	0.213
-182.071	800.000	-0.044	-0.153
-181.056	-92.920	-0.061	-0.017
-180.042	-173.709	0.344	-0.010
-179.027	521.615	-0.085	0.196
-178.012	12.891	0.082	-0.063
-176.998	70.332	0.302	-0.307
-175.983	135.923	0.122	0.156
-174.969	372.904	-0.085	-0.171
-173.954	4.742	-0.328	-0.237
-172.939	-200.000	-0.020	0.204
-171.925	-108.858	0.350	0.074
-170.910	192.592	-0.098	-0.146
-169.896	-107.136	-0.253	-0.055
-168.881	-166.130	0.127	0.005
-167.866	35.976	0.242	0.209
-166.852	342.122	-0.056	-0.109
-165.837	-82.648	0.244	-0.078
-164.823	-64.449	0.064	-0.025
-163.808	-132.724	-0.202	0.025
-162.793	266.519	-0.155	-0.266
-161.779	-78.188	0.099	-0.034
-160.764	597.559	0.055	0.135
-159.750	800.000	0.040	-0.161
-158.735	-31.337	-0.267	0.148
-157.720	-77.554	0.109	-0.037
-156.706	-58.559	0.211	-0.090
-155.691	-200.000	-0.041	0.224
-154.677	-200.000	0.027	-0.183
-153.662	-200.000	-0.021	0.122
-152.647	159.419	-0.156	-0.214
-151.633	-34.372	0.279	-0.151
-150.618	157.046	0.228	-0.311
-149.604	30.027	0.115	-0.097
-148.589	388.655	-0.115	-0.233
-147.574	413.837	-0.049	-0.102
-146.560	-16.226	-0.081	0.051
-145.545	-98.834	0.056	0.014
-144.531	10.150	-0.141	-0.106
-143.516	6.926	-0.111	0.081
-142.502	288.872	0.036	-0.065
-141.487	-104.353	-0.365	0.083
-140.472	60.716	0.261	-0.254
-139.458	-73.318	0.115	-0.041
-138.443	-39.609	0.178	0.092
-137.429	-25.372	0.278	0.161
-136.414	341.480	0.091	0.174
-135.399	635.191	0.126	-0.315
-134.385	-47.391	0.446	-0.213
-133.370	-91.263	-0.080	0.022
-132.356	190.563	0.089	-0.131
-131.341	-35.941	0.363	0.193
-130.326	-138.260	0.306	0.033
-129.312	-200.000	0.051	0.269
-128.297	142.993	0.104	0.136
-127.283	-35.460	-0.152	-0.081
-126.268	800.000	-0.017	0.071
-125.253	84.238	0.111	0.119
-124.239	800.000	0.011	0.032
-123.224	-87.546	0.129	-0.038
-122.210	-147.343	0.060	-0.005
-121.195	-200.000	-0.056	-0.320
-120.180	-25.486	-0.214	-0.124
-119.166	94.647	0.327	0.366
-118.151	-200.000	0.027	0.151
-117.137	-7.171	0.213	-0.142
-116.122	-131.386	-0.146	0.019
-115.107	800.000	0.101	-0.351
-114.093	-158.235	0.369	-0.021
-113.078	-200.000	-0.026	0.141
-112.064	93.387	-0.110	0.122
-111.049	368.283	0.158	0.313
-110.034	800.000	-0.072	-0.203
-109.020	800.000	-0.087	-0.259
-108.005	490.539	-0.037	0.082
-106.991	33.081	-0.217	0.185
-105.976	-190.822	0.152	0.002
-104.962	30.404	0.085	0.071
-103.947	-32.664	0.328	0.179
-102.932	10.181	-0.210	-0.156
-101.918	98.284	0.129	-0.146
-100.903	11.818	0.131	-0.099
-99.889	-65.260	-0.292	0.116
-98.874	800.000	-0.064	0.182
-97.859	-200.000	0.011	0.201
-96.845	-82.770	0.075	-0.024
-95.830	800.000	0.077	0.212
-94.816	-200.000	0.036	-0.213
-93.801	-4.321	0.265	0.180
-92.786	17.905	0.103	0.081
-91.772	-91.638	0.214	0.060
-90.757	-191.212	0.235	-0.002
-89.743	391.588	-0.034	0.070
-88.728	314.593	-0.072	0.133
-87.713	28.048	-0.050	0.041
-86.699	-81.083	-0.258	-0.084
-85.684	35.590	0.067	-0.057
-84.670	-200.000	0.007	-0.236
-83.655	-182.421	0.249	-0.005
-82.640	3.669	-0.078	0.056
-81.626	-140.917	-0.062	-0.006
-80.611	-107.354	-0.227	-0.049
-79.597	446.469	-0.069	0.149
-78.582	-61.249	-0.158	-0.065
-77.567	68.603	-0.151	-0.152
-76.553	558.545	-0.088	-0.209
-75.538	800.000	0.148	0.451
-74.524	800.000	-0.033	0.138
-73.509	799.702	0.106	-0.286
-72.494	522.176	-0.089	0.205
-71.480	703.570	0.093	0.240
-70.465	410.755	0.093	0.194
-69.451	-122.698	0.433	-0.069
-68.436	-43.252	0.134	0.066
-67.422	197.444	-0.229	-0.342
-66.407	-16.368	-0.152	0.094
-65.392	800.000	0.049	0.146
-64.378	15.174	0.146	-0.112
-63.363	-30.969	0.272	0.151
-62.349	-36.477	0.126	0.067
-61.334	0.551	-0.958	-0.671
-60.319	14.695	0.640	0.490
-59.305	742.981	-0.470	-1.239
-58.290	468.681	0.491	1.080
-57.276	297.329	0.942	1.695
-56.261	-200.000	113.683	641.213
-55.246	465.104	1509.915	3309.553
-54.232	146.262	2678.413	3521.776
-53.217	103.576	2158.199	2481.638
-52.203	38.936	1604.466	1404.350
-51.188	30.573	1350.518	1131.400
-50.173	27.827	1312.849	1083.523
-49.159	55.694	1368.243	1298.512
-48.144	54.184	1382.821	1303.193
-47.130	31.077	1338.257	1123.987
-46.115	27.542	1320.768	1088.184
-45.100	27.382	1315.892	1083.172
-44.086	27.297	1313.637	1080.766
-43.071	27.234	1311.161	1078.313
-42.057	27.221	1309.116	1076.513
-41.042	27.195	1307.835	1075.260
-40.027	27.406	1305.723	1074.729
-39.013	27.245	1304.046	1072.355
-37.998	27.265	1302.203	1070.918
-36.984	27.381	1300.281	1069.978
-35.969	27.535	1297.833	1068.823
-34.954	27.438	1297.065	1067.581
-33.940	27.455	1295.658	1066.476
-32.925	27.404	1294.399	1065.099
-31.911	27.609	1292.358	1064.575
-30.896	27.522	1290.895	1062.821
-29.881	27.619	1289.699	1062.360
-28.867	27.634	1288.221	1061.189
-27.852	27.512	1287.138	1059.546
-26.838	27.416	1285.864	1057.896
-25.823	27.558	1283.961	1057.114
-24.809	27.452	1283.316	1055.926
-23.794	27.517	1281.828	1055.034
-22.779	27.567	1279.971	1053.753
-21.765	27.645	1278.783	1053.184
-20.750	27.597	1277.599	1051.893
-19.736	27.547	1276.215	1050.419
-18.721	27.447	1275.479	1049.199
-17.706	27.331	1274.313	1047.526
-16.692	27.421	1272.895	1046.839
-15.677	27.420	1272.333	1046.327
-14.663	27.317	1271.076	1044.661
-13.648	27.335	1269.991	1043.835
-12.633	27.365	1269.132	1043.257
-11.619	27.353	1268.295	1042.461
-10.604	27.417	1266.984	1041.710
-9.590	27.360	1266.631	1041.050
-8.575	27.315	1265.082	1039.478
-7.560	27.467	1263.991	1039.410
-6.546	27.309	1263.322	1037.915
-5.531	27.317	1262.333	1037.108
-4.517	27.365	1261.356	1036.537
-3.502	27.314	1260.970	1035.887
-2.487	27.383	1259.945	1035.396
-1.473	27.373	1255.537	1031.679
-0.458	25.875	1240.792	1011.124
0.556	21.123	1223.947	973.853
1.571	17.531	1231.111	959.269
2.586	16.814	1245.733	966.488
3.600	16.803	1234.989	958.006
4.615	15.604	1168.721	900.101
5.629	12.904	1102.239	835.169
6.644	11.439	1085.906	815.408
7.659	11.226	1083.600	812.539
8.673	11.237	1082.675	811.829
9.688	11.288	1081.020	810.770
10.702	11.516	1078.778	810.149
11.717	13.060	1080.133	818.758
12.731	15.797	1083.910	835.150
13.746	17.660	1085.666	845.685
14.761	17.724	1085.340	845.671
15.775	16.709	1083.180	838.887
16.790	15.680	1081.250	832.228
17.804	14.911	1079.662	827.128
18.819	14.487	1078.252	823.880
19.834	14.173	1077.402	821.607
20.848	13.938	1076.896	819.991
21.863	13.684	1075.741	817.785
22.877	13.556	1075.175	816.649
23.892	13.584	1074.260	816.022
24.907	13.491	1073.580	814.977
25.921	13.716	1072.092	814.882
26.936	13.670	1071.160	813.873
27.950	13.576	1070.127	812.558
28.965	13.848	1068.340	812.456
29.980	13.903	1066.462	811.226
30.994	13.820	1065.778	810.231
32.009	13.855	1064.952	809.700
33.023	13.902	1063.375	808.662
34.038	13.743	1062.622	807.243
35.053	13.767	1061.615	806.522
36.067	13.554	1061.262	805.145
37.082	13.819	1059.774	805.235
38.096	13.816	1059.349	804.827
39.111	13.874	1058.259	804.207
40.126	13.685	1057.423	802.585
41.140	13.714	1055.728	801.367
42.155	13.632	1055.146	800.459
43.169	13.527	1053.537	798.662
44.184	13.512	1052.800	797.960
45.199	13.610	1051.650	797.490
46.213	13.621	1050.585	796.664
47.228	13.637	1049.581	795.909
48.242	13.699	1048.395	795.235
49.257	13.793	1047.414	794.873
50.271	13.789	1046.729	794.265
51.286	13.818	1045.852	793.666
52.301	13.801	1044.989	792.858
53.315	13.638	1044.160	791.380
54.330	13.565	1043.218	790.252
55.344	13.634	1042.172	789.718
56.359	13.706	1040.736	788.902
57.374	13.689	1039.953	788.157
58.388	13.449	1039.430	786.550
59.403	13.610	1038.453	786.505
60.417	13.477	1037.620	785.172
61.432	13.456	1037.105	784.615
62.447	13.436	1036.282	783.831
63.461	13.550	1034.766	783.154
64.476	13.629	1033.918	782.815
65.490	13.562	1033.331	781.986
66.505	13.540	1032.436	781.136
67.520	13.570	1032.205	781.029
68.534	13.580	1031.623	780.568
69.549	13.530	1030.735	779.591
70.563	13.489	1030.037	778.804
71.578	13.502	1028.914	777.946
72.593	13.507	1027.790	777.052
73.607	13.383	1027.833	776.433
74.622	13.465	1027.084	776.181
75.636	13.492	1026.189	775.562
76.651	13.412	1025.614	774.686
77.666	13.438	1025.154	774.390
78.680	13.394	1024.403	773.548
79.695	13.531	1023.686	773.582
80.709	13.545	1023.000	773.059
81.724	13.556	1022.714	772.824
82.739	13.656	1021.889	772.601
83.753	13.734	1021.160	772.343
84.768	13.835	1020.152	771.982
85.782	13.821	1018.970	770.953
86.797	13.902	1017.882	770.437
87.812	13.761	1017.137	769.154
88.826	13.807	1016.112	768.523
89.841	13.678	1015.311	767.253
90.855	13.841	1013.926	766.893
91.870	13.915	1013.244	766.651
92.884	13.823	1012.576	765.651
93.899	13.950	1011.503	765.357
94.914	14.009	1010.821	765.046
95.928	13.796	1010.522	763.771
96.943	13.908	1009.435	763.397
97.957	13.842	1008.632	762.418
98.972	13.812	1007.521	761.375
99.987	13.883	1006.930	761.185
101.001	13.770	1005.779	759.730
102.016	13.941	1004.829	759.730
103.030	13.888	1003.933	758.740
104.045	13.821	1003.418	757.978
105.060	13.754	1002.298	756.761
106.074	13.737	1001.057	755.682
107.089	13.572	1000.531	754.466
108.103	13.617	999.228	753.621
109.118	13.661	998.435	753.155
110.133	13.565	997.782	752.160
111.147	13.530	996.955	751.312
112.162	13.779	995.777	751.485
113.176	13.770	995.190	750.935
114.191	13.709	994.253	749.883
115.206	13.749	993.630	749.530
116.220	13.537	992.957	748.000
117.235	13.747	991.331	747.654
118.249	13.711	990.628	746.897
119.264	13.658	990.069	746.171
120.279	13.646	989.535	745.647
121.293	13.579	988.270	744.327
122.308	13.624	987.208	743.665
123.322	13.625	986.281	742.901
124.337	13.682	985.469	742.482
125.352	13.643	984.233	741.309
126.366	13.645	983.174	740.457
127.381	13.635	982.160	739.583
128.395	13.581	981.490	738.771
129.410	13.672	980.845	738.627
130.424	13.667	979.507	737.529
131.439	13.855	978.268	737.369
132.454	13.785	978.249	736.977
133.468	13.732	977.204	735.892
134.483	13.669	976.979	735.374
135.497	13.719	975.913	734.728
136.512	13.780	974.838	734.126
137.527	13.788	974.008	733.471
138.541	13.781	973.586	733.055
139.556	13.770	972.960	732.472
140.570	13.914	972.417	732.636
141.585	13.910	971.184	731.623
142.600	13.979	970.295	731.190
143.614	13.985	969.535	730.580
144.629	14.040	968.670	730.105
145.643	13.987	967.788	729.143
146.658	13.883	966.767	727.852
147.673	13.864	965.583	726.814
148.687	13.851	964.732	726.054
149.702	13.785	963.954	725.117
150.716	13.824	962.786	724.342
151.731	13.870	962.442	724.222
152.746	13.955	961.861	724.088
153.760	13.960	960.898	723.322
154.775	13.929	961.127	723.297
155.789	14.063	960.079	723.027
156.804	13.938	959.393	721.902
157.819	13.990	958.537	721.419
158.833	14.045	958.024	721.210
159.848	14.080	957.368	720.802
160.862	14.027	956.267	719.679
161.877	13.945	954.958	718.279
162.892	13.915	954.421	717.682
163.906	13.844	953.544	716.650
164.921	13.961	952.298	716.154
165.935	13.963	951.908	715.809
166.950	14.058	950.796	715.316
167.964	14.102	949.828	714.714
168.979	13.937	949.191	713.462
169.994	14.010	947.857	712.713
171.008	14.098	947.460	712.725
172.023	14.170	946.419	712.191
173.037	14.134	946.191	711.801
174.052	14.093	945.154	710.782
175.067	14.124	944.424	710.302
176.081	14.074	943.808	709.564
177.096	13.999	943.280	708.784
178.110	14.093	942.648	708.647
179.125	14.151	942.041	708.375
180.140	14.285	941.157	708.215
181.154	14.257	941.032	707.939
182.169	14.200	940.742	707.415
183.183	14.381	939.500	707.190
184.198	14.238	939.029	706.164
185.213	14.446	938.006	706.217
186.227	14.302	937.824	705.404
187.242	14.310	937.500	705.132
188.256	14.391	936.462	704.634
189.271	14.381	935.805	704.034
190.286	14.167	934.757	702.278
191.300	13.980	934.206	701.014
192.315	14.137	933.328	700.954
193.329	14.065	933.126	700.440
194.344	14.127	932.645	700.276
195.359	14.200	931.764	699.859
196.373	14.389	931.280	700.228
197.388	14.417	930.822	699.940
198.402	14.682	929.854	700.261
199.417	14.472	929.941	699.383
200.432	14.531	929.231	699.038
201.446	14.618	928.649	698.899
202.461	14.710	928.274	698.943
203.475	14.625	927.362	697.838
204.490	14.576	926.925	697.243
205.504	14.456	926.460	696.329
206.519	14.320	925.547	695.013
207.534	14.560	924.437	695.120
208.548	14.511	923.947	694.484
209.563	14.467	923.449	693.867
210.577	14.608	922.381	693.588
211.592	14.613	921.862	693.158
212.607	14.710	921.250	693.038
213.621	14.613	920.323	691.880
214.636	14.599	919.948	691.476
215.650	14.669	919.217	691.155
216.665	14.703	918.784	690.909
217.680	14.792	917.394	690.173
218.694	14.808	916.982	689.866
219.709	14.767	916.457	689.240
220.723	14.920	915.462	689.061
221.738	14.909	914.654	688.349
222.753	14.776	914.430	687.573
223.767	14.930	913.580	687.507
224.782	14.806	913.448	686.834
225.796	14.862	913.241	686.848
226.811	14.981	912.020	686.359
227.826	14.813	911.608	685.296
228.840	14.836	910.710	684.657
229.855	14.715	909.829	683.437
230.869	14.837	909.136	683.357
231.884	14.700	908.516	682.272
232.899	14.805	907.480	681.861
233.913	14.879	906.717	681.530
234.928	14.943	906.105	681.269
235.942	14.896	905.757	680.754
236.957	14.745	905.517	679.898
237.972	14.882	904.535	679.658
238.986	14.926	903.810	679.233
240.001	14.975	903.117	678.850
241.015	14.953	902.597	678.311
242.030	14.857	901.994	677.411
243.045	15.024	901.304	677.505
244.059	15.024	900.653	676.959
245.074	14.926	900.208	676.167
246.088	15.159	899.645	676.627
247.103	15.069	899.011	675.725
248.117	15.128	898.585	675.586
249.132	15.214	898.036	675.456
250.147	15.308	897.396	675.297
251.161	15.255	896.536	674.373
252.176	15.433	895.811	674.486
253.190	15.320	895.414	673.673
254.205	15.469	894.783	673.735
255.220	15.454	894.101	673.103
256.234	15.433	893.457	672.476
257.249	15.442	892.901	672.034
258.263	15.466	891.853	671.282
259.278	15.364	891.473	670.527
260.293	15.497	890.927	670.588
261.307	15.583	889.870	670.078
262.322	15.686	889.388	670.066
263.336	15.614	888.613	669.133
264.351	15.696	887.981	668.928
265.366	15.750	887.332	668.591
266.380	15.658	886.782	667.755
267.395	15.624	886.242	667.154
268.409	15.603	885.249	666.262
269.424	15.477	884.866	665.419
270.439	15.577	884.165	665.228
271.453	15.559	883.446	664.557
272.468	15.568	882.831	664.072
273.482	15.498	882.512	663.496
274.497	15.404	881.820	662.545
275.512	15.556	880.944	662.428
276.526	15.644	880.390	662.298
277.541	15.651	879.916	661.910
278.555	15.698	879.332	661.599
279.570	15.849	878.559	661.550
280.585	15.879	877.792	661.032
281.599	15.822	876.918	660.092
282.614	15.831	876.184	659.516
283.628	15.800	875.919	659.138
284.643	15.868	875.134	658.757
285.657	15.753	874.668	657.896
286.672	15.727	874.289	657.452
287.687	15.833	873.190	656.981
288.701	15.911	872.766	656.907
289.716	15.808	872.702	656.400
290.730	15.928	871.792	656.127
291.745	15.845	871.063	655.194
292.760	15.913	870.719	655.142
293.774	16.031	869.574	654.683
294.789	15.938	869.803	654.435
295.803	15.990	868.458	653.568
296.818	16.052	867.591	653.096
297.833	16.047	867.228	652.748
298.847	15.973	866.722	652.022
299.862	15.980	865.923	651.391
300.876	16.127	865.315	651.442
301.891	16.098	864.679	650.792
302.906	16.131	864.520	650.744
303.920	16.037	864.069	649.985
304.935	16.162	863.187	649.745
305.949	16.212	862.828	649.610
306.964	16.280	861.864	649.088
307.979	16.173	861.438	648.299
308.993	16.349	860.939	648.541
310.008	16.393	859.995	647.943
311.022	16.351	859.504	647.353
312.037	16.227	859.300	646.670
313.052	16.276	858.513	646.205
314.066	16.136	858.383	645.514
315.081	16.200	857.618	645.128
316.095	16.192	856.570	644.252
317.110	16.386	855.894	644.425
318.125	16.321	855.556	643.866
319.139	16.264	855.297	643.397
320.154	16.121	854.885	642.485
321.168	16.249	854.627	642.724
322.183	16.307	853.700	642.189
323.197	16.269	853.300	641.685
324.212	16.174	853.140	641.149
325.227	16.370	852.014	640.990
326.241	16.429	851.029	640.415
327.256	16.302	850.762	639.676
328.270	16.383	850.264	639.551
329.285	16.290	849.861	638.843
330.300	16.342	849.168	638.459
331.314	16.323	848.778	638.037
332.329	16.424	848.599	638.229
333.343	16.472	847.940	637.858
334.358	16.483	847.242	637.319
335.373	16.558	846.974	637.344
336.387	16.510	846.868	637.026
337.402	16.547	846.459	636.800
338.416	16.647	846.003	636.779
339.431	16.671	845.479	636.417
340.446	16.683	845.280	636.256
341.460	16.651	844.948	635.831
342.475	16.736	844.496	635.751
343.489	16.701	843.857	635.082
344.504	16.725	843.762	635.046
345.519	16.644	843.419	634.429
346.533	16.850	842.106	634.157
347.548	16.763	841.753	633.507
348.562	16.629	841.086	632.449
349.577	16.651	840.394	631.956
350.592	16.703	839.999	631.798
351.606	16.896	839.056	631.751
352.621	16.767	838.564	630.842
353.635	16.709	838.121	630.237
354.650	16.796	837.391	629.959
355.665	16.754	837.056	629.494
356.679	16.793	836.524	629.182
357.694	16.952	835.490	628.938
358.708	16.890	834.913	628.221
359.723	16.792	834.226	627.286
360.738	16.958	833.600	627.370
361.752	16.851	833.440	626.802
362.767	16.773	832.866	626.024
363.781	16.961	832.477	626.371
364.796	17.116	831.463	626.126
365.810	17.163	831.461	626.240
366.825	17.200	831.084	626.039
367.840	17.204	830.479	625.541
368.854	17.195	829.618	624.803
369.869	17.199	829.372	624.580
370.883	17.161	828.595	623.797
371.898	17.075	828.926	623.675
372.913	17.182	828.583	623.756
373.927	17.190	827.910	623.222
374.942	17.264	827.212	622.913
375.956	17.166	826.945	622.301
376.971	17.282	826.467	622.309
377.986	17.391	826.234	622.476
379.000	17.447	825.491	622.066
380.015	17.367	824.938	621.302
381.029	17.398	824.529	621.052
382.044	17.335	823.771	620.199
383.059	17.493	823.232	620.312
384.073	17.451	822.925	619.875
385.088	17.194	822.317	618.424
386.102	17.287	821.731	618.270
387.117	17.331	820.867	617.724
388.132	17.385	820.496	617.586
389.146	17.241	820.129	616.732
390.161	17.422	819.563	616.910
391.175	17.353	819.412	616.489
392.190	17.519	818.354	616.239
393.205	17.656	817.630	616.135
394.219	17.392	817.809	615.263
395.234	17.315	817.573	614.752
396.248	17.334	816.823	614.203
397.263	17.222	816.671	613.628
398.278	17.382	816.420	613.963
399.292	17.242	815.914	613.023
400.307	17.398	814.939	612.800
401.321	17.285	814.654	612.125
402.336	17.497	814.000	612.342
403.350	17.657	813.388	612.400
404.365	17.578	813.200	611.921
405.380	17.585	813.089	611.809
406.394	17.700	812.249	611.536
407.409	17.691	811.869	611.163
408.423	17.683	811.467	610.776
409.438	17.788	810.995	610.744
410.453	17.931	810.425	610.771
411.467	17.785	810.066	609.925
412.482	17.892	809.798	610.053
413.496	17.880	809.355	609.621
414.511	17.930	809.013	609.488
415.526	17.869	808.269	608.657
416.540	17.893	807.599	608.183
417.555	17.942	807.198	608.003
418.569	17.971	806.997	607.899
419.584	17.920	807.093	607.736
420.599	17.904	806.444	607.138
421.613	111.072	1295.025	1473.993
422.628	95.835	1366.184	1474.102
