DTS Sentinel unit serial number:	SN413079Multiplexer serial number:	ORYXHardware model number:	OX4-SRSoftware version number:	ORYX F/W v4.00 Oryx Data Collector v3.7.2.0data status	okinstallation	princeton_trtdifferential loss correction	single-endedforward channel	channel 1reverse channel	N/Adate	2019/09/19time	04:18:35forward acquisition time	60.00reverse acquisition time	0.00gamma	496.2192k internal	0.2342k external	0.2342temperature offset calibration	1.0015default loss term (dB/km)	0.3790temperature slope calibration	1.0000multiplexer offset coefficient	1.0000multiplexer slope coefficient	1.0000fibre end	0.00T internal ref (°C)	20.28T ext. ref 1 (°C)	0.63T ext. ref 2 (°C)	13.58length (m)	temperature (°C)	Stokes	anti-Stokes-747.200	630.064	0.107	-0.270
-746.185	177.871	-0.044	0.064
-745.171	109.637	0.208	0.249
-744.156	33.089	0.242	0.210
-743.142	428.551	-0.041	0.089
-742.127	-68.973	-0.206	0.080
-741.112	177.778	-0.102	0.149
-740.098	647.214	0.067	0.171
-739.083	800.000	0.029	-0.090
-738.069	330.125	0.077	0.148
-737.054	124.901	0.184	0.233
-736.039	-86.273	-0.389	-0.120
-735.025	-56.273	0.241	-0.107
-734.010	3.465	-0.161	0.117
-732.996	9.579	-0.164	0.125
-731.981	-2.785	-0.126	0.088
-730.966	-90.249	-0.249	0.072
-729.952	-95.254	-0.086	-0.023
-728.937	222.016	-0.142	-0.229
-727.923	-200.000	0.018	-0.203
-726.908	800.000	0.091	-0.286
-725.894	95.072	-0.231	-0.264
-724.879	-200.000	-0.025	-0.298
-723.864	466.235	0.044	-0.098
-722.850	266.061	-0.141	-0.246
-721.835	764.948	-0.033	-0.088
-720.821	254.971	-0.078	-0.133
-719.806	197.352	0.014	0.021
-718.791	173.064	0.175	0.252
-717.777	-200.000	0.024	0.190
-716.762	-200.000	-0.049	0.253
-715.748	348.400	0.156	0.308
-714.733	-22.952	-0.039	0.023
-713.718	74.017	0.166	0.174
-712.704	-200.000	-0.012	-0.190
-711.689	-200.000	0.030	-0.234
-710.675	-20.715	0.152	-0.093
-709.660	17.668	0.257	-0.204
-708.645	-129.816	0.183	0.025
-707.631	-200.000	-0.029	0.151
-706.616	-26.089	-0.250	0.147
-705.602	264.897	0.042	0.074
-704.587	0.324	0.106	0.075
-703.572	800.000	0.068	0.287
-702.558	40.558	0.205	-0.184
-701.543	-200.000	-0.024	-0.166
-700.529	226.376	-0.082	-0.134
-699.514	-25.301	-0.207	-0.123
-698.499	-127.693	0.368	-0.053
-697.485	-74.287	-0.309	-0.112
-696.470	216.680	-0.270	-0.429
-695.456	-134.147	0.521	0.064
-694.441	800.000	-0.023	0.089
-693.426	-200.000	0.004	0.208
-692.412	123.070	0.223	0.279
-691.397	-27.230	-0.178	-0.104
-690.383	-200.000	-0.076	-0.458
-689.368	-88.325	0.227	-0.068
-688.354	-200.000	-0.010	-0.208
-687.339	107.113	-0.086	0.102
-686.324	-54.546	-0.170	0.077
-685.310	31.469	0.260	0.223
-684.295	339.426	0.100	0.195
-683.281	31.506	-0.096	0.083
-682.266	-200.000	-0.008	0.159
-681.251	-139.335	-0.329	-0.035
-680.237	-128.543	-0.059	-0.008
-679.222	-25.893	0.257	-0.151
-678.208	-84.095	0.070	-0.022
-677.193	-125.034	0.242	-0.037
-676.178	-200.000	-0.001	-0.037
-675.164	-200.000	-0.000	-0.202
-674.149	800.000	-0.054	0.210
-673.135	283.629	-0.040	-0.072
-672.120	537.469	-0.064	0.152
-671.105	294.416	0.223	-0.407
-670.091	571.146	-0.138	0.334
-669.076	800.000	0.116	-0.360
-668.062	-200.000	0.021	0.121
-667.047	63.379	0.155	0.155
-666.032	-24.735	0.199	-0.118
-665.018	800.000	-0.068	-0.247
-664.003	-200.000	-0.025	-0.171
-662.989	92.802	-0.183	-0.206
-661.974	-200.000	0.011	-0.344
-660.959	-75.872	-0.081	0.029
-659.945	-179.411	-0.358	-0.008
-658.930	-200.000	-0.020	0.304
-657.916	-200.000	0.009	-0.188
-656.901	22.093	0.265	0.216
-655.886	-200.000	0.013	0.124
-654.872	-200.000	-0.024	0.118
-653.857	800.000	-0.116	-0.377
-652.843	-200.000	-0.001	-0.071
-651.828	-39.427	-0.207	0.108
-650.814	-41.737	0.110	-0.057
-649.799	-12.158	-0.259	-0.169
-648.784	407.099	-0.112	0.235
-647.770	126.072	0.061	0.077
-646.755	239.181	-0.111	-0.184
-645.741	64.408	0.184	0.185
-644.726	120.936	-0.081	0.100
-643.711	143.736	-0.095	-0.126
-642.697	-102.382	0.221	-0.053
-641.682	-140.245	-0.206	-0.022
-640.668	15.860	-0.072	0.056
-639.653	109.877	0.221	-0.264
-638.638	40.336	0.079	-0.071
-637.624	-76.167	0.065	0.023
-636.609	5.665	0.267	-0.197
-635.595	-7.592	0.202	0.136
-634.580	232.004	-0.105	-0.172
-633.565	-98.611	0.182	-0.046
-632.551	-42.553	0.187	-0.095
-631.536	-200.000	0.031	0.302
-630.522	800.000	-0.023	-0.066
-629.507	-200.000	-0.024	-0.138
-628.492	-61.595	-0.125	-0.052
-627.478	-105.061	-0.138	0.031
-626.463	-200.000	0.038	-0.222
-625.449	-183.800	-0.289	-0.005
-624.434	-23.220	-0.068	-0.041
-623.419	800.000	0.113	0.325
-622.405	-31.382	0.215	0.120
-621.390	-99.660	0.106	-0.027
-620.376	8.256	-0.097	-0.072
-619.361	-200.000	-0.013	-0.066
-618.346	800.000	-0.102	0.352
-617.332	-184.431	-0.128	0.002
-616.317	182.551	-0.143	0.210
-615.303	-190.517	-0.111	0.001
-614.288	-26.182	-0.314	-0.184
-613.273	182.823	-0.161	0.237
-612.259	-200.000	0.018	-0.282
-611.244	94.774	-0.254	-0.288
-610.230	308.268	0.183	0.341
-609.215	25.695	-0.218	0.181
-608.201	11.753	-0.135	-0.103
-607.186	90.099	-0.190	-0.212
-606.171	-200.000	-0.030	0.314
-605.157	800.000	0.087	0.250
-604.142	-200.000	-0.040	-0.195
-603.128	110.551	-0.120	-0.144
-602.113	800.000	-0.057	-0.225
-601.098	800.000	-0.022	0.090
-600.084	187.281	-0.107	-0.158
-599.069	-9.675	-0.386	-0.256
-598.055	-59.037	0.218	0.094
-597.040	-123.299	0.176	-0.028
-596.025	-200.000	0.017	-0.326
-595.011	396.245	-0.219	-0.455
-593.996	800.000	-0.043	0.154
-592.982	-130.477	-0.325	-0.044
-591.967	-200.000	0.006	0.203
-590.952	-57.495	0.211	0.092
-589.938	37.186	-0.214	0.189
-588.923	800.000	-0.015	-0.042
-587.909	488.285	-0.099	-0.224
-586.894	-95.086	0.169	-0.045
-585.879	-138.839	0.269	-0.029
-584.865	-200.000	0.016	0.150
-583.850	800.000	0.042	0.172
-582.836	-67.142	0.095	0.037
-581.821	-94.971	-0.165	-0.044
-580.806	800.000	0.021	0.089
-579.792	-200.000	0.006	-0.154
-578.777	196.996	-0.131	-0.199
-577.763	334.369	0.110	0.212
-576.748	93.399	-0.014	-0.015
-575.733	-200.000	0.033	-0.159
-574.719	-81.992	-0.086	0.028
-573.704	88.288	0.063	-0.070
-572.690	20.522	-0.042	-0.034
-571.675	65.698	-0.331	-0.334
-570.661	374.704	0.190	0.384
-569.646	39.367	-0.169	0.151
-568.631	15.288	0.170	0.133
-567.617	47.520	0.181	0.168
-566.602	94.520	0.127	-0.143
-565.588	-45.191	-0.349	0.172
-564.573	800.000	0.061	0.259
-563.558	-200.000	0.035	0.213
-562.544	-70.823	0.095	0.036
-561.529	-128.589	-0.254	-0.036
-560.515	15.660	0.237	0.185
-559.500	85.729	0.058	0.064
-558.485	-92.928	-0.249	0.069
-557.471	-200.000	0.010	-0.138
-556.456	-32.957	0.308	0.170
-555.442	32.762	-0.125	-0.107
-554.427	162.937	-0.247	-0.344
-553.412	-62.962	0.212	-0.087
-552.398	17.337	-0.283	0.224
-551.383	-48.221	0.164	-0.078
-550.369	31.245	0.130	-0.111
-549.354	800.000	-0.031	-0.115
-548.339	-200.000	0.047	0.466
-547.325	110.962	0.089	0.106
-546.310	-100.118	-0.532	-0.132
-545.296	-119.464	-0.087	-0.015
-544.281	-151.865	0.271	0.020
-543.266	-82.831	0.162	-0.052
-542.252	-47.542	0.239	-0.115
-541.237	-95.610	0.498	0.133
-540.223	85.932	-0.127	0.139
-539.208	-121.592	0.178	-0.029
-538.193	800.000	-0.051	0.213
-537.179	29.294	-0.265	0.224
-536.164	-200.000	-0.066	-0.363
-535.150	800.000	-0.086	-0.318
-534.135	800.000	-0.057	0.174
-533.121	-3.536	-0.166	-0.115
-532.106	-22.709	-0.310	-0.186
-531.091	40.905	-0.173	-0.155
-530.077	-63.701	-0.436	-0.178
-529.062	261.005	0.199	-0.342
-528.048	52.699	0.279	-0.265
-527.033	-24.914	-0.359	0.212
-526.018	-200.000	-0.041	0.398
-525.004	800.000	-0.071	-0.200
-523.989	-111.937	0.211	0.042
-522.975	-184.262	0.223	-0.004
-521.960	64.735	-0.150	0.150
-520.945	138.851	-0.097	-0.127
-519.931	-18.906	-0.158	-0.098
-518.916	800.000	0.035	0.126
-517.902	800.000	0.079	0.258
-516.887	96.805	-0.034	-0.039
-515.872	209.125	0.139	0.216
-514.858	800.000	-0.264	-0.764
-513.843	-4.322	-0.285	-0.196
-512.829	339.188	-0.037	-0.072
-511.814	-58.891	0.376	0.161
-510.799	141.202	0.237	0.311
-509.785	123.471	0.184	-0.229
-508.770	-167.852	-0.014	-0.001
-507.756	-115.823	0.282	-0.052
-506.741	-113.091	-0.166	-0.032
-505.726	306.347	-0.086	-0.159
-504.712	-117.791	-0.310	0.055
-503.697	64.453	-0.216	-0.216
-502.683	221.645	0.226	-0.361
-501.668	800.000	0.057	-0.213
-500.653	168.063	-0.139	0.196
-499.639	84.921	-0.103	-0.112
-498.624	-200.000	0.030	-0.149
-497.610	91.800	0.165	0.184
-496.595	1.827	0.285	0.204
-495.581	1.987	0.323	0.231
-494.566	-200.000	0.018	0.166
-493.551	100.756	-0.194	0.224
-492.537	800.000	0.061	0.166
-491.522	425.416	0.108	0.231
-490.508	-159.155	0.278	-0.016
-489.493	800.000	0.074	-0.216
-488.478	-53.365	0.150	-0.068
-487.464	93.000	-0.180	-0.201
-486.449	744.966	-0.030	-0.081
-485.435	-88.667	0.076	0.022
-484.420	-43.156	0.132	0.066
-483.405	-29.780	-0.138	0.078
-482.391	-146.852	-0.239	0.020
-481.376	-73.629	0.514	-0.186
-480.362	187.907	-0.172	-0.255
-479.347	0.509	0.079	-0.056
-478.332	-75.529	-0.211	0.074
-477.318	-200.000	0.053	0.342
-476.303	3.994	-0.076	-0.055
-475.289	71.195	-0.142	-0.146
-474.274	-200.000	-0.015	0.195
-473.259	339.819	0.104	-0.202
-472.245	155.002	0.237	-0.323
-471.230	34.247	-0.240	-0.207
-470.216	-200.000	-0.066	-0.368
-469.201	448.991	-0.091	0.198
-468.186	-97.854	0.123	0.031
-467.172	800.000	0.092	-0.344
-466.157	800.000	-0.101	-0.282
-465.143	800.000	0.090	-0.281
-464.128	108.290	-0.211	-0.249
-463.113	-161.803	0.372	0.019
-462.099	-200.000	-0.068	0.306
-461.084	-75.589	-0.224	0.079
-460.070	-200.000	0.025	-0.347
-459.055	324.324	-0.127	-0.240
-458.040	-87.518	0.405	-0.121
-457.026	-5.361	-0.231	0.157
-456.011	-23.953	0.172	-0.102
-454.997	-176.565	-0.320	-0.008
-453.982	558.070	0.041	0.098
-452.968	800.000	0.119	-0.423
-451.953	176.961	-0.223	0.322
-450.938	-147.382	-0.174	0.015
-449.924	-88.651	-0.231	0.068
-448.909	636.291	-0.066	-0.166
-447.895	800.000	0.031	-0.094
-446.880	84.242	-0.251	0.271
-445.865	-200.000	0.002	-0.362
-444.851	135.116	-0.211	-0.272
-443.836	91.314	0.149	-0.165
-442.822	294.737	0.156	0.282
-441.807	16.267	-0.197	0.154
-440.792	-111.870	-0.108	0.022
-439.778	-42.054	0.218	-0.110
-438.763	-83.805	-0.231	0.073
-437.749	40.489	0.305	0.272
-436.734	56.321	-0.160	-0.154
-435.719	-13.110	-0.084	0.054
-434.705	34.795	0.123	0.107
-433.690	-158.177	0.258	0.015
-432.676	83.866	0.092	0.099
-431.661	12.884	0.255	0.195
-430.646	72.141	0.293	-0.302
-429.632	40.343	-0.098	0.088
-428.617	-144.581	0.475	-0.043
-427.603	-0.851	-0.359	0.251
-426.588	636.178	0.057	0.142
-425.573	-154.713	-0.261	0.017
-424.559	-127.994	0.059	0.008
-423.544	-200.000	-0.014	0.068
-422.530	138.452	-0.057	-0.074
-421.515	89.502	0.321	-0.354
-420.500	58.026	-0.152	0.147
-419.486	-21.731	-0.455	-0.274
-418.471	184.242	0.158	-0.232
-417.457	129.600	0.160	-0.203
-416.442	-56.088	0.349	-0.154
-415.428	-200.000	-0.009	0.110
-414.413	-200.000	-0.024	-0.136
-413.398	589.902	-0.115	0.281
-412.384	-200.000	-0.006	-0.071
-411.369	252.292	-0.184	0.310
-410.355	-32.179	0.343	-0.189
-409.340	215.709	0.109	-0.171
-408.325	-32.878	0.232	0.127
-407.311	116.382	0.112	0.136
-406.296	27.849	-0.333	0.277
-405.282	325.424	0.180	-0.341
-404.267	-200.000	-0.022	-0.301
-403.252	147.733	-0.034	0.046
-402.238	-146.240	0.115	-0.010
-401.223	68.692	0.133	-0.135
-400.209	800.000	-0.039	0.109
-399.194	-47.213	0.414	0.200
-398.179	800.000	-0.112	0.412
-397.165	800.000	-0.057	0.185
-396.150	168.085	0.096	0.135
-395.136	-80.005	0.418	0.138
-394.121	96.724	-0.138	-0.157
-393.106	460.360	-0.021	0.046
-392.092	-99.483	-0.423	-0.105
-391.077	-133.383	-0.146	-0.018
-390.063	76.527	0.225	-0.235
-389.048	349.304	0.153	0.299
-388.033	800.000	0.017	-0.055
-387.019	-200.000	0.293	0.000
-386.004	-41.826	-0.189	-0.095
-384.990	-18.161	-0.325	0.201
-383.975	-87.126	0.339	0.102
-382.960	-192.316	0.071	0.001
-381.946	39.145	-0.189	0.167
-380.931	267.319	-0.118	0.204
-379.917	-55.163	-0.087	-0.039
-378.902	-191.403	-0.333	0.003
-377.888	-200.000	0.004	0.088
-376.873	603.052	0.028	0.069
-375.858	-46.158	0.126	-0.061
-374.844	-54.784	-0.252	-0.112
-373.829	-200.000	-0.013	-0.108
-372.815	-200.000	-0.042	0.219
-371.800	94.447	0.189	-0.212
-370.785	-200.000	-0.042	-0.184
-369.771	800.000	0.056	-0.167
-368.756	-171.110	0.198	0.007
-367.742	-140.669	-0.118	0.012
-366.727	56.750	0.290	-0.278
-365.712	249.855	0.192	-0.321
-364.698	-200.000	-0.041	0.274
-363.683	331.857	0.109	0.207
-362.669	202.091	-0.095	-0.144
-361.654	349.798	-0.066	-0.129
-360.639	153.629	0.230	0.310
-359.625	256.217	-0.091	0.154
-358.610	-66.190	0.253	-0.100
-357.596	-100.482	-0.003	-0.001
-356.581	-19.817	0.133	-0.081
-355.566	81.209	-0.203	-0.217
-354.552	421.992	-0.072	-0.152
-353.537	119.406	0.260	0.317
-352.523	800.000	0.095	0.338
-351.508	-4.962	-0.138	-0.094
-350.493	800.000	-0.105	-0.306
-349.479	102.927	-0.157	0.181
-348.464	464.159	-0.056	0.124
-347.450	475.893	0.075	-0.168
-346.435	68.681	0.358	0.362
-345.420	-151.507	0.482	0.035
-344.406	50.824	0.089	0.083
-343.391	-100.403	0.208	-0.051
-342.377	-93.461	0.350	0.096
-341.362	800.000	-0.120	-0.330
-340.348	-84.808	-0.219	0.068
-339.333	112.816	-0.134	-0.160
-338.318	-97.765	0.094	0.024
-337.304	93.471	0.063	-0.071
-336.289	447.101	0.072	0.156
-335.275	-101.001	0.172	-0.042
-334.260	6.297	-0.090	-0.066
-333.245	-30.324	0.071	-0.040
-332.231	-51.026	-0.105	-0.048
-331.216	-71.292	0.182	-0.067
-330.202	20.892	-0.034	-0.027
-329.187	-104.813	-0.269	0.061
-328.172	126.240	-0.177	-0.220
-327.158	-171.168	0.125	0.004
-326.143	269.325	0.101	-0.174
-325.129	-2.233	0.258	0.178
-324.114	-200.000	-0.001	-0.019
-323.099	637.249	0.146	0.366
-322.085	22.866	0.052	-0.042
-321.070	-60.582	-0.219	0.091
-320.056	16.963	-0.068	0.053
-319.041	50.736	0.085	-0.080
-318.026	-122.781	-0.184	-0.029
-317.012	-60.978	0.201	0.084
-315.997	-50.008	0.103	-0.048
-314.983	-200.000	-0.004	0.152
-313.968	283.129	0.124	-0.219
-312.953	448.354	-0.113	-0.244
-311.939	521.502	-0.100	0.230
-310.924	-2.234	-0.171	-0.118
-309.910	579.832	0.150	0.362
-308.895	-5.899	-0.218	0.147
-307.880	-63.261	0.589	-0.239
-306.866	-14.057	0.329	-0.209
-305.851	-76.879	-0.066	-0.023
-304.837	-200.000	-0.007	-0.353
-303.822	246.916	-0.043	-0.072
-302.807	-200.000	-0.016	-0.134
-301.793	219.713	-0.061	-0.097
-300.778	64.500	-0.137	-0.136
-299.764	659.071	-0.120	-0.303
-298.749	800.000	0.076	0.297
-297.735	-45.028	-0.197	-0.096
-296.720	800.000	0.044	0.145
-295.705	-78.368	0.028	0.010
-294.691	144.490	-0.203	0.266
-293.676	343.735	-0.070	0.136
-292.662	-96.112	0.329	0.086
-291.647	766.152	0.098	0.263
-290.632	66.400	-0.267	0.267
-289.618	-6.602	0.376	0.252
-288.603	-200.000	0.019	0.148
-287.589	-70.816	0.185	0.069
-286.574	361.301	-0.109	-0.215
-285.559	306.389	-0.086	-0.157
-284.545	-70.457	0.136	-0.051
-283.530	27.844	0.106	0.088
-282.516	800.000	0.104	0.306
-281.501	718.937	0.052	-0.136
-280.486	109.032	0.093	0.109
-279.472	279.517	-0.104	0.182
-278.457	792.142	-0.079	0.213
-277.443	-48.854	0.225	0.106
-276.428	92.080	-0.054	0.059
-275.413	-200.000	0.001	-0.095
-274.399	64.437	0.042	0.042
-273.384	108.378	-0.165	0.193
-272.370	61.108	0.042	-0.041
-271.355	4.819	-0.094	-0.068
-270.340	-83.959	0.278	-0.087
-269.326	-200.000	-0.030	0.139
-268.311	-200.000	-0.021	0.114
-267.297	800.000	0.021	-0.088
-266.282	-109.048	-0.183	0.038
-265.267	185.374	-0.030	0.044
-264.253	-200.000	-0.005	0.141
-263.238	800.000	-0.081	-0.250
-262.224	10.696	-0.144	-0.108
-261.209	53.299	-0.175	0.165
-260.195	-17.424	-0.184	-0.114
-259.180	-200.000	0.050	-0.448
-258.165	-198.861	0.109	-0.001
-257.151	45.901	0.105	0.096
-256.136	-56.520	-0.293	-0.128
-255.122	144.771	0.095	0.124
-254.107	-165.222	-0.216	0.009
-253.092	-48.409	-0.272	-0.129
-252.078	649.042	-0.052	0.131
-251.063	18.835	-0.010	-0.008
-250.049	-200.000	0.064	0.378
-249.034	373.892	0.071	0.141
-248.019	800.000	0.084	0.234
-247.005	-13.930	-0.110	-0.070
-245.990	621.859	0.030	-0.075
-244.976	323.305	0.076	-0.143
-243.961	317.510	0.023	0.043
-242.946	77.807	0.024	-0.025
-241.932	216.138	-0.057	-0.090
-240.917	57.486	-0.203	0.195
-239.903	204.479	0.146	0.222
-238.888	-50.542	-0.209	-0.097
-237.873	38.690	-0.279	0.244
-236.859	17.144	-0.285	0.222
-235.844	90.095	0.128	-0.141
-234.830	-92.632	-0.280	-0.077
-233.815	800.000	-0.130	-0.401
-232.800	31.116	0.061	-0.052
-231.786	76.456	0.174	-0.181
-230.771	-200.000	-0.021	0.139
-229.757	66.448	-0.209	0.209
-228.742	800.000	-0.096	0.358
-227.727	-110.291	-0.231	-0.047
-226.713	-113.610	-0.314	-0.060
-225.698	-200.000	0.024	0.315
-224.684	136.509	-0.220	-0.282
-223.669	-88.150	0.006	-0.002
-222.655	76.380	-0.102	0.107
-221.640	-200.000	-0.009	-0.052
-220.625	-200.000	-0.078	-0.703
-219.611	-93.882	-0.152	-0.041
-218.596	-200.000	-0.001	0.021
-217.582	-86.706	0.324	-0.097
-216.567	-123.976	-0.294	0.045
-215.552	-88.932	-0.233	-0.068
-214.538	139.156	0.230	0.296
-213.523	800.000	-0.073	0.286
-212.509	800.000	0.140	-0.427
-211.494	-22.497	0.172	-0.102
-210.479	-129.778	0.324	-0.044
-209.465	-125.803	0.284	0.042
-208.450	-109.965	0.354	0.073
-207.436	-200.000	-0.006	0.219
-206.421	-200.000	-0.018	-0.091
-205.406	-88.663	-0.053	-0.015
-204.392	88.554	-0.222	-0.242
-203.377	87.436	-0.071	0.077
-202.363	335.026	-0.060	0.115
-201.348	73.276	-0.166	-0.170
-200.333	16.629	0.198	0.153
-199.319	274.126	-0.031	-0.053
-198.304	-200.000	0.005	0.318
-197.290	-23.673	0.308	0.181
-196.275	-200.000	-0.024	0.489
-195.260	739.087	0.068	0.179
-194.246	177.703	0.159	0.228
-193.231	157.438	-0.099	-0.134
-192.217	800.000	-0.082	0.297
-191.202	-23.486	-0.142	-0.084
-190.187	-102.449	-0.160	0.038
-189.173	-200.000	-0.003	0.275
-188.158	176.102	-0.088	0.125
-187.144	-53.469	-0.443	-0.199
-186.129	41.115	0.135	0.120
-185.114	-30.406	0.360	-0.200
-184.100	548.782	-0.151	-0.355
-183.085	149.098	-0.111	-0.147
-182.071	157.629	-0.106	0.144
-181.056	-97.811	-0.076	0.019
-180.042	-129.532	-0.248	-0.034
-179.027	339.945	0.117	-0.224
-178.012	-89.868	0.178	0.051
-176.998	800.000	0.061	0.169
-175.983	27.600	0.071	0.059
-174.969	19.076	0.061	0.048
-173.954	-200.000	-0.029	0.202
-172.939	-200.000	-0.026	-0.122
-171.925	49.550	0.195	-0.180
-170.910	-103.035	-0.163	0.038
-169.896	-27.882	0.105	-0.059
-168.881	48.653	-0.216	0.198
-167.866	-200.000	-0.002	0.287
-166.852	-28.839	0.235	-0.132
-165.837	-159.310	-0.123	-0.007
-164.823	64.658	-0.040	-0.039
-163.808	10.926	-0.070	-0.052
-162.793	326.689	0.124	-0.232
-161.779	-68.957	-0.475	-0.179
-160.764	-200.000	-0.056	0.256
-159.750	281.247	0.166	0.291
-158.735	-144.607	0.212	-0.019
-157.720	-200.000	0.001	-0.087
-156.706	800.000	0.099	-0.277
-155.691	-11.903	0.217	-0.140
-154.677	-39.884	0.407	0.208
-153.662	-200.000	-0.024	0.435
-152.647	771.842	-0.058	0.153
-151.633	-102.490	0.229	-0.054
-150.618	519.343	0.049	0.113
-149.604	-71.884	0.186	0.068
-148.589	-69.048	0.227	0.086
-147.574	-200.000	-0.039	0.223
-146.560	-123.332	0.373	0.058
-145.545	-131.795	-0.355	0.046
-144.531	-26.255	0.186	0.107
-143.516	152.174	-0.068	0.091
-142.502	135.564	-0.117	-0.149
-141.487	453.532	0.132	0.285
-140.472	-200.000	0.024	0.279
-139.458	175.584	0.194	0.275
-138.443	-60.171	-0.306	0.128
-137.429	-173.988	0.333	0.010
-136.414	408.340	-0.031	-0.064
-135.399	-200.000	-0.008	0.180
-134.385	-96.378	0.171	-0.044
-133.370	117.742	0.064	0.078
-132.356	264.602	0.054	-0.092
-131.341	-8.587	0.279	0.183
-130.326	-151.616	-0.216	0.016
-129.312	1.831	0.324	0.228
-128.297	-19.025	0.084	0.051
-127.283	-175.382	-0.102	0.003
-126.268	162.187	-0.194	0.266
-125.253	800.000	0.030	-0.088
-124.239	-200.000	0.039	-0.228
-123.224	800.000	0.092	-0.291
-122.210	-200.000	-0.035	-0.186
-121.195	1.113	0.222	0.155
-120.180	-139.025	0.156	-0.016
-119.166	-71.576	0.155	-0.057
-118.151	7.765	-0.242	-0.177
-117.137	37.472	0.132	0.114
-116.122	-135.273	-0.317	-0.037
-115.107	800.000	-0.025	0.091
-114.093	-76.236	0.122	0.042
-113.078	-200.000	-0.004	-0.054
-112.064	-143.614	0.123	-0.011
-111.049	-200.000	0.016	-0.135
-110.034	0.178	0.552	-0.384
-109.020	11.433	-0.212	-0.159
-108.005	479.237	-0.022	-0.050
-106.991	144.982	0.087	-0.113
-105.976	170.476	0.228	-0.319
-104.962	-53.373	-0.355	0.159
-103.947	-34.422	-0.366	-0.196
-102.932	-2.166	0.090	0.061
-101.918	-136.536	0.209	0.024
-100.903	800.000	0.039	0.126
-99.889	-59.724	-0.266	-0.111
-98.874	-24.027	0.143	0.083
-97.859	800.000	0.151	0.445
-96.845	184.122	0.195	0.282
-95.830	260.496	-0.083	-0.140
-94.816	800.000	0.030	-0.120
-93.801	263.050	-0.041	-0.070
-92.786	-37.272	0.237	0.124
-91.772	-200.000	0.013	0.101
-90.757	800.000	0.019	0.058
-89.743	-118.890	-0.498	-0.085
-88.728	-200.000	0.063	0.295
-87.713	-97.319	-0.142	0.036
-86.699	-200.000	0.035	-0.234
-85.684	800.000	-0.065	-0.267
-84.670	-177.362	0.176	-0.004
-83.655	-48.580	0.168	0.079
-82.640	175.474	-0.194	0.274
-81.626	31.923	-0.259	-0.217
-80.611	-18.802	0.120	0.073
-79.597	-134.211	-0.140	0.017
-78.582	-200.000	0.013	-0.172
-77.567	-27.865	-0.100	0.056
-76.553	56.703	0.131	-0.125
-75.538	-81.663	-0.248	-0.079
-74.524	-91.505	-0.244	0.068
-73.509	600.043	0.099	0.239
-72.494	309.864	-0.092	0.168
-71.480	40.989	0.201	0.177
-70.465	312.681	0.235	0.431
-69.451	10.151	0.083	0.062
-68.436	246.352	0.129	-0.212
-67.422	-200.000	0.016	-0.082
-66.407	-125.634	-0.169	0.025
-65.392	44.588	0.129	0.115
-64.378	63.507	-0.177	-0.174
-63.363	-200.000	-0.059	0.296
-62.349	64.057	0.166	-0.163
-61.334	162.913	-1.169	-1.600
-60.319	71.220	0.806	0.815
-59.305	800.000	-0.467	-1.443
-58.290	800.000	0.492	1.623
-57.276	519.928	0.654	1.493
-56.261	-200.000	136.469	652.698
-55.246	337.301	1663.323	3151.785
-54.232	134.863	2793.906	3536.861
-53.217	84.895	2168.224	2316.231
-52.203	30.899	1602.127	1338.033
-51.188	23.153	1352.893	1082.647
-50.173	21.199	1317.027	1042.251
-49.159	48.248	1391.496	1268.996
-48.144	44.128	1400.619	1251.915
-47.130	23.377	1348.110	1080.014
-46.115	20.395	1329.123	1046.811
-45.100	20.215	1323.574	1041.319
-44.086	20.198	1321.476	1039.528
-43.071	20.107	1319.292	1037.222
-42.057	20.137	1317.206	1035.721
-41.042	20.040	1315.685	1033.903
-40.027	20.142	1314.524	1033.561
-39.013	20.200	1312.145	1031.995
-37.998	20.128	1310.822	1030.484
-36.984	20.278	1308.640	1029.615
-35.969	20.295	1306.946	1028.343
-34.954	20.304	1305.345	1027.098
-33.940	20.380	1304.139	1026.559
-32.925	20.365	1302.703	1025.299
-31.911	20.411	1301.137	1024.297
-30.896	20.295	1300.170	1022.809
-29.881	20.453	1298.478	1022.370
-28.867	20.525	1296.463	1021.167
-27.852	20.336	1295.487	1019.248
-26.838	20.343	1294.300	1018.310
-25.823	20.321	1293.248	1017.315
-24.809	20.343	1291.636	1016.135
-23.794	20.351	1290.586	1015.317
-22.779	20.274	1289.418	1013.906
-21.765	20.394	1287.471	1013.033
-20.750	20.265	1287.049	1011.909
-19.736	20.308	1285.158	1010.634
-18.721	20.244	1284.253	1009.510
-17.706	20.285	1282.977	1008.708
-16.692	20.268	1282.052	1007.840
-15.677	20.249	1280.587	1006.540
-14.663	20.170	1279.696	1005.338
-13.648	20.217	1278.381	1004.541
-12.633	20.246	1277.458	1003.941
-11.619	20.247	1276.929	1003.493
-10.604	20.309	1275.944	1003.034
-9.590	20.175	1275.155	1001.604
-8.575	20.193	1274.334	1001.021
-7.560	20.227	1273.464	1000.496
-6.546	20.213	1272.452	999.582
-5.531	20.161	1271.527	998.514
-4.517	20.202	1270.675	998.043
-3.502	20.363	1269.372	997.902
-2.487	20.170	1269.127	996.558
-1.473	20.174	1264.565	992.959
-0.458	18.516	1249.051	971.355
0.556	13.951	1233.067	933.325
1.571	10.151	1241.474	918.076
2.586	9.497	1256.898	925.639
3.600	9.661	1244.162	917.113
4.615	7.252	1172.883	851.558
5.629	2.795	1103.910	778.829
6.644	0.686	1088.520	757.340
7.659	0.615	1086.636	755.606
8.673	0.670	1085.280	754.871
9.688	0.540	1084.386	753.534
10.702	0.741	1081.817	752.686
11.717	3.462	1084.455	768.019
12.731	9.519	1092.720	804.126
13.746	15.127	1100.337	837.789
14.761	17.072	1102.503	849.105
15.775	16.463	1100.798	844.672
16.790	15.491	1098.738	838.166
17.804	14.782	1097.225	833.405
18.819	14.562	1096.163	831.428
19.834	14.225	1095.068	828.843
20.848	13.962	1094.519	827.048
21.863	13.686	1093.408	824.762
22.877	13.764	1092.542	824.424
23.892	13.534	1091.896	822.720
24.907	13.644	1090.828	822.386
25.921	13.658	1089.947	821.721
26.936	13.670	1089.373	821.273
27.950	13.744	1088.492	820.906
28.965	13.811	1087.035	820.065
29.980	13.662	1085.554	818.140
30.994	13.852	1084.488	818.201
32.009	13.807	1084.162	817.658
33.023	13.844	1082.652	816.628
34.038	13.736	1081.784	815.371
35.053	13.881	1080.908	815.355
36.067	13.864	1080.183	814.652
37.082	13.784	1078.894	813.212
38.096	13.828	1078.249	812.868
39.111	13.785	1077.632	812.125
40.126	13.551	1076.515	810.065
41.140	13.519	1075.137	808.801
42.155	13.731	1073.448	808.491
43.169	13.549	1072.903	807.125
44.184	13.552	1071.873	806.293
45.199	13.607	1070.845	805.713
46.213	13.671	1069.577	805.001
47.228	13.706	1068.674	804.418
48.242	13.768	1067.346	803.648
49.257	13.619	1066.598	802.291
50.271	13.684	1065.622	801.803
51.286	13.791	1064.382	801.314
52.301	13.814	1063.583	800.753
53.315	13.576	1063.264	799.294
54.330	13.600	1062.028	798.411
55.344	13.721	1060.689	797.914
56.359	13.745	1059.703	797.220
57.374	13.544	1059.445	795.986
58.388	13.606	1058.329	795.377
59.403	13.474	1057.722	794.217
60.417	13.659	1056.404	794.043
61.432	13.532	1055.865	792.960
62.447	13.566	1054.833	792.276
63.461	13.583	1054.261	791.859
64.476	13.421	1053.124	790.160
65.490	13.524	1052.370	790.018
66.505	13.480	1051.715	789.245
67.520	13.480	1051.260	788.833
68.534	13.628	1049.761	788.344
69.549	13.631	1049.774	788.298
70.563	13.518	1048.623	786.825
71.578	13.464	1047.473	785.637
72.593	13.481	1047.152	785.410
73.607	13.460	1046.247	784.561
74.622	13.598	1045.106	784.288
75.636	13.542	1044.614	783.586
76.651	13.469	1044.052	782.749
77.666	13.468	1043.088	781.950
78.680	13.619	1042.549	782.194
79.695	13.559	1041.723	781.222
80.709	13.495	1041.428	780.629
81.724	13.706	1040.747	781.041
82.739	13.538	1040.050	779.659
83.753	13.671	1038.942	779.386
84.768	13.782	1038.352	779.395
85.782	13.777	1037.045	778.319
86.797	13.768	1035.937	777.378
87.812	13.656	1035.407	776.387
88.826	13.563	1034.468	775.180
89.841	13.674	1033.875	775.188
90.855	13.689	1032.658	774.274
91.870	13.769	1031.628	773.808
92.884	13.822	1030.523	773.158
93.899	13.822	1029.594	772.394
94.914	13.693	1029.048	771.314
95.928	13.842	1028.732	771.701
96.943	13.669	1027.270	769.733
97.957	13.773	1026.473	769.552
98.972	13.816	1025.818	769.190
99.987	13.726	1024.719	767.882
101.001	13.740	1023.728	767.139
102.016	13.818	1022.736	766.685
103.030	13.799	1022.129	766.074
104.045	13.823	1021.566	765.696
105.060	13.723	1020.590	764.433
106.074	13.654	1019.924	763.553
107.089	13.546	1018.869	762.197
108.103	13.651	1018.110	762.043
109.118	13.787	1016.882	761.681
110.133	13.644	1015.656	760.040
111.147	13.704	1014.891	759.674
112.162	13.600	1014.454	758.807
113.176	13.724	1013.574	758.647
114.191	13.750	1012.485	757.884
115.206	13.663	1012.163	757.178
116.220	13.782	1011.301	757.012
117.235	13.767	1009.549	755.563
118.249	13.853	1009.036	755.503
119.264	13.795	1008.380	754.680
120.279	13.891	1007.249	754.203
121.293	13.780	1006.565	753.121
122.308	13.676	1006.019	752.176
123.322	13.775	1004.821	751.663
124.337	13.802	1003.636	750.832
125.352	13.619	1002.818	749.324
126.366	13.622	1001.941	748.616
127.381	13.656	1000.616	747.716
128.395	13.678	999.444	746.872
129.410	13.621	998.940	746.171
130.424	13.605	998.206	745.485
131.439	13.764	997.164	745.358
132.454	13.737	996.213	744.456
133.468	13.639	996.124	743.885
134.483	13.817	994.844	743.663
135.497	13.692	994.157	742.523
136.512	13.718	992.743	741.517
137.527	13.743	992.053	741.049
138.541	13.665	991.458	740.192
139.556	13.728	990.713	739.847
140.570	13.844	990.087	739.832
141.585	13.854	989.090	739.068
142.600	13.937	988.217	738.719
143.614	14.066	987.233	738.492
144.629	13.947	986.240	737.156
145.643	13.824	986.067	736.414
146.658	13.981	984.404	735.805
147.673	13.864	983.391	734.462
148.687	13.884	983.037	734.220
149.702	13.840	982.020	733.205
150.716	13.972	980.880	732.869
151.731	13.924	979.958	731.906
152.746	13.911	979.493	731.436
153.760	13.920	978.827	730.912
154.775	13.892	978.845	730.740
155.789	14.234	977.398	731.093
156.804	14.008	977.148	729.853
157.819	13.902	976.674	728.966
158.833	14.045	975.805	728.879
159.848	14.104	974.874	728.381
160.862	14.039	973.873	727.283
161.877	13.950	973.409	726.482
162.892	13.977	971.595	725.184
163.906	13.951	970.732	724.360
164.921	14.112	970.044	724.484
165.935	14.166	968.930	723.823
166.950	14.077	968.565	723.099
167.964	14.032	967.426	721.990
168.979	14.052	966.651	721.436
169.994	14.101	966.138	721.200
171.008	14.002	965.361	720.127
172.023	14.094	964.526	719.839
173.037	14.165	963.445	719.275
174.052	14.146	962.847	718.682
175.067	14.153	962.462	718.364
176.081	14.103	961.921	717.680
177.096	13.881	961.586	716.407
178.110	14.013	960.749	716.289
179.125	14.135	960.160	716.316
180.140	14.262	959.604	716.383
181.154	14.264	958.980	715.863
182.169	14.198	958.982	715.516
183.183	14.322	958.038	715.282
184.198	14.441	956.596	714.653
185.213	14.371	956.105	713.923
186.227	14.290	955.476	713.041
187.242	14.386	954.822	712.901
188.256	14.309	954.392	712.188
189.271	14.295	953.643	711.507
190.286	14.393	952.506	711.011
191.300	14.210	952.125	709.884
192.315	14.245	951.130	709.229
193.329	14.258	950.798	708.975
194.344	14.212	950.543	708.524
195.359	14.328	949.307	708.037
196.373	14.462	948.927	708.261
197.388	14.479	948.160	707.694
198.402	14.454	947.909	707.341
199.417	14.528	946.903	706.838
200.432	14.504	946.221	706.166
201.446	14.699	945.786	706.604
202.461	14.581	945.640	705.932
203.475	14.540	945.041	705.252
204.490	14.640	943.804	704.686
205.504	14.660	942.692	703.880
206.519	14.518	942.577	703.131
207.534	14.502	941.842	702.455
208.548	14.461	941.381	701.875
209.563	14.432	940.424	700.976
210.577	14.586	939.399	700.799
211.592	14.575	939.135	700.493
212.607	14.730	937.909	700.167
213.621	14.710	937.276	699.547
214.636	14.646	937.264	699.211
215.650	14.741	936.178	698.734
216.665	14.766	935.200	698.048
217.680	14.817	934.702	697.828
218.694	14.840	933.758	697.157
219.709	14.916	932.939	696.801
220.723	14.811	932.949	696.310
221.738	14.900	932.090	695.975
222.753	14.985	931.115	695.539
223.767	15.006	930.355	694.997
224.782	14.973	929.943	694.494
225.796	14.914	929.390	693.772
226.811	14.898	928.983	693.343
227.826	14.849	928.629	692.813
228.840	14.870	927.423	691.939
229.855	14.996	926.423	691.654
230.869	14.856	926.080	690.756
231.884	14.907	925.144	690.209
232.899	14.988	924.527	690.023
233.913	14.788	924.337	688.991
234.928	15.001	923.090	688.881
235.942	15.008	922.469	688.386
236.957	14.932	921.797	687.509
237.972	14.939	921.357	687.149
238.986	14.884	920.565	686.272
240.001	15.033	919.938	686.353
241.015	14.935	919.130	685.288
242.030	15.096	918.545	685.454
243.045	15.119	918.032	685.104
244.059	15.134	917.311	684.566
245.074	15.074	916.691	683.796
246.088	15.143	915.959	683.472
247.103	15.137	915.171	682.801
248.117	15.179	914.774	682.614
249.132	15.230	914.346	682.439
250.147	15.303	913.411	681.981
251.161	15.210	913.174	681.364
252.176	15.397	912.145	681.295
253.190	15.371	911.313	680.509
254.205	15.411	911.077	680.434
255.220	15.493	909.886	679.818
256.234	15.523	909.277	679.422
257.249	15.442	908.670	678.582
258.263	15.357	908.446	678.011
259.278	15.537	907.118	677.685
260.293	15.501	906.717	677.182
261.307	15.533	905.891	676.636
262.322	15.579	905.505	676.470
263.336	15.533	904.728	675.646
264.351	15.639	903.697	675.242
265.366	15.591	903.397	674.763
266.380	15.570	902.761	674.148
267.395	15.642	902.171	673.936
268.409	15.670	901.543	673.517
269.424	15.700	899.999	672.424
270.439	15.602	899.694	671.745
271.453	15.587	899.357	671.376
272.468	15.609	898.691	670.905
273.482	15.652	897.849	670.391
274.497	15.585	897.852	670.065
275.512	15.718	896.835	669.778
276.526	15.794	896.243	669.579
277.541	15.734	895.916	669.036
278.555	15.754	894.877	668.278
279.570	15.811	894.188	667.933
280.585	15.826	893.701	667.571
281.599	15.747	893.103	666.751
282.614	15.760	892.429	666.241
283.628	15.744	891.654	665.540
284.643	15.833	891.246	665.527
285.657	15.871	890.560	665.105
286.672	15.751	889.949	664.119
287.687	15.932	889.078	664.122
288.701	15.955	888.835	663.972
289.716	15.807	888.038	662.735
290.730	15.969	887.047	662.575
291.745	15.950	886.466	662.010
292.760	15.933	886.098	661.606
293.774	15.971	885.797	661.472
294.789	15.996	884.839	660.797
295.803	16.008	883.942	660.117
296.818	16.004	883.541	659.741
297.833	16.033	882.782	659.233
298.847	16.087	882.026	658.820
299.862	16.048	881.250	658.030
300.876	16.220	880.763	658.280
301.891	16.194	880.261	657.742
302.906	16.237	879.663	657.405
303.920	16.267	878.893	656.889
304.935	16.354	878.284	656.716
305.949	16.311	877.540	655.934
306.964	16.210	877.292	655.297
307.979	16.239	876.517	654.773
308.993	16.335	875.797	654.547
310.008	16.423	875.204	654.388
311.022	16.350	875.190	654.039
312.037	16.246	874.428	653.007
313.052	16.200	873.837	652.331
314.066	16.347	873.159	652.334
315.081	16.332	872.490	651.720
316.095	16.346	871.493	650.971
317.110	16.293	871.374	650.618
318.125	16.160	871.052	649.809
319.139	16.344	870.481	650.035
320.154	16.282	869.864	649.276
321.168	16.336	869.288	648.999
322.183	16.369	868.591	648.548
323.197	16.239	868.122	647.640
324.212	16.473	867.161	647.763
325.227	16.405	866.891	647.244
326.241	16.391	866.346	646.727
327.256	16.567	865.590	646.777
328.270	16.481	865.249	646.135
329.285	16.388	864.636	645.267
330.300	16.375	863.841	644.567
331.314	16.508	863.508	644.768
332.329	16.564	863.020	644.559
333.343	16.513	862.554	643.960
334.358	16.640	861.840	643.855
335.373	16.567	861.336	643.143
336.387	16.612	861.401	643.307
337.402	16.703	861.093	643.366
338.416	16.556	860.886	642.596
339.431	16.682	860.498	642.728
340.446	16.764	860.007	642.615
341.460	16.717	859.306	641.856
342.475	16.799	859.034	641.905
343.489	16.817	858.480	641.502
344.504	16.759	858.047	640.905
345.519	16.786	857.154	640.281
346.533	16.783	856.703	639.876
347.548	16.818	856.383	639.714
348.562	16.762	855.730	638.959
349.577	16.842	855.232	638.830
350.592	16.687	855.015	638.029
351.606	16.774	854.237	637.718
352.621	16.873	853.015	637.123
353.635	16.815	852.710	636.620
354.650	16.888	851.816	636.171
355.665	16.830	851.412	635.594
356.679	16.972	850.684	635.528
357.694	16.948	850.062	634.915
358.708	17.088	849.229	634.761
359.723	16.939	848.861	633.874
360.738	16.972	848.123	633.389
361.752	16.897	847.724	632.755
362.767	17.047	846.929	632.665
363.781	17.031	846.800	632.455
364.796	17.244	846.095	632.665
365.810	17.110	845.872	631.943
366.825	17.030	845.549	631.348
367.840	17.105	844.849	631.049
368.854	17.199	844.244	630.890
369.869	17.177	843.937	630.521
370.883	17.163	843.563	630.135
371.898	17.292	843.128	630.231
372.913	17.157	842.921	629.524
373.927	17.305	842.125	629.420
374.942	17.309	841.498	628.911
375.956	17.217	841.538	628.546
376.971	17.390	840.639	628.454
377.986	17.388	840.623	628.381
379.000	17.452	839.761	627.916
380.015	17.462	839.326	627.574
381.029	17.472	838.740	627.116
382.044	17.413	838.392	626.582
383.059	17.476	837.307	625.948
384.073	17.455	836.999	625.584
385.088	17.583	836.413	625.562
386.102	17.656	835.222	624.885
387.117	17.680	835.035	624.778
388.132	17.451	834.902	623.782
389.146	17.505	834.049	623.288
390.161	17.517	833.870	623.143
391.175	17.599	833.092	622.807
392.190	17.608	832.791	622.558
393.205	17.603	832.385	622.182
394.219	17.520	832.184	621.675
395.234	17.609	831.497	621.430
396.248	17.505	831.288	620.840
397.263	17.671	830.492	620.797
398.278	17.531	830.509	620.243
399.292	17.598	830.091	620.121
400.307	17.552	829.549	619.493
401.321	17.620	828.733	619.075
402.336	17.625	828.438	618.819
403.350	17.593	827.947	618.280
404.365	17.584	827.260	617.682
405.380	17.820	826.455	617.881
406.394	17.712	826.322	617.334
407.409	17.826	825.598	617.152
408.423	17.900	825.555	617.334
409.438	17.953	825.037	617.084
410.453	18.022	824.448	616.835
411.467	17.810	824.215	615.843
412.482	17.880	824.121	615.971
413.496	17.896	823.761	615.705
414.511	17.978	823.072	615.430
415.526	17.991	822.405	614.925
416.540	18.009	822.096	614.702
417.555	17.985	821.811	614.350
418.569	17.821	821.362	613.370
419.584	17.992	820.947	613.621
420.599	18.065	820.023	613.138
421.613	115.332	1302.457	1491.904
422.628	100.024	1372.713	1491.981
