DTS Sentinel unit serial number:	SN413079Multiplexer serial number:	ORYXHardware model number:	OX4-SRSoftware version number:	ORYX F/W v4.00 Oryx Data Collector v3.7.2.0data status	okinstallation	princeton_trtdifferential loss correction	single-endedforward channel	channel 1reverse channel	N/Adate	2019/09/18time	08:26:35forward acquisition time	60.00reverse acquisition time	0.00gamma	496.2192k internal	0.2337k external	0.2337temperature offset calibration	0.9978default loss term (dB/km)	0.3790temperature slope calibration	1.0000multiplexer offset coefficient	1.0000multiplexer slope coefficient	1.0000fibre end	0.00T internal ref (°C)	24.19T ext. ref 1 (°C)	0.22T ext. ref 2 (°C)	19.95length (m)	temperature (°C)	Stokes	anti-Stokes-747.200	581.419	0.162	0.398
-746.185	267.790	-0.217	0.381
-745.171	67.939	0.128	0.131
-744.156	23.046	0.023	-0.019
-743.142	-49.940	0.063	-0.030
-742.127	474.022	-0.167	0.379
-741.112	-2.385	-0.080	0.056
-740.098	-67.075	-0.340	0.135
-739.083	-104.512	-0.137	0.032
-738.069	-175.486	-0.215	0.006
-737.054	255.797	0.106	-0.183
-736.039	-95.785	-0.215	-0.058
-735.025	98.214	0.343	0.397
-734.010	264.797	-0.094	-0.164
-732.996	-41.643	-0.379	-0.196
-731.981	-200.000	-0.032	-0.181
-730.966	71.112	-0.048	0.050
-729.952	-144.527	0.078	0.007
-728.937	-22.542	-0.115	0.070
-727.923	-179.334	-0.350	-0.008
-726.908	-138.476	0.358	-0.039
-725.894	-184.903	-0.259	0.004
-724.879	-76.445	-0.170	-0.060
-723.864	77.546	0.248	-0.264
-722.850	35.854	0.114	0.101
-721.835	-200.000	0.021	0.108
-720.821	-149.533	0.325	-0.026
-719.806	46.256	0.143	-0.133
-718.791	91.512	0.325	-0.366
-717.777	-136.026	-0.238	0.028
-716.762	-30.620	0.187	-0.106
-715.748	-34.487	-0.230	0.127
-714.733	-200.000	0.035	-0.201
-713.718	442.553	0.057	0.125
-712.704	312.531	-0.153	-0.288
-711.689	-34.398	-0.492	-0.270
-710.675	-200.000	0.012	0.141
-709.660	-200.000	-0.007	0.071
-708.645	35.830	-0.164	0.145
-707.631	-101.048	0.157	-0.039
-706.616	10.375	0.166	-0.126
-705.602	800.000	-0.063	0.243
-704.587	72.326	0.141	0.147
-703.572	180.350	-0.273	0.401
-702.558	91.672	-0.113	0.128
-701.543	58.896	0.263	-0.259
-700.529	105.936	-0.338	-0.401
-699.514	-74.162	0.212	-0.077
-698.499	-108.437	-0.147	0.032
-697.485	-200.000	0.019	0.226
-696.470	20.165	0.418	0.338
-695.456	275.686	0.085	0.151
-694.441	34.425	-0.258	-0.225
-693.426	4.233	-0.060	-0.044
-692.412	20.830	-0.088	0.072
-691.397	-131.890	-0.135	-0.018
-690.383	-170.199	-0.251	-0.009
-689.368	-100.118	-0.098	-0.024
-688.354	163.182	0.059	0.083
-687.339	-200.000	0.023	-0.294
-686.324	-112.135	0.187	-0.038
-685.310	4.068	-0.160	0.117
-684.295	-61.503	0.313	0.132
-683.281	-64.565	-0.189	-0.077
-682.266	800.000	0.043	0.151
-681.251	-174.502	0.142	-0.004
-680.237	-200.000	-0.038	0.241
-679.222	-70.395	0.374	0.142
-678.208	-148.810	0.201	-0.016
-677.193	84.457	-0.312	-0.342
-676.178	-108.454	-0.221	-0.048
-675.164	213.156	0.211	-0.333
-674.149	11.976	-0.025	0.019
-673.135	-123.532	0.425	-0.068
-672.120	66.878	0.109	0.111
-671.105	-200.000	-0.007	-0.088
-670.091	-153.380	-0.269	0.019
-669.076	203.791	-0.106	-0.165
-668.062	-200.000	-0.013	-0.371
-667.047	45.836	0.094	-0.087
-666.032	-123.267	-0.181	0.029
-665.018	-200.000	-0.000	-0.047
-664.003	224.381	0.089	0.144
-662.989	-39.409	-0.073	0.038
-661.974	-200.000	-0.009	0.182
-660.959	-102.369	-0.367	-0.088
-659.945	34.102	0.217	0.189
-658.930	-146.001	-0.150	0.013
-657.916	59.989	0.140	0.139
-656.901	132.683	-0.066	-0.085
-655.886	176.076	-0.247	-0.359
-654.872	-117.283	-0.230	-0.042
-653.857	319.553	0.045	-0.085
-652.843	-200.000	0.001	0.112
-651.828	-143.246	-0.104	0.010
-650.814	-109.282	0.337	0.072
-649.799	800.000	-0.015	0.053
-648.784	-14.049	0.227	-0.147
-647.770	22.699	-0.329	0.270
-646.755	50.235	-0.229	0.216
-645.741	-67.952	-0.101	-0.039
-644.726	-200.000	-0.010	-0.055
-643.711	-22.298	-0.165	0.100
-642.697	94.172	-0.182	-0.207
-641.682	-200.000	-0.046	-0.310
-640.668	215.485	-0.229	-0.363
-639.653	-200.000	-0.014	-0.202
-638.638	-200.000	-0.019	0.127
-637.624	-121.715	-0.169	-0.028
-636.609	150.634	-0.238	-0.324
-635.595	657.779	0.051	0.132
-634.580	-147.603	0.246	-0.021
-633.565	30.684	-0.058	-0.049
-632.551	-200.000	-0.043	0.261
-631.536	703.206	0.097	-0.255
-630.522	-74.025	-0.278	-0.101
-629.507	410.008	-0.038	-0.082
-628.492	400.439	0.082	0.172
-627.478	129.014	-0.075	-0.096
-626.463	-200.000	-0.068	-0.335
-625.449	590.323	-0.107	-0.264
-624.434	-135.314	-0.208	-0.025
-623.419	-41.841	-0.272	-0.140
-622.405	-200.000	0.042	-0.351
-621.390	-67.520	0.101	-0.040
-620.376	234.888	-0.066	0.109
-619.361	-53.735	-0.156	-0.071
-618.346	18.676	-0.081	-0.065
-617.332	800.000	0.085	0.255
-616.317	-200.000	0.012	-0.198
-615.303	198.101	0.238	-0.364
-614.288	340.472	-0.089	0.173
-613.273	115.715	-0.075	0.092
-612.259	-54.256	0.175	-0.079
-611.244	727.219	0.185	-0.492
-610.230	-39.663	-0.210	-0.110
-609.215	-165.706	-0.234	0.010
-608.201	-200.000	-0.029	0.152
-607.186	178.047	0.098	-0.143
-606.171	157.349	-0.248	-0.343
-605.157	-200.000	0.062	0.303
-604.142	-84.150	-0.280	-0.089
-603.128	-81.361	-0.461	-0.152
-602.113	-200.000	0.004	-0.115
-601.098	-102.922	0.203	0.048
-600.084	-0.436	-0.239	0.170
-599.069	800.000	-0.160	0.472
-598.055	-52.840	0.183	-0.084
-597.040	310.025	-0.168	-0.313
-596.025	800.000	0.032	0.116
-595.011	-45.061	0.167	0.083
-593.996	582.396	0.118	0.289
-592.982	397.861	0.089	0.185
-591.967	26.481	-0.083	0.069
-590.952	-55.087	0.098	0.044
-589.938	105.962	0.089	-0.105
-588.923	711.411	-0.113	-0.298
-587.909	-108.573	-0.179	-0.038
-586.894	-30.279	0.200	-0.113
-585.879	-43.867	0.268	-0.134
-584.865	-200.000	-0.014	-0.060
-583.850	-155.353	0.084	0.005
-582.836	-100.989	-0.278	0.068
-581.821	20.046	-0.115	0.092
-580.806	146.264	0.209	0.279
-579.792	362.752	0.148	-0.297
-578.777	275.159	-0.081	-0.143
-577.763	125.418	-0.242	0.305
-576.748	0.521	-0.377	-0.269
-575.733	-24.151	0.057	0.034
-574.719	-128.423	-0.288	0.041
-573.704	-85.149	-0.032	-0.010
-572.690	29.910	-0.140	0.119
-571.675	-200.000	0.007	0.115
-570.661	-12.409	-0.042	0.027
-569.646	-119.046	-0.291	0.051
-568.631	442.099	-0.056	-0.123
-567.617	585.390	0.073	-0.179
-566.602	-195.877	0.332	-0.002
-565.588	76.745	0.053	0.056
-564.573	278.505	-0.118	-0.210
-563.558	574.273	-0.148	0.359
-562.544	-200.000	0.037	0.217
-561.529	-97.459	0.437	0.113
-560.515	153.121	-0.262	-0.357
-559.500	-133.808	-0.140	-0.017
-558.485	-98.901	0.415	-0.105
-557.471	-47.437	-0.136	-0.066
-556.456	242.737	0.042	0.070
-555.442	-47.278	-0.256	0.124
-554.427	-200.000	0.020	-0.094
-553.412	445.557	0.076	0.166
-552.398	-115.228	-0.202	0.038
-551.383	-97.304	-0.204	-0.053
-550.369	288.127	0.172	-0.311
-549.354	-73.806	-0.098	0.035
-548.339	-111.993	-0.012	-0.002
-547.325	800.000	-0.081	-0.233
-546.310	49.158	-0.275	-0.258
-545.296	104.355	-0.060	-0.070
-544.281	800.000	0.062	-0.205
-543.266	-167.342	0.083	-0.003
-542.252	-200.000	-0.030	-0.320
-541.237	22.893	0.120	-0.098
-540.223	-85.886	-0.116	-0.036
-539.208	-4.218	0.053	0.037
-538.193	403.805	-0.079	-0.166
-537.179	-200.000	-0.007	0.134
-536.164	733.165	-0.048	0.129
-535.150	-46.608	-0.145	-0.071
-534.135	800.000	-0.083	0.249
-533.121	800.000	0.097	-0.313
-532.106	125.464	-0.138	-0.174
-531.091	342.139	0.198	-0.386
-530.077	143.907	0.074	-0.098
-529.062	800.000	-0.061	0.198
-528.048	-176.535	0.266	-0.007
-527.033	30.446	0.358	-0.305
-526.018	-111.655	-0.326	-0.066
-525.004	0.483	0.061	-0.043
-523.989	-200.000	0.071	0.487
-522.975	-200.000	0.040	-0.224
-521.960	800.000	-0.110	0.417
-520.945	-87.974	-0.082	-0.025
-519.931	-90.919	0.340	0.097
-518.916	-12.809	-0.104	-0.067
-517.902	-92.532	0.425	-0.119
-516.887	-200.000	-0.028	-0.198
-515.872	800.000	0.049	-0.157
-514.858	-77.630	-0.142	0.049
-513.843	-88.678	0.083	0.025
-512.829	-63.854	0.080	-0.033
-511.814	-200.000	-0.027	-0.290
-510.799	151.437	0.154	-0.208
-509.785	14.398	-0.139	0.108
-508.770	8.798	0.078	-0.058
-507.756	-129.634	0.104	0.014
-506.741	-46.049	0.105	0.052
-505.726	262.585	-0.196	0.339
-504.712	765.178	-0.024	0.065
-503.697	-87.999	0.213	0.064
-502.683	-85.447	0.401	-0.124
-501.668	197.956	-0.104	0.158
-500.653	-44.932	0.158	0.079
-499.639	-79.446	0.132	-0.044
-498.624	-0.445	-0.173	0.122
-497.610	709.630	0.082	-0.216
-496.595	100.548	-0.024	-0.028
-495.581	-200.000	-0.051	0.328
-494.566	-200.000	0.013	-0.210
-493.551	-25.617	0.036	0.021
-492.537	-200.000	-0.036	-0.265
-491.522	149.596	-0.073	0.098
-490.508	482.460	0.052	0.117
-489.493	-200.000	0.007	-0.188
-488.478	64.184	-0.178	-0.178
-487.464	-159.360	0.184	-0.010
-486.449	726.511	0.172	0.457
-485.435	60.820	-0.361	0.356
-484.420	11.341	0.268	0.204
-483.405	-121.516	0.176	0.029
-482.391	-200.000	0.063	-0.279
-481.376	-200.000	-0.011	-0.403
-480.362	71.888	-0.141	0.146
-479.347	-159.686	0.148	-0.008
-478.332	-83.771	0.253	0.080
-477.318	-100.936	-0.166	0.041
-476.303	55.800	-0.085	0.082
-475.289	-37.718	0.083	0.044
-474.274	4.279	-0.137	-0.100
-473.259	-68.877	0.071	-0.027
-472.245	-91.282	-0.214	0.061
-471.230	677.704	0.043	0.111
-470.216	800.000	0.064	-0.221
-469.201	800.000	-0.081	-0.256
-468.186	-114.145	0.175	0.034
-467.172	-95.964	0.163	0.043
-466.157	-126.103	0.328	0.049
-465.143	60.212	-0.226	-0.222
-464.128	800.000	-0.047	-0.174
-463.113	-200.000	-0.011	0.237
-462.099	177.036	-0.138	0.200
-461.084	153.464	-0.030	-0.041
-460.070	-200.000	-0.029	-0.237
-459.055	-92.696	0.058	-0.016
-458.040	-56.784	0.300	-0.132
-457.026	-41.623	0.124	-0.063
-456.011	-76.802	0.290	0.101
-454.997	-156.205	0.036	0.002
-453.982	800.000	0.059	-0.164
-452.968	-18.784	0.162	0.100
-451.953	302.126	0.086	0.157
-450.938	-103.774	0.284	-0.066
-449.924	800.000	-0.087	-0.254
-448.909	511.020	-0.046	-0.107
-447.895	800.000	0.057	0.159
-446.880	154.835	0.145	0.198
-445.865	-200.000	-0.057	0.449
-444.851	-5.977	-0.111	0.076
-443.836	85.424	0.115	-0.125
-442.822	136.536	0.076	0.099
-441.807	-80.783	0.477	0.157
-440.792	-182.036	0.072	0.001
-439.778	310.161	-0.131	-0.243
-438.763	381.012	0.179	-0.364
-437.749	-83.944	0.067	-0.021
-436.734	-105.006	0.192	0.044
-435.719	-26.853	-0.277	-0.160
-434.705	308.674	0.250	0.463
-433.690	-111.801	0.231	0.046
-432.676	680.012	0.102	-0.262
-431.661	800.000	-0.092	-0.268
-430.646	-32.909	-0.284	-0.157
-429.632	-33.437	-0.319	0.175
-428.617	-47.288	-0.217	0.105
-427.603	-145.247	0.340	0.031
-426.588	-127.793	0.181	-0.026
-425.573	214.285	0.197	0.309
-424.559	-200.000	0.009	0.052
-423.544	309.261	0.024	0.044
-422.530	-108.478	-0.120	-0.026
-421.515	-130.047	-0.313	-0.042
-420.500	356.731	-0.068	0.135
-419.486	-75.390	0.149	-0.052
-418.471	4.862	0.249	0.181
-417.457	-75.147	-0.087	0.031
-416.442	61.826	-0.024	0.023
-415.428	800.000	-0.032	0.112
-414.413	-200.000	-0.059	-0.261
-413.398	-193.085	0.090	-0.001
-412.384	-25.449	0.125	-0.073
-411.369	236.473	-0.095	-0.156
-410.355	487.449	-0.040	0.091
-409.340	-188.052	0.225	-0.003
-408.325	72.360	0.291	-0.301
-407.311	800.000	0.024	-0.089
-406.296	800.000	-0.039	-0.117
-405.282	100.093	0.112	0.129
-404.267	100.965	-0.011	0.012
-403.252	-110.659	-0.312	0.064
-402.238	5.827	-0.311	0.228
-401.223	-200.000	0.031	0.221
-400.209	1.244	-0.108	-0.077
-399.194	337.948	-0.139	-0.267
-398.179	112.120	-0.115	0.138
-397.165	255.633	0.141	-0.240
-396.150	-197.898	0.028	0.000
-395.136	-47.851	-0.392	0.188
-394.121	-22.947	0.076	-0.045
-393.106	110.329	-0.011	0.013
-392.092	77.222	0.034	-0.036
-391.077	25.695	0.201	0.166
-390.063	93.230	-0.105	0.118
-389.048	310.274	0.150	-0.278
-388.033	-200.000	-0.028	-0.130
-387.019	-103.240	0.174	0.041
-386.004	-80.324	0.226	-0.075
-384.990	-128.285	-0.114	0.016
-383.975	298.286	0.170	0.309
-382.960	-189.612	-0.282	0.003
-381.946	-111.501	-0.220	-0.044
-380.931	-31.109	0.239	0.133
-379.917	145.216	0.153	0.203
-378.902	225.547	0.247	0.396
-377.888	435.386	-0.075	0.161
-376.873	-24.140	0.257	-0.152
-375.858	354.781	-0.069	0.136
-374.844	77.422	0.043	-0.045
-373.829	-97.185	0.157	-0.041
-372.815	-147.087	-0.342	0.029
-371.800	-200.000	-0.016	0.161
-370.785	-88.991	0.144	-0.042
-369.771	-126.851	0.052	-0.008
-368.756	-91.638	0.108	0.031
-367.742	195.793	-0.023	-0.034
-366.727	60.652	0.215	0.211
-365.712	-4.925	-0.306	0.209
-364.698	-11.336	-0.196	0.128
-363.683	-155.189	0.181	-0.012
-362.669	-200.000	0.019	0.225
-361.654	-70.868	0.166	-0.062
-360.639	10.037	0.132	-0.099
-359.625	-200.000	-0.033	-0.370
-358.610	800.000	0.012	0.043
-357.596	-99.893	-0.268	-0.066
-356.581	152.865	-0.130	-0.176
-355.566	268.818	-0.195	-0.339
-354.552	360.638	0.128	-0.253
-353.537	-39.129	-0.203	0.105
-352.523	150.931	0.033	-0.044
-351.508	800.000	0.078	-0.300
-350.493	800.000	0.075	0.231
-349.479	-138.958	-0.158	-0.017
-348.464	102.307	0.215	0.248
-347.450	-43.943	0.244	0.121
-346.435	-65.991	0.278	0.110
-345.420	-150.751	-0.075	0.006
-344.406	-200.000	-0.021	0.251
-343.391	104.028	-0.218	0.253
-342.377	-92.751	-0.169	-0.047
-341.362	31.996	-0.233	-0.198
-340.348	-7.678	-0.092	-0.062
-339.333	613.625	-0.031	-0.078
-338.318	-200.000	-0.050	0.292
-337.304	800.000	0.068	0.202
-336.289	-186.822	-0.168	0.002
-335.275	491.287	0.167	0.379
-334.260	800.000	0.096	0.265
-333.245	237.770	-0.138	-0.226
-332.231	-44.419	-0.192	-0.095
-331.216	215.696	0.149	0.234
-330.202	-200.000	0.019	0.388
-329.187	49.723	0.261	0.243
-328.172	-53.411	-0.434	-0.197
-327.158	-5.096	-0.081	-0.055
-326.143	-200.000	-0.030	-0.231
-325.129	-72.834	0.047	-0.017
-324.114	85.587	-0.240	0.261
-323.099	-200.000	-0.009	0.060
-322.085	-200.000	0.020	-0.172
-321.070	-94.658	-0.170	0.046
-320.056	244.197	-0.099	0.165
-319.041	-129.122	0.173	-0.024
-318.026	-200.000	-0.015	-0.069
-317.012	-47.211	0.075	-0.036
-315.997	12.305	-0.239	0.182
-314.983	-35.523	-0.338	0.181
-313.968	371.260	0.175	0.351
-312.953	-115.731	-0.133	0.025
-311.939	-200.000	-0.009	0.224
-310.924	17.144	-0.261	-0.204
-309.910	-200.000	0.034	0.182
-308.895	800.000	-0.030	0.129
-307.880	64.899	-0.189	-0.188
-306.866	-200.000	-0.077	-0.355
-305.851	-65.669	-0.111	0.044
-304.837	-32.517	0.084	0.046
-303.822	230.109	-0.077	-0.124
-302.807	-29.633	-0.243	0.137
-301.793	-165.135	0.155	0.007
-300.778	1.914	0.305	0.217
-299.764	236.720	-0.135	-0.221
-298.749	-56.649	-0.236	-0.103
-297.735	800.000	-0.061	-0.261
-296.720	-167.320	0.089	-0.004
-295.705	548.707	0.081	-0.190
-294.691	-132.806	-0.157	-0.020
-293.676	277.080	0.176	0.309
-292.662	800.000	0.030	0.113
-291.647	638.122	-0.077	-0.193
-290.632	-2.973	0.067	-0.046
-289.618	-200.000	-0.022	0.106
-288.603	-200.000	0.023	-0.255
-287.589	-62.835	0.025	0.010
-286.574	138.648	0.075	0.097
-285.559	-115.669	0.420	-0.078
-284.545	-151.514	0.177	-0.013
-283.530	21.136	-0.195	0.156
-282.516	-200.000	0.002	0.053
-281.501	14.170	-0.258	0.198
-280.486	50.154	0.023	0.022
-279.472	-54.616	0.246	0.110
-278.457	-29.425	0.209	0.118
-277.443	8.042	0.143	0.106
-276.428	-44.070	-0.353	-0.175
-275.413	-1.714	0.233	-0.162
-274.399	24.720	0.134	0.109
-273.384	-115.325	0.362	-0.067
-272.370	-200.000	0.048	0.385
-271.355	-63.532	-0.161	-0.065
-270.340	-200.000	-0.031	-0.161
-269.326	5.250	0.188	0.136
-268.311	56.993	0.199	0.191
-267.297	69.007	0.077	0.078
-266.282	174.727	0.150	0.213
-265.267	-200.000	0.003	-0.102
-264.253	47.132	0.187	0.172
-263.238	-128.217	-0.122	-0.017
-262.224	800.000	0.028	-0.095
-261.209	-200.000	-0.039	0.180
-260.195	-80.571	-0.113	0.037
-259.180	-26.765	0.279	0.161
-258.165	-128.474	-0.292	-0.041
-257.151	129.722	0.179	-0.226
-256.136	159.402	0.047	-0.064
-255.122	263.226	0.138	-0.237
-254.107	-187.637	-0.158	-0.002
-253.092	-200.000	0.012	0.208
-252.078	800.000	-0.054	-0.164
-251.063	302.534	0.120	-0.218
-250.049	249.260	0.042	0.069
-249.034	-87.518	-0.105	0.031
-248.019	-76.231	-0.156	-0.054
-247.005	-158.434	0.173	0.010
-245.990	-23.596	-0.235	0.139
-244.976	109.632	0.098	0.115
-243.961	9.987	0.099	-0.074
-242.946	-200.000	-0.002	0.322
-241.932	-168.286	-0.114	0.004
-240.917	800.000	0.076	-0.227
-239.903	800.000	-0.123	-0.408
-238.888	31.857	0.140	-0.119
-237.873	-200.000	-0.008	0.055
-236.859	88.875	0.347	0.380
-235.844	-40.423	0.237	0.121
-234.830	-35.224	-0.253	-0.136
-233.815	35.919	-0.062	-0.054
-232.800	-135.331	0.292	0.034
-231.786	800.000	0.119	-0.359
-230.771	-25.752	0.264	0.153
-229.757	138.606	-0.112	-0.145
-228.742	-126.891	-0.263	0.038
-227.727	-200.000	0.044	-0.205
-226.713	800.000	0.062	-0.209
-225.698	800.000	0.030	0.095
-224.684	295.013	-0.069	0.124
-223.669	-133.125	0.227	0.028
-222.655	250.101	0.066	0.111
-221.640	-83.810	-0.072	0.023
-220.625	-104.089	-0.158	-0.036
-219.611	-200.000	-0.050	-0.258
-218.596	-200.000	-0.071	0.449
-217.582	522.373	-0.041	0.094
-216.567	800.000	-0.080	-0.230
-215.552	-23.395	0.072	0.043
-214.538	42.094	-0.258	-0.231
-213.523	-112.205	-0.202	-0.040
-212.509	-65.106	0.132	-0.052
-211.494	491.178	0.176	0.396
-210.479	-10.515	-0.265	-0.173
-209.465	-64.189	-0.219	-0.088
-208.450	-168.189	0.412	0.016
-207.436	-81.225	0.282	0.091
-206.421	-68.905	-0.203	-0.077
-205.406	305.380	-0.272	0.497
-204.392	169.616	0.140	-0.197
-203.377	-25.839	0.203	-0.117
-202.363	-200.000	0.047	0.292
-201.348	-182.664	0.399	0.007
-200.333	375.523	0.074	-0.149
-199.319	-200.000	-0.098	0.551
-198.304	-200.000	-0.029	0.175
-197.290	-56.380	-0.075	-0.033
-196.275	-200.000	0.001	0.046
-195.260	-200.000	-0.027	0.222
-194.246	-120.673	-0.315	-0.052
-193.231	10.972	0.327	-0.245
-192.217	98.512	-0.064	0.072
-191.202	-125.217	-0.171	0.026
-190.187	-200.000	0.009	-0.046
-189.173	99.159	0.261	0.297
-188.158	753.420	0.067	-0.177
-187.144	800.000	0.039	-0.115
-186.129	114.277	-0.114	-0.137
-185.114	48.061	-0.151	-0.139
-184.100	-200.000	0.017	0.218
-183.085	-149.730	-0.094	-0.007
-182.071	800.000	0.049	-0.192
-181.056	800.000	0.023	-0.084
-180.042	-29.731	-0.268	-0.150
-179.027	800.000	0.099	0.400
-178.012	182.872	-0.051	-0.074
-176.998	-99.601	0.331	-0.082
-175.983	67.405	-0.177	-0.178
-174.969	-146.557	0.247	-0.021
-173.954	-100.266	-0.021	-0.005
-172.939	-28.317	0.257	0.146
-171.925	-200.000	-0.060	0.325
-170.910	-200.000	-0.050	-0.243
-169.896	800.000	0.045	0.129
-168.881	-200.000	0.040	0.255
-167.866	800.000	-0.076	0.234
-166.852	-88.242	0.256	0.075
-165.837	-200.000	0.005	-0.101
-164.823	148.113	-0.086	-0.114
-163.808	87.392	-0.030	-0.033
-162.793	92.536	-0.156	-0.173
-161.779	-66.734	-0.015	-0.006
-160.764	145.726	-0.147	0.194
-159.750	-37.351	-0.238	0.125
-158.735	-200.000	-0.044	0.194
-157.720	-109.091	-0.223	0.047
-156.706	-200.000	-0.010	-0.126
-155.691	435.074	-0.109	-0.232
-154.677	-120.673	0.228	-0.038
-153.662	-137.083	-0.257	0.029
-152.647	-95.563	0.102	0.027
-151.633	-28.600	-0.168	0.095
-150.618	388.041	-0.130	-0.263
-149.604	-200.000	-0.057	-0.333
-148.589	570.148	0.017	0.041
-147.574	78.153	0.275	0.288
-146.560	8.343	0.240	0.177
-145.545	13.463	0.100	0.076
-144.531	800.000	-0.030	0.129
-143.516	-56.888	0.208	0.090
-142.502	-200.000	0.052	-0.381
-141.487	-184.004	0.057	-0.001
-140.472	-53.856	-0.153	0.068
-139.458	128.238	0.040	0.050
-138.443	800.000	0.069	0.263
-137.429	-108.830	-0.277	0.058
-136.414	-46.903	-0.028	0.014
-135.399	-50.989	0.181	0.083
-134.385	800.000	-0.081	-0.285
-133.370	345.390	-0.165	-0.317
-132.356	-59.693	-0.160	0.067
-131.341	-200.000	-0.033	-0.163
-130.326	73.925	-0.032	0.033
-129.312	-174.044	0.226	0.006
-128.297	800.000	0.080	0.338
-127.283	-51.294	0.242	0.111
-126.268	-102.921	-0.122	-0.028
-125.253	-17.600	0.082	-0.051
-124.239	-122.890	0.203	0.032
-123.224	-200.000	0.043	-0.264
-122.210	-167.046	-0.356	-0.014
-121.195	387.164	-0.147	-0.297
-120.180	159.684	0.268	0.365
-119.166	76.063	0.071	0.073
-118.151	-200.000	-0.024	0.134
-117.137	-81.204	0.264	-0.086
-116.122	264.039	-0.158	0.269
-115.107	245.996	-0.170	0.281
-114.093	-113.896	0.323	-0.061
-113.078	-72.121	0.260	0.094
-112.064	28.643	-0.178	-0.148
-111.049	-151.396	0.270	0.020
-110.034	262.334	-0.278	0.473
-109.020	349.897	0.082	0.158
-108.005	-60.729	-0.103	-0.043
-106.991	-200.000	-0.047	0.364
-105.976	530.310	0.092	-0.213
-104.962	48.276	0.200	-0.183
-103.947	800.000	0.020	0.079
-102.932	-95.374	-0.159	-0.042
-101.918	800.000	-0.049	-0.188
-100.903	-47.230	-0.079	0.038
-99.889	254.778	-0.091	0.152
-98.874	38.866	0.255	0.223
-97.859	-200.000	0.262	-0.001
-96.845	192.166	0.227	-0.335
-95.830	800.000	-0.043	0.177
-94.816	389.780	0.176	0.358
-93.801	-30.180	0.094	0.052
-92.786	-29.559	-0.205	-0.115
-91.772	-107.585	0.199	-0.043
-90.757	193.780	0.312	0.462
-89.743	325.746	0.126	0.237
-88.728	-1.950	0.210	-0.145
-87.713	-25.522	0.324	-0.188
-86.699	39.145	0.121	-0.106
-85.684	78.396	0.069	-0.072
-84.670	292.147	-0.100	0.179
-83.655	351.519	0.058	0.113
-82.640	692.603	0.107	-0.275
-81.626	-149.527	-0.194	-0.015
-80.611	42.574	0.093	-0.083
-79.597	800.000	-0.064	-0.228
-78.582	-63.455	0.168	0.067
-77.567	-57.484	0.284	0.122
-76.553	70.563	-0.214	0.217
-75.538	180.444	-0.136	0.196
-74.524	-148.196	-0.144	-0.012
-73.509	800.000	-0.097	-0.280
-72.494	-200.000	-0.012	0.166
-71.480	-172.513	-0.115	-0.004
-70.465	800.000	-0.058	-0.235
-69.451	800.000	-0.069	0.274
-68.436	29.236	-0.179	0.148
-67.422	66.281	-0.086	0.085
-66.407	-200.000	0.001	0.134
-65.392	-200.000	0.079	0.352
-64.378	58.257	-0.129	0.124
-63.363	-22.742	-0.090	-0.053
-62.349	800.000	-0.047	0.186
-61.334	14.842	-1.416	-1.083
-60.319	109.647	0.647	0.758
-59.305	284.335	-0.551	-0.969
-58.290	97.393	0.902	1.013
-57.276	800.000	0.530	1.579
-56.261	-200.000	121.874	614.718
-55.246	388.641	1563.640	3163.470
-54.232	142.180	2725.650	3533.800
-53.217	94.569	2169.366	2409.380
-52.203	35.633	1600.353	1373.762
-51.188	27.350	1344.253	1103.883
-50.173	24.835	1306.320	1057.842
-49.159	49.840	1373.324	1265.074
-48.144	47.812	1385.493	1263.908
-47.130	27.501	1334.522	1096.628
-46.115	24.437	1314.856	1062.221
-45.100	24.149	1310.602	1057.030
-44.086	24.092	1308.357	1054.841
-43.071	24.023	1306.428	1052.836
-42.057	23.919	1304.734	1050.813
-41.042	24.111	1302.094	1049.777
-40.027	24.206	1300.410	1048.936
-39.013	24.230	1298.595	1047.572
-37.998	24.023	1297.011	1045.041
-36.984	24.113	1295.592	1044.381
-35.969	24.289	1293.437	1043.632
-34.954	24.275	1291.686	1042.098
-33.940	24.148	1291.084	1040.826
-32.925	24.249	1289.558	1040.147
-31.911	24.166	1288.267	1038.581
-30.896	24.241	1286.659	1037.678
-29.881	24.361	1285.256	1037.206
-28.867	24.361	1283.815	1036.002
-27.852	24.293	1282.462	1034.472
-26.838	24.211	1281.303	1033.021
-25.823	24.308	1279.960	1032.457
-24.809	24.313	1278.069	1030.923
-23.794	24.336	1277.060	1030.199
-22.779	24.203	1275.879	1028.438
-21.765	24.344	1274.788	1028.334
-20.750	24.297	1273.473	1026.960
-19.736	24.296	1271.667	1025.458
-18.721	24.006	1271.544	1023.648
-17.706	24.216	1269.959	1023.537
-16.692	24.188	1268.568	1022.217
-15.677	24.148	1267.411	1021.014
-14.663	24.053	1266.493	1019.691
-13.648	24.116	1265.497	1019.208
-12.633	24.117	1264.481	1018.357
-11.619	24.215	1263.177	1017.827
-10.604	24.061	1262.864	1016.651
-9.590	24.092	1261.842	1015.964
-8.575	24.065	1260.926	1015.032
-7.560	24.088	1259.896	1014.293
-6.546	24.080	1259.486	1013.880
-5.531	24.081	1258.545	1013.086
-4.517	24.037	1257.773	1012.177
-3.502	24.074	1256.542	1011.356
-2.487	24.163	1255.563	1011.031
-1.473	24.123	1251.350	1007.371
-0.458	22.867	1236.545	988.393
0.556	18.316	1221.150	954.442
1.571	15.025	1228.796	941.842
2.586	14.431	1243.982	950.010
3.600	14.150	1231.887	939.107
4.615	10.308	1159.316	863.257
5.629	3.503	1087.258	775.411
6.644	0.446	1070.169	748.013
7.659	0.147	1068.004	744.953
8.673	0.120	1066.665	743.820
9.688	0.147	1065.623	743.163
10.702	0.279	1063.744	742.434
11.717	4.443	1068.169	766.027
12.731	11.428	1077.858	807.576
13.746	15.851	1082.752	833.109
14.761	16.684	1083.959	838.092
15.775	15.915	1082.030	832.725
16.790	14.889	1080.160	826.144
17.804	14.348	1078.359	822.025
18.819	14.028	1077.407	819.648
19.834	13.733	1076.630	817.531
20.848	13.599	1075.488	815.934
21.863	13.340	1074.433	813.785
22.877	13.228	1073.569	812.506
23.892	13.068	1073.216	811.383
24.907	13.197	1072.531	811.426
25.921	13.155	1071.731	810.543
26.936	13.248	1070.526	810.016
27.950	13.232	1069.789	809.307
28.965	13.281	1068.741	808.683
29.980	13.399	1066.978	807.853
30.994	13.342	1066.465	807.118
32.009	13.391	1065.531	806.577
33.023	13.298	1064.120	804.984
34.038	13.307	1063.245	804.294
35.053	13.344	1062.162	803.586
36.067	13.257	1061.727	802.762
37.082	13.335	1060.309	802.000
38.096	13.387	1060.251	802.133
39.111	13.280	1059.133	800.701
40.126	13.261	1058.072	799.733
41.140	13.203	1056.677	798.330
42.155	13.190	1055.794	797.530
43.169	13.227	1054.682	796.798
44.184	13.173	1053.633	795.675
45.199	13.031	1053.062	794.490
46.213	13.212	1051.539	794.140
47.228	13.132	1050.778	793.113
48.242	13.264	1049.094	792.402
49.257	13.212	1048.216	791.418
50.271	13.199	1047.438	790.701
51.286	13.387	1046.134	790.543
52.301	13.221	1045.487	789.190
53.315	13.224	1044.203	788.167
54.330	13.220	1042.858	787.062
55.344	13.203	1042.767	786.846
56.359	13.217	1041.633	785.983
57.374	13.258	1040.649	785.367
58.388	13.112	1039.952	784.079
59.403	13.129	1039.320	783.612
60.417	13.077	1038.215	782.468
61.432	13.217	1037.183	782.282
62.447	13.095	1036.742	781.304
63.461	13.100	1035.905	780.627
64.476	13.088	1034.855	779.707
65.490	13.014	1034.474	779.005
66.505	13.067	1033.693	778.594
67.520	13.221	1032.569	778.405
68.534	13.130	1031.776	777.309
69.549	13.149	1031.379	777.034
70.563	13.206	1030.224	776.362
71.578	13.139	1029.518	775.449
72.593	13.191	1028.422	774.798
73.607	12.977	1028.597	773.857
74.622	13.094	1027.709	773.667
75.636	12.930	1026.932	772.245
76.651	13.022	1026.393	772.202
77.666	13.014	1025.367	771.328
78.680	13.088	1024.798	771.177
79.695	13.048	1024.246	770.505
80.709	12.975	1023.748	769.719
81.724	13.214	1022.537	769.858
82.739	13.192	1021.955	769.246
83.753	13.166	1021.327	768.584
84.768	13.265	1020.092	768.046
85.782	13.350	1019.410	767.864
86.797	13.397	1018.357	767.220
87.812	13.202	1017.627	765.699
88.826	13.206	1016.578	764.861
89.841	13.262	1015.563	764.288
90.855	13.336	1014.501	763.759
91.870	13.211	1013.843	762.619
92.884	13.274	1012.881	762.120
93.899	13.463	1012.019	762.274
94.914	13.380	1011.366	761.334
95.928	13.405	1010.341	760.612
96.943	13.284	1009.577	759.411
97.957	13.369	1008.423	758.864
98.972	13.287	1008.107	758.185
99.987	13.309	1006.990	757.379
101.001	13.338	1005.737	756.504
102.016	13.238	1005.177	755.558
103.030	13.377	1004.366	755.517
104.045	13.376	1003.821	755.033
105.060	13.418	1002.829	754.412
106.074	13.308	1001.802	753.072
107.089	13.328	1000.485	752.107
108.103	13.242	999.738	751.089
109.118	13.046	999.118	749.667
110.133	13.070	998.183	749.008
111.147	13.147	997.282	748.613
112.162	13.238	996.204	748.148
113.176	13.229	995.711	747.672
114.191	13.256	994.613	746.904
115.206	13.351	993.831	746.680
116.220	13.344	992.775	745.787
117.235	13.360	991.790	745.054
118.249	13.288	991.307	744.302
119.264	13.252	990.628	743.566
120.279	13.217	989.976	742.849
121.293	13.191	989.393	742.230
122.308	13.305	988.064	741.679
123.322	13.230	987.353	740.745
124.337	13.156	986.405	739.639
125.352	13.244	985.198	739.059
126.366	13.328	983.668	738.220
127.381	13.247	983.065	737.343
128.395	13.179	982.033	736.200
129.410	13.302	981.533	736.308
130.424	13.199	980.683	735.148
131.439	13.171	979.566	734.120
132.454	13.218	978.824	733.706
133.468	13.314	977.891	733.371
134.483	13.330	976.825	732.577
135.497	13.228	976.488	731.805
136.512	13.312	975.150	731.110
137.527	13.246	975.011	730.649
138.541	13.227	974.311	729.978
139.556	13.288	973.346	729.459
140.570	13.487	972.348	729.525
141.585	13.358	971.786	728.468
142.600	13.449	970.331	727.714
143.614	13.483	969.935	727.501
144.629	13.533	969.113	727.042
145.643	13.498	968.054	726.026
146.658	13.453	967.160	725.097
147.673	13.331	966.467	723.980
148.687	13.581	964.953	723.873
149.702	13.463	964.417	722.892
150.716	13.340	963.845	721.863
151.731	13.372	963.158	721.423
152.746	13.377	962.285	720.727
153.760	13.417	961.819	720.487
154.775	13.386	961.337	719.927
155.789	13.575	960.400	719.986
156.804	13.390	959.911	718.752
157.819	13.531	959.204	718.768
158.833	13.607	958.409	718.439
159.848	13.572	957.171	717.296
160.862	13.572	956.445	716.687
161.877	13.563	955.577	715.937
162.892	13.616	954.449	715.258
163.906	13.629	953.846	714.798
164.921	13.628	953.326	714.342
165.935	13.572	951.940	713.000
166.950	13.620	951.121	712.529
167.964	13.686	950.458	712.251
168.979	13.529	949.782	711.009
169.994	13.512	948.914	710.222
171.008	13.608	948.417	710.200
172.023	13.776	947.324	710.038
173.037	13.867	946.309	709.603
174.052	13.730	946.287	708.940
175.067	13.709	945.574	708.252
176.081	13.596	945.025	707.294
177.096	13.523	944.417	706.464
178.110	13.708	943.840	706.759
179.125	13.759	943.058	706.330
180.140	13.707	942.712	705.787
181.154	13.740	942.237	705.507
182.169	13.877	941.339	705.354
183.183	13.778	940.983	704.608
184.198	13.821	940.194	704.133
185.213	13.875	939.404	703.710
186.227	13.825	938.649	702.871
187.242	13.879	937.973	702.529
188.256	13.902	937.246	702.020
189.271	13.957	936.255	701.450
190.286	13.884	935.615	700.601
191.300	13.684	935.305	699.462
192.315	13.781	934.648	699.317
193.329	13.745	933.846	698.502
194.344	13.685	933.815	698.166
195.359	13.822	932.715	697.857
196.373	13.838	932.129	697.427
197.388	14.013	931.465	697.602
198.402	14.022	931.320	697.468
199.417	14.019	930.241	696.586
200.432	14.227	929.563	696.889
201.446	14.176	929.121	696.281
202.461	14.280	928.631	696.290
203.475	14.172	928.156	695.419
204.490	14.130	927.076	694.374
205.504	14.150	926.614	694.048
206.519	14.068	926.037	693.211
207.534	14.122	925.426	692.921
208.548	14.057	925.169	692.396
209.563	14.155	924.054	691.909
210.577	14.116	923.310	691.127
211.592	14.317	922.427	691.237
212.607	14.412	921.737	691.054
213.621	14.161	921.591	689.846
214.636	14.210	920.303	689.021
215.650	14.254	919.730	688.713
216.665	14.315	918.936	688.309
217.680	14.373	917.729	687.585
218.694	14.481	917.560	687.841
219.709	14.333	917.169	686.880
220.723	14.400	916.787	686.809
221.738	14.441	915.557	685.994
222.753	14.451	915.014	685.566
223.767	14.586	914.053	685.342
224.782	14.526	913.683	684.755
225.796	14.522	913.524	684.561
226.811	14.557	912.691	684.022
227.826	14.443	912.070	683.025
228.840	14.538	911.249	682.742
229.855	14.476	910.586	681.930
230.869	14.429	909.585	680.925
231.884	14.524	908.691	680.587
232.899	14.534	908.095	680.120
233.913	14.553	907.434	679.641
234.928	14.390	907.134	678.692
235.942	14.590	906.394	678.894
236.957	14.482	906.231	678.273
237.972	14.461	905.541	677.609
238.986	14.512	904.787	677.192
240.001	14.612	903.948	676.909
241.015	14.680	903.325	676.660
242.030	14.572	902.716	675.705
243.045	14.660	902.010	675.473
244.059	14.540	901.517	674.559
245.074	14.565	900.871	674.118
246.088	14.536	900.525	673.683
247.103	14.704	899.505	673.539
248.117	14.761	898.939	673.286
249.132	14.808	898.533	673.110
250.147	14.798	897.742	672.419
251.161	14.911	897.335	672.507
252.176	14.861	896.378	671.529
253.190	14.910	895.566	671.059
254.205	14.909	895.220	670.734
255.220	14.828	894.474	669.792
256.234	15.058	893.669	670.051
257.249	15.004	893.138	669.378
258.263	14.977	891.950	668.320
259.278	15.015	891.755	668.268
260.293	15.081	891.186	668.046
261.307	15.107	890.491	667.569
262.322	15.063	889.713	666.752
263.336	15.184	888.542	666.297
264.351	15.232	887.911	665.955
265.366	15.212	887.660	665.626
266.380	15.143	887.179	664.936
267.395	15.184	886.906	664.832
268.409	15.213	885.977	664.193
269.424	15.178	885.090	663.333
270.439	15.195	884.190	662.666
271.453	15.056	883.853	661.805
272.468	15.112	883.420	661.642
273.482	15.288	882.151	661.328
274.497	15.256	881.724	660.823
275.512	15.294	881.167	660.499
276.526	15.287	881.029	660.306
277.541	15.369	880.335	660.051
278.555	15.215	880.020	659.151
279.570	15.277	879.211	658.730
280.585	15.317	878.408	658.227
281.599	15.462	877.372	657.961
282.614	15.346	877.036	657.199
283.628	15.397	876.176	656.697
284.643	15.447	875.657	656.441
285.657	15.365	875.138	655.676
286.672	15.473	874.299	655.411
287.687	15.373	873.801	654.587
288.701	15.499	873.343	654.681
289.716	15.485	872.732	654.110
290.730	15.516	872.260	653.816
291.745	15.533	871.780	653.466
292.760	15.505	870.958	652.682
293.774	15.535	870.354	652.291
294.789	15.670	869.745	652.301
295.803	15.527	868.725	650.924
296.818	15.551	868.225	650.583
297.833	15.561	867.283	649.859
298.847	15.574	866.753	649.456
299.862	15.505	866.518	648.953
300.876	15.630	865.702	648.767
301.891	15.719	864.898	648.453
302.906	15.737	864.739	648.344
303.920	15.769	863.714	647.641
304.935	15.832	863.530	647.690
305.949	15.892	862.802	647.315
306.964	15.712	862.609	646.420
307.979	15.841	861.666	646.155
308.993	15.754	861.533	645.661
310.008	15.832	860.430	645.077
311.022	15.868	860.110	644.919
312.037	15.883	859.043	644.117
313.052	15.853	858.836	643.791
314.066	15.907	857.929	643.261
315.081	15.755	857.526	642.322
316.095	15.873	857.002	642.321
317.110	15.776	856.603	641.595
318.125	15.961	855.782	641.630
319.139	15.905	855.747	641.332
320.154	15.888	855.336	640.903
321.168	15.871	854.804	640.386
322.183	15.927	854.190	640.082
323.197	16.165	853.206	640.190
324.212	16.041	853.273	639.713
325.227	15.958	852.440	638.718
326.241	15.913	851.965	638.134
327.256	15.948	851.170	637.614
328.270	15.816	851.055	636.974
329.285	15.912	850.060	636.532
330.300	15.994	849.449	636.328
331.314	15.894	849.203	635.713
332.329	16.006	848.442	635.509
333.343	16.178	847.740	635.576
334.358	16.162	847.362	635.175
335.373	16.052	846.818	634.297
336.387	16.076	847.087	634.532
337.402	16.067	846.540	634.033
338.416	16.117	846.556	634.176
339.431	16.311	845.459	634.026
340.446	16.095	845.642	633.299
341.460	16.374	845.152	633.920
342.475	16.230	844.856	633.103
343.489	16.356	844.037	632.907
344.504	16.395	843.604	632.670
345.519	16.479	843.234	632.652
346.533	16.420	842.716	631.986
347.548	16.282	842.516	631.263
348.562	16.268	841.536	630.422
349.577	16.407	840.949	630.443
350.592	16.383	840.682	630.100
351.606	16.412	839.572	629.322
352.621	16.360	839.041	628.674
353.635	16.495	838.111	628.424
354.650	16.385	837.860	627.770
355.665	16.506	837.156	627.637
356.679	16.631	836.438	627.504
357.694	16.543	835.496	626.416
358.708	16.558	835.233	626.219
359.723	16.736	834.757	626.467
360.738	16.452	834.319	625.033
361.752	16.579	833.361	624.729
362.767	16.526	833.034	624.232
363.781	16.680	832.167	624.094
364.796	16.669	831.724	623.666
365.810	16.771	831.617	623.906
366.825	16.802	831.082	623.563
367.840	16.794	830.635	623.143
368.854	16.769	830.181	622.659
369.869	16.805	829.926	622.544
370.883	16.762	829.642	622.117
371.898	16.828	829.194	621.967
372.913	16.796	828.961	621.621
373.927	16.787	828.501	621.189
374.942	16.859	827.873	620.925
375.956	16.830	827.736	620.661
376.971	16.910	826.936	620.301
377.986	16.962	826.252	619.921
379.000	17.100	825.828	620.054
380.015	17.080	825.193	619.450
381.029	16.955	824.649	618.529
382.044	16.996	824.258	618.330
383.059	17.285	823.312	618.619
384.073	17.252	822.731	618.008
385.088	16.892	822.565	616.519
386.102	16.951	822.149	616.366
387.117	16.929	821.664	615.868
388.132	17.055	821.130	615.872
389.146	16.988	820.215	614.889
390.161	17.128	819.876	615.088
391.175	17.150	819.438	614.785
392.190	17.022	818.719	613.728
393.205	16.993	818.467	613.379
394.219	17.025	818.201	613.240
395.234	17.066	817.547	612.845
396.248	17.156	816.962	612.678
397.263	17.051	816.757	612.089
398.278	16.892	816.739	611.449
399.292	17.084	816.145	611.642
400.307	17.090	815.602	611.200
401.321	17.130	814.995	610.838
402.336	17.108	814.593	610.402
403.350	17.116	814.074	609.988
404.365	17.180	813.700	609.885
405.380	17.344	812.814	609.754
406.394	17.199	812.536	608.970
407.409	17.412	812.242	609.459
408.423	17.421	811.989	609.248
409.438	17.420	811.690	608.968
410.453	17.477	810.903	608.525
411.467	17.574	810.271	608.344
412.482	17.488	809.959	607.749
413.496	17.516	809.756	607.643
414.511	17.479	809.290	607.108
415.526	17.730	809.020	607.745
416.540	17.577	808.412	606.690
417.555	17.664	807.887	606.553
418.569	17.616	807.383	605.949
419.584	17.689	806.935	605.821
420.599	17.683	806.660	605.537
421.613	113.458	1298.162	1486.993
422.628	97.984	1369.718	1487.074
