DTS Sentinel unit serial number:	SN413079Multiplexer serial number:	ORYXHardware model number:	OX4-SRSoftware version number:	ORYX F/W v4.00 Oryx Data Collector v3.7.2.0data status	okinstallation	princeton_trtdifferential loss correction	single-endedforward channel	channel 1reverse channel	N/Adate	2019/09/13time	06:58:35forward acquisition time	60.00reverse acquisition time	0.00gamma	496.2192k internal	0.2336k external	0.2336temperature offset calibration	1.0156default loss term (dB/km)	0.3790temperature slope calibration	1.0000multiplexer offset coefficient	1.0000multiplexer slope coefficient	1.0000fibre end	0.00T internal ref (°C)	26.00T ext. ref 1 (°C)	4.11T ext. ref 2 (°C)	20.91length (m)	temperature (°C)	Stokes	anti-Stokes-747.200	-59.330	0.176	-0.076
-746.185	-87.629	0.244	0.074
-745.171	22.061	-0.270	-0.221
-744.156	-137.393	-0.181	0.021
-743.142	-51.420	0.328	-0.154
-742.127	800.000	-0.125	0.373
-741.112	296.968	0.072	0.133
-740.098	95.527	-0.166	0.191
-739.083	-200.000	0.012	-0.379
-738.069	-62.799	0.289	0.120
-737.054	60.585	0.095	0.095
-736.039	-200.000	0.002	0.264
-735.025	162.376	0.045	0.063
-734.010	-12.070	-0.302	0.198
-732.996	571.936	-0.179	0.437
-731.981	-200.000	0.006	0.373
-730.966	38.820	-0.201	0.180
-729.952	193.473	-0.183	0.279
-728.937	91.321	-0.108	-0.122
-727.923	398.327	-0.046	0.097
-726.908	-37.722	-0.218	0.117
-725.894	800.000	0.079	0.224
-724.879	-144.417	-0.127	-0.012
-723.864	-44.079	-0.307	0.155
-722.850	-133.721	0.352	0.044
-721.835	390.957	-0.149	-0.310
-720.821	37.251	-0.185	-0.165
-719.806	34.142	0.195	-0.171
-718.791	195.092	-0.025	-0.038
-717.777	13.275	-0.258	0.201
-716.762	210.862	0.027	0.043
-715.748	34.814	-0.157	-0.138
-714.733	174.082	-0.173	0.250
-713.718	693.709	0.021	0.056
-712.704	-107.502	0.075	0.016
-711.689	159.867	0.128	-0.179
-710.675	751.414	0.042	0.113
-709.660	-200.000	-0.024	-0.157
-708.645	-200.000	-0.003	-0.262
-707.631	567.890	0.073	0.178
-706.616	467.291	-0.122	0.274
-705.602	-200.000	-0.027	-0.151
-704.587	-200.000	0.055	-0.256
-703.572	-179.628	-0.106	0.002
-702.558	-59.741	0.160	-0.069
-701.543	-76.115	-0.159	-0.056
-700.529	51.137	-0.126	-0.120
-699.514	472.805	-0.141	-0.319
-698.499	35.361	-0.201	0.177
-697.485	98.332	0.101	-0.116
-696.470	259.404	-0.167	0.289
-695.456	26.441	-0.172	-0.144
-694.441	-200.000	0.013	-0.214
-693.426	354.034	0.244	0.487
-692.412	-135.996	0.110	-0.013
-691.397	800.000	0.072	-0.207
-690.383	800.000	0.070	0.281
-689.368	678.213	-0.051	0.133
-688.354	-200.000	-0.062	-0.440
-687.339	-28.277	-0.215	-0.124
-686.324	54.925	0.180	0.174
-685.310	-118.712	0.083	-0.015
-684.295	162.837	-0.084	-0.119
-683.281	205.361	0.065	0.101
-682.266	573.471	0.087	0.213
-681.251	31.522	-0.055	0.047
-680.237	34.211	0.300	0.262
-679.222	-200.000	0.002	0.044
-678.208	800.000	-0.006	0.020
-677.193	127.526	-0.208	-0.265
-676.178	-52.440	-0.241	0.112
-675.164	-109.624	0.182	-0.038
-674.149	84.414	0.164	0.180
-673.135	-104.884	-0.361	0.083
-672.120	-200.000	-0.020	0.293
-671.105	-88.062	0.146	-0.044
-670.091	-200.000	-0.000	-0.064
-669.076	75.093	0.102	-0.108
-668.062	63.021	-0.084	0.085
-667.047	22.023	0.090	0.073
-666.032	116.624	0.050	-0.061
-665.018	-79.058	-0.303	-0.103
-664.003	800.000	-0.061	0.187
-662.989	229.123	0.160	0.261
-661.974	209.062	0.031	-0.048
-660.959	-78.664	-0.308	0.105
-659.945	800.000	0.086	-0.291
-658.930	132.729	0.042	-0.055
-657.916	-200.000	0.037	0.237
-656.901	234.654	0.105	-0.173
-655.886	29.850	-0.275	-0.234
-654.872	-87.342	-0.301	-0.091
-653.857	-119.295	0.215	0.037
-652.843	-200.000	-0.021	-0.369
-651.828	-200.000	-0.016	-0.290
-650.814	-200.000	0.019	-0.165
-649.799	-146.586	0.336	0.029
-648.784	-46.279	-0.185	-0.091
-647.770	55.800	0.185	0.179
-646.755	-177.128	0.128	0.003
-645.741	19.423	0.087	0.070
-644.726	225.094	0.125	0.202
-643.711	29.445	0.264	0.225
-642.697	-58.483	0.212	-0.092
-641.682	37.468	-0.114	0.101
-640.668	-200.000	0.053	-0.420
-639.653	-185.911	-0.216	0.003
-638.638	68.589	-0.107	-0.110
-637.624	-125.062	0.145	0.022
-636.609	5.877	-0.058	-0.043
-635.595	-135.749	-0.318	0.038
-634.580	211.609	-0.081	-0.127
-633.565	611.606	-0.105	0.264
-632.551	-62.725	-0.215	-0.089
-631.536	82.839	0.086	-0.094
-630.522	38.373	-0.151	-0.135
-629.507	-41.655	-0.109	0.056
-628.492	540.400	-0.039	0.094
-627.478	54.745	-0.207	0.199
-626.463	527.411	0.089	-0.211
-625.449	11.584	0.171	0.131
-624.434	164.073	0.089	0.126
-623.419	-60.366	-0.335	-0.142
-622.405	-98.760	0.272	0.069
-621.390	329.619	0.166	-0.319
-620.376	-162.019	0.137	0.007
-619.361	143.069	0.131	-0.173
-618.346	90.777	0.363	-0.406
-617.332	1.597	0.129	-0.093
-616.317	189.589	-0.015	-0.022
-615.303	-6.566	0.080	0.055
-614.288	-200.000	0.013	0.239
-613.273	-170.262	0.496	0.017
-612.259	-28.054	0.142	0.082
-611.244	229.901	-0.195	-0.319
-610.230	58.688	-0.289	-0.283
-609.215	195.396	0.165	0.251
-608.201	-200.000	-0.005	0.066
-607.186	-200.000	-0.020	-0.184
-606.171	800.000	0.031	0.090
-605.157	-200.000	-0.002	-0.137
-604.142	-16.373	0.171	-0.109
-603.128	54.610	-0.331	0.318
-602.113	-200.000	-0.001	-0.060
-601.098	-72.099	0.212	-0.078
-600.084	-54.864	0.112	-0.050
-599.069	-200.000	-0.060	0.367
-598.055	-82.749	0.210	-0.068
-597.040	-200.000	0.027	-0.132
-596.025	-200.000	-0.049	-0.279
-595.011	800.000	0.115	-0.344
-593.996	495.698	0.119	-0.273
-592.982	-200.000	0.060	-0.321
-591.967	398.628	-0.028	-0.059
-590.952	406.588	0.063	0.132
-589.938	199.503	-0.178	0.272
-588.923	93.075	0.183	-0.207
-587.909	86.845	-0.184	-0.203
-586.894	235.143	-0.018	-0.029
-585.879	-95.572	-0.069	0.018
-584.865	-81.505	0.263	-0.086
-583.850	-200.000	0.043	0.469
-582.836	-177.422	0.124	0.003
-581.821	227.649	-0.048	0.078
-580.806	-105.767	-0.040	-0.009
-579.792	480.949	-0.031	-0.071
-578.777	-80.848	-0.152	-0.050
-577.763	-58.030	0.066	-0.029
-576.748	800.000	-0.123	0.453
-575.733	800.000	-0.032	-0.089
-574.719	-108.239	-0.280	-0.060
-573.704	-13.824	0.098	0.063
-572.690	-52.707	0.203	0.094
-571.675	332.411	-0.141	0.271
-570.661	-200.000	0.009	0.239
-569.646	6.134	-0.218	0.161
-568.631	-64.543	-0.081	0.033
-567.617	-10.911	0.156	0.103
-566.602	121.017	-0.174	-0.216
-565.588	258.788	-0.123	0.212
-564.573	94.732	-0.195	0.222
-563.558	800.000	0.059	-0.232
-562.544	-200.000	-0.008	-0.215
-561.529	-200.000	-0.028	-0.225
-560.515	160.708	0.195	-0.271
-559.500	73.100	-0.305	0.318
-558.485	128.808	0.034	0.043
-557.471	468.047	-0.070	0.157
-556.456	-200.000	0.057	-0.282
-555.442	5.838	0.081	-0.060
-554.427	49.581	0.272	0.256
-553.412	47.246	0.113	0.105
-552.398	411.294	-0.048	0.102
-551.383	84.929	0.243	0.265
-550.369	273.137	-0.149	-0.262
-549.354	-200.000	-0.113	0.000
-548.339	291.222	0.059	-0.107
-547.325	58.783	-0.159	0.156
-546.310	800.000	-0.029	-0.113
-545.296	201.329	-0.260	-0.399
-544.281	800.000	-0.053	0.203
-543.266	195.817	-0.175	-0.265
-542.252	800.000	0.017	0.063
-541.237	286.258	0.059	0.106
-540.223	-79.372	-0.059	0.020
-539.208	78.863	0.095	-0.101
-538.193	-25.221	0.438	-0.259
-537.179	401.035	0.139	-0.290
-536.164	-200.000	-0.044	-0.205
-535.150	-37.513	0.165	-0.088
-534.135	800.000	-0.060	0.185
-533.121	800.000	0.103	0.310
-532.106	-96.868	-0.122	-0.032
-531.091	349.878	0.218	-0.428
-530.077	665.562	0.031	0.080
-529.062	-200.000	-0.016	0.118
-528.048	-200.000	-0.033	0.257
-527.033	800.000	-0.069	0.250
-526.018	7.205	-0.106	-0.078
-525.004	800.000	-0.029	0.118
-523.989	149.664	-0.024	0.032
-522.975	-120.755	-0.185	-0.031
-521.960	39.049	0.184	0.164
-520.945	-114.713	0.324	0.062
-519.931	800.000	-0.116	-0.374
-518.916	-200.000	0.047	-0.336
-517.902	322.274	-0.009	-0.018
-516.887	-142.673	-0.387	0.038
-515.872	-116.351	0.115	0.021
-514.858	36.526	0.057	0.050
-513.843	96.280	-0.141	0.161
-512.829	-112.221	-0.174	-0.035
-511.814	-109.530	0.181	0.038
-510.799	-7.071	-0.147	0.099
-509.785	51.355	-0.250	-0.236
-508.770	84.107	0.102	-0.111
-507.756	37.159	0.234	-0.206
-506.741	-11.585	-0.075	-0.049
-505.726	-110.970	0.114	-0.023
-504.712	439.983	0.050	0.110
-503.697	80.429	-0.086	0.093
-502.683	-10.884	-0.156	0.103
-501.668	800.000	0.034	0.134
-500.653	-102.422	-0.165	-0.039
-499.639	-86.526	-0.309	0.094
-498.624	-117.487	0.400	0.072
-497.610	673.507	0.079	0.203
-496.595	106.953	-0.211	-0.249
-495.581	282.635	0.177	-0.316
-494.566	-4.283	-0.209	0.144
-493.551	-160.638	0.159	0.008
-492.537	154.382	0.116	-0.158
-491.522	-111.472	-0.478	-0.097
-490.508	-200.000	-0.014	0.153
-489.493	800.000	-0.035	0.143
-488.478	117.742	-0.190	-0.232
-487.464	-200.000	-0.060	-0.439
-486.449	-200.000	0.013	-0.167
-485.435	-95.359	0.216	-0.058
-484.420	714.106	-0.040	-0.106
-483.405	-120.246	0.047	-0.008
-482.391	11.362	0.241	-0.183
-481.376	-200.000	0.044	-0.307
-480.362	800.000	-0.119	0.348
-479.347	140.848	0.232	0.304
-478.332	255.951	0.109	-0.185
-477.318	-84.780	-0.333	-0.104
-476.303	-200.000	-0.053	-0.245
-475.289	299.433	-0.136	-0.249
-474.274	-200.000	-0.015	0.108
-473.259	-200.000	0.024	0.268
-472.245	800.000	0.085	-0.240
-471.230	46.301	0.204	0.188
-470.216	21.870	-0.299	0.242
-469.201	75.634	-0.130	-0.137
-468.186	800.000	0.013	-0.036
-467.172	-48.098	0.279	-0.134
-466.157	-150.408	-0.129	-0.010
-465.143	-44.942	0.270	0.134
-464.128	255.731	0.055	0.093
-463.113	-200.000	-0.054	-0.240
-462.099	-49.834	0.109	-0.051
-461.084	-128.024	-0.161	-0.023
-460.070	31.454	-0.055	0.047
-459.055	-106.813	0.245	0.054
-458.040	651.204	0.104	0.265
-457.026	89.425	-0.165	0.183
-456.011	-36.735	0.170	-0.091
-454.997	-93.551	0.276	-0.076
-453.982	-111.041	-0.223	-0.045
-452.968	39.300	-0.104	-0.092
-451.953	797.207	0.123	-0.335
-450.938	-2.457	-0.081	0.057
-449.924	534.861	-0.108	-0.255
-448.909	105.783	0.061	-0.071
-447.895	800.000	-0.074	-0.233
-446.880	-62.418	-0.246	0.102
-445.865	157.379	-0.136	0.187
-444.851	44.043	0.237	-0.215
-443.836	-200.000	-0.010	-0.311
-442.822	-5.343	0.031	-0.021
-441.807	-114.736	-0.376	0.071
-440.792	-200.000	-0.012	0.126
-439.778	-200.000	0.005	-0.178
-438.763	89.277	-0.039	0.043
-437.749	800.000	0.081	0.234
-436.734	-35.079	0.264	0.143
-435.719	64.395	-0.109	-0.109
-434.705	492.241	0.076	0.173
-433.690	-200.000	-0.060	0.421
-432.676	755.896	0.161	0.432
-431.661	-157.951	-0.445	0.026
-430.646	800.000	0.059	0.209
-429.632	119.181	-0.054	0.066
-428.617	-200.000	0.000	0.158
-427.603	-200.000	0.047	0.331
-426.588	-200.000	0.006	0.087
-425.573	-118.875	0.088	0.015
-424.559	54.701	-0.228	-0.218
-423.544	-61.424	-0.345	-0.144
-422.530	49.441	-0.239	-0.223
-421.515	-110.620	-0.369	0.076
-420.500	257.126	-0.072	-0.123
-419.486	187.909	-0.198	-0.293
-418.471	-200.000	-0.008	-0.290
-417.457	800.000	0.092	0.365
-416.442	277.205	-0.128	-0.226
-415.428	800.000	0.008	-0.033
-414.413	-34.521	0.271	0.147
-413.398	-200.000	0.015	0.116
-412.384	159.319	-0.182	0.250
-411.369	318.124	-0.184	-0.346
-410.355	-124.496	-0.339	0.052
-409.340	95.146	0.098	0.111
-408.325	-129.394	0.102	0.014
-407.311	232.422	-0.080	-0.130
-406.296	247.768	0.114	0.191
-405.282	11.117	0.158	-0.120
-404.267	-20.445	-0.172	0.105
-403.252	194.180	0.189	0.283
-402.238	47.507	-0.311	0.288
-401.223	800.000	0.019	-0.082
-400.209	-135.978	-0.087	0.010
-399.194	-96.070	-0.163	-0.043
-398.179	-70.838	0.208	0.078
-397.165	411.769	0.031	-0.066
-396.150	49.293	0.368	0.343
-395.136	162.100	-0.149	0.207
-394.121	36.765	-0.358	-0.313
-393.106	100.092	-0.193	0.221
-392.092	86.844	-0.096	0.105
-391.077	718.328	0.017	0.046
-390.063	-36.841	0.141	0.075
-389.048	60.971	0.206	-0.203
-388.033	-200.000	0.043	-0.281
-387.019	523.404	-0.041	-0.096
-386.004	8.567	-0.160	-0.119
-384.990	173.023	-0.200	0.286
-383.975	645.645	-0.115	0.291
-382.960	65.568	-0.153	-0.153
-381.946	60.662	-0.163	-0.160
-380.931	-50.974	-0.230	0.107
-379.917	174.872	0.082	0.118
-378.902	-65.395	-0.073	0.029
-377.888	230.353	-0.082	0.132
-376.873	135.798	-0.113	0.146
-375.858	522.173	0.073	0.169
-374.844	-48.210	-0.222	0.106
-373.829	800.000	0.041	0.135
-372.815	-90.500	0.240	0.069
-371.800	118.270	0.261	-0.319
-370.785	-200.000	-0.003	-0.196
-369.771	61.040	0.249	-0.245
-368.756	-62.865	-0.248	-0.101
-367.742	-166.345	-0.348	-0.014
-366.727	344.807	0.036	-0.071
-365.712	37.068	-0.219	0.192
-364.698	-75.212	-0.019	-0.007
-363.683	-3.134	-0.168	0.116
-362.669	-106.934	0.153	-0.033
-361.654	-200.000	0.000	-0.483
-360.639	-200.000	0.100	-0.519
-359.625	-100.369	0.283	0.069
-358.610	-108.133	0.397	-0.085
-357.596	30.303	0.320	-0.270
-356.581	408.168	-0.081	0.169
-355.566	185.005	0.193	0.283
-354.552	-26.394	0.197	-0.114
-353.537	800.000	0.043	0.148
-352.523	-200.000	0.074	0.000
-351.508	204.179	-0.268	0.411
-350.493	800.000	0.026	0.102
-349.479	-37.572	0.047	0.025
-348.464	-155.712	0.336	-0.021
-347.450	-200.000	-0.004	0.168
-346.435	311.688	-0.064	-0.119
-345.420	-107.226	-0.199	0.043
-344.406	-200.000	0.001	-0.152
-343.391	-200.000	-0.013	-0.068
-342.377	307.678	0.124	0.229
-341.362	585.025	-0.167	-0.406
-340.348	-4.704	0.007	0.005
-339.333	68.722	0.097	-0.098
-338.318	-200.000	0.018	0.142
-337.304	-200.000	0.000	-0.194
-336.289	136.923	-0.226	-0.292
-335.275	181.750	-0.153	0.222
-334.260	-182.244	0.383	0.007
-333.245	-44.454	-0.151	-0.075
-332.231	-200.000	-0.026	0.323
-331.216	-24.551	0.316	0.186
-330.202	-200.000	-0.036	-0.254
-329.187	-45.152	-0.153	-0.075
-328.172	135.683	0.257	0.330
-327.158	23.453	0.160	0.130
-326.143	-200.000	0.024	-0.401
-325.129	800.000	0.046	0.169
-324.114	-35.759	0.099	0.053
-323.099	-200.000	-0.031	0.328
-322.085	-139.635	-0.143	-0.015
-321.070	-78.636	-0.042	0.014
-320.056	64.122	0.069	-0.069
-319.041	-122.461	0.061	0.010
-318.026	56.651	0.259	0.249
-317.012	-200.000	-0.014	-0.136
-315.997	800.000	-0.026	-0.080
-314.983	800.000	-0.060	-0.164
-313.968	-60.470	0.129	0.054
-312.953	-106.143	-0.262	0.058
-311.939	216.450	0.062	0.097
-310.924	-71.885	-0.240	-0.088
-309.910	463.839	0.167	-0.369
-308.895	100.813	0.160	0.184
-307.880	618.586	-0.020	0.051
-306.866	-200.000	0.019	-0.169
-305.851	26.912	0.117	-0.097
-304.837	283.785	0.228	-0.404
-303.822	569.500	-0.072	0.173
-302.807	-78.719	0.306	0.103
-301.793	114.938	0.114	0.138
-300.778	-200.000	-0.006	0.339
-299.764	7.067	-0.345	0.254
-298.749	800.000	0.043	0.128
-297.735	60.092	0.248	-0.242
-296.720	800.000	0.060	0.202
-295.705	-130.126	0.299	-0.040
-294.691	-66.537	-0.209	0.082
-293.676	-200.000	-0.054	-0.242
-292.662	-7.774	-0.322	0.214
-291.647	-200.000	0.007	-0.233
-290.632	668.047	-0.085	0.216
-289.618	105.504	-0.175	-0.204
-288.603	146.851	0.144	0.192
-287.589	800.000	0.056	-0.218
-286.574	-57.448	-0.407	-0.176
-285.559	192.241	-0.140	-0.209
-284.545	800.000	0.090	0.255
-283.530	800.000	0.123	0.467
-282.516	346.426	0.046	0.089
-281.501	418.600	-0.094	0.198
-280.486	-60.807	0.278	0.116
-279.472	800.000	-0.037	0.157
-278.457	800.000	0.035	-0.108
-277.443	38.354	0.228	0.201
-276.428	26.990	0.037	-0.030
-275.413	-200.000	-0.010	-0.095
-274.399	-200.000	0.024	0.120
-273.384	-115.279	-0.313	-0.058
-272.370	-200.000	0.010	-0.049
-271.355	14.539	-0.019	0.014
-270.340	-89.390	-0.216	0.063
-269.326	-200.000	0.008	0.264
-268.311	-30.544	-0.191	0.107
-267.297	154.259	0.308	0.417
-266.282	-109.811	0.202	0.042
-265.267	690.897	-0.036	0.093
-264.253	32.742	-0.097	-0.083
-263.238	135.128	0.147	0.188
-262.224	-200.000	0.011	0.081
-261.209	-77.078	0.239	-0.082
-260.195	800.000	-0.025	0.093
-259.180	-82.274	0.168	0.054
-258.165	-92.913	-0.256	0.070
-257.151	199.014	0.034	0.051
-256.136	-2.722	-0.241	-0.166
-255.122	-200.000	0.000	-0.082
-254.107	92.796	-0.191	0.212
-253.092	55.111	0.071	-0.067
-252.078	451.580	-0.125	-0.271
-251.063	38.046	-0.213	0.186
-250.049	346.045	-0.137	0.266
-249.034	-200.000	0.007	0.379
-248.019	22.105	0.156	-0.125
-247.005	91.825	-0.019	-0.021
-245.990	-12.687	-0.023	0.015
-244.976	-200.000	-0.014	-0.158
-243.961	113.090	0.283	-0.337
-242.946	143.260	-0.225	-0.296
-241.932	98.627	0.126	-0.143
-240.917	800.000	0.091	0.275
-239.903	120.524	-0.246	-0.301
-238.888	-66.407	0.301	0.118
-237.873	356.106	-0.033	-0.064
-236.859	-55.577	0.260	0.115
-235.844	19.218	-0.180	-0.142
-234.830	-130.779	0.223	-0.029
-233.815	-55.717	0.110	0.049
-232.800	780.880	-0.114	-0.307
-231.786	233.710	-0.116	-0.189
-230.771	-200.000	-0.001	0.206
-229.757	-3.250	0.321	-0.220
-228.742	168.037	0.131	-0.183
-227.727	-68.331	-0.433	-0.165
-226.713	-70.623	0.085	0.032
-225.698	-200.000	-0.025	-0.147
-224.684	-200.000	0.008	0.071
-223.669	-98.673	-0.292	0.073
-222.655	-29.112	-0.322	0.182
-221.640	-193.584	0.219	-0.002
-220.625	-148.473	0.196	-0.016
-219.611	383.336	-0.209	0.422
-218.596	-133.835	0.253	0.031
-217.582	93.463	0.159	-0.177
-216.567	-26.033	0.163	-0.094
-215.552	126.430	0.013	0.016
-214.538	28.454	0.368	-0.306
-213.523	-35.079	0.084	-0.045
-212.509	-34.715	-0.399	0.215
-211.494	-2.673	-0.238	0.164
-210.479	-7.174	0.085	-0.056
-209.465	306.485	-0.183	0.335
-208.450	92.608	-0.204	0.227
-207.436	800.000	0.044	-0.136
-206.421	237.565	0.134	0.218
-205.406	-104.170	0.348	0.080
-204.392	-84.573	-0.105	0.032
-203.377	-200.000	-0.004	-0.365
-202.363	-146.179	0.191	-0.017
-201.348	-19.909	-0.028	0.017
-200.333	394.513	0.082	-0.168
-199.319	800.000	-0.042	0.178
-198.304	74.011	-0.206	-0.212
-197.290	-200.000	-0.012	0.131
-196.275	-97.198	-0.225	0.058
-195.260	800.000	0.018	-0.065
-194.246	611.929	0.090	0.221
-193.231	22.532	-0.211	-0.170
-192.217	-200.000	0.003	0.337
-191.202	317.871	0.026	-0.048
-190.187	-74.868	-0.092	-0.032
-189.173	-87.068	0.120	-0.036
-188.158	-111.694	-0.245	-0.049
-187.144	-120.491	0.337	-0.056
-186.129	-200.000	-0.003	0.448
-185.114	350.974	0.118	0.229
-184.100	-111.254	0.089	0.018
-183.085	-133.186	0.137	0.017
-182.071	-89.841	0.408	0.117
-181.056	-200.000	0.034	0.170
-180.042	-200.000	0.014	-0.078
-179.027	158.513	-0.187	-0.255
-178.012	4.983	0.120	0.087
-176.998	-22.824	0.181	0.107
-175.983	304.889	-0.079	0.145
-174.969	-22.662	-0.194	-0.115
-173.954	-200.000	-0.009	0.043
-172.939	-200.000	-0.006	-0.537
-171.925	-79.853	-0.408	0.135
-170.910	758.712	-0.130	-0.345
-169.896	53.156	0.181	-0.171
-168.881	171.359	-0.199	0.281
-167.866	339.859	0.126	-0.241
-166.852	800.000	-0.013	-0.044
-165.837	36.306	-0.105	-0.091
-164.823	-44.492	0.277	-0.136
-163.808	-200.000	0.055	0.261
-162.793	-89.473	0.125	-0.036
-161.779	-139.265	0.053	-0.006
-160.764	-200.000	-0.033	-0.309
-159.750	-22.329	-0.304	-0.181
-158.735	-134.916	-0.069	-0.008
-157.720	-120.704	0.063	0.010
-156.706	219.016	0.120	0.189
-155.691	99.191	-0.111	0.126
-154.677	-60.879	0.131	-0.055
-153.662	-92.052	-0.172	-0.048
-152.647	94.133	0.090	-0.100
-151.633	-200.000	-0.013	-0.086
-150.618	-58.038	-0.214	0.092
-149.604	725.776	0.129	-0.338
-148.589	312.291	0.060	-0.110
-147.574	755.009	0.029	-0.077
-146.560	90.948	-0.170	-0.187
-145.545	-200.000	0.018	0.093
-144.531	421.114	-0.084	0.177
-143.516	-186.493	0.142	-0.002
-142.502	167.410	0.091	-0.126
-141.487	108.989	0.206	0.242
-140.472	420.460	-0.138	-0.290
-139.458	29.954	-0.117	-0.098
-138.443	-179.499	0.412	0.009
-137.429	-91.157	0.087	-0.025
-136.414	-75.008	-0.178	-0.063
-135.399	-81.497	0.398	-0.128
-134.385	-27.788	-0.268	0.153
-133.370	148.222	-0.036	0.048
-132.356	-200.000	0.047	-0.279
-131.341	-112.052	-0.114	0.023
-130.326	-64.866	0.113	-0.045
-129.312	83.848	0.053	-0.057
-128.297	-200.000	-0.057	0.438
-127.283	800.000	-0.037	0.109
-126.268	-200.000	0.012	-0.174
-125.253	-92.826	-0.089	0.024
-124.239	-200.000	-0.009	-0.192
-123.224	-116.966	0.407	0.073
-122.210	447.241	0.072	-0.156
-121.195	-0.653	0.118	-0.082
-120.180	-105.810	-0.135	0.030
-119.166	771.794	0.135	0.359
-118.151	-145.079	0.262	0.023
-117.137	96.289	0.247	0.277
-116.122	65.148	0.148	-0.146
-115.107	5.984	0.125	-0.091
-114.093	-102.694	0.164	-0.038
-113.078	800.000	0.152	-0.423
-112.064	-96.415	0.384	-0.100
-111.049	-126.533	-0.107	-0.016
-110.034	-8.229	0.079	0.052
-109.020	-200.000	0.006	0.187
-108.005	800.000	0.017	0.056
-106.991	-122.424	-0.345	-0.055
-105.976	-91.239	0.316	0.089
-104.962	-151.538	-0.128	-0.009
-103.947	2.389	0.138	-0.098
-102.932	-113.683	-0.140	0.027
-101.918	-103.871	0.117	0.027
-100.903	-82.837	-0.092	-0.029
-99.889	-93.808	0.108	0.029
-98.874	795.443	-0.114	0.307
-97.859	-88.562	0.176	-0.051
-96.845	-87.066	-0.102	-0.030
-95.830	-19.314	-0.344	-0.209
-94.816	-90.154	0.453	-0.129
-93.801	60.238	-0.091	0.089
-92.786	93.209	0.095	0.105
-91.772	-30.814	0.221	0.122
-90.757	800.000	-0.036	0.148
-89.743	704.284	-0.046	0.120
-88.728	800.000	0.090	-0.353
-87.713	607.424	0.099	-0.241
-86.699	-3.329	-0.242	-0.165
-85.684	-134.633	0.354	-0.042
-84.670	300.385	0.063	0.114
-83.655	59.536	0.167	0.161
-82.640	-119.054	0.267	0.046
-81.626	-106.982	-0.046	-0.010
-80.611	-200.000	0.087	-0.500
-79.597	240.550	-0.022	-0.037
-78.582	-95.153	-0.200	-0.053
-77.567	-132.302	-0.103	0.013
-76.553	519.527	0.147	0.336
-75.538	325.977	0.231	0.433
-74.524	433.363	-0.121	0.258
-73.509	-122.965	-0.375	-0.059
-72.494	-85.881	0.242	-0.073
-71.480	-72.298	0.376	0.136
-70.465	91.917	0.273	0.300
-69.451	-200.000	0.018	-0.236
-68.436	-165.980	0.343	-0.014
-67.422	12.221	0.329	0.247
-66.407	-147.833	0.157	0.013
-65.392	-64.113	-0.119	-0.048
-64.378	-95.599	0.275	-0.072
-63.363	800.000	0.079	-0.324
-62.349	226.769	-0.083	-0.132
-61.334	80.868	-1.153	-1.216
-60.319	40.984	0.529	0.467
-59.305	672.504	-0.472	-1.196
-58.290	301.842	0.612	1.106
-57.276	779.632	0.856	2.288
-56.261	-200.000	118.639	643.703
-55.246	473.911	1561.273	3442.048
-54.232	173.204	2726.401	3842.102
-53.217	104.359	2155.310	2479.837
-52.203	37.662	1587.312	1377.393
-51.188	29.438	1330.417	1105.407
-50.173	26.443	1292.620	1056.494
-49.159	51.936	1352.567	1258.771
-48.144	50.713	1365.096	1263.079
-47.130	29.432	1318.534	1095.322
-46.115	26.183	1300.678	1061.385
-45.100	25.885	1295.647	1055.488
-44.086	25.784	1293.168	1052.841
-43.071	25.801	1290.733	1050.910
-42.057	25.741	1289.205	1049.280
-41.042	25.884	1286.688	1048.020
-40.027	25.912	1285.613	1047.267
-39.013	25.881	1283.693	1045.477
-37.998	25.919	1281.594	1043.947
-36.984	25.910	1280.451	1042.925
-35.969	26.009	1278.328	1041.725
-34.954	26.114	1276.161	1040.522
-33.940	26.035	1275.005	1039.084
-32.925	26.128	1273.594	1038.427
-31.911	26.083	1271.776	1036.648
-30.896	26.014	1271.036	1035.607
-29.881	26.089	1269.589	1034.818
-28.867	26.131	1268.280	1033.949
-27.852	26.097	1266.658	1032.393
-26.838	26.204	1265.012	1031.621
-25.823	26.032	1264.160	1029.902
-24.809	26.096	1262.871	1029.174
-23.794	25.973	1261.830	1027.588
-22.779	26.116	1259.816	1026.718
-21.765	26.019	1258.890	1025.370
-20.750	25.972	1257.774	1024.152
-19.736	26.045	1255.840	1022.953
-18.721	26.005	1254.936	1021.948
-17.706	25.906	1254.014	1020.596
-16.692	25.876	1253.025	1019.580
-15.677	25.925	1252.320	1019.245
-14.663	26.023	1250.757	1018.486
-13.648	25.969	1249.471	1017.094
-12.633	25.936	1248.471	1016.055
-11.619	25.924	1247.796	1015.395
-10.604	26.031	1246.584	1014.970
-9.590	26.007	1246.062	1014.373
-8.575	25.849	1245.173	1012.723
-7.560	26.002	1244.169	1012.723
-6.546	25.959	1243.250	1011.696
-5.531	25.954	1242.395	1010.928
-4.517	25.906	1241.499	1009.893
-3.502	25.968	1240.574	1009.444
-2.487	25.993	1240.033	1009.106
-1.473	25.912	1235.533	1004.951
-0.458	24.526	1220.828	985.308
0.556	22.577	1203.895	947.705
1.571	19.065	1210.078	933.473
2.586	18.262	1225.180	940.626
3.600	18.063	1213.450	930.452
4.615	13.849	1142.868	854.602
5.629	7.265	1071.599	769.362
6.644	4.394	1054.569	743.339
7.659	4.080	1052.289	740.167
8.673	3.994	1050.815	738.650
9.688	3.993	1049.602	737.727
10.702	4.264	1047.902	737.760
11.717	8.679	1053.333	762.587
12.731	16.186	1064.249	806.437
13.746	21.129	1070.043	834.450
14.761	22.136	1070.398	839.467
15.775	21.370	1068.849	834.520
16.790	20.407	1067.202	828.570
17.804	19.770	1065.891	824.440
18.819	19.430	1065.228	822.235
19.834	19.512	1064.543	822.025
20.848	19.442	1064.170	821.329
21.863	19.281	1062.794	819.431
22.877	19.242	1062.157	818.679
23.892	19.075	1061.756	817.508
24.907	19.096	1060.710	816.731
25.921	18.998	1059.771	815.468
26.936	19.012	1058.261	814.301
27.950	19.028	1057.245	813.521
28.965	19.200	1055.805	813.156
29.980	19.413	1054.136	812.801
30.994	19.396	1053.572	812.216
32.009	19.553	1052.108	811.751
33.023	19.263	1052.092	810.303
34.038	19.175	1050.979	808.962
35.053	19.233	1049.756	808.221
36.067	19.110	1048.414	806.540
37.082	19.225	1047.923	806.631
38.096	19.320	1047.588	806.743
39.111	19.455	1046.350	806.349
40.126	19.189	1045.382	804.290
41.140	18.830	1043.963	801.457
42.155	18.590	1042.799	799.371
43.169	18.636	1041.593	798.591
44.184	18.648	1040.440	797.690
45.199	18.625	1039.876	797.083
46.213	18.802	1038.759	796.978
47.228	19.133	1038.134	797.961
48.242	19.147	1037.059	797.129
49.257	19.148	1036.009	796.257
50.271	19.245	1035.741	796.429
51.286	19.278	1034.979	795.922
52.301	19.211	1033.894	794.709
53.315	19.036	1032.943	793.101
54.330	18.764	1032.165	791.180
55.344	18.930	1030.763	790.802
56.359	18.883	1030.176	790.065
57.374	18.722	1029.429	788.682
58.388	18.715	1027.859	787.376
59.403	18.628	1027.119	786.342
60.417	18.629	1026.883	786.098
61.432	18.561	1025.986	785.032
62.447	18.483	1025.079	783.909
63.461	18.389	1024.310	782.820
64.476	18.473	1022.781	781.968
65.490	18.385	1022.441	781.237
66.505	18.436	1022.235	781.242
67.520	18.579	1020.997	780.880
68.534	18.467	1020.252	779.732
69.549	18.359	1019.808	778.833
70.563	18.321	1018.979	777.955
71.578	18.254	1017.674	776.586
72.593	18.293	1016.698	775.948
73.607	18.174	1016.121	774.904
74.622	18.271	1016.056	775.224
75.636	18.269	1015.360	774.613
76.651	18.411	1014.276	774.361
77.666	18.410	1013.999	774.077
78.680	18.331	1013.136	772.991
79.695	18.450	1012.458	772.943
80.709	18.547	1012.205	773.121
81.724	18.639	1011.867	773.209
82.739	18.887	1010.618	773.301
83.753	19.118	1010.583	774.245
84.768	19.280	1009.909	774.389
85.782	19.643	1009.110	775.334
86.797	19.379	1008.233	773.408
87.812	19.321	1006.455	771.719
88.826	19.321	1005.715	771.081
89.841	19.419	1005.078	770.965
90.855	19.536	1004.327	770.840
91.870	19.583	1003.638	770.453
92.884	19.409	1002.941	769.076
93.899	19.484	1001.773	768.448
94.914	19.471	1001.537	768.137
95.928	19.468	1000.793	767.489
96.943	19.302	999.471	765.670
97.957	19.226	998.341	764.399
98.972	19.268	998.079	764.314
99.987	19.357	996.468	763.408
101.001	19.312	995.630	762.500
102.016	19.312	994.950	761.910
103.030	19.445	994.536	762.115
104.045	19.363	993.936	761.224
105.060	19.262	992.327	759.479
106.074	18.938	991.414	757.287
107.089	18.768	989.759	755.211
108.103	18.495	989.121	753.456
109.118	18.656	988.078	753.303
110.133	18.509	987.112	751.852
111.147	18.525	986.249	751.200
112.162	18.587	985.745	751.020
113.176	18.815	985.352	751.655
114.191	18.739	984.920	750.925
115.206	18.674	984.008	749.877
116.220	18.667	982.708	748.791
117.235	18.673	982.022	748.227
118.249	18.534	981.550	747.197
119.264	18.515	980.690	746.394
120.279	18.478	979.748	745.451
121.293	18.284	978.652	743.707
122.308	18.330	977.935	743.296
123.322	18.363	976.497	742.281
124.337	18.268	975.618	741.133
125.352	18.249	974.955	740.483
126.366	18.293	973.766	739.707
127.381	18.361	972.736	739.151
128.395	18.396	971.944	738.633
129.410	18.328	971.264	737.758
130.424	18.633	970.316	738.288
131.439	18.810	969.355	738.250
132.454	18.803	969.059	737.930
133.468	18.770	968.092	736.987
134.483	18.821	967.358	736.580
135.497	18.863	966.585	736.107
136.512	18.749	966.169	735.238
137.527	18.852	964.873	734.625
138.541	18.754	964.605	733.941
139.556	18.882	964.080	734.021
140.570	19.064	963.700	734.443
141.585	19.195	962.764	734.222
142.600	19.375	961.725	734.132
143.614	19.291	961.410	733.471
144.629	19.534	960.119	733.453
145.643	19.437	959.158	732.241
146.658	19.104	958.254	730.075
147.673	19.113	956.922	729.034
148.687	18.886	955.987	727.298
149.702	18.791	955.233	726.255
150.716	18.812	954.221	725.511
151.731	18.895	953.644	725.360
152.746	18.957	953.360	725.341
153.760	18.854	952.976	724.549
154.775	18.980	952.667	724.782
155.789	19.227	951.593	724.939
156.804	19.082	950.897	723.736
157.819	19.339	950.087	724.137
158.833	19.341	949.759	723.831
159.848	19.543	948.752	723.844
160.862	19.399	947.647	722.337
161.877	18.945	946.574	719.554
162.892	18.786	945.547	718.044
163.906	18.778	944.934	717.480
164.921	18.751	943.826	716.465
165.935	19.035	942.683	716.719
166.950	18.999	942.108	716.065
167.964	18.978	941.434	715.402
168.979	18.915	940.074	714.045
169.994	18.965	939.175	713.505
171.008	18.931	939.080	713.232
172.023	19.241	938.173	713.765
173.037	19.432	937.700	714.131
174.052	19.148	937.103	712.438
175.067	18.817	935.987	710.157
176.081	18.737	935.405	709.324
177.096	18.759	935.193	709.190
178.110	18.947	933.927	708.942
179.125	18.986	933.390	708.633
180.140	19.113	932.981	708.785
181.154	19.200	932.918	709.032
182.169	19.287	932.472	708.989
183.183	19.295	931.687	708.361
184.198	19.373	930.864	707.991
185.213	19.470	930.058	707.715
186.227	19.432	929.406	706.998
187.242	19.599	928.921	707.252
188.256	19.712	928.536	707.361
189.271	19.624	927.746	706.335
190.286	19.208	926.441	703.579
191.300	18.847	924.896	700.874
192.315	18.630	924.543	699.656
193.329	18.807	924.380	700.196
194.344	18.863	924.052	700.114
195.359	19.150	923.050	700.458
196.373	19.206	923.033	700.613
197.388	19.458	922.986	701.537
198.402	19.625	922.386	701.698
199.417	19.847	921.743	702.050
200.432	19.817	921.173	701.432
201.446	20.004	920.926	701.937
202.461	20.076	920.341	701.723
203.475	19.858	919.519	700.150
204.490	19.655	918.764	698.694
205.504	19.526	917.559	697.195
206.519	19.511	916.599	696.341
207.534	19.430	916.232	695.674
208.548	19.603	915.353	695.642
209.563	19.555	914.569	694.792
210.577	19.554	914.726	694.846
211.592	19.797	914.028	695.234
212.607	19.833	913.193	694.679
213.621	19.796	912.322	693.807
214.636	19.748	911.437	692.880
215.650	19.653	911.522	692.501
216.665	19.837	910.585	692.469
217.680	19.857	910.339	692.298
218.694	19.971	909.210	691.833
219.709	19.841	908.357	690.607
220.723	19.751	908.135	690.017
221.738	19.722	907.457	689.326
222.753	19.939	906.573	689.455
223.767	19.982	906.158	689.251
224.782	20.053	905.828	689.220
225.796	19.995	905.405	688.606
226.811	20.027	904.395	687.903
227.826	19.665	903.906	686.036
228.840	19.843	902.853	685.881
229.855	19.721	902.030	684.714
230.869	19.608	901.804	684.034
231.884	19.659	901.076	683.623
232.899	19.564	900.269	682.574
233.913	19.508	899.514	681.719
234.928	19.406	898.852	680.754
235.942	19.513	897.805	680.323
236.957	19.472	897.312	679.728
237.972	19.497	896.520	679.166
238.986	19.528	895.774	678.664
240.001	19.512	895.406	678.259
241.015	19.569	895.114	678.202
242.030	19.880	894.636	679.003
243.045	19.771	894.156	678.150
244.059	19.751	893.609	677.598
245.074	19.735	893.139	677.119
246.088	19.983	892.099	677.239
247.103	20.120	891.876	677.548
248.117	20.311	891.528	677.969
249.132	20.635	891.313	679.012
250.147	20.810	890.947	679.354
251.161	20.821	890.193	678.763
252.176	20.779	889.676	678.145
253.190	20.896	888.860	677.918
254.205	20.946	888.485	677.764
255.220	20.860	887.895	676.919
256.234	20.823	886.952	675.999
257.249	20.944	886.343	675.945
258.263	20.683	885.731	674.405
259.278	20.733	884.939	673.935
260.293	20.911	884.490	674.223
261.307	20.905	884.335	674.025
262.322	21.050	883.370	673.789
263.336	21.056	882.512	673.096
264.351	20.935	881.712	671.962
265.366	21.008	881.253	671.835
266.380	20.917	880.814	671.087
267.395	20.782	880.147	670.002
268.409	20.755	879.192	669.111
269.424	20.729	878.298	668.274
270.439	20.704	877.469	667.487
271.453	20.516	876.934	666.298
272.468	20.604	876.203	666.022
273.482	20.633	875.730	665.714
274.497	20.535	875.001	664.727
275.512	20.645	874.524	664.725
276.526	20.588	874.082	664.113
277.541	20.751	873.567	664.287
278.555	20.890	873.362	664.601
279.570	21.167	872.423	664.883
280.585	20.982	871.884	663.711
281.599	20.732	870.878	661.936
282.614	20.758	870.245	661.492
283.628	20.675	869.688	660.695
284.643	20.764	869.130	660.552
285.657	20.742	868.578	659.990
286.672	20.766	867.663	659.328
287.687	20.770	867.022	658.797
288.701	20.587	867.027	658.049
289.716	20.744	866.172	657.938
290.730	20.996	865.385	658.232
291.745	20.779	864.884	656.974
292.760	21.002	864.674	657.598
293.774	21.058	863.975	657.220
294.789	21.082	863.353	656.777
295.803	20.885	862.039	654.981
296.818	20.847	861.667	654.495
297.833	20.876	860.921	653.979
298.847	20.867	860.496	653.564
299.862	21.009	860.058	653.707
300.876	21.078	859.599	653.561
301.891	21.128	859.525	653.634
302.906	21.352	858.789	653.854
303.920	21.469	858.057	653.674
304.935	21.537	857.798	653.674
305.949	21.372	857.014	652.402
306.964	21.036	856.227	650.494
307.979	21.142	856.117	650.749
308.993	21.254	855.513	650.648
310.008	21.375	854.511	650.279
311.022	21.165	854.115	649.138
312.037	21.059	853.290	648.060
313.052	20.956	852.491	647.012
314.066	20.923	851.728	646.257
315.081	20.870	851.441	645.784
316.095	20.891	850.816	645.330
317.110	20.808	850.520	644.741
318.125	20.802	850.254	644.462
319.139	20.856	849.235	643.831
320.154	20.980	848.601	643.751
321.168	20.975	848.340	643.478
322.183	20.997	847.700	643.016
323.197	21.117	847.349	643.135
324.212	21.017	846.931	642.392
325.227	20.756	846.275	640.879
326.241	20.843	845.478	640.536
327.256	20.813	845.143	640.116
328.270	20.795	844.378	639.413
329.285	20.743	843.793	638.726
330.300	20.926	843.067	638.789
331.314	20.964	842.622	638.535
332.329	21.109	842.553	638.956
333.343	21.136	842.350	638.846
334.358	21.242	841.763	638.732
335.373	21.186	841.552	638.308
336.387	21.426	841.026	638.732
337.402	21.454	841.023	638.775
338.416	21.659	840.663	639.194
339.431	21.622	840.414	638.812
340.446	21.901	840.009	639.463
341.460	21.810	839.475	638.670
342.475	21.947	839.104	638.831
343.489	21.965	838.741	638.562
344.504	21.985	838.334	638.268
345.519	22.065	837.739	638.049
346.533	21.925	837.398	637.226
347.548	21.645	836.484	635.457
348.562	21.541	835.457	634.243
349.577	21.336	835.087	633.163
350.592	21.291	834.101	632.199
351.606	21.316	833.501	631.779
352.621	21.318	833.204	631.503
353.635	21.304	832.691	631.007
354.650	21.403	832.012	630.796
355.665	21.601	831.674	631.197
356.679	21.651	830.685	630.572
357.694	21.630	830.055	629.963
358.708	21.574	829.595	629.355
359.723	21.721	828.977	629.360
360.738	21.776	828.048	628.794
361.752	21.917	827.576	628.887
362.767	21.904	827.469	628.705
363.781	22.067	827.039	628.906
364.796	22.195	826.615	628.984
365.810	22.301	826.346	629.104
366.825	22.482	825.609	629.134
367.840	22.223	825.501	628.069
368.854	22.075	824.720	626.891
369.869	21.871	824.433	625.891
370.883	22.022	824.062	626.091
371.898	22.308	823.688	626.771
372.913	22.194	823.582	626.231
373.927	22.150	822.697	625.345
374.942	22.178	822.084	624.922
375.956	22.187	822.005	624.839
376.971	22.417	821.730	625.393
377.986	22.468	821.192	625.108
379.000	22.518	820.372	624.607
380.015	22.428	819.763	623.768
381.029	22.311	819.317	622.959
382.044	22.506	818.493	622.968
383.059	22.472	818.107	622.499
384.073	22.432	817.309	621.695
385.088	22.107	816.516	619.891
386.102	22.129	815.878	619.430
387.117	22.030	815.632	618.840
388.132	21.936	815.236	618.151
389.146	22.107	814.153	617.878
390.161	22.258	814.368	618.518
391.175	22.332	813.688	618.208
392.190	22.292	812.755	617.304
393.205	22.040	812.401	616.093
394.219	22.049	812.238	615.948
395.234	22.027	811.504	615.259
396.248	21.869	811.103	614.347
397.263	21.914	810.268	613.818
398.278	21.806	810.223	613.354
399.292	21.724	809.755	612.656
400.307	21.829	809.147	612.508
401.321	21.892	808.734	612.364
402.336	22.012	808.431	612.497
403.350	22.149	807.964	612.567
404.365	22.253	808.052	612.941
405.380	22.473	807.450	613.197
406.394	22.706	806.600	613.308
407.409	22.750	806.301	613.181
408.423	22.821	806.382	613.432
409.438	22.682	805.988	612.598
410.453	22.825	805.764	612.868
411.467	22.843	805.242	612.482
412.482	23.008	804.725	612.605
413.496	23.052	804.420	612.472
414.511	23.026	804.104	612.085
415.526	22.881	803.396	610.992
416.540	22.693	803.027	610.007
417.555	22.853	802.281	609.937
418.569	22.761	802.231	609.526
419.584	22.753	801.709	609.052
420.599	22.828	801.120	608.807
421.613	165.306	1371.621	1797.135
422.628	143.689	1454.730	1797.220
