DTS Sentinel unit serial number:	SN413079Multiplexer serial number:	ORYXHardware model number:	OX4-SRSoftware version number:	ORYX F/W v4.00 Oryx Data Collector v3.7.2.0data status	okinstallation	princeton_trtdifferential loss correction	single-endedforward channel	channel 1reverse channel	N/Adate	2019/09/10time	20:32:11forward acquisition time	60.00reverse acquisition time	0.00gamma	496.2192k internal	0.2327k external	0.2327temperature offset calibration	0.9932default loss term (dB/km)	0.3790temperature slope calibration	1.0000multiplexer offset coefficient	1.0000multiplexer slope coefficient	1.0000fibre end	0.00T internal ref (°C)	32.00T ext. ref 1 (°C)	-0.30T ext. ref 2 (°C)	25.32length (m)	temperature (°C)	Stokes	anti-Stokes-747.200	-115.681	-0.176	0.033
-746.185	339.656	-0.126	0.247
-745.171	800.000	-0.056	-0.160
-744.156	-42.845	0.342	-0.175
-743.142	160.549	0.302	0.425
-742.127	-16.294	-0.293	-0.188
-741.112	24.259	0.174	0.145
-740.098	600.297	0.100	0.250
-739.083	800.000	0.077	-0.217
-738.069	-143.720	-0.240	-0.023
-737.054	-116.653	0.078	-0.014
-736.039	-200.000	0.095	-0.464
-735.025	-84.383	0.181	0.058
-734.010	800.000	-0.030	-0.117
-732.996	-31.715	0.476	-0.269
-731.981	92.182	-0.149	0.169
-730.966	757.873	-0.045	-0.123
-729.952	-176.940	-0.314	0.008
-728.937	-78.152	-0.065	0.023
-727.923	800.000	0.067	-0.210
-726.908	85.111	-0.038	-0.042
-725.894	112.132	-0.127	-0.155
-724.879	10.901	-0.399	0.307
-723.864	-17.221	0.271	0.172
-722.850	30.340	-0.095	-0.081
-721.835	200.970	-0.139	0.216
-720.821	285.566	-0.111	-0.201
-719.806	-9.436	-0.344	0.231
-718.791	165.981	-0.145	-0.207
-717.777	133.406	0.098	-0.127
-716.762	508.788	-0.090	-0.211
-715.748	800.000	-0.062	-0.215
-714.733	22.693	-0.148	-0.122
-713.718	39.288	-0.264	-0.238
-712.704	129.793	-0.333	-0.429
-711.689	-200.000	0.041	-0.352
-710.675	-109.274	0.141	-0.030
-709.660	198.286	-0.201	-0.310
-708.645	-105.845	0.187	0.042
-707.631	-43.568	-0.102	-0.052
-706.616	228.249	-0.234	-0.384
-705.602	-62.584	-0.396	-0.165
-704.587	758.763	-0.081	0.220
-703.572	-66.650	-0.273	0.109
-702.558	-47.594	0.183	-0.089
-701.543	358.507	0.135	-0.271
-700.529	242.884	0.056	-0.094
-699.514	-169.690	0.323	-0.012
-698.499	800.000	-0.029	-0.086
-697.485	4.743	0.248	0.183
-696.470	-200.000	-0.037	-0.294
-695.456	800.000	0.058	0.171
-694.441	37.508	-0.080	-0.072
-693.426	386.274	-0.093	-0.193
-692.412	380.415	0.138	-0.286
-691.397	-61.329	-0.124	0.053
-690.383	-200.000	0.013	-0.164
-689.368	-100.782	-0.191	-0.047
-688.354	800.000	0.143	0.535
-687.339	-120.161	0.361	-0.062
-686.324	800.000	-0.066	0.196
-685.310	800.000	0.023	0.078
-684.295	-95.067	-0.126	0.034
-683.281	-68.113	-0.320	0.125
-682.266	16.277	-0.142	-0.113
-681.251	84.854	-0.124	0.137
-680.237	267.135	-0.032	0.057
-679.222	-20.782	0.172	-0.106
-678.208	13.303	0.074	0.058
-677.193	12.383	0.279	-0.216
-676.178	188.553	-0.261	-0.393
-675.164	-48.847	-0.217	-0.105
-674.149	627.928	0.028	0.071
-673.135	-149.386	0.260	-0.021
-672.120	-200.000	0.003	-0.263
-671.105	-26.563	-0.272	-0.160
-670.091	100.560	0.185	-0.216
-669.076	-184.967	-0.114	-0.002
-668.062	284.125	-0.061	-0.111
-667.047	-200.000	-0.004	-0.133
-666.032	-77.843	0.297	0.103
-665.018	193.075	0.067	0.101
-664.003	210.635	-0.107	-0.169
-662.989	-39.466	-0.220	0.116
-661.974	74.269	-0.122	0.129
-660.959	6.954	0.296	-0.222
-659.945	-66.246	0.107	0.043
-658.930	83.789	0.290	-0.318
-657.916	95.140	-0.155	-0.177
-656.901	800.000	0.052	-0.150
-655.886	-200.000	-0.017	-0.106
-654.872	-104.705	0.098	-0.023
-653.857	-82.811	0.070	0.023
-652.843	-99.216	0.067	-0.017
-651.828	112.929	0.165	-0.200
-650.814	408.798	-0.058	-0.124
-649.799	127.046	0.115	0.146
-648.784	781.026	0.058	-0.159
-647.770	-32.699	-0.051	0.029
-646.755	-63.666	-0.220	-0.091
-645.741	41.448	-0.243	0.221
-644.726	208.984	0.068	-0.107
-643.711	18.293	0.416	0.333
-642.697	525.291	0.140	0.331
-641.682	200.988	-0.200	-0.310
-640.668	26.074	-0.225	-0.189
-639.653	-200.000	0.023	-0.230
-638.638	-150.988	-0.424	-0.032
-637.624	-15.022	-0.162	-0.104
-636.609	-200.000	0.007	0.274
-635.595	-72.794	0.040	0.015
-634.580	88.070	-0.189	0.210
-633.565	-31.596	0.159	0.090
-632.551	98.852	-0.161	0.187
-631.536	51.767	-0.344	-0.328
-630.522	800.000	-0.042	-0.123
-629.507	-61.155	0.035	0.015
-628.492	-200.000	0.025	0.175
-627.478	20.126	0.339	-0.274
-626.463	-135.723	0.122	0.015
-625.449	-70.763	0.143	-0.054
-624.434	287.674	0.183	-0.333
-623.419	-62.352	0.206	0.086
-622.405	800.000	0.042	0.140
-621.390	81.152	-0.085	0.092
-620.376	-185.167	0.239	-0.004
-619.361	37.992	0.073	-0.065
-618.346	-200.000	0.019	0.254
-617.332	-200.000	-0.019	-0.213
-616.317	-185.801	-0.190	-0.003
-615.303	-42.120	0.163	0.084
-614.288	-102.046	-0.043	-0.010
-613.273	800.000	-0.127	-0.394
-612.259	-200.000	0.005	-0.270
-611.244	434.598	-0.037	0.080
-610.230	-177.469	0.231	-0.006
-609.215	142.744	-0.071	0.094
-608.201	70.533	-0.060	-0.062
-607.186	-51.408	0.298	0.140
-606.171	419.385	-0.131	0.281
-605.157	-76.942	-0.240	0.084
-604.142	-200.000	0.007	0.302
-603.128	51.345	0.322	-0.307
-602.113	26.436	-0.236	-0.198
-601.098	115.352	0.111	0.136
-600.084	-148.741	0.104	-0.008
-599.069	75.544	0.092	-0.097
-598.055	587.922	0.086	-0.213
-597.040	-34.655	0.370	-0.203
-596.025	-200.000	0.060	0.319
-595.011	3.249	-0.226	0.165
-593.996	147.035	-0.107	0.144
-592.982	125.340	-0.049	0.062
-591.967	198.799	-0.059	-0.091
-590.952	36.451	-0.105	0.093
-589.938	278.391	0.074	-0.132
-588.923	-73.222	-0.207	-0.076
-587.909	254.099	0.030	0.052
-586.894	-178.038	-0.132	-0.003
-585.879	-84.974	0.185	-0.058
-584.865	-1.422	-0.212	-0.150
-583.850	-16.619	0.175	-0.111
-582.836	-200.000	0.034	-0.249
-581.821	387.088	0.124	-0.256
-580.806	-151.907	-0.249	-0.018
-579.792	-140.975	-0.169	0.017
-578.777	800.000	-0.071	0.264
-577.763	-200.000	-0.038	-0.248
-576.748	800.000	-0.133	-0.451
-575.733	755.327	0.111	-0.301
-574.719	-79.455	-0.151	-0.051
-573.704	198.939	0.158	0.242
-572.690	-27.387	-0.254	0.148
-571.675	130.702	-0.103	0.132
-570.661	-200.000	0.025	-0.411
-569.646	-49.663	0.076	0.036
-568.631	21.801	0.403	-0.329
-567.617	-62.455	-0.132	-0.055
-566.602	-200.000	0.002	-0.388
-565.588	800.000	-0.071	-0.234
-564.573	52.115	-0.237	0.226
-563.558	-127.079	0.431	0.063
-562.544	-151.055	0.236	0.018
-561.529	-156.049	-0.118	-0.007
-560.515	-26.034	0.118	0.070
-559.500	246.835	-0.043	-0.072
-558.485	34.136	-0.234	0.204
-557.471	3.500	0.239	-0.174
-556.456	-200.000	-0.011	-0.287
-555.442	-200.000	-0.300	0.001
-554.427	-67.721	-0.372	0.146
-553.412	186.547	0.088	-0.132
-552.398	219.110	0.041	-0.066
-551.383	-200.000	0.008	0.104
-550.369	-132.635	0.208	0.027
-549.354	-113.766	-0.065	0.013
-548.339	-136.294	0.143	0.017
-547.325	-30.135	-0.098	0.056
-546.310	503.891	-0.087	-0.201
-545.296	-200.000	0.009	-0.156
-544.281	-180.211	-0.225	0.005
-543.266	66.666	0.235	0.239
-542.252	-200.000	-0.001	-0.021
-541.237	98.778	0.086	0.099
-540.223	44.922	0.013	0.012
-539.208	-200.000	-0.001	0.352
-538.193	-73.109	-0.270	0.099
-537.179	-70.434	0.057	-0.022
-536.164	-98.216	-0.190	-0.049
-535.150	154.784	-0.064	0.089
-534.135	-116.219	0.050	0.009
-533.121	-200.000	0.008	-0.084
-532.106	10.305	-0.228	-0.173
-531.091	39.208	0.148	0.132
-530.077	130.644	0.190	0.243
-529.062	652.268	0.159	-0.408
-528.048	800.000	-0.116	0.505
-527.033	-1.262	-0.190	0.134
-526.018	-27.612	0.191	-0.111
-525.004	2.208	-0.223	-0.161
-523.989	-200.000	0.034	0.201
-522.975	-193.617	0.212	-0.002
-521.960	-63.014	-0.053	0.022
-520.945	-150.953	-0.165	0.012
-519.931	451.444	0.112	0.247
-518.916	-111.555	0.106	-0.022
-517.902	-96.428	-0.466	0.123
-516.887	38.940	0.214	0.191
-515.872	-200.000	-0.010	0.246
-514.858	-59.825	-0.145	0.062
-513.843	-38.995	-0.262	0.138
-512.829	-82.106	-0.168	0.055
-511.814	34.733	0.181	0.158
-510.799	-16.111	0.088	-0.056
-509.785	-68.965	-0.424	0.163
-508.770	239.915	0.103	-0.171
-507.756	4.251	0.179	-0.131
-506.741	236.103	0.200	-0.331
-505.726	-9.166	-0.111	-0.074
-504.712	-93.290	-0.266	-0.074
-503.697	-153.147	0.104	0.007
-502.683	88.690	-0.243	-0.270
-501.668	800.000	0.029	-0.122
-500.653	-7.792	0.291	0.196
-499.639	-200.000	-0.021	0.337
-498.624	-200.000	0.031	-0.225
-497.610	-89.265	-0.169	0.050
-496.595	52.680	-0.269	-0.257
-495.581	142.446	-0.064	0.084
-494.566	18.901	-0.158	0.127
-493.551	489.685	0.171	0.391
-492.537	-200.000	0.009	0.075
-491.522	-200.000	-0.003	-0.156
-490.508	-135.297	-0.092	0.011
-489.493	75.484	0.135	0.142
-488.478	337.827	0.187	0.364
-487.464	44.698	-0.230	0.211
-486.449	-200.000	0.019	0.165
-485.435	800.000	-0.041	-0.124
-484.420	-138.511	0.315	-0.035
-483.405	-200.000	0.095	-0.000
-482.391	169.674	-0.115	0.165
-481.376	40.376	0.107	0.096
-480.362	-43.261	0.396	0.200
-479.347	-200.000	-0.037	0.384
-478.332	-166.048	-0.119	-0.005
-477.318	-92.581	-0.187	0.052
-476.303	24.420	0.017	-0.014
-475.289	21.779	0.112	-0.091
-474.274	-200.000	0.006	0.060
-473.259	230.375	0.014	-0.023
-472.245	-97.702	-0.309	0.080
-471.230	-1.607	0.164	0.116
-470.216	-66.908	0.099	-0.039
-469.201	26.209	0.114	0.095
-468.186	322.019	0.127	0.241
-467.172	-46.736	-0.015	0.007
-466.157	800.000	-0.113	-0.341
-465.143	444.259	0.052	0.114
-464.128	-200.000	-0.001	0.040
-463.113	42.485	0.024	0.022
-462.099	173.373	0.026	-0.038
-461.084	-200.000	-0.054	-0.259
-460.070	-124.024	-0.304	0.048
-459.055	800.000	0.045	-0.176
-458.040	269.174	-0.242	-0.423
-457.026	560.253	-0.139	-0.335
-456.011	-143.024	0.157	0.015
-454.997	180.557	0.145	-0.211
-453.982	800.000	-0.094	-0.313
-452.968	142.069	-0.100	0.133
-451.953	90.305	-0.229	-0.256
-450.938	334.002	0.106	-0.204
-449.924	58.598	0.027	0.027
-448.909	-89.717	0.052	0.015
-447.895	-103.169	-0.203	0.048
-446.880	-90.848	-0.090	0.026
-445.865	6.647	0.089	0.066
-444.851	-95.639	0.176	0.047
-443.836	9.688	0.202	-0.152
-442.822	-12.044	0.208	-0.136
-441.807	-63.811	0.381	-0.155
-440.792	158.328	0.091	0.126
-439.778	-163.017	0.199	0.010
-438.763	-18.511	0.105	0.065
-437.749	34.125	0.180	0.157
-436.734	-200.000	-0.042	-0.298
-435.719	-200.000	-0.000	0.150
-434.705	-145.063	0.147	-0.013
-433.690	-200.000	0.043	-0.429
-432.676	800.000	-0.034	0.113
-431.661	68.202	-0.044	-0.045
-430.646	-22.347	0.299	-0.181
-429.632	800.000	0.049	-0.171
-428.617	623.748	0.122	-0.306
-427.603	-200.000	0.032	-0.268
-426.588	-100.028	0.142	-0.035
-425.573	-26.385	0.128	-0.075
-424.559	45.586	0.201	-0.185
-423.544	-164.732	-0.089	0.004
-422.530	594.253	-0.025	0.061
-421.515	454.859	0.093	0.205
-420.500	-21.484	-0.029	0.017
-419.486	-1.882	0.141	0.099
-418.471	22.587	0.377	0.307
-417.457	34.583	-0.290	0.252
-416.442	-74.864	-0.134	0.048
-415.428	-200.000	-0.003	-0.202
-414.413	-125.354	-0.265	-0.040
-413.398	-200.000	0.055	0.257
-412.384	-104.138	0.175	-0.041
-411.369	-112.220	-0.254	-0.051
-410.355	800.000	-0.098	0.355
-409.340	77.707	0.251	-0.266
-408.325	210.655	-0.072	-0.113
-407.311	800.000	0.054	-0.174
-406.296	-200.000	0.014	-0.244
-405.282	41.601	0.303	-0.273
-404.267	-28.825	0.292	-0.167
-403.252	175.066	0.021	0.030
-402.238	800.000	-0.073	0.304
-401.223	279.533	0.099	0.176
-400.209	-28.361	0.223	0.128
-399.194	-1.594	0.092	0.064
-398.179	-162.488	0.245	-0.012
-397.165	20.510	-0.134	-0.108
-396.150	2.007	0.157	-0.113
-395.136	-48.802	0.147	0.070
-394.121	-109.905	-0.085	0.018
-393.106	180.366	-0.309	-0.451
-392.092	-100.239	-0.382	-0.094
-391.077	733.720	-0.099	-0.264
-390.063	-42.998	-0.110	0.055
-389.048	298.179	0.218	-0.398
-388.033	59.407	0.065	-0.063
-387.019	-200.000	-0.017	0.089
-386.004	142.739	0.238	-0.314
-384.990	-200.000	0.016	-0.229
-383.975	-35.583	-0.176	0.095
-382.960	13.252	0.320	0.247
-381.946	-120.276	-0.324	0.055
-380.931	-9.044	-0.231	-0.154
-379.917	113.593	-0.118	-0.143
-378.902	-6.131	-0.198	0.135
-377.888	-200.000	-0.003	-0.247
-376.873	-30.003	0.190	0.108
-375.858	30.419	-0.185	0.157
-374.844	147.965	0.074	0.099
-373.829	-200.000	-0.014	-0.100
-372.815	700.948	0.050	0.130
-371.800	-46.206	0.163	0.080
-370.785	375.627	0.069	0.140
-369.771	-8.230	-0.290	0.194
-368.756	232.173	0.145	-0.236
-367.742	-54.659	-0.126	-0.056
-366.727	-55.470	0.182	0.081
-365.712	227.674	-0.157	-0.254
-364.698	366.188	0.062	0.124
-363.683	-31.889	0.284	-0.158
-362.669	15.522	-0.118	0.092
-361.654	4.363	-0.167	0.122
-360.639	151.206	0.069	-0.093
-359.625	800.000	-0.030	-0.085
-358.610	-27.177	-0.165	0.096
-357.596	800.000	-0.028	0.118
-356.581	-131.944	-0.578	0.075
-355.566	-167.958	0.290	-0.011
-354.552	-82.692	0.334	0.107
-353.537	-133.548	-0.130	0.016
-352.523	-200.000	0.036	-0.194
-351.508	-200.000	-0.023	0.121
-350.493	-180.912	0.087	0.002
-349.479	70.138	0.161	-0.165
-348.464	176.180	-0.154	0.223
-347.450	350.542	0.040	0.079
-346.435	102.323	-0.128	-0.148
-345.420	203.154	0.121	-0.186
-344.406	-123.933	-0.319	0.050
-343.391	22.155	-0.268	-0.217
-342.377	-104.661	-0.098	0.022
-341.362	-123.409	0.282	0.045
-340.348	-200.000	-0.034	-0.375
-339.333	-188.727	0.111	-0.001
-338.318	-130.862	-0.098	-0.013
-337.304	39.232	0.103	-0.092
-336.289	550.667	-0.119	0.282
-335.275	-200.000	0.025	0.156
-334.260	-93.889	0.055	-0.015
-333.245	9.233	-0.205	0.154
-332.231	12.580	0.199	-0.152
-331.216	-200.000	0.015	-0.173
-330.202	-200.000	-0.017	-0.184
-329.187	181.718	0.091	0.133
-328.172	-200.000	-0.025	-0.114
-327.158	-88.835	-0.173	0.051
-326.143	800.000	0.084	-0.336
-325.129	800.000	-0.041	0.130
-324.114	-200.000	0.046	0.293
-323.099	438.067	-0.093	-0.201
-322.085	143.413	-0.140	-0.185
-321.070	617.682	0.105	0.263
-320.056	800.000	0.037	0.128
-319.041	-200.000	0.060	0.326
-318.026	-83.686	-0.269	0.085
-317.012	-200.000	0.004	0.141
-315.997	-41.202	0.256	-0.131
-314.983	800.000	0.057	0.219
-313.968	1.088	-0.186	0.132
-312.953	-37.568	-0.138	-0.073
-311.939	-104.291	0.263	-0.060
-310.924	14.878	-0.277	0.215
-309.910	800.000	0.034	-0.130
-308.895	154.686	0.113	0.154
-307.880	-121.318	-0.466	0.077
-306.866	424.699	-0.064	-0.136
-305.851	-200.000	0.016	-0.081
-304.837	800.000	0.111	-0.460
-303.822	508.795	0.098	0.226
-302.807	-70.263	-0.081	-0.030
-301.793	-141.356	-0.168	-0.017
-300.778	707.795	-0.137	0.359
-299.764	67.345	0.122	0.123
-298.749	66.583	0.101	-0.101
-297.735	57.071	0.127	0.123
-296.720	-86.793	0.172	0.052
-295.705	-126.668	0.160	0.023
-294.691	54.409	0.145	-0.139
-293.676	-200.000	-0.027	-0.193
-292.662	123.677	-0.171	0.212
-291.647	-83.660	0.410	0.130
-290.632	528.341	-0.123	0.288
-289.618	-106.100	-0.427	0.095
-288.603	-200.000	0.058	-0.487
-287.589	720.141	0.066	-0.174
-286.574	800.000	-0.097	-0.381
-285.559	-61.997	-0.074	-0.031
-284.545	-200.000	0.057	-0.290
-283.530	3.583	0.112	0.081
-282.516	-200.000	0.056	0.299
-281.501	-200.000	-0.013	0.074
-280.486	-176.416	0.197	-0.005
-279.472	-55.210	-0.261	0.116
-278.457	15.731	-0.104	0.081
-277.443	-52.253	0.056	0.026
-276.428	-200.000	-0.071	0.454
-275.413	-200.000	0.066	0.287
-274.399	800.000	0.046	-0.186
-273.384	67.653	-0.052	-0.052
-272.370	-99.657	0.144	-0.036
-271.355	328.691	0.200	0.381
-270.340	800.000	0.051	0.177
-269.326	-79.386	-0.067	0.022
-268.311	-98.995	-0.233	0.058
-267.297	-200.000	0.011	-0.296
-266.282	-120.999	0.411	-0.068
-265.267	12.574	-0.160	0.122
-264.253	364.201	0.092	0.184
-263.238	-200.000	0.045	-0.235
-262.224	765.273	0.146	0.392
-261.209	-119.129	-0.126	-0.022
-260.195	134.668	0.265	0.340
-259.180	69.025	-0.218	0.222
-258.165	-22.317	0.150	0.090
-257.151	530.272	-0.096	-0.225
-256.136	165.209	0.157	-0.220
-255.122	-30.058	-0.222	-0.125
-254.107	-200.000	0.016	-0.163
-253.092	196.773	-0.174	0.262
-252.078	22.327	-0.145	-0.118
-251.063	-80.964	0.249	-0.081
-250.049	231.287	0.188	0.305
-249.034	-142.646	-0.145	0.014
-248.019	100.554	0.066	-0.076
-247.005	-168.259	0.481	0.018
-245.990	800.000	0.015	0.062
-244.976	-200.000	0.037	0.273
-243.961	800.000	-0.075	0.295
-242.946	370.760	0.054	-0.109
-241.932	-34.237	0.216	0.117
-240.917	800.000	-0.079	-0.275
-239.903	-89.241	-0.232	0.068
-238.888	30.817	0.164	0.139
-237.873	86.492	-0.120	0.131
-236.859	264.331	0.057	0.097
-235.844	-93.945	-0.025	-0.007
-234.830	146.320	0.157	0.208
-233.815	171.532	-0.130	0.185
-232.800	120.944	-0.065	0.080
-231.786	418.665	0.066	-0.139
-230.771	-41.349	0.111	-0.057
-229.757	800.000	-0.143	-0.510
-228.742	-200.000	0.054	0.278
-227.727	440.932	0.080	-0.172
-226.713	-112.257	0.190	-0.038
-225.698	800.000	-0.049	0.179
-224.684	-3.047	-0.195	-0.134
-223.669	800.000	0.085	-0.309
-222.655	-19.242	-0.288	-0.176
-221.640	-134.867	-0.125	0.015
-220.625	-200.000	0.014	0.088
-219.611	-14.267	-0.090	-0.057
-218.596	-103.971	-0.407	0.094
-217.582	-135.822	0.325	0.038
-216.567	-31.478	-0.035	-0.019
-215.552	37.876	-0.252	-0.222
-214.538	-200.000	-0.092	0.431
-213.523	-111.167	0.104	-0.021
-212.509	599.750	-0.095	0.232
-211.494	385.288	-0.122	-0.248
-210.479	29.380	0.326	0.273
-209.465	-5.593	0.126	0.086
-208.450	-32.762	0.310	0.170
-207.436	134.770	0.158	-0.202
-206.421	-82.779	-0.178	0.057
-205.406	53.449	0.245	0.232
-204.392	-20.369	0.126	0.077
-203.377	105.129	-0.091	-0.106
-202.363	-17.994	-0.235	-0.145
-201.348	-200.000	-0.367	-0.000
-200.333	800.000	0.051	-0.153
-199.319	-200.000	-0.062	-0.462
-198.304	-136.589	0.108	0.012
-197.290	175.907	0.078	-0.112
-196.275	-200.000	-0.036	0.161
-195.260	-200.000	0.023	0.153
-194.246	-77.673	0.288	0.098
-193.231	-73.678	-0.265	0.095
-192.217	-113.870	-0.240	-0.046
-191.202	-30.499	0.277	0.155
-190.187	-200.000	-0.007	-0.193
-189.173	-128.569	-0.229	0.032
-188.158	-8.198	0.153	0.101
-187.144	38.150	0.121	-0.107
-186.129	169.129	-0.195	0.275
-185.114	-82.522	-0.029	-0.009
-184.100	-11.041	-0.129	0.084
-183.085	-200.000	0.001	0.226
-182.071	421.802	-0.038	-0.080
-181.056	79.385	-0.161	0.171
-180.042	800.000	-0.080	-0.293
-179.027	234.390	-0.139	-0.226
-178.012	-94.835	0.208	-0.056
-176.998	641.801	0.074	0.186
-175.983	-100.295	0.236	-0.058
-174.969	-1.688	-0.142	-0.099
-173.954	-117.933	0.208	0.037
-172.939	52.049	0.022	-0.020
-171.925	64.866	-0.487	0.485
-170.910	182.434	0.215	-0.313
-169.896	800.000	-0.030	-0.115
-168.881	-200.000	0.013	0.184
-167.866	-200.000	-0.023	-0.337
-166.852	800.000	-0.112	-0.419
-165.837	-200.000	-0.080	-0.420
-164.823	-139.730	0.129	-0.014
-163.808	8.682	-0.147	0.109
-162.793	96.361	-0.285	0.321
-161.779	-200.000	0.014	0.170
-160.764	-200.000	0.038	0.269
-159.750	800.000	-0.057	0.219
-158.735	-14.461	0.122	0.077
-157.720	-200.000	-0.044	0.529
-156.706	800.000	-0.060	-0.186
-155.691	435.122	-0.063	-0.135
-154.677	-51.611	-0.165	-0.076
-153.662	69.545	0.136	-0.138
-152.647	88.813	-0.174	0.191
-151.633	172.815	0.045	0.064
-150.618	307.991	0.089	0.163
-149.604	158.821	-0.084	0.114
-148.589	-80.872	0.314	0.103
-147.574	83.158	0.135	-0.144
-146.560	-19.965	0.088	0.053
-145.545	-55.185	0.233	-0.103
-144.531	141.883	0.032	0.042
-143.516	254.621	-0.096	0.161
-142.502	169.115	0.195	0.274
-141.487	800.000	-0.041	0.166
-140.472	-114.867	0.104	-0.020
-139.458	-85.042	-0.020	0.006
-138.443	-143.802	0.345	-0.032
-137.429	125.923	0.174	-0.217
-136.414	30.768	-0.088	-0.074
-135.399	-104.177	0.263	-0.060
-134.385	-46.234	0.444	-0.215
-133.370	-114.112	-0.324	-0.062
-132.356	-200.000	0.088	-0.425
-131.341	-13.221	0.063	-0.040
-130.326	-200.000	0.033	-0.189
-129.312	-200.000	-0.026	-0.199
-128.297	-104.386	0.503	-0.115
-127.283	-25.641	0.039	-0.023
-126.268	-131.060	-0.160	0.021
-125.253	-80.014	0.184	0.061
-124.239	-81.281	-0.095	0.031
-123.224	-89.437	0.467	0.135
-122.210	-43.596	0.139	-0.069
-121.195	800.000	0.050	-0.162
-120.180	189.128	0.323	0.476
-119.166	-69.667	0.175	0.066
-118.151	-83.983	0.337	-0.106
-117.137	800.000	-0.027	-0.105
-116.122	16.997	0.151	-0.117
-115.107	28.063	-0.060	-0.050
-114.093	-77.960	-0.256	-0.087
-113.078	-151.226	0.494	-0.036
-112.064	88.259	0.241	-0.263
-111.049	800.000	-0.025	-0.084
-110.034	-60.209	-0.181	0.076
-109.020	128.382	0.063	-0.079
-108.005	800.000	-0.046	0.129
-106.991	-104.096	-0.208	-0.048
-105.976	23.395	-0.183	-0.148
-104.962	-148.351	0.134	0.011
-103.947	380.692	0.044	0.088
-102.932	-200.000	-0.017	-0.252
-101.918	-200.000	0.025	0.143
-100.903	75.853	-0.130	0.135
-99.889	800.000	0.096	0.307
-98.874	-34.201	-0.171	-0.092
-97.859	-152.640	-0.402	0.028
-96.845	-200.000	-0.026	-0.127
-95.830	44.050	0.406	0.365
-94.816	-55.027	-0.048	0.021
-93.801	800.000	0.077	0.244
-92.786	-23.874	0.309	0.182
-91.772	505.353	-0.040	-0.090
-90.757	-200.000	0.001	0.070
-89.743	-115.730	-0.014	0.003
-88.728	-133.512	0.129	-0.016
-87.713	5.194	-0.306	-0.221
-86.699	800.000	0.045	-0.161
-85.684	-49.630	0.242	-0.113
-84.670	177.994	0.067	-0.095
-83.655	-200.000	-0.022	-0.273
-82.640	-21.165	-0.149	-0.089
-81.626	71.855	0.321	0.328
-80.611	-97.116	-0.154	-0.040
-79.597	-200.000	-0.036	-0.207
-78.582	111.925	0.061	0.072
-77.567	-200.000	0.018	0.111
-76.553	800.000	0.093	0.283
-75.538	229.682	-0.128	0.206
-74.524	-200.000	0.006	0.140
-73.509	26.310	-0.330	0.271
-72.494	-20.271	0.073	0.044
-71.480	59.994	-0.200	-0.194
-70.465	718.722	0.007	-0.019
-69.451	-155.848	-0.177	0.011
-68.436	-157.889	-0.089	0.005
-67.422	-200.000	-0.041	0.460
-66.407	636.631	0.072	0.179
-65.392	-24.459	-0.134	-0.078
-64.378	-8.660	-0.219	-0.144
-63.363	49.203	-0.179	0.165
-62.349	-50.124	0.193	-0.090
-61.334	4.348	-0.917	-0.660
-60.319	800.000	0.301	0.940
-59.305	-200.000	-0.087	-1.169
-58.290	141.728	0.809	1.052
-57.276	309.294	0.742	1.362
-56.261	-200.000	97.810	604.023
-55.246	616.474	1401.906	3451.455
-54.232	192.503	2592.582	3840.957
-53.217	118.443	2148.397	2601.813
-52.203	44.089	1603.384	1442.769
-51.188	35.560	1342.027	1156.473
-50.173	32.301	1300.815	1101.857
-49.159	54.318	1350.020	1275.464
-48.144	56.352	1366.200	1302.828
-47.130	35.578	1323.736	1140.638
-46.115	32.153	1306.278	1105.434
-45.100	31.943	1301.189	1099.852
-44.086	31.958	1298.671	1097.770
-43.071	31.798	1296.674	1095.104
-42.057	31.910	1294.163	1093.594
-41.042	31.975	1292.809	1092.783
-40.027	31.912	1291.415	1091.197
-39.013	31.900	1289.518	1089.479
-37.998	32.098	1287.077	1088.524
-36.984	31.964	1285.707	1086.545
-35.969	31.946	1284.514	1085.388
-34.954	32.027	1282.429	1084.052
-33.940	32.082	1280.920	1083.051
-32.925	32.102	1279.087	1081.570
-31.911	32.078	1278.047	1080.515
-30.896	32.053	1276.767	1079.245
-29.881	32.064	1275.552	1078.239
-28.867	32.151	1273.982	1077.366
-27.852	32.195	1272.325	1076.172
-26.838	32.230	1270.592	1074.868
-25.823	32.122	1269.531	1073.305
-24.809	32.062	1268.187	1071.788
-23.794	32.042	1266.938	1070.572
-22.779	32.070	1265.972	1069.876
-21.765	32.070	1264.651	1068.716
-20.750	32.181	1262.664	1067.625
-19.736	32.047	1261.310	1065.678
-18.721	31.865	1260.998	1064.338
-17.706	31.945	1259.859	1063.791
-16.692	32.010	1258.042	1062.581
-15.677	31.874	1257.501	1061.312
-14.663	31.902	1256.197	1060.325
-13.648	31.921	1254.834	1059.244
-12.633	32.018	1253.677	1058.773
-11.619	31.908	1253.197	1057.703
-10.604	31.896	1252.426	1056.941
-9.590	31.935	1251.127	1056.026
-8.575	31.788	1250.435	1054.573
-7.560	31.888	1249.581	1054.373
-6.546	31.934	1248.216	1053.438
-5.531	31.865	1248.025	1052.846
-4.517	31.987	1246.706	1052.373
-3.502	31.985	1245.836	1051.589
-2.487	31.991	1245.055	1050.919
-1.473	31.867	1241.168	1046.905
-0.458	30.318	1225.795	1025.345
0.556	24.522	1208.722	987.560
1.571	20.750	1213.745	970.585
2.586	19.963	1228.598	977.932
3.600	19.865	1217.835	968.728
4.615	14.387	1146.252	882.763
5.629	4.673	1069.981	775.704
6.644	0.037	1048.580	737.430
7.659	-0.367	1046.684	734.053
8.673	-0.498	1045.542	732.544
9.688	-0.381	1043.807	731.838
10.702	-0.095	1042.777	732.443
11.717	6.015	1051.595	768.542
12.731	15.151	1064.078	822.654
13.746	18.642	1068.356	843.067
14.761	18.689	1067.909	842.872
15.775	18.660	1066.991	841.932
16.790	18.164	1066.342	838.915
17.804	18.231	1065.705	838.667
18.819	18.241	1065.572	838.535
19.834	18.333	1064.860	838.350
20.848	18.346	1064.196	837.820
21.863	18.204	1063.884	836.804
22.877	18.275	1062.766	836.195
23.892	18.201	1062.675	835.693
24.907	18.407	1061.353	835.582
25.921	18.334	1060.416	834.413
26.936	18.366	1058.837	833.253
27.950	18.365	1057.113	831.818
28.965	18.207	1055.033	829.344
29.980	18.322	1053.700	828.780
30.994	18.569	1052.426	828.897
32.009	18.338	1051.785	827.204
33.023	18.164	1049.792	824.721
34.038	18.274	1049.294	824.789
35.053	18.440	1048.677	825.029
36.067	18.398	1047.665	823.959
37.082	18.541	1046.756	823.860
38.096	18.574	1046.352	823.625
39.111	18.616	1045.607	823.168
40.126	18.597	1043.979	821.721
41.140	18.349	1042.233	819.091
42.155	18.095	1040.646	816.557
43.169	18.198	1039.607	816.161
44.184	18.213	1038.568	815.344
45.199	18.088	1037.624	813.936
46.213	18.065	1036.569	812.925
47.228	18.223	1035.787	812.992
48.242	18.198	1034.425	811.732
49.257	18.221	1033.747	811.240
50.271	18.389	1032.692	811.137
51.286	18.415	1031.871	810.541
52.301	18.269	1030.886	809.007
53.315	18.388	1029.847	808.679
54.330	18.274	1028.853	807.290
55.344	18.442	1028.061	807.391
56.359	18.288	1027.357	806.043
57.374	18.121	1026.660	804.638
58.388	18.289	1025.430	804.392
59.403	18.206	1024.456	803.167
60.417	18.107	1023.371	801.779
61.432	18.080	1023.306	801.533
62.447	18.243	1022.146	801.314
63.461	18.345	1021.278	801.039
64.476	18.294	1020.342	799.997
65.490	18.176	1019.379	798.622
66.505	18.304	1018.287	798.293
67.520	18.174	1018.240	797.577
68.534	18.106	1016.778	796.047
69.549	17.879	1015.636	794.023
70.563	17.842	1014.752	793.094
71.578	17.892	1013.966	792.639
72.593	17.787	1012.999	791.328
73.607	17.858	1012.950	791.548
74.622	18.059	1012.209	791.830
75.636	18.271	1011.273	792.009
76.651	18.110	1010.200	790.356
77.666	17.920	1009.531	788.884
78.680	17.913	1009.101	788.445
79.695	18.066	1008.205	788.380
80.709	18.192	1007.701	788.499
81.724	18.077	1006.893	787.266
82.739	18.113	1005.960	786.634
83.753	18.377	1005.544	787.453
84.768	18.600	1004.375	787.490
85.782	18.694	1003.190	786.920
86.797	18.517	1002.420	785.437
87.812	18.282	1001.517	783.586
88.826	18.547	1000.245	783.733
89.841	18.758	998.890	783.566
90.855	18.661	998.061	782.401
91.870	18.553	997.445	781.360
92.884	18.418	996.855	780.212
93.899	18.389	995.161	778.685
94.914	18.623	994.738	779.350
95.928	18.368	993.772	777.365
96.943	18.298	992.152	775.714
97.957	18.036	991.562	773.994
98.972	17.849	989.955	771.828
99.987	18.045	989.970	772.655
101.001	18.302	988.843	772.871
102.016	18.296	987.612	771.810
103.030	18.261	986.791	770.943
104.045	18.113	985.665	769.330
105.060	17.851	984.836	767.436
106.074	18.038	984.040	767.589
107.089	18.591	983.351	769.467
108.103	18.467	982.423	768.115
109.118	18.287	981.164	766.256
110.133	18.383	980.168	765.842
111.147	18.148	979.041	763.842
112.162	18.079	977.632	762.366
113.176	18.156	977.201	762.308
114.191	18.232	975.841	761.519
115.206	17.823	975.012	758.987
116.220	17.831	974.443	758.512
117.235	18.046	973.490	758.655
118.249	18.132	972.273	758.021
119.264	18.086	971.768	757.359
120.279	17.951	971.015	756.108
121.293	18.110	970.220	756.122
122.308	18.126	969.111	755.263
123.322	18.195	968.070	754.689
124.337	18.066	966.445	752.788
125.352	17.453	964.962	748.871
126.366	17.536	963.610	748.119
127.381	18.142	963.879	750.925
128.395	18.396	963.226	751.464
129.410	18.561	962.236	751.345
130.424	18.380	961.063	749.573
131.439	18.305	960.215	748.516
132.454	18.472	958.874	748.135
133.468	18.359	958.042	746.927
134.483	18.412	957.615	746.757
135.497	18.643	956.198	746.590
136.512	18.791	955.118	746.325
137.527	18.686	954.453	745.283
138.541	18.642	953.751	744.481
139.556	18.633	952.936	743.737
140.570	18.680	952.257	743.348
141.585	18.691	951.011	742.358
142.600	18.606	949.637	740.850
143.614	18.712	949.352	741.022
144.629	18.899	948.348	740.975
145.643	18.926	946.751	739.780
146.658	18.533	946.308	737.678
147.673	18.631	944.970	736.991
148.687	18.542	944.185	735.929
149.702	18.521	943.220	735.025
150.716	18.504	942.545	734.362
151.731	18.721	941.527	734.431
152.746	18.769	941.169	734.292
153.760	18.815	940.755	734.098
154.775	18.835	939.459	733.109
155.789	18.776	939.050	732.474
156.804	18.789	938.004	731.648
157.819	18.857	937.057	731.134
158.833	18.953	935.784	730.484
159.848	18.882	935.221	729.678
160.862	18.790	934.044	728.304
161.877	18.835	933.500	728.007
162.892	18.884	932.657	727.495
163.906	18.909	931.605	726.712
164.921	18.764	930.926	725.507
165.935	18.989	929.218	725.061
166.950	18.852	928.695	724.010
167.964	18.949	927.445	723.381
168.979	18.656	926.719	721.517
169.994	18.630	926.009	720.794
171.008	18.803	925.193	720.818
172.023	18.797	924.305	720.039
173.037	18.520	923.187	717.946
174.052	18.446	922.159	716.772
175.067	18.644	921.462	716.993
176.081	18.779	921.279	717.352
177.096	18.742	920.344	716.408
178.110	18.381	919.684	714.322
179.125	18.320	918.421	713.026
180.140	18.404	918.060	713.031
181.154	18.495	917.561	712.959
182.169	18.682	917.661	713.754
183.183	18.888	916.592	713.713
184.198	18.773	916.173	712.847
185.213	18.734	915.451	712.060
186.227	18.780	914.586	711.514
187.242	18.833	913.593	710.899
188.256	18.876	913.022	710.571
189.271	18.833	912.410	709.854
190.286	18.695	911.457	708.480
191.300	18.207	909.997	705.271
192.315	17.638	908.148	701.433
193.329	17.561	908.317	701.185
194.344	18.277	908.521	704.227
195.359	18.822	907.931	705.949
196.373	18.904	907.046	705.532
197.388	18.543	906.947	703.911
198.402	18.506	906.113	703.053
199.417	18.547	905.477	702.663
200.432	18.349	904.233	700.825
201.446	18.116	903.422	699.182
202.461	18.298	902.701	699.307
203.475	17.389	901.411	694.537
204.490	16.835	899.992	691.121
205.504	17.789	899.978	694.938
206.519	18.328	900.214	697.256
207.534	18.443	899.714	697.275
208.548	18.872	899.168	698.533
209.563	18.620	898.158	696.662
210.577	18.499	897.931	695.934
211.592	18.811	897.531	696.830
212.607	18.827	896.225	695.817
213.621	18.925	895.956	695.943
214.636	18.883	895.560	695.405
215.650	18.923	894.432	694.630
216.665	19.068	893.881	694.725
217.680	18.824	892.945	692.951
218.694	18.493	891.642	690.545
219.709	18.268	891.331	689.338
220.723	18.579	891.015	690.284
221.738	18.640	890.488	690.062
222.753	18.816	889.577	690.002
223.767	18.948	888.955	689.989
224.782	19.051	888.478	689.969
225.796	19.028	888.138	689.552
226.811	18.363	886.565	685.609
227.826	17.860	885.359	682.603
228.840	18.082	884.383	682.678
229.855	18.106	884.058	682.461
230.869	17.839	882.991	680.514
231.884	18.188	882.916	681.786
232.899	18.935	882.830	684.636
233.913	18.837	882.110	683.628
234.928	18.712	882.169	683.113
235.942	18.821	881.103	682.662
236.957	18.481	880.360	680.675
237.972	18.599	879.702	680.576
238.986	18.658	879.143	680.318
240.001	18.599	878.290	679.363
241.015	18.647	877.833	679.140
242.030	18.892	876.834	679.276
243.045	18.856	877.059	679.247
244.059	19.110	875.904	679.295
245.074	18.858	875.097	677.613
246.088	18.535	873.728	675.222
247.103	18.539	874.120	675.480
248.117	19.150	874.108	677.820
249.132	19.190	873.344	677.322
250.147	19.305	872.815	677.307
251.161	19.394	872.181	677.103
252.176	19.455	871.172	676.498
253.190	19.467	870.715	676.131
254.205	19.624	870.293	676.360
255.220	19.637	869.466	675.705
256.234	19.495	868.793	674.569
257.249	19.304	868.080	673.211
258.263	19.550	867.000	673.271
259.278	19.569	866.689	673.044
260.293	19.525	866.053	672.321
261.307	19.450	865.050	671.190
262.322	19.249	864.305	669.771
263.336	18.557	862.108	665.325
264.351	17.501	860.434	659.886
265.366	17.592	860.399	660.153
266.380	18.604	860.831	664.345
267.395	19.009	860.806	665.838
268.409	19.078	859.916	665.354
269.424	19.439	859.208	666.142
270.439	19.444	858.618	665.647
271.453	19.498	857.860	665.206
272.468	19.630	857.495	665.374
273.482	19.627	857.219	665.089
274.497	19.288	855.583	662.459
275.512	18.772	855.166	660.094
276.526	19.303	854.809	661.798
277.541	19.438	854.298	661.864
278.555	19.154	853.291	659.937
279.570	19.130	852.345	659.054
280.585	19.286	852.062	659.376
281.599	19.437	850.774	658.898
282.614	18.806	849.699	655.596
283.628	18.700	849.840	655.242
284.643	19.056	849.294	656.123
285.657	18.581	848.462	653.611
286.672	18.499	847.153	652.235
287.687	19.011	847.122	654.101
288.701	19.016	846.318	653.441
289.716	18.676	845.550	651.498
290.730	18.597	845.048	650.754
291.745	18.361	843.824	648.861
292.760	18.777	843.587	650.195
293.774	19.661	843.990	653.795
294.789	19.893	843.525	654.255
295.803	19.866	843.262	653.893
296.818	20.124	842.200	653.982
297.833	19.643	841.559	651.614
298.847	19.535	840.843	650.594
299.862	19.788	840.590	651.294
300.876	19.890	840.111	651.250
301.891	19.762	839.063	649.896
302.906	19.372	837.930	647.500
303.920	19.425	837.910	647.623
304.935	19.805	837.170	648.422
305.949	19.852	836.910	648.337
306.964	19.620	836.485	647.082
307.979	19.674	836.254	647.048
308.993	20.019	835.701	647.856
310.008	20.076	834.855	647.354
311.022	19.782	833.891	645.453
312.037	19.677	833.537	644.730
313.052	19.505	832.565	643.280
314.066	18.822	831.074	639.528
315.081	18.494	830.754	638.007
316.095	19.389	830.661	641.207
317.110	19.753	830.405	642.304
318.125	18.958	829.309	638.450
319.139	18.211	827.731	634.411
320.154	18.137	827.429	633.846
321.168	18.921	827.683	636.891
322.183	19.561	827.556	639.108
323.197	19.610	827.226	638.979
324.212	19.684	827.099	639.097
325.227	19.787	826.454	638.923
326.241	19.671	825.725	637.872
327.256	19.738	824.733	637.297
328.270	19.752	824.363	637.006
329.285	19.535	823.367	635.382
330.300	19.366	822.688	634.179
331.314	19.396	822.749	634.283
332.329	19.711	822.218	634.973
333.343	19.777	821.809	634.843
334.358	19.800	821.230	634.426
335.373	19.855	821.028	634.414
336.387	20.250	820.627	635.495
337.402	20.260	820.551	635.418
338.416	20.038	819.916	634.057
339.431	20.085	819.794	634.079
340.446	20.364	819.547	634.852
341.460	20.032	818.920	633.099
342.475	19.911	818.004	631.892
343.489	20.121	817.748	632.404
344.504	20.407	817.482	633.184
345.519	20.501	816.998	633.095
346.533	20.589	816.928	633.306
347.548	20.569	816.470	632.824
348.562	20.659	815.858	632.621
349.577	20.411	815.792	631.612
350.592	20.601	814.768	631.452
351.606	20.714	813.398	630.743
352.621	20.544	812.828	629.629
353.635	20.265	812.503	628.311
354.650	19.793	810.769	625.210
355.665	18.970	809.258	621.018
356.679	19.303	809.250	622.160
357.694	19.668	808.987	623.221
358.708	19.610	808.247	622.385
359.723	20.130	808.009	624.019
360.738	20.362	807.330	624.274
361.752	20.450	807.280	624.496
362.767	20.625	807.000	624.854
363.781	20.722	806.690	624.908
364.796	20.811	806.425	624.967
365.810	20.936	805.876	624.932
366.825	20.817	805.410	624.092
367.840	20.653	804.265	622.559
368.854	20.358	803.309	620.712
369.869	20.223	803.503	620.322
370.883	20.260	802.990	620.005
371.898	20.110	802.105	618.729
372.913	20.190	802.098	618.956
373.927	20.423	802.095	619.732
374.942	20.603	801.219	619.639
375.956	20.654	800.920	619.537
376.971	20.861	800.241	619.691
377.986	20.872	800.038	619.520
379.000	20.718	799.793	618.728
380.015	20.649	798.921	617.752
381.029	20.764	798.499	617.779
382.044	20.762	797.802	617.181
383.059	20.719	797.465	616.711
384.073	20.854	797.019	616.790
385.088	20.882	796.106	616.126
386.102	20.677	795.644	614.991
387.117	20.599	795.171	614.295
388.132	20.313	794.135	612.432
389.146	19.989	793.566	610.795
390.161	20.044	793.241	610.686
391.175	20.574	792.782	612.145
392.190	20.301	791.640	610.250
393.205	19.189	789.921	604.966
394.219	17.838	788.765	599.285
395.234	17.861	788.463	599.083
396.248	19.342	789.679	605.157
397.263	20.739	790.102	610.331
398.278	20.686	789.722	609.799
399.292	20.425	789.220	608.440
400.307	20.454	788.636	608.039
401.321	20.513	788.550	608.125
402.336	20.897	787.829	608.856
403.350	21.106	787.784	609.499
404.365	21.401	787.380	610.161
405.380	21.604	786.844	610.402
406.394	21.543	786.361	609.758
407.409	21.454	785.890	609.030
408.423	21.326	785.760	608.431
409.438	21.435	785.119	608.261
410.453	21.456	785.224	608.358
411.467	21.424	784.739	607.820
412.482	21.403	784.296	607.349
413.496	21.655	783.591	607.624
414.511	21.550	783.433	607.082
415.526	21.598	783.014	606.870
416.540	21.426	781.989	605.428
417.555	21.187	781.478	604.151
418.569	21.193	781.259	603.951
419.584	21.135	780.430	603.053
420.599	20.901	780.241	602.046
421.613	157.489	1361.455	1793.987
422.628	136.113	1446.126	1794.095
