DTS Sentinel unit serial number:	SN413079Multiplexer serial number:	ORYXHardware model number:	OX4-SRSoftware version number:	ORYX F/W v4.00 Oryx Data Collector v3.7.2.0data status	okinstallation	princeton_trtdifferential loss correction	single-endedforward channel	channel 1reverse channel	N/Adate	2019/09/13time	19:02:35forward acquisition time	60.00reverse acquisition time	0.00gamma	496.2192k internal	0.2324k external	0.2324temperature offset calibration	1.0119default loss term (dB/km)	0.3790temperature slope calibration	1.0000multiplexer offset coefficient	1.0000multiplexer slope coefficient	1.0000fibre end	0.00T internal ref (°C)	31.86T ext. ref 1 (°C)	3.91T ext. ref 2 (°C)	25.11length (m)	temperature (°C)	Stokes	anti-Stokes-747.200	-68.455	0.200	0.078
-746.185	-200.000	-0.005	0.084
-745.171	363.520	-0.033	-0.068
-744.156	-68.669	-0.424	-0.166
-743.142	76.033	0.114	-0.121
-742.127	800.000	-0.039	0.116
-741.112	450.097	0.135	0.300
-740.098	-18.614	0.188	0.118
-739.083	105.705	-0.277	0.331
-738.069	-57.574	0.189	0.084
-737.054	-111.230	-0.273	0.056
-736.039	-95.833	-0.322	0.087
-735.025	-200.000	0.009	0.247
-734.010	-12.090	0.263	0.174
-732.996	-200.000	-0.012	0.053
-731.981	49.056	-0.084	-0.079
-730.966	800.000	-0.052	-0.175
-729.952	-147.503	0.108	0.009
-728.937	-141.087	-0.311	-0.032
-727.923	-109.210	-0.367	-0.079
-726.908	-120.696	0.256	0.044
-725.894	42.580	-0.130	0.119
-724.879	-77.186	-0.218	-0.077
-723.864	388.705	0.111	-0.232
-722.850	123.032	0.200	-0.253
-721.835	-21.402	-0.144	0.089
-720.821	93.215	-0.182	0.208
-719.806	-200.000	-0.062	0.276
-718.791	93.917	-0.030	-0.034
-717.777	-63.385	0.407	-0.169
-716.762	800.000	-0.062	0.237
-715.748	-167.683	-0.255	0.010
-714.733	139.758	0.032	0.043
-713.718	800.000	-0.111	0.340
-712.704	231.462	-0.104	-0.171
-711.689	181.424	-0.216	-0.321
-710.675	-19.296	0.132	0.083
-709.660	68.816	-0.094	0.097
-708.645	93.679	-0.153	-0.175
-707.631	483.881	-0.108	-0.248
-706.616	800.000	-0.046	0.165
-705.602	713.963	0.088	-0.234
-704.587	-200.000	-0.010	0.136
-703.572	215.720	-0.132	-0.211
-702.558	800.000	-0.075	0.284
-701.543	147.313	-0.091	0.124
-700.529	74.149	0.144	0.152
-699.514	-140.100	0.080	-0.008
-698.499	-143.483	-0.076	0.007
-697.485	277.483	-0.148	-0.265
-696.470	-148.553	0.103	-0.008
-695.456	-43.556	-0.313	0.159
-694.441	-83.444	-0.346	-0.112
-693.426	-119.075	0.117	-0.021
-692.412	-164.346	0.132	-0.006
-691.397	2.382	-0.208	0.152
-690.383	37.253	0.121	-0.108
-689.368	-30.235	-0.283	-0.162
-688.354	-200.000	0.006	-0.269
-687.339	-102.293	0.429	0.104
-686.324	-40.154	-0.501	-0.263
-685.310	495.483	-0.057	-0.132
-684.295	-38.174	-0.019	-0.010
-683.281	313.129	0.098	0.185
-682.266	-200.000	-0.033	-0.156
-681.251	20.463	-0.306	0.249
-680.237	-67.480	-0.206	-0.081
-679.222	83.356	-0.242	0.266
-678.208	-200.000	-0.018	-0.144
-677.193	130.411	0.188	0.242
-676.178	-108.998	-0.298	-0.064
-675.164	800.000	0.034	0.099
-674.149	-55.180	0.156	-0.071
-673.135	-200.000	0.007	0.056
-672.120	-4.372	-0.204	-0.142
-671.105	-9.453	-0.297	-0.199
-670.091	-94.900	0.390	-0.106
-669.076	228.339	0.218	0.358
-668.062	283.550	0.030	0.054
-667.047	800.000	-0.068	-0.213
-666.032	58.295	-0.104	0.102
-665.018	-16.388	-0.284	-0.181
-664.003	198.817	0.093	-0.143
-662.989	-138.779	0.579	-0.064
-661.974	-200.000	0.035	0.229
-660.959	361.175	0.090	-0.181
-659.945	124.687	0.163	-0.207
-658.930	-61.191	0.113	0.048
-657.916	800.000	0.051	0.151
-656.901	58.585	0.163	-0.161
-655.886	-40.070	-0.114	-0.060
-654.872	800.000	0.024	-0.070
-653.857	-200.000	-0.021	-0.181
-652.843	-200.000	-0.020	-0.110
-651.828	-23.068	0.212	-0.129
-650.814	-93.711	0.115	-0.032
-649.799	-200.000	0.073	0.400
-648.784	679.031	-0.022	0.057
-647.770	-33.016	-0.176	-0.098
-646.755	-200.000	-0.017	0.205
-645.741	22.734	-0.322	0.265
-644.726	-132.475	-0.195	0.025
-643.711	175.095	-0.095	-0.139
-642.697	-105.097	-0.237	-0.055
-641.682	-26.005	-0.200	-0.118
-640.668	143.513	-0.148	0.198
-639.653	325.717	0.169	0.325
-638.638	73.063	0.228	0.240
-637.624	580.031	-0.010	0.023
-636.609	-200.000	0.057	-0.320
-635.595	-200.000	-0.028	0.220
-634.580	-40.528	0.149	-0.078
-633.565	54.933	-0.056	0.055
-632.551	64.795	-0.240	0.243
-631.536	-48.458	-0.527	0.255
-630.522	-200.000	-0.037	-0.221
-629.507	-41.552	-0.075	0.039
-628.492	11.369	0.133	-0.102
-627.478	800.000	-0.010	0.044
-626.463	460.769	-0.176	0.395
-625.449	200.585	-0.056	0.086
-624.434	-157.468	0.527	-0.032
-623.419	800.000	0.103	-0.289
-622.405	800.000	0.054	-0.152
-621.390	-149.147	0.173	-0.014
-620.376	132.405	-0.094	-0.122
-619.361	-159.404	-0.246	-0.014
-618.346	106.849	-0.082	-0.098
-617.332	-179.248	-0.233	0.005
-616.317	168.867	-0.112	0.160
-615.303	-55.747	0.051	0.023
-614.288	-33.988	0.037	0.020
-613.273	800.000	-0.092	0.329
-612.259	313.206	0.067	-0.127
-611.244	-42.104	-0.165	-0.085
-610.230	570.519	-0.080	-0.195
-609.215	-101.961	0.284	0.069
-608.201	441.128	0.052	0.114
-607.186	118.550	-0.285	-0.353
-606.171	800.000	-0.028	-0.112
-605.157	555.553	0.149	-0.360
-604.142	-94.371	0.295	0.081
-603.128	63.841	-0.145	0.147
-602.113	243.086	-0.150	0.253
-601.098	-61.688	0.034	0.014
-600.084	-149.181	0.173	0.014
-599.069	232.623	-0.138	0.227
-598.055	110.404	-0.080	-0.096
-597.040	-149.901	0.337	0.026
-596.025	27.626	0.164	-0.139
-595.011	-200.000	-0.058	-0.329
-593.996	739.720	-0.056	0.150
-592.982	33.476	-0.092	-0.080
-591.967	-65.149	-0.258	-0.104
-590.952	60.647	0.024	-0.024
-589.938	237.581	-0.104	-0.173
-588.923	88.854	-0.213	0.237
-587.909	-85.954	0.149	0.046
-586.894	24.994	0.407	0.339
-585.879	-49.532	0.293	0.140
-584.865	-125.522	-0.306	0.047
-583.850	-85.677	0.307	0.096
-582.836	129.567	-0.199	0.255
-581.821	37.537	0.052	-0.046
-580.806	800.000	-0.107	-0.343
-579.792	-104.108	-0.262	-0.061
-578.777	491.513	-0.091	-0.208
-577.763	128.064	0.089	0.114
-576.748	15.009	0.178	-0.140
-575.733	-200.000	-0.024	0.134
-574.719	-39.106	-0.225	0.118
-573.704	-200.000	-0.020	-0.200
-572.690	475.171	0.108	-0.245
-571.675	40.333	-0.322	-0.290
-570.661	-61.489	-0.376	-0.159
-569.646	-200.000	-0.062	0.437
-568.631	197.300	-0.111	-0.170
-567.617	800.000	-0.062	0.186
-566.602	-84.393	-0.121	0.038
-565.588	-66.839	-0.312	-0.124
-564.573	-200.000	0.028	0.165
-563.558	516.101	0.048	-0.113
-562.544	-200.000	0.020	-0.122
-561.529	-11.205	-0.278	0.184
-560.515	-159.032	0.076	0.004
-559.500	-156.994	0.341	0.021
-558.485	480.507	0.013	-0.030
-557.471	-6.886	0.366	-0.249
-556.456	237.697	0.087	-0.145
-555.442	-41.972	-0.261	-0.134
-554.427	-78.356	-0.266	0.091
-553.412	-200.000	0.036	-0.254
-552.398	-61.597	0.223	-0.094
-551.383	53.423	-0.297	-0.285
-550.369	-129.046	0.242	-0.034
-549.354	237.443	-0.145	-0.242
-548.339	-64.313	0.153	0.062
-547.325	-23.492	0.106	0.064
-546.310	17.437	-0.065	-0.052
-545.296	-130.195	-0.248	-0.034
-544.281	-21.288	0.145	0.089
-543.266	10.385	0.072	0.055
-542.252	220.416	0.033	0.054
-541.237	-25.544	-0.220	-0.130
-540.223	601.568	0.054	-0.135
-539.208	-134.497	0.162	0.020
-538.193	800.000	-0.018	0.077
-537.179	-200.000	0.025	0.139
-536.164	-200.000	-0.048	0.260
-535.150	-75.037	-0.285	-0.102
-534.135	800.000	-0.087	0.262
-533.121	-118.238	0.263	0.047
-532.106	-200.000	0.004	-0.093
-531.091	-23.002	0.165	0.100
-530.077	-78.719	0.311	0.106
-529.062	800.000	0.078	0.303
-528.048	-138.729	0.090	-0.010
-527.033	-200.000	0.067	0.308
-526.018	-200.000	-0.051	0.227
-525.004	-81.698	0.364	-0.119
-523.989	-107.561	-0.279	-0.061
-522.975	-162.832	-0.221	0.011
-521.960	22.339	-0.332	0.272
-520.945	-36.545	-0.224	0.121
-519.931	-39.872	-0.350	-0.183
-518.916	465.890	-0.135	-0.302
-517.902	482.779	0.079	0.179
-516.887	-131.524	0.048	0.006
-515.872	800.000	-0.028	-0.080
-514.858	76.276	-0.140	0.148
-513.843	31.393	-0.260	-0.224
-512.829	-22.446	-0.090	-0.055
-511.814	-200.000	0.028	-0.142
-510.799	98.465	0.043	-0.050
-509.785	-104.873	-0.126	0.029
-508.770	-13.164	-0.111	0.072
-507.756	800.000	0.069	0.298
-506.741	8.203	0.148	-0.111
-505.726	391.136	-0.191	-0.397
-504.712	473.673	-0.106	0.239
-503.697	349.518	-0.158	0.312
-502.683	140.205	-0.126	0.166
-501.668	314.523	-0.120	-0.227
-500.653	124.724	-0.182	-0.229
-499.639	-200.000	-0.015	0.400
-498.624	-200.000	0.031	0.194
-497.610	-112.324	0.199	-0.040
-496.595	91.484	-0.076	0.085
-495.581	800.000	0.084	0.300
-494.566	86.259	-0.251	-0.277
-493.551	-107.519	0.307	0.067
-492.537	-200.000	-0.053	-0.304
-491.522	-64.257	0.154	0.063
-490.508	800.000	0.050	0.185
-489.493	439.384	0.111	0.242
-488.478	-145.518	-0.122	0.011
-487.464	91.099	-0.044	-0.049
-486.449	-89.250	0.174	0.051
-485.435	182.315	0.085	-0.125
-484.420	68.649	-0.255	-0.262
-483.405	-200.000	0.027	-0.371
-482.391	51.772	0.080	-0.076
-481.376	22.689	-0.101	-0.082
-480.362	-200.000	0.029	-0.202
-479.347	33.936	0.300	-0.261
-478.332	233.332	-0.110	0.180
-477.318	-132.965	-0.157	0.020
-476.303	257.089	0.090	0.154
-475.289	-114.359	-0.340	-0.065
-474.274	180.389	0.078	0.114
-473.259	-108.546	0.406	-0.087
-472.245	31.062	-0.025	-0.022
-471.230	-150.237	-0.202	0.016
-470.216	800.000	0.075	0.265
-469.201	30.296	-0.208	0.178
-468.186	110.554	-0.110	0.133
-467.172	175.704	0.157	-0.228
-466.157	93.974	0.107	-0.121
-465.143	800.000	-0.106	0.326
-464.128	4.864	-0.191	-0.140
-463.113	-105.614	0.068	0.015
-462.099	163.823	0.099	0.139
-461.084	105.724	0.127	0.150
-460.070	395.140	0.111	-0.230
-459.055	-47.426	0.178	0.087
-458.040	630.226	0.132	-0.333
-457.026	-200.000	0.050	-0.361
-456.011	-200.000	-0.103	0.000
-454.997	312.157	-0.033	-0.063
-453.982	-102.148	0.081	0.019
-452.968	-64.310	-0.339	0.138
-451.953	-165.284	-0.303	0.013
-450.938	-200.000	0.004	-0.383
-449.924	-115.236	0.196	0.037
-448.909	-145.892	0.337	0.030
-447.895	567.444	0.122	-0.296
-446.880	160.268	0.091	0.126
-445.865	161.980	0.094	-0.131
-444.851	70.642	-0.154	-0.159
-443.836	800.000	0.062	-0.198
-442.822	-200.000	-0.384	-0.000
-441.807	-83.388	-0.070	-0.022
-440.792	-200.000	-0.024	-0.191
-439.778	-123.916	0.193	0.030
-438.763	61.402	0.069	0.068
-437.749	63.583	-0.281	-0.281
-436.734	-179.832	0.311	-0.007
-435.719	-200.000	0.012	-0.370
-434.705	-49.822	0.334	-0.158
-433.690	-200.000	0.027	-0.227
-432.676	-137.963	0.180	0.020
-431.661	-163.906	-0.239	0.011
-430.646	-86.632	-0.287	0.088
-429.632	-200.000	0.005	0.247
-428.617	-96.850	-0.379	0.099
-427.603	-200.000	0.077	-0.394
-426.588	-200.000	0.021	0.250
-425.573	194.414	0.175	-0.265
-424.559	-52.235	0.176	0.082
-423.544	800.000	0.174	0.534
-422.530	-124.675	-0.294	0.045
-421.515	800.000	-0.055	0.207
-420.500	-164.961	0.363	-0.016
-419.486	520.258	0.077	0.180
-418.471	79.636	-0.177	-0.190
-417.457	118.101	0.137	-0.169
-416.442	-167.107	0.279	0.011
-415.428	-200.000	-0.015	0.163
-414.413	1.240	0.114	0.082
-413.398	72.758	0.067	0.070
-412.384	-89.005	0.093	-0.027
-411.369	337.530	-0.143	0.277
-410.355	-104.495	-0.193	-0.045
-409.340	39.280	0.055	0.049
-408.325	-94.586	-0.080	-0.022
-407.311	-176.530	-0.456	0.012
-406.296	17.829	0.209	0.166
-405.282	371.842	-0.097	0.196
-404.267	-200.000	0.004	0.508
-403.252	-200.000	0.051	0.410
-402.238	-27.864	-0.071	0.041
-401.223	-200.000	-0.097	-0.527
-400.209	303.784	-0.056	0.103
-399.194	-200.000	-0.015	0.281
-398.179	-73.431	-0.070	0.025
-397.165	256.910	-0.078	-0.133
-396.150	8.673	-0.235	0.176
-395.136	-104.048	-0.215	0.050
-394.121	186.142	-0.122	-0.181
-393.106	-28.933	-0.416	0.238
-392.092	440.900	0.055	-0.121
-391.077	104.866	-0.038	0.044
-390.063	-129.502	-0.136	0.019
-389.048	-56.791	-0.199	-0.088
-388.033	147.640	0.137	0.184
-387.019	82.260	0.066	-0.072
-386.004	38.802	0.156	0.139
-384.990	136.778	-0.065	0.084
-383.975	-200.000	0.014	-0.168
-382.960	91.591	0.338	-0.378
-381.946	-26.829	-0.313	-0.182
-380.931	-200.000	0.009	0.067
-379.917	-42.919	0.223	-0.113
-378.902	645.543	0.067	0.170
-377.888	-200.000	0.252	-0.001
-376.873	-91.220	-0.368	0.105
-375.858	-63.117	0.192	-0.079
-374.844	61.435	0.038	0.038
-373.829	-80.291	0.382	0.127
-372.815	187.889	-0.080	0.119
-371.800	228.267	0.146	0.237
-370.785	613.208	0.104	0.259
-369.771	1.096	-0.077	-0.055
-368.756	800.000	-0.098	0.412
-367.742	-200.000	-0.013	0.281
-366.727	-103.926	0.479	0.111
-365.712	297.913	-0.088	-0.160
-364.698	-157.193	-0.465	-0.028
-363.683	-200.000	-0.067	-0.302
-362.669	-200.000	0.024	0.305
-361.654	245.750	0.180	0.301
-360.639	166.999	0.079	0.111
-359.625	-84.140	-0.048	-0.015
-358.610	29.125	-0.041	-0.035
-357.596	9.083	-0.287	-0.216
-356.581	-30.438	-0.117	-0.066
-355.566	-200.000	0.026	-0.209
-354.552	-185.956	0.204	-0.003
-353.537	91.209	-0.381	0.425
-352.523	-200.000	0.016	0.081
-351.508	800.000	-0.020	-0.074
-350.493	-70.350	0.201	0.076
-349.479	800.000	0.108	-0.302
-348.464	-200.000	-0.085	0.470
-347.450	87.988	0.208	-0.229
-346.435	-200.000	-0.010	-0.345
-345.420	-200.000	0.047	0.309
-344.406	85.456	0.150	0.163
-343.391	-123.565	-0.123	0.019
-342.377	0.460	-0.266	0.189
-341.362	-48.031	-0.089	-0.043
-340.348	278.044	-0.017	-0.031
-339.333	418.941	0.110	0.234
-338.318	-116.558	0.293	0.054
-337.304	-118.600	-0.304	-0.053
-336.289	-200.000	-0.060	0.300
-335.275	800.000	-0.011	0.040
-334.260	-124.727	0.078	0.012
-333.245	-35.226	-0.294	-0.159
-332.231	-105.135	0.025	0.006
-331.216	4.232	-0.149	0.109
-330.202	-48.230	0.222	0.107
-329.187	-200.000	-0.083	0.376
-328.172	-112.069	-0.192	0.038
-327.158	-171.799	-0.082	0.003
-326.143	-130.655	0.186	0.025
-325.129	69.244	-0.328	-0.335
-324.114	124.679	0.046	-0.057
-323.099	800.000	0.042	-0.130
-322.085	47.136	0.159	-0.147
-321.070	-135.773	-0.157	0.018
-320.056	-200.000	-0.002	-0.029
-319.041	-200.000	-0.090	-0.399
-318.026	239.582	-0.151	-0.250
-317.012	252.300	0.194	-0.329
-315.997	-200.000	0.083	-0.361
-314.983	129.351	0.034	-0.044
-313.968	-200.000	0.007	-0.251
-312.953	-29.256	0.326	0.185
-311.939	-200.000	-0.031	0.263
-310.924	-119.484	-0.095	0.016
-309.910	-45.218	-0.217	-0.107
-308.895	800.000	0.048	-0.173
-307.880	84.469	0.216	-0.234
-306.866	-66.759	-0.368	-0.145
-305.851	800.000	0.098	-0.300
-304.837	-39.386	0.207	0.108
-303.822	-200.000	-0.034	-0.328
-302.807	390.583	0.102	0.210
-301.793	-200.000	-0.028	0.367
-300.778	55.529	0.135	0.130
-299.764	180.985	-0.078	-0.113
-298.749	124.106	-0.126	-0.157
-297.735	44.384	0.081	0.074
-296.720	509.732	0.175	-0.403
-295.705	415.767	0.090	-0.191
-294.691	176.393	-0.113	0.163
-293.676	103.426	0.136	0.159
-292.662	88.455	0.147	0.162
-291.647	-200.000	-0.036	-0.232
-290.632	-151.964	-0.301	-0.022
-289.618	-196.012	0.408	-0.003
-288.603	-158.504	-0.140	0.008
-287.589	-37.242	0.059	0.031
-286.574	140.671	-0.100	-0.130
-285.559	-200.000	-0.033	0.336
-284.545	318.479	0.099	0.187
-283.530	-106.340	-0.191	-0.042
-282.516	288.428	-0.043	0.077
-281.501	-149.151	0.264	-0.021
-280.486	-103.398	-0.211	-0.049
-279.472	70.270	-0.155	0.159
-278.457	23.064	0.332	0.270
-277.443	-72.216	0.028	-0.010
-276.428	-124.446	0.176	-0.027
-275.413	-11.032	-0.160	0.105
-274.399	-61.205	0.343	-0.143
-273.384	73.626	-0.256	0.266
-272.370	61.238	0.028	-0.028
-271.355	125.342	-0.149	0.186
-270.340	607.183	0.055	0.135
-269.326	800.000	-0.084	-0.344
-268.311	-57.862	0.028	-0.012
-267.297	751.176	0.097	0.260
-266.282	20.413	0.324	0.259
-265.267	-12.711	0.035	-0.022
-264.253	195.765	0.123	-0.186
-263.238	-200.000	-0.022	-0.199
-262.224	-119.889	-0.056	-0.009
-261.209	288.357	0.115	0.207
-260.195	-101.620	0.260	-0.063
-259.180	800.000	-0.100	-0.352
-258.165	-200.000	-0.001	-0.141
-257.151	-52.622	0.284	-0.130
-256.136	30.283	-0.199	0.168
-255.122	-200.000	-0.008	0.049
-254.107	271.113	-0.012	0.022
-253.092	-2.190	0.211	-0.146
-252.078	800.000	0.028	-0.111
-251.063	800.000	0.051	-0.170
-250.049	574.058	0.085	-0.205
-249.034	752.694	-0.010	-0.026
-248.019	-25.940	-0.230	-0.134
-247.005	-69.850	-0.176	-0.066
-245.990	74.477	0.164	0.171
-244.976	273.145	0.086	-0.151
-243.961	800.000	0.029	0.080
-242.946	-200.000	0.017	-0.242
-241.932	-16.782	0.235	0.147
-240.917	221.617	0.077	0.122
-239.903	-21.737	0.290	0.174
-238.888	610.017	-0.058	-0.143
-237.873	-200.000	-0.051	0.366
-236.859	272.901	-0.058	0.102
-235.844	-69.020	0.276	0.105
-234.830	4.561	0.165	0.120
-233.815	-14.551	0.114	0.072
-232.800	-23.384	0.188	-0.112
-231.786	60.730	-0.142	-0.140
-230.771	122.191	-0.095	0.118
-229.757	410.566	-0.055	0.116
-228.742	-132.133	0.320	0.041
-227.727	205.331	0.045	-0.069
-226.713	-200.000	-0.001	-0.181
-225.698	547.132	0.106	-0.251
-224.684	16.230	0.089	0.069
-223.669	-200.000	-0.000	-0.169
-222.655	7.807	-0.131	0.097
-221.640	256.280	0.035	0.060
-220.625	266.651	0.078	-0.134
-219.611	118.440	0.066	-0.081
-218.596	41.275	-0.197	-0.176
-217.582	-200.000	-0.004	0.064
-216.567	-200.000	-0.314	-0.001
-215.552	-94.103	0.476	0.129
-214.538	-200.000	-0.031	0.176
-213.523	546.269	0.062	0.147
-212.509	-200.000	0.053	0.357
-211.494	-200.000	-0.079	-0.408
-210.479	-92.717	0.194	0.054
-209.465	37.263	0.330	-0.289
-208.450	-28.607	0.208	0.118
-207.436	-140.667	0.062	0.006
-206.421	159.945	0.119	0.164
-205.406	244.774	-0.122	-0.202
-204.392	800.000	-0.033	-0.124
-203.377	127.017	0.149	-0.187
-202.363	-57.632	-0.276	-0.119
-201.348	-118.160	-0.272	-0.048
-200.333	-12.240	-0.087	-0.056
-199.319	-57.900	0.282	-0.122
-198.304	-78.535	0.244	-0.082
-197.290	75.931	0.109	-0.114
-196.275	168.737	-0.105	0.148
-195.260	72.738	-0.212	0.219
-194.246	-200.000	-0.001	-0.302
-193.231	800.000	0.070	-0.199
-192.217	61.352	0.172	0.169
-191.202	203.560	-0.083	-0.127
-190.187	23.846	-0.210	-0.171
-189.173	260.867	0.074	0.127
-188.158	-56.074	-0.149	0.065
-187.144	-98.656	-0.210	0.053
-186.129	-11.755	0.230	0.149
-185.114	69.934	-0.187	0.190
-184.100	-89.116	0.295	0.086
-183.085	-152.134	0.044	0.003
-182.071	778.827	0.127	-0.344
-181.056	11.128	0.206	0.155
-180.042	176.986	0.218	-0.314
-179.027	26.215	0.143	-0.118
-178.012	-80.242	-0.137	0.045
-176.998	-175.543	-0.366	0.010
-175.983	223.324	0.148	-0.235
-174.969	800.000	0.067	-0.213
-173.954	-52.859	0.159	0.072
-172.939	-136.368	0.393	0.045
-171.925	-151.233	-0.243	0.018
-170.910	-200.000	0.061	-0.411
-169.896	588.923	0.127	0.308
-168.881	-200.000	-0.023	-0.203
-167.866	25.272	0.233	0.191
-166.852	-200.000	-0.002	0.238
-165.837	-139.727	0.165	0.017
-164.823	69.724	-0.119	0.121
-163.808	-95.300	0.156	0.042
-162.793	-133.648	0.183	-0.023
-161.779	-200.000	0.011	-0.167
-160.764	800.000	0.091	-0.287
-159.750	-65.984	-0.207	0.081
-158.735	-99.429	-0.123	0.030
-157.720	-171.984	-0.358	-0.011
-156.706	-200.000	-0.002	0.133
-155.691	-33.202	-0.177	-0.097
-154.677	149.375	0.235	0.314
-153.662	-69.075	0.052	0.020
-152.647	800.000	-0.116	-0.376
-151.633	-101.444	0.113	-0.027
-150.618	800.000	0.005	0.019
-149.604	-113.075	0.138	0.027
-148.589	800.000	-0.105	-0.337
-147.574	720.888	0.222	-0.582
-146.560	-128.413	-0.332	0.046
-145.545	-200.000	0.024	-0.229
-144.531	-101.854	-0.160	-0.038
-143.516	-8.695	0.217	-0.143
-142.502	-109.130	-0.370	-0.078
-141.487	163.464	-0.079	-0.110
-140.472	800.000	0.083	-0.262
-139.458	308.234	0.013	-0.024
-138.443	520.030	0.029	-0.067
-137.429	-200.000	0.020	-0.356
-136.414	-7.094	0.187	-0.125
-135.399	800.000	0.078	0.240
-134.385	-156.396	0.195	0.012
-133.370	-3.204	0.230	-0.158
-132.356	-200.000	-0.039	0.205
-131.341	800.000	0.136	-0.401
-130.326	-176.395	-0.047	0.001
-129.312	800.000	-0.063	0.180
-128.297	-183.234	-0.429	0.007
-127.283	51.940	-0.102	-0.096
-126.268	-115.365	0.022	-0.004
-125.253	-160.368	0.156	0.008
-124.239	-29.655	0.241	-0.135
-123.224	162.361	0.082	0.114
-122.210	800.000	-0.114	-0.413
-121.195	-94.167	0.250	0.067
-120.180	800.000	0.063	-0.256
-119.166	-200.000	0.054	0.239
-118.151	-94.413	-0.139	-0.037
-117.137	-200.000	0.051	0.391
-116.122	13.389	0.030	-0.023
-115.107	121.453	-0.281	-0.344
-114.093	307.120	-0.189	0.346
-113.078	-17.337	0.077	0.047
-112.064	-200.000	-0.022	-0.121
-111.049	-200.000	0.082	0.396
-110.034	80.743	-0.033	-0.035
-109.020	-149.917	0.319	-0.025
-108.005	-58.145	-0.426	0.183
-106.991	-4.417	-0.152	0.103
-105.976	118.132	-0.159	-0.193
-104.962	249.246	0.114	-0.190
-103.947	-35.644	-0.135	0.072
-102.932	-200.000	-0.037	-0.363
-101.918	-109.544	-0.540	0.112
-100.903	-105.256	0.385	0.087
-99.889	-120.440	0.455	-0.076
-98.874	-8.683	-0.104	0.068
-97.859	800.000	-0.074	0.212
-96.845	-200.000	-0.034	0.175
-95.830	4.199	0.152	0.110
-94.816	-140.686	0.272	0.028
-93.801	-66.346	0.217	0.085
-92.786	-200.000	-0.046	-0.207
-91.772	-200.000	0.029	-0.215
-90.757	800.000	0.056	0.155
-89.743	-125.725	0.150	0.022
-88.728	-195.025	0.115	0.001
-87.713	-124.246	0.164	-0.025
-86.699	-200.000	-0.062	-0.268
-85.684	635.696	-0.031	-0.077
-84.670	657.762	0.032	0.082
-83.655	-36.716	0.190	0.101
-82.640	608.705	0.055	0.136
-81.626	-48.381	0.291	-0.138
-80.611	-200.000	0.036	0.341
-79.597	-128.389	-0.335	0.047
-78.582	-111.017	-0.113	0.023
-77.567	-67.378	-0.196	0.076
-76.553	36.598	0.166	-0.144
-75.538	655.504	-0.109	-0.276
-74.524	-90.004	-0.118	0.034
-73.509	-32.722	0.288	-0.158
-72.494	-129.861	-0.122	-0.017
-71.480	36.665	0.182	0.158
-70.465	-105.771	-0.184	0.041
-69.451	-200.000	-0.022	-0.207
-68.436	121.194	0.082	0.101
-67.422	104.416	0.150	0.174
-66.407	718.572	0.055	0.144
-65.392	360.387	0.144	0.283
-64.378	177.908	0.119	-0.171
-63.363	-200.000	0.009	-0.041
-62.349	37.170	0.169	-0.147
-61.334	25.094	-0.931	-0.759
-60.319	353.523	0.235	0.458
-59.305	134.094	-0.684	-0.871
-58.290	153.967	0.696	0.938
-57.276	438.232	0.642	1.377
-56.261	-200.000	98.776	606.057
-55.246	599.688	1395.884	3404.504
-54.232	195.219	2573.233	3841.047
-53.217	119.051	2135.289	2594.489
-52.203	43.792	1596.372	1436.272
-51.188	35.533	1334.022	1150.947
-50.173	32.283	1292.760	1096.387
-49.159	55.313	1341.900	1275.326
-48.144	57.520	1358.584	1304.212
-47.130	35.585	1316.368	1135.845
-46.115	32.084	1298.822	1100.188
-45.100	31.806	1293.586	1094.087
-44.086	31.918	1290.925	1092.449
-43.071	31.715	1289.207	1089.771
-42.057	31.695	1287.379	1088.062
-41.042	31.827	1284.854	1086.651
-40.027	31.792	1283.913	1085.611
-39.013	31.726	1282.164	1083.706
-37.998	31.745	1280.157	1082.075
-36.984	31.908	1278.234	1081.349
-35.969	31.840	1276.605	1079.539
-34.954	31.821	1275.128	1078.138
-33.940	31.883	1273.926	1077.431
-32.925	31.988	1272.459	1076.752
-31.911	31.889	1271.285	1075.149
-30.896	32.041	1269.156	1074.174
-29.881	32.084	1267.962	1073.368
-28.867	32.053	1266.434	1071.857
-27.852	31.966	1265.357	1070.402
-26.838	32.107	1263.806	1069.855
-25.823	31.960	1262.579	1067.934
-24.809	31.946	1261.106	1066.566
-23.794	31.933	1259.986	1065.501
-22.779	31.872	1258.829	1064.137
-21.765	31.922	1257.299	1063.087
-20.750	31.883	1256.741	1062.352
-19.736	31.831	1254.893	1060.452
-18.721	31.759	1253.809	1059.084
-17.706	31.788	1252.489	1058.090
-16.692	31.919	1250.900	1057.449
-15.677	31.815	1250.287	1056.302
-14.663	31.845	1248.946	1055.296
-13.648	31.817	1248.226	1054.486
-12.633	31.779	1246.991	1053.189
-11.619	31.767	1246.467	1052.637
-10.604	31.782	1245.435	1051.808
-9.590	31.716	1244.837	1050.890
-8.575	31.799	1243.179	1049.916
-7.560	31.701	1242.855	1049.047
-6.546	31.757	1242.175	1048.749
-5.531	31.807	1241.027	1048.018
-4.517	31.767	1240.420	1047.238
-3.502	31.779	1239.373	1046.382
-2.487	31.644	1238.381	1044.748
-1.473	31.733	1233.806	1041.344
-0.458	29.902	1218.034	1017.931
0.556	26.410	1199.928	973.698
1.571	21.993	1203.455	952.559
2.586	20.942	1217.413	957.753
3.600	20.075	1206.039	943.997
4.615	15.032	1136.508	863.543
5.629	7.657	1063.697	772.415
6.644	4.082	1045.014	741.686
7.659	3.869	1042.768	739.008
8.673	3.905	1041.308	738.079
9.688	3.794	1040.762	737.096
10.702	4.030	1038.427	736.503
11.717	8.254	1043.790	760.400
12.731	16.062	1054.763	805.789
13.746	20.362	1060.409	830.648
14.761	20.867	1059.940	832.623
15.775	19.909	1058.211	826.618
16.790	18.798	1056.641	820.018
17.804	18.147	1054.530	815.206
18.819	17.912	1053.496	813.216
19.834	17.755	1053.065	812.061
20.848	17.561	1052.876	810.920
21.863	17.355	1051.644	808.919
22.877	17.310	1050.939	808.092
23.892	17.226	1050.200	807.052
24.907	17.171	1049.636	806.286
25.921	17.154	1048.210	805.041
26.936	17.232	1047.012	804.417
27.950	17.292	1045.610	803.552
28.965	17.277	1043.937	802.127
29.980	17.473	1042.700	802.028
30.994	17.628	1041.628	801.863
32.009	17.633	1040.960	801.302
33.023	17.594	1039.564	799.972
34.038	17.388	1038.676	798.249
35.053	17.508	1037.607	797.921
36.067	17.472	1036.760	797.031
37.082	17.504	1035.893	796.444
38.096	17.486	1035.386	795.898
39.111	17.466	1034.985	795.428
40.126	17.277	1033.658	793.456
41.140	17.107	1032.026	791.338
42.155	17.093	1030.902	790.342
43.169	16.845	1029.992	788.419
44.184	16.981	1028.769	788.046
45.199	16.984	1027.843	787.282
46.213	17.094	1026.908	787.008
47.228	17.310	1026.309	787.477
48.242	17.430	1024.808	786.810
49.257	17.300	1024.435	785.855
50.271	17.345	1023.509	785.281
51.286	17.475	1022.380	784.945
52.301	17.398	1021.524	783.864
53.315	17.246	1020.615	782.400
54.330	17.160	1019.142	780.803
55.344	17.113	1018.620	780.118
56.359	17.154	1017.367	779.279
57.374	17.097	1017.100	778.746
58.388	17.032	1016.566	777.969
59.403	17.027	1014.927	776.625
60.417	16.965	1014.379	775.853
61.432	16.871	1013.866	774.959
62.447	16.916	1012.768	774.257
63.461	16.819	1012.146	773.273
64.476	16.712	1011.566	772.270
65.490	16.876	1010.419	772.073
66.505	16.884	1009.353	771.230
67.520	16.780	1009.221	770.585
68.534	16.833	1008.429	770.156
69.549	16.791	1007.815	769.426
70.563	16.785	1006.547	768.365
71.578	16.734	1005.690	767.412
72.593	16.579	1005.165	766.239
73.607	16.557	1004.575	765.623
74.622	16.625	1003.868	765.322
75.636	16.696	1003.212	765.078
76.651	16.756	1002.137	764.461
77.666	16.764	1001.882	764.232
78.680	16.740	1001.409	763.696
79.695	16.700	1000.737	762.938
80.709	16.939	1000.066	763.432
81.724	17.020	999.645	763.410
82.739	17.129	998.783	763.174
83.753	17.331	998.176	763.548
84.768	17.540	997.869	764.183
85.782	17.721	996.454	763.845
86.797	17.581	995.308	762.274
87.812	17.332	994.855	760.742
88.826	17.360	993.605	759.846
89.841	17.470	992.779	759.636
90.855	17.640	991.833	759.604
91.870	17.588	991.230	758.845
92.884	17.599	990.090	757.954
93.899	17.639	989.354	757.502
94.914	17.631	988.759	756.942
95.928	17.795	987.692	756.787
96.943	17.625	987.164	755.561
97.957	17.489	986.351	754.267
98.972	17.537	985.207	753.541
99.987	17.476	984.726	752.833
101.001	17.510	983.621	752.072
102.016	17.462	982.731	751.114
103.030	17.703	982.063	751.601
104.045	17.504	981.358	750.120
105.060	17.441	979.905	748.663
106.074	17.099	979.328	746.655
107.089	17.011	978.015	745.200
108.103	17.014	977.431	744.701
109.118	16.929	976.330	743.426
110.133	16.827	975.354	742.171
111.147	16.947	974.604	742.056
112.162	17.007	973.820	741.657
113.176	17.076	973.222	741.437
114.191	17.144	972.324	740.987
115.206	17.217	971.391	740.525
116.220	16.895	971.479	739.123
117.235	17.095	970.038	738.835
118.249	17.071	969.052	737.912
119.264	17.068	968.188	737.178
120.279	16.812	967.932	735.802
121.293	16.864	966.825	735.122
122.308	16.879	965.684	734.256
123.322	16.873	964.928	733.591
124.337	16.723	963.849	732.055
125.352	16.711	962.572	730.971
126.366	16.749	961.667	730.380
127.381	16.791	960.843	729.875
128.395	16.764	960.033	729.075
129.410	16.863	959.019	728.667
130.424	17.016	958.534	728.891
131.439	17.040	957.727	728.316
132.454	17.064	957.002	727.802
133.468	17.104	956.532	727.552
134.483	17.278	954.810	726.925
135.497	17.194	954.337	726.141
136.512	17.088	954.166	725.492
137.527	17.161	953.261	725.052
138.541	17.231	952.124	724.424
139.556	17.103	952.070	723.770
140.570	17.407	951.157	724.309
141.585	17.537	950.386	724.208
142.600	17.522	949.258	723.220
143.614	17.553	948.996	723.087
144.629	17.739	947.760	722.870
145.643	17.448	947.106	721.078
146.658	17.444	945.746	719.960
147.673	17.188	944.929	718.191
148.687	17.161	944.325	717.558
149.702	17.136	942.927	716.323
150.716	17.174	942.219	715.884
151.731	17.190	941.502	715.341
152.746	17.262	940.796	715.047
153.760	17.234	940.145	714.372
154.775	17.385	940.020	714.846
155.789	17.519	939.188	714.713
156.804	17.455	937.956	713.446
157.819	17.532	937.471	713.336
158.833	17.664	937.225	713.637
159.848	17.793	936.232	713.355
160.862	17.533	935.515	711.664
161.877	17.411	933.603	709.634
162.892	17.158	933.243	708.244
163.906	17.250	932.160	707.744
164.921	17.151	931.636	706.869
165.935	17.309	930.568	706.653
166.950	17.415	929.575	706.279
167.964	17.378	929.122	705.717
168.979	17.345	928.113	704.751
169.994	17.389	927.048	704.064
171.008	17.415	926.333	703.566
172.023	17.564	926.082	703.928
173.037	17.539	925.602	703.397
174.052	17.617	924.440	702.774
175.067	17.474	923.812	701.646
176.081	17.262	923.313	700.330
177.096	17.123	923.321	699.701
178.110	17.308	922.247	699.589
179.125	17.387	921.550	699.320
180.140	17.434	921.708	699.571
181.154	17.378	920.887	698.657
182.169	17.500	920.910	699.115
183.183	17.816	919.831	699.530
184.198	17.680	918.808	698.131
185.213	17.727	918.134	697.751
186.227	17.773	917.758	697.591
187.242	17.686	917.316	696.838
188.256	18.061	916.657	697.807
189.271	17.921	915.806	696.525
190.286	17.640	914.667	694.454
191.300	17.112	914.026	691.755
192.315	17.145	912.792	690.896
193.329	17.081	913.017	690.745
194.344	17.334	912.284	691.157
195.359	17.500	911.789	691.392
196.373	17.581	911.234	691.240
197.388	17.757	910.844	691.596
198.402	17.990	910.148	691.950
199.417	17.988	909.818	691.633
200.432	18.190	909.217	691.929
201.446	18.199	908.953	691.705
202.461	18.178	908.754	691.406
203.475	18.116	907.801	690.370
204.490	18.014	906.327	688.779
205.504	17.804	905.697	687.392
206.519	17.774	905.190	686.824
207.534	17.779	904.500	686.262
208.548	17.900	903.723	686.098
209.563	17.900	903.120	685.579
210.577	17.966	902.079	684.992
211.592	18.194	901.823	685.652
212.607	18.228	900.977	685.084
213.621	18.062	900.270	683.821
214.636	18.085	899.683	683.405
215.650	18.165	898.845	683.030
216.665	18.176	898.208	682.529
217.680	18.257	897.927	682.579
218.694	18.165	897.330	681.697
219.709	18.359	896.543	681.813
220.723	18.288	895.710	680.834
221.738	18.146	895.210	679.830
222.753	18.238	894.409	679.528
223.767	18.256	894.117	679.319
224.782	18.478	893.357	679.561
225.796	18.423	892.876	678.916
226.811	18.367	892.225	678.137
227.826	18.115	891.328	676.400
228.840	18.247	890.075	675.911
229.855	18.235	889.622	675.461
230.869	18.145	889.157	674.693
231.884	18.000	888.629	673.660
232.899	18.165	887.698	673.545
233.913	17.964	887.145	672.276
234.928	17.876	886.504	671.384
235.942	17.964	886.053	671.327
236.957	17.907	885.620	670.716
237.972	18.034	885.196	670.836
238.986	18.076	884.234	670.212
240.001	18.092	884.028	670.057
241.015	18.203	883.036	669.682
242.030	18.171	882.684	669.229
243.045	18.183	882.275	668.907
244.059	18.238	881.570	668.527
245.074	18.355	880.943	668.451
246.088	18.341	880.637	668.105
247.103	18.460	879.756	667.842
248.117	18.560	879.530	668.001
249.132	18.850	878.844	668.549
250.147	18.841	878.764	668.393
251.161	18.916	878.338	668.303
252.176	18.989	877.626	667.985
253.190	19.085	876.351	667.328
254.205	19.207	876.109	667.557
255.220	19.085	874.994	666.176
256.234	19.054	874.863	665.897
257.249	19.046	874.066	665.200
258.263	18.945	873.455	664.288
259.278	19.117	873.039	664.576
260.293	19.063	872.489	663.892
261.307	19.130	872.114	663.803
262.322	19.126	871.090	662.951
263.336	19.150	870.460	662.504
264.351	19.146	869.677	661.834
265.366	19.330	868.776	661.797
266.380	19.100	868.564	660.696
267.395	19.166	867.673	660.210
268.409	19.116	866.969	659.425
269.424	19.085	865.974	658.493
270.439	18.975	865.368	657.552
271.453	18.885	864.626	656.587
272.468	18.941	864.139	656.374
273.482	18.976	863.839	656.219
274.497	19.039	863.160	655.888
275.512	18.877	862.507	654.716
276.526	18.916	862.398	654.721
277.541	19.053	862.117	654.971
278.555	19.160	861.366	654.751
279.570	19.281	861.034	654.903
280.585	19.220	860.066	653.877
281.599	19.194	858.952	652.871
282.614	18.972	858.406	651.557
283.628	19.071	857.824	651.435
284.643	19.089	857.413	651.132
285.657	19.020	856.949	650.460
286.672	19.110	856.058	650.065
287.687	19.114	855.614	649.689
288.701	19.081	855.042	649.072
289.716	19.042	854.624	648.550
290.730	19.211	853.571	648.330
291.745	19.356	853.177	648.518
292.760	19.334	852.589	647.931
293.774	19.356	852.184	647.648
294.789	19.512	851.219	647.444
295.803	19.223	850.918	646.075
296.818	19.125	849.937	644.903
297.833	19.294	849.378	645.056
298.847	19.388	848.735	644.861
299.862	19.471	848.156	644.674
300.876	19.306	848.274	644.090
301.891	19.423	847.493	643.877
302.906	19.567	847.048	644.021
303.920	19.803	846.193	644.191
304.935	19.828	845.943	644.039
305.949	19.525	845.101	642.214
306.964	19.427	844.894	641.634
307.979	19.639	843.935	641.636
308.993	19.667	843.585	641.416
310.008	19.775	842.813	641.174
311.022	19.623	842.316	640.176
312.037	19.603	841.749	639.614
313.052	19.382	840.993	638.167
314.066	19.240	840.280	637.045
315.081	19.278	839.982	636.902
316.095	19.370	839.402	636.745
317.110	19.322	839.180	636.344
318.125	19.272	838.281	635.420
319.139	19.248	837.781	634.898
320.154	19.383	837.382	635.034
321.168	19.556	836.688	635.088
322.183	19.350	836.338	634.008
323.197	19.552	835.898	634.364
324.212	19.553	835.062	633.675
325.227	19.556	834.464	633.176
326.241	19.493	834.198	632.687
327.256	19.472	833.897	632.326
328.270	19.391	833.080	631.354
329.285	19.347	832.475	630.679
330.300	19.406	831.648	630.214
331.314	19.455	831.273	630.050
332.329	19.590	831.154	630.400
333.343	19.729	830.517	630.368
334.358	19.710	829.943	629.805
335.373	19.755	829.882	629.870
336.387	19.706	829.581	629.404
337.402	19.697	829.830	629.507
338.416	19.968	829.260	630.004
339.431	19.996	828.812	629.710
340.446	20.156	828.494	629.995
341.460	20.162	828.012	629.592
342.475	20.120	827.566	629.044
343.489	20.249	827.221	629.195
344.504	20.263	826.549	628.680
345.519	20.357	826.177	628.683
346.533	20.199	825.291	627.379
347.548	20.045	824.797	626.392
348.562	19.963	824.243	625.619
349.577	19.878	823.772	624.901
350.592	19.821	822.788	623.892
351.606	20.000	821.768	623.709
352.621	19.956	821.290	623.134
353.635	19.896	821.025	622.662
354.650	20.126	820.120	622.744
355.665	20.115	819.947	622.521
356.679	20.186	819.097	622.074
357.694	20.045	818.827	621.308
358.708	20.133	817.563	620.611
359.723	20.225	817.567	620.886
360.738	20.171	816.793	620.052
361.752	20.157	816.381	619.632
362.767	20.384	816.075	620.156
363.781	20.325	815.676	619.587
364.796	20.554	814.884	619.749
365.810	20.577	815.082	619.925
366.825	20.642	814.568	619.710
367.840	20.538	813.710	618.635
368.854	20.500	813.336	618.161
369.869	20.431	812.756	617.420
370.883	20.455	812.471	617.232
371.898	20.531	812.363	617.367
372.913	20.797	811.703	617.754
373.927	20.508	811.307	616.372
374.942	20.698	810.385	616.292
375.956	20.659	810.155	615.924
376.971	20.736	810.058	616.068
377.986	20.666	809.636	615.446
379.000	20.838	809.158	615.634
380.015	20.741	809.122	615.209
381.029	20.705	808.373	614.459
382.044	20.819	807.272	613.969
383.059	20.870	806.380	613.418
384.073	20.795	805.778	612.640
385.088	20.538	805.563	611.518
386.102	20.616	804.641	611.041
387.117	20.503	804.242	610.286
388.132	20.492	803.392	609.549
389.146	20.698	803.171	610.048
390.161	20.632	803.211	609.793
391.175	20.717	802.836	609.751
392.190	20.587	802.139	608.714
393.205	20.600	801.450	608.183
394.219	20.543	801.040	607.619
395.234	20.463	800.488	606.868
396.248	20.453	800.008	606.413
397.263	20.515	799.212	605.973
398.278	20.470	799.041	605.633
399.292	20.479	798.711	605.362
400.307	20.332	798.444	604.592
401.321	20.525	797.831	604.746
402.336	20.488	797.851	604.580
403.350	20.648	797.296	604.663
404.365	20.734	797.199	604.835
405.380	20.919	796.459	604.861
406.394	20.862	796.095	604.334
407.409	21.027	795.931	604.728
408.423	21.098	795.587	604.659
409.438	21.106	795.175	604.318
410.453	21.178	794.629	604.102
411.467	21.110	794.096	603.408
412.482	21.376	793.638	603.924
413.496	21.405	793.463	603.839
414.511	21.234	792.865	602.741
415.526	21.279	792.549	602.601
416.540	21.193	792.120	601.924
417.555	21.249	791.639	601.699
418.569	21.299	791.042	601.364
419.584	21.333	790.547	601.052
420.599	21.148	790.303	600.176
421.613	161.637	1370.082	1793.930
422.628	140.022	1454.581	1794.022
