DTS Sentinel unit serial number:	SN413079Multiplexer serial number:	ORYXHardware model number:	OX4-SRSoftware version number:	ORYX F/W v4.00 Oryx Data Collector v3.7.2.0data status	okinstallation	princeton_trtdifferential loss correction	single-endedforward channel	channel 1reverse channel	N/Adate	2019/09/19time	05:14:35forward acquisition time	60.00reverse acquisition time	0.00gamma	496.2192k internal	0.2342k external	0.2342temperature offset calibration	1.0019default loss term (dB/km)	0.3790temperature slope calibration	1.0000multiplexer offset coefficient	1.0000multiplexer slope coefficient	1.0000fibre end	0.00T internal ref (°C)	19.52T ext. ref 1 (°C)	0.59T ext. ref 2 (°C)	12.80length (m)	temperature (°C)	Stokes	anti-Stokes-747.200	252.360	-0.043	0.073
-746.185	437.115	-0.098	-0.213
-745.171	15.924	-0.161	0.127
-744.156	148.011	-0.271	0.366
-743.142	121.299	0.133	-0.166
-742.127	499.473	-0.112	0.259
-741.112	800.000	-0.111	0.318
-740.098	58.895	-0.195	0.192
-739.083	17.088	0.226	-0.179
-738.069	800.000	-0.011	0.045
-737.054	-82.269	-0.198	-0.064
-736.039	-8.124	-0.284	-0.191
-735.025	337.570	-0.158	0.308
-734.010	126.126	-0.114	-0.144
-732.996	-29.814	-0.024	-0.014
-731.981	76.714	-0.236	-0.251
-730.966	198.378	-0.109	-0.166
-729.952	386.383	-0.173	0.357
-728.937	-200.000	0.022	-0.148
-727.923	800.000	0.072	-0.206
-726.908	-131.276	0.156	0.021
-725.894	-19.565	-0.173	0.107
-724.879	800.000	-0.064	-0.274
-723.864	142.043	0.216	0.287
-722.850	488.031	0.019	-0.044
-721.835	218.438	-0.154	0.247
-720.821	141.018	0.120	-0.159
-719.806	12.247	-0.309	-0.238
-718.791	-13.004	-0.174	0.113
-717.777	-107.899	-0.108	0.024
-716.762	-200.000	0.024	-0.372
-715.748	-200.000	0.063	-0.755
-714.733	-3.029	-0.146	0.102
-713.718	227.977	-0.086	0.140
-712.704	-200.000	0.020	-0.155
-711.689	-144.166	-0.188	0.018
-710.675	110.342	-0.116	0.140
-709.660	8.388	-0.146	-0.110
-708.645	-40.901	0.186	-0.096
-707.631	-27.394	-0.211	-0.123
-706.616	-88.751	-0.175	0.052
-705.602	-200.000	-0.048	0.338
-704.587	-200.000	0.040	0.265
-703.572	258.835	0.081	-0.139
-702.558	360.854	0.045	0.090
-701.543	-30.737	-0.086	0.049
-700.529	-42.333	-0.230	-0.117
-699.514	-110.767	0.141	0.029
-698.499	-161.244	-0.230	-0.012
-697.485	-132.308	-0.325	0.042
-696.470	488.631	-0.049	-0.112
-695.456	237.624	-0.207	0.343
-694.441	-16.469	0.343	-0.217
-693.426	800.000	0.052	0.184
-692.412	98.108	-0.263	0.302
-691.397	252.714	0.030	0.051
-690.383	512.461	0.082	-0.190
-689.368	19.239	0.062	0.050
-688.354	-139.841	-0.166	-0.018
-687.339	-159.710	0.152	-0.008
-686.324	-182.431	0.359	0.007
-685.310	-200.000	0.033	-0.161
-684.295	244.508	0.068	-0.115
-683.281	155.389	-0.129	0.177
-682.266	-200.000	-0.006	0.053
-681.251	238.630	0.232	0.384
-680.237	800.000	0.055	-0.160
-679.222	132.131	-0.212	-0.273
-678.208	8.765	-0.222	-0.167
-677.193	512.873	0.020	-0.047
-676.178	-76.348	0.337	-0.119
-675.164	58.637	0.083	-0.081
-674.149	-20.822	-0.306	-0.187
-673.135	363.317	-0.090	-0.181
-672.120	-11.633	0.138	-0.091
-671.105	-117.517	0.221	0.040
-670.091	145.818	0.032	0.042
-669.076	7.340	0.215	0.160
-668.062	691.587	0.083	0.217
-667.047	310.293	-0.091	0.170
-666.032	-60.694	0.165	0.070
-665.018	254.053	-0.189	0.322
-664.003	-68.039	0.156	-0.061
-662.989	-200.000	-0.015	0.279
-661.974	-138.338	-0.128	-0.014
-660.959	-3.986	-0.289	-0.200
-659.945	-41.623	-0.105	0.054
-658.930	180.259	0.163	0.239
-657.916	719.010	-0.041	0.109
-656.901	25.612	0.175	-0.146
-655.886	-86.266	0.019	-0.006
-654.872	352.460	-0.068	-0.134
-653.857	7.067	-0.557	-0.415
-652.843	400.495	-0.025	0.053
-651.828	13.653	0.233	-0.181
-650.814	-106.171	-0.184	0.041
-649.799	800.000	-0.138	0.388
-648.784	-88.835	0.184	0.054
-647.770	-200.000	0.009	0.300
-646.755	18.872	-0.235	-0.188
-645.741	187.345	-0.108	-0.161
-644.726	188.648	-0.115	0.172
-643.711	-200.000	0.162	-0.000
-642.697	-66.413	-0.096	0.038
-641.682	-172.434	0.189	-0.006
-640.668	141.103	0.131	-0.173
-639.653	-89.342	0.398	0.117
-638.638	186.561	0.090	0.133
-637.624	-57.048	0.239	0.105
-636.609	800.000	0.097	-0.363
-635.595	12.739	-0.146	-0.112
-634.580	255.427	-0.187	-0.320
-633.565	8.737	-0.103	0.077
-632.551	-107.479	-0.213	-0.047
-631.536	73.976	0.033	0.035
-630.522	800.000	0.077	0.212
-629.507	-140.169	-0.257	0.027
-628.492	333.850	-0.196	0.379
-627.478	-9.606	-0.077	-0.051
-626.463	231.878	0.171	-0.280
-625.449	434.749	0.098	-0.213
-624.434	-200.000	0.005	0.152
-623.419	800.000	-0.113	0.385
-622.405	-16.482	0.221	0.140
-621.390	-130.307	-0.194	-0.026
-620.376	267.740	0.092	-0.161
-619.361	587.067	-0.217	-0.531
-618.346	800.000	0.091	-0.301
-617.332	195.510	0.187	0.284
-616.317	-89.411	-0.350	-0.103
-615.303	423.608	0.096	-0.205
-614.288	427.083	0.067	-0.143
-613.273	-51.739	0.200	-0.093
-612.259	332.395	-0.039	-0.074
-611.244	-200.000	0.009	-0.172
-610.230	268.123	-0.255	0.445
-609.215	307.987	-0.341	0.634
-608.201	139.796	0.188	0.247
-607.186	800.000	-0.089	0.363
-606.171	82.220	-0.185	-0.199
-605.157	-31.414	0.259	-0.145
-604.142	800.000	-0.061	0.233
-603.128	454.507	0.024	0.052
-602.113	32.477	-0.189	0.162
-601.098	-124.255	0.175	0.027
-600.084	-132.736	0.092	0.012
-599.069	385.109	0.066	-0.136
-598.055	-54.877	0.369	0.166
-597.040	95.917	0.145	0.165
-596.025	42.983	-0.058	-0.053
-595.011	235.559	0.125	0.206
-593.996	303.003	-0.135	0.249
-592.982	-186.337	0.221	-0.003
-591.967	-200.000	0.031	-0.203
-590.952	-61.525	-0.200	-0.084
-589.938	435.318	-0.215	0.465
-588.923	207.746	-0.283	0.439
-587.909	17.373	-0.171	0.135
-586.894	388.101	0.084	-0.174
-585.879	21.116	0.106	0.086
-584.865	-13.700	-0.144	0.093
-583.850	-200.000	0.013	-0.274
-582.836	-200.000	0.029	-0.293
-581.821	-200.000	0.011	0.117
-580.806	-142.116	0.276	0.027
-579.792	327.040	-0.139	-0.266
-578.777	-200.000	0.000	0.104
-577.763	15.626	-0.177	0.138
-576.748	-101.622	-0.483	0.117
-575.733	-149.554	0.201	0.016
-574.719	60.636	0.135	-0.133
-573.704	192.806	0.076	0.114
-572.690	-200.000	0.000	0.062
-571.675	-200.000	0.003	-0.155
-570.661	-200.000	-0.034	-0.150
-569.646	-36.964	-0.452	-0.241
-568.631	-200.000	-0.007	-0.089
-567.617	-87.603	-0.224	0.067
-566.602	-115.417	0.060	-0.011
-565.588	91.792	0.228	-0.255
-564.573	-58.889	0.077	-0.033
-563.558	-46.938	-0.208	-0.101
-562.544	259.097	0.220	-0.377
-561.529	586.461	0.064	-0.156
-560.515	39.047	0.192	0.171
-559.500	-200.000	-0.015	0.090
-558.485	-105.261	0.180	-0.041
-557.471	-11.884	0.147	0.096
-556.456	-188.990	0.230	0.003
-555.442	-200.000	-0.031	0.159
-554.427	-137.080	-0.195	-0.022
-553.412	800.000	0.059	-0.168
-552.398	347.057	0.042	0.081
-551.383	-200.000	0.097	0.473
-550.369	226.403	-0.106	0.171
-549.354	195.033	0.188	0.283
-548.339	48.788	0.175	0.163
-547.325	46.455	0.091	0.084
-546.310	-92.161	0.218	-0.061
-545.296	459.409	-0.060	-0.133
-544.281	198.783	0.114	-0.173
-543.266	-72.944	0.275	0.100
-542.252	-83.715	-0.186	0.059
-541.237	800.000	0.079	-0.217
-540.223	176.326	-0.033	-0.048
-539.208	-21.240	-0.172	-0.104
-538.193	-200.000	0.001	0.340
-537.179	-102.665	-0.363	-0.086
-536.164	-53.533	0.312	-0.142
-535.150	384.836	0.106	-0.217
-534.135	-200.000	-0.002	-0.048
-533.121	-200.000	-0.019	-0.477
-532.106	-127.837	-0.116	-0.017
-531.091	-33.025	-0.259	-0.143
-530.077	44.438	0.174	-0.159
-529.062	31.653	-0.258	-0.220
-528.048	152.177	0.246	-0.333
-527.033	39.626	0.107	-0.095
-526.018	-200.000	0.062	-0.346
-525.004	-200.000	-0.008	0.074
-523.989	-27.621	-0.281	-0.162
-522.975	-36.645	-0.139	0.074
-521.960	23.197	-0.206	-0.168
-520.945	388.936	-0.090	-0.186
-519.931	-71.220	-0.044	-0.016
-518.916	190.866	0.165	-0.247
-517.902	-28.214	-0.396	0.227
-516.887	-200.000	-0.003	-0.255
-515.872	133.820	0.115	0.148
-514.858	194.851	0.057	0.086
-513.843	-168.101	-0.159	-0.006
-512.829	36.988	-0.102	-0.090
-511.814	137.680	0.127	0.165
-510.799	-128.042	0.327	0.047
-509.785	-31.314	0.229	-0.128
-508.770	355.563	0.107	0.212
-507.756	-197.813	0.135	-0.001
-506.741	-38.870	-0.196	-0.102
-505.726	53.431	0.222	0.212
-504.712	-1.239	0.126	-0.088
-503.697	-7.077	-0.190	-0.128
-502.683	-40.758	0.125	0.064
-501.668	5.559	0.050	-0.037
-500.653	287.209	0.139	-0.249
-499.639	640.191	0.113	0.285
-498.624	400.282	-0.082	-0.170
-497.610	800.000	-0.039	-0.165
-496.595	-29.436	-0.186	-0.105
-495.581	340.151	-0.068	0.132
-494.566	-171.258	-0.234	-0.008
-493.551	-200.000	0.028	-0.129
-492.537	-179.367	-0.052	-0.001
-491.522	223.277	0.183	0.292
-490.508	-33.993	-0.102	-0.055
-489.493	-132.263	0.095	0.012
-488.478	-88.633	0.170	-0.050
-487.464	-200.000	0.010	0.047
-486.449	-66.520	-0.241	0.095
-485.435	800.000	-0.108	0.332
-484.420	65.333	0.216	0.216
-483.405	-200.000	-0.022	-0.175
-482.391	-72.868	-0.213	-0.078
-481.376	-128.120	0.243	-0.034
-480.362	-32.509	-0.207	-0.114
-479.347	-13.235	0.080	-0.052
-478.332	245.819	0.045	-0.075
-477.318	393.476	-0.141	-0.292
-476.303	-93.634	0.171	0.047
-475.289	137.118	0.063	-0.081
-474.274	733.112	0.099	-0.263
-473.259	-177.893	0.365	-0.009
-472.245	-74.458	0.007	-0.003
-471.230	-92.501	-0.269	0.075
-470.216	-173.441	0.131	0.004
-469.201	-19.560	0.060	-0.037
-468.186	-200.000	-0.280	0.001
-467.172	71.826	0.192	-0.198
-466.157	350.484	0.059	0.115
-465.143	-157.077	0.247	0.015
-464.128	-200.000	-0.002	0.111
-463.113	-51.012	-0.099	-0.046
-462.099	-200.000	-0.019	-0.169
-461.084	777.280	0.182	0.492
-460.070	-88.127	-0.331	0.098
-459.055	-200.000	-0.001	0.086
-458.040	-120.882	-0.626	-0.104
-457.026	-73.178	-0.028	0.010
-456.011	-122.095	0.292	-0.047
-454.997	-200.000	0.040	-0.192
-453.982	-170.439	-0.479	-0.017
-452.968	800.000	-0.079	-0.234
-451.953	-200.000	0.009	-0.172
-450.938	112.520	-0.205	-0.245
-449.924	-92.482	-0.363	-0.101
-448.909	-82.053	-0.356	-0.115
-447.895	-66.850	-0.074	-0.029
-446.880	-200.000	-0.016	0.252
-445.865	-169.184	-0.233	-0.009
-444.851	207.808	0.170	-0.263
-443.836	-18.409	-0.093	0.058
-442.822	730.276	0.066	0.174
-441.807	102.609	-0.094	-0.109
-440.792	-48.877	-0.206	-0.098
-439.778	156.179	0.180	-0.245
-438.763	129.855	-0.313	0.396
-437.749	-29.490	-0.339	0.192
-436.734	-46.213	-0.128	0.062
-435.719	-56.789	0.212	0.093
-434.705	-200.000	0.011	-0.221
-433.690	-123.842	0.269	0.042
-432.676	-147.426	-0.171	-0.014
-431.661	-200.000	0.016	0.149
-430.646	108.084	-0.205	0.242
-429.632	800.000	0.040	-0.116
-428.617	-104.711	0.093	-0.021
-427.603	-10.278	0.083	0.055
-426.588	-200.000	0.005	-0.169
-425.573	183.211	0.189	0.276
-424.559	389.964	-0.053	0.109
-423.544	66.750	0.030	-0.030
-422.530	133.974	0.118	0.152
-421.515	-82.226	0.374	-0.121
-420.500	29.667	0.216	-0.182
-419.486	-122.802	0.239	0.038
-418.471	800.000	-0.042	0.128
-417.457	-68.475	-0.050	0.019
-416.442	800.000	0.016	-0.049
-415.428	-115.236	0.157	-0.029
-414.413	800.000	0.020	-0.061
-413.398	-200.000	-0.017	0.312
-412.384	-17.010	-0.231	0.144
-411.369	-71.557	0.159	-0.059
-410.355	800.000	-0.102	-0.308
-409.340	361.767	0.103	0.204
-408.325	498.072	0.070	-0.159
-407.311	407.003	-0.037	-0.078
-406.296	-88.040	0.206	0.061
-405.282	81.054	-0.244	-0.260
-404.267	-35.617	-0.067	0.036
-403.252	120.466	0.110	-0.136
-402.238	-23.235	-0.217	-0.129
-401.223	-92.942	-0.230	-0.063
-400.209	-59.535	-0.373	-0.158
-399.194	164.711	-0.110	0.154
-398.179	86.602	-0.034	-0.037
-397.165	-41.146	0.052	-0.026
-396.150	-5.100	0.202	0.138
-395.136	480.949	-0.041	-0.092
-394.121	-22.442	0.153	-0.092
-393.106	69.615	-0.342	-0.348
-392.092	-200.000	-0.046	0.342
-391.077	92.627	0.211	-0.236
-390.063	-88.775	0.158	0.046
-389.048	-73.611	-0.277	-0.100
-388.033	800.000	-0.076	0.249
-387.019	-200.000	-0.061	0.437
-386.004	164.971	-0.117	-0.164
-384.990	169.949	-0.039	0.055
-383.975	183.949	0.098	-0.143
-382.960	-34.342	0.307	0.166
-381.946	-12.290	-0.168	-0.108
-380.931	437.660	0.100	-0.216
-379.917	-200.000	-0.000	-0.064
-378.902	-200.000	-0.120	-0.000
-377.888	800.000	-0.112	0.375
-376.873	-9.893	0.214	0.140
-375.858	-200.000	0.082	-0.367
-374.844	-76.776	0.151	-0.052
-373.829	121.269	-0.167	-0.206
-372.815	5.563	-0.316	-0.230
-371.800	135.299	0.192	-0.247
-370.785	-152.248	0.306	0.022
-369.771	800.000	0.024	-0.066
-368.756	138.239	0.179	-0.231
-367.742	-200.000	0.012	0.145
-366.727	-190.415	-0.074	0.001
-365.712	-133.193	0.143	0.018
-364.698	-84.306	-0.266	0.083
-363.683	102.520	0.095	-0.109
-362.669	-156.003	-0.101	0.006
-361.654	190.514	0.076	0.113
-360.639	398.228	-0.178	-0.367
-359.625	-90.710	-0.403	-0.115
-358.610	114.030	-0.174	-0.209
-357.596	62.026	0.043	0.042
-356.581	-15.265	-0.480	0.303
-355.566	99.770	0.175	0.200
-354.552	-118.135	0.423	-0.074
-353.537	176.167	-0.130	-0.186
-352.523	486.280	-0.072	0.161
-351.508	-111.000	-0.247	-0.050
-350.493	296.780	0.123	0.223
-349.479	-71.977	0.334	0.122
-348.464	594.144	0.159	0.387
-347.450	179.521	-0.176	-0.254
-346.435	220.603	-0.150	0.237
-345.420	-107.725	0.334	-0.072
-344.406	-200.000	0.040	-0.251
-343.391	-37.963	-0.054	0.028
-342.377	800.000	0.032	0.122
-341.362	526.785	0.120	-0.279
-340.348	265.218	-0.120	0.206
-339.333	520.442	0.091	0.211
-338.318	-156.629	-0.173	0.011
-337.304	-46.198	-0.197	0.096
-336.289	-134.479	0.145	-0.017
-335.275	-200.000	-0.047	-0.293
-334.260	-200.000	-0.038	-0.280
-333.245	-200.000	-0.018	-0.203
-332.231	272.430	0.025	0.044
-331.216	2.242	0.355	0.253
-330.202	-54.704	-0.028	-0.012
-329.187	-181.693	-0.223	0.004
-328.172	-100.206	-0.106	-0.026
-327.158	800.000	0.060	-0.172
-326.143	-116.071	-0.197	-0.036
-325.129	-0.928	0.189	-0.132
-324.114	386.817	0.118	-0.240
-323.099	-200.000	0.031	-0.226
-322.085	29.533	-0.147	0.123
-321.070	-32.465	0.230	0.127
-320.056	-18.053	0.404	-0.250
-319.041	223.777	-0.137	0.217
-318.026	-111.953	0.392	0.078
-317.012	800.000	-0.069	-0.205
-315.997	800.000	0.016	0.046
-314.983	800.000	0.035	0.137
-313.968	101.599	-0.103	0.118
-312.953	114.812	0.044	-0.052
-311.939	-200.000	0.042	0.186
-310.924	244.840	0.083	0.138
-309.910	11.558	0.296	0.224
-308.895	-200.000	-0.032	0.294
-307.880	-200.000	0.001	0.053
-306.866	795.963	0.057	-0.156
-305.851	800.000	-0.081	-0.225
-304.837	800.000	0.039	0.127
-303.822	-200.000	-0.011	-0.293
-302.807	-160.539	-0.481	0.025
-301.793	-180.963	0.228	0.005
-300.778	-200.000	-0.019	-0.320
-299.764	-55.312	0.142	-0.063
-298.749	221.827	-0.096	-0.152
-297.735	64.243	-0.115	-0.114
-296.720	-200.000	0.027	-0.122
-295.705	-200.000	-0.014	0.250
-294.691	379.141	0.157	0.316
-293.676	17.258	0.221	0.172
-292.662	-57.516	0.147	-0.064
-291.647	-60.634	0.154	0.064
-290.632	-200.000	0.031	0.256
-289.618	-79.958	-0.357	-0.118
-288.603	-137.972	0.339	0.037
-287.589	800.000	0.046	0.167
-286.574	-200.000	-0.005	0.078
-285.559	390.276	-0.034	-0.069
-284.545	-142.297	-0.112	-0.011
-283.530	465.396	0.127	0.279
-282.516	-3.443	-0.232	0.159
-281.501	172.091	0.098	-0.139
-280.486	671.485	-0.088	-0.223
-279.472	1.772	-0.079	-0.056
-278.457	213.664	0.035	0.055
-277.443	82.254	-0.327	0.348
-276.428	104.984	-0.023	-0.027
-275.413	41.051	0.079	0.071
-274.399	206.500	0.176	-0.269
-273.384	58.848	0.025	-0.024
-272.370	-68.061	-0.274	0.105
-271.355	-200.000	0.058	0.287
-270.340	800.000	-0.087	0.241
-269.326	-38.269	-0.140	-0.073
-268.311	196.116	-0.043	-0.064
-267.297	760.514	0.069	0.185
-266.282	-88.036	-0.249	-0.074
-265.267	-200.000	-0.032	-0.283
-264.253	-81.803	0.086	0.028
-263.238	-128.400	0.354	-0.050
-262.224	76.158	-0.205	0.214
-261.209	120.451	-0.109	-0.133
-260.195	-101.037	-0.218	-0.052
-259.180	157.313	0.121	-0.165
-258.165	-200.000	0.267	0.001
-257.151	-200.000	-0.060	0.000
-256.136	-69.694	-0.123	-0.046
-255.122	-144.614	0.296	-0.027
-254.107	233.087	-0.042	-0.067
-253.092	150.303	0.248	-0.331
-252.078	375.696	0.115	-0.231
-251.063	-200.000	0.045	-0.439
-250.049	800.000	0.089	-0.269
-249.034	-200.000	0.043	0.204
-248.019	-200.000	0.011	-0.253
-247.005	-140.646	0.153	-0.016
-245.990	-38.572	0.100	-0.052
-244.976	786.519	0.038	-0.104
-243.961	231.008	-0.073	0.117
-242.946	800.000	0.061	-0.198
-241.932	47.621	0.226	-0.207
-240.917	-104.392	0.259	0.059
-239.903	-60.968	-0.370	0.154
-238.888	523.512	-0.074	0.170
-237.873	217.548	0.044	-0.070
-236.859	-33.556	-0.357	-0.194
-235.844	-200.000	0.013	-0.146
-234.830	-42.519	0.219	-0.110
-233.815	-125.105	0.078	-0.012
-232.800	-23.998	0.259	0.152
-231.786	-89.733	-0.100	0.029
-230.771	-200.000	0.014	-0.287
-229.757	-200.000	0.053	0.345
-228.742	9.982	-0.176	0.131
-227.727	242.745	-0.079	0.130
-226.713	-172.727	-0.234	0.007
-225.698	235.274	0.174	-0.281
-224.684	800.000	0.017	-0.047
-223.669	-46.318	-0.155	-0.075
-222.655	164.554	0.173	0.240
-221.640	385.528	-0.099	0.201
-220.625	49.555	0.109	-0.100
-219.611	-200.000	-0.010	-0.054
-218.596	-108.102	0.328	0.070
-217.582	-200.000	0.057	0.417
-216.567	-119.893	-0.188	0.032
-215.552	-127.056	0.189	-0.027
-214.538	182.548	-0.043	-0.062
-213.523	250.113	0.072	-0.120
-212.509	154.679	-0.219	0.295
-211.494	-200.000	0.016	-0.103
-210.479	-79.903	0.284	0.094
-209.465	289.394	-0.076	0.136
-208.450	-200.000	-0.002	0.099
-207.436	215.292	-0.103	-0.161
-206.421	-200.000	0.095	-0.442
-205.406	-189.118	0.184	0.002
-204.392	-200.000	-0.011	0.218
-203.377	-130.517	0.191	-0.025
-202.363	592.676	0.126	0.306
-201.348	14.907	-0.151	0.116
-200.333	800.000	-0.007	-0.026
-199.319	16.035	0.019	0.014
-198.304	-127.169	0.357	0.051
-197.290	213.390	0.171	-0.264
-196.275	-25.105	-0.296	0.172
-195.260	10.754	-0.380	-0.284
-194.246	-97.251	0.304	-0.078
-193.231	396.812	0.037	-0.075
-192.217	-131.979	0.214	0.027
-191.202	-5.184	-0.200	-0.135
-190.187	-36.779	-0.157	-0.083
-189.173	-200.000	-0.008	-0.348
-188.158	-200.000	-0.015	0.244
-187.144	48.120	0.220	0.201
-186.129	6.149	-0.203	0.148
-185.114	39.102	-0.138	-0.121
-184.100	-79.961	0.140	0.046
-183.085	19.243	-0.178	-0.140
-182.071	-200.000	0.003	0.073
-181.056	-200.000	0.004	-0.096
-180.042	-25.788	0.291	0.168
-179.027	-200.000	-0.005	0.034
-178.012	-114.753	-0.087	-0.016
-176.998	476.660	-0.091	0.201
-175.983	-7.907	-0.106	0.070
-174.969	800.000	0.095	0.351
-173.954	-200.000	-0.013	0.319
-172.939	-114.451	-0.128	0.024
-171.925	36.066	-0.101	0.087
-170.910	-118.604	-0.365	-0.063
-169.896	-74.977	0.141	0.049
-168.881	800.000	-0.109	0.324
-167.866	-51.474	0.133	0.061
-166.852	800.000	-0.093	0.309
-165.837	91.960	-0.034	0.038
-164.823	42.755	0.204	0.182
-163.808	145.157	-0.266	0.349
-162.793	428.970	-0.129	0.274
-161.779	-69.301	0.214	-0.080
-160.764	670.748	0.101	0.256
-159.750	-200.000	-0.018	0.143
-158.735	116.881	0.114	0.137
-157.720	27.161	0.120	0.098
-156.706	51.154	-0.291	-0.271
-155.691	143.803	-0.175	0.228
-154.677	800.000	-0.042	0.120
-153.662	-200.000	-0.003	-0.232
-152.647	-200.000	-0.015	0.151
-151.633	-200.000	-0.010	0.158
-150.618	37.348	0.100	0.087
-149.604	107.713	-0.028	0.032
-148.589	2.909	0.047	-0.033
-147.574	-96.709	-0.167	0.043
-146.560	166.872	0.016	0.022
-145.545	17.904	0.123	-0.096
-144.531	-1.928	0.178	-0.123
-143.516	-82.259	-0.179	0.057
-142.502	250.782	0.106	0.176
-141.487	157.064	-0.069	-0.094
-140.472	80.498	0.203	0.214
-139.458	-37.219	0.146	0.076
-138.443	-200.000	0.014	-0.099
-137.429	800.000	-0.110	-0.412
-136.414	-200.000	0.060	-0.311
-135.399	-64.661	-0.263	-0.104
-134.385	8.961	-0.271	0.200
-133.370	-200.000	0.003	0.143
-132.356	-110.211	0.150	0.031
-131.341	337.808	-0.124	0.236
-130.326	41.212	-0.157	-0.139
-129.312	514.239	0.179	0.409
-128.297	-200.000	0.002	-0.032
-127.283	-71.840	0.237	-0.086
-126.268	24.537	0.033	-0.027
-125.253	6.374	0.255	-0.185
-124.239	-2.690	-0.423	-0.289
-123.224	-131.472	0.150	-0.019
-122.210	281.587	0.024	-0.042
-121.195	800.000	-0.010	-0.030
-120.180	-81.930	-0.121	-0.039
-119.166	-48.461	-0.386	-0.182
-118.151	211.987	-0.136	-0.209
-117.137	225.624	-0.110	-0.175
-116.122	800.000	-0.025	-0.071
-115.107	88.791	-0.059	0.064
-114.093	-200.000	0.025	-0.132
-113.078	58.615	0.172	0.165
-112.064	324.800	0.066	-0.123
-111.049	296.338	-0.096	0.172
-110.034	396.460	-0.133	0.271
-109.020	-144.019	0.071	-0.006
-108.005	-200.000	-0.047	0.236
-106.991	55.730	-0.126	0.120
-105.976	133.755	0.102	-0.129
-104.962	222.549	0.267	0.419
-103.947	775.285	0.079	0.210
-102.932	-74.930	0.196	-0.069
-101.918	-200.000	-0.026	-0.224
-100.903	-134.858	-0.155	-0.018
-99.889	94.157	-0.145	0.161
-98.874	-78.085	0.137	0.046
-97.859	-152.908	-0.392	-0.027
-96.845	-61.520	0.144	-0.059
-95.830	143.429	-0.089	0.116
-94.816	193.056	-0.211	-0.312
-93.801	348.848	0.039	-0.075
-92.786	504.472	0.082	0.184
-91.772	191.981	0.135	0.198
-90.757	200.376	-0.091	-0.137
-89.743	29.738	-0.090	-0.075
-88.728	-43.443	-0.190	-0.094
-87.713	800.000	0.038	0.112
-86.699	-59.439	0.303	-0.127
-85.684	-90.343	-0.250	-0.071
-84.670	-200.000	-0.008	0.302
-83.655	-151.953	0.153	-0.011
-82.640	800.000	-0.021	-0.073
-81.626	-81.995	0.281	-0.090
-80.611	-74.205	-0.484	0.171
-79.597	-107.136	-0.213	-0.046
-78.582	-78.698	0.050	0.017
-77.567	41.249	0.172	-0.152
-76.553	800.000	-0.095	-0.277
-75.538	338.030	-0.080	0.152
-74.524	-30.474	-0.156	0.086
-73.509	248.688	-0.173	-0.286
-72.494	-200.000	-0.053	0.308
-71.480	-122.330	-0.074	0.012
-70.465	-125.179	0.172	0.026
-69.451	240.001	0.070	0.114
-68.436	-24.916	0.046	0.027
-67.422	100.652	0.161	-0.182
-66.407	-72.417	-0.085	-0.031
-65.392	800.000	0.130	0.398
-64.378	-200.000	0.023	0.177
-63.363	-92.889	0.090	-0.025
-62.349	30.235	0.215	0.179
-61.334	156.400	-1.057	-1.422
-60.319	50.215	0.796	0.733
-59.305	375.201	-0.789	-1.569
-58.290	683.934	0.630	1.602
-57.276	654.298	0.589	1.475
-56.261	-200.000	136.804	626.486
-55.246	341.852	1643.420	3132.882
-54.232	136.906	2775.420	3534.849
-53.217	82.405	2155.419	2280.329
-52.203	30.062	1591.204	1322.950
-51.188	22.432	1344.307	1071.398
-50.173	20.511	1310.073	1032.673
-49.159	46.893	1384.832	1254.699
-48.144	42.487	1393.403	1235.388
-47.130	22.498	1341.988	1069.783
-46.115	19.714	1322.109	1037.210
-45.100	19.546	1317.085	1032.228
-44.086	19.471	1314.886	1030.012
-43.071	19.367	1312.884	1027.785
-42.057	19.383	1310.932	1026.313
-41.042	19.289	1309.746	1024.783
-40.027	19.430	1307.705	1023.979
-39.013	19.451	1305.602	1022.418
-37.998	19.401	1304.016	1020.840
-36.984	19.464	1302.180	1019.732
-35.969	19.495	1300.899	1018.872
-34.954	19.552	1298.968	1017.656
-33.940	19.457	1297.932	1016.245
-32.925	19.545	1295.799	1015.051
-31.911	19.622	1294.541	1014.480
-30.896	19.638	1292.964	1013.298
-29.881	19.689	1291.755	1012.605
-28.867	19.692	1290.193	1011.360
-27.852	19.667	1288.846	1010.117
-26.838	19.689	1287.178	1008.899
-25.823	19.584	1286.282	1007.547
-24.809	19.590	1284.832	1006.407
-23.794	19.615	1283.605	1005.550
-22.779	19.597	1282.446	1004.494
-21.765	19.652	1281.223	1003.819
-20.750	19.713	1279.659	1002.904
-19.736	19.538	1278.806	1001.181
-18.721	19.470	1277.886	1000.031
-17.706	19.522	1276.299	999.048
-16.692	19.484	1275.169	997.908
-15.677	19.422	1274.234	996.777
-14.663	19.417	1273.005	995.747
-13.648	19.456	1271.668	994.888
-12.633	19.497	1270.825	994.422
-11.619	19.459	1270.219	993.693
-10.604	19.452	1269.204	992.815
-9.590	19.428	1268.451	992.049
-8.575	19.373	1267.529	990.975
-7.560	19.303	1266.651	989.845
-6.546	19.402	1265.214	989.251
-5.531	19.410	1264.322	988.559
-4.517	19.451	1264.027	988.525
-3.502	19.481	1262.994	987.848
-2.487	19.451	1262.643	987.364
-1.473	19.307	1257.878	982.778
-0.458	17.617	1241.996	960.808
0.556	13.064	1226.874	923.325
1.571	9.472	1234.855	908.995
2.586	8.723	1250.457	916.114
3.600	9.040	1237.826	908.577
4.615	6.968	1166.903	845.375
5.629	2.623	1099.068	774.248
6.644	0.676	1083.967	753.834
7.659	0.545	1082.332	751.975
8.673	0.601	1081.342	751.503
9.688	0.548	1080.087	750.300
10.702	0.641	1077.303	748.760
11.717	3.331	1080.129	764.012
12.731	9.318	1088.075	799.404
13.746	15.005	1095.496	833.174
14.761	17.024	1097.814	844.928
15.775	16.561	1096.179	841.294
16.790	15.468	1094.367	834.398
17.804	14.804	1092.830	829.854
18.819	14.423	1091.891	827.180
19.834	14.257	1090.565	825.277
20.848	14.057	1089.814	823.647
21.863	13.830	1089.122	821.924
22.877	13.730	1088.154	820.626
23.892	13.473	1087.414	818.726
24.907	13.631	1086.544	818.778
25.921	13.619	1086.345	818.500
26.936	13.615	1085.209	817.547
27.950	13.606	1084.329	816.771
28.965	13.776	1082.928	816.480
29.980	13.639	1081.457	814.626
30.994	13.863	1080.086	814.621
32.009	13.841	1079.506	814.001
33.023	13.837	1078.436	813.102
34.038	13.750	1077.641	812.004
35.053	13.725	1076.793	811.171
36.067	13.722	1075.676	810.243
37.082	13.850	1074.419	809.851
38.096	13.904	1073.853	809.618
39.111	13.817	1073.023	808.497
40.126	13.646	1072.246	807.008
41.140	13.644	1070.923	805.927
42.155	13.672	1069.639	805.029
43.169	13.530	1069.048	803.821
44.184	13.631	1067.326	802.947
45.199	13.549	1066.938	802.185
46.213	13.661	1065.311	801.431
47.228	13.657	1065.056	801.149
48.242	13.725	1063.015	799.873
49.257	13.679	1062.527	799.212
50.271	13.696	1061.436	798.403
51.286	13.638	1060.822	797.593
52.301	13.611	1059.796	796.618
53.315	13.656	1058.737	795.971
54.330	13.676	1057.359	794.960
55.344	13.632	1056.748	794.217
56.359	13.613	1055.841	793.378
57.374	13.615	1054.829	792.557
58.388	13.667	1053.597	791.806
59.403	13.634	1052.869	791.033
60.417	13.712	1051.980	790.667
61.432	13.629	1051.505	789.844
62.447	13.557	1050.600	788.753
63.461	13.488	1049.967	787.877
64.476	13.549	1048.926	787.317
65.490	13.577	1047.800	786.534
66.505	13.669	1047.456	786.645
67.520	13.670	1046.267	785.685
68.534	13.597	1045.606	784.774
69.549	13.665	1044.701	784.348
70.563	13.501	1044.326	783.220
71.578	13.522	1043.384	782.544
72.593	13.525	1042.787	782.041
73.607	13.521	1041.944	781.322
74.622	13.453	1041.605	780.675
75.636	13.479	1040.487	779.892
76.651	13.516	1039.485	779.247
77.666	13.530	1039.189	779.022
78.680	13.494	1038.298	778.117
79.695	13.625	1037.229	777.861
80.709	13.565	1037.102	777.417
81.724	13.552	1036.385	776.750
82.739	13.664	1035.706	776.693
83.753	13.653	1034.796	775.895
84.768	13.726	1033.874	775.474
85.782	13.687	1032.881	774.480
86.797	13.758	1032.191	774.222
87.812	13.742	1030.755	773.005
88.826	13.757	1029.936	772.389
89.841	13.659	1029.350	771.426
90.855	13.691	1028.248	770.680
91.870	13.790	1027.337	770.390
92.884	13.831	1026.339	769.766
93.899	13.824	1025.651	769.149
94.914	13.656	1025.333	768.062
95.928	13.989	1024.275	768.745
96.943	13.724	1023.577	766.925
97.957	13.822	1022.210	766.288
98.972	13.799	1021.641	765.688
99.987	13.844	1020.717	765.134
101.001	13.776	1019.817	764.079
102.016	13.780	1019.321	763.657
103.030	13.762	1018.272	762.719
104.045	13.791	1017.325	762.077
105.060	13.804	1016.431	761.402
106.074	13.732	1015.566	760.353
107.089	13.722	1014.341	759.323
108.103	13.703	1013.335	758.415
109.118	13.665	1012.853	757.817
110.133	13.753	1011.982	757.499
111.147	13.672	1010.797	756.177
112.162	13.797	1009.889	755.999
113.176	13.742	1009.300	755.240
114.191	13.655	1009.052	754.590
115.206	13.750	1008.014	754.182
116.220	13.797	1006.432	753.144
117.235	13.701	1005.606	752.021
118.249	13.766	1004.683	751.563
119.264	13.701	1004.480	751.048
120.279	13.843	1003.167	750.641
121.293	13.806	1002.330	749.784
122.308	13.743	1001.561	748.858
123.322	13.729	1000.673	748.065
124.337	13.760	999.574	747.315
125.352	13.771	998.108	746.203
126.366	13.601	997.761	745.114
127.381	13.643	996.324	744.161
128.395	13.669	995.718	743.761
129.410	13.716	994.406	742.925
130.424	13.811	993.457	742.577
131.439	13.757	993.453	742.266
132.454	13.866	991.974	741.584
133.468	13.768	991.436	740.677
134.483	13.803	990.643	740.174
135.497	13.740	990.087	739.412
136.512	13.811	988.847	738.739
137.527	13.832	988.139	738.236
138.541	13.757	987.391	737.281
139.556	13.771	986.712	736.768
140.570	13.914	985.460	736.402
141.585	13.886	985.194	736.016
142.600	13.876	984.543	735.418
143.614	13.931	983.712	734.975
144.629	13.870	982.681	733.872
145.643	14.020	981.558	733.633
146.658	13.989	980.592	732.705
147.673	13.943	979.931	731.947
148.687	13.972	978.789	731.154
149.702	13.943	977.993	730.368
150.716	13.823	977.206	729.189
151.731	13.886	976.282	728.713
152.746	13.968	975.571	728.477
153.760	14.015	974.660	727.936
154.775	13.990	974.618	727.733
155.789	14.086	973.881	727.536
156.804	14.107	972.835	726.784
157.819	14.047	972.148	725.943
158.833	14.157	971.674	726.006
159.848	14.154	970.556	725.094
160.862	14.065	969.561	723.897
161.877	14.043	968.761	723.141
162.892	14.097	967.929	722.693
163.906	14.117	966.884	721.933
164.921	14.006	966.633	721.202
165.935	14.050	965.710	720.638
166.950	14.175	964.400	720.138
167.964	14.133	963.398	719.145
168.979	14.105	962.768	718.492
169.994	14.051	961.885	717.536
171.008	14.128	961.335	717.394
172.023	14.231	960.619	717.241
173.037	14.098	959.695	715.911
174.052	14.052	959.101	715.211
175.067	14.154	958.136	714.866
176.081	14.102	957.742	714.284
177.096	14.049	957.671	713.940
178.110	14.143	956.778	713.616
179.125	14.149	956.421	713.312
180.140	14.042	955.910	712.409
181.154	14.231	955.453	712.812
182.169	14.317	954.642	712.514
183.183	14.336	953.795	711.900
184.198	14.352	953.380	711.594
185.213	14.361	952.723	711.080
186.227	14.367	951.720	710.295
187.242	14.471	951.097	710.210
188.256	14.531	950.570	710.010
189.271	14.266	950.483	708.753
190.286	14.272	949.143	707.716
191.300	14.243	948.584	707.115
192.315	14.291	947.863	706.718
193.329	14.360	947.386	706.590
194.344	14.343	946.682	705.930
195.359	14.335	946.001	705.330
196.373	14.377	945.424	705.012
197.388	14.531	944.876	705.192
198.402	14.507	944.199	704.523
199.417	14.467	944.004	704.148
200.432	14.589	943.320	704.089
201.446	14.555	942.699	703.422
202.461	14.681	941.779	703.205
203.475	14.671	941.089	702.585
204.490	14.689	940.473	702.138
205.504	14.581	939.902	701.196
206.519	14.499	939.420	700.428
207.534	14.557	938.447	699.884
208.548	14.615	937.605	699.438
209.563	14.633	937.094	699.071
210.577	14.650	936.340	698.517
211.592	14.771	935.407	698.263
212.607	14.899	934.638	698.162
213.621	14.674	933.837	696.565
214.636	14.737	933.153	696.254
215.650	14.738	933.006	696.087
216.665	14.816	931.516	695.238
217.680	14.834	931.191	695.012
218.694	14.900	930.547	694.741
219.709	14.861	929.633	693.835
220.723	14.776	928.998	692.951
221.738	14.830	928.350	692.627
222.753	14.926	927.840	692.583
223.767	14.883	927.481	692.078
224.782	15.001	926.691	691.914
225.796	14.926	926.066	691.077
226.811	14.909	925.649	690.635
227.826	15.059	924.455	690.300
228.840	14.884	924.222	689.343
229.855	14.907	923.055	688.505
230.869	14.899	922.342	687.882
231.884	14.920	921.401	687.206
232.899	14.899	921.007	686.763
233.913	14.890	920.377	686.197
234.928	14.992	919.400	685.825
235.942	14.970	919.174	685.508
236.957	15.015	918.796	685.346
237.972	14.968	918.005	684.505
238.986	15.121	917.070	684.374
240.001	15.028	916.687	683.646
241.015	15.005	915.911	682.912
242.030	15.137	915.046	682.744
243.045	15.053	914.884	682.221
244.059	15.116	913.973	681.739
245.074	15.178	913.278	681.412
246.088	15.098	912.782	680.657
247.103	15.251	911.738	680.439
248.117	15.128	911.882	679.986
249.132	15.157	910.761	679.210
250.147	15.372	909.900	679.378
251.161	15.340	909.133	678.616
252.176	15.344	908.696	678.245
253.190	15.352	907.826	677.569
254.205	15.348	907.467	677.226
255.220	15.406	906.567	676.725
256.234	15.457	905.954	676.416
257.249	15.447	905.460	675.944
258.263	15.470	904.314	675.124
259.278	15.436	904.102	674.766
260.293	15.506	903.182	674.302
261.307	15.516	903.148	674.260
262.322	15.637	902.019	673.840
263.336	15.735	901.274	673.618
264.351	15.621	900.977	672.878
265.366	15.659	900.016	672.253
266.380	15.575	899.642	671.578
267.395	15.814	898.481	671.608
268.409	15.626	898.032	670.462
269.424	15.583	897.040	669.493
270.439	15.615	896.754	669.345
271.453	15.639	895.992	668.813
272.468	15.676	895.511	668.542
273.482	15.498	895.283	667.605
274.497	15.676	894.115	667.382
275.512	15.656	893.827	667.028
276.526	15.702	893.536	666.936
277.541	15.778	892.686	666.543
278.555	15.777	892.072	666.021
279.570	15.822	891.313	665.571
280.585	16.093	890.163	665.728
281.599	15.823	889.936	664.432
282.614	15.951	888.857	664.073
283.628	15.810	888.556	663.231
284.643	15.934	887.873	663.153
285.657	15.809	887.579	662.381
286.672	15.801	887.219	662.024
287.687	15.876	886.069	661.399
288.701	15.925	885.722	661.275
289.716	16.007	884.975	660.981
290.730	15.987	884.470	660.469
291.745	16.034	883.623	659.961
292.760	15.978	882.987	659.207
293.774	16.069	882.475	659.123
294.789	16.064	881.665	658.438
295.803	16.028	881.029	657.768
296.818	16.081	880.277	657.352
297.833	16.056	879.589	656.685
298.847	16.052	879.117	656.259
299.862	16.192	878.447	656.244
300.876	16.231	877.807	655.860
301.891	16.210	877.245	655.299
302.906	16.364	876.677	655.417
303.920	16.389	875.914	654.886
304.935	16.170	875.804	653.895
305.949	16.277	874.897	653.575
306.964	16.210	874.371	652.864
307.979	16.413	873.662	653.062
308.993	16.260	873.410	652.225
310.008	16.349	872.903	652.132
311.022	16.354	871.936	651.373
312.037	16.482	871.623	651.574
313.052	16.415	870.498	650.415
314.066	16.182	870.596	649.536
315.081	16.399	869.750	649.683
316.095	16.355	868.879	648.806
317.110	16.344	868.459	648.389
318.125	16.365	868.265	648.270
319.139	16.348	867.688	647.715
320.154	16.411	867.134	647.484
321.168	16.347	866.646	646.819
322.183	16.622	865.608	647.040
323.197	16.473	865.333	646.207
324.212	16.336	865.250	645.564
325.227	16.495	864.283	645.393
326.241	16.422	863.490	644.463
327.256	16.440	862.937	644.063
328.270	16.485	862.392	643.769
329.285	16.423	862.028	643.206
330.300	16.538	861.197	642.965
331.314	16.531	860.183	642.128
332.329	16.686	860.254	642.710
333.343	16.641	859.808	642.151
334.358	16.554	859.661	641.652
335.373	16.464	859.181	640.897
336.387	16.536	858.765	640.802
337.402	16.674	858.340	640.952
338.416	16.755	857.895	640.871
339.431	16.616	857.684	640.127
340.446	16.715	857.075	639.992
341.460	16.725	856.815	639.779
342.475	16.658	856.341	639.116
343.489	16.796	855.701	639.100
344.504	16.931	854.877	638.938
345.519	17.028	854.498	638.963
346.533	16.931	854.044	638.202
347.548	16.834	853.777	637.584
348.562	16.737	853.503	636.957
349.577	16.898	852.418	636.694
350.592	16.746	851.778	635.592
351.606	16.843	851.429	635.636
352.621	16.715	850.641	634.514
353.635	16.843	850.012	634.467
354.650	17.155	848.656	634.565
355.665	17.086	848.433	634.086
356.679	16.953	847.985	633.195
357.694	16.932	847.688	632.842
358.708	17.069	846.412	632.344
359.723	16.979	846.096	631.714
360.738	17.049	845.274	631.306
361.752	17.282	844.414	631.473
362.767	17.091	844.377	630.679
363.781	17.161	843.492	630.223
364.796	17.078	843.592	629.935
365.810	17.283	842.981	630.184
366.825	17.126	842.966	629.532
367.840	17.133	842.426	629.099
368.854	17.272	841.565	628.917
369.869	17.219	841.476	628.600
370.883	17.216	841.138	628.277
371.898	17.370	840.215	628.101
372.913	17.345	840.073	627.850
373.927	17.194	840.096	627.254
374.942	17.343	838.845	626.813
375.956	17.516	838.246	626.948
376.971	17.477	838.107	626.642
377.986	17.482	837.670	626.279
379.000	17.533	837.195	626.055
380.015	17.544	836.685	625.658
381.029	17.501	835.734	624.734
382.044	17.475	835.305	624.264
383.059	17.474	835.033	624.003
384.073	17.739	833.792	623.988
385.088	17.547	833.375	622.919
386.102	17.499	833.298	622.631
387.117	17.355	832.850	621.715
388.132	17.495	831.943	621.493
389.146	17.459	831.276	620.808
390.161	17.753	830.767	621.445
391.175	17.713	830.275	620.879
392.190	17.556	830.049	620.082
393.205	17.531	829.684	619.663
394.219	17.450	829.479	619.160
395.234	17.584	828.891	619.154
396.248	17.542	828.494	618.649
397.263	17.589	827.990	618.391
398.278	17.572	827.609	617.987
399.292	17.581	827.047	617.548
400.307	17.584	826.538	617.122
401.321	17.828	826.055	617.593
402.336	17.659	825.694	616.655
403.350	17.616	825.083	615.988
404.365	17.698	824.804	616.023
405.380	17.707	824.285	615.614
406.394	17.694	823.862	615.195
407.409	17.759	823.696	615.253
408.423	17.994	822.897	615.449
409.438	17.839	822.660	614.656
410.453	17.758	822.552	614.232
411.467	17.898	821.690	614.036
412.482	17.875	821.544	613.788
413.496	18.023	820.863	613.759
414.511	18.071	820.726	613.774
415.526	17.929	820.068	612.720
416.540	17.987	819.293	612.293
417.555	17.950	819.020	611.902
418.569	18.035	818.589	611.829
419.584	18.138	818.201	611.854
420.599	18.072	817.467	611.014
421.613	115.665	1301.381	1491.731
422.628	100.277	1371.825	1491.782
