DTS Sentinel unit serial number:	SN413079Multiplexer serial number:	ORYXHardware model number:	OX4-SRSoftware version number:	ORYX F/W v4.00 Oryx Data Collector v3.7.2.0data status	okinstallation	princeton_trtdifferential loss correction	single-endedforward channel	channel 1reverse channel	N/Adate	2019/09/12time	21:18:35forward acquisition time	60.00reverse acquisition time	0.00gamma	496.2192k internal	0.2325k external	0.2325temperature offset calibration	1.0146default loss term (dB/km)	0.3790temperature slope calibration	1.0000multiplexer offset coefficient	1.0000multiplexer slope coefficient	1.0000fibre end	0.00T internal ref (°C)	30.59T ext. ref 1 (°C)	3.70T ext. ref 2 (°C)	25.20length (m)	temperature (°C)	Stokes	anti-Stokes-747.200	390.093	-0.166	0.348
-746.185	93.171	0.193	0.220
-745.171	-179.532	0.444	0.010
-744.156	212.601	0.027	-0.042
-743.142	-1.093	-0.104	-0.074
-742.127	72.962	-0.117	0.123
-741.112	-129.956	-0.140	-0.019
-740.098	-200.000	0.067	0.367
-739.083	150.912	-0.121	0.166
-738.069	180.986	0.079	-0.118
-737.054	-24.883	0.235	0.141
-736.039	-90.868	-0.423	0.123
-735.025	385.148	0.022	-0.046
-734.010	77.014	-0.149	0.160
-732.996	-200.000	-0.011	-0.082
-731.981	731.990	-0.039	0.104
-730.966	-12.141	-0.089	0.059
-729.952	-200.000	-0.004	0.025
-728.937	62.382	-0.156	0.157
-727.923	-25.291	-0.151	-0.090
-726.908	-142.683	-0.235	0.023
-725.894	-200.000	0.026	-0.181
-724.879	-200.000	-0.036	-0.215
-723.864	-200.000	-0.006	-0.268
-722.850	9.481	0.141	0.107
-721.835	64.170	0.253	-0.257
-720.821	800.000	0.036	-0.120
-719.806	-92.403	0.086	0.024
-718.791	-128.646	0.321	-0.046
-717.777	-200.000	0.033	-0.199
-716.762	209.745	-0.248	0.392
-715.748	120.816	-0.212	0.265
-714.733	800.000	0.017	0.050
-713.718	64.507	-0.024	0.024
-712.704	-28.786	0.350	0.203
-711.689	800.000	-0.054	-0.224
-710.675	-153.908	0.404	-0.028
-709.660	109.254	0.084	0.101
-708.645	17.114	0.245	-0.196
-707.631	143.895	0.179	-0.240
-706.616	21.483	-0.143	0.117
-705.602	605.915	0.209	-0.525
-704.587	227.483	0.085	-0.140
-703.572	219.282	-0.224	-0.361
-702.558	47.731	0.236	0.221
-701.543	-200.000	0.019	0.169
-700.529	86.201	-0.226	-0.251
-699.514	306.964	0.105	0.197
-698.499	-200.000	0.041	-0.249
-697.485	-102.013	0.144	-0.035
-696.470	800.000	-0.046	-0.145
-695.456	-74.445	0.252	0.092
-694.441	-54.132	-0.336	0.154
-693.426	-200.000	0.041	-0.232
-692.412	-76.549	0.054	-0.019
-691.397	181.565	-0.288	0.426
-690.383	-88.716	0.333	-0.100
-689.368	-14.426	-0.118	-0.076
-688.354	358.242	-0.151	0.304
-687.339	50.402	-0.076	-0.072
-686.324	-106.199	0.135	-0.030
-685.310	-132.105	0.254	-0.033
-684.295	4.624	-0.083	-0.061
-683.281	-60.633	0.203	-0.087
-682.266	9.962	-0.087	0.066
-681.251	-63.946	-0.171	-0.070
-680.237	-200.000	-0.021	-0.103
-679.222	370.302	0.042	-0.086
-678.208	-200.000	0.012	-0.300
-677.193	-51.028	-0.325	-0.153
-676.178	-72.318	0.165	0.061
-675.164	677.281	-0.104	-0.273
-674.149	800.000	-0.099	0.365
-673.135	-200.000	-0.012	0.273
-672.120	-13.699	0.118	0.077
-671.105	147.808	0.231	-0.314
-670.091	514.247	0.049	-0.114
-669.076	-200.000	0.009	0.279
-668.062	462.390	-0.095	0.213
-667.047	-178.576	0.429	0.010
-666.032	63.031	0.310	-0.312
-665.018	79.745	-0.162	-0.175
-664.003	26.514	0.164	-0.138
-662.989	207.189	0.061	-0.095
-661.974	79.567	0.086	0.093
-660.959	-200.000	-0.007	-0.044
-659.945	-200.000	-0.025	0.120
-658.930	339.042	0.104	0.203
-657.916	-200.000	0.023	-0.150
-656.901	-95.924	0.192	0.052
-655.886	484.767	0.031	0.070
-654.872	800.000	-0.128	0.451
-653.857	104.555	-0.166	-0.197
-652.843	81.331	0.099	-0.108
-651.828	69.855	0.069	0.071
-650.814	67.623	0.119	-0.123
-649.799	-193.317	-0.304	0.003
-648.784	-109.579	-0.088	0.019
-647.770	-2.696	-0.207	-0.146
-646.755	800.000	-0.043	-0.164
-645.741	-200.000	0.005	0.048
-644.726	800.000	-0.056	-0.230
-643.711	263.560	-0.106	-0.185
-642.697	-200.000	-0.029	-0.222
-641.682	-38.258	-0.080	0.043
-640.668	31.236	-0.255	-0.220
-639.653	193.248	0.115	-0.175
-638.638	800.000	0.061	0.200
-637.624	455.735	0.159	0.355
-636.609	800.000	-0.041	-0.177
-635.595	342.552	0.119	0.234
-634.580	800.000	-0.041	-0.130
-633.565	-200.000	0.022	-0.388
-632.551	227.384	-0.066	0.108
-631.536	619.037	-0.077	0.195
-630.522	-35.668	-0.046	0.025
-629.507	-183.296	-0.236	0.004
-628.492	738.725	0.107	-0.288
-627.478	-200.000	0.006	0.309
-626.463	-39.598	-0.123	0.065
-625.449	642.672	0.157	-0.402
-624.434	348.481	-0.092	0.182
-623.419	-106.419	-0.049	-0.011
-622.405	72.655	0.061	-0.064
-621.390	-90.898	0.469	-0.136
-620.376	800.000	0.044	0.186
-619.361	800.000	0.035	0.139
-618.346	-133.496	0.219	-0.028
-617.332	-137.018	-0.237	0.027
-616.317	-41.828	0.193	-0.099
-615.303	-50.970	0.303	0.143
-614.288	800.000	-0.032	0.126
-613.273	596.499	-0.127	0.315
-612.259	-78.648	-0.362	-0.124
-611.244	-38.725	-0.349	0.185
-610.230	-200.000	-0.004	0.084
-609.215	243.375	0.168	-0.283
-608.201	-125.235	-0.236	0.036
-607.186	112.080	0.197	0.239
-606.171	-58.190	0.247	-0.108
-605.157	-200.000	0.004	-0.207
-604.142	11.622	0.211	0.163
-603.128	-18.210	-0.286	0.179
-602.113	-66.509	-0.134	0.053
-601.098	272.540	0.062	-0.110
-600.084	-200.000	0.047	-0.224
-599.069	255.499	0.055	0.095
-598.055	-36.659	0.056	-0.030
-597.040	-8.991	-0.111	-0.075
-596.025	118.040	-0.207	0.256
-595.011	127.578	0.054	0.068
-593.996	800.000	0.039	0.131
-592.982	-95.253	-0.050	0.014
-591.967	-17.719	0.060	-0.038
-590.952	-23.837	0.189	0.113
-589.938	365.501	0.045	-0.091
-588.923	23.177	-0.110	-0.091
-587.909	200.956	0.268	-0.413
-586.894	291.429	0.057	-0.104
-585.879	132.016	0.164	0.211
-584.865	225.242	-0.127	-0.206
-583.850	-124.455	-0.073	0.011
-582.836	60.128	-0.164	-0.163
-581.821	800.000	-0.023	0.074
-580.806	-87.812	0.243	0.073
-579.792	800.000	0.087	-0.250
-578.777	74.446	-0.200	-0.211
-577.763	-59.533	-0.189	0.081
-576.748	800.000	0.062	-0.171
-575.733	-200.000	-0.006	-0.172
-574.719	-143.180	0.266	-0.026
-573.704	800.000	-0.074	-0.246
-572.690	-141.522	-0.169	0.017
-571.675	-165.362	0.240	-0.011
-570.661	-95.917	-0.201	-0.054
-569.646	160.480	0.168	-0.235
-568.631	111.177	0.057	-0.068
-567.617	-200.000	0.002	0.165
-566.602	-200.000	0.001	0.011
-565.588	210.681	-0.049	0.076
-564.573	-119.686	-0.117	0.020
-563.558	-200.000	0.050	-0.277
-562.544	88.152	0.178	0.198
-561.529	-12.642	-0.116	-0.076
-560.515	800.000	-0.062	-0.261
-559.500	-94.831	-0.059	-0.016
-558.485	236.404	0.201	0.333
-557.471	186.348	-0.137	-0.205
-556.456	-150.671	-0.333	0.025
-555.442	246.990	0.101	-0.170
-554.427	367.078	-0.134	-0.270
-553.412	-200.000	-0.014	0.089
-552.398	-138.954	-0.158	0.017
-551.383	-54.022	-0.073	-0.033
-550.369	-200.000	0.004	-0.174
-549.354	117.683	-0.164	0.202
-548.339	-200.000	-0.014	0.294
-547.325	14.502	0.286	0.224
-546.310	-63.952	-0.200	0.082
-545.296	-90.054	0.041	-0.012
-544.281	275.830	0.068	-0.122
-543.266	-1.319	0.187	-0.132
-542.252	55.749	0.070	-0.068
-541.237	-99.618	-0.211	-0.053
-540.223	91.210	0.125	0.141
-539.208	-53.436	0.150	0.069
-538.193	800.000	0.128	-0.399
-537.179	704.597	-0.095	-0.250
-536.164	674.178	0.094	0.244
-535.150	-115.560	0.122	-0.023
-534.135	-200.000	-0.041	-0.278
-533.121	51.165	0.156	0.148
-532.106	122.239	-0.078	0.097
-531.091	-11.472	-0.266	0.175
-530.077	698.257	0.048	-0.127
-529.062	109.815	0.076	-0.091
-528.048	800.000	0.118	-0.440
-527.033	800.000	-0.041	-0.170
-526.018	85.751	0.051	-0.056
-525.004	120.532	-0.244	0.303
-523.989	-89.943	0.285	-0.083
-522.975	800.000	-0.068	-0.218
-521.960	-200.000	0.000	-0.163
-520.945	108.681	-0.159	0.190
-519.931	38.169	-0.136	0.121
-518.916	35.997	0.144	-0.127
-517.902	800.000	-0.063	-0.178
-516.887	298.986	0.041	0.075
-515.872	-200.000	-0.020	-0.267
-514.858	48.125	-0.180	-0.168
-513.843	117.155	-0.153	-0.188
-512.829	-166.952	-0.261	0.011
-511.814	-200.000	0.043	-0.461
-510.799	-142.266	-0.104	0.010
-509.785	-86.803	-0.155	0.047
-508.770	800.000	0.017	-0.057
-507.756	-42.441	0.068	0.035
-506.741	56.123	-0.268	0.260
-505.726	-87.040	-0.183	-0.056
-504.712	-200.000	0.008	0.068
-503.697	-170.881	0.278	-0.010
-502.683	58.463	-0.166	-0.162
-501.668	488.022	0.052	0.119
-500.653	99.223	-0.195	0.225
-499.639	800.000	-0.042	-0.182
-498.624	591.371	-0.094	-0.232
-497.610	47.419	-0.134	-0.124
-496.595	4.786	-0.121	-0.089
-495.581	13.320	0.489	-0.378
-494.566	-121.614	0.306	0.051
-493.551	-36.211	0.042	0.022
-492.537	-31.155	0.252	-0.142
-491.522	-200.000	-0.027	0.166
-490.508	164.870	-0.145	-0.204
-489.493	-53.580	-0.103	-0.047
-488.478	800.000	-0.077	-0.295
-487.464	-37.964	0.162	-0.086
-486.449	-200.000	0.021	0.203
-485.435	545.427	-0.120	-0.287
-484.420	53.141	-0.189	0.180
-483.405	-144.353	-0.270	0.025
-482.391	-14.529	-0.074	-0.047
-481.376	-11.211	-0.183	-0.120
-480.362	253.785	0.087	0.148
-479.347	-183.270	-0.322	0.006
-478.332	468.717	-0.116	0.261
-477.318	37.009	-0.104	0.092
-476.303	449.557	0.034	0.075
-475.289	196.064	-0.164	-0.249
-474.274	135.537	-0.054	-0.070
-473.259	-200.000	0.017	0.252
-472.245	129.069	0.115	0.146
-471.230	-166.833	0.210	0.009
-470.216	60.860	-0.258	0.256
-469.201	101.510	-0.057	-0.066
-468.186	394.143	0.136	0.283
-467.172	-102.703	0.046	-0.011
-466.157	-48.088	0.210	-0.101
-465.143	-200.000	-0.017	-0.145
-464.128	29.329	-0.151	0.128
-463.113	-51.420	-0.157	-0.073
-462.099	421.314	0.106	0.226
-461.084	-158.679	0.306	-0.018
-460.070	-177.489	-0.559	-0.014
-459.055	-112.196	0.191	-0.038
-458.040	-48.796	-0.106	0.051
-457.026	-200.000	-0.034	0.341
-456.011	54.184	0.153	-0.147
-454.997	671.035	-0.166	0.428
-453.982	39.944	0.050	0.045
-452.968	-82.933	0.133	0.043
-451.953	-26.452	-0.267	0.156
-450.938	-200.000	0.002	-0.059
-449.924	-69.343	-0.063	-0.024
-448.909	800.000	-0.108	-0.325
-447.895	327.948	0.053	-0.102
-446.880	54.145	-0.124	0.119
-445.865	119.245	0.035	-0.043
-444.851	202.461	-0.067	0.103
-443.836	-124.286	0.066	-0.010
-442.822	22.153	-0.208	0.169
-441.807	800.000	-0.057	0.246
-440.792	-200.000	0.041	-0.313
-439.778	229.153	0.075	0.122
-438.763	800.000	-0.096	0.340
-437.749	-200.000	-0.010	-0.054
-436.734	800.000	-0.121	0.408
-435.719	-200.000	0.084	0.424
-434.705	465.770	0.194	0.433
-433.690	-14.865	-0.106	-0.068
-432.676	6.760	0.262	0.195
-431.661	-190.292	-0.244	-0.003
-430.646	26.667	-0.330	0.275
-429.632	295.933	-0.061	-0.111
-428.617	-4.296	-0.243	-0.168
-427.603	-200.000	-0.005	0.123
-426.588	138.550	0.161	0.211
-425.573	163.678	0.054	0.075
-424.559	17.839	-0.251	-0.199
-423.544	147.871	0.136	-0.183
-422.530	-200.000	0.018	-0.277
-421.515	-53.695	-0.380	0.173
-420.500	-97.167	0.127	-0.033
-419.486	-39.638	-0.065	0.034
-418.471	-200.000	0.018	0.199
-417.457	293.523	0.095	-0.173
-416.442	104.049	-0.129	0.151
-415.428	401.353	0.084	0.175
-414.413	-200.000	0.067	-0.368
-413.398	83.640	-0.177	0.192
-412.384	-200.000	-0.024	0.171
-411.369	-100.273	0.085	0.021
-410.355	-101.150	-0.241	-0.059
-409.340	-117.090	-0.279	-0.051
-408.325	389.989	0.108	0.223
-407.311	58.341	-0.117	-0.115
-406.296	27.634	-0.167	0.140
-405.282	-200.000	-0.045	0.446
-404.267	186.615	0.127	0.189
-403.252	800.000	0.044	-0.136
-402.238	65.313	-0.068	-0.068
-401.223	44.285	0.171	0.156
-400.209	6.710	-0.200	-0.148
-399.194	-120.054	-0.108	-0.018
-398.179	-200.000	0.019	0.151
-397.165	-163.495	0.227	0.011
-396.150	13.935	0.306	-0.237
-395.136	-91.214	0.325	-0.093
-394.121	-4.828	0.209	-0.143
-393.106	14.170	-0.160	-0.124
-392.092	-179.585	0.171	-0.004
-391.077	-200.000	-0.040	0.216
-390.063	-175.597	-0.160	-0.004
-389.048	-88.147	0.006	0.002
-388.033	245.773	-0.014	0.023
-387.019	-62.880	0.295	0.122
-386.004	800.000	-0.072	-0.288
-384.990	12.700	-0.118	0.090
-383.975	-200.000	-0.010	0.245
-382.960	-100.267	0.179	0.044
-381.946	-200.000	-0.032	-0.226
-380.931	447.923	-0.056	0.123
-379.917	800.000	0.043	-0.144
-378.902	2.822	0.164	0.118
-377.888	123.592	0.155	-0.194
-376.873	800.000	0.085	0.295
-375.858	800.000	0.024	0.074
-374.844	-68.208	-0.288	-0.111
-373.829	-200.000	0.016	-0.116
-372.815	-86.067	0.289	0.089
-371.800	-50.045	-0.216	-0.102
-370.785	-55.377	-0.133	0.059
-369.771	369.118	0.176	-0.354
-368.756	-141.787	0.173	0.017
-367.742	108.438	0.172	0.204
-366.727	174.380	0.167	-0.240
-365.712	320.603	0.181	-0.342
-364.698	-84.290	0.275	0.086
-363.683	800.000	-0.083	0.282
-362.669	108.805	-0.074	0.088
-361.654	-61.993	0.386	0.160
-360.639	708.812	-0.098	0.258
-359.625	206.370	-0.182	-0.281
-358.610	-118.606	0.098	-0.017
-357.596	48.553	-0.172	-0.160
-356.581	-84.264	-0.137	0.043
-355.566	-91.806	0.192	0.054
-354.552	-105.846	-0.531	0.119
-353.537	800.000	0.097	0.306
-352.523	-122.696	0.137	0.022
-351.508	-122.840	-0.219	-0.035
-350.493	82.366	0.220	-0.237
-349.479	-173.416	-0.232	-0.007
-348.464	-187.888	0.093	0.001
-347.450	26.936	0.072	-0.060
-346.435	7.771	-0.343	0.255
-345.420	399.808	-0.049	0.103
-344.406	-200.000	0.011	0.149
-343.391	151.669	-0.165	0.224
-342.377	637.319	-0.071	-0.178
-341.362	-25.522	-0.150	0.088
-340.348	800.000	-0.037	-0.107
-339.333	-131.342	-0.181	-0.024
-338.318	172.225	-0.225	0.321
-337.304	92.013	0.155	-0.173
-336.289	197.399	0.062	0.094
-335.275	-131.583	0.300	0.039
-334.260	101.448	-0.203	-0.235
-333.245	17.733	0.214	0.169
-332.231	800.000	0.073	-0.283
-331.216	800.000	-0.104	-0.369
-330.202	-118.459	0.298	-0.052
-329.187	-148.280	0.120	0.010
-328.172	-200.000	0.066	-0.429
-327.158	-75.805	-0.466	0.164
-326.143	-62.892	0.205	-0.084
-325.129	-4.730	-0.111	-0.076
-324.114	148.141	0.263	-0.352
-323.099	-200.000	0.042	-0.246
-322.085	15.681	-0.102	0.079
-321.070	-134.031	0.042	-0.005
-320.056	-41.501	0.240	0.122
-319.041	11.864	-0.234	0.178
-318.026	59.638	-0.109	-0.107
-317.012	-197.284	0.213	0.001
-315.997	27.980	0.326	0.273
-314.983	-18.461	0.370	0.229
-313.968	-136.533	-0.678	0.078
-312.953	-148.054	-0.072	0.006
-311.939	-0.201	0.128	-0.091
-310.924	-200.000	0.008	0.264
-309.910	-200.000	-0.002	-0.121
-308.895	800.000	0.078	0.267
-307.880	-125.774	-0.111	0.017
-306.866	-70.854	-0.094	-0.035
-305.851	-200.000	-0.010	0.204
-304.837	15.424	0.251	0.195
-303.822	427.187	0.109	-0.233
-302.807	152.345	0.310	0.420
-301.793	-200.000	0.021	-0.149
-300.778	-85.440	0.128	-0.040
-299.764	4.348	-0.191	-0.138
-298.749	58.129	0.104	-0.101
-297.735	-200.000	0.002	-0.171
-296.720	7.917	0.171	0.127
-295.705	-129.609	-0.101	0.014
-294.691	33.281	-0.104	0.089
-293.676	800.000	0.086	0.307
-292.662	-20.575	-0.301	0.183
-291.647	-6.951	0.314	-0.211
-290.632	26.148	0.077	-0.063
-289.618	-200.000	0.014	-0.207
-288.603	-122.720	-0.503	0.081
-287.589	-2.837	-0.111	0.077
-286.574	-96.163	0.270	0.071
-285.559	4.711	0.234	-0.171
-284.545	49.843	-0.189	-0.177
-283.530	16.717	-0.159	0.125
-282.516	-28.425	-0.096	0.055
-281.501	-200.000	-0.031	-0.327
-280.486	800.000	-0.041	0.151
-279.472	-200.000	-0.113	0.000
-278.457	-164.852	-0.184	0.008
-277.443	789.726	0.097	-0.263
-276.428	182.079	0.086	0.126
-275.413	32.030	-0.087	-0.074
-274.399	-103.623	-0.162	-0.038
-273.384	282.924	-0.020	-0.035
-272.370	-41.686	-0.182	0.092
-271.355	137.636	0.091	-0.119
-270.340	181.117	0.037	0.054
-269.326	216.604	0.114	0.180
-268.311	231.827	-0.159	-0.258
-267.297	-50.322	0.045	0.021
-266.282	-116.530	0.126	0.023
-265.267	800.000	0.018	-0.065
-264.253	-71.419	0.307	-0.114
-263.238	-58.640	-0.159	0.068
-262.224	191.108	-0.020	0.029
-261.209	34.561	0.053	-0.046
-260.195	800.000	-0.065	-0.181
-259.180	-101.385	-0.183	-0.044
-258.165	-200.000	0.038	0.218
-257.151	214.853	-0.115	0.180
-256.136	-50.430	0.209	-0.098
-255.122	90.521	0.090	0.100
-254.107	-96.031	-0.157	0.041
-253.092	-110.837	0.152	0.031
-252.078	-187.501	0.202	-0.003
-251.063	800.000	-0.053	-0.164
-250.049	-200.000	0.019	-0.187
-249.034	91.553	-0.146	0.163
-248.019	-86.447	-0.320	-0.097
-247.005	-56.182	0.367	0.162
-245.990	-28.538	0.104	-0.059
-244.976	208.345	0.205	0.317
-243.961	-107.509	-0.144	0.031
-242.946	-96.791	0.206	-0.053
-241.932	-128.847	-0.120	-0.017
-240.917	-200.000	0.396	-0.002
-239.903	160.364	0.068	-0.094
-238.888	-200.000	0.011	0.169
-237.873	-103.140	-0.204	0.048
-236.859	-6.479	-0.111	-0.075
-235.844	66.687	-0.146	0.147
-234.830	201.392	0.203	-0.310
-233.815	-200.000	0.087	0.428
-232.800	-27.328	0.168	0.097
-231.786	-200.000	-0.020	-0.302
-230.771	-200.000	-0.008	0.247
-229.757	-60.631	0.312	-0.131
-228.742	-101.833	-0.051	-0.012
-227.727	-128.412	-0.153	-0.022
-226.713	91.217	0.115	0.127
-225.698	517.348	0.041	0.096
-224.684	-200.000	0.005	-0.145
-223.669	295.085	0.183	-0.330
-222.655	-71.424	0.459	-0.170
-221.640	14.330	0.075	-0.057
-220.625	-116.452	0.094	0.017
-219.611	22.627	-0.087	0.070
-218.596	-63.455	-0.150	-0.061
-217.582	-61.584	-0.052	0.022
-216.567	-113.072	0.503	0.098
-215.552	-141.122	0.227	0.023
-214.538	92.103	0.078	0.087
-213.523	142.807	0.201	0.263
-212.509	-5.475	0.079	0.054
-211.494	590.109	-0.151	-0.369
-210.479	-200.000	0.069	-0.371
-209.465	-121.487	0.142	-0.023
-208.450	-76.220	0.054	-0.019
-207.436	364.096	0.216	0.429
-206.421	-47.831	0.160	0.077
-205.406	800.000	-0.045	0.191
-204.392	348.770	-0.067	0.131
-203.377	414.792	0.078	0.165
-202.363	800.000	0.018	0.070
-201.348	624.444	-0.069	0.172
-200.333	178.052	-0.036	-0.052
-199.319	800.000	-0.056	0.173
-198.304	-88.305	-0.309	0.091
-197.290	224.763	0.069	-0.111
-196.275	88.796	0.099	0.109
-195.260	97.415	-0.254	0.288
-194.246	-96.867	0.187	-0.049
-193.231	800.000	0.119	0.417
-192.217	800.000	-0.070	-0.215
-191.202	-83.775	0.201	0.063
-190.187	-200.000	-0.024	0.178
-189.173	-95.542	0.066	0.017
-188.158	-96.791	-0.160	0.041
-187.144	-72.922	0.322	0.117
-186.129	-69.919	0.199	-0.075
-185.114	294.396	-0.153	0.276
-184.100	-51.640	-0.128	0.059
-183.085	240.995	-0.058	-0.095
-182.071	-16.758	-0.217	0.136
-181.056	-200.000	0.054	-0.275
-180.042	-92.600	-0.234	-0.065
-179.027	800.000	0.115	-0.333
-178.012	-200.000	0.259	0.001
-176.998	6.577	-0.159	0.117
-175.983	80.906	-0.123	0.131
-174.969	171.384	-0.135	0.191
-173.954	285.480	-0.074	0.131
-172.939	800.000	0.041	0.124
-171.925	241.471	0.120	-0.198
-170.910	-134.738	0.116	0.014
-169.896	610.569	-0.219	-0.541
-168.881	279.619	-0.217	-0.382
-167.866	800.000	-0.066	0.181
-166.852	-46.046	0.177	-0.086
-165.837	-52.722	0.151	0.068
-164.823	-34.421	0.356	0.193
-163.808	308.154	0.101	-0.186
-162.793	-90.407	-0.187	0.053
-161.779	143.570	-0.263	-0.345
-160.764	-43.174	-0.248	0.124
-159.750	-200.000	0.002	0.038
-158.735	224.156	0.143	-0.228
-157.720	-9.295	0.155	0.102
-156.706	-200.000	0.118	-0.559
-155.691	-38.300	-0.219	0.115
-154.677	372.557	0.138	0.276
-153.662	-81.069	0.011	-0.004
-152.647	-86.748	0.266	0.080
-151.633	42.245	0.074	0.067
-150.618	-200.000	-0.033	0.206
-149.604	-135.184	0.351	0.042
-148.589	252.047	0.047	-0.079
-147.574	130.176	-0.182	-0.229
-146.560	106.139	0.131	-0.152
-145.545	318.758	0.080	-0.150
-144.531	393.326	0.090	0.185
-143.516	-57.220	0.293	0.127
-142.502	342.041	-0.089	-0.172
-141.487	-95.294	-0.163	0.043
-140.472	60.611	-0.074	-0.072
-139.458	800.000	0.046	-0.177
-138.443	728.251	-0.073	-0.193
-137.429	340.912	0.193	-0.372
-136.414	800.000	0.045	0.124
-135.399	131.748	-0.194	0.246
-134.385	282.694	0.127	0.225
-133.370	-200.000	0.051	-0.399
-132.356	-90.044	0.278	-0.080
-131.341	590.605	-0.047	0.115
-130.326	48.746	0.199	-0.184
-129.312	-77.885	-0.276	0.094
-128.297	-195.003	0.276	-0.002
-127.283	-200.000	0.040	-0.294
-126.268	-62.470	0.188	0.077
-125.253	-200.000	0.032	0.175
-124.239	81.338	0.347	0.370
-123.224	201.087	-0.080	0.121
-122.210	116.056	-0.260	-0.314
-121.195	-184.257	0.402	-0.007
-120.180	-23.183	-0.194	0.115
-119.166	-200.000	0.009	0.102
-118.151	-102.657	0.184	-0.043
-117.137	431.602	0.152	0.324
-116.122	800.000	-0.036	-0.099
-115.107	-56.479	0.223	0.097
-114.093	-22.980	-0.102	0.060
-113.078	63.207	0.200	0.197
-112.064	0.137	0.215	-0.151
-111.049	-126.120	0.235	-0.035
-110.034	-27.188	0.100	0.057
-109.020	-21.170	-0.060	0.036
-108.005	-39.638	0.337	0.174
-106.991	-145.185	-0.203	-0.018
-105.976	77.571	-0.069	0.072
-104.962	800.000	-0.030	0.116
-103.947	614.409	-0.067	0.164
-102.932	-27.823	-0.167	-0.095
-101.918	-71.343	0.122	0.045
-100.903	130.262	0.172	-0.217
-99.889	-84.885	0.140	-0.043
-98.874	433.305	0.132	-0.282
-97.859	565.544	0.066	0.158
-96.845	-56.619	0.102	-0.045
-95.830	-107.136	0.051	0.011
-94.816	-200.000	-0.003	0.159
-93.801	397.258	0.080	-0.164
-92.786	800.000	0.075	0.226
-91.772	-30.005	0.238	0.133
-90.757	-167.909	-0.285	-0.011
-89.743	-81.471	0.118	-0.038
-88.728	-123.705	0.104	0.016
-87.713	-200.000	-0.003	-0.037
-86.699	228.578	-0.165	-0.264
-85.684	109.163	-0.163	-0.192
-84.670	440.247	-0.007	-0.015
-83.655	-77.439	0.143	-0.049
-82.640	-147.647	0.399	-0.033
-81.626	-200.000	-0.020	-0.177
-80.611	-200.000	0.019	0.207
-79.597	308.827	-0.196	0.360
-78.582	-200.000	-0.008	-0.183
-77.567	800.000	0.010	0.028
-76.553	135.836	0.048	-0.061
-75.538	-200.000	0.265	0.001
-74.524	26.136	-0.187	0.153
-73.509	-111.227	0.333	-0.067
-72.494	93.725	-0.137	0.152
-71.480	-200.000	0.020	0.214
-70.465	-111.649	-0.314	-0.063
-69.451	-31.063	-0.175	0.097
-68.436	125.567	0.094	0.116
-67.422	-28.445	0.235	0.133
-66.407	-17.332	0.159	-0.098
-65.392	666.314	0.141	0.358
-64.378	-0.922	0.047	0.033
-63.363	-142.423	0.220	-0.021
-62.349	48.235	-0.100	-0.092
-61.334	14.027	-0.986	-0.754
-60.319	-10.379	0.447	0.291
-59.305	-200.000	-0.158	-1.148
-58.290	56.529	0.775	0.740
-57.276	649.710	0.645	1.621
-56.261	-200.000	102.700	584.829
-55.246	554.663	1433.258	3386.436
-54.232	188.727	2615.330	3843.021
-53.217	116.052	2135.441	2567.389
-52.203	42.279	1586.993	1415.988
-51.188	34.180	1323.825	1133.162
-50.173	30.941	1282.151	1078.737
-49.159	54.731	1333.854	1263.246
-48.144	55.791	1351.668	1286.324
-47.130	34.267	1306.480	1118.654
-46.115	30.647	1288.965	1082.585
-45.100	30.639	1283.588	1077.984
-44.086	30.543	1281.435	1075.576
-43.071	30.590	1278.702	1073.508
-42.057	30.443	1276.799	1071.021
-41.042	30.424	1275.482	1069.766
-40.027	30.401	1274.151	1068.475
-39.013	30.479	1272.130	1067.186
-37.998	30.622	1269.918	1066.110
-36.984	30.561	1268.808	1064.785
-35.969	30.742	1266.460	1063.804
-34.954	30.533	1265.593	1061.841
-33.940	30.581	1264.340	1061.021
-32.925	30.632	1262.626	1059.831
-31.911	30.756	1260.839	1058.997
-30.896	30.732	1259.569	1057.752
-29.881	30.712	1258.418	1056.626
-28.867	30.673	1256.983	1055.158
-27.852	30.638	1255.301	1053.508
-26.838	30.761	1253.696	1052.813
-25.823	30.678	1252.930	1051.660
-24.809	30.611	1251.914	1050.388
-23.794	30.652	1250.726	1049.579
-22.779	30.684	1248.928	1048.209
-21.765	30.769	1247.416	1047.379
-20.750	30.767	1246.392	1046.466
-19.736	30.611	1245.068	1044.435
-18.721	30.454	1244.115	1042.713
-17.706	30.570	1242.630	1042.079
-16.692	30.540	1241.497	1040.921
-15.677	30.600	1240.234	1040.156
-14.663	30.617	1239.339	1039.458
-13.648	30.459	1238.749	1038.037
-12.633	30.566	1237.077	1037.195
-11.619	30.529	1237.055	1036.926
-10.604	30.542	1235.538	1035.690
-9.590	30.436	1234.965	1034.577
-8.575	30.477	1233.499	1033.535
-7.560	30.570	1232.642	1033.292
-6.546	30.404	1232.245	1031.997
-5.531	30.454	1231.262	1031.411
-4.517	30.493	1230.209	1030.702
-3.502	30.454	1229.546	1029.890
-2.487	30.542	1228.258	1029.255
-1.473	30.448	1224.216	1025.309
-0.458	28.836	1209.778	1004.376
0.556	26.869	1191.553	965.966
1.571	22.926	1196.343	948.636
2.586	21.938	1210.792	954.632
3.600	21.502	1200.357	943.971
4.615	16.394	1129.796	862.396
5.629	7.870	1056.743	765.708
6.644	4.130	1037.527	734.023
7.659	3.810	1034.929	730.607
8.673	3.452	1034.089	728.262
9.688	3.420	1032.644	727.029
10.702	3.953	1031.024	728.330
11.717	9.543	1038.294	759.836
12.731	18.248	1050.720	810.257
13.746	23.057	1056.645	837.591
14.761	24.017	1057.080	842.408
15.775	23.312	1055.710	837.911
16.790	22.752	1054.000	833.830
17.804	22.234	1053.151	830.640
18.819	22.132	1052.654	829.696
19.834	22.298	1051.905	829.815
20.848	22.291	1052.224	829.960
21.863	22.360	1050.835	829.113
22.877	22.016	1050.430	827.100
23.892	22.044	1049.287	826.260
24.907	21.869	1048.829	825.003
25.921	21.902	1047.322	823.902
26.936	21.777	1046.423	822.534
27.950	21.729	1044.752	820.924
28.965	21.764	1043.517	820.043
29.980	22.120	1041.774	820.262
30.994	22.124	1041.142	819.711
32.009	22.273	1040.075	819.495
33.023	21.983	1039.851	817.895
34.038	21.961	1038.254	816.461
35.053	21.890	1037.704	815.628
36.067	21.799	1036.407	814.115
37.082	21.805	1036.123	813.844
38.096	21.933	1035.347	813.757
39.111	22.231	1034.789	814.627
40.126	21.728	1033.376	811.118
41.140	21.507	1031.610	808.638
42.155	21.327	1030.467	806.838
43.169	21.127	1029.399	805.010
44.184	21.308	1028.594	805.141
45.199	21.185	1027.763	803.853
46.213	21.576	1027.105	805.064
47.228	21.790	1027.017	805.912
48.242	21.982	1025.920	805.858
49.257	21.923	1025.122	804.892
50.271	22.234	1023.904	805.289
51.286	22.310	1023.415	805.179
52.301	22.233	1022.696	804.191
53.315	21.972	1021.734	802.171
54.330	21.765	1020.607	800.272
55.344	21.552	1019.882	798.661
56.359	21.490	1019.291	797.842
57.374	21.447	1018.195	796.717
58.388	21.399	1017.198	795.651
59.403	21.252	1016.422	794.305
60.417	21.231	1015.607	793.500
61.432	21.294	1015.052	793.283
62.447	21.186	1013.993	791.895
63.461	21.057	1013.558	790.899
64.476	21.058	1012.418	789.946
65.490	21.013	1011.534	788.981
66.505	21.192	1010.521	788.930
67.520	20.987	1010.801	788.154
68.534	20.989	1009.439	787.031
69.549	20.866	1008.792	785.900
70.563	20.813	1007.369	784.487
71.578	20.522	1006.979	782.802
72.593	20.460	1005.659	781.428
73.607	20.594	1005.236	781.633
74.622	20.607	1004.935	781.386
75.636	20.659	1004.010	780.830
76.651	20.949	1002.983	781.265
77.666	20.858	1002.541	780.446
78.680	20.777	1002.258	779.792
79.695	20.943	1001.145	779.601
80.709	21.130	1000.899	780.172
81.724	21.198	1000.400	780.019
82.739	21.351	999.721	780.104
83.753	21.796	999.570	781.901
84.768	22.351	999.346	784.131
85.782	22.465	998.822	784.161
86.797	22.481	997.571	783.179
87.812	22.126	996.751	780.888
88.826	22.236	995.568	780.379
89.841	22.297	994.998	780.137
90.855	22.326	994.008	779.417
91.870	22.494	992.743	779.103
92.884	22.467	991.848	778.210
93.899	22.163	991.364	776.418
94.914	22.289	990.583	776.294
95.928	22.305	989.177	775.196
96.943	22.007	988.331	773.151
97.957	21.984	987.508	772.337
98.972	22.025	986.914	771.986
99.987	22.130	986.101	771.741
101.001	22.114	985.034	770.768
102.016	21.978	984.040	769.327
103.030	22.194	983.628	769.883
104.045	22.068	983.031	768.794
105.060	22.050	981.800	767.687
106.074	21.831	980.340	765.519
107.089	21.676	979.590	764.191
108.103	21.278	978.573	761.597
109.118	21.039	977.495	759.649
110.133	21.045	975.837	758.320
111.147	20.966	975.116	757.347
112.162	21.136	974.572	757.595
113.176	21.250	974.207	757.741
114.191	21.440	973.573	758.005
115.206	21.304	972.989	756.893
116.220	21.271	971.767	755.734
117.235	21.203	970.735	754.568
118.249	20.944	970.329	753.067
119.264	20.833	969.294	751.719
120.279	20.771	968.777	750.983
121.293	20.732	967.500	749.762
122.308	20.626	966.908	748.781
123.322	20.579	965.571	747.477
124.337	20.514	964.338	746.177
125.352	20.607	963.276	745.686
126.366	20.642	962.670	745.300
127.381	20.705	962.176	745.122
128.395	20.927	961.020	745.111
129.410	20.781	960.359	743.910
130.424	21.062	959.778	744.595
131.439	21.090	959.708	744.591
132.454	21.243	958.594	744.312
133.468	21.123	958.070	743.328
134.483	21.289	956.558	742.798
135.497	21.378	955.643	742.400
136.512	21.358	955.132	741.853
137.527	21.244	954.379	740.717
138.541	21.303	953.810	740.460
139.556	21.410	952.805	740.066
140.570	21.799	952.188	741.167
141.585	22.052	951.690	741.785
142.600	22.096	951.100	741.445
143.614	22.310	950.117	741.515
144.629	22.382	949.441	741.225
145.643	22.349	948.087	739.961
146.658	21.813	946.757	736.609
147.673	21.671	945.831	735.226
148.687	21.575	944.681	733.866
149.702	21.457	943.941	732.732
150.716	21.405	943.041	731.750
151.731	21.515	942.732	731.907
152.746	21.543	942.031	731.413
153.760	21.571	941.616	731.145
154.775	21.762	940.780	731.228
155.789	21.840	940.186	731.025
156.804	21.724	939.816	730.190
157.819	21.911	938.724	730.054
158.833	21.853	938.561	729.621
159.848	22.228	937.902	730.603
160.862	22.118	936.221	728.772
161.877	21.819	934.617	726.222
162.892	21.394	933.676	723.668
163.906	21.353	932.532	722.549
164.921	21.146	932.045	721.252
165.935	21.361	931.170	721.399
166.950	21.523	930.526	721.504
167.964	21.554	929.521	720.789
168.979	21.325	928.682	719.130
169.994	21.367	927.540	718.357
171.008	21.622	927.329	719.176
172.023	21.979	926.677	720.071
173.037	22.158	926.054	720.258
174.052	21.818	925.180	718.121
175.067	21.342	924.489	715.573
176.081	21.116	923.260	713.637
177.096	21.035	922.768	712.862
178.110	21.214	922.349	713.204
179.125	21.132	921.703	712.306
180.140	21.450	921.372	713.284
181.154	21.800	921.433	714.697
182.169	22.063	921.021	715.387
183.183	21.891	920.447	714.177
184.198	22.006	919.456	713.814
185.213	21.886	918.849	712.789
186.227	21.858	918.598	712.420
187.242	21.966	918.185	712.474
188.256	22.100	917.867	712.707
189.271	22.139	916.848	712.011
190.286	21.833	915.382	709.570
191.300	21.274	914.298	706.409
192.315	21.053	913.456	704.801
193.329	21.065	913.272	704.649
194.344	21.314	912.793	705.218
195.359	21.548	912.226	705.664
196.373	21.726	911.623	705.852
197.388	21.985	911.532	706.763
198.402	22.187	911.707	707.646
199.417	22.420	911.029	707.995
200.432	22.740	910.246	708.609
201.446	22.691	909.759	707.970
202.461	22.691	909.829	707.965
203.475	22.413	908.910	706.071
204.490	22.020	907.538	703.370
205.504	21.842	906.872	702.079
206.519	21.802	906.032	701.207
207.534	21.976	905.534	701.453
208.548	21.935	904.921	700.754
209.563	21.839	904.320	699.842
210.577	21.903	903.844	699.665
211.592	22.525	903.238	701.613
212.607	22.392	903.078	700.899
213.621	22.421	901.569	699.781
214.636	22.369	900.964	699.043
215.650	22.205	900.557	698.015
216.665	22.318	899.839	697.844
217.680	22.460	899.212	697.858
218.694	22.598	898.848	698.060
219.709	22.297	898.294	696.378
220.723	22.228	897.509	695.435
221.738	22.179	896.716	694.564
222.753	22.238	895.886	694.094
223.767	22.214	895.687	693.783
224.782	22.598	895.551	695.132
225.796	22.589	894.999	694.604
226.811	22.243	893.844	692.286
227.826	22.034	892.769	690.570
228.840	21.934	891.938	689.474
229.855	21.901	891.511	688.953
230.869	21.923	890.780	688.413
231.884	21.738	890.614	687.498
232.899	21.867	889.544	687.119
233.913	21.723	888.926	686.015
234.928	21.603	887.843	684.650
235.942	21.375	887.833	683.690
236.957	21.400	887.268	683.289
237.972	21.628	886.662	683.655
238.986	21.520	886.094	682.735
240.001	21.592	885.496	682.492
241.015	21.711	884.662	682.254
242.030	21.878	884.426	682.661
243.045	22.038	883.906	682.823
244.059	21.977	883.234	682.006
245.074	22.088	882.660	681.934
246.088	22.139	882.528	681.968
247.103	22.458	881.665	682.477
248.117	22.850	881.761	684.013
249.132	23.055	881.917	684.867
250.147	23.457	881.505	686.041
251.161	23.513	880.678	685.552
252.176	23.449	880.286	684.941
253.190	23.668	879.252	684.919
254.205	23.425	879.559	684.159
255.220	23.446	878.039	682.999
256.234	23.226	877.900	681.982
257.249	23.210	876.835	681.034
258.263	23.237	875.883	680.337
259.278	23.194	875.474	679.793
260.293	23.350	875.058	680.010
261.307	23.453	874.673	680.045
262.322	23.337	874.204	679.177
263.336	23.303	873.202	678.209
264.351	23.195	872.546	677.223
265.366	23.312	872.180	677.327
266.380	23.223	871.668	676.529
267.395	23.377	870.651	676.270
268.409	23.150	869.696	674.602
269.424	23.161	869.218	674.215
270.439	23.011	868.396	672.946
271.453	22.969	867.506	672.038
272.468	22.841	867.432	671.435
273.482	22.879	866.874	671.086
274.497	22.915	866.012	670.498
275.512	22.969	865.922	670.572
276.526	22.997	865.445	670.250
277.541	23.139	864.925	670.327
278.555	23.419	864.369	670.896
279.570	23.585	864.027	671.200
280.585	23.486	863.083	670.031
281.599	23.283	861.769	668.187
282.614	22.895	861.477	666.437
283.628	22.678	860.722	664.977
284.643	22.809	860.216	665.019
285.657	23.006	859.491	665.142
286.672	22.944	859.155	664.588
287.687	23.195	858.518	664.981
288.701	23.151	857.756	664.166
289.716	23.136	857.163	663.594
290.730	23.151	856.964	663.435
291.745	23.116	856.228	662.677
292.760	23.162	856.204	662.773
293.774	23.553	855.802	663.865
294.789	23.557	854.240	662.609
295.803	23.194	853.653	660.741
296.818	23.120	852.952	659.863
297.833	23.137	852.619	659.611
298.847	22.943	852.092	658.423
299.862	23.229	851.380	658.879
300.876	23.467	851.051	659.450
301.891	23.593	850.747	659.624
302.906	23.770	850.636	660.138
303.920	23.859	850.584	660.372
304.935	24.039	849.828	660.393
305.949	23.773	848.986	658.694
306.964	23.450	848.174	656.811
307.979	23.464	847.290	656.118
308.993	23.673	846.999	656.608
310.008	23.644	846.758	656.256
311.022	23.464	845.832	654.816
312.037	23.286	845.185	653.599
313.052	23.125	844.317	652.276
314.066	22.749	843.615	650.294
315.081	22.675	843.215	649.655
316.095	22.852	842.334	649.568
317.110	22.805	842.114	649.169
318.125	22.692	841.616	648.312
319.139	22.667	840.451	647.267
320.154	22.743	840.404	647.450
321.168	22.900	840.147	647.772
322.183	22.893	839.709	647.352
323.197	23.099	839.121	647.594
324.212	23.145	838.604	647.307
325.227	22.966	837.580	645.805
326.241	22.889	837.152	645.138
327.256	22.812	836.562	644.344
328.270	22.711	836.222	643.657
329.285	22.772	835.271	643.090
330.300	22.740	834.550	642.360
331.314	22.848	834.251	642.468
332.329	23.269	833.983	643.734
333.343	23.169	834.323	643.577
334.358	23.351	833.751	643.740
335.373	23.329	833.513	643.421
336.387	23.463	832.816	643.309
337.402	23.609	832.727	643.715
338.416	23.863	832.688	644.548
339.431	24.018	832.627	645.006
340.446	24.161	832.162	645.107
341.460	24.182	831.604	644.691
342.475	24.114	831.683	644.451
343.489	24.231	831.176	644.425
344.504	24.407	830.352	644.362
345.519	24.361	830.439	644.209
346.533	24.213	829.485	642.876
347.548	23.978	828.768	641.416
348.562	23.717	827.417	639.377
349.577	23.456	827.171	638.191
350.592	23.414	826.037	637.106
351.606	23.352	825.561	636.462
352.621	23.399	824.727	635.931
353.635	23.405	824.541	635.753
354.650	23.565	823.638	635.574
355.665	23.530	823.269	635.106
356.679	23.740	822.560	635.256
357.694	23.693	822.090	634.666
358.708	23.665	821.336	633.929
359.723	23.575	820.696	633.059
360.738	23.606	820.368	632.860
361.752	23.759	820.020	633.081
362.767	24.128	819.675	634.072
363.781	24.320	818.964	634.147
364.796	24.454	819.295	634.825
365.810	24.410	818.516	634.008
366.825	24.693	817.947	634.518
367.840	24.341	817.640	632.974
368.854	24.121	816.682	631.395
369.869	24.102	816.497	631.132
370.883	23.972	816.347	630.499
371.898	24.431	815.439	631.366
372.913	24.415	815.066	630.965
373.927	24.252	814.379	629.799
374.942	24.139	814.456	629.405
375.956	24.370	814.230	629.989
376.971	24.478	813.964	630.110
377.986	24.608	813.279	629.983
379.000	24.593	813.002	629.658
380.015	24.563	812.281	628.939
381.029	24.494	811.462	628.007
382.044	24.564	811.023	627.858
383.059	24.730	810.309	627.831
384.073	24.436	810.076	626.565
385.088	24.174	808.932	624.706
386.102	23.943	808.329	623.375
387.117	23.702	807.710	621.999
388.132	23.748	807.157	621.677
389.146	23.887	806.576	621.661
390.161	24.340	806.327	622.999
391.175	24.541	806.080	623.451
392.190	24.321	805.116	621.885
393.205	23.949	804.512	620.067
394.219	23.819	803.594	618.852
395.234	23.591	803.597	618.007
396.248	23.604	803.165	617.665
397.263	23.641	802.713	617.392
398.278	23.504	801.924	616.255
399.292	23.460	801.838	615.981
400.307	23.416	801.283	615.347
401.321	23.478	800.910	615.219
402.336	23.799	800.609	616.048
403.350	23.978	800.504	616.533
404.365	24.400	799.998	617.548
405.380	24.836	799.859	618.896
406.394	25.043	799.528	619.300
407.409	24.889	799.191	618.454
408.423	24.966	798.945	618.473
409.438	25.057	798.438	618.341
410.453	24.985	798.179	617.838
411.467	24.985	797.577	617.316
412.482	24.991	797.162	616.960
413.496	25.182	796.807	617.290
414.511	25.045	796.353	616.411
415.526	24.933	795.821	615.561
416.540	24.846	795.488	614.948
417.555	24.904	794.701	614.487
418.569	24.956	794.312	614.309
419.584	24.761	794.088	613.412
420.599	24.809	793.379	612.975
421.613	163.486	1369.952	1796.146
422.628	141.798	1453.979	1796.224
