DTS Sentinel unit serial number:	SN413079Multiplexer serial number:	ORYXHardware model number:	OX4-SRSoftware version number:	ORYX F/W v4.00 Oryx Data Collector v3.7.2.0data status	okinstallation	princeton_trtdifferential loss correction	single-endedforward channel	channel 1reverse channel	N/Adate	2019/09/16time	05:06:35forward acquisition time	60.00reverse acquisition time	0.00gamma	496.2192k internal	0.2332k external	0.2332temperature offset calibration	0.9983default loss term (dB/km)	0.3790temperature slope calibration	1.0000multiplexer offset coefficient	1.0000multiplexer slope coefficient	1.0000fibre end	0.00T internal ref (°C)	27.19T ext. ref 1 (°C)	11.02T ext. ref 2 (°C)	22.11length (m)	temperature (°C)	Stokes	anti-Stokes-747.200	-6.431	-0.121	0.083
-746.185	800.000	0.018	0.060
-745.171	800.000	-0.126	-0.446
-744.156	164.199	0.053	0.075
-743.142	-72.931	-0.395	0.146
-742.127	-37.706	-0.262	0.141
-741.112	-78.285	-0.130	-0.045
-740.098	359.450	-0.123	-0.248
-739.083	-66.583	0.307	-0.122
-738.069	-200.000	0.009	-0.148
-737.054	103.184	-0.112	0.133
-736.039	346.498	-0.093	-0.184
-735.025	-200.000	0.022	-0.187
-734.010	-86.650	0.323	-0.099
-732.996	-118.655	-0.131	-0.023
-731.981	210.639	-0.113	-0.179
-730.966	800.000	0.063	-0.234
-729.952	-181.958	0.122	-0.002
-728.937	-200.000	0.007	0.197
-727.923	151.640	-0.180	-0.247
-726.908	-200.000	-0.004	0.193
-725.894	180.712	-0.110	-0.162
-724.879	24.234	0.140	0.116
-723.864	-87.637	-0.411	-0.125
-722.850	91.960	-0.179	-0.203
-721.835	258.138	0.052	-0.090
-720.821	198.732	-0.125	-0.192
-719.806	-43.232	0.290	0.148
-718.791	630.775	0.112	-0.285
-717.777	-200.000	0.070	0.321
-716.762	83.809	-0.118	-0.129
-715.748	162.691	0.066	-0.093
-714.733	-200.000	-0.000	-0.215
-713.718	-101.818	-0.330	-0.080
-712.704	248.141	0.146	-0.249
-711.689	-200.000	0.007	-0.055
-710.675	-36.254	-0.248	0.134
-709.660	-113.989	0.131	0.026
-708.645	160.344	-0.136	-0.191
-707.631	509.090	-0.186	-0.433
-706.616	-160.196	0.427	-0.023
-705.602	-87.873	0.232	0.070
-704.587	263.606	0.158	-0.275
-703.572	-178.736	-0.276	-0.006
-702.558	19.439	0.154	0.125
-701.543	800.000	0.041	-0.126
-700.529	291.087	0.144	-0.263
-699.514	-139.620	-0.349	0.037
-698.499	-140.735	-0.213	0.022
-697.485	772.561	0.126	-0.346
-696.470	-137.916	-0.174	0.020
-695.456	-33.100	0.288	0.160
-694.441	136.898	-0.210	0.275
-693.426	800.000	0.038	-0.149
-692.412	-126.894	0.025	-0.004
-691.397	-97.389	0.037	-0.010
-690.383	281.381	0.211	-0.379
-689.368	800.000	-0.101	-0.323
-688.354	800.000	-0.149	0.521
-687.339	-76.403	-0.154	-0.054
-686.324	-200.000	0.015	-0.179
-685.310	-97.995	0.241	0.062
-684.295	-35.035	0.123	-0.067
-683.281	48.358	-0.258	-0.242
-682.266	548.868	-0.192	0.462
-681.251	139.478	0.115	0.152
-680.237	-96.682	0.164	0.043
-679.222	543.221	0.047	-0.112
-678.208	-12.706	-0.169	0.110
-677.193	-200.000	-0.005	0.076
-676.178	187.158	0.160	-0.239
-675.164	-77.868	0.235	-0.081
-674.149	-168.860	-0.210	0.008
-673.135	-195.971	-0.119	-0.001
-672.120	-70.156	0.248	-0.095
-671.105	146.299	-0.231	-0.312
-670.091	430.409	0.024	0.052
-669.076	94.062	-0.335	0.381
-668.062	204.493	-0.050	0.077
-667.047	105.710	-0.081	0.096
-666.032	526.386	-0.130	-0.306
-665.018	87.888	0.124	-0.138
-664.003	-200.000	0.031	0.395
-662.989	344.632	-0.148	0.291
-661.974	-25.546	0.029	0.017
-660.959	144.660	-0.167	-0.224
-659.945	30.789	0.121	-0.104
-658.930	124.964	-0.123	-0.155
-657.916	-200.000	0.021	-0.148
-656.901	175.121	-0.064	0.093
-655.886	496.728	-0.030	0.070
-654.872	118.407	-0.055	-0.068
-653.857	660.364	0.015	0.038
-652.843	800.000	-0.099	0.410
-651.828	-200.000	-0.055	0.367
-650.814	45.817	0.061	0.057
-649.799	264.622	-0.060	0.104
-648.784	800.000	0.048	0.169
-647.770	-199.973	-0.103	0.001
-646.755	-122.328	-0.166	0.027
-645.741	-37.199	-0.039	-0.021
-644.726	-22.734	0.142	-0.086
-643.711	-38.746	-0.226	-0.119
-642.697	191.636	-0.185	0.279
-641.682	-122.100	0.329	-0.054
-640.668	-113.229	0.137	0.027
-639.653	121.273	-0.140	-0.175
-638.638	-173.890	-0.197	0.006
-637.624	194.622	0.111	-0.168
-636.609	156.656	0.123	0.171
-635.595	-72.046	0.260	0.097
-634.580	-52.602	0.121	0.056
-633.565	-14.663	-0.263	-0.169
-632.551	-120.805	-0.245	-0.041
-631.536	-200.000	0.033	-0.148
-630.522	63.966	0.133	-0.134
-629.507	-59.249	-0.280	0.121
-628.492	-200.000	0.013	0.103
-627.478	-60.635	-0.401	-0.170
-626.463	45.535	0.142	0.131
-625.449	-47.662	-0.293	-0.143
-624.434	158.622	-0.145	-0.202
-623.419	41.233	-0.062	0.056
-622.405	-72.784	-0.086	0.032
-621.390	-189.213	0.282	-0.003
-620.376	256.471	0.076	-0.131
-619.361	154.221	-0.075	0.103
-618.346	-35.553	-0.051	-0.028
-617.332	800.000	-0.072	0.270
-616.317	-30.426	-0.249	-0.142
-615.303	-143.606	-0.070	-0.007
-614.288	-126.842	-0.172	0.025
-613.273	1.510	0.289	-0.208
-612.259	-120.412	0.110	-0.019
-611.244	-200.000	-0.005	0.241
-610.230	115.955	0.061	-0.075
-609.215	-82.360	-0.353	0.115
-608.201	-164.723	0.101	-0.005
-607.186	365.951	0.058	-0.117
-606.171	140.017	0.341	0.450
-605.157	-95.106	-0.046	-0.013
-604.142	179.232	0.110	-0.161
-603.128	800.000	0.087	0.295
-602.113	-88.334	-0.347	-0.104
-601.098	-96.185	-0.110	0.029
-600.084	19.575	0.180	0.145
-599.069	-46.593	-0.209	-0.102
-598.055	-72.690	-0.157	-0.058
-597.040	800.000	-0.057	-0.220
-596.025	-22.356	0.212	0.128
-595.011	-87.549	-0.268	-0.081
-593.996	139.485	0.095	-0.126
-592.982	-83.952	0.106	0.034
-591.967	25.337	-0.325	0.270
-590.952	124.310	0.240	0.302
-589.938	-200.000	-0.009	0.387
-588.923	93.557	-0.299	-0.339
-587.909	-24.570	-0.272	-0.162
-586.894	-75.091	-0.251	-0.090
-585.879	62.361	0.141	-0.141
-584.865	514.000	0.136	0.318
-583.850	800.000	-0.059	0.190
-582.836	-80.963	0.085	0.028
-581.821	-99.660	0.086	0.022
-580.806	-53.692	0.253	-0.115
-579.792	96.977	-0.335	-0.384
-578.777	-68.303	-0.097	-0.038
-577.763	455.292	-0.046	0.102
-576.748	387.618	-0.021	0.043
-575.733	-27.312	0.192	0.112
-574.719	-120.850	-0.188	-0.032
-573.704	651.903	-0.140	-0.358
-572.690	-0.336	0.177	-0.126
-571.675	-200.000	-0.015	-0.126
-570.661	-25.756	-0.233	-0.137
-569.646	-91.023	0.111	-0.032
-568.631	800.000	-0.044	-0.161
-567.617	-65.302	-0.266	0.107
-566.602	43.354	-0.059	0.054
-565.588	-139.921	0.116	0.012
-564.573	34.149	-0.183	-0.160
-563.558	28.588	0.181	0.153
-562.544	-90.445	-0.077	-0.022
-561.529	11.422	-0.163	0.125
-560.515	800.000	-0.097	-0.327
-559.500	114.409	0.029	0.036
-558.485	800.000	0.035	-0.106
-557.471	-200.000	0.004	-0.059
-556.456	800.000	0.045	-0.124
-555.442	-65.428	0.251	-0.101
-554.427	-105.818	-0.368	-0.083
-553.412	5.783	0.404	-0.298
-552.398	-200.000	0.001	0.340
-551.383	800.000	0.073	-0.236
-550.369	95.105	-0.177	-0.202
-549.354	-200.000	-0.012	0.162
-548.339	282.365	0.039	0.069
-547.325	-62.842	-0.196	-0.081
-546.310	-59.709	-0.349	-0.149
-545.296	800.000	0.066	0.248
-544.281	195.475	0.193	0.293
-543.266	-62.875	-0.302	-0.125
-542.252	800.000	0.052	-0.143
-541.237	780.629	-0.074	0.203
-540.223	-200.000	0.026	-0.204
-539.208	-114.988	0.394	0.075
-538.193	182.069	-0.095	0.139
-537.179	-136.523	0.226	-0.026
-536.164	-200.000	-0.039	-0.243
-535.150	-200.000	-0.003	0.074
-534.135	244.320	0.205	0.343
-533.121	-77.643	-0.116	0.040
-532.106	86.411	-0.190	0.209
-531.091	700.426	-0.089	-0.235
-530.077	-170.649	-0.402	0.014
-529.062	21.582	-0.127	0.103
-528.048	10.811	0.335	-0.255
-527.033	41.803	0.301	-0.272
-526.018	-39.595	0.512	0.268
-525.004	279.863	-0.133	0.236
-523.989	8.682	-0.243	0.182
-522.975	-200.000	0.011	-0.338
-521.960	-55.059	-0.156	-0.070
-520.945	567.704	-0.090	-0.218
-519.931	284.575	0.126	-0.227
-518.916	-101.135	0.243	-0.059
-517.902	-45.975	-0.261	-0.128
-516.887	-37.133	-0.335	-0.179
-515.872	12.066	-0.394	0.302
-514.858	-119.056	-0.323	0.056
-513.843	-190.628	0.160	-0.002
-512.829	155.237	-0.184	0.253
-511.814	250.798	0.128	0.218
-510.799	-34.221	0.287	-0.157
-509.785	123.795	0.090	0.113
-508.770	322.772	0.143	-0.272
-507.756	-123.783	-0.179	-0.028
-506.741	78.584	-0.102	-0.109
-505.726	75.532	-0.180	-0.190
-504.712	-97.268	-0.109	-0.028
-503.697	-49.385	0.226	-0.107
-502.683	426.674	0.047	-0.101
-501.668	-106.533	0.377	-0.084
-500.653	-133.105	0.089	0.011
-499.639	-11.457	-0.077	-0.051
-498.624	258.808	-0.097	-0.167
-497.610	4.731	-0.168	0.123
-496.595	-158.910	0.426	-0.024
-495.581	-146.962	-0.176	0.015
-494.566	45.628	-0.224	0.206
-493.551	755.327	-0.063	0.170
-492.537	-200.000	-0.057	-0.453
-491.522	-168.974	-0.058	0.002
-490.508	331.391	-0.049	0.093
-489.493	32.161	0.059	0.050
-488.478	-191.790	0.238	-0.002
-487.464	338.409	-0.096	0.186
-486.449	-200.000	0.035	0.257
-485.435	518.976	0.052	-0.122
-484.420	235.603	0.109	0.179
-483.405	-200.000	-0.015	-0.161
-482.391	-200.000	0.050	-0.229
-481.376	525.733	-0.086	0.203
-480.362	-101.113	-0.402	-0.098
-479.347	-103.456	0.246	0.058
-478.332	-35.102	-0.227	0.123
-477.318	478.900	0.098	0.221
-476.303	-54.848	0.415	0.187
-475.289	265.764	0.108	0.187
-474.274	-120.023	-0.223	-0.038
-473.259	6.795	-0.190	-0.140
-472.245	185.405	0.116	0.172
-471.230	136.961	0.146	0.189
-470.216	28.074	0.109	-0.092
-469.201	378.221	-0.064	0.130
-468.186	800.000	0.098	-0.363
-467.172	57.385	0.091	-0.089
-466.157	-102.599	-0.326	0.077
-465.143	34.067	0.047	-0.041
-464.128	571.027	-0.129	-0.313
-463.113	-40.148	0.240	0.124
-462.099	-200.000	-0.057	-0.306
-461.084	-200.000	0.015	-0.124
-460.070	12.435	0.132	-0.102
-459.055	49.542	-0.250	0.234
-458.040	23.127	0.362	0.296
-457.026	-200.000	0.001	0.166
-456.011	-95.192	0.202	0.054
-454.997	290.813	-0.164	0.296
-453.982	-10.795	-0.136	0.090
-452.968	-104.444	0.248	-0.057
-451.953	74.803	-0.145	0.151
-450.938	12.290	-0.210	0.161
-449.924	145.842	-0.116	-0.155
-448.909	-149.131	0.155	0.012
-447.895	800.000	0.087	-0.241
-446.880	-200.000	-0.062	-0.482
-445.865	-153.796	0.093	-0.006
-444.851	-30.951	-0.110	-0.062
-443.836	-66.163	0.082	-0.032
-442.822	629.217	-0.113	0.285
-441.807	151.546	-0.109	-0.147
-440.792	-65.420	-0.374	0.150
-439.778	490.387	0.053	0.121
-438.763	-50.778	0.255	-0.119
-437.749	16.678	0.162	-0.128
-436.734	-200.000	0.028	-0.342
-435.719	-116.354	-0.170	0.031
-434.705	-122.874	0.135	-0.022
-433.690	703.092	0.022	-0.058
-432.676	-200.000	-0.019	0.117
-431.661	-99.308	-0.322	0.081
-430.646	800.000	-0.054	-0.217
-429.632	-200.000	-0.079	0.520
-428.617	-48.562	-0.249	0.119
-427.603	217.788	0.292	0.463
-426.588	-98.689	0.408	0.103
-425.573	-102.466	-0.130	-0.031
-424.559	237.211	0.099	0.163
-423.544	-79.847	-0.152	-0.051
-422.530	111.348	-0.059	0.071
-421.515	-183.587	0.176	0.003
-420.500	800.000	0.037	-0.135
-419.486	800.000	0.006	0.025
-418.471	-99.937	0.091	-0.023
-417.457	-122.533	-0.232	-0.037
-416.442	-200.000	-0.002	-0.105
-415.428	-200.000	-0.004	-0.234
-414.413	23.378	0.363	0.296
-413.398	-64.371	-0.187	0.076
-412.384	74.330	0.184	-0.192
-411.369	6.819	0.181	0.134
-410.355	309.097	-0.076	0.140
-409.340	302.662	0.121	0.223
-408.325	-85.190	-0.124	-0.039
-407.311	22.685	-0.154	0.125
-406.296	800.000	-0.021	-0.070
-405.282	-158.256	-0.332	0.019
-404.267	-200.000	0.008	0.050
-403.252	-200.000	-0.019	-0.139
-402.238	381.583	0.126	-0.258
-401.223	-50.423	-0.147	-0.069
-400.209	11.070	0.138	0.105
-399.194	-200.000	-0.013	0.327
-398.179	391.468	0.121	-0.249
-397.165	-39.989	0.362	0.187
-396.150	-124.828	0.074	0.011
-395.136	-163.056	0.132	-0.006
-394.121	-200.000	-0.013	0.082
-393.106	-119.429	-0.265	-0.046
-392.092	160.378	0.213	0.295
-391.077	-81.313	-0.160	0.052
-390.063	5.000	-0.105	-0.077
-389.048	120.747	-0.085	-0.105
-388.033	61.054	-0.162	0.160
-387.019	-34.000	0.170	-0.093
-386.004	-200.000	0.021	-0.149
-384.990	193.140	-0.070	-0.106
-383.975	-200.000	0.012	0.492
-382.960	-157.831	0.362	0.021
-381.946	-62.025	0.070	-0.029
-380.931	-59.832	-0.225	-0.096
-379.917	800.000	-0.006	0.025
-378.902	-200.000	0.099	0.468
-377.888	-71.037	0.314	0.117
-376.873	-6.945	0.236	-0.159
-375.858	-120.330	0.376	0.063
-374.844	62.627	0.163	-0.162
-373.829	5.058	-0.271	-0.198
-372.815	-68.653	-0.043	0.017
-371.800	0.197	0.039	-0.027
-370.785	-61.694	0.229	-0.095
-369.771	429.586	-0.054	0.116
-368.756	-62.388	0.097	0.040
-367.742	-200.000	-0.032	-0.316
-366.727	-166.169	0.363	-0.015
-365.712	-200.000	0.002	0.088
-364.698	24.269	0.126	-0.103
-363.683	-143.740	0.059	-0.006
-362.669	-200.000	-0.089	-0.425
-361.654	-16.877	0.145	-0.091
-360.639	800.000	-0.082	-0.335
-359.625	-200.000	0.023	0.308
-358.610	23.680	-0.119	-0.097
-357.596	199.643	0.189	0.288
-356.581	182.365	0.145	-0.212
-355.566	-47.573	0.248	0.119
-354.552	-91.991	0.275	-0.077
-353.537	-136.328	0.124	-0.014
-352.523	68.449	0.060	-0.061
-351.508	-56.153	0.214	0.094
-350.493	333.954	0.163	-0.312
-349.479	656.218	0.113	-0.288
-348.464	-200.000	0.017	0.147
-347.450	-200.000	-0.053	-0.455
-346.435	-128.002	0.255	-0.036
-345.420	-200.000	0.026	-0.282
-344.406	-200.000	0.023	-0.240
-343.391	235.325	0.092	0.151
-342.377	-71.325	-0.144	0.054
-341.362	646.333	-0.149	0.376
-340.348	62.924	-0.106	0.105
-339.333	77.319	0.150	-0.158
-338.318	-19.115	-0.173	0.107
-337.304	800.000	0.069	0.245
-336.289	-150.496	-0.107	-0.008
-335.275	-200.000	-0.057	-0.347
-334.260	173.221	-0.244	-0.348
-333.245	440.709	0.061	-0.132
-332.231	-75.431	-0.343	0.121
-331.216	-75.008	-0.254	0.090
-330.202	-98.893	-0.308	-0.077
-329.187	-200.000	0.014	-0.166
-328.172	-200.000	0.039	0.365
-327.158	136.438	-0.110	-0.142
-326.143	-43.254	0.188	0.094
-325.129	49.301	0.119	-0.110
-324.114	261.321	-0.113	0.194
-323.099	382.740	-0.070	-0.143
-322.085	800.000	0.025	0.074
-321.070	-200.000	0.076	-0.397
-320.056	84.631	0.045	-0.049
-319.041	16.897	-0.131	0.102
-318.026	321.899	0.121	0.228
-317.012	74.350	0.269	0.280
-315.997	248.448	0.180	-0.301
-314.983	-20.446	-0.109	-0.066
-313.968	333.573	-0.060	0.114
-312.953	-37.231	0.069	-0.037
-311.939	-139.846	0.326	-0.034
-310.924	234.216	0.102	0.167
-309.910	-111.159	-0.186	-0.038
-308.895	135.121	0.132	-0.170
-307.880	-200.000	-0.001	-0.231
-306.866	800.000	-0.101	0.400
-305.851	704.896	0.096	-0.250
-304.837	6.174	0.256	-0.188
-303.822	-68.755	0.133	0.051
-302.807	130.209	-0.129	0.163
-301.793	-200.000	0.064	-0.349
-300.778	-200.000	0.036	0.166
-299.764	-200.000	0.008	0.241
-298.749	60.138	-0.089	0.087
-297.735	234.524	-0.124	0.202
-296.720	-92.933	-0.025	-0.007
-295.705	441.774	-0.167	-0.360
-294.691	128.718	0.083	0.104
-293.676	-26.532	-0.035	-0.020
-292.662	462.038	0.210	-0.462
-291.647	603.875	-0.096	-0.237
-290.632	-159.839	0.179	0.010
-289.618	800.000	0.065	0.191
-288.603	68.953	-0.102	0.103
-287.589	375.833	0.033	0.067
-286.574	-91.826	0.207	0.058
-285.559	95.656	-0.194	0.219
-284.545	800.000	0.008	-0.035
-283.530	-31.613	0.171	0.095
-282.516	684.744	-0.183	-0.471
-281.501	22.468	-0.098	0.079
-280.486	442.446	0.174	0.376
-279.472	280.650	0.067	0.119
-278.457	-200.000	0.013	0.080
-277.443	134.019	0.239	-0.306
-276.428	23.372	-0.222	0.181
-275.413	-31.568	-0.119	-0.066
-274.399	40.229	-0.099	-0.088
-273.384	-157.275	0.202	0.012
-272.370	-38.732	0.194	-0.101
-271.355	252.016	0.110	-0.185
-270.340	-200.000	-0.059	0.530
-269.326	-132.784	-0.078	0.010
-268.311	782.545	0.087	0.235
-267.297	21.605	0.084	0.067
-266.282	-108.640	0.113	0.024
-265.267	-200.000	-0.004	-0.095
-264.253	83.979	0.127	0.136
-263.238	167.433	-0.107	0.150
-262.224	800.000	-0.137	0.426
-261.209	-200.000	0.019	0.154
-260.195	-107.406	-0.404	-0.088
-259.180	271.536	0.057	0.099
-258.165	108.445	0.040	-0.047
-257.151	-200.000	0.028	0.205
-256.136	99.316	-0.132	-0.151
-255.122	330.464	-0.199	0.378
-254.107	-200.000	0.005	-0.114
-253.092	265.823	-0.114	0.197
-252.078	-200.000	-0.015	-0.143
-251.063	-200.000	-0.024	-0.228
-250.049	18.650	0.129	-0.102
-249.034	-64.011	0.181	0.073
-248.019	-87.497	-0.128	0.038
-247.005	318.771	-0.102	0.191
-245.990	-127.582	0.126	-0.018
-244.976	-3.859	0.328	-0.225
-243.961	128.316	-0.127	-0.159
-242.946	-200.000	-0.022	-0.198
-241.932	-48.159	0.059	-0.028
-240.917	-79.032	0.066	-0.022
-239.903	30.688	-0.074	-0.062
-238.888	-99.910	0.545	-0.134
-237.873	131.497	-0.125	-0.159
-236.859	-86.789	0.294	-0.089
-235.844	-200.000	0.042	-0.185
-234.830	424.665	-0.180	0.382
-233.815	-196.277	0.185	0.001
-232.800	-27.971	0.060	0.034
-231.786	-106.735	-0.079	-0.017
-230.771	-15.284	0.045	-0.028
-229.757	-200.000	-0.017	-0.113
-228.742	356.296	-0.113	-0.222
-227.727	-200.000	-0.022	-0.263
-226.713	1.453	-0.298	-0.211
-225.698	-109.318	-0.091	0.019
-224.684	-147.668	-0.252	0.021
-223.669	-2.014	0.064	-0.044
-222.655	-200.000	-0.012	-0.127
-221.640	138.982	0.176	0.228
-220.625	-161.042	-0.399	-0.021
-219.611	800.000	0.088	0.280
-218.596	-38.913	0.234	0.121
-217.582	-200.000	0.041	0.198
-216.567	-5.955	-0.125	0.084
-215.552	494.123	-0.093	0.210
-214.538	96.254	0.174	0.197
-213.523	-119.366	0.179	0.031
-212.509	242.231	0.054	-0.088
-211.494	652.222	0.095	0.239
-210.479	145.600	-0.181	-0.239
-209.465	-160.294	0.256	-0.014
-208.450	-45.091	-0.052	0.025
-207.436	-13.787	-0.195	-0.124
-206.421	87.395	0.129	-0.141
-205.406	28.431	0.102	-0.085
-204.392	-200.000	0.020	0.113
-203.377	800.000	-0.046	-0.143
-202.363	-26.794	-0.129	-0.074
-201.348	-78.910	-0.154	0.052
-200.333	227.693	0.143	0.229
-199.319	-44.824	-0.142	0.070
-198.304	18.524	-0.221	0.174
-197.290	-175.320	0.459	-0.012
-196.275	-41.294	-0.267	0.135
-195.260	-84.954	-0.161	0.050
-194.246	53.194	-0.034	-0.032
-193.231	-142.227	-0.371	0.036
-192.217	-119.935	-0.429	0.073
-191.202	-200.000	0.015	0.383
-190.187	-34.146	0.242	0.131
-189.173	-17.523	0.134	-0.083
-188.158	-200.000	-0.092	0.399
-187.144	-200.000	0.011	0.231
-186.129	281.599	0.037	-0.065
-185.114	-99.274	-0.267	-0.066
-184.100	-200.000	0.049	0.413
-183.085	-200.000	0.014	0.141
-182.071	-95.744	0.207	-0.054
-181.056	800.000	-0.068	-0.257
-180.042	-58.141	-0.087	0.037
-179.027	72.773	-0.238	-0.244
-178.012	800.000	0.022	-0.084
-176.998	-2.893	0.131	-0.090
-175.983	-15.835	-0.104	-0.065
-174.969	115.898	-0.193	0.233
-173.954	540.309	0.052	-0.123
-172.939	439.582	0.090	-0.192
-171.925	177.766	0.188	-0.270
-170.910	110.152	-0.026	-0.031
-169.896	-79.508	-0.074	-0.025
-168.881	-200.000	0.057	-0.363
-167.866	800.000	-0.045	-0.133
-166.852	-132.850	-0.158	0.020
-165.837	457.066	0.151	0.330
-164.823	-29.044	0.240	-0.136
-163.808	-92.482	-0.178	0.049
-162.793	-120.560	0.096	-0.016
-161.779	-78.642	0.248	0.083
-160.764	-200.000	-0.005	-0.107
-159.750	27.166	-0.007	0.006
-158.735	-14.978	0.140	0.088
-157.720	57.218	-0.300	0.288
-156.706	-200.000	-0.032	-0.233
-155.691	-49.945	-0.256	0.119
-154.677	-110.786	0.323	-0.066
-153.662	331.305	0.055	0.103
-152.647	-43.152	-0.217	-0.108
-151.633	-17.444	0.097	0.060
-150.618	800.000	0.014	0.042
-149.604	-200.000	-0.031	-0.163
-148.589	-15.654	-0.173	0.108
-147.574	-164.307	0.338	-0.015
-146.560	106.024	0.200	-0.232
-145.545	105.337	0.105	0.122
-144.531	293.155	-0.097	0.174
-143.516	105.452	0.052	0.060
-142.502	73.571	-0.201	0.207
-141.487	618.009	0.098	-0.242
-140.472	-200.000	0.000	0.187
-139.458	38.813	-0.282	0.248
-138.443	364.706	0.245	0.485
-137.429	-200.000	0.008	0.151
-136.414	-37.555	-0.315	0.165
-135.399	244.995	0.137	0.227
-134.385	58.465	0.216	0.208
-133.370	-85.266	-0.221	0.068
-132.356	-66.377	0.230	0.090
-131.341	800.000	0.102	-0.295
-130.326	-84.885	0.294	-0.091
-129.312	800.000	-0.073	0.298
-128.297	-200.000	-0.026	-0.116
-127.283	4.614	0.029	-0.021
-126.268	-34.849	-0.284	0.152
-125.253	-9.545	-0.224	-0.147
-124.239	-200.000	-0.004	0.176
-123.224	-90.854	0.138	-0.039
-122.210	-70.196	0.161	-0.060
-121.195	800.000	0.095	-0.363
-120.180	-200.000	-0.001	-0.019
-119.166	-38.215	0.103	0.054
-118.151	262.833	-0.120	0.205
-117.137	76.143	-0.163	0.169
-116.122	68.063	0.149	-0.150
-115.107	-57.817	-0.217	0.093
-114.093	74.490	-0.244	0.252
-113.078	-91.474	-0.144	0.040
-112.064	-61.970	-0.130	-0.053
-111.049	800.000	0.108	0.314
-110.034	-82.338	-0.086	0.028
-109.020	800.000	-0.130	0.382
-108.005	642.734	0.159	-0.397
-106.991	-114.945	-0.217	0.041
-105.976	-31.990	0.303	-0.167
-104.962	230.699	-0.124	-0.199
-103.947	656.938	0.074	-0.186
-102.932	-23.688	0.122	0.071
-101.918	-6.392	0.098	-0.066
-100.903	455.777	0.023	0.051
-99.889	-200.000	0.003	-0.179
-98.874	-109.210	-0.117	-0.024
-97.859	-50.263	0.219	-0.102
-96.845	175.555	-0.140	-0.199
-95.830	599.695	0.050	0.123
-94.816	-38.785	0.208	0.108
-93.801	231.256	0.217	-0.349
-92.786	-94.614	0.122	0.032
-91.772	-117.134	0.134	-0.024
-90.757	-200.000	0.001	0.065
-89.743	-51.121	-0.052	0.024
-88.728	-200.000	0.007	0.073
-87.713	220.745	-0.031	-0.050
-86.699	800.000	0.075	0.306
-85.684	-200.000	0.015	-0.073
-84.670	-124.079	0.261	-0.040
-83.655	21.348	-0.108	-0.086
-82.640	-200.000	0.051	-0.233
-81.626	612.833	0.060	0.148
-80.611	-62.623	0.378	-0.154
-79.597	361.288	0.131	-0.258
-78.582	-39.540	0.190	0.098
-77.567	117.937	-0.144	0.174
-76.553	52.599	0.169	-0.158
-75.538	800.000	-0.110	0.347
-74.524	-200.000	0.014	-0.182
-73.509	-12.896	-0.101	0.065
-72.494	-200.000	0.011	0.135
-71.480	591.241	-0.020	-0.048
-70.465	-179.278	0.187	0.004
-69.451	472.166	-0.222	-0.489
-68.436	-153.011	-0.050	0.003
-67.422	-176.535	0.309	0.008
-66.407	-200.000	-0.106	0.000
-65.392	755.259	0.063	-0.168
-64.378	-22.769	0.058	-0.035
-63.363	-19.539	0.267	0.162
-62.349	-94.436	-0.180	-0.048
-61.334	159.767	-0.834	-1.138
-60.319	-3.130	0.689	0.471
-59.305	-200.000	-0.224	-1.056
-58.290	240.773	0.713	1.165
-57.276	652.157	0.713	1.789
-56.261	-200.000	114.988	648.869
-55.246	466.502	1513.658	3320.411
-54.232	146.651	2678.309	3523.850
-53.217	102.991	2151.921	2468.194
-52.203	38.533	1597.661	1394.865
-51.188	30.405	1342.903	1123.471
-50.173	27.511	1305.711	1075.257
-49.159	55.289	1361.173	1288.797
-48.144	53.503	1375.014	1291.138
-47.130	30.743	1331.179	1115.511
-46.115	27.268	1313.492	1080.053
-45.100	27.120	1308.446	1074.989
-44.086	27.015	1305.512	1071.910
-43.071	26.894	1303.910	1069.842
-42.057	27.026	1301.081	1068.254
-41.042	27.098	1299.429	1067.276
-40.027	26.980	1298.465	1065.752
-39.013	27.055	1296.234	1064.318
-37.998	27.001	1294.458	1062.501
-36.984	27.234	1292.234	1061.995
-35.969	27.161	1290.809	1060.358
-34.954	27.287	1288.798	1059.396
-33.940	27.146	1288.319	1058.139
-32.925	27.218	1286.673	1057.166
-31.911	27.271	1284.908	1055.981
-30.896	27.201	1283.503	1054.379
-29.881	27.335	1281.956	1053.841
-28.867	27.289	1281.094	1052.826
-27.852	27.315	1279.006	1051.215
-26.838	27.383	1277.848	1050.616
-25.823	27.232	1276.600	1048.679
-24.809	27.336	1274.812	1047.764
-23.794	27.257	1273.961	1046.571
-22.779	27.256	1272.557	1045.368
-21.765	27.291	1271.425	1044.597
-20.750	27.292	1270.202	1043.558
-19.736	27.122	1268.881	1041.457
-18.721	27.132	1267.872	1040.647
-17.706	27.170	1266.776	1039.924
-16.692	27.237	1265.336	1039.083
-15.677	27.101	1264.706	1037.745
-14.663	27.098	1263.576	1036.758
-13.648	27.184	1262.134	1036.024
-12.633	27.135	1261.073	1034.834
-11.619	27.022	1260.848	1033.967
-10.604	27.108	1259.464	1033.281
-9.590	27.062	1258.582	1032.256
-8.575	27.103	1257.554	1031.604
-7.560	27.101	1256.871	1030.988
-6.546	27.235	1255.545	1030.620
-5.531	27.221	1254.420	1029.576
-4.517	27.125	1254.016	1028.659
-3.502	27.174	1253.316	1028.322
-2.487	27.091	1251.931	1026.677
-1.473	27.039	1248.080	1023.184
-0.458	25.689	1232.920	1003.195
0.556	21.024	1217.152	967.737
1.571	17.615	1223.490	953.640
2.586	16.868	1238.675	961.155
3.600	16.961	1228.083	953.377
4.615	15.698	1161.164	894.628
5.629	12.812	1094.813	828.936
6.644	11.141	1078.684	808.364
7.659	11.020	1076.489	806.050
8.673	10.960	1074.992	804.563
9.688	10.939	1074.232	803.819
10.702	11.168	1071.991	803.199
11.717	12.890	1073.435	812.703
12.731	15.939	1077.016	830.399
13.746	17.543	1079.250	839.968
14.761	17.640	1078.464	839.756
15.775	16.631	1076.810	833.430
16.790	15.638	1073.852	826.184
17.804	14.876	1073.035	821.741
18.819	14.502	1071.578	818.718
19.834	14.082	1070.737	815.941
20.848	13.919	1069.876	814.412
21.863	13.790	1068.857	812.934
22.877	13.537	1068.260	811.169
23.892	13.660	1067.056	810.785
24.907	13.552	1066.701	809.913
25.921	13.645	1065.448	809.347
26.936	13.645	1064.394	808.471
27.950	13.711	1062.664	807.411
28.965	13.783	1061.747	806.992
29.980	13.784	1059.966	805.572
30.994	13.823	1058.784	804.790
32.009	13.962	1057.765	804.618
33.023	13.724	1056.983	802.801
34.038	13.857	1055.659	802.364
35.053	13.748	1054.810	801.122
36.067	13.814	1053.898	800.679
37.082	13.662	1053.303	799.422
38.096	13.798	1052.602	799.477
39.111	13.779	1051.621	798.568
40.126	13.662	1050.503	797.084
41.140	13.564	1049.110	795.487
42.155	13.583	1047.759	794.487
43.169	13.486	1046.886	793.290
44.184	13.581	1045.707	792.777
45.199	13.628	1044.762	792.214
46.213	13.629	1043.932	791.520
47.228	13.588	1043.032	790.573
48.242	13.581	1041.750	789.497
49.257	13.787	1040.334	789.335
50.271	13.660	1039.923	788.351
51.286	13.762	1038.738	787.867
52.301	13.672	1038.338	787.066
53.315	13.641	1037.100	785.911
54.330	13.567	1035.640	784.384
55.344	13.604	1034.745	783.814
56.359	13.696	1034.115	783.701
57.374	13.705	1032.753	782.641
58.388	13.518	1032.349	781.385
59.403	13.617	1031.323	781.007
60.417	13.502	1030.405	779.701
61.432	13.515	1029.866	779.284
62.447	13.583	1028.952	778.842
63.461	13.483	1027.875	777.490
64.476	13.454	1027.030	776.648
65.490	13.500	1026.346	776.274
66.505	13.454	1025.646	775.463
67.520	13.570	1025.370	775.726
68.534	13.596	1024.453	775.085
69.549	13.475	1023.791	773.953
70.563	13.372	1023.059	772.848
71.578	13.408	1021.764	771.970
72.593	13.289	1021.413	771.082
73.607	13.372	1020.601	770.786
74.622	13.489	1019.611	770.515
75.636	13.437	1019.222	769.914
76.651	13.311	1018.691	768.856
77.666	13.360	1018.154	768.609
78.680	13.374	1017.391	768.032
79.695	13.490	1016.473	767.807
80.709	13.594	1015.193	767.254
81.724	13.608	1015.174	767.238
82.739	13.561	1014.677	766.576
83.753	13.589	1014.059	766.173
84.768	13.816	1012.490	765.969
85.782	13.738	1011.624	764.885
86.797	13.717	1011.223	764.414
87.812	13.635	1010.356	763.315
88.826	13.729	1008.921	762.599
89.841	13.703	1008.128	761.811
90.855	13.729	1007.510	761.395
91.870	13.842	1006.422	761.024
92.884	13.875	1005.301	760.261
93.899	13.834	1004.970	759.753
94.914	13.852	1004.111	759.120
95.928	13.748	1003.498	758.112
96.943	13.693	1002.700	757.192
97.957	13.809	1001.637	756.852
98.972	13.778	1000.827	756.033
99.987	13.675	999.854	754.763
101.001	13.849	998.535	754.491
102.016	13.750	997.864	753.465
103.030	13.757	996.879	752.686
104.045	13.791	996.409	752.423
105.060	13.780	995.444	751.573
106.074	13.697	994.622	750.512
107.089	13.539	993.780	749.099
108.103	13.629	992.405	748.398
109.118	13.579	991.726	747.597
110.133	13.522	990.820	746.592
111.147	13.545	990.076	746.067
112.162	13.689	988.808	745.693
113.176	13.607	987.984	744.639
114.191	13.772	987.151	744.686
115.206	13.664	987.315	744.258
116.220	13.666	985.908	743.140
117.235	13.684	985.097	742.545
118.249	13.679	984.023	741.646
119.264	13.716	983.115	741.063
120.279	13.640	982.462	740.162
121.293	13.581	981.536	739.139
122.308	13.546	980.613	738.222
123.322	13.513	979.559	737.216
124.337	13.569	978.856	736.872
125.352	13.564	977.899	736.063
126.366	13.465	976.842	734.764
127.381	13.486	975.615	733.867
128.395	13.432	975.053	733.142
129.410	13.815	973.389	733.518
130.424	13.631	973.242	732.530
131.439	13.596	972.584	731.816
132.454	13.673	971.493	731.267
133.468	13.713	970.656	730.751
134.483	13.770	969.987	730.432
135.497	13.667	968.933	729.124
136.512	13.631	968.588	728.638
137.527	13.700	967.280	727.892
138.541	13.786	966.375	727.526
139.556	13.768	966.082	727.162
140.570	13.769	964.845	726.171
141.585	14.025	964.672	727.095
142.600	13.866	963.508	725.461
143.614	14.035	962.264	725.194
144.629	13.928	961.687	724.231
145.643	13.929	960.437	723.228
146.658	13.793	959.812	722.102
147.673	13.821	958.783	721.387
148.687	13.764	957.732	720.285
149.702	13.748	957.291	719.820
150.716	13.743	956.664	719.266
151.731	13.793	955.642	718.649
152.746	13.857	954.916	718.317
153.760	13.873	954.326	717.875
154.775	13.875	953.827	717.447
155.789	13.965	953.214	717.309
156.804	13.995	952.437	716.791
157.819	13.974	951.815	716.170
158.833	14.118	951.133	716.216
159.848	14.081	949.871	715.040
160.862	14.061	949.032	714.260
161.877	13.911	948.323	713.018
162.892	13.878	947.264	712.018
163.906	13.802	946.355	710.947
164.921	13.960	945.554	710.958
165.935	13.839	944.545	709.621
166.950	13.997	943.798	709.673
167.964	14.048	942.459	708.820
168.979	13.961	941.857	707.933
169.994	13.993	941.072	707.416
171.008	14.010	940.536	707.021
172.023	14.103	939.712	706.735
173.037	14.223	938.823	706.513
174.052	14.116	938.363	705.654
175.067	14.038	937.679	704.743
176.081	14.021	937.184	704.237
177.096	13.988	936.967	703.874
178.110	14.140	936.050	703.766
179.125	13.979	935.494	702.605
180.140	14.096	934.985	702.654
181.154	14.130	934.626	702.466
182.169	14.160	933.961	702.032
183.183	14.136	933.407	701.452
184.198	14.319	932.549	701.515
185.213	14.255	932.162	700.893
186.227	14.199	931.138	699.825
187.242	14.314	930.763	699.964
188.256	14.343	930.346	699.712
189.271	14.302	929.366	698.737
190.286	14.171	928.696	697.626
191.300	14.127	927.414	696.414
192.315	13.960	927.369	695.621
193.329	14.094	926.477	695.451
194.344	14.059	925.781	694.722
195.359	14.186	925.338	694.857
196.373	14.135	925.284	694.543
197.388	14.438	924.438	695.109
198.402	14.444	923.838	694.623
199.417	14.429	923.462	694.213
200.432	14.565	922.494	693.991
201.446	14.657	922.095	694.013
202.461	14.462	921.860	692.962
203.475	14.554	921.045	692.670
204.490	14.530	920.230	691.896
205.504	14.460	919.549	691.033
206.519	14.482	918.736	690.452
207.534	14.524	917.811	689.871
208.548	14.528	917.367	689.492
209.563	14.541	916.539	688.863
210.577	14.502	916.290	688.454
211.592	14.619	915.336	688.157
212.607	14.643	914.659	687.689
213.621	14.632	913.941	687.040
214.636	14.614	913.581	686.635
215.650	14.580	912.860	685.892
216.665	14.873	911.322	685.882
217.680	14.902	911.063	685.743
218.694	14.801	910.951	685.183
219.709	14.860	909.869	684.550
220.723	14.662	909.614	683.486
221.738	14.731	908.841	683.129
222.753	14.728	907.988	682.415
223.767	14.733	907.316	681.871
224.782	14.890	906.969	682.190
225.796	14.905	906.789	682.053
226.811	14.852	905.777	681.018
227.826	14.854	905.058	680.424
228.840	14.815	904.155	679.528
229.855	14.903	903.126	679.051
230.869	14.773	902.675	678.126
231.884	14.786	902.318	677.849
232.899	14.794	901.240	677.010
233.913	14.766	900.657	676.400
234.928	14.734	899.937	675.671
235.942	14.745	899.498	675.327
236.957	14.724	899.098	674.881
237.972	14.900	897.958	674.676
238.986	14.890	897.547	674.266
240.001	14.838	897.287	673.801
241.015	14.858	896.162	672.976
242.030	14.667	895.898	671.953
243.045	14.873	895.190	672.190
244.059	14.907	894.684	671.885
245.074	14.966	894.358	671.818
246.088	14.981	893.511	671.183
247.103	15.119	892.392	670.836
248.117	15.104	892.142	670.529
249.132	15.282	891.365	670.598
250.147	15.151	891.219	669.905
251.161	15.255	890.190	669.489
252.176	15.182	889.947	668.953
253.190	15.442	889.097	669.294
254.205	15.414	888.290	668.513
255.220	15.324	887.874	667.784
256.234	15.366	886.920	667.175
257.249	15.387	886.182	666.642
258.263	15.336	885.851	666.135
259.278	15.501	885.004	666.092
260.293	15.462	884.367	665.398
261.307	15.551	883.765	665.239
262.322	15.540	883.491	664.930
263.336	15.542	882.667	664.259
264.351	15.601	881.817	663.794
265.366	15.606	881.332	663.389
266.380	15.608	880.645	662.821
267.395	15.647	879.950	662.393
268.409	15.467	879.053	660.951
269.424	15.521	878.732	660.864
270.439	15.602	877.548	660.233
271.453	15.610	877.054	659.836
272.468	15.539	876.563	659.129
273.482	15.464	876.069	658.404
274.497	15.542	875.314	658.086
275.512	15.751	874.453	658.198
276.526	15.646	874.652	657.880
277.541	15.704	873.694	657.325
278.555	15.696	873.040	656.745
279.570	15.698	872.777	656.496
280.585	15.779	871.697	655.942
281.599	15.708	870.856	654.974
282.614	15.780	870.289	654.771
283.628	15.630	869.932	653.858
284.643	15.771	869.258	653.843
285.657	15.815	868.513	653.395
286.672	15.754	867.920	652.655
287.687	15.779	867.239	652.184
288.701	15.768	866.869	651.806
289.716	15.818	866.145	651.396
290.730	15.953	865.739	651.554
291.745	15.860	865.091	650.651
292.760	15.863	864.423	650.104
293.774	16.011	864.009	650.303
294.789	15.983	862.910	649.313
295.803	15.919	862.405	648.627
296.818	15.875	861.768	647.922
297.833	16.051	860.756	647.782
298.847	15.854	860.476	646.754
299.862	15.963	859.915	646.696
300.876	15.933	859.600	646.286
301.891	16.065	858.698	646.055
302.906	16.000	858.436	645.551
303.920	16.137	857.956	645.658
304.935	16.196	856.880	645.017
305.949	16.209	856.527	644.744
306.964	16.130	855.648	643.726
307.979	16.229	855.356	643.826
308.993	16.329	854.816	643.745
310.008	16.278	854.275	643.083
311.022	16.265	853.343	642.278
312.037	16.240	853.165	641.993
313.052	16.108	852.378	640.841
314.066	15.987	852.155	640.158
315.081	16.240	851.081	640.253
316.095	16.230	850.630	639.819
317.110	16.125	850.274	639.096
318.125	16.174	849.376	638.552
319.139	16.183	849.203	638.396
320.154	16.216	848.682	638.074
321.168	16.276	848.064	637.782
322.183	16.206	847.785	637.249
323.197	16.290	847.142	637.028
324.212	16.274	846.674	636.557
325.227	16.237	846.084	635.920
326.241	16.283	845.439	635.552
327.256	16.200	844.620	634.569
328.270	16.340	844.058	634.615
329.285	16.344	843.311	634.014
330.300	16.242	843.145	633.449
331.314	16.286	842.733	633.250
332.329	16.402	842.066	633.126
333.343	16.483	841.581	633.007
334.358	16.570	840.941	632.797
335.373	16.376	840.640	631.788
336.387	16.428	840.702	631.975
337.402	16.493	840.436	631.960
338.416	16.537	840.080	631.802
339.431	16.659	839.362	631.659
340.446	16.661	839.094	631.412
341.460	16.711	838.733	631.270
342.475	16.695	838.108	630.684
343.489	16.784	837.601	630.578
344.504	16.705	837.373	630.056
345.519	16.778	836.976	629.972
346.533	16.862	836.040	629.525
347.548	16.756	835.627	628.766
348.562	16.680	835.294	628.177
349.577	16.564	834.770	627.296
350.592	16.640	833.999	626.944
351.606	16.660	833.171	626.340
352.621	16.564	832.919	625.738
353.635	16.733	831.989	625.608
354.650	16.776	831.316	625.206
355.665	16.744	830.785	624.634
356.679	16.790	830.219	624.325
357.694	16.801	829.674	623.898
358.708	16.843	828.847	623.375
359.723	16.775	828.377	622.716
360.738	16.873	827.933	622.690
361.752	16.932	827.014	622.160
362.767	16.831	826.800	621.571
363.781	17.062	826.016	621.772
364.796	17.123	826.115	622.016
365.810	17.058	825.210	621.044
366.825	17.065	825.059	620.900
367.840	17.072	824.571	620.503
368.854	17.133	824.031	620.265
369.869	17.141	823.591	619.909
370.883	17.032	823.287	619.225
371.898	17.190	822.934	619.482
372.913	17.116	822.485	618.819
373.927	17.195	821.589	618.377
374.942	17.137	821.434	617.997
375.956	17.280	820.970	618.112
376.971	17.194	820.750	617.579
377.986	17.350	820.310	617.761
379.000	17.381	819.884	617.496
380.015	17.304	819.100	616.574
381.029	17.310	818.764	616.289
382.044	17.347	817.874	615.696
383.059	17.436	817.380	615.591
384.073	17.403	816.822	614.999
385.088	17.347	816.297	614.348
386.102	17.228	815.655	613.379
387.117	17.527	814.667	613.661
388.132	17.434	814.392	613.065
389.146	17.384	814.119	612.623
390.161	17.509	813.545	612.589
391.175	17.508	812.758	611.937
392.190	17.369	812.950	611.527
393.205	17.423	812.229	611.126
394.219	17.408	811.728	610.638
395.234	17.401	811.589	610.456
396.248	17.310	811.324	609.876
397.263	17.375	810.772	609.640
398.278	17.269	810.257	608.819
399.292	17.333	809.728	608.596
400.307	17.298	809.208	608.028
401.321	17.272	808.774	607.554
402.336	17.426	808.164	607.591
403.350	17.457	807.715	607.312
404.365	17.392	807.725	607.034
405.380	17.657	806.753	607.196
406.394	17.862	806.055	607.344
407.409	17.605	805.758	606.153
408.423	17.779	805.625	606.618
409.438	17.649	805.488	605.999
410.453	17.816	804.656	605.912
411.467	17.819	804.351	605.639
412.482	17.911	803.749	605.459
413.496	17.952	803.445	605.321
414.511	17.911	803.224	604.956
415.526	18.042	802.756	605.015
416.540	17.904	802.098	603.977
417.555	17.843	801.561	603.302
418.569	18.061	800.804	603.451
419.584	17.839	801.483	603.125
420.599	17.891	800.819	602.754
421.613	111.642	1294.741	1476.244
422.628	96.195	1366.680	1476.319
