DTS Sentinel unit serial number:	SN413079Multiplexer serial number:	ORYXHardware model number:	OX4-SRSoftware version number:	ORYX F/W v4.00 Oryx Data Collector v3.7.2.0data status	okinstallation	princeton_trtdifferential loss correction	single-endedforward channel	channel 1reverse channel	N/Adate	2019/09/14time	20:14:35forward acquisition time	60.00reverse acquisition time	0.00gamma	496.2192k internal	0.2316k external	0.2316temperature offset calibration	1.0020default loss term (dB/km)	0.3790temperature slope calibration	1.0000multiplexer offset coefficient	1.0000multiplexer slope coefficient	1.0000fibre end	0.00T internal ref (°C)	33.81T ext. ref 1 (°C)	4.85T ext. ref 2 (°C)	28.25length (m)	temperature (°C)	Stokes	anti-Stokes-747.200	800.000	0.084	0.272
-746.185	-78.058	-0.184	-0.064
-745.171	16.226	-0.381	-0.304
-744.156	27.868	-0.206	0.176
-743.142	43.535	0.424	0.393
-742.127	-135.807	-0.053	-0.006
-741.112	637.587	0.046	0.118
-740.098	273.700	-0.151	0.271
-739.083	637.360	0.069	-0.179
-738.069	204.926	0.037	0.058
-737.054	-82.053	-0.085	0.028
-736.039	115.906	0.049	-0.061
-735.025	-0.815	0.120	0.086
-734.010	37.021	0.115	-0.103
-732.996	7.079	-0.114	-0.086
-731.981	-29.055	-0.182	-0.106
-730.966	-56.490	0.100	0.045
-729.952	-19.766	0.194	-0.122
-728.937	486.125	-0.153	-0.354
-727.923	-200.000	-0.238	-0.001
-726.908	374.268	-0.100	-0.205
-725.894	-126.663	0.436	-0.065
-724.879	-18.993	-0.171	-0.108
-723.864	-145.437	0.188	0.017
-722.850	-113.082	0.211	0.042
-721.835	-200.000	0.010	0.417
-720.821	-200.000	-0.067	0.320
-719.806	10.334	-0.240	0.185
-718.791	581.198	0.039	0.098
-717.777	294.164	-0.064	0.118
-716.762	-200.000	0.012	0.249
-715.748	800.000	-0.032	-0.097
-714.733	-74.164	-0.159	0.058
-713.718	75.295	-0.081	0.087
-712.704	326.980	0.134	-0.260
-711.689	-108.247	-0.291	-0.064
-710.675	-147.214	-0.067	-0.006
-709.660	800.000	-0.048	-0.140
-708.645	-90.758	0.151	-0.044
-707.631	-200.000	-0.009	-0.051
-706.616	443.705	-0.109	-0.242
-705.602	-170.334	-0.247	0.009
-704.587	-200.000	0.046	-0.210
-703.572	-127.332	-0.092	-0.014
-702.558	441.897	0.033	-0.073
-701.543	-200.000	0.081	-0.383
-700.529	445.735	0.049	-0.109
-699.514	45.257	-0.041	-0.038
-698.499	-200.000	-0.008	-0.224
-697.485	800.000	-0.053	0.181
-696.470	7.744	0.172	0.130
-695.456	-45.346	0.250	0.125
-694.441	159.222	-0.175	0.246
-693.426	-117.539	-0.216	-0.039
-692.412	628.326	-0.070	-0.180
-691.397	-156.445	-0.097	0.006
-690.383	-200.000	0.243	0.001
-689.368	-104.907	0.079	-0.018
-688.354	-200.000	-0.014	-0.096
-687.339	-200.000	-0.002	-0.087
-686.324	20.824	0.062	0.051
-685.310	471.561	0.085	-0.194
-684.295	-181.396	-0.297	-0.006
-683.281	-122.142	0.166	-0.027
-682.266	243.005	0.063	0.108
-681.251	-121.909	-0.329	-0.055
-680.237	-61.461	0.204	-0.087
-679.222	-150.718	-0.198	-0.015
-678.208	-200.000	0.002	0.084
-677.193	108.501	0.195	-0.235
-676.178	-7.345	-0.104	-0.071
-675.164	-7.899	-0.142	-0.097
-674.149	-139.333	-0.069	-0.008
-673.135	79.114	0.026	0.029
-672.120	-90.177	-0.055	-0.016
-671.105	-200.000	0.017	-0.314
-670.091	-89.947	-0.194	0.057
-669.076	3.000	0.209	-0.153
-668.062	-38.796	-0.150	-0.080
-667.047	800.000	0.063	0.264
-666.032	-135.585	-0.220	-0.026
-665.018	-48.368	-0.044	-0.021
-664.003	151.812	0.120	-0.165
-662.989	-200.000	-0.015	-0.194
-661.974	-22.007	-0.114	-0.070
-660.959	-85.012	0.035	0.011
-659.945	100.697	0.095	0.111
-658.930	-200.000	0.050	-0.222
-657.916	338.185	0.024	-0.047
-656.901	-200.000	0.013	-0.063
-655.886	-200.000	-0.005	-0.172
-654.872	188.994	-0.123	-0.185
-653.857	103.624	-0.243	-0.288
-652.843	800.000	-0.080	0.317
-651.828	-34.749	0.093	0.051
-650.814	-42.533	0.057	-0.029
-649.799	-23.619	-0.068	0.041
-648.784	-0.201	0.082	-0.059
-647.770	-39.847	-0.399	-0.210
-646.755	330.448	-0.040	-0.077
-645.741	274.510	0.085	0.152
-644.726	26.268	-0.148	0.125
-643.711	-158.978	-0.265	0.015
-642.697	-200.000	0.014	-0.107
-641.682	21.698	-0.116	-0.095
-640.668	128.711	-0.357	-0.459
-639.653	-14.225	-0.047	-0.031
-638.638	-13.729	-0.176	0.115
-637.624	-63.903	-0.318	0.131
-636.609	88.872	-0.120	0.134
-635.595	-52.984	-0.140	-0.065
-634.580	-200.000	0.006	0.029
-633.565	158.679	0.167	-0.235
-632.551	-101.654	0.188	-0.046
-631.536	-39.551	0.391	-0.206
-630.522	-14.947	-0.286	0.185
-629.507	-200.000	0.031	-0.154
-628.492	-108.147	-0.159	-0.035
-627.478	-200.000	-0.019	-0.126
-626.463	-103.500	-0.145	-0.034
-625.449	-32.765	0.119	0.067
-624.434	-90.459	-0.241	0.071
-623.419	-200.000	-0.011	0.582
-622.405	135.568	-0.280	-0.368
-621.390	-200.000	0.059	-0.283
-620.376	-200.000	0.060	-0.461
-619.361	800.000	-0.072	-0.285
-618.346	-24.598	-0.135	0.081
-617.332	-77.969	-0.320	-0.111
-616.317	216.352	0.108	0.173
-615.303	-123.213	0.184	-0.030
-614.288	331.867	-0.054	-0.105
-613.273	800.000	-0.104	-0.410
-612.259	9.635	-0.115	-0.088
-611.244	327.168	-0.057	-0.109
-610.230	-200.000	0.035	-0.355
-609.215	-200.000	-0.060	0.342
-608.201	-68.384	0.251	0.098
-607.186	127.397	0.087	-0.111
-606.171	800.000	0.068	-0.280
-605.157	57.481	0.099	0.098
-604.142	-200.000	0.049	-0.235
-603.128	15.174	-0.022	-0.017
-602.113	204.573	0.209	0.326
-601.098	129.239	-0.143	0.184
-600.084	-200.000	-0.027	0.342
-599.069	-200.000	-0.056	-0.293
-598.055	37.997	0.196	-0.176
-597.040	-45.471	-0.263	-0.131
-596.025	575.604	0.038	-0.093
-595.011	27.840	0.173	0.147
-593.996	214.642	0.075	0.120
-592.982	800.000	0.055	0.177
-591.967	0.625	-0.203	0.147
-590.952	53.683	-0.230	-0.223
-589.938	-66.340	-0.008	-0.003
-588.923	94.621	-0.056	-0.064
-587.909	-31.050	-0.099	-0.056
-586.894	-143.531	0.038	-0.004
-585.879	-200.000	-0.007	0.064
-584.865	-200.000	-0.030	0.151
-583.850	-56.608	-0.305	-0.136
-582.836	-186.571	-0.194	-0.003
-581.821	-96.794	-0.154	0.041
-580.806	602.272	0.089	0.224
-579.792	-200.000	0.032	0.223
-578.777	-200.000	-0.010	0.152
-577.763	-200.000	0.043	0.387
-576.748	43.114	-0.244	0.224
-575.733	370.469	-0.048	-0.099
-574.719	5.897	0.312	-0.232
-573.704	800.000	0.022	0.081
-572.690	-200.000	0.038	0.207
-571.675	-58.418	0.259	-0.113
-570.661	-127.969	-0.235	0.034
-569.646	800.000	0.029	-0.125
-568.631	326.384	0.213	-0.410
-567.617	-164.699	0.205	-0.009
-566.602	180.009	-0.092	-0.136
-565.588	-143.664	0.258	0.025
-564.573	-200.000	0.065	-0.411
-563.558	599.011	0.107	0.268
-562.544	800.000	-0.106	0.409
-561.529	-200.000	0.016	0.141
-560.515	-150.398	-0.209	-0.016
-559.500	732.851	0.078	0.210
-558.485	-122.507	-0.234	0.038
-557.471	-200.000	-0.064	-0.339
-556.456	-135.095	0.142	-0.017
-555.442	34.355	-0.069	-0.060
-554.427	-167.821	0.323	0.013
-553.412	78.121	-0.099	0.107
-552.398	35.566	0.086	0.076
-551.383	-200.000	0.012	-0.053
-550.369	115.715	0.082	-0.101
-549.354	-21.324	0.260	-0.159
-548.339	233.942	0.184	-0.304
-547.325	357.771	-0.151	0.304
-546.310	319.696	0.152	-0.290
-545.296	73.977	-0.152	0.160
-544.281	-73.917	-0.173	0.063
-543.266	173.615	-0.232	0.337
-542.252	-200.000	-0.026	-0.150
-541.237	-200.000	0.022	-0.108
-540.223	-84.340	0.384	0.122
-539.208	-33.434	0.249	0.138
-538.193	150.393	0.075	-0.102
-537.179	-200.000	0.018	-0.213
-536.164	-200.000	-0.045	0.481
-535.150	-200.000	-0.039	-0.314
-534.135	-162.180	-0.027	0.001
-533.121	800.000	0.077	0.294
-532.106	7.053	0.144	0.108
-531.091	800.000	0.065	0.201
-530.077	-79.178	-0.180	0.061
-529.062	-200.000	-0.052	-0.513
-528.048	379.488	-0.138	0.283
-527.033	800.000	-0.075	0.266
-526.018	-22.928	0.160	-0.097
-525.004	-40.825	-0.108	-0.056
-523.989	41.984	-0.228	0.208
-522.975	-63.389	-0.034	-0.014
-521.960	74.673	-0.093	-0.098
-520.945	-11.862	-0.045	0.030
-519.931	-55.205	-0.522	0.236
-518.916	136.512	0.210	-0.275
-517.902	59.737	-0.059	-0.058
-516.887	800.000	-0.064	-0.251
-515.872	-200.000	0.028	-0.196
-514.858	16.494	-0.111	0.088
-513.843	-130.393	0.171	-0.023
-512.829	70.278	-0.275	0.285
-511.814	84.731	0.065	0.071
-510.799	-27.003	0.261	0.153
-509.785	761.589	0.044	0.120
-508.770	4.842	0.068	0.050
-507.756	-12.181	-0.088	-0.058
-506.741	87.318	0.080	0.089
-505.726	-115.778	-0.322	-0.061
-504.712	278.423	0.014	-0.026
-503.697	204.528	0.057	0.089
-502.683	-53.434	-0.106	-0.049
-501.668	-59.347	-0.189	-0.082
-500.653	-115.587	-0.452	0.085
-499.639	91.246	0.104	0.117
-498.624	631.746	-0.166	-0.423
-497.610	-200.000	-0.015	-0.086
-496.595	-200.000	0.047	0.227
-495.581	28.990	-0.262	-0.223
-494.566	71.744	-0.121	0.126
-493.551	89.113	0.075	0.084
-492.537	-34.954	-0.169	-0.093
-491.522	800.000	-0.071	-0.235
-490.508	-200.000	0.032	-0.349
-489.493	-38.855	-0.223	-0.118
-488.478	-57.084	-0.347	-0.154
-487.464	-200.000	-0.006	-0.053
-486.449	222.405	0.033	-0.053
-485.435	169.901	-0.126	-0.181
-484.420	156.591	0.176	-0.243
-483.405	-27.992	-0.391	-0.227
-482.391	-200.000	0.005	0.266
-481.376	601.614	-0.070	-0.175
-480.362	-108.282	0.215	-0.047
-479.347	-13.125	0.286	0.186
-478.332	-42.567	0.255	0.130
-477.318	175.018	0.063	0.091
-476.303	242.492	-0.136	-0.228
-475.289	230.981	0.103	-0.170
-474.274	-133.256	0.406	-0.051
-473.259	287.794	-0.115	-0.208
-472.245	94.383	0.108	-0.123
-471.230	12.093	-0.291	0.225
-470.216	-65.383	-0.424	0.171
-469.201	-13.789	-0.101	0.066
-468.186	374.445	0.188	0.384
-467.172	-133.945	0.157	-0.020
-466.157	40.158	-0.206	0.185
-465.143	135.463	0.115	0.150
-464.128	-91.666	-0.204	0.058
-463.113	-200.000	0.006	-0.127
-462.099	-130.141	-0.126	-0.017
-461.084	-111.239	0.261	-0.054
-460.070	110.441	0.010	-0.012
-459.055	-146.184	0.304	-0.027
-458.040	-175.057	0.206	-0.006
-457.026	518.167	0.057	-0.134
-456.011	-54.711	0.065	0.029
-454.997	-125.023	0.292	-0.045
-453.982	399.482	-0.099	-0.208
-452.968	-19.797	0.178	-0.110
-451.953	171.133	0.055	0.079
-450.938	148.267	0.050	0.068
-449.924	-164.005	0.216	-0.010
-448.909	-200.000	-0.048	-0.230
-447.895	418.647	-0.101	-0.215
-446.880	-104.488	-0.394	-0.091
-445.865	688.002	-0.005	0.012
-444.851	161.290	0.064	0.090
-443.836	-2.530	0.298	0.209
-442.822	-46.496	-0.187	-0.092
-441.807	-117.479	0.203	-0.037
-440.792	424.235	-0.124	-0.267
-439.778	93.516	0.264	-0.299
-438.763	-9.636	-0.214	-0.142
-437.749	448.509	0.068	-0.151
-436.734	242.418	-0.033	-0.056
-435.719	-161.019	0.272	0.014
-434.705	800.000	0.053	0.147
-433.690	-129.696	0.343	-0.047
-432.676	80.221	0.117	0.126
-431.661	132.030	0.162	-0.208
-430.646	-39.614	-0.415	-0.217
-429.632	-200.000	-0.024	0.115
-428.617	-169.010	-0.132	0.005
-427.603	-83.640	0.023	-0.007
-426.588	-26.827	-0.173	-0.101
-425.573	86.427	-0.223	0.246
-424.559	329.010	-0.166	0.320
-423.544	-163.914	0.038	-0.002
-422.530	56.246	-0.161	-0.157
-421.515	-200.000	0.006	0.081
-420.500	-83.170	0.172	-0.055
-419.486	-107.463	0.458	-0.100
-418.471	800.000	-0.085	0.297
-417.457	-23.324	-0.280	0.169
-416.442	-200.000	-0.009	-0.156
-415.428	-140.704	0.471	0.049
-414.413	-200.000	-0.027	-0.212
-413.398	-47.182	-0.256	0.125
-412.384	800.000	0.090	0.362
-411.369	-200.000	0.051	-0.224
-410.355	-200.000	0.010	0.095
-409.340	412.115	0.060	0.127
-408.325	-0.478	-0.111	0.079
-407.311	625.589	0.101	0.255
-406.296	-93.466	-0.030	0.008
-405.282	258.929	0.255	-0.440
-404.267	-116.433	0.272	0.050
-403.252	-200.000	-0.029	-0.151
-402.238	-200.000	0.071	-0.392
-401.223	-112.554	0.246	0.049
-400.209	546.679	0.081	0.194
-399.194	-100.216	0.351	-0.087
-398.179	-139.306	-0.280	-0.030
-397.165	800.000	0.030	-0.105
-396.150	48.606	-0.082	0.077
-395.136	-1.754	0.078	0.055
-394.121	-89.376	0.056	-0.017
-393.106	67.228	-0.229	-0.233
-392.092	-106.103	0.354	-0.079
-391.077	607.666	-0.064	-0.159
-390.063	-145.735	0.238	-0.021
-389.048	-4.893	0.395	0.272
-388.033	-32.822	0.075	-0.042
-387.019	126.022	-0.152	0.192
-386.004	800.000	0.004	-0.015
-384.990	72.681	0.102	-0.106
-383.975	318.801	0.112	-0.212
-382.960	800.000	-0.093	-0.354
-381.946	375.429	-0.068	0.139
-380.931	17.089	0.146	0.116
-379.917	165.895	0.021	-0.030
-378.902	-76.797	0.337	-0.118
-377.888	-69.975	0.297	-0.113
-376.873	203.618	-0.247	-0.382
-375.858	-186.322	0.141	-0.002
-374.844	-90.555	0.279	0.080
-373.829	138.828	0.148	0.195
-372.815	800.000	0.132	0.419
-371.800	-78.479	0.043	-0.015
-370.785	800.000	0.047	0.175
-369.771	240.467	-0.085	-0.141
-368.756	109.542	0.145	-0.174
-367.742	631.854	-0.085	0.215
-366.727	92.851	-0.093	0.105
-365.712	80.249	-0.204	0.219
-364.698	-200.000	-0.007	-0.087
-363.683	133.992	0.148	0.191
-362.669	-154.835	0.454	-0.030
-361.654	-78.801	-0.475	0.162
-360.639	-114.132	0.299	0.058
-359.625	800.000	0.071	-0.199
-358.610	-200.000	-0.007	-0.411
-357.596	-4.096	-0.160	0.111
-356.581	-200.000	0.019	0.097
-355.566	-84.608	-0.149	0.047
-354.552	124.393	-0.085	-0.107
-353.537	-200.000	-0.007	-0.059
-352.523	-97.091	-0.462	-0.121
-351.508	19.915	0.113	0.091
-350.493	31.262	-0.198	-0.170
-349.479	-50.833	0.041	0.019
-348.464	-71.088	-0.106	-0.040
-347.450	-200.000	-0.046	-0.248
-346.435	115.165	-0.091	0.111
-345.420	-20.963	0.047	0.029
-344.406	-200.000	0.057	0.283
-343.391	167.001	0.118	0.167
-342.377	-25.442	-0.108	0.064
-341.362	308.425	0.016	0.030
-340.348	-200.000	0.025	0.241
-339.333	-99.051	0.044	-0.011
-338.318	-200.000	-0.003	-0.097
-337.304	-68.493	0.288	0.112
-336.289	-22.748	0.165	0.100
-335.275	156.848	0.101	0.139
-334.260	-0.308	-0.289	-0.205
-333.245	382.419	-0.028	-0.057
-332.231	117.368	-0.172	-0.211
-331.216	612.874	-0.087	-0.218
-330.202	-15.393	-0.161	0.102
-329.187	-104.410	-0.091	0.021
-328.172	97.583	0.039	0.045
-327.158	-200.000	-0.018	-0.161
-326.143	-85.715	-0.122	-0.038
-325.129	134.240	0.179	0.231
-324.114	-110.021	-0.268	0.056
-323.099	-200.000	0.075	0.361
-322.085	-101.499	0.334	0.081
-321.070	-120.855	0.118	0.020
-320.056	800.000	0.079	-0.261
-319.041	-200.000	-0.041	-0.319
-318.026	-133.449	0.203	-0.025
-317.012	-142.840	-0.372	-0.036
-315.997	200.303	-0.105	-0.161
-314.983	-76.989	0.103	0.036
-313.968	-26.806	0.260	0.152
-312.953	-103.763	0.322	-0.075
-311.939	200.069	0.190	-0.291
-310.924	-166.419	-0.143	0.006
-309.910	123.566	0.074	0.092
-308.895	225.129	0.170	0.274
-307.880	41.362	-0.133	-0.120
-306.866	-22.454	0.311	-0.188
-305.851	126.929	0.131	0.165
-304.837	99.863	0.301	0.347
-303.822	366.012	0.059	0.119
-302.807	-87.883	0.222	0.066
-301.793	-200.000	-0.010	0.129
-300.778	233.798	0.059	-0.096
-299.764	-156.631	-0.365	-0.023
-298.749	729.547	0.105	0.278
-297.735	-200.000	-0.018	-0.160
-296.720	-186.551	0.150	0.002
-295.705	261.392	0.209	0.360
-294.691	119.476	0.137	-0.169
-293.676	-49.911	0.255	-0.121
-292.662	-65.339	0.405	0.162
-291.647	165.029	0.043	-0.060
-290.632	395.590	-0.064	-0.134
-289.618	-0.193	0.199	0.141
-288.603	209.270	0.169	-0.263
-287.589	-22.561	-0.409	-0.246
-286.574	-3.088	-0.178	0.123
-285.559	-117.533	0.058	0.010
-284.545	-69.771	-0.226	-0.086
-283.530	-8.118	0.164	0.110
-282.516	-124.958	-0.262	0.040
-281.501	68.945	0.156	-0.159
-280.486	8.309	-0.243	0.182
-279.472	-73.308	0.084	0.031
-278.457	-200.000	0.024	-0.270
-277.443	8.968	-0.246	-0.185
-276.428	88.332	0.060	-0.066
-275.413	-31.327	-0.082	0.046
-274.399	800.000	-0.030	0.082
-273.384	-200.000	0.051	0.386
-272.370	800.000	0.035	0.153
-271.355	-168.977	-0.298	-0.011
-270.340	15.572	0.076	0.059
-269.326	-143.573	-0.278	0.026
-268.311	-174.924	-0.121	-0.003
-267.297	78.499	0.241	0.256
-266.282	280.940	-0.065	0.115
-265.267	94.842	0.203	-0.229
-264.253	-200.000	0.018	0.231
-263.238	-98.231	0.155	0.040
-262.224	-200.000	0.003	-0.286
-261.209	664.346	0.225	0.577
-260.195	26.912	-0.053	0.044
-259.180	-200.000	-0.029	0.132
-258.165	800.000	-0.050	-0.167
-257.151	800.000	0.067	-0.288
-256.136	-61.031	-0.116	-0.049
-255.122	92.790	-0.170	-0.191
-254.107	-115.424	-0.074	-0.014
-253.092	-43.813	-0.038	-0.019
-252.078	55.137	0.240	-0.231
-251.063	-200.000	-0.006	0.070
-250.049	-200.000	-0.055	0.280
-249.034	-200.000	0.021	-0.248
-248.019	153.416	0.062	0.084
-247.005	-132.618	-0.085	0.011
-245.990	800.000	0.101	0.359
-244.976	-139.034	-0.264	0.028
-243.961	-200.000	-0.003	-0.088
-242.946	-56.129	0.176	-0.078
-241.932	58.374	0.156	-0.152
-240.917	-200.000	0.006	0.076
-239.903	-77.295	-0.161	0.056
-238.888	800.000	-0.047	0.185
-237.873	271.159	-0.037	-0.064
-236.859	27.035	0.092	-0.077
-235.844	-137.187	0.087	0.010
-234.830	-106.459	0.274	0.061
-233.815	800.000	0.063	-0.188
-232.800	-118.633	0.339	-0.060
-231.786	-200.000	-0.019	0.229
-230.771	0.927	-0.355	0.253
-229.757	87.003	0.072	-0.079
-228.742	221.880	-0.011	-0.018
-227.727	-28.549	-0.149	0.085
-226.713	40.060	-0.144	-0.129
-225.698	169.114	-0.195	0.276
-224.684	-142.009	0.157	-0.016
-223.669	-78.146	0.521	-0.178
-222.655	800.000	0.052	-0.217
-221.640	-90.888	-0.171	-0.049
-220.625	-200.000	0.044	-0.396
-219.611	140.258	0.318	0.416
-218.596	-143.351	-0.143	-0.014
-217.582	127.522	-0.174	-0.219
-216.567	73.233	0.009	-0.009
-215.552	-145.687	-0.180	0.016
-214.538	-79.342	-0.424	-0.142
-213.523	-200.000	0.009	-0.046
-212.509	-2.651	-0.280	0.195
-211.494	324.150	0.134	0.253
-210.479	20.614	-0.118	-0.095
-209.465	-146.340	0.329	0.029
-208.450	163.296	-0.222	0.309
-207.436	-153.632	0.287	0.020
-206.421	321.309	0.050	0.094
-205.406	-153.968	-0.028	-0.002
-204.392	329.256	0.121	-0.230
-203.377	-99.499	-0.180	-0.045
-202.363	-115.803	-0.122	-0.023
-201.348	-200.000	-0.012	0.066
-200.333	-114.029	-0.115	0.022
-199.319	181.721	0.084	0.123
-198.304	124.889	-0.168	-0.209
-197.290	-43.283	0.204	0.102
-196.275	508.325	-0.150	0.346
-195.260	-20.872	0.101	-0.061
-194.246	800.000	-0.056	0.229
-193.231	-200.000	0.051	0.370
-192.217	-113.161	-0.261	-0.051
-191.202	76.766	-0.170	-0.178
-190.187	-200.000	0.013	0.270
-189.173	-200.000	0.014	0.161
-188.158	49.471	-0.079	-0.074
-187.144	-160.062	-0.279	0.015
-186.129	800.000	0.057	0.243
-185.114	-138.168	-0.170	0.019
-184.100	-30.945	-0.366	-0.205
-183.085	159.960	-0.084	0.116
-182.071	-45.420	-0.206	-0.101
-181.056	-200.000	-0.009	-0.062
-180.042	-112.398	0.307	0.061
-179.027	-0.295	0.236	0.166
-178.012	-107.548	-0.390	0.085
-176.998	138.471	0.294	0.383
-175.983	174.663	0.147	0.210
-174.969	126.449	-0.133	0.167
-173.954	-33.500	-0.202	-0.111
-172.939	-0.876	0.232	-0.163
-171.925	-32.674	0.302	0.166
-170.910	167.273	-0.090	-0.126
-169.896	-6.521	-0.230	-0.155
-168.881	800.000	0.138	-0.379
-167.866	518.248	0.065	0.151
-166.852	190.955	-0.112	0.167
-165.837	800.000	-0.056	0.166
-164.823	-36.144	-0.073	-0.039
-163.808	-123.040	0.151	-0.024
-162.793	-166.237	-0.242	0.010
-161.779	472.617	-0.045	-0.100
-160.764	-136.171	0.195	0.023
-159.750	99.522	0.092	-0.105
-158.735	79.806	-0.174	-0.185
-157.720	-29.890	-0.423	0.239
-156.706	800.000	0.027	0.087
-155.691	76.379	0.184	0.193
-154.677	321.553	0.117	0.221
-153.662	-200.000	0.072	0.409
-152.647	796.144	0.121	-0.329
-151.633	-39.834	-0.114	-0.059
-150.618	133.803	0.142	-0.183
-149.604	-200.000	0.017	-0.159
-148.589	-67.785	0.069	-0.027
-147.574	-90.775	-0.173	-0.049
-146.560	-200.000	-0.004	-0.209
-145.545	53.073	0.056	-0.053
-144.531	-171.862	0.056	0.002
-143.516	230.469	-0.131	-0.212
-142.502	315.246	-0.063	0.118
-141.487	-100.570	0.032	0.008
-140.472	606.027	-0.030	0.074
-139.458	-73.910	0.433	-0.156
-138.443	-4.710	-0.326	0.222
-137.429	-200.000	0.004	0.234
-136.414	-151.434	0.031	0.002
-135.399	240.086	0.061	-0.101
-134.385	-200.000	0.028	-0.333
-133.370	800.000	-0.051	0.188
-132.356	-62.310	0.088	-0.036
-131.341	-200.000	0.007	0.459
-130.326	-169.757	-0.190	-0.007
-129.312	800.000	-0.053	-0.178
-128.297	-200.000	0.083	-0.430
-127.283	78.276	0.193	0.204
-126.268	182.252	-0.199	0.290
-125.253	-48.676	0.077	-0.037
-124.239	-123.031	-0.168	0.027
-123.224	-200.000	0.002	-0.105
-122.210	1.761	0.120	0.086
-121.195	93.188	0.184	-0.206
-120.180	544.244	-0.053	-0.125
-119.166	262.611	0.108	-0.186
-118.151	-55.567	0.246	-0.109
-117.137	-200.000	0.008	-0.106
-116.122	30.861	-0.028	0.024
-115.107	-200.000	-0.007	-0.125
-114.093	26.699	-0.083	0.068
-113.078	800.000	0.034	0.144
-112.064	-109.643	0.382	-0.080
-111.049	800.000	-0.030	-0.090
-110.034	160.804	-0.055	0.075
-109.020	-129.793	0.095	-0.013
-108.005	42.033	-0.109	0.098
-106.991	-200.000	-0.069	-0.312
-105.976	-32.679	-0.180	-0.099
-104.962	108.184	0.205	-0.241
-103.947	47.764	-0.185	-0.170
-102.932	-59.377	0.037	0.016
-101.918	4.955	-0.123	0.090
-100.903	800.000	-0.130	0.359
-99.889	604.205	-0.027	-0.066
-98.874	-125.699	0.101	-0.015
-97.859	271.444	-0.072	0.125
-96.845	-200.000	0.028	-0.155
-95.830	800.000	0.062	0.260
-94.816	-184.693	0.092	-0.001
-93.801	-139.533	0.299	-0.032
-92.786	-95.333	-0.312	0.083
-91.772	111.673	0.109	0.130
-90.757	11.003	0.168	-0.126
-89.743	451.157	-0.124	-0.270
-88.728	-127.377	-0.179	0.026
-87.713	183.294	0.214	-0.312
-86.699	-103.074	-0.119	0.028
-85.684	-85.734	0.081	0.025
-84.670	15.933	-0.027	-0.021
-83.655	-122.687	0.157	0.025
-82.640	303.630	-0.070	-0.128
-81.626	595.687	0.075	-0.183
-80.611	-200.000	0.016	-0.245
-79.597	5.441	0.329	-0.240
-78.582	-146.289	-0.262	-0.023
-77.567	-200.000	-0.020	-0.249
-76.553	-48.924	0.061	0.029
-75.538	-70.711	-0.120	0.045
-74.524	22.814	-0.121	0.098
-73.509	-200.000	0.014	0.083
-72.494	14.796	-0.242	-0.187
-71.480	91.325	-0.063	0.070
-70.465	100.894	0.139	-0.160
-69.451	101.501	0.086	0.099
-68.436	-124.754	0.287	-0.044
-67.422	109.501	0.044	0.053
-66.407	596.075	-0.045	0.109
-65.392	800.000	-0.058	-0.206
-64.378	29.790	-0.140	-0.118
-63.363	74.474	-0.220	0.229
-62.349	-55.877	0.039	0.017
-61.334	1.875	-1.100	-0.783
-60.319	185.339	0.190	0.279
-59.305	334.405	-0.419	-0.800
-58.290	800.000	0.492	1.411
-57.276	800.000	0.519	1.807
-56.261	-200.000	95.566	568.465
-55.246	626.081	1386.985	3451.569
-54.232	192.942	2576.742	3839.615
-53.217	118.925	2155.896	2627.483
-52.203	45.274	1614.567	1468.304
-51.188	37.349	1351.711	1181.285
-50.173	34.045	1309.709	1125.026
-49.159	56.206	1356.373	1298.833
-48.144	59.145	1373.790	1333.103
-47.130	37.507	1331.248	1164.161
-46.115	33.948	1313.869	1127.845
-45.100	33.775	1309.217	1122.782
-44.086	33.744	1306.950	1120.610
-43.071	33.717	1304.219	1118.065
-42.057	33.626	1302.483	1116.000
-41.042	33.704	1300.994	1115.136
-40.027	33.632	1300.018	1113.835
-39.013	33.732	1297.546	1112.257
-37.998	33.613	1296.203	1110.365
-36.984	33.768	1294.133	1109.454
-35.969	33.841	1292.324	1108.283
-34.954	33.875	1291.108	1107.399
-33.940	33.958	1289.179	1106.178
-32.925	33.908	1288.140	1104.956
-31.911	33.875	1286.587	1103.389
-30.896	33.821	1285.171	1101.815
-29.881	33.923	1283.925	1101.297
-28.867	33.908	1282.689	1100.102
-27.852	34.020	1280.795	1099.084
-26.838	34.075	1279.339	1098.109
-25.823	33.825	1279.029	1096.353
-24.809	33.851	1277.152	1094.851
-23.794	33.800	1275.880	1093.425
-22.779	33.962	1274.449	1093.087
-21.765	33.962	1272.762	1091.596
-20.750	33.822	1272.051	1090.142
-19.736	33.857	1270.398	1088.881
-18.721	33.749	1269.889	1087.785
-17.706	33.882	1267.781	1086.697
-16.692	33.665	1267.057	1084.791
-15.677	33.684	1266.473	1084.354
-14.663	33.748	1264.908	1083.341
-13.648	33.706	1264.211	1082.461
-12.633	33.764	1263.360	1082.017
-11.619	33.840	1262.177	1081.394
-10.604	33.759	1261.349	1080.182
-9.590	33.714	1260.604	1079.244
-8.575	33.762	1259.527	1078.551
-7.560	33.794	1258.674	1077.961
-6.546	33.716	1257.871	1076.785
-5.531	33.671	1257.524	1076.195
-4.517	33.667	1256.606	1075.339
-3.502	33.789	1255.428	1074.984
-2.487	33.763	1254.550	1074.041
-1.473	33.664	1250.435	1069.914
-0.458	32.131	1235.406	1048.464
0.556	27.707	1217.281	1008.195
1.571	23.855	1222.393	990.916
2.586	22.852	1237.542	997.446
3.600	21.957	1226.526	983.466
4.615	16.737	1154.559	898.069
5.629	8.477	1080.487	799.232
6.644	4.912	1060.811	767.079
7.659	4.712	1058.168	764.121
8.673	4.808	1056.883	763.592
9.688	4.959	1055.799	763.483
10.702	4.921	1054.065	761.974
11.717	9.337	1060.354	788.138
12.731	16.732	1070.414	832.005
13.746	19.487	1072.853	847.375
14.761	18.712	1071.454	842.390
15.775	17.680	1069.755	835.924
16.790	16.561	1067.501	828.610
17.804	15.819	1066.038	823.768
18.819	15.508	1064.975	821.354
19.834	15.169	1064.337	819.133
20.848	15.166	1062.844	817.897
21.863	14.883	1062.303	816.027
22.877	14.732	1061.736	814.781
23.892	14.679	1060.906	813.812
24.907	14.781	1059.928	813.490
25.921	14.772	1058.793	812.504
26.936	14.791	1057.417	811.466
27.950	14.846	1056.427	810.903
28.965	14.906	1054.645	809.754
29.980	14.967	1053.366	808.995
30.994	15.056	1052.238	808.486
32.009	15.042	1050.947	807.357
33.023	15.022	1050.445	806.802
34.038	14.958	1048.983	805.299
35.053	14.807	1048.333	804.001
36.067	14.903	1047.546	803.789
37.082	14.898	1046.639	802.999
38.096	15.090	1045.759	803.176
39.111	15.097	1044.508	802.174
40.126	14.934	1043.875	800.838
41.140	14.753	1042.025	798.483
42.155	14.635	1041.451	797.406
43.169	14.670	1040.449	796.739
44.184	14.564	1039.202	795.208
45.199	14.603	1038.336	794.662
46.213	14.776	1037.106	794.469
47.228	14.651	1036.801	793.570
48.242	14.773	1035.290	792.925
49.257	14.996	1033.742	792.724
50.271	14.940	1033.313	792.063
51.286	14.883	1032.592	791.167
52.301	14.939	1031.486	790.518
53.315	14.791	1030.204	788.765
54.330	14.751	1029.507	787.972
55.344	14.781	1028.610	787.358
56.359	14.787	1027.835	786.725
57.374	14.707	1026.757	785.453
58.388	14.645	1025.936	784.466
59.403	14.541	1025.251	783.384
60.417	14.438	1024.730	782.432
61.432	14.609	1023.664	782.349
62.447	14.577	1022.499	781.242
63.461	14.552	1022.040	780.703
64.476	14.579	1020.712	779.747
65.490	14.542	1020.288	779.182
66.505	14.461	1019.557	778.176
67.520	14.487	1019.117	777.891
68.534	14.606	1017.930	777.474
69.549	14.508	1017.397	776.539
70.563	14.474	1016.679	775.763
71.578	14.419	1015.777	774.751
72.593	14.399	1015.224	774.167
73.607	14.376	1014.511	773.450
74.622	14.391	1013.976	773.042
75.636	14.504	1012.570	772.428
76.651	14.403	1012.623	771.932
77.666	14.414	1012.076	771.494
78.680	14.447	1011.171	770.892
79.695	14.529	1010.483	770.676
80.709	14.570	1009.564	770.096
81.724	14.571	1009.168	769.733
82.739	14.647	1008.786	769.722
83.753	14.846	1007.872	769.875
84.768	14.833	1007.104	769.157
85.782	14.961	1006.342	769.095
86.797	15.001	1005.110	768.273
87.812	14.866	1004.415	767.055
88.826	14.943	1003.033	766.283
89.841	14.957	1002.441	765.827
90.855	14.886	1001.676	764.850
91.870	14.986	1000.840	764.599
92.884	15.056	999.725	763.998
93.899	15.007	998.917	763.092
94.914	15.041	997.999	762.476
95.928	15.116	997.223	762.160
96.943	15.066	996.073	760.987
97.957	14.916	995.701	759.951
98.972	14.891	995.141	759.346
99.987	15.069	994.029	759.236
101.001	14.956	992.591	757.560
102.016	14.899	991.867	756.681
103.030	14.896	991.459	756.290
104.045	14.977	990.664	755.984
105.060	14.885	989.609	754.695
106.074	14.766	988.509	753.255
107.089	14.685	987.770	752.257
108.103	14.578	986.663	750.868
109.118	14.787	985.227	750.646
110.133	14.614	984.965	749.606
111.147	14.546	984.254	748.690
112.162	14.768	983.049	748.703
113.176	14.804	982.444	748.340
114.191	14.732	981.992	747.603
115.206	14.825	981.034	747.223
116.220	14.707	980.036	745.872
117.235	14.613	979.432	744.924
118.249	14.770	978.750	745.044
119.264	14.728	977.764	744.037
120.279	14.659	977.202	743.239
121.293	14.704	976.137	742.564
122.308	14.609	975.186	741.352
123.322	14.628	974.314	740.706
124.337	14.486	973.779	739.606
125.352	14.515	972.637	738.798
126.366	14.614	971.096	738.002
127.381	14.582	970.325	737.210
128.395	14.608	969.616	736.722
129.410	14.664	968.765	736.256
130.424	14.736	967.941	735.880
131.439	14.769	967.180	735.385
132.454	14.768	966.513	734.806
133.468	14.832	965.477	734.233
134.483	14.830	964.941	733.756
135.497	14.772	964.166	732.844
136.512	14.732	963.176	731.855
137.527	14.900	962.272	731.837
138.541	14.801	961.727	730.926
139.556	14.894	960.985	730.704
140.570	14.973	960.593	730.683
141.585	15.071	959.633	730.315
142.600	15.267	958.110	729.945
143.614	15.196	957.013	728.740
144.629	15.219	956.519	728.396
145.643	15.093	955.732	727.185
146.658	14.888	954.873	725.580
147.673	14.959	954.247	725.348
148.687	14.836	953.388	724.099
149.702	14.849	952.201	723.188
150.716	14.865	951.337	722.536
151.731	14.884	950.986	722.288
152.746	14.802	950.689	721.643
153.760	14.938	949.709	721.423
154.775	15.061	948.775	721.181
155.789	14.896	948.820	720.439
156.804	15.136	947.486	720.397
157.819	15.149	946.904	719.943
158.833	15.096	946.621	719.439
159.848	15.103	945.611	718.636
160.862	15.178	944.500	718.050
161.877	15.054	943.277	716.526
162.892	15.005	942.334	715.539
163.906	14.911	941.592	714.508
164.921	14.959	940.786	714.041
165.935	14.969	939.673	713.176
166.950	15.041	939.066	712.956
167.964	14.906	938.757	712.086
168.979	14.920	937.610	711.211
169.994	15.031	936.566	710.829
171.008	14.996	936.241	710.368
172.023	15.078	935.529	710.115
173.037	15.193	934.664	709.880
174.052	15.212	934.044	709.427
175.067	15.065	932.882	707.862
176.081	15.090	932.609	707.699
177.096	15.004	932.166	706.935
178.110	14.990	931.204	706.085
179.125	15.002	931.049	705.956
180.140	15.060	930.418	705.661
181.154	15.104	930.224	705.636
182.169	15.224	929.711	705.687
183.183	15.295	928.807	705.239
184.198	15.385	927.667	704.688
185.213	15.413	927.161	704.360
186.227	15.336	926.459	703.441
187.242	15.356	925.819	702.975
188.256	15.515	925.452	703.301
189.271	15.513	924.391	702.424
190.286	15.248	923.809	700.814
191.300	15.026	922.987	699.197
192.315	14.977	922.403	698.491
193.329	15.021	921.922	698.249
194.344	15.197	920.949	698.182
195.359	15.114	920.423	697.377
196.373	15.279	920.267	697.885
197.388	15.483	919.425	698.032
198.402	15.508	919.278	697.964
199.417	15.585	918.765	697.832
200.432	15.510	918.108	696.960
201.446	15.690	917.494	697.179
202.461	15.640	917.170	696.662
203.475	15.690	916.587	696.366
204.490	15.527	915.871	695.087
205.504	15.461	914.713	693.873
206.519	15.513	913.943	693.441
207.534	15.499	913.193	692.753
208.548	15.558	912.488	692.400
209.563	15.481	912.093	691.723
210.577	15.638	911.735	692.034
211.592	15.596	910.955	691.208
212.607	15.695	910.033	690.854
213.621	15.699	909.369	690.306
214.636	15.616	908.552	689.285
215.650	15.817	908.120	689.721
216.665	15.765	907.329	688.845
217.680	15.840	906.647	688.572
218.694	15.880	906.255	688.377
219.709	15.698	905.631	687.099
220.723	15.764	904.885	686.744
221.738	15.770	904.108	686.116
222.753	15.913	903.441	686.133
223.767	15.818	903.200	685.501
224.782	15.942	902.754	685.607
225.796	15.991	902.242	685.359
226.811	15.954	901.525	684.602
227.826	15.811	900.516	683.193
228.840	15.843	899.779	682.705
229.855	15.874	898.738	681.977
230.869	15.877	898.020	681.388
231.884	15.915	897.534	681.111
232.899	15.731	896.545	679.558
233.913	15.771	896.016	679.258
234.928	15.734	895.069	678.328
235.942	15.744	894.826	678.125
236.957	15.869	894.257	678.139
237.972	15.690	893.915	677.099
238.986	15.762	893.134	676.736
240.001	15.924	892.130	676.567
241.015	15.812	891.782	675.794
242.030	16.015	891.139	676.060
243.045	16.031	890.315	675.442
244.059	16.053	889.678	674.986
245.074	16.016	889.134	674.365
246.088	15.908	889.268	673.976
247.103	16.091	888.174	673.815
248.117	16.135	887.894	673.719
249.132	16.250	887.535	673.849
250.147	16.446	886.828	674.032
251.161	16.428	885.940	673.229
252.176	16.319	885.304	672.252
253.190	16.416	885.115	672.432
254.205	16.621	883.914	672.277
255.220	16.432	883.599	671.227
256.234	16.467	882.885	670.762
257.249	16.638	882.212	670.869
258.263	16.526	881.169	669.577
259.278	16.561	880.550	669.182
260.293	16.508	880.397	668.800
261.307	16.796	879.510	669.203
262.322	16.575	879.052	667.923
263.336	16.644	878.469	667.692
264.351	16.715	877.504	667.181
265.366	16.730	877.028	666.817
266.380	16.696	876.403	666.150
267.395	16.589	875.975	665.345
268.409	16.567	874.757	664.277
269.424	16.565	874.280	663.846
270.439	16.552	873.450	663.105
271.453	16.573	872.590	662.477
272.468	16.588	872.263	662.229
273.482	16.525	871.854	661.614
274.497	16.482	871.395	661.040
275.512	16.599	870.485	660.747
276.526	16.644	870.319	660.737
277.541	16.678	869.540	660.219
278.555	16.748	869.201	660.178
279.570	16.856	868.098	659.702
280.585	16.952	867.516	659.574
281.599	16.869	866.622	658.513
282.614	16.761	866.234	657.741
283.628	16.792	865.828	657.493
284.643	16.657	865.386	656.578
285.657	16.799	864.319	656.259
286.672	16.891	863.421	655.874
287.687	16.863	863.033	655.414
288.701	16.873	862.380	654.899
289.716	16.845	862.049	654.482
290.730	16.943	861.318	654.249
291.745	16.855	861.254	653.801
292.760	16.967	860.610	653.686
293.774	17.057	860.023	653.529
294.789	17.088	858.974	652.796
295.803	16.934	858.484	651.774
296.818	16.887	857.788	651.004
297.833	16.974	856.926	650.627
298.847	16.809	856.727	649.786
299.862	17.019	856.302	650.210
300.876	17.054	855.623	649.771
301.891	17.123	854.943	649.461
302.906	17.294	854.454	649.686
303.920	17.122	854.462	648.976
304.935	17.292	853.516	648.850
305.949	17.402	852.660	648.561
306.964	17.227	852.391	647.632
307.979	17.180	851.884	647.011
308.993	17.295	850.938	646.675
310.008	17.179	850.433	645.792
311.022	17.254	849.840	645.570
312.037	17.261	849.117	644.991
313.052	17.168	848.479	644.095
314.066	16.967	848.083	642.977
315.081	17.120	847.543	643.090
316.095	17.071	847.031	642.456
317.110	16.950	846.665	641.664
318.125	17.160	846.222	642.068
319.139	17.219	845.498	641.682
320.154	17.281	844.779	641.316
321.168	17.170	844.460	640.597
322.183	17.290	843.648	640.377
323.197	17.358	842.969	640.059
324.212	17.307	842.529	639.480
325.227	17.228	842.044	638.755
326.241	17.268	841.522	638.454
327.256	17.319	840.947	638.153
328.270	17.263	840.219	637.333
329.285	17.207	839.963	636.871
330.300	17.276	839.321	636.588
331.314	17.299	838.909	636.307
332.329	17.307	838.464	635.941
333.343	17.285	838.156	635.571
334.358	17.509	837.380	635.763
335.373	17.456	837.166	635.344
336.387	17.575	836.853	635.494
337.402	17.658	836.232	635.277
338.416	17.734	835.978	635.312
339.431	17.748	835.793	635.167
340.446	17.767	835.424	634.899
341.460	17.692	835.081	634.306
342.475	17.696	834.864	634.098
343.489	17.678	834.393	633.616
344.504	17.861	834.275	634.150
345.519	17.966	833.400	633.820
346.533	17.919	832.594	632.975
347.548	17.678	832.165	631.701
348.562	17.525	831.652	630.691
349.577	17.634	830.843	630.423
350.592	17.780	829.799	630.114
351.606	17.602	829.516	629.188
352.621	17.595	828.879	628.624
353.635	17.693	828.163	628.387
354.650	17.679	827.677	627.907
355.665	17.906	827.160	628.298
356.679	17.829	826.420	627.397
357.694	17.945	825.906	627.375
358.708	17.844	825.335	626.518
359.723	17.723	825.298	625.989
360.738	17.740	824.520	625.405
361.752	17.798	823.867	625.068
362.767	17.951	823.186	625.056
363.781	18.050	822.676	624.976
364.796	18.069	822.166	624.603
365.810	18.148	822.115	624.796
366.825	18.226	821.543	624.593
367.840	18.127	821.213	623.925
368.854	18.080	820.702	623.311
369.869	18.175	820.033	623.092
370.883	18.187	819.408	622.606
371.898	18.179	819.488	622.584
372.913	18.203	818.657	621.984
373.927	18.047	818.471	621.221
374.942	18.198	817.998	621.356
375.956	18.425	817.629	621.841
376.971	18.511	816.965	621.594
377.986	18.435	816.553	620.953
379.000	18.420	816.278	620.633
380.015	18.422	815.692	620.138
381.029	18.249	815.345	619.196
382.044	18.438	814.454	619.146
383.059	18.468	813.668	618.601
384.073	18.425	813.276	618.095
385.088	18.361	812.622	617.312
386.102	18.381	811.875	616.761
387.117	18.342	811.329	616.151
388.132	18.305	811.192	615.861
389.146	18.353	810.502	615.454
390.161	18.483	810.140	615.592
391.175	18.486	809.597	615.135
392.190	18.368	809.019	614.219
393.205	18.450	808.271	613.890
394.219	18.418	808.065	613.566
395.234	18.261	807.900	612.825
396.248	18.067	807.484	611.760
397.263	18.233	807.048	611.969
398.278	18.226	806.511	611.484
399.292	18.403	805.795	611.517
400.307	18.278	805.411	610.724
401.321	18.213	804.768	609.953
402.336	18.195	804.613	609.717
403.350	18.413	804.088	610.042
404.365	18.429	803.931	609.925
405.380	18.436	803.545	609.603
406.394	18.773	802.833	610.207
407.409	18.705	802.308	609.514
408.423	18.785	802.358	609.781
409.438	18.681	802.052	609.125
410.453	18.698	801.478	608.694
411.467	18.848	800.683	608.569
412.482	18.808	800.784	608.451
413.496	18.949	800.519	608.694
414.511	18.919	799.793	607.984
415.526	18.856	799.233	607.279
416.540	18.864	798.699	606.851
417.555	18.970	798.191	606.785
418.569	18.988	797.906	606.575
419.584	18.935	797.980	606.390
420.599	18.992	797.186	605.935
421.613	156.132	1371.028	1792.810
422.628	135.265	1454.661	1792.924
