DTS Sentinel unit serial number:	SN413079Multiplexer serial number:	ORYXHardware model number:	OX4-SRSoftware version number:	ORYX F/W v4.00 Oryx Data Collector v3.7.2.0data status	okinstallation	princeton_trtdifferential loss correction	single-endedforward channel	channel 1reverse channel	N/Adate	2019/09/14time	10:30:35forward acquisition time	60.00reverse acquisition time	0.00gamma	496.2192k internal	0.2305k external	0.2305temperature offset calibration	1.0073default loss term (dB/km)	0.3790temperature slope calibration	1.0000multiplexer offset coefficient	1.0000multiplexer slope coefficient	1.0000fibre end	0.00T internal ref (°C)	34.78T ext. ref 1 (°C)	4.18T ext. ref 2 (°C)	32.78length (m)	temperature (°C)	Stokes	anti-Stokes-747.200	-62.937	0.237	-0.100
-746.185	-92.461	0.364	-0.104
-745.171	150.134	-0.276	-0.381
-744.156	296.594	-0.081	-0.152
-743.142	29.726	-0.226	0.196
-742.127	-51.379	-0.333	0.159
-741.112	165.253	0.131	-0.188
-740.098	43.163	-0.033	0.031
-739.083	-159.243	0.489	0.028
-738.069	-72.765	-0.253	0.095
-737.054	-200.000	-0.039	0.296
-736.039	-55.938	-0.484	0.220
-735.025	86.195	-0.087	0.097
-734.010	-200.000	-0.045	-0.253
-732.996	-168.803	-0.253	-0.010
-731.981	-39.875	-0.159	-0.084
-730.966	-200.000	-0.062	-0.502
-729.952	-50.599	0.412	0.198
-728.937	-39.695	-0.108	-0.057
-727.923	350.297	-0.026	-0.051
-726.908	800.000	-0.088	-0.258
-725.894	-106.211	0.066	0.015
-724.879	-18.695	-0.271	-0.172
-723.864	514.078	-0.117	-0.279
-722.850	800.000	0.015	-0.064
-721.835	800.000	-0.017	-0.054
-720.821	-35.529	0.140	-0.077
-719.806	-47.792	0.112	0.055
-718.791	-141.599	-0.079	0.008
-717.777	-68.794	-0.189	0.074
-716.762	127.721	-0.167	0.216
-715.748	629.831	-0.062	0.160
-714.733	15.980	-0.200	0.160
-713.718	-5.102	-0.335	-0.234
-712.704	25.848	-0.162	-0.137
-711.689	616.183	-0.130	0.331
-710.675	-200.000	0.024	-0.225
-709.660	237.744	-0.037	-0.062
-708.645	-200.000	-0.041	-0.253
-707.631	800.000	0.041	-0.116
-706.616	666.642	-0.111	-0.292
-705.602	-23.252	-0.180	0.110
-704.587	-84.960	-0.244	0.078
-703.572	241.750	0.084	0.142
-702.558	-16.239	-0.335	-0.216
-701.543	-200.000	-0.070	0.332
-700.529	238.079	-0.144	-0.242
-699.514	-200.000	-0.028	-0.396
-698.499	-128.360	0.230	0.033
-697.485	-29.688	0.272	0.158
-696.470	10.256	-0.109	-0.084
-695.456	-200.000	0.023	0.210
-694.441	-57.339	-0.163	-0.073
-693.426	-70.236	-0.067	0.026
-692.412	242.460	0.242	0.412
-691.397	111.421	-0.177	-0.217
-690.383	97.104	0.026	0.030
-689.368	85.858	-0.071	-0.079
-688.354	-38.650	0.422	0.226
-687.339	24.581	-0.259	-0.218
-686.324	157.272	0.108	-0.152
-685.310	-200.000	0.019	-0.470
-684.295	664.192	0.048	-0.125
-683.281	-136.058	-0.146	-0.017
-682.266	503.542	-0.119	-0.280
-681.251	-200.000	0.004	0.054
-680.237	800.000	-0.031	0.117
-679.222	-84.060	-0.160	0.052
-678.208	-107.391	-0.207	0.046
-677.193	-200.000	-0.012	0.375
-676.178	112.108	0.052	-0.064
-675.164	-160.450	0.158	0.009
-674.149	-200.000	0.019	-0.129
-673.135	-34.355	0.227	-0.127
-672.120	-200.000	0.143	0.001
-671.105	338.328	-0.055	-0.109
-670.091	-200.000	-0.034	-0.329
-669.076	-200.000	0.014	-0.068
-668.062	405.090	0.188	-0.402
-667.047	39.894	-0.095	0.087
-666.032	66.193	0.258	0.266
-665.018	1.222	-0.225	0.164
-664.003	418.646	0.061	0.132
-662.989	272.456	0.084	0.150
-661.974	-105.462	-0.193	0.044
-660.959	-164.732	-0.240	0.011
-659.945	56.255	0.168	0.165
-658.930	-200.000	0.018	0.118
-657.916	-105.789	0.202	-0.046
-656.901	63.380	0.136	-0.139
-655.886	-61.948	-0.146	0.062
-654.872	-200.000	-0.084	-0.544
-653.857	46.979	0.037	0.035
-652.843	10.402	-0.276	0.213
-651.828	-200.000	-0.041	-0.230
-650.814	-200.000	0.065	0.392
-649.799	215.782	-0.075	-0.121
-648.784	-83.493	0.263	-0.085
-647.770	60.720	-0.180	-0.181
-646.755	44.970	-0.182	0.170
-645.741	206.739	0.058	-0.092
-644.726	-162.068	-0.117	0.006
-643.711	61.645	0.286	-0.288
-642.697	-61.611	0.354	0.151
-641.682	325.136	0.048	0.094
-640.668	38.952	-0.055	0.050
-639.653	-200.000	-0.006	-0.402
-638.638	182.064	0.098	0.146
-637.624	-138.318	0.206	0.023
-636.609	338.714	-0.108	0.213
-635.595	40.265	0.142	0.129
-634.580	-104.957	0.337	-0.078
-633.565	61.167	-0.076	0.076
-632.551	-200.000	-0.025	-0.295
-631.536	203.055	0.148	0.232
-630.522	311.129	-0.021	-0.039
-629.507	-108.231	0.210	-0.046
-628.492	800.000	-0.026	0.112
-627.478	-138.484	-0.282	0.031
-626.463	-151.407	0.209	0.016
-625.449	181.744	-0.210	0.314
-624.434	626.326	-0.064	0.163
-623.419	105.880	-0.307	-0.368
-622.405	-200.000	-0.038	-0.299
-621.390	9.566	0.052	-0.040
-620.376	800.000	-0.060	0.202
-619.361	800.000	0.075	-0.296
-618.346	-5.066	-0.225	0.157
-617.332	-26.015	0.125	-0.075
-616.317	800.000	0.044	-0.194
-615.303	-26.618	-0.033	0.019
-614.288	-6.749	-0.331	0.228
-613.273	800.000	-0.034	0.133
-612.259	-200.000	-0.014	0.116
-611.244	68.655	0.064	0.066
-610.230	-71.188	-0.204	0.077
-609.215	-200.000	0.008	-0.044
-608.201	148.687	0.020	0.028
-607.186	277.612	0.065	0.116
-606.171	-127.225	-0.260	-0.038
-605.157	-117.686	0.206	0.038
-604.142	-200.000	-0.051	0.235
-603.128	-114.747	-0.135	-0.026
-602.113	-36.135	-0.186	0.102
-601.098	-140.030	-0.268	-0.029
-600.084	-6.755	0.131	0.091
-599.069	-113.407	-0.210	0.042
-598.055	72.069	-0.100	-0.105
-597.040	-200.000	0.020	-0.286
-596.025	68.138	-0.218	-0.226
-595.011	51.306	0.270	0.259
-593.996	185.268	0.112	0.169
-592.982	5.066	0.260	-0.194
-591.967	-200.000	-0.009	-0.074
-590.952	50.433	-0.129	-0.124
-589.938	138.564	-0.141	-0.187
-588.923	63.706	0.107	-0.108
-587.909	115.898	0.099	0.123
-586.894	-135.415	-0.264	0.032
-585.879	16.836	0.151	-0.121
-584.865	103.283	-0.188	0.223
-583.850	-77.469	-0.285	-0.100
-582.836	463.820	0.122	-0.275
-581.821	48.085	0.033	-0.031
-580.806	800.000	-0.117	-0.351
-579.792	-98.158	0.352	0.091
-578.777	6.555	-0.049	-0.037
-577.763	800.000	0.093	-0.354
-576.748	114.510	-0.212	-0.261
-575.733	25.923	0.276	-0.233
-574.719	190.543	0.203	0.309
-573.704	104.883	-0.108	0.129
-572.690	-200.000	0.020	-0.368
-571.675	30.041	-0.056	-0.048
-570.661	21.787	-0.096	0.079
-569.646	-30.433	0.458	-0.262
-568.631	800.000	-0.055	0.158
-567.617	162.380	-0.081	0.115
-566.602	-193.804	-0.428	0.004
-565.588	-85.808	0.133	0.042
-564.573	-107.655	0.166	0.037
-563.558	800.000	0.054	0.209
-562.544	83.858	-0.136	0.150
-561.529	-200.000	0.009	0.272
-560.515	499.394	0.099	-0.231
-559.500	-35.506	-0.418	-0.230
-558.485	-200.000	0.001	0.135
-557.471	-76.833	-0.306	-0.108
-556.456	68.233	-0.287	0.297
-555.442	800.000	0.097	0.283
-554.427	85.816	0.162	0.181
-553.412	56.849	0.037	0.036
-552.398	465.711	0.017	-0.038
-551.383	671.159	-0.152	0.397
-550.369	141.967	-0.113	0.152
-549.354	-123.566	-0.182	0.029
-548.339	-83.979	0.051	-0.016
-547.325	800.000	-0.069	0.231
-546.310	-200.000	-0.050	0.230
-545.296	-100.613	-0.270	-0.067
-544.281	20.006	-0.113	-0.092
-543.266	-13.066	0.202	0.133
-542.252	-18.844	0.119	0.075
-541.237	-200.000	-0.006	-0.101
-540.223	-200.000	-0.007	0.051
-539.208	0.038	0.085	-0.061
-538.193	287.268	-0.159	-0.290
-537.179	222.343	-0.023	-0.037
-536.164	554.735	-0.147	-0.358
-535.150	-34.146	-0.246	-0.137
-534.135	288.560	0.184	0.336
-533.121	557.350	-0.109	0.265
-532.106	314.600	0.077	-0.147
-531.091	-200.000	0.004	0.229
-530.077	-104.997	-0.260	-0.060
-529.062	356.819	-0.160	-0.323
-528.048	-200.000	-0.054	0.289
-527.033	3.318	0.139	-0.102
-526.018	254.625	-0.103	-0.177
-525.004	153.720	-0.060	-0.083
-523.989	111.832	0.473	-0.576
-522.975	177.244	-0.271	-0.399
-521.960	-47.489	0.386	0.189
-520.945	-23.112	0.283	0.172
-519.931	-200.000	0.017	0.104
-518.916	-133.013	0.299	-0.038
-517.902	-200.000	-0.018	0.087
-516.887	-200.000	-0.030	0.289
-515.872	-131.229	-0.179	-0.024
-514.858	614.216	-0.038	0.097
-513.843	-200.000	0.014	-0.174
-512.829	71.315	-0.194	-0.203
-511.814	472.687	-0.037	-0.084
-510.799	67.756	0.192	0.198
-509.785	164.384	0.207	0.295
-508.770	-33.063	-0.222	0.124
-507.756	-70.740	0.145	0.055
-506.741	59.680	-0.119	0.118
-505.726	-17.096	0.393	0.250
-504.712	-200.000	0.015	0.122
-503.697	-200.000	0.080	0.398
-502.683	-66.053	-0.183	-0.073
-501.668	800.000	-0.049	0.173
-500.653	-13.598	-0.443	-0.289
-499.639	248.213	0.079	-0.135
-498.624	-89.267	0.229	0.068
-497.610	25.511	-0.208	-0.174
-496.595	-200.000	0.034	-0.242
-495.581	359.121	-0.179	0.362
-494.566	-109.149	-0.139	0.030
-493.551	-200.000	0.029	-0.304
-492.537	142.714	-0.156	-0.209
-491.522	-9.434	-0.130	-0.087
-490.508	-64.753	0.298	-0.122
-489.493	-200.000	0.032	-0.145
-488.478	132.479	-0.178	-0.231
-487.464	195.575	0.071	-0.108
-486.449	-200.000	0.027	-0.161
-485.435	116.038	0.137	0.169
-484.420	-77.937	0.275	-0.096
-483.405	18.757	-0.322	-0.260
-482.391	121.583	-0.369	-0.463
-481.376	-45.752	-0.264	-0.131
-480.362	-112.595	0.373	0.075
-479.347	4.661	-0.061	-0.045
-478.332	-200.000	-0.058	-0.295
-477.318	-73.153	-0.199	0.074
-476.303	-200.000	0.037	0.230
-475.289	-200.000	-0.001	0.103
-474.274	-73.340	-0.033	0.012
-473.259	-200.000	-0.005	0.101
-472.245	-79.578	0.106	0.036
-471.230	26.523	0.095	0.080
-470.216	-200.000	0.025	-0.337
-469.201	158.191	0.144	-0.201
-468.186	-55.206	-0.126	0.057
-467.172	-200.000	0.002	-0.019
-466.157	60.071	0.092	-0.092
-465.143	9.241	0.167	-0.127
-464.128	-200.000	-0.006	0.214
-463.113	210.054	-0.161	0.254
-462.099	10.922	0.268	0.206
-461.084	14.908	0.303	0.239
-460.070	258.375	-0.122	0.211
-459.055	151.359	0.039	-0.053
-458.040	-97.822	0.156	-0.041
-457.026	39.594	-0.148	0.134
-456.011	-200.000	-0.078	-0.550
-454.997	-200.000	0.010	0.106
-453.982	800.000	0.057	0.184
-452.968	274.391	0.059	-0.104
-451.953	32.958	-0.076	-0.067
-450.938	220.991	0.081	-0.130
-449.924	-55.885	-0.288	0.129
-448.909	92.630	-0.144	-0.163
-447.895	-129.226	0.112	0.016
-446.880	-89.565	-0.172	0.051
-445.865	252.099	0.202	0.347
-444.851	-200.000	-0.006	0.120
-443.836	-200.000	-0.023	0.321
-442.822	-200.000	0.011	0.114
-441.807	800.000	-0.041	-0.119
-440.792	-121.999	0.314	0.052
-439.778	179.732	-0.254	0.375
-438.763	-148.473	-0.534	0.044
-437.749	-163.690	-0.316	-0.015
-436.734	229.209	-0.093	0.153
-435.719	-32.649	-0.175	0.098
-434.705	59.354	-0.188	-0.186
-433.690	-74.292	-0.143	0.052
-432.676	599.539	0.048	0.120
-431.661	-63.613	0.237	-0.098
-430.646	291.670	-0.101	-0.185
-429.632	219.515	0.036	-0.058
-428.617	272.522	0.169	0.300
-427.603	5.027	-0.210	-0.156
-426.588	201.382	-0.170	0.264
-425.573	-69.059	0.196	-0.076
-424.559	-42.537	0.061	-0.031
-423.544	-102.649	-0.220	-0.053
-422.530	41.194	0.075	-0.068
-421.515	27.085	0.181	0.153
-420.500	107.513	0.146	-0.174
-419.486	-200.000	0.060	-0.527
-418.471	-44.305	0.148	0.075
-417.457	18.516	0.174	-0.140
-416.442	-130.802	-0.319	0.043
-415.428	717.853	-0.157	-0.420
-414.413	-99.637	0.337	-0.085
-413.398	-154.046	-0.130	-0.009
-412.384	167.929	-0.098	-0.140
-411.369	97.386	-0.165	-0.190
-410.355	-3.582	-0.179	0.125
-409.340	66.794	-0.066	0.067
-408.325	-200.000	0.011	0.249
-407.311	-200.000	-0.008	-0.135
-406.296	427.027	-0.077	-0.166
-405.282	534.049	0.199	0.473
-404.267	-127.769	0.236	-0.034
-403.252	-200.000	-0.036	-0.510
-402.238	-200.000	0.059	0.267
-401.223	13.377	0.099	-0.077
-400.209	-80.622	0.126	-0.042
-399.194	800.000	-0.042	-0.174
-398.179	-99.700	0.230	-0.058
-397.165	208.535	0.023	-0.036
-396.150	197.301	0.070	0.108
-395.136	-31.653	0.113	-0.064
-394.121	800.000	0.028	-0.080
-393.106	168.655	0.106	0.152
-392.092	-5.182	-0.190	0.131
-391.077	144.311	0.141	0.190
-390.063	272.195	-0.096	-0.170
-389.048	-57.020	0.153	-0.068
-388.033	159.800	-0.109	-0.152
-387.019	-61.065	-0.132	0.056
-386.004	541.048	0.128	-0.307
-384.990	461.422	0.214	-0.480
-383.975	20.249	-0.036	-0.029
-382.960	68.650	0.180	0.186
-381.946	-200.000	-0.000	0.018
-380.931	175.619	0.083	0.121
-379.917	-103.003	-0.180	-0.043
-378.902	33.291	-0.126	0.110
-377.888	-108.639	0.196	-0.042
-376.873	-18.464	0.154	-0.097
-375.858	-200.000	0.093	0.419
-374.844	-200.000	0.002	0.075
-373.829	105.526	0.141	0.167
-372.815	-46.978	0.067	-0.033
-371.800	-94.188	0.176	-0.048
-370.785	-9.249	-0.027	0.018
-369.771	559.021	-0.125	-0.303
-368.756	95.753	0.145	0.167
-367.742	173.897	0.175	0.253
-366.727	548.798	-0.107	0.257
-365.712	-194.842	-0.218	-0.002
-364.698	-200.000	-0.007	-0.277
-363.683	47.082	-0.104	-0.097
-362.669	-200.000	0.047	-0.478
-361.654	800.000	-0.069	0.273
-360.639	-141.949	-0.086	0.009
-359.625	-200.000	0.003	0.215
-358.610	221.308	0.086	0.139
-357.596	-200.000	0.013	0.207
-356.581	153.648	-0.126	0.172
-355.566	-97.939	0.064	-0.017
-354.552	-143.594	0.560	0.053
-353.537	88.253	-0.317	-0.353
-352.523	-89.084	0.105	-0.031
-351.508	-46.656	0.056	0.028
-350.493	12.531	-0.075	-0.058
-349.479	288.119	-0.103	0.187
-348.464	53.298	-0.094	0.090
-347.450	84.163	0.082	0.090
-346.435	-105.970	0.321	-0.072
-345.420	-175.933	-0.281	0.008
-344.406	28.119	-0.106	0.089
-343.391	-200.000	-0.002	-0.033
-342.377	-113.547	-0.214	0.042
-341.362	179.745	0.038	-0.056
-340.348	800.000	-0.033	0.113
-339.333	-32.222	-0.087	0.049
-338.318	-163.122	-0.178	0.009
-337.304	-173.284	0.279	-0.009
-336.289	-175.808	-0.188	-0.005
-335.275	111.803	-0.145	-0.176
-334.260	-56.085	-0.066	0.030
-333.245	164.565	0.067	-0.094
-332.231	-61.677	-0.342	0.144
-331.216	-165.058	-0.161	-0.007
-330.202	-200.000	-0.005	0.265
-329.187	20.435	0.051	0.041
-328.172	364.536	0.050	0.100
-327.158	-200.000	0.020	0.176
-326.143	-107.989	-0.260	0.057
-325.129	-41.658	0.356	-0.183
-324.114	-154.384	0.143	-0.010
-323.099	-43.989	-0.181	0.091
-322.085	-200.000	0.009	0.171
-321.070	-200.000	-0.014	0.199
-320.056	800.000	-0.109	0.339
-319.041	78.370	-0.181	0.193
-318.026	62.708	0.151	0.151
-317.012	-200.000	0.010	0.162
-315.997	-2.519	-0.468	-0.328
-314.983	24.793	-0.226	-0.187
-313.968	363.647	-0.048	-0.097
-312.953	-200.000	-0.015	0.286
-311.939	-40.975	-0.051	-0.026
-310.924	-95.811	0.236	0.063
-309.910	-67.386	0.193	-0.076
-308.895	227.028	0.016	-0.025
-307.880	37.848	0.090	0.080
-306.866	-160.197	0.491	-0.027
-305.851	-200.000	0.013	-0.071
-304.837	-200.000	0.006	0.101
-303.822	91.152	0.180	-0.202
-302.807	342.008	0.100	0.195
-301.793	140.331	0.090	-0.119
-300.778	-200.000	-0.003	0.170
-299.764	-40.698	-0.028	0.015
-298.749	-15.154	0.106	-0.068
-297.735	551.796	-0.057	-0.137
-296.720	-200.000	0.017	-0.209
-295.705	237.068	0.119	-0.197
-294.691	800.000	0.066	0.195
-293.676	-200.000	-0.015	-0.168
-292.662	-42.906	0.238	-0.121
-291.647	16.048	0.153	-0.120
-290.632	-5.101	0.089	-0.061
-289.618	-200.000	-0.007	0.146
-288.603	12.986	0.130	-0.101
-287.589	-23.401	0.150	-0.090
-286.574	-181.174	0.138	0.003
-285.559	-152.912	-0.134	-0.009
-284.545	168.968	0.212	-0.302
-283.530	-89.788	-0.355	-0.104
-282.516	-95.414	-0.259	-0.070
-281.501	415.017	-0.046	0.097
-280.486	-88.421	-0.125	-0.037
-279.472	-89.380	0.180	-0.053
-278.457	-32.614	-0.485	-0.270
-277.443	-2.021	-0.199	0.140
-276.428	-72.073	0.237	0.088
-275.413	-105.945	-0.277	-0.062
-274.399	32.011	-0.182	0.156
-273.384	-200.000	-0.011	0.051
-272.370	-200.000	0.002	-0.051
-271.355	87.222	0.191	0.211
-270.340	-82.034	0.258	-0.084
-269.326	84.663	-0.147	-0.161
-268.311	-183.081	0.314	-0.006
-267.297	-56.006	-0.238	-0.106
-266.282	-48.437	0.148	0.071
-265.267	-200.000	0.028	0.275
-264.253	-200.000	0.021	-0.140
-263.238	-113.578	-0.144	0.028
-262.224	52.672	0.203	0.194
-261.209	133.211	0.250	0.323
-260.195	264.361	-0.196	-0.341
-259.180	75.047	-0.017	-0.018
-258.165	-200.000	-0.030	-0.315
-257.151	-35.185	0.053	0.029
-256.136	-96.062	-0.130	-0.035
-255.122	-36.128	0.382	0.206
-254.107	-111.639	-0.310	0.063
-253.092	172.504	-0.134	0.193
-252.078	325.886	-0.153	0.292
-251.063	385.199	-0.022	-0.046
-250.049	-24.041	0.382	0.228
-249.034	29.604	0.111	0.095
-248.019	-135.680	-0.279	-0.033
-247.005	-116.421	0.428	-0.079
-245.990	800.000	0.075	0.222
-244.976	-24.456	-0.165	-0.098
-243.961	-200.000	-0.022	-0.143
-242.946	-200.000	-0.005	-0.310
-241.932	12.468	-0.086	-0.066
-240.917	-200.000	0.018	-0.115
-239.903	-200.000	0.028	-0.197
-238.888	374.029	0.062	-0.125
-237.873	-200.000	-0.005	0.031
-236.859	-16.500	0.192	0.122
-235.844	-200.000	-0.018	-0.384
-234.830	-51.362	0.279	-0.130
-233.815	656.175	-0.088	0.226
-232.800	800.000	0.041	0.174
-231.786	327.768	-0.071	0.135
-230.771	-55.101	0.482	-0.217
-229.757	-40.126	0.293	-0.152
-228.742	-111.765	0.369	0.075
-227.727	800.000	0.015	-0.048
-226.713	18.527	0.071	-0.057
-225.698	180.952	0.106	0.155
-224.684	-200.000	0.026	0.258
-223.669	68.832	-0.260	-0.267
-222.655	-200.000	0.016	0.232
-221.640	-107.808	0.691	0.150
-220.625	800.000	-0.123	0.344
-219.611	-133.249	0.325	-0.041
-218.596	334.715	-0.176	-0.339
-217.582	-41.110	-0.205	0.105
-216.567	-19.921	0.142	0.088
-215.552	-51.297	0.027	-0.012
-214.538	-154.685	0.224	0.015
-213.523	800.000	-0.043	0.120
-212.509	-172.236	0.088	-0.003
-211.494	-144.765	0.189	-0.017
-210.479	-200.000	0.055	0.285
-209.465	800.000	0.112	0.380
-208.450	355.437	-0.099	0.195
-207.436	-200.000	0.002	-0.066
-206.421	283.671	0.034	-0.061
-205.406	-200.000	0.040	0.205
-204.392	13.304	-0.286	-0.221
-203.377	-200.000	-0.044	0.206
-202.363	-145.582	0.180	0.016
-201.348	-101.968	-0.155	-0.037
-200.333	-200.000	0.002	0.025
-199.319	-129.651	-0.293	-0.040
-198.304	11.666	0.222	0.170
-197.290	-200.000	-0.017	-0.097
-196.275	65.863	0.191	-0.193
-195.260	-129.380	0.246	0.034
-194.246	-131.555	-0.252	-0.033
-193.231	516.792	-0.102	-0.238
-192.217	-111.447	-0.347	-0.070
-191.202	800.000	0.050	-0.170
-190.187	800.000	0.068	0.189
-189.173	-15.198	0.170	0.108
-188.158	43.923	0.110	-0.101
-187.144	155.258	0.254	0.348
-186.129	230.646	0.192	0.313
-185.114	-45.194	-0.191	-0.095
-184.100	-35.692	-0.108	0.058
-183.085	211.666	-0.213	-0.333
-182.071	-6.924	-0.025	0.017
-181.056	-200.000	0.035	0.219
-180.042	-103.748	0.306	-0.071
-179.027	11.726	-0.138	-0.106
-178.012	66.520	0.364	-0.368
-176.998	174.197	-0.122	0.175
-175.983	-121.001	-0.233	0.039
-174.969	-114.538	-0.418	-0.080
-173.954	-143.320	-0.061	0.006
-172.939	-140.449	-0.078	0.008
-171.925	-29.229	-0.027	-0.016
-170.910	244.975	-0.041	0.068
-169.896	264.284	-0.092	0.159
-168.881	-90.108	0.311	0.090
-167.866	231.786	0.144	0.236
-166.852	-200.000	-0.009	-0.308
-165.837	38.664	-0.152	-0.135
-164.823	-200.000	-0.009	-0.171
-163.808	119.892	0.242	0.299
-162.793	256.940	0.065	-0.110
-161.779	-186.565	-0.293	-0.004
-160.764	101.603	-0.131	-0.152
-159.750	-200.000	0.035	-0.301
-158.735	35.840	-0.096	-0.084
-157.720	360.097	-0.084	-0.168
-156.706	-23.017	-0.425	0.255
-155.691	4.049	-0.158	-0.115
-154.677	50.463	-0.209	-0.197
-153.662	-200.000	0.023	0.170
-152.647	-73.202	0.306	0.112
-151.633	56.285	-0.256	-0.247
-150.618	365.306	0.129	-0.258
-149.604	800.000	-0.067	-0.276
-148.589	277.418	0.219	0.388
-147.574	800.000	0.011	0.046
-146.560	117.478	0.096	-0.118
-145.545	-135.574	-0.218	0.026
-144.531	-200.000	0.049	0.300
-143.516	103.557	-0.076	0.088
-142.502	-50.711	-0.061	-0.029
-141.487	280.738	0.023	0.040
-140.472	106.096	0.350	-0.412
-139.458	-200.000	0.070	0.398
-138.443	416.269	-0.143	0.303
-137.429	170.651	0.033	0.047
-136.414	-113.097	-0.253	-0.050
-135.399	-98.594	0.111	0.028
-134.385	27.860	0.087	0.073
-133.370	512.739	0.043	-0.099
-132.356	12.514	0.088	-0.067
-131.341	-132.429	-0.146	0.019
-130.326	581.802	0.032	0.078
-129.312	243.462	-0.142	0.236
-128.297	-80.911	-0.149	0.049
-127.283	-200.000	0.029	0.130
-126.268	-80.318	-0.153	-0.051
-125.253	-97.881	0.366	0.094
-124.239	-200.000	-0.017	0.170
-123.224	-200.000	0.058	-0.512
-122.210	800.000	0.063	0.208
-121.195	-155.350	-0.232	-0.015
-120.180	4.343	0.153	-0.111
-119.166	-35.724	-0.269	-0.145
-118.151	-153.782	-0.210	0.014
-117.137	-200.000	0.010	-0.303
-116.122	-26.217	-0.110	0.064
-115.107	89.247	-0.231	0.256
-114.093	291.643	0.060	0.109
-113.078	-200.000	0.001	0.159
-112.064	-10.717	-0.110	-0.072
-111.049	-200.000	0.001	0.258
-110.034	44.636	-0.096	0.088
-109.020	50.741	0.010	-0.009
-108.005	-64.217	-0.337	-0.136
-106.991	237.189	-0.068	-0.112
-105.976	346.158	-0.108	0.211
-104.962	800.000	0.061	-0.171
-103.947	-200.000	-0.009	-0.085
-102.932	800.000	-0.076	0.250
-101.918	245.304	0.091	0.151
-100.903	-18.173	-0.238	0.148
-99.889	69.582	0.197	0.201
-98.874	-68.599	0.360	0.138
-97.859	491.045	0.113	-0.257
-96.845	-30.363	0.091	-0.051
-95.830	62.330	0.149	0.147
-94.816	-14.065	0.064	-0.041
-93.801	-101.958	0.430	0.103
-92.786	249.190	-0.076	-0.127
-91.772	147.199	-0.174	0.232
-90.757	-71.079	0.288	-0.107
-89.743	252.579	-0.140	-0.236
-88.728	24.034	0.201	-0.165
-87.713	191.499	0.071	-0.106
-86.699	-11.690	0.261	0.170
-85.684	-200.000	0.007	0.071
-84.670	241.269	-0.119	-0.198
-83.655	-66.832	-0.179	0.070
-82.640	-200.000	0.006	0.262
-81.626	-200.000	-0.028	0.317
-80.611	661.522	0.044	-0.113
-79.597	-152.046	0.363	-0.026
-78.582	-156.384	-0.256	-0.016
-77.567	67.684	0.253	0.257
-76.553	75.891	0.278	0.292
-75.538	337.966	0.067	0.130
-74.524	-105.281	0.158	-0.036
-73.509	37.869	-0.082	0.072
-72.494	-168.450	-0.266	-0.010
-71.480	279.412	0.221	0.390
-70.465	-200.000	0.010	-0.264
-69.451	55.897	0.171	-0.165
-68.436	-200.000	0.006	0.139
-67.422	-162.137	-0.169	0.008
-66.407	-179.467	-0.314	-0.007
-65.392	-172.184	-0.249	-0.008
-64.378	21.545	0.107	-0.087
-63.363	157.330	-0.194	0.265
-62.349	48.400	-0.249	0.232
-61.334	161.306	-0.786	-1.090
-60.319	0.532	0.485	0.343
-59.305	85.643	-0.678	-0.739
-58.290	122.024	0.710	0.879
-57.276	495.726	0.745	1.697
-56.261	-200.000	92.399	538.525
-55.246	599.471	1385.407	3406.124
-54.232	183.050	2621.443	3835.101
-53.217	119.726	2221.500	2727.251
-52.203	46.510	1663.772	1529.387
-51.188	38.258	1394.820	1230.441
-50.173	34.972	1351.032	1171.683
-49.159	55.125	1399.034	1339.346
-48.144	59.170	1417.179	1381.856
-47.130	38.632	1372.484	1212.862
-46.115	35.056	1354.096	1174.668
-45.100	34.750	1349.400	1168.678
-44.086	34.658	1346.894	1165.901
-43.071	34.575	1344.921	1163.640
-42.057	34.620	1342.329	1161.626
-41.042	34.567	1340.613	1159.768
-40.027	34.642	1339.150	1158.913
-39.013	34.637	1337.229	1157.173
-37.998	34.672	1335.392	1155.754
-36.984	34.798	1332.843	1154.263
-35.969	34.845	1331.298	1153.163
-34.954	34.781	1330.092	1151.683
-33.940	34.781	1328.642	1150.387
-32.925	34.897	1326.771	1149.418
-31.911	34.909	1325.682	1148.501
-30.896	34.870	1324.060	1146.813
-29.881	35.003	1322.204	1145.958
-28.867	34.883	1321.239	1144.356
-27.852	34.966	1319.509	1143.312
-26.838	35.011	1318.048	1142.267
-25.823	34.955	1316.870	1140.867
-24.809	34.824	1315.840	1139.151
-23.794	34.895	1313.693	1137.667
-22.779	34.897	1312.765	1136.831
-21.765	34.845	1311.842	1135.676
-20.750	34.952	1310.510	1135.115
-19.736	34.776	1308.883	1132.616
-18.721	34.748	1307.626	1131.320
-17.706	34.767	1306.111	1130.074
-16.692	34.717	1305.258	1128.993
-15.677	34.674	1304.358	1127.917
-14.663	34.709	1302.984	1126.894
-13.648	34.707	1301.640	1125.672
-12.633	34.699	1300.890	1124.933
-11.619	34.707	1300.127	1124.276
-10.604	34.608	1299.444	1123.056
-9.590	34.630	1298.236	1122.099
-8.575	34.639	1297.168	1121.185
-7.560	34.620	1296.435	1120.397
-6.546	34.664	1295.816	1120.073
-5.531	34.705	1294.472	1119.109
-4.517	34.736	1293.038	1118.002
-3.502	34.688	1292.516	1117.225
-2.487	34.712	1291.676	1116.599
-1.473	34.810	1287.792	1113.764
-0.458	33.967	1273.706	1096.682
0.556	31.461	1255.224	1060.355
1.571	27.753	1260.357	1043.439
2.586	26.585	1274.755	1048.512
3.600	24.915	1262.068	1028.399
4.615	18.319	1185.330	930.073
5.629	8.713	1106.695	819.352
6.644	4.423	1084.598	781.367
7.659	4.118	1082.032	777.918
8.673	4.117	1081.326	777.334
9.688	4.053	1080.143	776.098
10.702	4.324	1078.095	775.910
11.717	9.744	1086.219	808.939
12.731	18.196	1098.274	860.537
13.746	20.868	1100.728	875.833
14.761	19.727	1098.448	868.213
15.775	18.721	1097.122	862.040
16.790	17.722	1094.558	854.947
17.804	16.974	1092.806	849.753
18.819	16.610	1091.937	847.180
19.834	16.453	1090.793	845.435
20.848	16.229	1089.947	843.581
21.863	16.065	1089.190	842.105
22.877	15.864	1088.384	840.405
23.892	15.900	1088.021	840.228
24.907	15.839	1087.239	839.243
25.921	15.916	1086.204	838.756
26.936	15.930	1084.706	837.593
27.950	15.995	1082.944	836.480
28.965	16.074	1081.683	835.826
29.980	16.127	1080.169	834.843
30.994	16.232	1078.701	834.156
32.009	16.257	1078.041	833.695
33.023	16.246	1076.524	832.392
34.038	16.168	1075.884	831.440
35.053	16.080	1074.454	829.830
36.067	16.035	1073.761	829.000
37.082	16.196	1073.363	829.409
38.096	16.195	1072.804	828.902
39.111	16.189	1071.673	827.921
40.126	15.913	1070.567	825.643
41.140	15.905	1068.640	824.046
42.155	15.722	1067.770	822.408
43.169	15.675	1067.052	821.550
44.184	15.871	1065.127	820.952
45.199	15.761	1064.284	819.694
46.213	15.844	1063.396	819.341
47.228	15.981	1062.759	819.444
48.242	16.166	1061.290	819.139
49.257	15.922	1060.849	817.538
50.271	16.085	1059.503	817.220
51.286	16.055	1058.681	816.368
52.301	16.021	1057.528	815.242
53.315	15.907	1056.718	813.994
54.330	15.808	1055.421	812.449
55.344	15.862	1054.776	812.138
56.359	15.976	1053.703	811.790
57.374	15.838	1052.670	810.257
58.388	15.747	1051.941	809.185
59.403	15.670	1051.222	808.192
60.417	15.780	1050.269	807.918
61.432	15.613	1049.955	806.801
62.447	15.650	1048.866	806.073
63.461	15.549	1048.070	804.906
64.476	15.639	1046.992	804.438
65.490	15.543	1046.545	803.564
66.505	15.634	1045.620	803.215
67.520	15.738	1044.947	803.125
68.534	15.747	1044.000	802.366
69.549	15.734	1043.392	801.766
70.563	15.684	1042.006	800.393
71.578	15.615	1041.540	799.637
72.593	15.488	1040.471	798.140
73.607	15.434	1040.455	797.803
74.622	15.513	1039.588	797.441
75.636	15.540	1038.437	796.615
76.651	15.640	1037.705	796.459
77.666	15.650	1037.333	796.152
78.680	15.596	1036.581	795.246
79.695	15.678	1036.124	795.213
80.709	15.596	1035.544	794.310
81.724	15.771	1035.033	794.673
82.739	15.972	1033.729	794.552
83.753	16.020	1033.284	794.365
84.768	15.978	1032.508	793.500
85.782	16.243	1031.395	793.824
86.797	16.305	1030.387	793.268
87.812	16.030	1029.818	791.470
88.826	16.076	1028.667	790.729
89.841	16.147	1027.654	790.211
90.855	16.253	1026.718	789.917
91.870	16.174	1025.678	788.680
92.884	16.326	1024.861	788.690
93.899	16.153	1024.811	787.775
94.914	16.223	1023.497	787.022
95.928	16.226	1022.749	786.391
96.943	16.215	1021.517	785.324
97.957	16.163	1020.930	784.561
98.972	16.256	1020.232	784.386
99.987	16.139	1018.990	782.821
101.001	16.075	1018.261	781.892
102.016	16.151	1017.182	781.349
103.030	16.173	1016.582	780.919
104.045	16.115	1015.978	780.117
105.060	16.084	1014.928	779.100
106.074	15.879	1013.828	777.239
107.089	15.665	1013.131	775.652
108.103	15.717	1011.842	774.833
109.118	15.756	1010.758	774.112
110.133	15.742	1009.824	773.265
111.147	15.687	1009.068	772.367
112.162	15.709	1008.473	771.944
113.176	15.796	1007.959	771.883
114.191	15.999	1006.964	771.981
115.206	15.994	1005.771	770.978
116.220	15.960	1004.820	770.025
117.235	15.883	1004.442	769.316
118.249	15.881	1003.165	768.258
119.264	15.762	1002.632	767.241
120.279	15.740	1001.782	766.423
121.293	15.818	1000.462	765.698
122.308	15.752	999.789	764.817
123.322	15.761	998.985	764.172
124.337	15.703	997.969	763.065
125.352	15.691	996.871	762.103
126.366	15.710	995.912	761.389
127.381	15.717	995.089	760.725
128.395	15.742	994.124	760.031
129.410	15.795	993.078	759.406
130.424	15.806	992.302	758.795
131.439	16.012	991.676	759.176
132.454	15.937	990.791	758.093
133.468	15.997	990.224	757.861
134.483	15.917	989.594	756.954
135.497	15.901	988.339	755.857
136.512	15.969	987.423	755.392
137.527	16.066	986.578	755.114
138.541	15.896	986.299	754.074
139.556	16.087	985.580	754.312
140.570	16.111	984.810	753.761
141.585	16.207	983.908	753.434
142.600	16.331	982.745	753.030
143.614	16.192	982.753	752.349
144.629	16.252	981.401	751.514
145.643	16.308	980.479	750.989
146.658	16.178	979.374	749.499
147.673	16.021	978.549	748.106
148.687	16.081	977.131	747.221
149.702	16.001	976.198	746.087
150.716	16.010	975.520	745.545
151.731	15.987	974.796	744.821
152.746	16.056	974.116	744.540
153.760	16.101	973.677	744.341
154.775	16.157	973.080	744.065
155.789	16.163	972.628	743.677
156.804	16.077	972.041	742.787
157.819	16.032	971.358	742.001
158.833	16.339	970.321	742.490
159.848	16.393	969.306	741.886
160.862	16.301	968.839	741.060
161.877	16.219	967.390	739.525
162.892	16.046	966.354	737.911
163.906	16.006	965.814	737.258
164.921	15.969	964.741	736.215
165.935	16.107	963.872	736.089
166.950	16.126	962.916	735.375
167.964	16.158	962.216	734.915
168.979	16.097	960.975	733.635
169.994	16.076	960.282	732.952
171.008	16.183	959.399	732.676
172.023	16.193	959.151	732.465
173.037	16.283	957.988	731.902
174.052	16.427	956.853	731.595
175.067	16.275	956.031	730.244
176.081	16.084	955.848	729.214
177.096	16.048	955.389	728.646
178.110	16.160	954.519	728.398
179.125	16.065	954.110	727.612
180.140	16.216	953.459	727.705
181.154	16.220	953.505	727.691
182.169	16.433	952.783	727.991
183.183	16.476	951.704	727.290
184.198	16.555	950.977	727.009
185.213	16.587	950.231	726.513
186.227	16.416	949.733	725.334
187.242	16.597	948.782	725.318
188.256	16.716	948.455	725.514
189.271	16.564	948.117	724.541
190.286	16.372	946.962	722.771
191.300	16.161	946.032	721.095
192.315	16.028	944.978	719.660
193.329	16.202	944.621	720.071
194.344	16.179	944.254	719.629
195.359	16.286	943.442	719.401
196.373	16.536	942.869	719.963
197.388	16.658	942.650	720.252
198.402	16.782	942.256	720.417
199.417	16.725	941.525	719.552
200.432	16.717	940.989	719.043
201.446	16.866	940.445	719.198
202.461	16.869	939.912	718.738
203.475	16.886	939.055	718.089
204.490	16.732	938.266	716.770
205.504	16.623	937.374	715.567
206.519	16.685	936.940	715.435
207.534	16.683	935.869	714.544
208.548	16.613	935.471	713.883
209.563	16.656	934.969	713.616
210.577	16.721	933.960	713.059
211.592	16.816	933.176	712.795
212.607	16.847	932.806	712.579
213.621	16.873	932.101	712.089
214.636	16.728	931.165	710.700
215.650	16.887	930.413	710.731
216.665	16.900	929.669	710.153
217.680	16.856	929.373	709.679
218.694	16.945	928.690	709.469
219.709	16.981	927.924	708.971
220.723	17.052	927.240	708.684
221.738	16.869	926.529	707.314
222.753	16.979	925.797	707.152
223.767	16.955	925.344	706.643
224.782	17.140	925.124	707.184
225.796	17.162	924.356	706.624
226.811	17.125	923.238	705.555
227.826	16.941	922.581	704.222
228.840	17.048	921.695	703.929
229.855	16.829	921.044	702.463
230.869	16.979	920.317	702.467
231.884	16.874	919.858	701.619
232.899	16.965	918.948	701.240
233.913	16.830	918.163	700.022
234.928	16.847	917.652	699.639
235.942	16.949	916.920	699.441
236.957	16.846	916.407	698.564
237.972	16.847	915.785	698.031
238.986	16.989	915.388	698.250
240.001	16.989	914.340	697.389
241.015	17.098	913.664	697.259
242.030	17.008	913.318	696.564
243.045	16.934	913.058	696.000
244.059	17.063	912.375	695.947
245.074	17.171	911.393	695.578
246.088	17.144	910.922	695.048
247.103	17.136	910.437	694.583
248.117	17.276	909.904	694.689
249.132	17.612	909.534	695.715
250.147	17.555	909.084	695.076
251.161	17.729	907.793	694.737
252.176	17.625	907.269	693.854
253.190	17.642	906.787	693.490
254.205	17.764	906.177	693.461
255.220	17.788	905.524	692.996
256.234	17.815	904.830	692.513
257.249	17.772	904.104	691.723
258.263	17.793	903.398	691.204
259.278	17.698	902.956	690.420
260.293	17.763	902.240	690.078
261.307	17.677	901.785	689.318
262.322	17.892	901.316	689.767
263.336	17.936	900.357	689.152
264.351	17.985	899.251	688.442
265.366	17.942	899.121	688.106
266.380	17.835	898.626	687.237
267.395	17.830	897.495	686.292
268.409	17.831	896.711	685.636
269.424	17.778	896.077	684.876
270.439	17.675	895.356	683.854
271.453	17.765	894.534	683.523
272.468	17.649	894.148	682.706
273.482	17.824	893.358	682.743
274.497	17.680	893.211	681.992
275.512	17.723	892.398	681.485
276.526	17.745	892.022	681.222
277.541	17.792	891.479	680.935
278.555	17.926	891.040	681.073
279.570	17.980	890.599	680.894
280.585	18.005	889.118	679.799
281.599	17.846	888.447	678.595
282.614	17.790	888.040	678.000
283.628	17.872	887.270	677.679
284.643	17.829	886.898	677.163
285.657	18.056	885.704	677.091
286.672	17.946	885.220	676.228
287.687	17.865	884.902	675.604
288.701	18.062	884.068	675.685
289.716	18.108	883.257	675.187
290.730	17.879	883.232	674.204
291.745	18.054	882.766	674.479
292.760	18.019	881.792	673.539
293.774	18.067	881.750	673.633
294.789	18.208	880.605	673.254
295.803	18.054	879.710	671.906
296.818	18.103	879.049	671.535
297.833	18.106	878.456	671.035
298.847	18.167	877.740	670.667
299.862	18.055	877.523	670.004
300.876	18.077	877.262	669.829
301.891	18.326	876.069	669.836
302.906	18.373	875.639	669.631
303.920	18.462	875.467	669.787
304.935	18.460	874.792	669.202
305.949	18.314	874.174	668.101
306.964	18.251	873.491	667.273
307.979	18.443	872.676	667.343
308.993	18.545	872.040	667.192
310.008	18.511	871.559	666.635
311.022	18.469	871.018	665.999
312.037	18.225	870.539	664.624
313.052	18.222	870.001	664.145
314.066	18.218	869.011	663.315
315.081	18.065	869.023	662.671
316.095	18.157	868.237	662.371
317.110	18.171	867.646	661.913
318.125	18.104	866.946	661.061
319.139	18.190	866.535	661.023
320.154	18.221	865.962	660.645
321.168	18.370	865.298	660.656
322.183	18.381	864.991	660.406
323.197	18.366	864.552	659.957
324.212	18.305	864.269	659.445
325.227	18.352	863.492	658.974
326.241	18.174	862.835	657.733
327.256	18.327	862.464	657.977
328.270	18.289	861.657	657.160
329.285	18.373	860.818	656.784
330.300	18.294	860.713	656.343
331.314	18.192	860.446	655.689
332.329	18.467	859.387	655.875
333.343	18.522	859.018	655.746
334.358	18.495	858.535	655.217
335.373	18.537	857.998	654.908
336.387	18.738	857.328	655.109
337.402	18.588	857.728	654.784
338.416	18.768	857.353	655.125
339.431	18.890	856.705	655.035
340.446	18.803	856.420	654.431
341.460	18.955	855.985	654.620
342.475	18.963	855.404	654.147
343.489	18.800	855.368	653.440
344.504	19.045	854.438	653.604
345.519	19.015	854.032	653.119
346.533	18.875	853.506	652.131
347.548	18.823	852.924	651.432
348.562	18.778	852.047	650.532
349.577	18.690	851.880	650.013
350.592	18.659	851.011	649.174
351.606	18.672	850.613	648.863
352.621	18.717	849.768	648.330
353.635	18.663	849.280	647.698
354.650	18.856	848.783	647.991
355.665	18.888	848.156	647.573
356.679	18.877	847.427	646.919
357.694	19.031	846.529	646.755
358.708	18.938	846.147	646.059
359.723	19.010	845.474	645.757
360.738	19.006	844.760	645.139
361.752	19.088	844.264	645.011
362.767	19.128	843.896	644.822
363.781	19.146	843.559	644.574
364.796	19.268	842.777	644.375
365.810	19.276	842.507	644.141
366.825	19.355	842.307	644.229
367.840	19.394	841.364	643.594
368.854	19.183	841.263	642.675
369.869	19.191	840.450	642.027
370.883	19.228	839.994	641.759
371.898	19.274	839.906	641.806
372.913	19.379	839.491	641.821
373.927	19.371	838.516	640.990
374.942	19.238	838.644	640.538
375.956	19.280	838.214	640.309
376.971	19.477	837.507	640.441
377.986	19.524	836.995	640.170
379.000	19.483	836.738	639.762
380.015	19.555	836.152	639.526
381.029	19.553	835.400	638.886
382.044	19.586	834.820	638.507
383.059	19.613	834.230	638.099
384.073	19.367	833.761	636.779
385.088	19.357	833.228	636.275
386.102	19.322	832.686	635.677
387.117	19.408	831.625	635.128
388.132	19.460	831.071	634.841
389.146	19.362	831.095	634.443
390.161	19.550	830.462	634.592
391.175	19.537	829.791	633.975
392.190	19.522	829.383	633.552
393.205	19.524	828.590	632.901
394.219	19.433	828.155	632.178
395.234	19.309	828.069	631.602
396.248	19.328	827.336	631.057
397.263	19.222	827.242	630.540
398.278	19.360	826.433	630.373
399.292	19.266	826.167	629.769
400.307	19.416	825.747	629.942
401.321	19.463	824.992	629.481
402.336	19.445	824.804	629.217
403.350	19.556	824.363	629.229
404.365	19.712	823.949	629.428
405.380	19.734	823.698	629.258
406.394	19.775	823.038	628.849
407.409	19.966	822.554	629.115
408.423	19.953	821.993	628.585
409.438	20.010	821.821	628.603
410.453	19.993	821.358	628.132
411.467	19.873	821.088	627.436
412.482	20.035	820.619	627.607
413.496	20.021	820.568	627.465
414.511	20.099	819.905	627.183
415.526	20.112	819.018	626.496
416.540	20.030	818.927	626.075
417.555	20.036	818.332	625.586
418.569	20.014	817.749	625.006
419.584	19.986	817.652	624.777
420.599	20.170	817.138	624.992
421.613	155.038	1371.852	1787.563
422.628	134.933	1452.676	1787.676
