DTS Sentinel unit serial number:	SN413079Multiplexer serial number:	ORYXHardware model number:	OX4-SRSoftware version number:	ORYX F/W v4.00 Oryx Data Collector v3.7.2.0data status	okinstallation	princeton_trtdifferential loss correction	single-endedforward channel	channel 1reverse channel	N/Adate	2019/09/13time	16:38:35forward acquisition time	60.00reverse acquisition time	0.00gamma	496.2192k internal	0.2305k external	0.2305temperature offset calibration	1.0166default loss term (dB/km)	0.3790temperature slope calibration	1.0000multiplexer offset coefficient	1.0000multiplexer slope coefficient	1.0000fibre end	0.00T internal ref (°C)	35.05T ext. ref 1 (°C)	4.91T ext. ref 2 (°C)	29.73length (m)	temperature (°C)	Stokes	anti-Stokes-747.200	800.000	0.114	0.431
-746.185	-117.520	-0.527	0.097
-745.171	155.741	0.211	0.296
-744.156	273.629	0.049	-0.088
-743.142	-133.357	0.250	0.032
-742.127	406.158	-0.084	-0.180
-741.112	800.000	0.004	0.012
-740.098	423.402	0.109	-0.238
-739.083	277.788	-0.158	0.287
-738.069	399.308	-0.069	0.146
-737.054	543.075	0.104	0.252
-736.039	-200.000	0.004	-0.090
-735.025	-83.953	0.219	0.071
-734.010	-92.484	-0.052	0.015
-732.996	-106.346	-0.139	-0.032
-731.981	-99.534	-0.279	-0.071
-730.966	103.618	-0.096	0.115
-729.952	108.307	-0.224	-0.272
-728.937	465.707	-0.023	0.053
-727.923	-200.000	0.023	-0.194
-726.908	800.000	-0.053	-0.216
-725.894	-74.940	-0.256	-0.093
-724.879	-14.781	-0.188	0.123
-723.864	-200.000	0.008	0.090
-722.850	84.014	0.044	-0.049
-721.835	800.000	-0.060	-0.204
-720.821	-116.228	-0.149	-0.028
-719.806	-200.000	0.014	-0.328
-718.791	292.308	-0.112	0.207
-717.777	291.030	0.091	0.168
-716.762	-200.000	0.041	-0.271
-715.748	117.065	-0.187	-0.233
-714.733	-200.000	0.011	-0.344
-713.718	282.177	-0.121	0.220
-712.704	563.326	-0.145	-0.356
-711.689	35.931	-0.256	0.229
-710.675	383.618	0.195	0.408
-709.660	-100.168	-0.173	-0.044
-708.645	-66.158	-0.133	0.054
-707.631	6.647	-0.089	-0.067
-706.616	800.000	-0.056	-0.210
-705.602	742.946	-0.070	-0.190
-704.587	156.030	-0.072	-0.101
-703.572	-45.175	-0.178	0.090
-702.558	-200.000	0.022	-0.175
-701.543	-109.970	-0.282	-0.060
-700.529	-190.793	-0.442	0.005
-699.514	-59.348	0.177	0.077
-698.499	-68.606	0.164	-0.065
-697.485	-200.000	0.019	-0.116
-696.470	-83.697	-0.413	-0.134
-695.456	-166.516	-0.469	0.020
-694.441	-4.089	-0.151	-0.106
-693.426	20.254	-0.018	-0.014
-692.412	-200.000	-0.026	-0.143
-691.397	-116.339	-0.167	-0.031
-690.383	85.406	0.281	0.313
-689.368	-119.568	0.359	0.063
-688.354	13.871	-0.193	0.153
-687.339	-27.967	0.038	-0.022
-686.324	-200.000	0.056	-0.264
-685.310	-45.324	-0.087	-0.044
-684.295	30.354	-0.254	0.220
-683.281	-200.000	0.013	0.073
-682.266	70.925	0.247	0.259
-681.251	272.625	0.051	0.092
-680.237	-200.000	0.008	-0.088
-679.222	-102.061	-0.171	-0.042
-678.208	-97.333	-0.230	0.061
-677.193	-122.120	-0.160	0.027
-676.178	47.171	-0.159	0.150
-675.164	-86.946	-0.235	0.073
-674.149	-200.000	-0.237	-0.001
-673.135	800.000	-0.055	0.169
-672.120	-85.448	-0.275	-0.087
-671.105	-200.000	-0.001	0.084
-670.091	-120.948	-0.069	0.012
-669.076	-4.829	-0.068	0.047
-668.062	-200.000	0.037	-0.295
-667.047	11.050	-0.185	0.143
-666.032	41.715	0.199	0.183
-665.018	15.827	-0.186	-0.149
-664.003	59.143	-0.119	0.119
-662.989	25.245	-0.380	-0.321
-661.974	28.160	-0.102	0.088
-660.959	84.122	0.122	0.135
-659.945	347.497	-0.110	-0.220
-658.930	-104.762	-0.311	-0.073
-657.916	-128.652	-0.048	0.007
-656.901	-52.627	-0.232	0.109
-655.886	-200.000	-0.042	0.283
-654.872	1.603	-0.080	0.059
-653.857	-200.000	0.018	0.312
-652.843	800.000	0.054	-0.191
-651.828	800.000	-0.036	-0.137
-650.814	-101.816	-0.403	0.099
-649.799	-33.147	-0.119	-0.067
-648.784	-200.000	-0.003	-0.253
-647.770	-140.748	0.150	-0.016
-646.755	-200.000	0.055	-0.284
-645.741	24.462	-0.178	0.150
-644.726	38.768	-0.113	0.102
-643.711	-104.665	0.159	-0.037
-642.697	-200.000	-0.060	-0.305
-641.682	-7.189	-0.130	0.089
-640.668	443.825	-0.093	-0.208
-639.653	-156.595	0.514	0.032
-638.638	149.251	-0.219	-0.301
-637.624	-81.088	-0.100	0.034
-636.609	77.048	-0.257	-0.276
-635.595	-69.243	-0.198	-0.077
-634.580	78.534	0.116	-0.126
-633.565	-40.994	-0.479	-0.251
-632.551	-170.520	-0.067	-0.002
-631.536	54.011	0.271	-0.264
-630.522	65.119	-0.091	-0.093
-629.507	-200.000	-0.002	-0.179
-628.492	-200.000	-0.018	-0.317
-627.478	204.430	-0.086	0.135
-626.463	-99.291	0.198	-0.051
-625.449	-23.653	-0.122	0.074
-624.434	-200.000	0.019	0.103
-623.419	-99.949	0.391	-0.099
-622.405	18.594	0.093	-0.075
-621.390	-44.731	-0.266	0.135
-620.376	-200.000	-0.031	0.459
-619.361	-200.000	0.009	0.061
-618.346	215.141	0.044	0.071
-617.332	-36.491	0.100	0.055
-616.317	800.000	-0.069	0.222
-615.303	269.698	-0.167	-0.297
-614.288	-200.000	-0.010	0.201
-613.273	128.822	0.100	-0.130
-612.259	76.872	-0.243	-0.261
-611.244	133.719	-0.173	-0.227
-610.230	-50.674	0.287	0.137
-609.215	-46.306	0.197	-0.098
-608.201	-39.786	-0.251	-0.133
-607.186	16.749	-0.043	-0.034
-606.171	-3.085	0.047	0.033
-605.157	72.347	-0.119	-0.125
-604.142	90.761	0.244	-0.277
-603.128	800.000	-0.047	-0.167
-602.113	-62.762	0.128	0.054
-601.098	251.569	0.128	-0.220
-600.084	217.138	-0.247	0.399
-599.069	233.987	-0.120	0.201
-598.055	425.906	0.124	0.269
-597.040	-22.444	-0.107	-0.065
-596.025	46.238	-0.224	-0.210
-595.011	-200.000	-0.001	0.024
-593.996	-200.000	0.024	-0.310
-592.982	102.241	-0.176	-0.208
-591.967	-96.676	0.250	-0.067
-590.952	-200.000	0.010	0.142
-589.938	-63.582	-0.190	-0.079
-588.923	-200.000	0.042	0.284
-587.909	13.827	0.150	-0.118
-586.894	-44.920	-0.240	-0.121
-585.879	183.618	0.049	-0.074
-584.865	-42.038	-0.271	0.140
-583.850	8.162	0.058	0.044
-582.836	102.892	-0.364	0.431
-581.821	-81.166	0.042	-0.014
-580.806	-17.268	-0.387	0.247
-579.792	-67.170	-0.160	-0.064
-578.777	583.888	-0.052	-0.129
-577.763	72.919	-0.234	-0.247
-576.748	312.207	0.128	0.242
-575.733	575.285	0.126	0.310
-574.719	800.000	0.073	0.300
-573.704	327.009	0.093	-0.180
-572.690	8.804	-0.056	-0.043
-571.675	-87.647	-0.322	0.098
-570.661	241.612	-0.177	-0.299
-569.646	-11.698	0.056	-0.037
-568.631	183.742	0.024	0.036
-567.617	-114.368	0.160	0.031
-566.602	-47.358	0.108	0.053
-565.588	800.000	-0.076	0.287
-564.573	-42.126	-0.061	0.032
-563.558	362.972	0.136	0.275
-562.544	461.874	0.060	0.134
-561.529	84.571	-0.098	0.108
-560.515	-200.000	-0.006	0.051
-559.500	-200.000	-0.045	-0.288
-558.485	-96.074	0.293	-0.079
-557.471	-60.107	-0.363	0.156
-556.456	-15.362	-0.058	-0.037
-555.442	-99.372	0.441	-0.112
-554.427	-200.000	0.003	-0.072
-553.412	800.000	0.150	-0.435
-552.398	-200.000	0.040	0.257
-551.383	800.000	-0.036	-0.157
-550.369	-200.000	-0.038	-0.239
-549.354	-69.543	0.197	0.076
-548.339	-34.532	0.049	0.027
-547.325	800.000	0.037	-0.130
-546.310	29.879	-0.174	-0.149
-545.296	188.124	-0.120	0.182
-544.281	-87.720	-0.240	-0.073
-543.266	-63.503	-0.241	0.100
-542.252	-200.000	0.017	-0.191
-541.237	-200.000	0.011	-0.271
-540.223	466.404	-0.204	-0.461
-539.208	186.776	-0.099	-0.149
-538.193	2.178	0.208	0.152
-537.179	178.334	-0.087	-0.128
-536.164	68.281	-0.095	-0.098
-535.150	-117.085	0.237	-0.044
-534.135	-200.000	0.062	0.344
-533.121	40.771	-0.175	0.160
-532.106	86.569	0.152	0.169
-531.091	46.878	0.071	0.067
-530.077	800.000	0.061	-0.243
-529.062	0.967	-0.144	0.104
-528.048	152.795	0.305	-0.421
-527.033	171.690	-0.089	0.130
-526.018	-45.321	0.353	-0.177
-525.004	163.139	-0.076	0.108
-523.989	-99.940	0.036	-0.009
-522.975	-200.000	-0.035	-0.407
-521.960	645.538	0.033	0.084
-520.945	800.000	-0.143	-0.433
-519.931	485.431	-0.038	0.087
-518.916	-98.196	0.135	-0.035
-517.902	526.897	-0.078	0.185
-516.887	-200.000	0.014	-0.172
-515.872	33.335	0.508	-0.445
-514.858	12.722	0.099	-0.077
-513.843	800.000	-0.040	0.169
-512.829	-64.097	-0.130	-0.054
-511.814	-93.483	-0.174	-0.049
-510.799	103.747	0.057	0.068
-509.785	337.040	0.091	0.178
-508.770	-67.584	0.066	-0.026
-507.756	-200.000	-0.018	-0.358
-506.741	-15.266	-0.244	-0.158
-505.726	-200.000	-0.051	0.294
-504.712	445.270	0.049	0.108
-503.697	62.579	0.098	-0.098
-502.683	290.639	-0.106	-0.195
-501.668	800.000	-0.036	0.116
-500.653	105.938	-0.213	0.254
-499.639	791.252	-0.040	0.110
-498.624	800.000	-0.053	-0.201
-497.610	227.895	-0.130	0.213
-496.595	499.059	-0.121	0.281
-495.581	-86.041	-0.154	-0.048
-494.566	98.114	0.303	0.351
-493.551	93.478	0.251	0.286
-492.537	-66.734	0.042	-0.017
-491.522	-88.661	0.425	0.127
-490.508	216.458	0.113	-0.182
-489.493	-57.421	-0.115	-0.051
-488.478	69.713	0.119	-0.124
-487.464	426.574	0.139	-0.303
-486.449	-180.328	-0.536	0.011
-485.435	151.035	0.272	-0.373
-484.420	76.212	-0.088	-0.094
-483.405	-84.265	-0.094	0.030
-482.391	800.000	0.054	0.211
-481.376	-109.266	0.348	-0.074
-480.362	-200.000	-0.010	0.265
-479.347	-19.664	0.233	0.145
-478.332	295.989	-0.093	0.172
-477.318	229.807	0.111	0.182
-476.303	800.000	0.080	-0.230
-475.289	583.540	-0.081	-0.200
-474.274	-4.925	-0.222	0.154
-473.259	-200.000	-0.088	-0.457
-472.245	12.458	0.054	0.042
-471.230	76.945	-0.169	-0.180
-470.216	-200.000	-0.025	0.215
-469.201	-200.000	0.040	0.436
-468.186	69.043	0.081	-0.084
-467.172	39.762	-0.252	-0.228
-466.157	-147.265	0.201	0.017
-465.143	372.392	0.125	0.257
-464.128	-200.000	-0.000	-0.212
-463.113	46.271	0.272	-0.254
-462.099	-65.010	0.152	-0.062
-461.084	-41.724	0.244	0.126
-460.070	-96.537	0.170	0.045
-459.055	-122.768	-0.190	-0.031
-458.040	-138.462	0.143	-0.016
-457.026	72.189	0.114	-0.120
-456.011	460.599	-0.076	-0.170
-454.997	-34.774	-0.205	0.113
-453.982	-200.000	0.043	-0.303
-452.968	-127.309	-0.297	0.044
-451.953	159.464	-0.192	-0.269
-450.938	800.000	-0.138	-0.468
-449.924	-96.508	-0.065	0.017
-448.909	39.543	-0.366	0.330
-447.895	-38.107	0.081	-0.043
-446.880	780.599	-0.055	0.151
-445.865	361.912	-0.049	0.099
-444.851	-50.086	-0.070	0.033
-443.836	101.607	0.284	0.333
-442.822	-109.967	-0.119	-0.025
-441.807	-200.000	-0.013	-0.139
-440.792	-42.599	0.281	0.144
-439.778	-76.907	0.121	-0.043
-438.763	79.573	-0.204	0.220
-437.749	30.611	-0.204	-0.176
-436.734	-158.091	-0.063	0.004
-435.719	-45.363	0.373	0.186
-434.705	753.221	0.158	0.430
-433.690	-92.213	0.032	0.009
-432.676	-200.000	-0.028	0.160
-431.661	800.000	-0.119	-0.353
-430.646	-89.127	0.114	0.034
-429.632	-200.000	-0.035	0.283
-428.617	800.000	0.051	-0.184
-427.603	196.458	-0.132	-0.202
-426.588	-124.773	-0.394	-0.061
-425.573	43.233	0.083	0.076
-424.559	775.774	0.065	-0.178
-423.544	336.330	-0.116	-0.227
-422.530	431.644	0.039	-0.086
-421.515	198.983	-0.176	0.271
-420.500	-87.310	0.264	0.081
-419.486	-128.789	0.441	-0.062
-418.471	-200.000	0.004	-0.105
-417.457	541.447	0.147	-0.351
-416.442	-63.410	0.213	0.088
-415.428	74.776	0.037	0.039
-414.413	50.212	-0.143	0.135
-413.398	-200.000	-0.019	-0.137
-412.384	800.000	0.106	0.361
-411.369	-64.638	0.403	0.164
-410.355	-80.866	0.176	-0.059
-409.340	197.882	-0.184	0.283
-408.325	129.576	-0.074	0.095
-407.311	594.657	-0.103	0.255
-406.296	-200.000	0.020	-0.097
-405.282	-79.741	-0.164	-0.056
-404.267	-122.304	0.253	-0.042
-403.252	318.477	-0.045	-0.085
-402.238	650.998	0.057	0.147
-401.223	255.158	-0.107	-0.185
-400.209	32.944	0.318	0.276
-399.194	-200.000	0.053	0.257
-398.179	-155.904	0.399	-0.026
-397.165	2.763	-0.363	-0.265
-396.150	-113.615	-0.187	-0.037
-395.136	-200.000	0.016	0.208
-394.121	-18.890	-0.409	-0.255
-393.106	-116.683	-0.022	-0.004
-392.092	574.438	-0.084	0.207
-391.077	240.697	0.198	0.331
-390.063	70.449	0.083	0.086
-389.048	-119.118	-0.064	0.011
-388.033	-38.392	-0.114	0.061
-387.019	-13.842	-0.099	-0.064
-386.004	47.114	0.125	0.117
-384.990	-200.000	-0.001	0.225
-383.975	13.880	-0.093	0.073
-382.960	-56.620	-0.251	-0.111
-381.946	501.849	-0.099	-0.229
-380.931	-66.880	0.065	-0.026
-379.917	29.333	-0.095	-0.081
-378.902	164.513	-0.139	0.197
-377.888	-16.662	-0.160	0.102
-376.873	-200.000	0.004	-0.134
-375.858	-147.207	-0.392	-0.034
-374.844	79.472	0.423	0.455
-373.829	210.302	-0.233	-0.367
-372.815	24.093	-0.146	0.121
-371.800	62.061	0.097	0.097
-370.785	-200.000	-0.001	0.167
-369.771	-9.304	0.118	0.079
-368.756	-200.000	-0.006	0.217
-367.742	-200.000	0.035	-0.190
-366.727	-200.000	-0.032	0.302
-365.712	-200.000	-0.020	0.271
-364.698	-95.871	0.613	-0.164
-363.683	-7.211	0.332	0.226
-362.669	-105.135	-0.092	0.021
-361.654	-96.029	-0.246	0.066
-360.639	87.475	0.164	0.182
-359.625	34.857	0.293	0.257
-358.610	-82.961	-0.162	0.052
-357.596	795.768	-0.128	-0.354
-356.581	800.000	0.067	-0.236
-355.566	284.323	-0.101	0.181
-354.552	7.993	0.113	0.085
-353.537	181.032	0.131	0.192
-352.523	160.981	-0.117	-0.164
-351.508	-126.565	-0.159	0.024
-350.493	-19.282	-0.155	0.096
-349.479	-42.361	0.324	0.166
-348.464	-200.000	-0.056	0.249
-347.450	-23.063	0.155	0.093
-346.435	-200.000	-0.009	0.459
-345.420	800.000	0.127	0.398
-344.406	345.156	0.095	0.187
-343.391	800.000	0.070	-0.227
-342.377	-200.000	0.098	-0.490
-341.362	249.039	0.167	-0.283
-340.348	345.171	-0.125	-0.246
-339.333	-200.000	0.018	0.249
-338.318	223.020	0.114	0.184
-337.304	-97.771	0.226	-0.059
-336.289	-128.299	-0.213	-0.030
-335.275	297.045	-0.050	0.091
-334.260	-72.362	-0.227	-0.084
-333.245	-165.112	0.227	-0.010
-332.231	800.000	0.090	0.279
-331.216	36.143	0.029	0.025
-330.202	648.584	0.114	-0.292
-329.187	-200.000	0.024	0.319
-328.172	-60.717	0.257	-0.109
-327.158	-105.066	0.176	-0.040
-326.143	-81.891	0.291	-0.095
-325.129	40.057	-0.293	-0.264
-324.114	102.017	-0.199	-0.233
-323.099	20.236	-0.047	-0.038
-322.085	606.548	0.045	-0.112
-321.070	31.457	-0.108	-0.093
-320.056	-200.000	0.015	0.571
-319.041	505.786	-0.136	0.316
-318.026	-95.190	0.186	-0.050
-317.012	186.776	0.238	-0.355
-315.997	-200.000	-0.063	-0.443
-314.983	30.745	0.037	-0.032
-313.968	-88.405	-0.548	0.164
-312.953	-122.807	-0.531	0.086
-311.939	143.371	0.054	0.072
-310.924	-137.550	-0.260	0.029
-309.910	-200.000	-0.010	-0.103
-308.895	110.354	-0.056	-0.067
-307.880	-200.000	-0.024	0.351
-306.866	-129.122	-0.504	0.070
-305.851	-81.162	-0.143	0.047
-304.837	-122.881	0.295	0.048
-303.822	97.111	-0.153	-0.175
-302.807	664.121	-0.057	0.147
-301.793	-57.601	0.322	-0.141
-300.778	39.520	0.158	-0.141
-299.764	-2.070	0.071	0.050
-298.749	-73.016	-0.102	-0.037
-297.735	208.650	0.123	0.193
-296.720	-79.280	-0.053	0.018
-295.705	-24.722	0.089	-0.053
-294.691	42.735	0.118	0.107
-293.676	-98.111	-0.068	-0.017
-292.662	800.000	0.040	0.165
-291.647	52.358	0.139	-0.132
-290.632	243.222	0.126	0.211
-289.618	-108.816	0.191	0.041
-288.603	-35.765	-0.272	-0.147
-287.589	-113.769	-0.235	-0.046
-286.574	214.554	-0.087	0.137
-285.559	-200.000	0.020	0.340
-284.545	581.068	0.107	-0.262
-283.530	-200.000	-0.001	-0.063
-282.516	-102.704	0.294	0.070
-281.501	-16.996	-0.230	0.145
-280.486	-200.000	0.039	-0.201
-279.472	60.377	0.055	-0.054
-278.457	-49.154	-0.182	-0.087
-277.443	-9.098	0.159	0.106
-276.428	-200.000	0.010	0.097
-275.413	44.021	-0.048	-0.044
-274.399	-90.193	0.140	-0.041
-273.384	-200.000	0.021	-0.287
-272.370	-200.000	-0.024	-0.147
-271.355	-27.013	-0.059	-0.035
-270.340	-118.511	0.210	-0.037
-269.326	-200.000	-0.002	0.186
-268.311	-66.861	-0.153	0.061
-267.297	-200.000	0.034	0.195
-266.282	-200.000	0.013	0.417
-265.267	-3.348	-0.062	-0.043
-264.253	106.299	0.037	-0.044
-263.238	394.396	0.177	-0.369
-262.224	-200.000	-0.034	-0.218
-261.209	-21.258	-0.319	-0.195
-260.195	105.002	-0.187	-0.221
-259.180	800.000	0.070	-0.220
-258.165	-73.506	-0.102	0.037
-257.151	9.290	-0.131	0.099
-256.136	-79.606	0.140	0.047
-255.122	116.404	0.028	-0.035
-254.107	-200.000	-0.017	-0.237
-253.092	-104.884	0.345	0.079
-252.078	-55.768	-0.090	0.040
-251.063	55.415	0.087	0.084
-250.049	-55.045	0.101	0.046
-249.034	-28.181	0.332	0.191
-248.019	-119.672	-0.496	-0.086
-247.005	-178.293	-0.051	0.001
-245.990	-173.029	0.091	-0.003
-244.976	-200.000	0.000	-0.014
-243.961	800.000	-0.105	-0.299
-242.946	484.999	0.118	0.269
-241.932	-144.477	-0.220	0.020
-240.917	377.311	-0.026	0.053
-239.903	21.697	-0.302	0.246
-238.888	-62.515	-0.273	0.113
-237.873	98.643	0.216	0.249
-236.859	-133.762	-0.227	-0.028
-235.844	-35.177	0.231	-0.125
-234.830	-23.883	-0.060	0.036
-233.815	-200.000	-0.008	0.159
-232.800	-57.868	0.428	0.187
-231.786	70.532	-0.154	0.159
-230.771	66.762	-0.095	-0.096
-229.757	203.385	0.125	-0.193
-228.742	800.000	-0.094	0.359
-227.727	800.000	0.088	0.250
-226.713	100.164	-0.015	0.018
-225.698	172.626	-0.177	-0.254
-224.684	210.192	0.060	0.093
-223.669	-102.546	0.200	0.048
-222.655	-200.000	0.033	0.151
-221.640	83.318	0.097	0.105
-220.625	-200.000	0.036	0.240
-219.611	-156.929	-0.138	-0.008
-218.596	-11.314	0.199	0.131
-217.582	800.000	-0.058	-0.175
-216.567	-84.112	0.039	-0.012
-215.552	178.187	-0.053	0.077
-214.538	138.119	0.072	0.094
-213.523	-39.608	0.011	0.006
-212.509	-81.416	-0.096	0.032
-211.494	800.000	-0.084	-0.253
-210.479	276.115	0.178	0.314
-209.465	129.782	-0.126	0.160
-208.450	221.285	0.079	-0.127
-207.436	-56.741	0.255	0.112
-206.421	70.915	0.243	-0.251
-205.406	-200.000	-0.084	-0.509
-204.392	-24.078	0.287	0.171
-203.377	-200.000	-0.020	-0.464
-202.363	800.000	0.136	0.382
-201.348	6.798	0.130	-0.097
-200.333	-136.494	0.120	-0.014
-199.319	61.052	0.053	-0.053
-198.304	212.096	-0.096	-0.150
-197.290	800.000	0.048	-0.154
-196.275	-57.603	-0.105	0.046
-195.260	-100.651	-0.351	-0.086
-194.246	-137.165	-0.194	-0.022
-193.231	596.190	-0.120	0.296
-192.217	-200.000	0.052	-0.239
-191.202	-47.144	0.311	0.151
-190.187	197.746	-0.024	0.036
-189.173	800.000	-0.008	0.023
-188.158	297.303	-0.130	0.237
-187.144	-108.470	-0.113	0.024
-186.129	-115.172	-0.389	-0.073
-185.114	77.451	0.150	-0.158
-184.100	800.000	-0.141	-0.433
-183.085	-40.295	0.198	-0.103
-182.071	-200.000	0.019	0.223
-181.056	-200.000	-0.020	0.361
-180.042	-179.658	-0.088	-0.002
-179.027	55.813	0.255	0.246
-178.012	-22.043	0.353	0.214
-176.998	-122.033	-0.125	0.020
-175.983	-200.000	-0.042	0.186
-174.969	-200.000	-0.166	0.000
-173.954	113.199	-0.242	-0.292
-172.939	-142.825	0.446	-0.043
-171.925	-104.367	0.064	-0.015
-170.910	-169.181	-0.250	0.009
-169.896	584.029	-0.126	-0.308
-168.881	-200.000	0.045	-0.244
-167.866	92.868	-0.190	-0.214
-166.852	-137.139	-0.400	0.045
-165.837	-24.502	0.090	-0.053
-164.823	331.223	-0.047	0.091
-163.808	119.812	0.159	-0.196
-162.793	-33.192	0.214	0.118
-161.779	-76.599	-0.242	0.084
-160.764	-53.127	0.245	0.112
-159.750	319.786	0.097	0.184
-158.735	-200.000	-0.004	0.093
-157.720	800.000	-0.084	0.276
-156.706	499.749	-0.089	-0.205
-155.691	-91.692	0.279	-0.079
-154.677	123.881	0.179	-0.223
-153.662	-200.000	0.004	0.088
-152.647	-115.170	0.228	-0.043
-151.633	451.777	-0.127	-0.278
-150.618	-140.717	0.068	-0.007
-149.604	-200.000	0.006	-0.142
-148.589	232.533	0.188	0.307
-147.574	-200.000	-0.028	0.243
-146.560	514.682	-0.023	-0.053
-145.545	-200.000	0.023	0.293
-144.531	-108.965	-0.140	0.030
-143.516	-45.718	-0.402	0.197
-142.502	-115.968	-0.195	-0.036
-141.487	-3.021	-0.285	0.198
-140.472	-47.168	-0.107	-0.052
-139.458	-18.877	-0.315	-0.195
-138.443	-106.548	0.135	0.030
-137.429	800.000	0.050	-0.150
-136.414	-81.515	0.052	0.017
-135.399	215.854	0.098	0.154
-134.385	139.508	0.043	-0.056
-133.370	-200.000	0.022	-0.221
-132.356	-36.879	0.238	0.127
-131.341	31.571	-0.145	-0.124
-130.326	57.164	-0.146	-0.141
-129.312	365.286	0.038	0.076
-128.297	46.559	0.192	0.177
-127.283	-15.100	-0.344	-0.219
-126.268	-188.081	0.082	0.001
-125.253	-200.000	-0.061	0.354
-124.239	-75.482	-0.178	0.063
-123.224	-64.806	0.146	-0.059
-122.210	593.168	-0.093	-0.227
-121.195	-200.000	0.021	0.147
-120.180	290.624	-0.120	-0.216
-119.166	43.920	-0.160	0.145
-118.151	-48.239	-0.278	0.133
-117.137	-116.251	-0.169	0.031
-116.122	204.045	0.080	-0.123
-115.107	-200.000	-0.035	-0.188
-114.093	-200.000	0.018	0.200
-113.078	180.163	-0.161	0.234
-112.064	-200.000	-0.004	-0.135
-111.049	29.330	0.231	0.195
-110.034	-120.029	-0.118	0.020
-109.020	-28.407	-0.294	-0.168
-108.005	415.409	0.051	0.109
-106.991	-167.170	-0.148	0.006
-105.976	-200.000	0.039	-0.174
-104.962	-34.819	0.162	0.088
-103.947	105.666	-0.021	-0.025
-102.932	-200.000	0.002	-0.267
-101.918	88.536	-0.300	0.330
-100.903	-200.000	0.011	0.093
-99.889	-34.374	-0.176	0.096
-98.874	667.008	0.049	0.125
-97.859	3.966	0.224	0.162
-96.845	-98.445	-0.210	-0.053
-95.830	-200.000	0.000	-0.237
-94.816	-200.000	0.032	0.357
-93.801	126.023	0.189	0.237
-92.786	249.591	0.063	-0.105
-91.772	-77.697	0.150	0.052
-90.757	432.905	-0.168	0.362
-89.743	199.403	-0.136	0.207
-88.728	607.541	0.117	0.289
-87.713	-104.717	0.275	-0.063
-86.699	131.490	-0.096	-0.122
-85.684	60.043	-0.076	0.074
-84.670	-69.962	0.188	-0.071
-83.655	199.072	0.028	0.043
-82.640	-156.325	0.545	0.034
-81.626	551.541	0.037	-0.088
-80.611	335.963	-0.243	0.467
-79.597	800.000	0.055	0.158
-78.582	-5.745	0.101	-0.069
-77.567	374.327	0.181	0.365
-76.553	-31.727	0.334	-0.186
-75.538	175.843	-0.172	-0.248
-74.524	-46.101	-0.089	0.043
-73.509	470.407	0.130	0.289
-72.494	121.605	0.297	0.367
-71.480	-131.966	0.426	-0.055
-70.465	89.174	-0.048	0.053
-69.451	-80.031	0.204	-0.068
-68.436	-80.901	-0.134	-0.044
-67.422	446.158	-0.080	-0.175
-66.407	10.125	-0.328	-0.247
-65.392	-46.765	-0.190	-0.092
-64.378	-3.008	-0.189	-0.131
-63.363	800.000	-0.046	0.132
-62.349	-116.233	0.336	0.062
-61.334	64.427	-0.682	-0.681
-60.319	492.528	0.350	0.796
-59.305	800.000	-0.315	-0.889
-58.290	314.586	0.459	0.857
-57.276	800.000	0.403	1.660
-56.261	-200.000	95.177	567.160
-55.246	653.788	1379.334	3505.798
-54.232	187.027	2597.708	3835.950
-53.217	123.845	2186.062	2718.913
-52.203	47.085	1637.523	1509.333
-51.188	38.586	1371.672	1211.947
-50.173	35.260	1329.041	1154.249
-49.159	56.272	1377.621	1325.694
-48.144	60.889	1395.891	1371.481
-47.130	38.906	1350.128	1194.670
-46.115	35.245	1332.089	1156.622
-45.100	35.016	1327.602	1151.301
-44.086	35.074	1324.264	1148.709
-43.071	34.773	1322.735	1145.531
-42.057	34.871	1320.386	1144.041
-41.042	35.030	1318.602	1143.400
-40.027	35.073	1317.239	1142.426
-39.013	35.018	1315.373	1140.436
-37.998	34.998	1313.353	1138.519
-36.984	34.952	1311.672	1136.744
-35.969	35.089	1310.101	1136.153
-34.954	35.054	1308.657	1134.646
-33.940	35.088	1306.853	1133.241
-32.925	35.109	1305.505	1132.149
-31.911	35.117	1303.998	1130.847
-30.896	35.147	1302.385	1129.575
-29.881	35.050	1301.403	1128.107
-28.867	35.243	1299.138	1127.237
-27.852	35.213	1298.235	1126.233
-26.838	35.148	1296.942	1124.681
-25.823	35.241	1295.128	1123.612
-24.809	35.071	1294.112	1121.688
-23.794	35.230	1292.324	1121.023
-22.779	35.147	1290.681	1119.072
-21.765	35.137	1290.181	1118.534
-20.750	35.065	1288.945	1116.998
-19.736	34.883	1288.111	1115.168
-18.721	35.019	1286.285	1114.337
-17.706	35.032	1284.757	1113.047
-16.692	35.059	1283.589	1112.145
-15.677	35.027	1282.748	1111.187
-14.663	34.962	1281.733	1109.890
-13.648	34.926	1280.658	1108.703
-12.633	34.947	1279.700	1107.953
-11.619	34.924	1279.068	1107.225
-10.604	34.898	1277.988	1106.097
-9.590	35.071	1276.665	1105.911
-8.575	34.964	1276.098	1104.758
-7.560	34.953	1275.286	1103.944
-6.546	35.127	1273.837	1103.649
-5.531	34.916	1273.593	1102.178
-4.517	34.922	1272.640	1101.347
-3.502	34.897	1271.816	1100.442
-2.487	34.950	1270.899	1099.911
-1.473	34.917	1266.597	1095.956
-0.458	33.291	1251.213	1073.387
0.556	31.241	1230.881	1028.988
1.571	26.560	1234.467	1005.952
2.586	25.031	1248.018	1008.311
3.600	23.433	1235.960	989.565
4.615	17.923	1163.884	902.724
5.629	9.365	1088.069	801.374
6.644	5.355	1066.831	766.045
7.659	4.895	1064.329	761.929
8.673	4.623	1062.955	759.552
9.688	4.749	1061.363	758.961
10.702	5.309	1060.706	761.151
11.717	10.882	1068.208	793.741
12.731	18.904	1079.197	841.251
13.746	22.049	1082.951	859.520
14.761	21.871	1081.683	857.570
15.775	20.904	1080.042	851.472
16.790	19.899	1077.760	844.692
17.804	19.133	1076.193	839.657
18.819	18.852	1075.449	837.632
19.834	18.739	1074.753	836.466
20.848	18.536	1073.819	834.675
21.863	18.382	1072.932	833.165
22.877	18.170	1072.588	831.790
23.892	18.244	1071.256	831.043
24.907	18.213	1070.635	830.339
25.921	18.132	1070.021	829.396
26.936	18.168	1068.389	828.231
27.950	18.183	1067.144	827.265
28.965	18.308	1065.470	826.498
29.980	18.536	1063.844	826.266
30.994	18.466	1063.346	825.468
32.009	18.676	1062.135	825.465
33.023	18.534	1060.834	823.700
34.038	18.347	1060.125	822.177
35.053	18.374	1058.986	821.349
36.067	18.322	1058.091	820.331
37.082	18.293	1057.766	819.871
38.096	18.466	1057.016	820.045
39.111	18.447	1056.241	819.281
40.126	18.291	1054.736	817.296
41.140	18.064	1053.196	814.949
42.155	17.885	1052.062	813.143
43.169	18.030	1050.416	812.489
44.184	17.817	1050.187	811.227
45.199	17.847	1049.125	810.478
46.213	18.055	1047.914	810.457
47.228	18.155	1047.271	810.362
48.242	18.273	1046.259	810.068
49.257	18.195	1045.268	808.858
50.271	18.380	1044.424	809.007
51.286	18.425	1043.614	808.521
52.301	18.272	1042.497	806.863
53.315	18.248	1041.434	805.855
54.330	18.152	1040.402	804.537
55.344	18.054	1039.510	803.312
56.359	18.075	1039.005	802.953
57.374	18.062	1037.778	801.870
58.388	17.965	1036.756	800.555
59.403	17.875	1035.906	799.407
60.417	17.797	1035.514	798.669
61.432	17.846	1034.511	798.055
62.447	17.846	1033.425	797.145
63.461	17.731	1033.095	796.284
64.476	17.733	1031.827	795.243
65.490	17.832	1030.713	794.776
66.505	17.889	1030.179	794.561
67.520	17.835	1029.865	793.996
68.534	17.949	1028.850	793.671
69.549	17.766	1028.393	792.399
70.563	17.776	1027.129	791.402
71.578	17.738	1026.329	790.542
72.593	17.585	1025.671	789.254
73.607	17.596	1025.086	788.786
74.622	17.539	1024.797	788.230
75.636	17.755	1023.721	788.331
76.651	17.754	1022.917	787.636
77.666	17.714	1022.495	787.056
78.680	17.763	1021.716	786.615
79.695	17.658	1021.271	785.720
80.709	17.889	1020.518	786.132
81.724	17.930	1020.112	785.940
82.739	18.016	1019.155	785.529
83.753	18.232	1018.850	786.214
84.768	18.572	1017.805	786.902
85.782	18.669	1017.031	786.676
86.797	18.665	1016.087	785.857
87.812	18.442	1014.916	783.866
88.826	18.331	1014.193	782.729
89.841	18.505	1013.314	782.775
90.855	18.532	1012.336	782.073
91.870	18.426	1012.024	781.280
92.884	18.522	1010.761	780.672
93.899	18.538	1009.902	780.016
94.914	18.630	1009.348	779.935
95.928	18.582	1008.567	779.044
96.943	18.451	1007.616	777.649
97.957	18.484	1006.351	776.751
98.972	18.600	1005.487	776.542
99.987	18.562	1004.981	775.910
101.001	18.450	1004.076	774.638
102.016	18.500	1003.356	774.236
103.030	18.458	1002.472	773.299
104.045	18.584	1001.436	772.998
105.060	18.420	1000.943	771.813
106.074	18.132	999.317	769.193
107.089	17.894	998.793	767.649
108.103	17.846	997.474	766.353
109.118	17.883	996.621	765.796
110.133	17.816	995.917	764.890
111.147	17.743	995.089	763.858
112.162	17.857	994.379	763.754
113.176	18.004	993.901	763.976
114.191	18.125	992.809	763.610
115.206	18.043	992.037	762.586
116.220	18.011	990.481	761.175
117.235	17.968	990.358	760.822
118.249	17.908	989.310	759.687
119.264	17.828	988.935	758.972
120.279	17.844	988.012	758.271
121.293	17.816	987.121	757.393
122.308	17.755	985.745	755.999
123.322	17.678	984.591	754.710
124.337	17.670	983.792	753.996
125.352	17.751	982.918	753.616
126.366	17.654	981.529	752.057
127.381	17.607	981.139	751.482
128.395	17.742	980.039	751.167
129.410	17.849	978.987	750.766
130.424	17.845	978.437	750.261
131.439	18.100	977.680	750.737
132.454	18.046	977.199	750.060
133.468	18.125	976.430	749.750
134.483	18.209	975.169	749.084
135.497	18.109	974.518	748.080
136.512	18.077	973.389	747.006
137.527	18.104	972.941	746.718
138.541	18.184	972.195	746.426
139.556	18.211	971.602	746.023
140.570	18.234	971.309	745.832
141.585	18.469	970.596	746.244
142.600	18.546	969.042	745.316
143.614	18.551	968.691	745.001
144.629	18.512	968.296	744.464
145.643	18.570	966.944	743.609
146.658	18.477	965.445	741.986
147.673	18.330	964.674	740.695
148.687	18.068	964.140	739.087
149.702	18.029	963.270	738.187
150.716	18.119	962.143	737.644
151.731	18.233	961.268	737.401
152.746	18.088	961.010	736.510
153.760	18.327	960.010	736.709
154.775	18.314	959.657	736.315
155.789	18.439	959.240	736.468
156.804	18.434	958.340	735.692
157.819	18.410	957.975	735.243
158.833	18.471	957.494	735.071
159.848	18.650	956.869	735.294
160.862	18.431	955.840	733.500
161.877	18.447	954.151	732.207
162.892	18.143	952.899	729.885
163.906	18.128	952.343	729.330
164.921	18.202	951.308	728.785
165.935	18.299	950.376	728.421
166.950	18.213	949.888	727.619
167.964	18.223	949.380	727.205
168.979	18.168	947.918	725.788
169.994	18.213	947.045	725.246
171.008	18.364	945.995	725.016
172.023	18.539	945.972	725.675
173.037	18.597	945.577	725.553
174.052	18.477	944.661	724.279
175.067	18.202	943.600	722.241
176.081	18.137	942.873	721.349
177.096	18.163	942.546	721.145
178.110	18.210	942.324	721.109
179.125	18.195	941.578	720.410
180.140	18.373	941.105	720.735
181.154	18.434	940.708	720.622
182.169	18.567	940.361	720.851
183.183	18.697	939.423	720.613
184.198	18.563	938.711	719.441
185.213	18.455	938.091	718.450
186.227	18.550	937.464	718.306
187.242	18.722	936.625	718.318
188.256	18.927	935.876	718.536
189.271	18.901	934.971	717.672
190.286	18.602	934.034	715.641
191.300	18.186	933.446	713.392
192.315	18.117	932.746	712.506
193.329	18.146	932.171	712.127
194.344	18.303	931.530	712.226
195.359	18.245	931.529	711.921
196.373	18.396	930.999	712.081
197.388	18.560	930.405	712.243
198.402	18.835	930.285	713.230
199.417	18.962	929.170	712.841
200.432	18.927	928.939	712.455
201.446	18.964	928.751	712.399
202.461	19.104	928.298	712.569
203.475	19.118	927.045	711.601
204.490	18.884	926.262	709.971
205.504	18.770	925.432	708.801
206.519	18.732	924.725	708.041
207.534	18.852	923.420	707.472
208.548	18.723	923.607	707.022
209.563	18.738	922.704	706.329
210.577	18.788	921.762	705.751
211.592	18.881	921.667	705.999
212.607	19.039	920.372	705.593
213.621	18.917	919.819	704.606
214.636	18.972	919.390	704.441
215.650	19.158	918.633	704.562
216.665	19.107	918.213	703.968
217.680	19.180	917.380	703.564
218.694	19.329	916.744	703.624
219.709	19.173	916.120	702.447
220.723	19.023	915.888	701.591
221.738	19.040	914.696	700.687
222.753	19.153	914.242	700.739
223.767	19.127	913.996	700.383
224.782	19.247	913.424	700.367
225.796	19.252	912.986	699.990
226.811	19.410	911.856	699.705
227.826	19.206	910.984	698.148
228.840	19.138	910.114	697.141
229.855	19.051	909.296	696.101
230.869	19.074	908.608	695.605
231.884	19.099	907.926	695.123
232.899	18.973	907.109	693.928
233.913	18.880	906.493	693.019
234.928	18.892	905.777	692.462
235.942	18.919	904.891	691.829
236.957	18.753	904.602	690.882
237.972	18.817	904.328	690.867
238.986	18.922	903.331	690.466
240.001	18.668	903.614	689.601
241.015	19.074	902.104	690.016
242.030	19.192	901.958	690.315
243.045	19.075	901.207	689.211
244.059	19.104	901.036	689.138
245.074	19.084	900.388	688.500
246.088	19.309	899.602	688.736
247.103	19.443	898.835	688.625
248.117	19.572	898.398	688.742
249.132	19.729	898.039	689.032
250.147	19.908	897.679	689.409
251.161	19.888	897.248	688.937
252.176	19.964	896.417	688.539
253.190	19.983	895.474	687.830
254.205	19.987	895.144	687.533
255.220	19.879	894.711	686.708
256.234	19.877	893.773	685.922
257.249	20.015	893.051	685.853
258.263	20.003	892.111	685.025
259.278	19.873	891.916	684.299
260.293	20.027	891.192	684.293
261.307	20.046	890.775	683.987
262.322	20.148	889.962	683.702
263.336	20.113	888.779	682.596
264.351	20.170	888.035	682.188
265.366	20.189	887.457	681.759
266.380	19.987	887.587	681.005
267.395	20.013	886.313	680.068
268.409	19.955	885.517	679.171
269.424	20.004	884.563	678.571
270.439	19.802	884.464	677.642
271.453	19.824	883.709	677.091
272.468	19.696	883.215	676.151
273.482	19.879	882.353	676.147
274.497	19.844	881.619	675.388
275.512	19.999	880.942	675.415
276.526	19.949	880.470	674.797
277.541	20.054	880.188	674.928
278.555	20.154	879.679	674.871
279.570	20.303	879.291	675.091
280.585	20.431	877.579	674.215
281.599	20.183	877.097	672.823
282.614	19.950	876.361	671.296
283.628	20.022	876.126	671.336
284.643	20.080	875.328	670.889
285.657	20.126	874.728	670.548
286.672	20.133	874.394	670.259
287.687	19.985	874.004	669.328
288.701	20.076	872.953	668.815
289.716	20.193	872.075	668.534
290.730	20.030	872.367	668.071
291.745	20.125	871.748	667.902
292.760	20.168	871.148	667.552
293.774	20.486	870.128	667.934
294.789	20.376	869.515	666.981
295.803	20.107	868.970	665.470
296.818	20.089	868.178	664.737
297.833	20.214	867.223	664.425
298.847	20.216	866.597	663.896
299.862	20.287	866.281	663.866
300.876	20.287	865.694	663.356
301.891	20.486	865.244	663.713
302.906	20.604	864.619	663.624
303.920	20.615	864.414	663.452
304.935	20.596	864.263	663.205
305.949	20.669	863.033	662.478
306.964	20.608	862.046	661.432
307.979	20.385	862.483	660.861
308.993	20.575	861.514	660.781
310.008	20.657	860.520	660.273
311.022	20.535	860.375	659.637
312.037	20.301	859.663	658.146
313.052	20.233	858.634	657.042
314.066	20.250	858.106	656.646
315.081	20.247	857.333	655.985
316.095	20.228	857.273	655.810
317.110	20.227	856.530	655.177
318.125	20.111	856.167	654.405
319.139	20.306	855.455	654.538
320.154	20.332	855.044	654.264
321.168	20.308	855.048	654.119
322.183	20.355	854.106	653.518
323.197	20.341	853.340	652.820
324.212	20.418	853.008	652.799
325.227	20.290	852.158	651.610
326.241	20.277	851.556	651.044
327.256	20.325	851.154	650.856
328.270	20.330	850.501	650.319
329.285	20.460	849.583	650.047
330.300	20.396	849.174	649.438
331.314	20.335	849.044	649.051
332.329	20.478	848.805	649.348
333.343	20.608	848.383	649.452
334.358	20.721	847.510	649.148
335.373	20.579	847.375	648.457
336.387	20.776	846.990	648.839
337.402	20.794	846.639	648.578
338.416	20.753	846.429	648.207
339.431	20.959	845.975	648.569
340.446	20.948	845.804	648.341
341.460	21.000	845.530	648.268
342.475	21.020	845.108	647.960
343.489	21.083	844.760	647.871
344.504	21.406	844.177	648.564
345.519	21.213	843.961	647.624
346.533	21.190	843.250	646.936
347.548	20.949	842.557	645.456
348.562	20.961	841.441	644.587
349.577	20.889	840.509	643.551
350.592	20.744	840.292	642.791
351.606	20.853	839.185	642.289
352.621	20.764	838.792	641.604
353.635	20.712	838.270	640.956
354.650	20.889	837.583	641.026
355.665	20.905	837.145	640.695
356.679	21.060	836.657	640.832
357.694	21.084	835.690	640.125
358.708	21.033	835.246	639.541
359.723	20.841	834.816	638.449
360.738	21.068	834.319	638.844
361.752	20.967	833.443	637.750
362.767	21.121	833.268	638.122
363.781	21.380	832.642	638.532
364.796	21.398	832.518	638.446
365.810	21.495	832.077	638.405
366.825	21.440	831.600	637.783
367.840	21.438	831.362	637.536
368.854	21.404	830.672	636.826
369.869	21.369	830.055	636.171
370.883	21.351	829.704	635.778
371.898	21.440	829.485	635.879
372.913	21.552	829.005	635.862
373.927	21.471	828.229	634.917
374.942	21.394	828.055	634.448
375.956	21.463	827.745	634.404
376.971	21.572	827.286	634.389
377.986	21.694	826.775	634.383
379.000	21.735	826.320	634.126
380.015	21.802	825.584	633.748
381.029	21.617	824.902	632.500
382.044	21.708	824.308	632.317
383.059	21.722	823.894	631.992
384.073	21.699	822.940	631.122
385.088	21.414	822.577	629.763
386.102	21.465	821.724	629.239
387.117	21.440	820.943	628.493
388.132	21.520	820.347	628.269
389.146	21.424	820.338	627.864
390.161	21.673	820.181	628.582
391.175	21.710	819.473	628.114
392.190	21.461	819.114	626.892
393.205	21.531	818.410	626.548
394.219	21.517	817.908	626.058
395.234	21.423	817.533	625.380
396.248	21.410	816.617	624.577
397.263	21.374	816.143	624.033
398.278	21.295	816.077	623.642
399.292	21.327	815.628	623.360
400.307	21.408	815.061	623.158
401.321	21.371	814.712	622.707
402.336	21.421	814.346	622.550
403.350	21.478	813.868	622.332
404.365	21.584	813.322	622.237
405.380	21.904	812.970	623.046
406.394	21.871	812.853	622.785
407.409	22.014	812.266	622.787
408.423	21.958	812.112	622.417
409.438	21.923	811.929	622.098
410.453	22.193	811.103	622.364
411.467	22.094	810.703	621.654
412.482	22.221	810.023	621.525
413.496	22.461	810.008	622.308
414.511	22.205	809.748	621.147
415.526	22.094	809.221	620.296
416.540	22.302	808.450	620.385
417.555	22.206	808.008	619.653
418.569	22.086	807.746	618.973
419.584	22.285	807.340	619.309
420.599	22.456	806.496	619.209
421.613	159.239	1369.659	1788.258
422.628	138.422	1451.726	1788.361
