DTS Sentinel unit serial number:	SN413079Multiplexer serial number:	ORYXHardware model number:	OX4-SRSoftware version number:	ORYX F/W v4.00 Oryx Data Collector v3.7.2.0data status	okinstallation	princeton_trtdifferential loss correction	single-endedforward channel	channel 1reverse channel	N/Adate	2019/09/16time	01:22:35forward acquisition time	60.00reverse acquisition time	0.00gamma	496.2192k internal	0.2334k external	0.2334temperature offset calibration	0.9974default loss term (dB/km)	0.3790temperature slope calibration	1.0000multiplexer offset coefficient	1.0000multiplexer slope coefficient	1.0000fibre end	0.00T internal ref (°C)	27.30T ext. ref 1 (°C)	9.87T ext. ref 2 (°C)	21.87length (m)	temperature (°C)	Stokes	anti-Stokes-747.200	166.764	-0.198	0.283
-746.185	124.619	0.172	0.218
-745.171	76.666	0.228	0.243
-744.156	199.602	0.063	0.097
-743.142	389.911	0.166	0.345
-742.127	800.000	0.026	0.108
-741.112	741.603	-0.121	-0.326
-740.098	-35.952	-0.018	-0.010
-739.083	-200.000	-0.013	-0.323
-738.069	-25.238	-0.170	-0.101
-737.054	-122.423	0.220	0.036
-736.039	377.393	-0.112	-0.229
-735.025	-53.450	0.268	0.123
-734.010	800.000	-0.105	-0.416
-732.996	669.556	-0.093	-0.241
-731.981	87.611	-0.066	0.073
-730.966	-109.382	-0.284	0.060
-729.952	198.018	-0.078	-0.119
-728.937	-42.613	0.096	-0.049
-727.923	-160.990	-0.612	-0.032
-726.908	-3.425	0.319	0.223
-725.894	-104.459	-0.132	0.031
-724.879	371.721	-0.297	0.605
-723.864	545.908	0.047	0.114
-722.850	800.000	0.053	-0.169
-721.835	64.028	-0.143	0.145
-720.821	-0.134	-0.036	0.026
-719.806	-200.000	-0.018	-0.260
-718.791	-177.431	-0.049	-0.001
-717.777	-101.731	-0.324	-0.079
-716.762	-125.991	-0.036	-0.006
-715.748	18.304	-0.028	-0.022
-714.733	-39.719	0.413	-0.217
-713.718	-12.789	-0.194	-0.127
-712.704	-40.322	0.032	0.017
-711.689	-200.000	-0.004	0.117
-710.675	207.058	-0.141	0.221
-709.660	76.405	-0.149	0.158
-708.645	800.000	-0.065	-0.192
-707.631	800.000	-0.049	0.163
-706.616	-200.000	-0.005	0.273
-705.602	9.329	-0.171	0.130
-704.587	-177.872	-0.519	-0.012
-703.572	29.390	0.131	0.112
-702.558	-60.588	0.193	0.082
-701.543	-14.545	-0.275	-0.177
-700.529	27.752	-0.035	-0.030
-699.514	-182.901	0.130	0.002
-698.499	316.191	-0.091	-0.173
-697.485	-73.489	0.072	-0.026
-696.470	-153.690	0.082	0.006
-695.456	-118.043	-0.381	0.068
-694.441	-200.000	0.017	-0.210
-693.426	66.509	-0.276	0.281
-692.412	34.492	-0.191	-0.167
-691.397	53.378	-0.142	-0.137
-690.383	399.285	-0.031	0.064
-689.368	-12.650	0.189	0.124
-688.354	29.606	-0.080	-0.069
-687.339	8.845	-0.122	-0.093
-686.324	15.255	0.263	-0.207
-685.310	-22.075	-0.169	0.103
-684.295	142.563	0.188	-0.250
-683.281	105.998	-0.065	-0.077
-682.266	267.347	-0.177	-0.310
-681.251	-79.770	-0.195	-0.066
-680.237	-92.786	-0.076	0.021
-679.222	800.000	0.056	0.156
-678.208	-51.599	0.251	-0.117
-677.193	-147.486	-0.228	-0.019
-676.178	-200.000	0.223	0.001
-675.164	172.593	0.160	0.231
-674.149	380.370	0.059	0.122
-673.135	-122.288	-0.107	-0.018
-672.120	-200.000	0.039	-0.000
-671.105	26.740	0.285	-0.239
-670.091	-66.536	-0.150	-0.060
-669.076	38.904	-0.249	-0.223
-668.062	-188.352	-0.177	-0.002
-667.047	195.112	0.066	-0.100
-666.032	344.388	0.176	-0.346
-665.018	21.285	-0.116	0.094
-664.003	421.758	0.156	0.336
-662.989	-71.072	0.107	0.040
-661.974	-200.000	-0.037	0.211
-660.959	-200.000	0.105	-0.516
-659.945	748.694	-0.071	0.193
-658.930	800.000	0.061	-0.234
-657.916	425.533	-0.134	0.289
-656.901	-124.592	-0.269	0.042
-655.886	-146.273	-0.220	-0.019
-654.872	-200.000	0.013	-0.099
-653.857	-9.278	-0.215	-0.144
-652.843	-96.365	0.399	-0.106
-651.828	-28.370	0.065	0.038
-650.814	32.127	0.108	0.093
-649.799	800.000	-0.028	0.115
-648.784	345.991	0.114	-0.225
-647.770	24.474	-0.087	0.072
-646.755	-102.038	0.352	0.085
-645.741	213.034	-0.059	0.093
-644.726	-143.637	0.276	0.026
-643.711	131.078	-0.072	-0.093
-642.697	-200.000	-0.023	0.240
-641.682	-200.000	0.001	-0.256
-640.668	224.264	0.168	-0.271
-639.653	-24.329	0.269	-0.161
-638.638	143.592	0.165	-0.220
-637.624	-160.239	-0.241	0.013
-636.609	-98.243	-0.255	0.066
-635.595	135.171	-0.162	0.210
-634.580	282.013	-0.095	0.170
-633.565	-80.136	0.290	0.097
-632.551	-124.159	-0.246	-0.039
-631.536	495.274	0.065	-0.149
-630.522	-122.834	-0.344	-0.056
-629.507	-46.308	-0.441	-0.217
-628.492	-200.000	0.012	-0.135
-627.478	188.287	0.089	0.133
-626.463	-119.319	-0.253	0.044
-625.449	152.653	-0.090	0.123
-624.434	-99.301	-0.316	-0.080
-623.419	-200.000	-0.052	-0.230
-622.405	-23.673	-0.157	0.094
-621.390	169.338	-0.071	-0.101
-620.376	800.000	-0.096	0.270
-619.361	-149.199	-0.095	0.008
-618.346	478.583	-0.087	0.197
-617.332	800.000	-0.120	-0.411
-616.317	151.195	-0.137	-0.187
-615.303	299.887	-0.122	-0.225
-614.288	-200.000	0.014	-0.345
-613.273	-146.414	-0.122	0.011
-612.259	800.000	-0.033	0.117
-611.244	800.000	0.088	-0.292
-610.230	-116.065	0.379	0.071
-609.215	553.663	0.004	-0.009
-608.201	-48.911	0.321	0.154
-607.186	-2.896	-0.056	-0.039
-606.171	241.365	-0.192	0.320
-605.157	178.352	0.185	0.270
-604.142	326.954	-0.092	-0.176
-603.128	-56.946	-0.092	0.041
-602.113	94.727	0.108	0.122
-601.098	-200.000	0.017	-0.081
-600.084	59.389	-0.305	0.300
-599.069	702.381	0.122	0.322
-598.055	136.525	-0.066	-0.086
-597.040	155.183	0.089	-0.123
-596.025	-200.000	-0.068	-0.359
-595.011	-113.182	-0.206	0.041
-593.996	-97.606	0.304	0.079
-592.982	-93.013	-0.115	0.032
-591.967	800.000	0.062	-0.264
-590.952	8.740	0.224	-0.168
-589.938	-136.678	0.163	0.019
-588.923	-86.833	-0.248	-0.076
-587.909	-200.000	-0.005	0.267
-586.894	52.844	-0.167	-0.160
-585.879	-200.000	0.021	-0.449
-584.865	-47.101	-0.051	0.025
-583.850	-200.000	-0.001	-0.465
-582.836	239.652	-0.133	-0.222
-581.821	-123.414	0.156	0.025
-580.806	-200.000	0.003	-0.053
-579.792	209.042	0.070	0.110
-578.777	-9.163	0.149	-0.100
-577.763	129.649	-0.030	-0.038
-576.748	175.575	-0.134	-0.195
-575.733	-14.347	0.178	-0.114
-574.719	-200.000	-0.002	0.016
-573.704	-8.587	-0.237	0.159
-572.690	-102.853	-0.071	-0.017
-571.675	193.929	-0.246	-0.371
-570.661	-47.809	0.241	-0.117
-569.646	800.000	0.064	0.190
-568.631	-128.310	-0.070	0.010
-567.617	800.000	-0.105	-0.343
-566.602	-200.000	-0.047	0.265
-565.588	-200.000	0.011	-0.263
-564.573	-34.870	0.167	-0.091
-563.558	-184.014	-0.078	0.001
-562.544	-200.000	-0.003	-0.020
-561.529	-138.439	0.242	0.027
-560.515	46.518	-0.145	-0.134
-559.500	34.398	0.213	-0.186
-558.485	800.000	-0.013	0.043
-557.471	-15.892	-0.262	0.166
-556.456	40.050	-0.101	0.091
-555.442	-200.000	-0.014	0.140
-554.427	-70.625	-0.276	0.104
-553.412	-134.077	-0.091	-0.011
-552.398	-163.864	0.446	-0.021
-551.383	-5.511	0.355	-0.243
-550.369	-200.000	0.014	0.261
-549.354	-200.000	0.050	-0.361
-548.339	113.222	-0.297	-0.359
-547.325	716.393	0.048	-0.128
-546.310	78.347	0.171	-0.182
-545.296	-200.000	-0.015	0.097
-544.281	-92.371	0.104	-0.029
-543.266	329.957	-0.088	-0.169
-542.252	190.316	-0.028	0.042
-541.237	-76.065	-0.123	0.043
-540.223	397.070	-0.099	0.207
-539.208	-145.945	-0.094	0.008
-538.193	305.721	-0.115	-0.213
-537.179	-200.000	-0.047	0.333
-536.164	32.737	0.275	0.237
-535.150	800.000	0.086	0.355
-534.135	391.609	-0.050	-0.104
-533.121	138.417	0.190	-0.249
-532.106	-200.000	0.001	-0.126
-531.091	219.493	-0.069	0.110
-530.077	-200.000	0.010	0.454
-529.062	288.284	0.244	-0.440
-528.048	-149.301	0.084	-0.007
-527.033	142.369	-0.203	0.269
-526.018	800.000	0.051	0.175
-525.004	-74.609	0.349	0.125
-523.989	-89.501	0.402	-0.118
-522.975	-91.266	-0.047	0.013
-521.960	-200.000	-0.084	0.390
-520.945	-83.698	-0.254	-0.081
-519.931	-47.279	0.173	0.084
-518.916	-200.000	0.003	-0.280
-517.902	708.510	-0.123	0.324
-516.887	-200.000	0.040	0.308
-515.872	-200.000	-0.192	-0.000
-514.858	-200.000	0.032	0.161
-513.843	179.291	-0.185	0.269
-512.829	49.216	0.133	0.124
-511.814	20.524	-0.279	-0.225
-510.799	800.000	-0.031	-0.117
-509.785	-125.768	0.147	-0.022
-508.770	11.832	-0.016	0.012
-507.756	567.025	0.038	0.091
-506.741	-13.368	0.285	0.184
-505.726	-65.083	-0.156	0.063
-504.712	745.951	0.068	-0.181
-503.697	75.100	-0.197	0.207
-502.683	-200.000	0.013	-0.158
-501.668	-200.000	0.038	0.176
-500.653	445.026	-0.092	0.202
-499.639	-112.026	-0.001	0.000
-498.624	-200.000	0.073	0.320
-497.610	-200.000	0.006	-0.223
-496.595	-1.595	-0.360	0.252
-495.581	-150.079	-0.403	-0.031
-494.566	125.066	-0.262	-0.328
-493.551	-172.953	-0.044	-0.001
-492.537	800.000	-0.089	-0.248
-491.522	101.905	-0.117	-0.135
-490.508	800.000	-0.021	0.061
-489.493	-2.319	0.273	0.191
-488.478	-25.264	0.049	-0.029
-487.464	800.000	0.117	0.362
-486.449	-200.000	-0.044	-0.251
-485.435	263.729	-0.088	-0.152
-484.420	373.465	-0.084	0.171
-483.405	-106.527	0.046	-0.010
-482.391	-200.000	-0.002	-0.122
-481.376	800.000	0.119	-0.459
-480.362	-200.000	-0.024	-0.170
-479.347	77.610	0.271	0.286
-478.332	800.000	-0.167	-0.498
-477.318	-32.804	0.285	-0.157
-476.303	-47.683	0.065	0.031
-475.289	-125.547	-0.170	0.026
-474.274	-116.685	-0.157	0.029
-473.259	401.664	0.146	-0.306
-472.245	264.043	0.163	-0.283
-471.230	-200.000	0.047	-0.248
-470.216	-73.883	-0.201	0.073
-469.201	-27.509	-0.106	0.061
-468.186	-23.463	-0.179	0.107
-467.172	-82.137	0.104	-0.034
-466.157	-200.000	0.003	0.078
-465.143	-200.000	0.009	-0.045
-464.128	24.151	0.234	0.192
-463.113	123.379	-0.224	-0.279
-462.099	119.068	0.219	-0.270
-461.084	-57.554	0.260	0.113
-460.070	-101.961	0.180	0.043
-459.055	220.130	0.134	-0.213
-458.040	-200.000	-0.007	0.122
-457.026	-108.855	-0.062	0.013
-456.011	-200.000	0.004	-0.292
-454.997	800.000	-0.081	-0.260
-453.982	800.000	-0.080	-0.266
-452.968	-53.641	-0.322	-0.146
-451.953	-200.000	0.038	0.349
-450.938	-200.000	-0.010	0.364
-449.924	242.356	0.311	-0.517
-448.909	34.347	-0.129	-0.112
-447.895	-31.211	0.203	-0.114
-446.880	-200.000	0.082	0.500
-445.865	-200.000	-0.036	0.281
-444.851	596.178	-0.025	-0.062
-443.836	0.723	0.584	0.415
-442.822	71.179	-0.180	0.186
-441.807	69.265	-0.295	-0.302
-440.792	-173.649	0.330	0.010
-439.778	270.741	0.111	-0.194
-438.763	-78.183	0.186	0.064
-437.749	-136.580	-0.188	-0.022
-436.734	3.264	-0.128	-0.093
-435.719	-176.532	0.086	0.002
-434.705	-51.581	0.451	0.209
-433.690	689.626	0.063	0.164
-432.676	-200.000	0.005	-0.189
-431.661	-8.579	-0.280	-0.187
-430.646	-51.081	-0.267	0.124
-429.632	309.966	0.123	0.228
-428.617	144.482	0.131	-0.174
-427.603	800.000	0.122	0.525
-426.588	-20.780	-0.465	0.283
-425.573	-33.722	-0.251	0.137
-424.559	44.514	-0.252	0.230
-423.544	325.334	0.104	-0.197
-422.530	-200.000	-0.021	-0.169
-421.515	-200.000	0.011	0.256
-420.500	61.558	0.193	0.190
-419.486	-200.000	0.012	-0.119
-418.471	75.810	-0.284	0.298
-417.457	-125.133	0.146	-0.022
-416.442	50.602	-0.259	0.243
-415.428	-200.000	0.028	-0.174
-414.413	109.303	-0.184	0.218
-413.398	102.788	-0.174	0.202
-412.384	308.674	-0.148	-0.274
-411.369	28.732	-0.143	0.120
-410.355	280.728	0.232	-0.412
-409.340	217.606	-0.131	0.207
-408.325	93.162	-0.173	0.194
-407.311	-200.000	-0.031	-0.138
-406.296	-200.000	0.010	0.142
-405.282	32.526	0.232	0.199
-404.267	-200.000	-0.017	-0.112
-403.252	591.290	-0.043	-0.105
-402.238	-200.000	0.035	0.330
-401.223	44.368	0.073	0.067
-400.209	-200.000	-0.008	-0.267
-399.194	56.712	0.056	0.054
-398.179	-200.000	-0.033	-0.443
-397.165	710.256	0.100	-0.262
-396.150	85.036	0.131	0.142
-395.136	36.114	0.140	-0.122
-394.121	210.267	0.132	-0.206
-393.106	-73.529	-0.136	-0.049
-392.092	-200.000	0.055	0.347
-391.077	800.000	-0.023	0.069
-390.063	-200.000	-0.003	-0.063
-389.048	-25.815	0.161	0.094
-388.033	100.583	0.173	-0.199
-387.019	36.173	0.196	-0.171
-386.004	203.929	-0.082	-0.126
-384.990	20.252	0.093	0.074
-383.975	170.211	-0.188	-0.266
-382.960	-200.000	0.013	0.064
-381.946	100.181	0.064	-0.074
-380.931	-94.271	-0.083	-0.022
-379.917	-63.512	0.096	0.039
-378.902	-2.971	0.236	0.163
-377.888	-1.524	0.133	-0.093
-376.873	-27.997	-0.177	-0.102
-375.858	-117.424	0.022	-0.004
-374.844	677.967	-0.038	-0.097
-373.829	417.042	-0.170	0.360
-372.815	-83.227	-0.225	-0.072
-371.800	-200.000	0.025	0.207
-370.785	-146.092	-0.128	-0.011
-369.771	-35.441	0.147	0.079
-368.756	31.122	-0.061	0.052
-367.742	77.227	0.120	0.126
-366.727	79.507	-0.028	0.029
-365.712	-200.000	-0.022	0.094
-364.698	123.708	-0.055	0.068
-363.683	67.896	0.147	0.149
-362.669	154.664	0.246	0.334
-361.654	-6.806	0.172	0.116
-360.639	577.260	-0.113	0.274
-359.625	225.473	0.020	0.032
-358.610	112.032	-0.068	-0.082
-357.596	461.354	-0.084	0.185
-356.581	800.000	-0.174	0.613
-355.566	-3.751	0.209	0.144
-354.552	-133.053	-0.150	-0.019
-353.537	88.435	0.070	-0.077
-352.523	-200.000	0.001	0.224
-351.508	-15.370	0.197	-0.125
-350.493	159.551	-0.176	0.242
-349.479	800.000	-0.028	-0.110
-348.464	-98.247	0.084	-0.021
-347.450	284.706	0.047	-0.083
-346.435	2.900	0.225	-0.162
-345.420	17.439	-0.220	0.173
-344.406	-200.000	0.056	-0.000
-343.391	-200.000	0.057	-0.477
-342.377	-21.325	-0.142	0.086
-341.362	-166.175	-0.227	-0.010
-340.348	-12.307	0.423	-0.273
-339.333	-200.000	0.024	-0.163
-338.318	-119.630	0.128	0.022
-337.304	630.648	0.123	0.307
-336.289	-104.978	0.328	-0.074
-335.275	-200.000	-0.064	-0.293
-334.260	33.590	-0.234	-0.201
-333.245	-106.098	0.233	-0.052
-332.231	-94.889	0.190	-0.051
-331.216	-69.360	0.419	-0.159
-330.202	4.218	-0.176	0.127
-329.187	-182.594	0.016	0.000
-328.172	132.606	0.106	0.135
-327.158	-109.550	-0.167	-0.035
-326.143	-77.329	0.303	0.104
-325.129	28.895	-0.035	-0.030
-324.114	-95.739	-0.198	-0.052
-323.099	-9.883	0.234	0.154
-322.085	-55.026	0.091	0.041
-321.070	-200.000	0.028	0.138
-320.056	-103.471	0.214	0.050
-319.041	-97.477	0.213	-0.055
-318.026	-80.522	-0.070	-0.023
-317.012	334.605	-0.168	-0.321
-315.997	800.000	0.035	-0.131
-314.983	123.272	-0.097	0.121
-313.968	-200.000	0.034	0.215
-312.953	41.190	0.296	-0.265
-311.939	45.866	-0.179	-0.164
-310.924	57.634	-0.016	0.015
-309.910	129.244	-0.214	0.271
-308.895	425.738	-0.085	-0.182
-307.880	263.917	0.098	-0.169
-306.866	800.000	-0.111	-0.396
-305.851	-144.876	-0.108	0.010
-304.837	-200.000	0.001	0.153
-303.822	-200.000	0.137	0.000
-302.807	-27.560	0.454	-0.261
-301.793	483.313	0.038	0.086
-300.778	-79.704	0.118	-0.039
-299.764	600.420	0.046	-0.112
-298.749	-98.532	-0.151	-0.038
-297.735	-109.201	-0.179	-0.038
-296.720	236.153	0.132	0.216
-295.705	-122.246	-0.203	0.033
-294.691	-48.290	-0.123	-0.059
-293.676	-45.293	0.047	0.023
-292.662	-200.000	-0.005	-0.037
-291.647	173.023	0.034	-0.048
-290.632	355.996	-0.140	0.276
-289.618	340.403	-0.064	0.124
-288.603	-200.000	-0.041	-0.210
-287.589	-55.642	-0.149	-0.066
-286.574	-29.722	-0.182	0.103
-285.559	-117.947	-0.306	0.054
-284.545	-43.770	0.093	0.046
-283.530	-43.961	0.241	0.120
-282.516	-30.453	-0.053	0.029
-281.501	-200.000	-0.015	0.143
-280.486	107.453	-0.215	-0.252
-279.472	-200.000	0.008	-0.049
-278.457	105.530	-0.099	-0.115
-277.443	-200.000	-0.028	0.243
-276.428	130.178	0.089	-0.113
-275.413	-67.193	0.375	-0.146
-274.399	-200.000	0.025	0.115
-273.384	115.410	0.045	-0.054
-272.370	461.909	0.068	0.150
-271.355	-56.855	-0.244	0.106
-270.340	-200.000	-0.001	-0.164
-269.326	-57.231	0.243	0.105
-268.311	-51.725	-0.016	-0.007
-267.297	-200.000	0.056	-0.299
-266.282	72.638	-0.120	-0.123
-265.267	-46.572	-0.317	-0.153
-264.253	-200.000	0.017	0.173
-263.238	-167.696	-0.151	0.006
-262.224	48.958	-0.153	-0.142
-261.209	-84.740	0.153	-0.047
-260.195	-77.871	-0.421	0.143
-259.180	-37.549	0.189	-0.099
-258.165	240.258	-0.080	0.131
-257.151	-200.000	0.046	-0.219
-256.136	282.266	0.133	0.235
-255.122	76.073	-0.096	-0.100
-254.107	712.834	0.057	0.149
-253.092	468.017	-0.079	0.174
-252.078	123.688	0.096	0.118
-251.063	-200.000	-0.010	0.250
-250.049	-200.000	0.011	0.361
-249.034	76.456	0.096	0.101
-248.019	-98.360	-0.039	-0.010
-247.005	77.998	-0.240	0.252
-245.990	800.000	-0.061	0.179
-244.976	-142.973	-0.363	-0.035
-243.961	-200.000	0.024	-0.262
-242.946	5.997	0.293	-0.214
-241.932	81.993	0.163	0.175
-240.917	-5.295	-0.252	-0.170
-239.903	-115.720	0.164	0.030
-238.888	-135.103	-0.241	0.029
-237.873	800.000	0.018	0.051
-236.859	800.000	-0.089	0.371
-235.844	-61.793	0.284	-0.117
-234.830	-33.245	0.211	-0.115
-233.815	-73.001	0.175	0.063
-232.800	52.104	0.219	-0.206
-231.786	727.904	-0.113	-0.297
-230.771	-98.693	0.218	0.055
-229.757	-111.969	-0.193	0.038
-228.742	800.000	0.042	-0.137
-227.727	652.384	-0.021	0.053
-226.713	63.951	-0.143	0.142
-225.698	-200.000	0.037	-0.281
-224.684	76.118	0.054	-0.057
-223.669	-0.082	0.166	-0.116
-222.655	-1.356	0.152	-0.105
-221.640	-130.527	0.084	-0.011
-220.625	-200.000	0.022	-0.181
-219.611	-93.014	-0.056	0.015
-218.596	94.312	0.137	-0.153
-217.582	800.000	-0.113	-0.323
-216.567	800.000	-0.071	0.282
-215.552	-200.000	0.091	0.505
-214.538	132.061	-0.120	-0.153
-213.523	41.213	-0.230	0.205
-212.509	-148.744	-0.291	0.023
-211.494	70.375	-0.142	-0.145
-210.479	-151.262	-0.161	0.012
-209.465	37.175	0.139	-0.121
-208.450	-95.052	0.097	0.026
-207.436	112.330	0.070	-0.083
-206.421	-5.785	-0.335	-0.226
-205.406	779.373	-0.101	-0.272
-204.392	-200.000	-0.002	0.207
-203.377	210.906	0.122	0.188
-202.363	800.000	0.033	-0.108
-201.348	-69.010	0.181	0.068
-200.333	168.462	0.055	-0.077
-199.319	10.656	0.165	-0.124
-198.304	-200.000	0.000	0.140
-197.290	-23.030	-0.182	0.108
-196.275	-142.813	-0.339	0.032
-195.260	-83.103	0.250	0.079
-194.246	-65.047	0.171	0.068
-193.231	-200.000	0.001	0.377
-192.217	623.218	-0.038	0.094
-191.202	1.322	-0.091	0.064
-190.187	423.463	0.004	0.009
-189.173	31.270	0.279	0.235
-188.158	257.541	-0.118	0.200
-187.144	45.552	-0.176	0.160
-186.129	244.360	0.112	-0.185
-185.114	-200.000	0.029	-0.195
-184.100	-200.000	0.013	0.179
-183.085	-26.787	-0.202	0.116
-182.071	91.939	-0.185	0.204
-181.056	-19.291	0.189	0.115
-180.042	-9.610	-0.222	-0.145
-179.027	16.864	-0.164	-0.127
-178.012	-47.940	-0.075	-0.036
-176.998	409.210	-0.091	-0.190
-175.983	556.593	-0.057	0.134
-174.969	10.173	0.227	0.170
-173.954	37.873	0.184	-0.160
-172.939	124.082	0.211	-0.261
-171.925	-200.000	0.022	0.117
-170.910	-78.601	-0.226	0.076
-169.896	89.031	-0.349	-0.382
-168.881	800.000	0.046	-0.194
-167.866	-127.850	0.135	0.019
-166.852	800.000	0.133	0.510
-165.837	-98.900	0.164	-0.041
-164.823	24.964	-0.186	-0.152
-163.808	9.437	0.176	-0.131
-162.793	24.683	0.099	0.081
-161.779	27.067	-0.201	0.165
-160.764	-109.503	-0.278	0.058
-159.750	63.749	0.191	0.188
-158.735	10.548	0.168	0.126
-157.720	-66.432	0.331	0.129
-156.706	800.000	0.090	0.354
-155.691	3.440	-0.204	0.146
-154.677	-200.000	-0.010	-0.047
-153.662	7.101	0.189	0.139
-152.647	-200.000	0.008	-0.375
-151.633	-200.000	-0.004	-0.065
-150.618	-60.634	-0.371	-0.154
-149.604	-150.951	0.127	-0.009
-148.589	-98.381	-0.462	0.116
-147.574	227.024	-0.017	0.027
-146.560	-200.000	-0.007	-0.051
-145.545	11.434	0.124	-0.094
-144.531	-144.426	0.111	-0.010
-143.516	-57.275	0.104	0.045
-142.502	474.514	0.163	0.360
-141.487	29.045	-0.216	-0.179
-140.472	91.771	-0.186	0.205
-139.458	-74.867	0.206	-0.072
-138.443	-72.350	-0.379	0.138
-137.429	-200.000	0.030	-0.259
-136.414	226.277	-0.158	0.252
-135.399	84.180	0.190	-0.203
-134.385	43.990	-0.206	-0.185
-133.370	-65.572	-0.112	0.044
-132.356	130.814	0.152	0.191
-131.341	-134.402	-0.181	0.022
-130.326	-30.870	0.249	-0.138
-129.312	-54.470	0.190	0.085
-128.297	800.000	-0.051	-0.145
-127.283	109.703	-0.164	-0.193
-126.268	158.576	0.093	-0.127
-125.253	-101.963	0.143	0.034
-124.239	299.871	0.018	-0.032
-123.224	-147.948	-0.393	-0.032
-122.210	26.559	0.346	0.284
-121.195	284.589	0.098	0.173
-120.180	-119.910	-0.228	-0.038
-119.166	-75.074	0.256	-0.090
-118.151	186.520	0.113	-0.165
-117.137	-138.191	0.115	-0.013
-116.122	800.000	0.020	0.068
-115.107	-118.685	0.113	0.020
-114.093	209.191	-0.234	-0.359
-113.078	-86.714	-0.505	-0.151
-112.064	-35.053	0.328	0.175
-111.049	800.000	0.063	0.246
-110.034	-140.525	-0.305	0.031
-109.020	-193.033	-0.224	-0.002
-108.005	-200.000	0.047	0.274
-106.991	-66.126	0.165	0.064
-105.976	-119.798	0.233	0.039
-104.962	331.595	-0.038	-0.072
-103.947	118.159	0.118	0.143
-102.932	-110.428	0.256	0.052
-101.918	-56.238	-0.336	0.146
-100.903	-23.511	0.250	0.147
-99.889	800.000	0.052	0.196
-98.874	263.477	0.086	0.146
-97.859	164.133	-0.170	-0.235
-96.845	730.777	0.018	0.047
-95.830	-147.080	-0.285	-0.024
-94.816	800.000	0.095	-0.273
-93.801	-39.208	0.297	-0.153
-92.786	-200.000	-0.047	-0.496
-91.772	-200.000	0.005	0.125
-90.757	-50.141	-0.055	-0.025
-89.743	-60.178	0.180	-0.075
-88.728	800.000	-0.015	-0.054
-87.713	380.222	0.147	0.294
-86.699	174.440	-0.200	0.283
-85.684	116.521	0.116	0.139
-84.670	-6.726	-0.111	-0.074
-83.655	-200.000	0.054	0.352
-82.640	-200.000	-0.016	0.522
-81.626	-40.411	0.188	0.096
-80.611	269.221	0.059	-0.101
-79.597	-200.000	0.033	0.149
-78.582	-88.065	-0.135	0.040
-77.567	28.959	0.250	-0.208
-76.553	-200.000	0.014	0.061
-75.538	-114.137	0.267	-0.051
-74.524	459.685	0.130	-0.283
-73.509	-61.531	0.219	-0.090
-72.494	-81.509	0.203	0.065
-71.480	-84.265	-0.071	-0.022
-70.465	-200.000	0.008	0.319
-69.451	-193.057	-0.152	0.001
-68.436	11.671	-0.223	0.167
-67.422	-140.695	0.252	0.026
-66.407	15.302	-0.154	0.118
-65.392	53.544	-0.103	-0.097
-64.378	727.692	-0.171	0.445
-63.363	44.424	-0.036	0.033
-62.349	283.768	-0.123	0.216
-61.334	91.587	-0.958	-1.054
-60.319	-17.456	0.838	0.516
-59.305	800.000	-0.354	-1.385
-58.290	233.984	0.847	1.365
-57.276	320.729	0.712	1.324
-56.261	-200.000	114.403	642.905
-55.246	475.057	1500.876	3314.429
-54.232	148.964	2663.099	3523.101
-53.217	102.806	2142.080	2452.869
-52.203	38.458	1590.925	1387.078
-51.188	30.514	1336.913	1118.003
-50.173	27.829	1298.415	1070.052
-49.159	54.633	1354.522	1277.357
-48.144	53.453	1368.553	1283.497
-47.130	30.888	1324.813	1109.938
-46.115	27.456	1306.987	1074.747
-45.100	27.229	1301.526	1068.882
-44.086	27.179	1299.179	1066.615
-43.071	27.174	1296.868	1064.648
-42.057	27.055	1295.348	1062.664
-41.042	27.112	1293.633	1061.546
-40.027	27.234	1291.614	1060.560
-39.013	27.214	1289.424	1058.603
-37.998	27.254	1288.284	1057.858
-36.984	27.245	1286.267	1056.107
-35.969	27.216	1284.813	1054.703
-34.954	27.258	1282.834	1053.281
-33.940	27.273	1282.225	1052.826
-32.925	27.346	1280.649	1051.907
-31.911	27.435	1278.853	1050.905
-30.896	27.283	1277.635	1048.988
-29.881	27.431	1276.327	1048.724
-28.867	27.373	1274.969	1047.234
-27.852	27.444	1272.587	1045.645
-26.838	27.424	1271.633	1044.704
-25.823	27.383	1270.580	1043.564
-24.809	27.238	1269.616	1041.897
-23.794	27.380	1267.737	1041.126
-22.779	27.385	1266.679	1040.245
-21.765	27.384	1265.342	1039.102
-20.750	27.319	1264.117	1037.681
-19.736	27.327	1262.748	1036.564
-18.721	27.338	1261.604	1035.646
-17.706	27.263	1260.915	1034.610
-16.692	27.247	1259.591	1033.393
-15.677	27.296	1258.436	1032.685
-14.663	27.290	1257.472	1031.815
-13.648	27.318	1255.622	1030.418
-12.633	27.187	1255.220	1029.307
-11.619	27.193	1254.749	1028.914
-10.604	27.191	1253.895	1028.157
-9.590	27.252	1252.214	1027.085
-8.575	27.272	1251.348	1026.447
-7.560	27.218	1250.491	1025.395
-6.546	27.293	1249.779	1025.194
-5.531	27.345	1248.365	1024.288
-4.517	27.238	1248.223	1023.527
-3.502	27.303	1247.254	1023.061
-2.487	27.214	1246.550	1021.938
-1.473	27.218	1241.809	1018.033
-0.458	25.788	1227.540	998.377
0.556	20.892	1211.473	962.423
1.571	17.524	1218.605	949.259
2.586	16.894	1232.905	956.758
3.600	17.100	1221.761	949.179
4.615	15.247	1155.830	888.069
5.629	11.732	1089.016	819.081
6.644	9.932	1072.471	797.684
7.659	9.976	1069.661	795.737
8.673	9.823	1068.681	794.185
9.688	9.750	1067.773	793.081
10.702	9.997	1065.452	792.502
11.717	12.180	1067.296	804.519
12.731	15.609	1071.946	824.811
13.746	17.567	1074.330	836.194
14.761	17.483	1073.785	835.282
15.775	16.562	1071.542	828.952
16.790	15.505	1069.435	822.075
17.804	14.712	1068.120	817.114
18.819	14.296	1066.895	814.070
19.834	14.125	1065.896	812.404
20.848	13.765	1065.319	810.132
21.863	13.556	1064.465	808.392
22.877	13.568	1063.058	807.311
23.892	13.394	1063.047	806.383
24.907	13.519	1061.988	806.118
25.921	13.470	1060.682	804.817
26.936	13.550	1059.463	804.207
27.950	13.552	1057.965	803.011
28.965	13.588	1056.877	802.285
29.980	13.732	1055.142	801.594
30.994	13.694	1053.893	800.392
32.009	13.776	1052.831	799.910
33.023	13.751	1052.206	799.243
34.038	13.703	1051.410	798.338
35.053	13.637	1050.334	797.134
36.067	13.666	1048.932	796.139
37.082	13.668	1048.226	795.539
38.096	13.607	1047.956	794.972
39.111	13.739	1046.875	794.716
40.126	13.585	1045.645	792.972
41.140	13.398	1044.856	791.412
42.155	13.511	1042.931	790.425
43.169	13.302	1042.072	788.706
44.184	13.461	1041.094	788.653
45.199	13.462	1039.836	787.632
46.213	13.490	1038.929	787.012
47.228	13.653	1038.101	787.087
48.242	13.606	1036.918	785.899
49.257	13.605	1035.955	785.096
50.271	13.539	1035.635	784.472
51.286	13.713	1034.100	784.060
52.301	13.553	1033.602	782.858
53.315	13.507	1032.486	781.724
54.330	13.472	1031.256	780.562
55.344	13.458	1030.236	779.653
56.359	13.553	1029.206	779.251
57.374	13.474	1028.327	778.146
58.388	13.498	1027.373	777.466
59.403	13.413	1026.806	776.572
60.417	13.488	1025.636	775.971
61.432	13.408	1024.975	775.027
62.447	13.269	1024.321	773.813
63.461	13.263	1023.323	772.961
64.476	13.268	1022.947	772.633
65.490	13.340	1021.634	771.906
66.505	13.359	1020.866	771.347
67.520	13.528	1020.546	771.827
68.534	13.386	1019.336	770.183
69.549	13.421	1018.847	769.908
70.563	13.454	1017.730	769.146
71.578	13.321	1017.137	768.014
72.593	13.307	1016.499	767.400
73.607	13.286	1015.557	766.522
74.622	13.289	1015.259	766.245
75.636	13.197	1014.861	765.452
76.651	13.283	1013.837	765.008
77.666	13.322	1013.331	764.737
78.680	13.248	1012.745	763.889
79.695	13.281	1011.888	763.324
80.709	13.450	1011.337	763.620
81.724	13.409	1010.643	762.842
82.739	13.515	1009.925	762.721
83.753	13.509	1009.474	762.283
84.768	13.617	1008.492	761.970
85.782	13.720	1007.425	761.572
86.797	13.670	1006.342	760.458
87.812	13.531	1005.681	759.253
88.826	13.655	1004.599	758.934
89.841	13.613	1003.658	757.966
90.855	13.795	1002.922	758.175
91.870	13.748	1001.935	757.148
92.884	13.722	1001.369	756.532
93.899	13.745	999.844	755.418
94.914	13.793	999.395	755.231
95.928	13.795	998.633	754.596
96.943	13.716	998.080	753.754
97.957	13.786	996.673	752.942
98.972	13.660	996.013	751.806
99.987	13.793	995.016	751.589
101.001	13.783	993.853	750.598
102.016	13.725	993.268	749.830
103.030	13.709	992.504	749.115
104.045	13.839	991.765	749.076
105.060	13.697	990.949	747.754
106.074	13.603	990.186	746.687
107.089	13.613	988.994	745.769
108.103	13.452	988.144	744.338
109.118	13.560	986.755	743.708
110.133	13.467	986.385	742.946
111.147	13.550	985.164	742.334
112.162	13.551	984.453	741.738
113.176	13.532	984.242	741.427
114.191	13.506	983.314	740.545
115.206	13.491	982.510	739.807
116.220	13.478	981.356	738.817
117.235	13.530	980.251	738.151
118.249	13.708	979.202	738.086
119.264	13.539	978.689	736.883
120.279	13.657	977.648	736.558
121.293	13.564	977.068	735.647
122.308	13.509	976.033	734.555
123.322	13.474	975.169	733.686
124.337	13.535	974.154	733.128
125.352	13.460	973.136	731.965
126.366	13.487	971.899	731.091
127.381	13.484	971.018	730.350
128.395	13.418	970.359	729.497
129.410	13.468	969.360	728.900
130.424	13.643	968.223	728.750
131.439	13.589	967.601	727.980
132.454	13.691	966.962	727.887
133.468	13.547	966.681	726.976
134.483	13.652	965.401	726.410
135.497	13.659	964.264	725.523
136.512	13.607	963.878	724.941
137.527	13.623	962.531	723.930
138.541	13.611	962.240	723.595
139.556	13.605	961.490	722.941
140.570	13.685	960.963	722.832
141.585	13.862	959.728	722.606
142.600	13.846	958.915	721.861
143.614	13.848	958.051	721.155
144.629	13.931	957.389	720.957
145.643	13.676	957.010	719.498
146.658	13.709	955.855	718.708
147.673	13.575	954.676	717.180
148.687	13.832	953.382	717.257
149.702	13.812	952.639	716.549
150.716	13.662	952.439	715.684
151.731	13.694	951.800	715.279
152.746	13.654	950.789	714.285
153.760	13.859	949.908	714.444
154.775	13.901	949.624	714.347
155.789	13.797	948.911	713.301
156.804	13.917	948.234	713.243
157.819	13.892	947.529	712.541
158.833	14.023	946.910	712.576
159.848	14.104	945.384	711.712
160.862	13.965	945.038	710.791
161.877	13.829	943.757	709.183
162.892	13.712	943.165	708.178
163.906	13.786	941.894	707.476
164.921	13.751	941.161	706.715
165.935	13.932	940.028	706.570
166.950	13.940	939.200	705.922
167.964	13.854	938.974	705.321
168.979	13.818	937.994	704.370
169.994	13.903	936.871	703.824
171.008	13.941	936.347	703.532
172.023	13.938	935.859	703.089
173.037	13.884	935.177	702.285
174.052	13.783	934.404	701.215
175.067	13.879	933.614	700.966
176.081	13.833	933.466	700.602
177.096	13.959	933.022	700.736
178.110	13.923	932.041	699.785
179.125	13.894	931.878	699.481
180.140	13.942	931.057	699.004
181.154	13.952	931.089	699.007
182.169	13.987	930.384	698.564
183.183	14.175	929.320	698.491
184.198	14.141	928.681	697.806
185.213	14.112	927.754	696.928
186.227	14.121	927.467	696.687
187.242	14.231	926.486	696.348
188.256	14.380	925.707	696.324
189.271	14.278	925.140	695.412
190.286	14.090	924.614	694.171
191.300	14.101	923.805	693.544
192.315	14.016	923.233	692.703
193.329	13.976	922.442	691.879
194.344	13.982	922.064	691.562
195.359	14.053	921.238	691.176
196.373	14.138	920.974	691.268
197.388	14.182	920.452	691.000
198.402	14.331	920.062	691.261
199.417	14.489	919.191	691.202
200.432	14.393	918.676	690.355
201.446	14.517	918.103	690.379
202.461	14.450	917.813	689.823
203.475	14.374	917.251	689.024
204.490	14.377	915.997	688.034
205.504	14.300	915.556	687.321
206.519	14.369	914.839	687.007
207.534	14.432	913.969	686.553
208.548	14.484	912.840	685.859
209.563	14.353	912.823	685.247
210.577	14.472	912.319	685.296
211.592	14.528	911.348	684.737
212.607	14.553	910.695	684.288
213.621	14.555	909.872	683.620
214.636	14.495	909.336	682.909
215.650	14.509	908.465	682.251
216.665	14.573	907.881	682.016
217.680	14.750	907.355	682.281
218.694	14.677	906.970	681.634
219.709	14.602	906.088	680.604
220.723	14.736	905.039	680.303
221.738	14.745	904.347	679.759
222.753	14.741	903.949	679.385
223.767	14.673	903.494	678.705
224.782	14.783	903.140	678.827
225.796	14.735	902.819	678.331
226.811	14.822	901.566	677.682
227.826	14.751	900.811	676.766
228.840	14.601	900.252	675.680
229.855	14.760	899.300	675.548
230.869	14.507	899.177	674.374
231.884	14.747	897.997	674.396
232.899	14.631	897.527	673.514
233.913	14.542	897.042	672.734
234.928	14.621	896.130	672.307
235.942	14.583	895.396	671.547
236.957	14.705	894.720	671.467
237.972	14.602	894.500	670.829
238.986	14.713	893.623	670.561
240.001	14.597	893.139	669.670
241.015	14.808	892.301	669.829
242.030	14.908	891.583	669.631
243.045	14.762	891.111	668.634
244.059	14.840	890.647	668.540
245.074	15.022	889.532	668.368
246.088	14.965	889.080	667.741
247.103	14.963	888.589	667.306
248.117	14.965	888.100	666.888
249.132	15.036	887.896	666.960
250.147	15.189	886.975	666.817
251.161	15.212	885.974	666.097
252.176	15.202	885.767	665.843
253.190	15.178	885.042	665.146
254.205	15.354	883.984	664.986
255.220	15.276	883.468	664.234
256.234	15.377	882.719	664.011
257.249	15.278	882.450	663.358
258.263	15.365	881.513	662.937
259.278	15.339	881.140	662.498
260.293	15.396	880.613	662.267
261.307	15.269	880.193	661.392
262.322	15.406	879.389	661.270
263.336	15.412	878.546	660.598
264.351	15.586	877.424	660.381
265.366	15.522	877.242	659.934
266.380	15.418	876.637	659.012
267.395	15.400	876.142	658.513
268.409	15.488	875.223	658.107
269.424	15.441	874.662	657.441
270.439	15.581	873.545	657.094
271.453	15.368	873.130	655.889
272.468	15.482	872.390	655.722
273.482	15.293	872.363	654.907
274.497	15.452	871.272	654.649
275.512	15.538	870.445	654.303
276.526	15.491	870.380	654.012
277.541	15.539	869.659	653.601
278.555	15.502	869.339	653.158
279.570	15.498	869.403	653.133
280.585	15.721	867.731	652.683
281.599	15.645	866.925	651.729
282.614	15.729	866.324	651.541
283.628	15.593	865.742	650.521
284.643	15.561	865.549	650.196
285.657	15.554	864.963	649.668
286.672	15.843	863.905	649.931
287.687	15.774	863.514	649.317
288.701	15.745	863.220	648.926
289.716	15.706	862.494	648.170
290.730	15.860	861.392	647.880
291.745	15.763	861.538	647.556
292.760	15.784	860.653	646.917
293.774	15.860	860.105	646.737
294.789	15.859	859.251	646.035
295.803	15.875	858.576	645.531
296.818	15.958	857.817	645.224
297.833	15.741	857.035	643.747
298.847	15.892	856.274	643.695
299.862	15.875	856.228	643.539
300.876	15.994	855.725	643.558
301.891	15.921	854.963	642.652
302.906	16.118	854.383	642.907
303.920	16.078	854.044	642.445
304.935	16.055	853.301	641.741
305.949	16.076	852.885	641.451
306.964	16.042	852.543	641.010
307.979	15.983	851.807	640.173
308.993	16.175	851.039	640.269
310.008	16.172	850.404	639.722
311.022	16.123	850.141	639.282
312.037	15.994	849.647	638.364
313.052	16.020	848.993	637.918
314.066	15.920	848.261	636.931
315.081	16.012	847.518	636.664
316.095	15.893	847.226	635.941
317.110	16.001	846.460	635.715
318.125	16.018	846.037	635.408
319.139	15.961	845.464	634.706
320.154	16.121	845.211	635.062
321.168	16.188	844.548	634.758
322.183	16.194	844.173	634.443
323.197	16.181	843.594	633.904
324.212	16.090	843.379	633.343
325.227	16.313	841.838	632.968
326.241	16.241	841.726	632.557
327.256	16.056	841.390	631.553
328.270	16.215	840.514	631.437
329.285	16.278	839.748	631.042
330.300	16.227	839.376	630.515
331.314	16.281	839.144	630.486
332.329	16.194	839.053	630.038
333.343	16.274	838.268	629.691
334.358	16.314	837.915	629.519
335.373	16.433	837.475	629.578
336.387	16.477	836.838	629.207
337.402	16.474	836.955	629.226
338.416	16.430	836.541	628.696
339.431	16.535	835.750	628.438
340.446	16.571	835.588	628.392
341.460	16.544	835.310	628.027
342.475	16.608	834.740	627.782
343.489	16.659	834.379	627.644
344.504	16.550	833.992	626.892
345.519	16.677	833.488	626.927
346.533	16.622	833.028	626.324
347.548	16.625	832.294	625.725
348.562	16.687	831.600	625.378
349.577	16.718	830.723	624.779
350.592	16.563	830.362	623.880
351.606	16.616	829.715	623.536
352.621	16.583	828.871	622.722
353.635	16.594	828.332	622.303
354.650	16.686	827.990	622.332
355.665	16.653	827.141	621.516
356.679	16.644	826.576	621.001
357.694	16.638	826.228	620.664
358.708	16.624	825.555	620.051
359.723	16.822	824.552	619.968
360.738	16.824	824.043	619.538
361.752	16.890	823.507	619.321
362.767	16.891	823.145	618.999
363.781	16.969	822.449	618.706
364.796	16.998	821.973	618.396
365.810	17.012	821.845	618.298
366.825	17.032	821.510	618.064
367.840	17.037	821.035	617.670
368.854	16.911	820.822	616.995
369.869	16.926	820.037	616.408
370.883	16.919	819.842	616.179
371.898	17.065	819.433	616.348
372.913	17.206	818.793	616.322
373.927	16.878	818.639	614.962
374.942	17.116	817.940	615.248
375.956	17.048	817.745	614.799
376.971	17.238	817.064	614.920
377.986	17.125	816.689	614.173
379.000	17.278	816.259	614.351
380.015	17.302	815.650	613.925
381.029	17.367	815.056	613.658
382.044	17.370	814.132	612.917
383.059	17.411	813.891	612.831
384.073	17.227	813.539	611.849
385.088	17.325	812.667	611.490
386.102	17.442	811.609	611.060
387.117	17.326	811.670	610.636
388.132	17.151	811.314	609.686
389.146	17.410	810.501	609.951
390.161	17.289	810.305	609.315
391.175	17.507	809.493	609.431
392.190	17.353	808.957	608.422
393.205	17.221	808.820	607.792
394.219	17.308	808.318	607.673
395.234	17.339	807.688	607.257
396.248	17.242	807.636	606.817
397.263	17.270	807.489	606.754
398.278	17.303	806.598	606.147
399.292	17.301	806.204	605.792
400.307	17.253	805.619	605.128
401.321	17.267	805.356	604.924
402.336	17.380	804.478	604.613
403.350	17.492	804.116	604.688
404.365	17.440	803.658	604.102
405.380	17.500	803.282	603.981
406.394	17.559	802.741	603.730
407.409	17.622	802.549	603.753
408.423	17.637	802.348	603.603
409.438	17.716	801.618	603.279
410.453	17.670	801.585	603.038
411.467	17.659	801.171	602.634
412.482	17.862	800.640	602.899
413.496	17.734	800.388	602.207
414.511	17.715	800.077	601.850
415.526	17.868	799.383	601.815
416.540	17.811	798.746	601.082
417.555	17.779	798.581	600.791
418.569	17.744	798.229	600.350
419.584	17.859	797.867	600.430
420.599	17.840	797.044	599.691
421.613	111.521	1294.730	1475.525
422.628	95.977	1367.204	1475.604
