DTS Sentinel unit serial number:	SN413079Multiplexer serial number:	ORYXHardware model number:	OX4-SRSoftware version number:	ORYX F/W v4.00 Oryx Data Collector v3.7.2.0data status	okinstallation	princeton_trtdifferential loss correction	single-endedforward channel	channel 1reverse channel	N/Adate	2019/09/12time	12:16:11forward acquisition time	60.00reverse acquisition time	0.00gamma	496.2192k internal	0.2292k external	0.2292temperature offset calibration	1.0042default loss term (dB/km)	0.3790temperature slope calibration	1.0000multiplexer offset coefficient	1.0000multiplexer slope coefficient	1.0000fibre end	0.00T internal ref (°C)	40.62T ext. ref 1 (°C)	1.97T ext. ref 2 (°C)	35.38length (m)	temperature (°C)	Stokes	anti-Stokes-747.200	-200.000	0.023	-0.287
-746.185	800.000	0.062	0.245
-745.171	-7.577	0.200	-0.138
-744.156	-200.000	0.006	0.034
-743.142	-56.247	0.106	-0.048
-742.127	-200.000	0.040	0.288
-741.112	-104.888	-0.274	-0.064
-740.098	-49.732	0.112	0.055
-739.083	-181.142	-0.217	0.004
-738.069	-1.619	0.363	0.262
-737.054	-195.221	-0.246	0.002
-736.039	-140.226	-0.201	0.022
-735.025	-200.000	-0.005	0.072
-734.010	-129.780	-0.298	-0.042
-732.996	-19.942	-0.376	-0.238
-731.981	180.318	-0.124	0.187
-730.966	-200.000	0.058	-0.268
-729.952	47.329	0.056	0.054
-728.937	-200.000	-0.015	-0.164
-727.923	516.872	-0.046	-0.110
-726.908	-146.005	-0.318	0.029
-725.894	-118.787	-0.205	-0.037
-724.879	157.454	-0.120	-0.169
-723.864	424.127	0.089	-0.197
-722.850	25.281	-0.210	0.179
-721.835	-9.994	-0.150	-0.102
-720.821	277.184	-0.133	-0.242
-719.806	-92.897	-0.092	-0.026
-718.791	-26.584	-0.119	0.071
-717.777	-200.000	-0.098	0.546
-716.762	-76.809	-0.233	-0.083
-715.748	-200.000	0.164	-0.741
-714.733	-143.701	0.252	-0.024
-713.718	-200.000	-0.026	0.122
-712.704	-148.660	0.227	-0.019
-711.689	52.721	-0.171	0.167
-710.675	-51.288	-0.100	0.048
-709.660	74.837	0.215	-0.232
-708.645	-200.000	-0.004	0.057
-707.631	-200.000	-0.014	0.094
-706.616	332.683	0.135	0.267
-705.602	-200.000	0.021	-0.176
-704.587	-105.456	-0.338	0.078
-703.572	-186.867	-0.382	-0.005
-702.558	-90.857	0.171	-0.050
-701.543	-131.216	0.418	0.057
-700.529	-24.871	-0.136	-0.082
-699.514	-200.000	-0.004	-0.104
-698.499	-172.831	0.451	0.014
-697.485	100.271	-0.195	0.231
-696.470	67.964	-0.180	-0.188
-695.456	211.922	-0.096	-0.155
-694.441	-50.025	-0.141	0.068
-693.426	-97.160	0.090	-0.024
-692.412	-200.000	-0.011	-0.120
-691.397	133.144	0.099	0.131
-690.383	800.000	-0.019	-0.073
-689.368	424.044	0.068	-0.150
-688.354	-169.072	-0.278	-0.011
-687.339	58.714	-0.081	-0.081
-686.324	800.000	-0.055	0.237
-685.310	267.354	0.093	-0.166
-684.295	48.076	-0.194	-0.185
-683.281	44.637	-0.285	0.268
-682.266	-70.492	-0.187	0.072
-681.251	-26.108	-0.267	-0.161
-680.237	-113.864	-0.121	-0.024
-679.222	444.995	-0.130	-0.290
-678.208	800.000	-0.115	-0.360
-677.193	-200.000	-0.030	-0.294
-676.178	800.000	0.054	0.164
-675.164	220.364	0.095	0.155
-674.149	-145.119	0.170	-0.016
-673.135	-130.280	-0.162	-0.023
-672.120	800.000	-0.017	0.065
-671.105	-200.000	0.023	-0.303
-670.091	-56.055	-0.348	0.158
-669.076	126.316	0.194	-0.250
-668.062	67.354	-0.215	-0.224
-667.047	-200.000	0.002	-0.032
-666.032	-200.000	0.006	-0.207
-665.018	-157.214	-0.142	0.009
-664.003	-5.680	-0.169	-0.119
-662.989	-26.271	-0.204	0.122
-661.974	-18.412	-0.244	0.156
-660.959	-200.000	0.047	-0.493
-659.945	-96.295	0.228	0.062
-658.930	44.824	0.111	0.104
-657.916	-154.293	-0.204	-0.014
-656.901	-12.746	-0.478	-0.318
-655.886	60.111	0.288	0.290
-654.872	800.000	-0.071	0.207
-653.857	92.839	-0.058	0.067
-652.843	356.295	0.067	-0.136
-651.828	90.741	-0.162	0.186
-650.814	28.324	0.078	0.067
-649.799	-149.186	0.327	0.027
-648.784	-200.000	0.009	-0.387
-647.770	-36.249	0.355	-0.196
-646.755	-57.472	0.077	0.035
-645.741	800.000	0.090	0.326
-644.726	49.917	-0.145	0.139
-643.711	-47.574	0.168	-0.083
-642.697	311.747	0.103	-0.197
-641.682	77.230	-0.228	-0.247
-640.668	600.572	0.050	-0.127
-639.653	419.850	-0.084	-0.183
-638.638	-170.155	-0.311	-0.011
-637.624	-132.789	0.098	0.013
-636.609	12.241	0.177	0.139
-635.595	800.000	-0.034	0.130
-634.580	168.691	-0.160	-0.233
-633.565	297.553	0.179	-0.336
-632.551	395.984	-0.053	0.114
-631.536	-200.000	0.024	0.172
-630.522	-45.512	0.139	-0.070
-629.507	-70.521	-0.321	-0.124
-628.492	-61.163	-0.068	-0.029
-627.478	153.160	-0.052	0.072
-626.463	-200.000	-0.011	0.078
-625.449	141.125	0.160	0.215
-624.434	800.000	0.051	-0.159
-623.419	-200.000	0.001	0.108
-622.405	-154.390	0.290	0.020
-621.390	-200.000	0.005	-0.109
-620.376	-200.000	-0.036	-0.207
-619.361	-200.000	-0.018	-0.091
-618.346	-106.581	-0.235	-0.053
-617.332	-200.000	0.055	-0.398
-616.317	488.018	-0.073	-0.170
-615.303	-200.000	-0.035	-0.219
-614.288	-15.154	0.117	-0.076
-613.273	-101.416	-0.107	-0.026
-612.259	137.580	-0.172	0.229
-611.244	-3.714	-0.333	0.236
-610.230	129.842	0.080	-0.104
-609.215	61.920	0.149	-0.151
-608.201	249.737	0.218	0.377
-607.186	-42.199	-0.200	0.104
-606.171	381.452	0.101	-0.210
-605.157	-84.957	0.129	0.041
-604.142	-127.516	0.209	0.031
-603.128	-200.000	0.026	-0.344
-602.113	800.000	-0.068	0.299
-601.098	-65.833	0.130	0.053
-600.084	-84.331	-0.315	0.102
-599.069	-200.000	-0.027	-0.477
-598.055	-76.660	-0.411	0.147
-597.040	223.814	-0.131	0.216
-596.025	218.430	-0.226	-0.367
-595.011	61.884	-0.126	-0.128
-593.996	-85.683	0.356	0.113
-592.982	-194.186	0.317	0.003
-591.967	-200.000	-0.037	0.411
-590.952	282.954	0.127	0.232
-589.938	-114.739	-0.196	0.038
-588.923	-200.000	0.007	-0.334
-587.909	800.000	-0.068	-0.229
-586.894	800.000	-0.082	0.280
-585.879	-200.000	-0.052	-0.407
-584.865	234.210	-0.103	-0.172
-583.850	-15.422	-0.078	0.051
-582.836	-37.401	-0.136	0.074
-581.821	-7.095	0.214	0.147
-580.806	25.800	-0.232	-0.196
-579.792	800.000	-0.015	-0.051
-578.777	800.000	0.088	0.323
-577.763	-200.000	0.017	0.132
-576.748	92.630	0.166	-0.190
-575.733	42.278	-0.206	0.190
-574.719	-200.000	0.014	0.100
-573.704	-105.964	-0.121	-0.028
-572.690	76.853	-0.085	0.092
-571.675	-81.646	0.206	0.069
-570.661	-119.525	0.174	-0.031
-569.646	-43.598	-0.123	-0.063
-568.631	-29.539	-0.236	-0.137
-567.617	203.790	0.007	0.011
-566.602	-99.372	-0.098	0.025
-565.588	-82.065	-0.266	-0.088
-564.573	800.000	0.067	-0.234
-563.558	23.039	-0.014	0.011
-562.544	-61.446	0.180	-0.077
-561.529	-66.511	-0.298	0.120
-560.515	-200.000	-0.004	0.046
-559.500	150.922	-0.088	0.121
-558.485	139.138	-0.183	-0.245
-557.471	800.000	0.103	-0.366
-556.456	-153.046	-0.151	0.011
-555.442	-141.460	0.215	-0.022
-554.427	-200.000	-0.039	-0.295
-553.412	-200.000	-0.029	0.230
-552.398	91.074	-0.217	0.247
-551.383	-102.272	0.349	-0.085
-550.369	-55.676	0.233	-0.106
-549.354	-66.242	0.381	0.154
-548.339	-200.000	-0.008	0.101
-547.325	-162.937	0.474	-0.023
-546.310	172.967	-0.032	-0.047
-545.296	431.193	0.040	-0.087
-544.281	-165.387	-0.208	-0.009
-543.266	16.822	-0.316	-0.254
-542.252	-200.000	-0.005	0.135
-541.237	-88.360	-0.028	-0.009
-540.223	-14.887	0.311	0.203
-539.208	5.790	0.237	0.178
-538.193	800.000	0.059	0.175
-537.179	-33.033	0.031	0.018
-536.164	-18.147	-0.254	0.161
-535.150	-109.545	0.287	-0.061
-534.135	800.000	0.093	-0.287
-533.121	-86.187	-0.237	0.074
-532.106	800.000	-0.104	0.297
-531.091	381.291	0.075	-0.156
-530.077	180.555	0.177	0.263
-529.062	-200.000	-0.015	-0.285
-528.048	-200.000	0.045	0.270
-527.033	216.754	0.123	0.199
-526.018	-38.926	-0.243	0.130
-525.004	30.362	-0.175	-0.152
-523.989	-169.635	0.118	-0.004
-522.975	108.842	-0.140	-0.170
-521.960	81.868	0.243	0.267
-520.945	127.614	0.112	0.145
-519.931	347.122	0.117	-0.234
-518.916	-70.673	-0.219	-0.084
-517.902	-200.000	-0.039	-0.324
-516.887	8.153	0.056	-0.043
-515.872	95.821	0.033	-0.039
-514.858	-200.000	0.005	-0.114
-513.843	-73.169	-0.104	-0.038
-512.829	-200.000	-0.042	0.231
-511.814	-200.000	-0.001	-0.145
-510.799	-200.000	0.007	0.186
-509.785	62.321	0.216	0.219
-508.770	178.605	0.128	0.190
-507.756	-108.484	0.074	-0.016
-506.741	800.000	-0.103	0.305
-505.726	-200.000	0.076	0.464
-504.712	-200.000	-0.020	-0.134
-503.697	-74.747	0.131	-0.048
-502.683	-5.046	-0.079	-0.055
-501.668	800.000	0.070	0.244
-500.653	237.503	0.103	0.174
-499.639	-66.833	-0.361	-0.145
-498.624	218.270	0.110	-0.177
-497.610	42.658	-0.275	0.254
-496.595	-14.051	-0.287	0.188
-495.581	532.835	-0.111	-0.266
-494.566	-55.972	-0.102	-0.046
-493.551	-183.646	0.173	-0.003
-492.537	101.901	0.117	0.139
-491.522	800.000	-0.032	0.115
-490.508	-133.475	0.206	-0.026
-489.493	-200.000	0.013	0.304
-488.478	-182.228	-0.091	-0.002
-487.464	-200.000	0.043	0.283
-486.449	-17.487	-0.350	0.223
-485.435	-155.743	-0.164	0.011
-484.420	-200.000	0.016	-0.169
-483.405	438.912	-0.099	-0.219
-482.391	-70.659	0.188	0.072
-481.376	800.000	0.054	-0.170
-480.362	-84.908	-0.310	-0.099
-479.347	-91.815	-0.103	0.030
-478.332	9.828	0.227	-0.175
-477.318	73.039	0.022	-0.023
-476.303	255.772	0.084	0.146
-475.289	121.454	0.072	-0.091
-474.274	38.193	0.126	-0.114
-473.259	313.404	0.183	-0.348
-472.245	-81.410	-0.395	-0.132
-471.230	-104.346	-0.359	-0.084
-470.216	327.819	0.135	-0.263
-469.201	-200.000	0.001	0.052
-468.186	-200.000	0.015	0.124
-467.172	-200.000	0.028	-0.169
-466.157	-99.710	-0.405	-0.103
-465.143	77.439	-0.045	0.048
-464.128	301.874	-0.107	0.200
-463.113	76.090	0.308	0.330
-462.099	154.915	-0.049	-0.068
-461.084	0.437	0.267	-0.193
-460.070	255.638	0.200	0.347
-459.055	-200.000	-0.024	0.265
-458.040	-200.000	0.023	-0.363
-457.026	122.988	0.183	-0.232
-456.011	-185.280	-0.338	-0.005
-454.997	144.143	-0.064	-0.087
-453.982	800.000	-0.048	0.206
-452.968	-200.000	-0.026	0.193
-451.953	-83.857	0.113	0.036
-450.938	-200.000	-0.023	-0.217
-449.924	-30.434	0.164	-0.094
-448.909	800.000	-0.072	-0.285
-447.895	-90.972	-0.112	-0.033
-446.880	256.083	-0.100	-0.173
-445.865	24.308	0.220	-0.184
-444.851	308.165	0.156	-0.294
-443.836	800.000	-0.053	0.220
-442.822	800.000	-0.081	-0.321
-441.807	57.755	0.078	-0.077
-440.792	35.304	-0.080	0.071
-439.778	-200.000	-0.008	-0.159
-438.763	-50.144	0.351	-0.168
-437.749	-200.000	-0.034	-0.200
-436.734	-91.267	-0.174	0.050
-435.719	159.790	-0.102	-0.144
-434.705	410.888	-0.134	0.287
-433.690	26.850	-0.092	-0.078
-432.676	-45.264	-0.247	0.124
-431.661	-160.572	0.031	0.002
-430.646	541.785	0.062	-0.149
-429.632	294.819	0.161	-0.298
-428.617	267.391	-0.242	0.429
-427.603	37.174	-0.216	0.193
-426.588	74.627	-0.265	0.282
-425.573	-117.124	-0.185	0.034
-424.559	190.381	-0.041	-0.062
-423.544	-53.469	-0.220	-0.102
-422.530	455.805	-0.156	0.350
-421.515	-200.000	-0.019	-0.132
-420.500	-66.762	0.181	-0.072
-419.486	27.688	-0.245	-0.209
-418.471	-180.726	0.247	-0.005
-417.457	-200.000	-0.031	0.249
-416.442	425.743	-0.038	-0.083
-415.428	3.509	0.152	0.112
-414.413	86.033	0.078	0.087
-413.398	-177.844	-0.175	-0.004
-412.384	-6.168	0.245	0.169
-411.369	800.000	-0.089	0.360
-410.355	153.684	-0.236	0.326
-409.340	-139.744	-0.266	0.029
-408.325	23.290	-0.258	-0.214
-407.311	-101.315	0.329	0.081
-406.296	-169.857	0.157	-0.006
-405.282	27.957	0.125	-0.106
-404.267	-63.503	0.525	-0.218
-403.252	-200.000	-0.019	-0.114
-402.238	-80.103	-0.193	-0.065
-401.223	-200.000	-0.001	0.005
-400.209	-200.000	-0.001	0.284
-399.194	29.451	0.097	-0.083
-398.179	-109.193	-0.319	-0.068
-397.165	-114.020	0.250	-0.049
-396.150	-70.021	-0.204	0.078
-395.136	18.573	0.069	-0.056
-394.121	-52.998	-0.480	-0.223
-393.106	-12.857	-0.112	-0.074
-392.092	-157.692	0.065	-0.004
-391.077	-62.914	0.187	-0.078
-390.063	471.455	0.033	0.074
-389.048	135.067	-0.105	0.138
-388.033	-86.238	0.028	-0.009
-387.019	87.155	0.303	0.338
-386.004	5.884	0.286	0.214
-384.990	-106.642	-0.103	-0.023
-383.975	26.359	0.263	-0.222
-382.960	86.589	-0.042	-0.046
-381.946	117.240	0.155	-0.192
-380.931	-120.931	0.138	0.023
-379.917	-95.801	0.146	-0.039
-378.902	67.712	-0.180	-0.186
-377.888	-200.000	0.014	-0.183
-376.873	-27.907	0.095	-0.055
-375.858	-159.607	0.087	0.005
-374.844	186.258	0.116	-0.175
-373.829	-43.395	0.389	0.198
-372.815	-41.618	-0.380	-0.197
-371.800	800.000	-0.024	0.073
-370.785	-200.000	0.015	-0.157
-369.771	222.425	0.067	-0.109
-368.756	76.130	-0.123	-0.131
-367.742	61.986	0.143	0.144
-366.727	-200.000	-0.009	-0.051
-365.712	455.409	0.027	-0.061
-364.698	26.847	0.118	0.100
-363.683	-77.496	0.044	0.015
-362.669	65.064	0.114	-0.116
-361.654	174.812	0.180	0.262
-360.639	800.000	-0.037	0.151
-359.625	-131.218	0.113	-0.015
-358.610	138.712	0.166	0.220
-357.596	800.000	0.156	-0.441
-356.581	106.718	0.107	-0.128
-355.566	-29.292	-0.208	-0.120
-354.552	800.000	-0.071	0.269
-353.537	-167.237	-0.223	-0.009
-352.523	-143.531	0.271	-0.026
-351.508	800.000	-0.041	-0.115
-350.493	515.382	0.053	0.124
-349.479	-93.667	-0.236	0.066
-348.464	-15.007	0.098	0.064
-347.450	-200.000	-0.041	0.293
-346.435	418.264	-0.064	-0.139
-345.420	-200.000	0.008	0.063
-344.406	-142.858	-0.099	-0.010
-343.391	-71.365	0.164	-0.062
-342.377	-45.156	0.139	0.070
-341.362	81.672	0.019	-0.021
-340.348	-68.813	-0.229	0.089
-339.333	-109.295	0.276	-0.059
-338.318	-134.409	0.255	0.032
-337.304	-128.352	-0.226	0.032
-336.289	800.000	-0.033	0.113
-335.275	271.546	-0.071	0.127
-334.260	108.993	-0.103	0.124
-333.245	-37.064	0.235	-0.127
-332.231	-83.286	-0.013	0.004
-331.216	800.000	0.116	0.327
-330.202	129.125	0.158	0.203
-329.187	-143.917	-0.278	0.026
-328.172	-200.000	-0.015	-0.328
-327.158	82.354	-0.161	0.176
-326.143	-1.961	-0.457	-0.324
-325.129	99.854	0.214	-0.249
-324.114	800.000	0.096	-0.312
-323.099	-183.021	0.375	-0.007
-322.085	182.807	-0.040	0.059
-321.070	-113.008	0.217	-0.043
-320.056	26.033	0.074	-0.062
-319.041	25.206	-0.258	-0.216
-318.026	-200.000	-0.015	0.081
-317.012	-200.000	-0.029	0.140
-315.997	-98.165	0.120	0.031
-314.983	130.429	-0.182	0.235
-313.968	-58.098	-0.462	0.203
-312.953	89.602	-0.099	0.112
-311.939	-32.567	-0.113	0.063
-310.924	800.000	-0.018	-0.062
-309.910	800.000	0.057	-0.235
-308.895	420.333	-0.174	-0.375
-307.880	800.000	-0.040	0.130
-306.866	-56.844	-0.213	0.095
-305.851	-105.632	0.239	-0.054
-304.837	-200.000	-0.011	-0.085
-303.822	-19.789	-0.073	-0.045
-302.807	-21.463	-0.309	0.189
-301.793	-53.753	0.252	0.116
-300.778	142.963	0.173	0.232
-299.764	-200.000	0.003	0.121
-298.749	183.116	-0.122	0.181
-297.735	53.616	0.169	-0.164
-296.720	-178.235	-0.240	-0.006
-295.705	-156.204	-0.158	0.010
-294.691	229.145	0.088	-0.145
-293.676	16.644	0.177	0.140
-292.662	-35.693	-0.087	-0.048
-291.647	-200.000	-0.008	0.170
-290.632	63.080	-0.223	-0.225
-289.618	-200.000	-0.028	0.255
-288.603	-112.619	-0.102	-0.020
-287.589	-200.000	0.004	0.152
-286.574	26.306	-0.294	-0.247
-285.559	155.221	-0.106	-0.146
-284.545	473.818	0.092	-0.208
-283.530	260.721	-0.204	0.355
-282.516	176.507	-0.171	0.250
-281.501	-76.466	0.099	0.035
-280.486	-132.485	-0.269	0.035
-279.472	-200.000	0.021	0.171
-278.457	258.877	0.168	0.290
-277.443	800.000	0.067	0.267
-276.428	-200.000	0.005	-0.103
-275.413	44.374	0.151	0.140
-274.399	165.511	0.180	-0.256
-273.384	-200.000	-0.044	0.354
-272.370	58.221	-0.293	0.288
-271.355	64.973	-0.098	-0.100
-270.340	314.447	-0.081	0.154
-269.326	206.151	-0.040	0.063
-268.311	23.445	-0.273	0.226
-267.297	-200.000	0.017	-0.189
-266.282	-98.813	-0.237	0.061
-265.267	312.986	-0.126	0.238
-264.253	800.000	-0.091	0.364
-263.238	691.676	-0.049	-0.129
-262.224	-200.000	0.012	-0.206
-261.209	800.000	-0.083	-0.253
-260.195	41.813	-0.043	0.039
-259.180	-154.812	-0.343	0.023
-258.165	167.407	-0.065	-0.092
-257.151	30.888	0.291	-0.250
-256.136	-200.000	0.040	0.287
-255.122	800.000	0.075	-0.307
-254.107	-46.431	-0.395	0.195
-253.092	201.202	-0.131	-0.203
-252.078	487.391	-0.107	0.244
-251.063	31.964	-0.113	-0.097
-250.049	219.328	0.079	0.127
-249.034	712.440	0.131	-0.348
-248.019	-92.349	0.263	0.074
-247.005	-200.000	-0.004	0.132
-245.990	-128.145	0.153	-0.022
-244.976	23.467	-0.158	0.130
-243.961	-45.786	-0.035	-0.017
-242.946	-200.000	-0.005	0.191
-241.932	-200.000	0.163	0.000
-240.917	263.320	0.161	0.280
-239.903	29.249	0.127	-0.108
-238.888	42.699	0.104	-0.095
-237.873	17.731	0.192	0.153
-236.859	-94.212	0.161	-0.044
-235.844	256.001	-0.128	-0.221
-234.830	-4.493	0.269	0.186
-233.815	103.533	-0.069	-0.082
-232.800	-139.170	0.209	-0.023
-231.786	375.377	-0.124	0.254
-230.771	-74.164	-0.318	-0.115
-229.757	-170.779	0.229	-0.008
-228.742	39.938	-0.123	0.111
-227.727	-29.046	0.156	0.090
-226.713	30.985	0.134	0.115
-225.698	696.905	-0.128	-0.338
-224.684	-26.812	0.464	0.272
-223.669	221.691	0.180	-0.290
-222.655	-40.666	0.248	0.129
-221.640	-137.013	-0.309	-0.036
-220.625	-83.679	-0.218	0.070
-219.611	20.784	-0.301	0.244
-218.596	-200.000	-0.005	0.049
-217.582	-75.455	0.238	-0.085
-216.567	163.114	-0.045	0.064
-215.552	-123.357	-0.185	0.030
-214.538	-90.556	0.167	0.048
-213.523	621.687	0.035	0.087
-212.509	-111.710	-0.058	-0.012
-211.494	800.000	-0.013	0.056
-210.479	-181.777	-0.159	-0.003
-209.465	112.192	0.139	-0.168
-208.450	-160.374	-0.131	-0.007
-207.436	17.138	0.062	-0.050
-206.421	390.795	-0.160	-0.332
-205.406	213.991	-0.081	0.128
-204.392	65.608	0.211	0.214
-203.377	-79.532	0.310	-0.105
-202.363	-57.694	0.193	-0.085
-201.348	74.271	-0.084	-0.089
-200.333	-77.182	-0.355	0.124
-199.319	529.533	0.047	-0.110
-198.304	-126.151	-0.146	0.022
-197.290	618.498	-0.096	0.242
-196.275	-114.701	0.234	0.045
-195.260	-148.200	0.155	-0.013
-194.246	-200.000	-0.003	-0.160
-193.231	-84.798	0.217	-0.068
-192.217	-200.000	0.013	0.249
-191.202	118.650	-0.304	0.375
-190.187	56.801	0.227	-0.222
-189.173	800.000	0.068	0.214
-188.158	-200.000	-0.028	-0.158
-187.144	385.406	0.122	-0.253
-186.129	135.465	0.157	-0.205
-185.114	-11.277	0.066	-0.044
-184.100	87.783	0.202	-0.225
-183.085	-200.000	0.025	-0.290
-182.071	-15.601	0.268	0.171
-181.056	643.356	0.056	-0.142
-180.042	522.527	-0.075	0.177
-179.027	163.612	0.114	-0.160
-178.012	800.000	0.045	0.177
-176.998	800.000	0.104	0.331
-175.983	-113.787	0.217	0.042
-174.969	-162.524	0.097	-0.005
-173.954	800.000	-0.041	-0.130
-172.939	506.581	0.097	-0.225
-171.925	182.546	-0.091	-0.134
-170.910	800.000	-0.110	0.380
-169.896	-66.695	-0.272	0.108
-168.881	172.850	0.131	-0.188
-167.866	-100.400	-0.228	0.057
-166.852	-41.912	-0.156	-0.080
-165.837	646.809	0.034	0.087
-164.823	-184.990	0.464	-0.007
-163.808	800.000	0.013	0.040
-162.793	88.018	0.114	0.126
-161.779	127.466	0.172	-0.219
-160.764	-200.000	0.019	0.223
-159.750	271.654	0.017	-0.031
-158.735	-150.849	-0.070	0.005
-157.720	-200.000	0.049	0.283
-156.706	800.000	-0.071	-0.233
-155.691	-75.808	0.184	0.065
-154.677	800.000	0.090	-0.270
-153.662	-122.467	0.042	-0.007
-152.647	292.033	0.157	-0.286
-151.633	250.067	-0.279	-0.473
-150.618	11.332	0.125	0.096
-149.604	-60.882	0.271	-0.115
-148.589	-103.514	0.342	-0.081
-147.574	-134.113	-0.156	0.019
-146.560	-30.584	-0.188	-0.106
-145.545	23.272	-0.105	-0.086
-144.531	69.781	0.155	0.160
-143.516	255.685	-0.091	-0.157
-142.502	-140.064	0.187	-0.020
-141.487	256.016	0.058	-0.100
-140.472	-200.000	-0.025	-0.226
-139.458	411.104	0.055	0.117
-138.443	-9.161	-0.129	-0.086
-137.429	46.780	0.136	-0.127
-136.414	-59.050	0.136	-0.059
-135.399	386.602	0.116	-0.239
-134.385	-200.000	0.063	0.338
-133.370	-121.432	0.272	0.045
-132.356	-200.000	0.047	-0.230
-131.341	-25.034	-0.103	0.061
-130.326	-200.000	-0.024	0.163
-129.312	-138.998	0.149	-0.016
-128.297	-116.759	-0.332	-0.061
-127.283	-130.143	0.305	-0.042
-126.268	-110.144	0.146	0.031
-125.253	14.983	-0.044	-0.034
-124.239	65.062	-0.148	0.149
-123.224	-150.403	0.364	0.028
-122.210	379.368	0.058	-0.120
-121.195	-90.538	-0.082	0.024
-120.180	159.952	0.120	0.167
-119.166	176.586	-0.278	0.403
-118.151	800.000	-0.058	-0.248
-117.137	-200.000	0.030	-0.346
-116.122	212.795	0.065	-0.103
-115.107	342.375	-0.075	0.147
-114.093	800.000	0.053	-0.219
-113.078	-33.067	0.368	-0.204
-112.064	41.736	-0.073	0.066
-111.049	-20.937	-0.338	-0.207
-110.034	-122.293	-0.270	-0.044
-109.020	95.261	0.256	0.291
-108.005	-200.000	0.008	0.115
-106.991	800.000	-0.056	-0.204
-105.976	561.233	0.112	-0.270
-104.962	57.874	-0.169	-0.165
-103.947	-149.942	0.178	-0.014
-102.932	11.513	-0.049	0.037
-101.918	1.761	-0.333	-0.240
-100.903	-200.000	0.002	0.079
-99.889	-39.414	-0.349	0.183
-98.874	601.627	-0.101	0.251
-97.859	-45.936	0.167	0.082
-96.845	-200.000	-0.043	-0.213
-95.830	-200.000	-0.012	-0.257
-94.816	775.427	-0.079	0.215
-93.801	96.847	0.201	0.230
-92.786	-72.750	-0.280	0.103
-91.772	390.398	0.190	-0.393
-90.757	-105.274	-0.169	-0.038
-89.743	70.933	-0.026	-0.027
-88.728	-161.694	0.078	-0.004
-87.713	299.100	0.116	0.213
-86.699	147.809	-0.164	0.220
-85.684	-200.000	-0.071	-0.349
-84.670	-76.893	-0.132	-0.046
-83.655	-133.528	-0.225	0.028
-82.640	265.046	0.043	0.075
-81.626	331.411	0.041	0.080
-80.611	-200.000	-0.062	0.278
-79.597	-85.094	0.111	0.035
-78.582	-20.257	-0.164	0.101
-77.567	657.143	0.083	-0.213
-76.553	135.833	-0.116	-0.151
-75.538	98.925	0.223	-0.257
-74.524	9.369	0.204	0.154
-73.509	-75.122	-0.099	-0.035
-72.494	-72.551	0.178	-0.066
-71.480	133.713	-0.146	-0.188
-70.465	-22.062	0.118	-0.072
-69.451	1.675	0.325	0.233
-68.436	-200.000	-0.008	0.105
-67.422	-132.885	-0.153	-0.019
-66.407	470.673	-0.085	0.191
-65.392	-112.684	0.151	0.030
-64.378	152.974	0.100	-0.137
-63.363	-30.561	-0.128	0.073
-62.349	-119.921	-0.457	0.078
-61.334	-44.082	-0.985	-0.493
-60.319	-157.293	0.252	0.015
-59.305	-200.000	-0.055	-0.761
-58.290	487.749	0.480	1.092
-57.276	617.478	0.616	1.542
-56.261	-200.000	76.383	510.206
-55.246	509.153	1338.443	3098.718
-54.232	144.339	2573.942	3423.300
-53.217	116.531	2236.883	2732.975
-52.203	52.353	1680.710	1597.460
-51.188	44.466	1403.951	1284.788
-50.173	40.786	1358.507	1220.590
-49.159	59.388	1393.131	1367.360
-48.144	65.870	1412.561	1426.501
-47.130	44.808	1375.305	1260.489
-46.115	40.782	1358.779	1220.616
-45.100	40.517	1354.341	1214.958
-44.086	40.484	1351.672	1212.318
-43.071	40.402	1349.569	1209.882
-42.057	40.446	1346.731	1207.556
-41.042	40.521	1345.097	1206.500
-40.027	40.608	1343.628	1205.665
-39.013	40.380	1342.308	1203.046
-37.998	40.499	1340.025	1201.675
-36.984	40.623	1338.359	1200.883
-35.969	40.740	1336.131	1199.544
-34.954	40.662	1334.636	1197.684
-33.940	40.766	1332.896	1196.702
-32.925	40.678	1331.817	1195.155
-31.911	40.778	1330.291	1194.338
-30.896	40.783	1328.875	1193.053
-29.881	40.616	1328.059	1191.270
-28.867	40.729	1326.195	1190.228
-27.852	40.793	1324.557	1189.093
-26.838	40.707	1322.945	1187.082
-25.823	40.674	1321.542	1185.580
-24.809	40.732	1320.172	1184.651
-23.794	40.764	1318.990	1183.733
-22.779	40.773	1317.377	1182.290
-21.765	40.739	1316.172	1180.962
-20.750	40.735	1314.698	1179.567
-19.736	40.582	1313.355	1177.408
-18.721	40.605	1312.011	1176.292
-17.706	40.550	1311.322	1175.304
-16.692	40.594	1309.858	1174.207
-15.677	40.621	1308.988	1173.536
-14.663	40.481	1308.083	1171.854
-13.648	40.525	1306.597	1170.735
-12.633	40.539	1305.593	1169.871
-11.619	40.512	1304.720	1168.881
-10.604	40.576	1303.818	1168.405
-9.590	40.617	1302.910	1167.789
-8.575	40.549	1301.873	1166.414
-7.560	40.560	1301.057	1165.701
-6.546	40.586	1299.944	1164.810
-5.531	40.430	1299.146	1163.129
-4.517	40.442	1298.573	1162.641
-3.502	40.523	1297.703	1162.294
-2.487	40.673	1296.156	1161.739
-1.473	40.686	1292.227	1158.245
-0.458	39.234	1277.224	1136.370
0.556	35.261	1256.021	1091.971
1.571	30.891	1259.023	1069.463
2.586	29.637	1274.351	1075.097
3.600	28.378	1263.006	1058.167
4.615	20.608	1185.759	951.046
5.629	8.260	1101.034	819.933
6.644	2.423	1077.382	772.834
7.659	1.941	1074.034	767.939
8.673	1.710	1072.782	765.816
9.688	1.808	1071.306	765.184
10.702	2.122	1070.210	765.909
11.717	8.783	1080.409	806.779
12.731	20.013	1096.543	875.857
13.746	24.909	1102.832	905.637
14.761	25.301	1102.739	907.462
15.775	25.272	1102.394	906.951
16.790	25.059	1101.466	905.035
17.804	25.073	1100.375	904.125
18.819	25.058	1100.124	903.767
19.834	25.223	1099.633	904.112
20.848	25.226	1099.446	903.898
21.863	25.245	1098.203	902.890
22.877	25.133	1098.303	902.327
23.892	25.126	1097.186	901.293
24.907	25.215	1096.746	901.301
25.921	25.169	1095.506	899.969
26.936	25.135	1094.019	898.500
27.950	25.115	1092.383	896.975
28.965	25.053	1090.271	894.856
29.980	25.111	1088.962	893.990
30.994	25.283	1088.372	894.284
32.009	25.337	1087.070	893.404
33.023	25.089	1085.641	890.917
34.038	25.169	1085.184	890.860
35.053	25.175	1084.601	890.335
36.067	25.234	1083.718	889.822
37.082	25.156	1083.399	889.095
38.096	25.407	1082.483	889.506
39.111	25.484	1081.859	889.296
40.126	25.322	1080.164	887.023
41.140	25.029	1078.300	883.970
42.155	24.696	1077.290	881.422
43.169	24.752	1076.335	880.838
44.184	24.752	1075.326	879.933
45.199	24.720	1074.515	879.036
46.213	24.724	1073.497	878.145
47.228	24.988	1072.881	878.859
48.242	24.972	1072.015	877.995
49.257	25.204	1071.094	878.298
50.271	25.297	1070.101	877.863
51.286	25.244	1069.720	877.212
52.301	25.298	1068.888	876.713
53.315	25.251	1067.247	875.061
54.330	25.104	1066.836	873.930
55.344	25.139	1065.929	873.284
56.359	25.190	1064.683	872.430
57.374	24.918	1063.941	870.422
58.388	24.863	1063.500	869.718
59.403	24.975	1062.533	869.394
60.417	24.780	1061.750	867.733
61.432	24.812	1061.137	867.308
62.447	24.812	1060.582	866.781
63.461	24.921	1059.793	866.587
64.476	24.915	1058.445	865.378
65.490	24.880	1057.610	864.449
66.505	24.755	1057.097	863.349
67.520	24.741	1056.859	863.013
68.534	24.688	1055.683	861.717
69.549	24.374	1054.565	859.219
70.563	24.405	1053.681	858.570
71.578	24.404	1052.955	857.899
72.593	24.247	1051.673	856.026
73.607	24.462	1051.089	856.506
74.622	24.656	1051.090	857.363
75.636	24.773	1049.916	856.886
76.651	24.648	1048.761	855.272
77.666	24.624	1048.297	854.704
78.680	24.568	1047.674	853.849
79.695	24.679	1047.538	854.195
80.709	24.773	1046.565	853.777
81.724	24.815	1045.531	853.058
82.739	24.661	1045.422	852.159
83.753	25.277	1044.332	854.127
84.768	25.402	1043.893	854.285
85.782	25.536	1042.935	854.061
86.797	25.530	1041.863	853.080
87.812	25.282	1041.414	851.463
88.826	25.283	1040.300	850.479
89.841	25.388	1039.330	850.108
90.855	25.456	1037.775	849.081
91.870	25.387	1037.506	848.464
92.884	25.281	1036.043	846.693
93.899	25.199	1035.656	845.913
94.914	25.457	1034.392	846.021
95.928	25.246	1033.355	844.105
96.943	24.989	1032.426	842.066
97.957	24.714	1031.102	839.618
98.972	24.644	1029.891	838.228
99.987	24.971	1029.227	839.149
101.001	25.140	1028.466	839.243
102.016	25.190	1027.553	838.658
103.030	25.046	1026.613	837.143
104.045	24.864	1025.551	835.356
105.060	24.797	1024.462	834.083
106.074	24.900	1023.870	834.008
107.089	25.349	1023.392	835.633
108.103	25.085	1022.408	833.529
109.118	24.820	1020.763	830.884
110.133	24.832	1020.139	830.357
111.147	24.595	1018.971	828.233
112.162	24.628	1017.985	827.514
113.176	24.770	1017.700	827.863
114.191	24.778	1016.737	827.047
115.206	24.470	1015.239	824.332
116.220	24.389	1014.521	823.300
117.235	24.673	1013.457	823.676
118.249	24.577	1013.031	822.814
119.264	24.376	1012.341	821.254
120.279	24.426	1011.368	820.621
121.293	24.502	1010.858	820.483
122.308	24.503	1010.204	819.888
123.322	24.566	1008.204	818.478
124.337	24.380	1006.711	816.342
125.352	23.871	1005.531	812.990
126.366	23.839	1004.714	812.109
127.381	24.707	1005.083	816.300
128.395	25.064	1004.234	817.169
129.410	25.227	1003.733	817.427
130.424	25.241	1002.355	816.299
131.439	25.162	1001.497	815.167
132.454	25.045	1000.853	814.039
133.468	25.053	999.826	813.169
134.483	25.130	999.343	813.054
135.497	25.395	998.419	813.430
136.512	25.419	997.996	813.125
137.527	25.408	996.723	811.966
138.541	25.391	996.052	811.267
139.556	25.413	995.067	810.494
140.570	25.481	994.956	810.641
141.585	25.624	993.212	809.791
142.600	25.377	992.511	808.034
143.614	25.678	991.691	808.649
144.629	25.679	991.397	808.340
145.643	25.597	989.971	806.739
146.658	25.245	988.832	804.164
147.673	25.219	987.394	802.808
148.687	25.115	986.694	801.703
149.702	25.093	985.287	800.391
150.716	25.137	984.159	799.598
151.731	25.206	984.263	799.918
152.746	25.488	983.791	800.721
153.760	25.517	983.093	800.214
154.775	25.508	982.169	799.350
155.789	25.516	981.403	798.691
156.804	25.502	980.323	797.678
157.819	25.539	979.356	796.988
158.833	25.671	978.880	797.112
159.848	25.589	978.232	796.151
160.862	25.468	976.688	794.288
161.877	25.469	975.941	793.616
162.892	25.474	975.151	792.924
163.906	25.525	973.710	791.908
164.921	25.309	972.899	790.227
165.935	25.617	971.653	790.502
166.950	25.458	971.261	789.411
167.964	25.456	970.286	788.543
168.979	25.320	969.306	787.078
169.994	25.326	968.096	786.055
171.008	25.482	968.050	786.629
172.023	25.545	967.187	786.132
173.037	25.372	965.846	784.220
174.052	25.172	964.978	782.573
175.067	25.209	964.511	782.286
176.081	25.326	963.902	782.232
177.096	25.303	963.237	781.525
178.110	24.960	962.459	779.329
179.125	24.882	961.198	777.900
180.140	24.987	960.618	777.818
181.154	25.067	960.766	778.216
182.169	25.411	960.509	779.433
183.183	25.491	960.320	779.557
184.198	25.479	959.159	778.493
185.213	25.334	958.445	777.219
186.227	25.512	957.689	777.305
187.242	25.497	957.073	776.671
188.256	25.633	956.125	776.422
189.271	25.595	955.595	775.758
190.286	25.340	954.337	773.573
191.300	24.687	952.942	769.561
192.315	23.904	951.129	764.666
193.329	23.726	950.978	763.709
194.344	24.807	950.995	768.303
195.359	25.343	951.352	770.825
196.373	25.493	950.808	770.956
197.388	25.323	950.595	769.989
198.402	25.397	949.730	769.537
199.417	25.420	948.849	768.853
200.432	25.252	947.659	767.101
201.446	25.058	947.277	765.896
202.461	25.119	946.565	765.512
203.475	24.089	945.150	759.908
204.490	23.300	943.618	755.246
205.504	24.196	944.404	759.629
206.519	24.953	943.797	762.296
207.534	25.060	943.309	762.292
208.548	25.496	943.045	763.864
209.563	25.280	942.041	762.064
210.577	25.242	941.599	761.481
211.592	25.618	941.504	762.929
212.607	25.533	940.461	761.659
213.621	25.542	940.189	761.406
214.636	25.541	939.214	760.548
215.650	25.593	938.467	760.092
216.665	25.689	937.782	759.880
217.680	25.695	936.683	758.947
218.694	25.136	935.971	755.946
219.709	24.985	935.475	754.842
220.723	25.266	935.168	755.709
221.738	25.306	934.124	754.968
222.753	25.431	933.314	754.773
223.767	25.420	933.083	754.471
224.782	25.686	932.586	755.120
225.796	25.635	932.552	754.810
226.811	25.060	930.573	750.734
227.826	24.510	929.159	747.227
228.840	24.561	928.902	747.165
229.855	24.743	928.007	747.143
230.869	24.324	927.550	744.957
231.884	24.738	927.436	746.527
232.899	25.318	927.346	748.811
233.913	25.332	926.753	748.323
234.928	25.298	925.787	747.335
235.942	25.249	925.576	746.894
236.957	24.926	925.044	745.058
237.972	24.996	924.164	744.575
238.986	25.148	923.601	744.685
240.001	25.010	923.036	743.591
241.015	25.263	922.447	744.098
242.030	25.190	922.146	743.487
243.045	25.452	921.534	744.016
244.059	25.576	920.890	743.942
245.074	25.453	920.177	742.790
246.088	25.057	918.863	740.029
247.103	25.286	919.195	741.176
248.117	25.861	918.836	743.195
249.132	26.089	918.593	743.872
250.147	26.120	918.418	743.794
251.161	26.174	917.824	743.466
252.176	26.206	917.005	742.869
253.190	26.419	916.422	743.210
254.205	26.473	915.969	742.998
255.220	26.349	915.295	741.876
256.234	26.240	914.685	740.869
257.249	26.169	913.899	739.876
258.263	26.228	913.021	739.339
259.278	26.354	912.320	739.222
260.293	26.478	911.447	738.957
261.307	26.170	911.252	737.474
262.322	26.152	910.182	736.468
263.336	25.216	908.614	731.325
264.351	24.263	906.947	726.035
265.366	24.467	905.966	726.018
266.380	25.527	906.839	730.965
267.395	25.950	906.459	732.314
268.409	25.821	905.838	731.221
269.424	25.975	905.830	731.774
270.439	26.062	905.138	731.507
271.453	26.172	904.404	731.292
272.468	26.270	904.146	731.415
273.482	26.311	904.022	731.417
274.497	26.024	902.233	728.745
275.512	25.508	901.317	725.860
276.526	25.945	901.690	727.860
277.541	26.217	901.129	728.438
278.555	26.064	900.045	726.884
279.570	25.860	899.449	725.515
280.585	25.819	899.166	725.057
281.599	26.014	897.964	724.810
282.614	25.299	896.673	720.830
283.628	25.278	896.132	720.248
284.643	25.611	896.216	721.588
285.657	25.419	894.933	719.721
286.672	25.094	893.964	717.580
287.687	25.683	893.770	719.714
288.701	25.607	893.550	719.170
289.716	25.409	892.370	717.368
290.730	25.154	892.290	716.221
291.745	25.045	890.785	714.515
292.760	25.394	890.737	715.806
293.774	26.372	891.368	720.145
294.789	26.661	890.931	720.879
295.803	26.706	890.193	720.398
296.818	26.859	889.251	720.178
297.833	26.311	888.079	716.993
298.847	26.129	887.939	716.094
299.862	26.538	887.338	717.168
300.876	26.480	887.580	717.070
301.891	26.640	886.540	716.800
302.906	26.116	885.553	713.864
303.920	26.302	885.321	714.351
304.935	26.605	884.961	715.194
305.949	26.660	884.279	714.799
306.964	26.354	883.441	712.849
307.979	26.548	883.044	713.232
308.993	26.715	883.190	713.945
310.008	26.835	882.122	713.491
311.022	26.364	881.676	711.214
312.037	26.401	880.931	710.695
313.052	26.208	879.953	709.087
314.066	25.205	878.432	703.865
315.081	24.827	877.504	701.575
316.095	25.649	877.946	705.088
317.110	26.236	878.097	707.447
318.125	25.459	876.356	702.944
319.139	24.252	875.030	697.103
320.154	24.418	874.161	696.995
321.168	25.296	874.778	700.858
322.183	26.087	874.890	703.971
323.197	26.149	874.824	704.099
324.212	26.288	874.419	704.252
325.227	26.441	873.728	704.229
326.241	26.284	872.742	702.760
327.256	26.096	872.510	701.782
328.270	25.955	871.581	700.422
329.285	25.950	870.802	699.717
330.300	25.599	869.967	697.621
331.314	25.933	869.591	698.554
332.329	26.425	869.458	700.290
333.343	26.550	869.174	700.482
334.358	26.405	868.948	699.680
335.373	26.463	868.455	699.445
336.387	26.722	868.564	700.469
337.402	26.932	868.571	701.226
338.416	26.980	867.650	700.605
339.431	27.005	867.422	700.457
340.446	27.050	867.456	700.595
341.460	27.060	866.485	699.790
342.475	26.770	865.916	698.149
343.489	26.838	865.431	697.959
344.504	27.081	865.451	698.848
345.519	27.435	864.690	699.530
346.533	27.252	864.345	698.490
347.548	27.336	863.847	698.347
348.562	27.235	863.300	697.454
349.577	27.299	862.766	697.208
350.592	27.233	861.796	696.109
351.606	27.166	861.472	695.531
352.621	27.195	860.384	694.699
353.635	27.016	859.892	693.558
354.650	26.436	858.210	689.929
355.665	25.508	856.895	685.274
356.679	25.792	856.695	686.136
357.694	26.468	856.001	688.089
358.708	26.211	855.464	686.624
359.723	26.577	855.556	688.026
360.738	26.829	854.979	688.458
361.752	27.025	854.692	688.909
362.767	27.330	854.475	689.829
363.781	27.544	854.192	690.352
364.796	27.763	853.719	690.738
365.810	27.638	853.395	689.941
366.825	27.742	852.806	689.796
367.840	27.287	852.093	687.441
368.854	26.889	850.987	684.984
369.869	27.027	850.603	685.134
370.883	26.999	850.247	684.682
371.898	26.867	849.953	683.887
372.913	26.907	849.771	683.831
373.927	27.178	849.127	684.272
374.942	27.321	848.717	684.421
375.956	27.369	848.227	684.147
376.971	27.457	847.869	684.127
377.986	27.646	847.300	684.315
379.000	27.726	846.822	684.170
380.015	27.478	846.108	682.604
381.029	27.544	845.410	682.226
382.044	27.719	845.243	682.688
383.059	27.570	844.624	681.569
384.073	27.577	844.088	681.103
385.088	27.555	842.923	680.019
386.102	27.416	842.299	678.938
387.117	27.343	841.600	678.044
388.132	26.867	840.898	675.643
389.146	26.412	839.818	673.024
390.161	26.893	839.550	674.536
391.175	27.249	839.646	675.880
392.190	27.019	838.964	674.417
393.205	25.664	836.808	667.601
394.219	24.120	834.957	660.345
395.234	23.944	834.468	659.245
396.248	25.524	836.150	666.379
397.263	27.137	836.990	672.966
398.278	27.128	836.475	672.462
399.292	26.921	835.422	670.789
400.307	26.886	835.001	670.266
401.321	26.963	834.526	670.109
402.336	27.373	834.577	671.604
403.350	27.833	834.456	673.141
404.365	28.143	834.457	674.226
405.380	28.340	834.012	674.531
406.394	28.502	833.519	674.670
407.409	28.384	833.009	673.763
408.423	28.225	832.618	672.802
409.438	28.375	832.187	672.947
410.453	28.465	832.044	673.102
411.467	28.226	831.374	671.624
412.482	28.254	831.226	671.546
413.496	28.357	830.947	671.639
414.511	28.397	830.369	671.261
415.526	28.227	829.702	670.038
416.540	28.197	829.119	669.399
417.555	28.009	828.063	667.802
418.569	28.015	827.897	667.628
419.584	27.908	827.399	666.777
420.599	27.760	826.782	665.681
421.613	94.517	1266.212	1375.246
422.628	81.588	1330.296	1375.375
