DTS Sentinel unit serial number:	SN413079Multiplexer serial number:	ORYXHardware model number:	OX4-SRSoftware version number:	ORYX F/W v4.00 Oryx Data Collector v3.7.2.0data status	okinstallation	princeton_trtdifferential loss correction	single-endedforward channel	channel 1reverse channel	N/Adate	2019/09/16time	19:50:35forward acquisition time	60.00reverse acquisition time	0.00gamma	496.2192k internal	0.2319k external	0.2319temperature offset calibration	0.9954default loss term (dB/km)	0.3790temperature slope calibration	1.0000multiplexer offset coefficient	1.0000multiplexer slope coefficient	1.0000fibre end	0.00T internal ref (°C)	33.75T ext. ref 1 (°C)	0.09T ext. ref 2 (°C)	26.83length (m)	temperature (°C)	Stokes	anti-Stokes-747.200	-126.017	-0.118	-0.018
-746.185	403.730	-0.072	0.152
-745.171	676.295	0.076	0.199
-744.156	-80.328	-0.312	0.105
-743.142	-137.450	-0.143	-0.016
-742.127	-44.409	-0.165	0.084
-741.112	29.346	0.132	-0.113
-740.098	800.000	-0.089	0.286
-739.083	-131.171	-0.325	0.044
-738.069	-200.000	0.004	-0.112
-737.054	20.201	0.105	-0.086
-736.039	4.071	0.236	0.175
-735.025	-128.205	0.239	-0.034
-734.010	-44.340	0.252	-0.128
-732.996	-61.077	-0.265	0.113
-731.981	-58.343	0.157	0.069
-730.966	117.635	0.122	-0.152
-729.952	396.318	-0.145	-0.306
-728.937	34.152	-0.118	-0.104
-727.923	33.289	0.046	0.041
-726.908	800.000	0.053	-0.222
-725.894	-69.481	-0.192	0.074
-724.879	209.621	-0.021	0.033
-723.864	-34.109	-0.271	-0.151
-722.850	-200.000	0.000	0.106
-721.835	-19.789	0.046	-0.029
-720.821	269.343	-0.036	0.064
-719.806	-134.644	-0.191	-0.024
-718.791	94.739	-0.111	-0.128
-717.777	-200.000	0.031	-0.257
-716.762	-41.417	0.122	0.063
-715.748	800.000	0.073	0.308
-714.733	112.094	-0.089	0.109
-713.718	390.495	-0.104	-0.218
-712.704	70.778	0.027	0.029
-711.689	39.530	0.198	-0.180
-710.675	800.000	-0.068	0.291
-709.660	-200.000	0.059	0.298
-708.645	-200.000	0.017	-0.082
-707.631	-95.178	0.256	-0.070
-706.616	427.125	-0.064	-0.139
-705.602	45.831	0.288	0.269
-704.587	-163.654	-0.136	0.006
-703.572	162.194	0.138	0.196
-702.558	-200.000	0.057	0.354
-701.543	-22.427	0.205	-0.125
-700.529	455.870	-0.075	-0.167
-699.514	-32.427	0.403	-0.227
-698.499	6.889	0.129	-0.097
-697.485	-200.000	-0.014	-0.179
-696.470	4.010	-0.298	-0.220
-695.456	150.719	0.117	0.160
-694.441	329.998	0.070	-0.136
-693.426	-200.000	0.007	-0.126
-692.412	-200.000	-0.041	0.222
-691.397	38.899	-0.279	-0.252
-690.383	142.922	0.083	0.111
-689.368	-200.000	0.031	0.159
-688.354	-83.955	0.157	-0.050
-687.339	194.494	-0.129	0.198
-686.324	17.343	-0.259	-0.207
-685.310	-128.146	-0.329	-0.047
-684.295	800.000	0.112	-0.402
-683.281	-96.909	-0.221	-0.059
-682.266	120.048	-0.053	-0.066
-681.251	780.717	-0.092	-0.253
-680.237	-200.000	0.015	0.181
-679.222	-63.618	-0.197	0.081
-678.208	63.781	0.123	-0.125
-677.193	203.012	-0.045	0.070
-676.178	-74.668	0.382	0.139
-675.164	-112.024	-0.242	-0.049
-674.149	-41.295	0.267	-0.139
-673.135	-137.139	-0.221	0.025
-672.120	-126.196	0.152	0.023
-671.105	-102.697	-0.344	-0.083
-670.091	560.315	0.030	0.072
-669.076	-94.747	0.216	-0.059
-668.062	-6.721	-0.109	0.075
-667.047	-13.069	0.234	0.153
-666.032	-15.155	0.040	-0.026
-665.018	-200.000	-0.030	-0.138
-664.003	800.000	0.104	0.338
-662.989	-109.013	0.180	-0.039
-661.974	103.075	-0.104	0.123
-660.959	-28.317	-0.043	-0.025
-659.945	21.984	0.080	0.066
-658.930	-44.613	0.105	0.053
-657.916	800.000	-0.074	-0.221
-656.901	-200.000	0.020	-0.160
-655.886	12.639	-0.199	0.155
-654.872	-70.193	-0.291	0.112
-653.857	41.975	0.203	-0.185
-652.843	-51.881	-0.384	0.180
-651.828	-131.233	-0.217	0.029
-650.814	-200.000	-0.012	-0.167
-649.799	4.224	-0.225	-0.166
-648.784	150.815	-0.198	0.272
-647.770	-200.000	-0.057	-0.320
-646.755	31.726	-0.092	0.080
-645.741	191.847	0.181	-0.274
-644.726	-62.220	0.368	-0.155
-643.711	10.456	-0.151	0.116
-642.697	-200.000	0.015	-0.093
-641.682	-108.295	0.013	0.003
-640.668	800.000	-0.083	-0.280
-639.653	800.000	0.072	0.220
-638.638	43.319	-0.118	0.109
-637.624	-48.109	-0.186	0.090
-636.609	16.868	-0.198	-0.158
-635.595	71.002	-0.091	0.095
-634.580	-65.409	0.269	-0.109
-633.565	-46.518	0.167	-0.083
-632.551	175.829	0.066	-0.097
-631.536	143.840	-0.026	-0.035
-630.522	116.290	-0.181	0.223
-629.507	-145.693	0.331	0.030
-628.492	34.121	-0.291	-0.255
-627.478	800.000	-0.038	-0.107
-626.463	-200.000	0.033	0.197
-625.449	410.802	0.082	0.174
-624.434	-88.858	-0.063	0.019
-623.419	257.022	0.045	0.079
-622.405	434.978	-0.189	-0.414
-621.390	-104.447	-0.096	-0.022
-620.376	-73.131	-0.214	-0.079
-619.361	-200.000	0.019	-0.110
-618.346	370.299	-0.102	-0.209
-617.332	234.493	0.063	-0.105
-616.317	109.928	0.068	-0.082
-615.303	496.661	-0.081	-0.188
-614.288	-118.943	-0.131	0.023
-613.273	-79.071	-0.103	0.035
-612.259	-149.340	-0.244	0.020
-611.244	109.507	-0.185	0.223
-610.230	-200.000	-0.011	0.220
-609.215	-42.314	-0.202	0.104
-608.201	-73.802	-0.137	0.050
-607.186	-31.737	0.136	0.077
-606.171	-94.153	0.222	-0.061
-605.157	116.372	-0.113	-0.139
-604.142	-45.548	0.150	0.075
-603.128	231.034	-0.118	-0.194
-602.113	47.260	0.135	-0.126
-601.098	-53.506	0.264	-0.121
-600.084	155.633	0.108	0.149
-599.069	-82.149	-0.062	-0.020
-598.055	800.000	0.092	0.403
-597.040	-200.000	-0.042	-0.205
-596.025	9.572	-0.139	0.106
-595.011	5.370	0.168	0.124
-593.996	800.000	0.063	-0.221
-592.982	-149.916	0.366	0.029
-591.967	-179.748	-0.277	0.006
-590.952	31.275	-0.092	0.080
-589.938	96.377	0.144	0.166
-588.923	721.160	0.105	-0.280
-587.909	-102.385	0.204	0.049
-586.894	-200.000	-0.033	0.181
-585.879	401.040	-0.102	0.215
-584.865	-84.546	-0.274	-0.087
-583.850	64.903	-0.074	-0.075
-582.836	-200.000	-0.001	-0.052
-581.821	15.292	0.047	-0.037
-580.806	57.326	-0.121	-0.119
-579.792	-89.639	0.071	0.021
-578.777	489.923	-0.129	-0.296
-577.763	-200.000	-0.095	0.000
-576.748	1.004	0.112	-0.081
-575.733	-102.948	-0.229	0.055
-574.719	-130.404	-0.427	-0.058
-573.704	-200.000	0.053	-0.255
-572.690	800.000	-0.191	-0.564
-571.675	69.928	0.084	0.088
-570.661	800.000	-0.026	-0.105
-569.646	104.801	-0.220	0.260
-568.631	74.340	0.090	0.095
-567.617	-133.200	-0.286	0.036
-566.602	-28.991	0.280	-0.162
-565.588	217.493	0.125	-0.200
-564.573	18.303	0.181	0.145
-563.558	-84.534	0.228	-0.072
-562.544	-10.238	0.029	-0.020
-561.529	-200.000	-0.040	-0.194
-560.515	-82.728	0.078	0.025
-559.500	-200.000	0.004	-0.214
-558.485	-74.261	-0.209	-0.076
-557.471	-76.230	-0.193	0.068
-556.456	-81.010	-0.219	-0.073
-555.442	-105.126	0.121	0.028
-554.427	133.030	-0.208	0.270
-553.412	48.866	-0.127	-0.120
-552.398	800.000	0.064	0.200
-551.383	-154.044	-0.027	0.002
-550.369	-49.332	0.380	0.182
-549.354	-200.000	0.045	0.271
-548.339	-200.000	-0.028	0.145
-547.325	39.050	0.205	-0.184
-546.310	1.792	0.193	-0.139
-545.296	-78.684	-0.158	-0.054
-544.281	134.972	0.146	0.190
-543.266	456.884	0.060	-0.134
-542.252	-111.719	0.205	0.042
-541.237	-143.382	-0.141	-0.014
-540.223	-97.015	-0.226	-0.059
-539.208	800.000	-0.096	-0.270
-538.193	-126.741	0.182	-0.027
-537.179	-27.311	-0.300	-0.175
-536.164	307.767	0.213	-0.398
-535.150	323.590	0.128	0.245
-534.135	-63.800	0.280	0.115
-533.121	43.001	0.037	-0.034
-532.106	-200.000	0.016	0.197
-531.091	428.344	0.120	-0.260
-530.077	11.775	0.324	0.249
-529.062	21.910	-0.219	-0.179
-528.048	-63.655	0.114	-0.047
-527.033	519.271	0.110	0.258
-526.018	-200.000	-0.026	0.222
-525.004	-91.201	0.606	0.174
-523.989	11.758	-0.412	-0.317
-522.975	-79.545	0.135	-0.046
-521.960	-134.927	0.170	0.021
-520.945	392.052	0.085	-0.176
-519.931	-116.752	-0.252	0.046
-518.916	-200.000	-0.047	0.210
-517.902	-200.000	-0.020	-0.272
-516.887	502.888	-0.030	-0.068
-515.872	-40.049	0.069	0.036
-514.858	70.706	0.355	-0.369
-513.843	-58.139	0.131	-0.057
-512.829	319.889	-0.076	-0.144
-511.814	484.119	-0.073	0.168
-510.799	-122.602	-0.126	0.021
-509.785	-81.815	-0.361	-0.119
-508.770	-29.159	-0.227	0.130
-507.756	412.300	0.041	0.087
-506.741	537.586	-0.134	0.320
-505.726	258.705	-0.112	0.193
-504.712	800.000	-0.014	-0.059
-503.697	800.000	0.069	-0.238
-502.683	78.227	0.153	0.164
-501.668	35.664	0.321	0.282
-500.653	-46.628	0.214	-0.105
-499.639	-59.001	-0.290	-0.125
-498.624	800.000	-0.093	-0.328
-497.610	-57.177	-0.194	0.085
-496.595	281.400	0.039	0.070
-495.581	800.000	0.021	-0.071
-494.566	29.344	-0.222	-0.189
-493.551	28.924	0.215	0.182
-492.537	-200.000	0.006	-0.298
-491.522	-113.938	-0.122	-0.024
-490.508	633.807	0.029	-0.075
-489.493	-38.043	0.153	0.081
-488.478	20.904	0.178	-0.144
-487.464	800.000	0.055	-0.179
-486.449	22.317	0.071	-0.058
-485.435	219.638	0.150	-0.240
-484.420	-200.000	-0.019	-0.237
-483.405	-200.000	-0.055	0.329
-482.391	239.374	-0.058	0.097
-481.376	-200.000	-0.049	0.296
-480.362	-25.186	0.146	0.087
-479.347	115.459	0.110	-0.134
-478.332	-200.000	0.045	-0.231
-477.318	-29.337	0.064	0.037
-476.303	-63.794	-0.057	-0.023
-475.289	13.931	0.318	0.247
-474.274	-64.747	0.344	0.140
-473.259	274.795	-0.143	0.254
-472.245	9.431	0.076	-0.057
-471.230	619.768	-0.048	0.120
-470.216	-4.778	0.129	0.089
-469.201	-181.679	0.220	0.004
-468.186	-29.342	-0.182	0.104
-467.172	-200.000	-0.041	0.203
-466.157	53.705	0.288	-0.276
-465.143	-100.414	0.170	0.042
-464.128	103.233	-0.126	0.147
-463.113	-92.364	0.110	0.031
-462.099	-200.000	-0.032	-0.298
-461.084	-200.000	0.069	0.326
-460.070	-57.238	0.134	0.059
-459.055	-13.903	0.095	-0.062
-458.040	-76.652	-0.104	0.036
-457.026	-200.000	-0.008	0.209
-456.011	-22.349	0.043	-0.026
-454.997	-25.235	-0.296	-0.175
-453.982	-200.000	0.009	0.161
-452.968	-200.000	-0.035	0.193
-451.953	12.078	-0.206	0.159
-450.938	-112.243	-0.265	0.053
-449.924	-102.076	0.452	0.109
-448.909	106.080	-0.100	-0.118
-447.895	71.599	-0.125	0.130
-446.880	252.307	0.106	-0.181
-445.865	800.000	0.085	-0.289
-444.851	-53.674	0.301	0.138
-443.836	-159.156	0.196	0.011
-442.822	76.934	0.126	-0.134
-441.807	-200.000	-0.034	0.160
-440.792	138.434	0.017	-0.022
-439.778	148.592	0.141	0.190
-438.763	-30.265	0.172	0.098
-437.749	800.000	0.046	-0.155
-436.734	87.289	0.106	0.118
-435.719	-44.347	0.293	0.147
-434.705	-200.000	0.002	-0.150
-433.690	286.802	0.152	0.274
-432.676	-151.241	-0.537	0.040
-431.661	55.008	0.210	-0.203
-430.646	-87.517	-0.216	0.065
-429.632	-101.156	-0.043	-0.010
-428.617	185.908	-0.109	-0.162
-427.603	-200.000	0.027	-0.270
-426.588	22.317	-0.122	-0.099
-425.573	23.404	0.176	-0.144
-424.559	800.000	-0.123	-0.370
-423.544	-74.636	0.179	-0.064
-422.530	118.843	0.068	0.084
-421.515	374.202	0.044	0.089
-420.500	450.338	-0.032	-0.072
-419.486	-20.045	-0.031	-0.019
-418.471	144.838	0.040	0.053
-417.457	-77.973	-0.247	0.085
-416.442	-168.653	0.198	0.008
-415.428	-127.060	-0.168	0.025
-414.413	178.991	-0.136	0.199
-413.398	453.602	-0.069	0.152
-412.384	187.992	-0.025	-0.037
-411.369	32.136	-0.122	-0.105
-410.355	-200.000	-0.058	0.384
-409.340	-42.584	-0.095	-0.048
-408.325	163.193	-0.149	-0.209
-407.311	-200.000	-0.023	0.258
-406.296	772.593	0.117	-0.319
-405.282	-7.591	0.183	0.124
-404.267	339.347	0.151	-0.294
-403.252	311.652	0.130	-0.244
-402.238	-44.640	0.118	-0.059
-401.223	-119.175	-0.172	-0.030
-400.209	-200.000	0.031	0.214
-399.194	-61.773	0.118	-0.049
-398.179	800.000	0.028	0.110
-397.165	-200.000	-0.241	0.001
-396.150	-200.000	0.032	0.315
-395.136	-200.000	-0.003	0.331
-394.121	-140.241	0.404	0.042
-393.106	204.723	0.158	-0.244
-392.092	-99.079	-0.176	-0.044
-391.077	-120.029	-0.198	0.034
-390.063	220.104	0.107	-0.171
-389.048	48.779	-0.320	0.299
-388.033	68.734	0.095	-0.098
-387.019	-7.106	-0.127	-0.086
-386.004	-87.041	0.188	0.057
-384.990	-31.398	-0.367	0.206
-383.975	-123.617	0.195	0.031
-382.960	-96.262	-0.295	-0.078
-381.946	69.231	-0.207	0.212
-380.931	15.496	-0.197	-0.154
-379.917	-93.248	0.446	0.123
-378.902	800.000	-0.053	0.171
-377.888	232.311	-0.059	0.096
-376.873	677.491	-0.100	0.258
-375.858	-200.000	-0.005	-0.102
-374.844	-9.057	-0.210	0.140
-373.829	-106.892	-0.254	0.056
-372.815	-43.412	-0.351	-0.177
-371.800	717.691	0.109	0.288
-370.785	-102.606	0.228	0.054
-369.771	19.189	0.197	-0.158
-368.756	-83.457	0.325	-0.104
-367.742	-200.000	0.022	-0.153
-366.727	765.067	-0.080	-0.217
-365.712	43.062	0.115	0.105
-364.698	225.294	-0.197	0.318
-363.683	-117.895	-0.094	0.017
-362.669	-99.757	0.103	-0.026
-361.654	-200.000	0.009	-0.403
-360.639	204.863	-0.138	0.214
-359.625	-172.716	-0.287	-0.009
-358.610	543.725	-0.064	0.153
-357.596	-91.508	0.234	0.066
-356.581	-112.569	-0.112	0.022
-355.566	-68.963	0.342	0.131
-354.552	105.512	0.335	0.394
-353.537	611.558	-0.111	-0.275
-352.523	-146.881	-0.178	0.015
-351.508	13.817	0.122	0.095
-350.493	-109.379	0.095	0.020
-349.479	-125.437	0.149	0.023
-348.464	-200.000	-0.170	-0.001
-347.450	-200.000	-0.008	-0.225
-346.435	38.809	-0.156	0.139
-345.420	-133.650	-0.299	0.037
-344.406	-104.064	0.182	0.042
-343.391	-200.000	0.010	-0.126
-342.377	213.257	0.135	-0.212
-341.362	740.963	-0.069	0.185
-340.348	-143.798	-0.297	-0.028
-339.333	-200.000	0.021	0.194
-338.318	122.926	0.085	-0.106
-337.304	-57.590	0.049	-0.022
-336.289	2.665	-0.073	0.053
-335.275	800.000	0.100	-0.361
-334.260	45.440	0.099	-0.091
-333.245	-13.468	-0.168	0.109
-332.231	-200.000	0.051	-0.000
-331.216	99.018	0.147	0.169
-330.202	-200.000	-0.054	0.351
-329.187	-171.270	0.122	-0.004
-328.172	-46.832	-0.136	-0.066
-327.158	-200.000	0.177	0.000
-326.143	150.069	-0.187	0.252
-325.129	-122.529	0.206	0.033
-324.114	-200.000	0.016	-0.234
-323.099	-200.000	0.004	0.231
-322.085	-117.690	-0.092	-0.017
-321.070	-88.389	0.174	0.052
-320.056	3.936	0.098	0.071
-319.041	66.895	0.166	0.168
-318.026	800.000	0.035	0.109
-317.012	14.524	-0.300	-0.233
-315.997	-64.319	0.239	-0.097
-314.983	349.008	-0.109	0.213
-313.968	544.094	0.053	-0.126
-312.953	-53.226	0.048	-0.022
-311.939	-43.270	0.327	0.164
-310.924	42.067	-0.364	0.328
-309.910	-200.000	0.011	0.061
-308.895	800.000	0.064	-0.241
-307.880	-171.065	0.187	-0.006
-306.866	22.180	0.019	-0.015
-305.851	180.153	-0.184	0.268
-304.837	726.286	0.150	-0.396
-303.822	-69.274	-0.239	-0.091
-302.807	44.856	-0.254	-0.232
-301.793	800.000	-0.033	0.111
-300.778	-200.000	0.038	-0.243
-299.764	-163.964	0.255	-0.012
-298.749	-95.939	0.161	0.043
-297.735	310.424	0.162	0.302
-296.720	5.037	-0.231	0.169
-295.705	409.881	0.035	0.073
-294.691	-200.000	-0.004	0.129
-293.676	89.931	-0.139	-0.155
-292.662	-5.480	0.189	0.129
-291.647	-106.032	-0.098	0.022
-290.632	70.605	-0.052	0.053
-289.618	800.000	0.042	-0.151
-288.603	-157.238	-0.130	0.008
-287.589	800.000	-0.041	0.156
-286.574	800.000	0.083	0.298
-285.559	-200.000	0.083	0.526
-284.545	296.768	-0.133	0.242
-283.530	64.317	-0.135	-0.135
-282.516	2.958	0.064	0.046
-281.501	-178.593	0.282	-0.006
-280.486	-46.079	-0.340	0.166
-279.472	542.668	-0.100	0.238
-278.457	-104.741	-0.200	-0.046
-277.443	-200.000	-0.007	-0.163
-276.428	-113.467	-0.245	0.048
-275.413	30.693	-0.171	-0.145
-274.399	-31.946	-0.252	0.140
-273.384	49.721	0.077	-0.072
-272.370	-200.000	0.052	-0.616
-271.355	690.262	-0.027	0.069
-270.340	-131.582	-0.209	-0.027
-269.326	-21.581	-0.068	-0.041
-268.311	-63.023	0.340	0.139
-267.297	-200.000	0.019	-0.149
-266.282	31.455	-0.196	0.167
-265.267	-109.096	0.391	-0.083
-264.253	-48.173	0.187	-0.090
-263.238	800.000	0.095	0.369
-262.224	-200.000	-0.019	-0.135
-261.209	125.496	-0.114	0.142
-260.195	-144.941	0.217	-0.020
-259.180	-128.902	-0.181	0.025
-258.165	800.000	-0.039	0.142
-257.151	800.000	0.072	-0.278
-256.136	-80.727	-0.443	0.146
-255.122	312.301	-0.040	-0.074
-254.107	302.955	0.056	-0.102
-253.092	654.567	-0.094	0.238
-252.078	-200.000	-0.016	0.142
-251.063	243.570	-0.034	0.056
-250.049	-200.000	0.037	-0.226
-249.034	-18.495	0.101	-0.062
-248.019	-77.054	-0.074	0.025
-247.005	471.946	0.064	-0.143
-245.990	-47.200	-0.166	-0.080
-244.976	800.000	0.096	0.385
-243.961	-200.000	-0.041	0.198
-242.946	-9.819	-0.219	0.144
-241.932	54.024	-0.161	0.153
-240.917	-2.809	-0.217	0.150
-239.903	256.574	-0.166	0.283
-238.888	-200.000	-0.018	0.098
-237.873	-90.385	-0.149	0.043
-236.859	531.342	0.197	-0.461
-235.844	27.589	-0.024	-0.020
-234.830	-45.109	0.265	0.131
-233.815	-200.000	0.106	-0.635
-232.800	42.197	-0.184	0.166
-231.786	523.567	0.079	0.184
-230.771	-200.000	0.042	-0.233
-229.757	32.571	0.092	-0.079
-228.742	62.063	-0.058	0.058
-227.727	371.275	-0.050	-0.100
-226.713	46.307	0.152	-0.140
-225.698	123.258	0.089	0.111
-224.684	-147.754	-0.344	-0.029
-223.669	156.602	0.096	-0.132
-222.655	-200.000	-0.044	-0.413
-221.640	800.000	0.053	-0.212
-220.625	-200.000	0.076	0.423
-219.611	-200.000	0.002	-0.300
-218.596	-200.000	0.064	-0.487
-217.582	451.619	0.136	0.298
-216.567	66.077	0.180	-0.181
-215.552	-70.262	-0.269	0.101
-214.538	172.386	0.132	-0.188
-213.523	796.838	-0.104	0.284
-212.509	-110.142	0.166	0.034
-211.494	-200.000	0.040	0.208
-210.479	-76.852	0.062	-0.021
-209.465	97.560	-0.107	-0.122
-208.450	-95.427	-0.162	-0.043
-207.436	37.193	-0.051	0.045
-206.421	-1.548	-0.051	0.036
-205.406	800.000	0.009	0.037
-204.392	201.268	-0.122	-0.187
-203.377	-105.084	-0.244	0.055
-202.363	-155.934	0.327	0.021
-201.348	-200.000	0.036	0.326
-200.333	-99.086	0.115	0.029
-199.319	-200.000	-0.013	0.129
-198.304	-26.278	0.145	0.085
-197.290	-68.115	-0.062	-0.024
-196.275	-200.000	0.054	-0.272
-195.260	-73.755	-0.089	-0.032
-194.246	-200.000	0.028	-0.133
-193.231	-200.000	0.007	-0.211
-192.217	42.530	0.114	0.103
-191.202	557.432	-0.061	0.147
-190.187	-45.422	0.286	0.141
-189.173	-200.000	-0.029	-0.170
-188.158	72.374	0.144	-0.149
-187.144	310.361	0.056	-0.104
-186.129	-200.000	-0.007	0.184
-185.114	-200.000	-0.011	0.172
-184.100	210.005	0.110	0.170
-183.085	32.017	0.054	-0.046
-182.071	-57.495	-0.156	0.068
-181.056	-62.293	0.282	-0.116
-180.042	-200.000	-0.043	0.291
-179.027	-200.000	0.001	-0.165
-178.012	800.000	-0.057	-0.187
-176.998	800.000	-0.058	-0.219
-175.983	124.782	0.098	-0.122
-174.969	-52.204	-0.214	-0.098
-173.954	-75.991	-0.283	-0.099
-172.939	483.777	-0.099	-0.223
-171.925	208.700	-0.143	-0.222
-170.910	800.000	-0.107	-0.393
-169.896	72.381	0.186	-0.192
-168.881	-200.000	-0.027	-0.225
-167.866	406.681	-0.115	0.240
-166.852	800.000	0.039	0.144
-165.837	0.823	-0.068	0.048
-164.823	800.000	0.056	0.185
-163.808	8.973	-0.108	0.081
-162.793	-123.605	0.077	0.012
-161.779	800.000	-0.041	-0.114
-160.764	-60.128	0.090	0.038
-159.750	-155.532	0.150	0.010
-158.735	247.258	-0.149	-0.249
-157.720	-82.083	0.063	-0.020
-156.706	-22.783	0.135	-0.080
-155.691	-36.495	-0.088	0.047
-154.677	-105.047	-0.380	0.086
-153.662	-119.455	0.119	0.020
-152.647	-36.665	0.331	0.176
-151.633	-41.490	-0.220	0.112
-150.618	201.016	0.068	0.103
-149.604	-190.989	-0.323	-0.003
-148.589	-58.447	0.379	-0.163
-147.574	-24.430	-0.230	0.135
-146.560	-157.919	0.380	-0.022
-145.545	-200.000	-0.011	-0.374
-144.531	464.961	-0.065	-0.145
-143.516	-62.225	0.238	-0.098
-142.502	-149.247	0.393	0.031
-141.487	-29.009	0.197	0.112
-140.472	-143.955	0.209	0.019
-139.458	-3.777	0.158	-0.108
-138.443	373.544	0.114	-0.229
-137.429	-42.341	0.236	0.119
-136.414	-94.995	0.016	0.004
-135.399	277.162	-0.023	-0.040
-134.385	-200.000	-0.027	-0.122
-133.370	144.334	0.073	-0.096
-132.356	104.587	-0.150	-0.174
-131.341	-200.000	-0.063	0.351
-130.326	-104.405	-0.171	0.039
-129.312	273.515	-0.160	0.280
-128.297	-200.000	0.009	-0.293
-127.283	800.000	0.026	0.099
-126.268	19.979	-0.275	0.219
-125.253	4.129	-0.236	-0.170
-124.239	111.850	-0.083	-0.099
-123.224	-51.473	0.256	0.118
-122.210	41.681	0.171	-0.153
-121.195	800.000	-0.016	0.063
-120.180	-74.051	0.296	-0.106
-119.166	184.258	-0.130	0.190
-118.151	800.000	-0.060	-0.216
-117.137	-23.411	0.243	0.144
-116.122	-112.124	-0.318	-0.063
-115.107	-57.632	0.721	-0.312
-114.093	611.068	0.047	-0.115
-113.078	-4.209	0.202	-0.138
-112.064	800.000	0.114	-0.363
-111.049	800.000	0.066	0.233
-110.034	155.963	0.028	0.038
-109.020	104.205	0.258	0.299
-108.005	220.108	-0.204	0.322
-106.991	-200.000	0.027	-0.150
-105.976	-193.411	-0.374	0.003
-104.962	323.357	-0.038	0.072
-103.947	167.561	0.241	0.337
-102.932	69.760	0.148	0.150
-101.918	53.083	-0.108	-0.102
-100.903	-200.000	-0.024	0.224
-99.889	114.169	-0.186	0.223
-98.874	800.000	0.124	-0.512
-97.859	-179.300	0.398	0.009
-96.845	-66.962	-0.132	-0.051
-95.830	45.257	-0.078	-0.071
-94.816	7.371	0.211	0.156
-93.801	209.393	0.130	0.201
-92.786	-58.906	0.275	-0.117
-91.772	342.460	-0.137	-0.265
-90.757	-116.851	-0.255	-0.046
-89.743	257.679	-0.105	0.177
-88.728	-141.662	0.303	-0.030
-87.713	-28.658	0.113	-0.064
-86.699	-200.000	0.054	-0.299
-85.684	213.284	0.123	0.191
-84.670	29.174	0.148	0.124
-83.655	83.471	-0.123	-0.132
-82.640	-200.000	-0.012	-0.057
-81.626	-200.000	0.051	-0.233
-80.611	-52.963	0.034	-0.015
-79.597	116.464	0.195	0.236
-78.582	74.149	0.157	-0.162
-77.567	704.270	0.088	0.230
-76.553	-25.807	-0.054	-0.031
-75.538	-53.608	-0.036	-0.016
-74.524	-68.334	-0.168	0.065
-73.509	800.000	-0.060	-0.212
-72.494	-89.391	-0.202	-0.059
-71.480	-200.000	-0.035	-0.291
-70.465	183.767	0.185	-0.269
-69.451	15.969	-0.013	-0.010
-68.436	104.821	-0.135	0.157
-67.422	800.000	-0.044	0.172
-66.407	-141.861	-0.505	-0.050
-65.392	177.366	0.258	0.371
-64.378	-65.127	0.103	-0.041
-63.363	-200.000	-0.019	-0.121
-62.349	455.176	0.140	0.306
-61.334	51.616	-0.940	-0.880
-60.319	413.394	0.250	0.523
-59.305	-200.000	-0.098	-0.778
-58.290	278.552	0.617	1.082
-57.276	686.131	0.578	1.486
-56.261	-200.000	93.157	547.583
-55.246	540.006	1372.685	3216.775
-54.232	160.325	2547.805	3498.358
-53.217	112.945	2150.358	2565.561
-52.203	45.087	1613.454	1463.501
-51.188	37.266	1350.462	1177.711
-50.173	33.984	1308.550	1121.793
-49.159	55.937	1353.177	1292.010
-48.144	58.413	1370.702	1323.513
-47.130	37.509	1330.373	1161.461
-46.115	33.915	1313.587	1125.523
-45.100	33.673	1308.891	1120.025
-44.086	33.655	1306.016	1117.414
-43.071	33.623	1304.101	1115.545
-42.057	33.563	1302.401	1113.690
-41.042	33.662	1300.573	1112.666
-40.027	33.615	1299.257	1111.220
-39.013	33.635	1297.097	1109.445
-37.998	33.601	1295.270	1107.640
-36.984	33.670	1293.376	1106.377
-35.969	33.607	1292.644	1105.340
-34.954	33.717	1290.404	1104.022
-33.940	33.766	1289.322	1103.338
-32.925	33.914	1287.348	1102.463
-31.911	33.839	1286.339	1101.122
-30.896	33.881	1284.907	1100.097
-29.881	33.891	1283.192	1098.640
-28.867	33.812	1281.856	1096.995
-27.852	33.914	1280.286	1096.200
-26.838	33.888	1279.170	1095.053
-25.823	33.868	1277.618	1093.562
-24.809	33.792	1276.563	1092.179
-23.794	33.826	1275.018	1091.007
-22.779	33.899	1273.585	1090.157
-21.765	33.919	1272.454	1089.259
-20.750	33.835	1271.298	1087.747
-19.736	33.838	1269.803	1086.441
-18.721	33.687	1269.146	1084.972
-17.706	33.678	1268.040	1083.932
-16.692	33.824	1266.461	1083.374
-15.677	33.609	1265.768	1081.514
-14.663	33.626	1264.668	1080.629
-13.648	33.674	1263.545	1079.899
-12.633	33.831	1262.449	1079.812
-11.619	33.667	1261.990	1078.441
-10.604	33.678	1261.129	1077.724
-9.590	33.664	1259.887	1076.546
-8.575	33.639	1259.064	1075.656
-7.560	33.756	1258.082	1075.436
-6.546	33.637	1257.428	1074.162
-5.531	33.665	1256.402	1073.398
-4.517	33.642	1255.790	1072.707
-3.502	33.713	1254.714	1072.143
-2.487	33.677	1253.784	1071.107
-1.473	33.619	1249.894	1067.414
-0.458	31.847	1234.499	1044.360
0.556	25.873	1215.727	1001.697
1.571	21.606	1221.014	982.087
2.586	20.608	1235.382	987.892
3.600	20.045	1224.782	976.153
4.615	14.868	1151.419	890.111
5.629	5.255	1074.206	782.388
6.644	0.469	1052.890	743.261
7.659	0.081	1050.502	739.600
8.673	-0.038	1049.358	738.147
9.688	-0.150	1048.078	736.629
10.702	0.235	1046.368	737.251
11.717	5.726	1054.071	769.629
12.731	14.569	1065.305	821.482
13.746	17.997	1068.704	840.933
14.761	17.044	1067.199	834.992
15.775	16.110	1064.635	828.322
16.790	14.994	1062.644	821.227
17.804	14.362	1061.050	816.823
18.819	13.989	1060.227	814.293
19.834	13.728	1059.161	812.123
20.848	13.377	1058.348	809.712
21.863	13.225	1057.845	808.508
22.877	13.048	1056.887	806.843
23.892	13.080	1055.802	806.100
24.907	13.014	1055.468	805.449
25.921	13.154	1054.473	805.300
26.936	13.089	1053.929	804.497
27.950	13.085	1053.124	803.793
28.965	13.266	1051.636	803.467
29.980	13.311	1050.216	802.528
30.994	13.304	1049.325	801.742
32.009	13.343	1048.006	800.852
33.023	13.297	1047.095	799.862
34.038	13.296	1046.416	799.271
35.053	13.327	1045.379	798.555
36.067	13.323	1044.383	797.703
37.082	13.216	1044.101	796.902
38.096	13.272	1043.096	796.337
39.111	13.225	1042.549	795.620
40.126	13.170	1041.351	794.373
41.140	13.098	1040.073	792.981
42.155	13.007	1038.934	791.608
43.169	12.899	1037.817	790.167
44.184	13.055	1036.570	789.894
45.199	12.920	1035.817	788.606
46.213	13.140	1034.691	788.727
47.228	13.163	1034.003	788.244
48.242	13.151	1032.651	787.085
49.257	13.121	1032.073	786.433
50.271	13.139	1031.016	785.647
51.286	13.184	1030.111	785.100
52.301	13.160	1029.049	784.105
53.315	13.196	1028.062	783.457
54.330	13.061	1027.106	782.016
55.344	13.096	1025.962	781.246
56.359	13.050	1025.510	780.613
57.374	13.105	1024.669	780.162
58.388	13.029	1023.704	779.001
59.403	13.005	1023.031	778.307
60.417	13.122	1021.777	777.833
61.432	12.909	1021.435	776.505
62.447	12.995	1020.129	775.847
63.461	12.993	1019.407	775.217
64.476	12.862	1018.812	774.084
65.490	12.901	1018.044	773.615
66.505	12.982	1017.133	773.234
67.520	13.009	1016.609	772.893
68.534	13.040	1015.853	772.395
69.549	13.045	1015.114	771.785
70.563	12.861	1014.552	770.431
71.578	12.875	1013.612	769.718
72.593	12.931	1012.570	769.118
73.607	12.867	1012.072	768.372
74.622	12.878	1011.750	768.111
75.636	12.928	1010.816	767.569
76.651	12.970	1010.491	767.447
77.666	12.859	1009.990	766.484
78.680	12.952	1008.916	766.033
79.695	13.070	1008.273	766.022
80.709	12.958	1007.743	765.036
81.724	12.906	1007.266	764.363
82.739	13.160	1006.086	764.575
83.753	13.144	1005.192	763.756
84.768	13.305	1004.629	764.004
85.782	13.330	1003.758	763.390
86.797	13.234	1002.680	762.059
87.812	13.128	1001.925	760.930
88.826	13.184	1001.092	760.485
89.841	13.164	1000.143	759.605
90.855	13.347	999.038	759.540
91.870	13.286	998.547	758.822
92.884	13.345	997.599	758.304
93.899	13.275	997.111	757.544
94.914	13.419	996.358	757.564
95.928	13.413	995.583	756.883
96.943	13.405	994.402	755.880
97.957	13.292	993.799	754.839
98.972	13.217	992.822	753.689
99.987	13.264	991.867	753.110
101.001	13.303	990.998	752.562
102.016	13.264	989.832	751.434
103.030	13.185	989.541	750.786
104.045	13.250	988.700	750.376
105.060	13.195	988.003	749.530
106.074	13.272	986.764	748.873
107.089	13.112	985.820	747.369
108.103	13.173	984.932	746.901
109.118	13.119	984.063	745.934
110.133	13.174	982.997	745.308
111.147	13.093	982.063	744.169
112.162	13.042	981.369	743.348
113.176	13.130	981.153	743.512
114.191	13.267	980.254	743.384
115.206	13.247	979.300	742.505
116.220	13.249	978.382	741.752
117.235	13.276	977.095	740.831
118.249	13.178	976.678	740.010
119.264	13.074	976.046	739.001
120.279	13.233	975.048	738.890
121.293	13.122	974.385	737.829
122.308	13.178	973.711	737.503
123.322	13.039	972.754	736.092
124.337	13.117	972.114	735.890
125.352	13.269	970.569	735.330
126.366	13.132	969.347	733.734
127.381	13.050	968.849	732.928
128.395	13.191	967.654	732.582
129.410	13.120	966.678	731.463
130.424	13.142	965.993	730.979
131.439	13.308	964.666	730.644
132.454	13.209	964.630	730.116
133.468	13.334	963.525	729.766
134.483	13.227	962.972	728.811
135.497	13.339	961.753	728.317
136.512	13.259	961.012	727.337
137.527	13.225	960.444	726.694
138.541	13.174	959.315	725.551
139.556	13.209	959.010	725.411
140.570	13.465	958.197	725.853
141.585	13.413	957.243	724.839
142.600	13.314	956.789	723.998
143.614	13.470	955.662	723.762
144.629	13.453	955.090	723.191
145.643	13.353	954.101	721.944
146.658	13.273	952.922	720.636
147.673	13.224	951.619	719.374
148.687	13.283	951.705	719.635
149.702	13.181	950.539	718.243
150.716	13.297	949.396	717.822
151.731	13.316	949.022	717.558
152.746	13.410	947.966	717.102
153.760	13.263	947.601	716.127
154.775	13.313	946.985	715.814
155.789	13.379	946.354	715.559
156.804	13.420	945.690	715.171
157.819	13.488	945.069	714.934
158.833	13.538	944.551	714.691
159.848	13.591	943.697	714.212
160.862	13.498	942.689	712.986
161.877	13.513	941.710	712.248
162.892	13.365	940.540	710.662
163.906	13.374	939.768	710.056
164.921	13.523	938.852	709.939
165.935	13.354	938.439	708.838
166.950	13.417	937.154	708.075
167.964	13.342	936.749	707.386
168.979	13.461	935.518	706.902
169.994	13.467	934.649	706.207
171.008	13.381	934.582	705.730
172.023	13.537	933.585	705.576
173.037	13.557	932.896	705.078
174.052	13.590	932.228	704.651
175.067	13.536	931.410	703.743
176.081	13.433	931.005	702.939
177.096	13.519	930.690	703.003
178.110	13.645	929.402	702.500
179.125	13.484	928.986	701.444
180.140	13.564	928.430	701.298
181.154	13.630	928.226	701.361
182.169	13.699	927.650	701.159
183.183	13.661	926.993	700.436
184.198	13.716	926.019	699.871
185.213	13.816	924.988	699.452
186.227	13.763	924.692	698.945
187.242	13.786	924.287	698.672
188.256	13.809	923.467	698.089
189.271	13.877	922.333	697.455
190.286	13.724	921.717	696.283
191.300	13.587	921.009	695.114
192.315	13.631	920.240	694.655
193.329	13.625	920.020	694.404
194.344	13.654	919.220	693.858
195.359	13.620	918.715	693.273
196.373	13.655	918.506	693.201
197.388	13.876	917.818	693.543
198.402	13.946	917.058	693.203
199.417	13.957	916.225	692.554
200.432	14.026	915.605	692.315
201.446	14.085	915.326	692.287
202.461	14.268	914.279	692.197
203.475	13.972	914.281	690.903
204.490	14.078	913.571	690.746
205.504	13.975	912.739	689.631
206.519	13.989	912.210	689.226
207.534	13.986	911.131	688.337
208.548	14.006	910.398	687.806
209.563	13.959	909.826	687.120
210.577	14.047	909.477	687.160
211.592	14.068	908.652	686.562
212.607	13.962	908.043	685.604
213.621	14.081	907.350	685.508
214.636	14.132	906.438	684.968
215.650	14.063	906.007	684.299
216.665	14.121	905.469	684.069
217.680	14.301	904.416	683.955
218.694	14.263	903.515	683.058
219.709	14.200	903.256	682.543
220.723	14.231	902.617	682.126
221.738	14.270	901.318	681.242
222.753	14.156	900.991	680.470
223.767	14.344	900.268	680.633
224.782	14.419	900.081	680.736
225.796	14.449	899.622	680.452
226.811	14.450	898.648	679.660
227.826	14.305	898.084	678.581
228.840	14.293	897.342	677.910
229.855	14.362	895.829	676.991
230.869	14.250	895.695	676.372
231.884	14.440	894.746	676.367
232.899	14.265	894.509	675.417
233.913	14.429	893.664	675.385
234.928	14.350	893.281	674.715
235.942	14.239	892.634	673.717
236.957	14.320	891.864	673.407
237.972	14.324	891.107	672.788
238.986	14.325	890.941	672.609
240.001	14.261	890.384	671.871
241.015	14.415	889.461	671.736
242.030	14.435	889.149	671.520
243.045	14.334	888.450	670.529
244.059	14.292	887.942	669.918
245.074	14.448	887.372	670.054
246.088	14.385	886.652	669.199
247.103	14.506	886.131	669.230
248.117	14.652	885.166	669.028
249.132	14.576	885.271	668.744
250.147	14.841	883.669	668.536
251.161	14.794	883.502	668.161
252.176	14.746	882.909	667.460
253.190	14.861	882.097	667.248
254.205	14.873	881.458	666.755
255.220	14.970	880.740	666.539
256.234	14.830	880.538	665.770
257.249	14.866	879.938	665.397
258.263	14.748	878.872	664.064
259.278	14.863	878.010	663.812
260.293	14.961	877.661	663.876
261.307	14.996	877.257	663.651
262.322	14.931	876.491	662.758
263.336	14.990	875.489	662.172
264.351	15.046	874.950	661.928
265.366	15.076	874.232	661.446
266.380	15.036	873.794	660.898
267.395	15.063	873.333	660.596
268.409	15.038	872.681	659.948
269.424	15.040	871.244	658.812
270.439	15.185	870.511	658.767
271.453	15.103	870.115	658.088
272.468	15.148	869.593	657.811
273.482	15.062	869.529	657.368
274.497	15.124	868.300	656.622
275.512	14.972	868.323	655.985
276.526	15.077	867.938	656.050
277.541	15.103	867.086	655.447
278.555	15.199	866.468	655.298
279.570	15.308	865.942	655.270
280.585	15.228	865.112	654.272
281.599	15.233	864.192	653.537
282.614	15.181	863.832	653.003
283.628	15.196	863.225	652.546
284.643	15.233	862.740	652.267
285.657	15.241	861.987	651.667
286.672	15.294	861.371	651.351
287.687	15.376	860.756	651.145
288.701	15.325	860.281	650.531
289.716	15.317	859.556	649.896
290.730	15.275	858.856	649.144
291.745	15.339	858.535	649.094
292.760	15.456	857.975	649.065
293.774	15.410	857.249	648.282
294.789	15.563	856.108	647.952
295.803	15.323	855.829	646.755
296.818	15.374	855.005	646.275
297.833	15.395	854.285	645.752
298.847	15.520	853.595	645.653
299.862	15.519	853.341	645.403
300.876	15.595	852.436	644.951
301.891	15.525	852.280	644.507
302.906	15.545	851.683	644.075
303.920	15.725	850.946	644.152
304.935	15.706	850.503	643.685
305.949	15.742	849.999	643.386
306.964	15.633	849.322	642.398
307.979	15.719	848.736	642.226
308.993	15.788	848.306	642.110
310.008	15.593	847.793	640.921
311.022	15.708	847.071	640.756
312.037	15.564	846.709	639.875
313.052	15.646	846.109	639.679
314.066	15.651	845.702	639.332
315.081	15.655	845.207	638.918
316.095	15.765	844.062	638.415
317.110	15.705	843.833	637.957
318.125	15.750	843.332	637.691
319.139	15.690	842.792	637.001
320.154	15.786	842.150	636.823
321.168	15.684	841.687	636.030
322.183	15.657	841.335	635.604
323.197	15.824	840.755	635.741
324.212	15.818	840.345	635.352
325.227	15.793	839.668	634.692
326.241	15.757	838.750	633.805
327.256	15.776	838.503	633.632
328.270	15.736	837.675	632.801
329.285	15.819	837.322	632.791
330.300	15.912	836.395	632.384
331.314	15.880	836.364	632.184
332.329	15.906	835.833	631.825
333.343	15.801	835.490	631.115
334.358	15.824	835.477	631.137
335.373	15.823	834.720	630.504
336.387	15.810	834.735	630.410
337.402	16.017	834.047	630.609
338.416	16.018	833.906	630.451
339.431	16.126	833.078	630.174
340.446	16.026	833.045	629.721
341.460	16.245	832.263	629.888
342.475	16.057	832.642	629.417
343.489	16.153	831.608	628.940
344.504	16.214	831.262	628.851
345.519	16.285	830.763	628.680
346.533	16.210	830.325	628.013
347.548	16.278	829.359	627.481
348.562	16.120	829.141	626.674
349.577	16.137	828.609	626.280
350.592	16.235	827.659	625.868
351.606	16.209	827.154	625.336
352.621	16.154	826.804	624.812
353.635	16.218	825.859	624.279
354.650	16.294	825.320	624.097
355.665	16.482	824.178	623.874
356.679	16.406	823.604	623.102
357.694	16.287	823.249	622.340
358.708	16.305	822.424	621.729
359.723	16.344	822.180	621.631
360.738	16.370	822.000	621.536
361.752	16.394	821.264	621.011
362.767	16.348	820.819	620.452
363.781	16.505	819.965	620.330
364.796	16.547	819.675	620.209
365.810	16.591	819.535	620.210
366.825	16.610	818.957	619.784
367.840	16.531	818.425	619.040
368.854	16.552	817.738	618.543
369.869	16.592	817.268	618.278
370.883	16.584	817.053	618.029
371.898	16.575	816.929	617.848
372.913	16.650	816.344	617.626
373.927	16.648	815.893	617.222
374.942	16.686	815.166	616.757
375.956	16.795	814.881	616.884
376.971	16.806	814.443	616.539
377.986	16.824	813.884	616.124
379.000	16.743	813.627	615.582
380.015	16.801	812.909	615.193
381.029	16.893	812.447	615.126
382.044	16.761	811.682	614.013
383.059	16.805	811.304	613.830
384.073	16.786	810.920	613.418
385.088	16.915	810.372	613.416
386.102	16.827	809.400	612.308
387.117	16.765	809.137	611.832
388.132	16.764	808.783	611.506
389.146	16.833	808.127	611.205
390.161	16.919	807.401	610.909
391.175	17.048	806.773	610.847
392.190	16.888	806.453	609.973
393.205	16.805	806.336	609.532
394.219	16.880	805.899	609.419
395.234	16.864	805.457	608.974
396.248	16.835	804.932	608.419
397.263	16.810	804.561	607.995
398.278	16.924	804.113	608.011
399.292	16.876	803.650	607.433
400.307	16.983	803.279	607.483
401.321	16.879	802.896	606.767
402.336	16.903	802.201	606.275
403.350	17.007	801.782	606.277
404.365	16.932	801.559	605.785
405.380	17.001	801.144	605.665
406.394	17.229	800.401	605.864
407.409	17.174	799.920	605.247
408.423	17.146	799.746	604.962
409.438	17.283	799.427	605.158
410.453	17.316	799.059	604.944
411.467	17.311	798.322	604.314
412.482	17.279	798.070	603.955
413.496	17.258	797.771	603.602
414.511	17.393	797.295	603.665
415.526	17.320	796.872	603.032
416.540	17.344	796.523	602.802
417.555	17.409	796.068	602.633
418.569	17.368	795.546	602.041
419.584	17.486	795.055	602.032
420.599	17.450	794.564	601.479
421.613	105.955	1286.218	1450.432
422.628	90.928	1357.825	1450.528
