DTS Sentinel unit serial number:	SN413079Multiplexer serial number:	ORYXHardware model number:	OX4-SRSoftware version number:	ORYX F/W v4.00 Oryx Data Collector v3.7.2.0data status	okinstallation	princeton_trtdifferential loss correction	single-endedforward channel	channel 1reverse channel	N/Adate	2019/09/15time	02:10:35forward acquisition time	60.00reverse acquisition time	0.00gamma	496.2192k internal	0.2322k external	0.2322temperature offset calibration	0.9981default loss term (dB/km)	0.3790temperature slope calibration	1.0000multiplexer offset coefficient	1.0000multiplexer slope coefficient	1.0000fibre end	0.00T internal ref (°C)	31.69T ext. ref 1 (°C)	4.55T ext. ref 2 (°C)	26.30length (m)	temperature (°C)	Stokes	anti-Stokes-747.200	-200.000	-0.045	0.295
-746.185	-115.212	-0.286	0.055
-745.171	-200.000	-0.006	0.584
-744.156	-55.453	-0.095	0.043
-743.142	-43.286	-0.363	0.186
-742.127	-103.701	-0.222	-0.053
-741.112	-2.708	0.208	-0.147
-740.098	-200.000	0.003	0.075
-739.083	800.000	0.066	-0.200
-738.069	-12.245	-0.198	-0.131
-737.054	-200.000	-0.018	0.160
-736.039	800.000	-0.090	-0.260
-735.025	241.716	0.114	0.192
-734.010	-1.238	0.042	0.030
-732.996	-139.847	-0.158	0.017
-731.981	-36.994	0.162	-0.088
-730.966	-34.137	0.069	-0.038
-729.952	-50.854	-0.355	-0.169
-728.937	115.121	-0.221	0.273
-727.923	352.596	0.062	-0.124
-726.908	179.843	-0.173	0.256
-725.894	198.205	0.147	-0.227
-724.879	398.738	0.126	-0.266
-723.864	-200.000	0.014	0.246
-722.850	-44.551	0.174	-0.088
-721.835	-123.379	0.194	-0.031
-720.821	85.831	0.224	-0.248
-719.806	-113.183	-0.189	-0.038
-718.791	-57.505	-0.479	-0.212
-717.777	406.541	-0.089	0.191
-716.762	222.524	0.144	0.234
-715.748	100.274	0.054	0.063
-714.733	-141.771	-0.300	-0.030
-713.718	-129.787	-0.181	0.025
-712.704	17.783	-0.092	0.074
-711.689	-47.653	0.272	-0.133
-710.675	776.075	-0.087	-0.239
-709.660	-200.000	-0.037	-0.263
-708.645	-94.911	-0.315	0.086
-707.631	598.138	-0.057	-0.143
-706.616	79.526	-0.043	0.046
-705.602	-43.998	-0.124	0.063
-704.587	280.655	-0.205	0.371
-703.572	154.308	-0.081	0.111
-702.558	-200.000	0.025	-0.163
-701.543	-200.000	-0.017	-0.098
-700.529	-200.000	0.022	0.157
-699.514	800.000	-0.050	-0.171
-698.499	-33.886	0.100	-0.056
-697.485	483.874	0.159	0.366
-696.470	-200.000	-0.000	0.061
-695.456	-66.591	0.217	0.087
-694.441	-200.000	0.011	-0.057
-693.426	-121.672	-0.200	0.033
-692.412	613.165	-0.118	-0.298
-691.397	134.852	-0.239	-0.312
-690.383	-157.397	0.205	-0.012
-689.368	800.000	0.049	-0.141
-688.354	78.563	0.182	-0.196
-687.339	172.830	0.109	0.158
-686.324	111.837	0.114	-0.138
-685.310	-133.210	-0.049	-0.006
-684.295	-200.000	-0.001	-0.428
-683.281	88.590	-0.129	-0.144
-682.266	144.315	-0.135	0.181
-681.251	-73.578	0.292	0.107
-680.237	-91.043	-0.117	-0.034
-679.222	-43.767	-0.342	-0.174
-678.208	-200.000	0.011	-0.054
-677.193	319.565	-0.161	0.308
-676.178	-200.000	0.034	-0.251
-675.164	-200.000	0.013	0.171
-674.149	-200.000	0.047	0.241
-673.135	333.618	-0.178	-0.346
-672.120	-64.507	-0.354	0.145
-671.105	527.979	0.061	-0.145
-670.091	122.699	-0.127	-0.160
-669.076	800.000	-0.030	-0.122
-668.062	591.527	0.143	0.356
-667.047	-200.000	-0.060	-0.273
-666.032	-171.628	0.290	0.010
-665.018	472.379	0.074	-0.168
-664.003	341.950	-0.156	-0.307
-662.989	-200.000	-0.000	-0.046
-661.974	-111.517	-0.104	0.021
-660.959	642.990	-0.007	-0.017
-659.945	35.440	-0.052	-0.046
-658.930	800.000	0.041	-0.142
-657.916	671.671	0.045	0.117
-656.901	-200.000	0.006	-0.370
-655.886	-80.121	0.282	0.095
-654.872	-200.000	0.003	0.041
-653.857	-31.644	0.054	-0.030
-652.843	-200.000	-0.082	-0.386
-651.828	286.256	-0.193	-0.350
-650.814	-200.000	-0.030	0.142
-649.799	453.152	-0.071	0.159
-648.784	-53.950	0.142	0.065
-647.770	172.000	-0.065	0.094
-646.755	-41.810	-0.049	0.025
-645.741	-26.731	-0.226	0.133
-644.726	-168.684	-0.155	-0.006
-643.711	-79.642	-0.109	-0.037
-642.697	800.000	-0.038	0.121
-641.682	137.402	-0.114	-0.150
-640.668	246.828	0.235	0.399
-639.653	630.110	-0.056	-0.143
-638.638	544.405	-0.059	-0.141
-637.624	-196.815	0.088	-0.001
-636.609	180.342	0.187	0.276
-635.595	-101.778	0.035	-0.009
-634.580	-92.011	-0.192	-0.055
-633.565	20.102	0.016	0.013
-632.551	-10.832	0.259	0.172
-631.536	-9.123	-0.060	0.040
-630.522	281.737	-0.218	-0.393
-629.507	212.825	-0.163	-0.258
-628.492	-172.694	0.523	0.016
-627.478	-200.000	0.038	-0.269
-626.463	800.000	0.050	0.171
-625.449	-200.000	-0.016	0.219
-624.434	800.000	-0.115	-0.339
-623.419	-99.605	0.380	-0.096
-622.405	64.918	-0.315	0.320
-621.390	-44.440	0.093	-0.047
-620.376	523.741	-0.074	0.176
-619.361	-200.000	0.068	0.582
-618.346	-200.000	-0.026	-0.320
-617.332	-87.081	0.357	0.109
-616.317	331.470	0.114	0.221
-615.303	800.000	0.048	-0.168
-614.288	-88.625	-0.144	0.043
-613.273	-98.799	0.230	-0.059
-612.259	-80.311	0.292	0.098
-611.244	347.201	0.119	-0.235
-610.230	209.137	-0.190	-0.300
-609.215	-200.000	0.033	0.271
-608.201	174.767	0.131	0.190
-607.186	-17.670	-0.108	-0.068
-606.171	-19.428	-0.150	-0.093
-605.157	-136.821	-0.419	0.048
-604.142	317.611	0.105	-0.200
-603.128	-14.893	-0.275	0.177
-602.113	-123.727	0.238	-0.038
-601.098	1.082	-0.199	-0.144
-600.084	-154.511	-0.226	0.015
-599.069	574.120	-0.064	-0.158
-598.055	443.747	0.044	-0.098
-597.040	-200.000	-0.057	0.341
-596.025	800.000	-0.063	-0.179
-595.011	-54.627	0.079	0.036
-593.996	-0.306	0.285	-0.204
-592.982	-200.000	-0.001	0.201
-591.967	-200.000	0.023	0.105
-590.952	800.000	0.052	0.203
-589.938	237.901	-0.034	-0.057
-588.923	79.991	0.155	0.168
-587.909	-48.899	0.284	0.137
-586.894	-200.000	-0.030	-0.239
-585.879	163.803	-0.064	0.091
-584.865	-200.000	-0.118	-0.000
-583.850	-200.000	0.041	-0.240
-582.836	70.214	-0.151	-0.157
-581.821	800.000	-0.048	0.203
-580.806	82.996	-0.083	0.091
-579.792	-88.940	0.349	0.104
-578.777	-98.727	-0.338	-0.087
-577.763	-55.970	0.322	-0.144
-576.748	-57.343	-0.155	-0.068
-575.733	-176.836	0.209	-0.005
-574.719	776.498	0.118	-0.323
-573.704	800.000	0.045	0.180
-572.690	93.293	-0.243	0.276
-571.675	-166.507	0.049	-0.002
-570.661	-120.422	0.135	-0.023
-569.646	21.647	-0.222	-0.181
-568.631	-200.000	-0.019	-0.217
-567.617	1.659	-0.034	0.025
-566.602	209.335	-0.079	-0.125
-565.588	420.944	0.103	0.222
-564.573	442.457	-0.129	-0.285
-563.558	336.585	-0.236	-0.459
-562.544	-85.890	0.113	-0.035
-561.529	800.000	-0.195	-0.540
-560.515	-200.000	-0.006	-0.140
-559.500	-95.549	-0.233	-0.063
-558.485	-135.474	0.347	-0.042
-557.471	-43.100	0.046	-0.023
-556.456	-136.573	-0.399	-0.046
-555.442	-172.178	-0.369	0.012
-554.427	21.645	-0.223	0.182
-553.412	-179.343	-0.166	-0.004
-552.398	800.000	0.059	0.174
-551.383	151.131	0.136	-0.186
-550.369	56.348	0.244	-0.238
-549.354	800.000	-0.035	0.113
-548.339	86.770	-0.146	0.161
-547.325	67.549	0.157	-0.161
-546.310	164.918	-0.179	0.254
-545.296	89.979	-0.056	0.063
-544.281	49.193	-0.098	0.093
-543.266	800.000	-0.081	0.283
-542.252	11.138	0.011	0.009
-541.237	62.299	-0.150	0.150
-540.223	800.000	-0.040	0.112
-539.208	283.826	-0.173	-0.311
-538.193	-101.825	0.144	-0.035
-537.179	-22.378	0.099	-0.060
-536.164	-200.000	-0.021	0.105
-535.150	102.229	0.069	-0.081
-534.135	-65.137	-0.390	0.158
-533.121	-60.494	-0.102	0.044
-532.106	-83.248	0.203	-0.065
-531.091	800.000	-0.068	-0.223
-530.077	-121.947	-0.221	-0.037
-529.062	266.353	0.109	0.190
-528.048	29.308	0.157	-0.134
-527.033	-200.000	0.026	-0.219
-526.018	-50.956	0.336	0.158
-525.004	-29.770	0.070	-0.040
-523.989	-101.570	-0.142	0.034
-522.975	-6.067	-0.245	0.168
-521.960	-200.000	-0.006	0.122
-520.945	529.352	-0.125	0.295
-519.931	-200.000	-0.017	0.377
-518.916	778.780	-0.076	0.207
-517.902	14.613	0.248	-0.194
-516.887	98.567	-0.278	-0.321
-515.872	176.552	0.121	0.176
-514.858	23.687	0.149	-0.123
-513.843	239.636	-0.044	-0.074
-512.829	34.771	-0.121	0.106
-511.814	-200.000	-0.058	-0.299
-510.799	650.192	-0.079	-0.202
-509.785	-122.888	-0.291	-0.047
-508.770	-10.985	-0.081	-0.054
-507.756	570.452	0.054	0.132
-506.741	-171.640	-0.158	0.005
-505.726	133.971	-0.079	0.102
-504.712	-97.144	0.118	-0.031
-503.697	66.668	-0.071	0.073
-502.683	109.340	0.149	-0.179
-501.668	-63.489	-0.250	-0.103
-500.653	125.081	-0.146	-0.184
-499.639	-43.384	0.215	-0.109
-498.624	-13.207	0.121	0.078
-497.610	-148.107	0.136	0.011
-496.595	-69.000	-0.201	0.078
-495.581	76.468	0.184	-0.195
-494.566	107.459	-0.125	0.149
-493.551	28.210	-0.348	0.294
-492.537	264.320	-0.088	-0.153
-491.522	-83.810	0.250	-0.080
-490.508	800.000	-0.035	0.112
-489.493	-105.432	-0.292	-0.066
-488.478	-200.000	0.033	0.330
-487.464	-200.000	0.010	-0.057
-486.449	-200.000	0.013	-0.088
-485.435	-200.000	0.021	-0.123
-484.420	-96.662	-0.348	0.092
-483.405	-200.000	-0.068	-0.388
-482.391	752.023	-0.048	-0.131
-481.376	-8.489	0.299	0.201
-480.362	-200.000	0.021	-0.322
-479.347	277.877	0.170	0.303
-478.332	-45.947	-0.113	0.056
-477.318	-8.177	-0.114	0.077
-476.303	-96.767	0.176	0.046
-475.289	29.597	-0.259	-0.220
-474.274	14.759	-0.116	0.091
-473.259	4.479	-0.284	-0.208
-472.245	44.003	0.207	-0.190
-471.230	800.000	-0.056	-0.206
-470.216	-200.000	0.032	0.356
-469.201	33.529	0.114	-0.099
-468.186	56.787	-0.065	-0.063
-467.172	-35.315	-0.329	-0.179
-466.157	-115.009	0.195	0.037
-465.143	709.917	-0.114	0.300
-464.128	200.274	0.050	0.077
-463.113	-200.000	0.010	0.533
-462.099	6.777	0.163	0.121
-461.084	-62.434	0.172	-0.072
-460.070	287.364	0.049	-0.089
-459.055	800.000	0.014	-0.049
-458.040	-200.000	0.010	0.111
-457.026	-149.478	0.247	-0.020
-456.011	-200.000	-0.012	0.092
-454.997	-200.000	-0.087	0.418
-453.982	-152.217	-0.175	0.013
-452.968	-200.000	-0.004	0.336
-451.953	-167.200	0.166	0.007
-450.938	-137.908	-0.069	-0.008
-449.924	-13.350	0.084	-0.054
-448.909	-114.077	0.243	0.047
-447.895	-200.000	-0.041	0.230
-446.880	-100.486	-0.020	-0.005
-445.865	-127.704	-0.093	0.013
-444.851	-15.978	0.225	-0.143
-443.836	13.049	-0.153	0.118
-442.822	316.210	-0.170	-0.321
-441.807	604.945	-0.145	0.360
-440.792	22.100	-0.244	0.199
-439.778	-26.219	0.265	0.155
-438.763	800.000	0.085	-0.300
-437.749	800.000	-0.082	-0.247
-436.734	46.548	-0.196	0.182
-435.719	-48.715	-0.158	-0.076
-434.705	247.899	-0.112	-0.188
-433.690	-79.319	0.249	-0.084
-432.676	206.293	0.153	-0.237
-431.661	70.543	0.058	0.060
-430.646	-63.464	0.193	0.079
-429.632	-51.012	-0.167	-0.078
-428.617	88.660	-0.069	-0.076
-427.603	-200.000	-0.047	0.249
-426.588	22.050	-0.221	-0.180
-425.573	800.000	-0.047	-0.135
-424.559	273.530	-0.080	0.141
-423.544	800.000	-0.052	0.189
-422.530	-51.601	0.161	0.075
-421.515	53.468	-0.040	-0.038
-420.500	-7.291	0.196	0.133
-419.486	-15.685	0.206	-0.131
-418.471	-101.854	0.113	0.027
-417.457	229.875	-0.169	0.275
-416.442	181.146	0.084	-0.124
-415.428	-34.289	0.267	0.146
-414.413	94.675	0.057	0.064
-413.398	-73.938	0.190	-0.069
-412.384	-39.574	-0.303	0.158
-411.369	192.585	-0.250	0.377
-410.355	-53.001	-0.294	0.135
-409.340	430.838	-0.219	-0.472
-408.325	190.825	0.066	-0.099
-407.311	102.764	-0.024	-0.028
-406.296	-61.214	-0.443	0.186
-405.282	4.917	-0.218	-0.160
-404.267	-38.773	0.089	-0.047
-403.252	-96.678	-0.059	0.016
-402.238	322.329	-0.091	0.174
-401.223	-200.000	0.000	0.268
-400.209	32.067	0.299	-0.257
-399.194	39.001	-0.070	0.062
-398.179	35.451	0.245	0.215
-397.165	324.422	-0.042	-0.080
-396.150	78.988	0.166	0.178
-395.136	130.058	0.075	-0.096
-394.121	-84.576	0.273	-0.086
-393.106	-157.582	0.142	-0.008
-392.092	207.981	0.249	0.388
-391.077	-148.841	-0.162	-0.013
-390.063	50.249	-0.087	0.082
-389.048	19.022	-0.209	0.167
-388.033	-200.000	0.016	0.162
-387.019	-162.086	0.136	-0.007
-386.004	-28.748	0.138	0.079
-384.990	800.000	-0.089	-0.363
-383.975	4.113	0.166	-0.121
-382.960	-200.000	0.001	0.034
-381.946	219.271	-0.127	0.203
-380.931	800.000	0.115	-0.439
-379.917	753.504	0.022	0.060
-378.902	2.811	0.046	0.033
-377.888	-2.853	0.111	0.077
-376.873	122.441	-0.184	-0.230
-375.858	-137.961	-0.119	-0.013
-374.844	27.422	-0.051	0.043
-373.829	-62.999	-0.092	0.038
-372.815	310.719	-0.037	0.070
-371.800	142.176	-0.107	-0.141
-370.785	-22.728	0.153	-0.092
-369.771	-128.332	-0.197	-0.028
-368.756	-200.000	-0.030	-0.152
-367.742	253.168	0.110	-0.188
-366.727	-200.000	0.019	-0.210
-365.712	95.634	-0.214	0.243
-364.698	-41.440	0.216	-0.111
-363.683	-79.898	0.389	-0.130
-362.669	274.698	0.042	-0.074
-361.654	-68.371	0.270	-0.104
-360.639	255.240	0.286	0.488
-359.625	-99.292	0.137	0.034
-358.610	-72.615	-0.204	0.075
-357.596	-24.219	-0.303	-0.180
-356.581	-102.051	-0.044	-0.011
-355.566	91.584	-0.187	-0.209
-354.552	155.010	0.105	-0.144
-353.537	167.366	0.231	-0.327
-352.523	800.000	-0.062	-0.225
-351.508	-200.000	0.004	0.225
-350.493	22.743	-0.122	0.100
-349.479	326.608	0.012	0.022
-348.464	-172.601	-0.089	-0.003
-347.450	-130.151	-0.152	-0.021
-346.435	160.407	0.069	-0.095
-345.420	-26.654	-0.205	0.119
-344.406	-200.000	0.048	0.302
-343.391	464.933	-0.106	-0.235
-342.377	800.000	0.051	0.179
-341.362	-61.710	-0.198	0.082
-340.348	277.025	-0.054	-0.095
-339.333	-121.019	-0.316	0.053
-338.318	-200.000	0.045	-0.292
-337.304	800.000	0.114	-0.315
-336.289	-65.814	-0.040	-0.016
-335.275	800.000	0.075	-0.221
-334.260	800.000	-0.039	-0.111
-333.245	-124.918	0.120	0.018
-332.231	343.569	-0.220	-0.429
-331.216	-13.280	-0.310	-0.200
-330.202	-200.000	-0.007	0.048
-329.187	-200.000	0.057	-0.254
-328.172	117.517	0.160	-0.196
-327.158	-91.878	-0.114	0.032
-326.143	-80.907	-0.216	0.071
-325.129	378.157	-0.087	-0.177
-324.114	628.109	0.093	-0.235
-323.099	198.131	0.230	-0.349
-322.085	67.077	-0.088	0.089
-321.070	194.691	-0.230	-0.347
-320.056	370.378	0.126	-0.253
-319.041	47.827	0.131	-0.122
-318.026	7.770	0.163	0.122
-317.012	-200.000	0.016	-0.241
-315.997	-200.000	0.051	0.264
-314.983	178.338	0.167	0.242
-313.968	-200.000	-0.051	0.510
-312.953	-90.133	-0.244	0.071
-311.939	-4.974	0.170	-0.117
-310.924	-90.698	0.227	0.065
-309.910	76.163	-0.096	-0.101
-308.895	-111.454	-0.212	-0.043
-307.880	456.501	-0.167	-0.369
-306.866	-125.496	-0.204	0.031
-305.851	-200.000	-0.055	0.313
-304.837	6.213	0.089	0.065
-303.822	55.942	0.323	-0.312
-302.807	-25.432	0.092	0.054
-301.793	-200.000	-0.032	0.227
-300.778	-20.160	0.291	0.178
-299.764	55.928	-0.034	0.033
-298.749	208.456	0.076	0.118
-297.735	328.120	0.131	0.250
-296.720	258.832	-0.091	-0.157
-295.705	6.678	0.201	0.149
-294.691	303.999	0.119	0.219
-293.676	-44.508	-0.112	0.056
-292.662	800.000	0.054	0.177
-291.647	627.660	-0.067	0.168
-290.632	-200.000	-0.023	-0.161
-289.618	-131.719	-0.058	-0.008
-288.603	367.919	0.095	0.190
-287.589	800.000	0.034	0.134
-286.574	377.070	0.074	0.149
-285.559	49.159	-0.321	0.299
-284.545	-103.139	0.126	0.030
-283.530	430.600	-0.036	-0.077
-282.516	800.000	-0.030	0.118
-281.501	-46.235	0.080	-0.039
-280.486	-31.957	0.163	-0.091
-279.472	-124.667	0.290	-0.045
-278.457	141.205	0.091	-0.120
-277.443	800.000	-0.118	-0.359
-276.428	-56.393	-0.010	0.004
-275.413	97.469	-0.121	0.138
-274.399	-200.000	-0.031	-0.217
-273.384	-114.090	0.248	0.048
-272.370	43.168	0.233	0.211
-271.355	233.264	-0.177	0.289
-270.340	-10.197	0.141	0.093
-269.326	40.496	-0.102	0.091
-268.311	-121.764	0.038	0.006
-267.297	800.000	-0.135	-0.423
-266.282	-200.000	-0.087	-0.389
-265.267	159.913	0.251	-0.346
-264.253	21.216	0.031	0.025
-263.238	-200.000	0.001	-0.353
-262.224	-153.893	-0.145	0.010
-261.209	111.260	-0.250	-0.299
-260.195	445.492	-0.029	-0.062
-259.180	-95.521	0.185	0.049
-258.165	-4.640	0.167	0.114
-257.151	-200.000	-0.072	0.379
-256.136	-91.215	-0.263	-0.075
-255.122	-133.573	-0.367	0.046
-254.107	301.536	0.096	0.175
-253.092	-200.000	0.049	-0.290
-252.078	-200.000	-0.012	0.155
-251.063	70.990	0.103	0.105
-250.049	19.541	0.126	0.100
-249.034	-75.490	0.107	-0.038
-248.019	800.000	-0.023	-0.098
-247.005	-91.662	-0.253	-0.071
-245.990	-200.000	0.018	0.184
-244.976	-114.218	0.456	0.087
-243.961	201.716	-0.151	-0.231
-242.946	800.000	0.042	0.139
-241.932	-200.000	0.016	-0.112
-240.917	800.000	0.035	-0.128
-239.903	498.139	0.087	0.199
-238.888	-128.596	-0.227	-0.032
-237.873	116.749	0.189	0.229
-236.859	800.000	0.051	0.189
-235.844	-80.228	0.174	0.058
-234.830	4.959	0.059	0.043
-233.815	-69.964	0.101	0.038
-232.800	-113.067	-0.075	-0.015
-231.786	-4.281	0.337	-0.231
-230.771	451.375	-0.032	-0.071
-229.757	-128.983	-0.153	-0.021
-228.742	-123.409	-0.178	-0.028
-227.727	270.968	0.029	-0.051
-226.713	-178.362	0.290	0.007
-225.698	800.000	0.060	-0.186
-224.684	72.007	-0.129	-0.133
-223.669	-110.038	-0.132	-0.027
-222.655	72.638	0.436	0.450
-221.640	800.000	-0.094	-0.353
-220.625	248.849	-0.110	-0.185
-219.611	-66.593	-0.056	-0.022
-218.596	-200.000	-0.011	0.160
-217.582	149.281	0.037	-0.049
-216.567	-133.931	0.158	-0.019
-215.552	171.360	-0.186	-0.264
-214.538	-160.070	-0.259	0.014
-213.523	-200.000	0.097	0.483
-212.509	-51.185	0.288	-0.133
-211.494	171.478	0.091	-0.129
-210.479	-64.171	0.171	-0.069
-209.465	66.625	0.282	0.284
-208.450	-200.000	0.024	-0.175
-207.436	7.856	-0.296	0.219
-206.421	332.803	0.091	-0.174
-205.406	-11.494	-0.159	0.103
-204.392	-109.794	-0.283	-0.059
-203.377	-200.000	-0.042	-0.336
-202.363	144.795	-0.115	0.151
-201.348	-106.842	0.241	-0.053
-200.333	209.977	0.068	-0.105
-199.319	118.476	-0.138	-0.168
-198.304	-200.000	-0.026	-0.176
-197.290	202.325	-0.125	0.191
-196.275	338.677	0.170	0.327
-195.260	-121.893	0.141	-0.023
-194.246	97.815	0.149	0.169
-193.231	-112.010	0.084	-0.017
-192.217	-118.751	0.111	-0.019
-191.202	-39.295	0.037	0.019
-190.187	36.644	0.057	-0.050
-189.173	800.000	0.081	0.308
-188.158	800.000	-0.049	0.149
-187.144	18.681	-0.195	-0.154
-186.129	-104.063	-0.156	-0.036
-185.114	-5.815	-0.172	0.117
-184.100	-93.857	-0.044	-0.012
-183.085	-200.000	0.022	-0.312
-182.071	-19.631	-0.041	0.025
-181.056	-132.641	0.409	0.052
-180.042	308.786	-0.173	0.320
-179.027	-143.503	0.151	-0.014
-178.012	76.747	0.203	0.213
-176.998	-126.212	-0.119	-0.018
-175.983	-34.324	-0.320	0.173
-174.969	47.731	-0.241	-0.223
-173.954	738.897	-0.108	-0.286
-172.939	280.760	0.163	0.287
-171.925	-172.317	0.269	0.008
-170.910	494.337	0.112	-0.254
-169.896	-200.000	0.096	0.481
-168.881	-200.000	0.035	0.331
-167.866	249.479	0.184	0.308
-166.852	-80.106	0.258	0.086
-165.837	-44.037	0.223	0.111
-164.823	-123.591	0.091	-0.014
-163.808	164.697	0.101	-0.141
-162.793	-200.000	-0.047	-0.441
-161.779	721.903	0.097	-0.256
-160.764	-70.011	0.164	-0.062
-159.750	220.207	0.138	0.218
-158.735	37.191	0.067	0.059
-157.720	232.382	0.100	0.161
-156.706	61.121	-0.063	0.061
-155.691	-200.000	-0.022	-0.482
-154.677	79.205	-0.150	0.159
-153.662	403.156	-0.096	0.200
-152.647	-55.489	0.127	0.056
-151.633	800.000	-0.079	0.219
-150.618	800.000	-0.082	0.344
-149.604	641.518	-0.124	-0.312
-148.589	-200.000	-0.020	0.204
-147.574	-43.033	-0.211	0.106
-146.560	-11.149	-0.109	-0.071
-145.545	-22.742	0.114	0.068
-144.531	149.002	-0.035	0.047
-143.516	-184.855	0.087	0.001
-142.502	725.890	-0.059	0.156
-141.487	-50.030	0.163	-0.076
-140.472	-143.866	0.199	-0.019
-139.458	101.312	0.176	0.202
-138.443	250.546	-0.241	0.403
-137.429	90.914	0.112	-0.124
-136.414	33.699	-0.396	-0.339
-135.399	-167.226	0.260	-0.010
-134.385	-11.853	0.128	0.083
-133.370	508.489	-0.038	-0.086
-132.356	187.979	0.176	-0.260
-131.341	-108.470	-0.270	-0.057
-130.326	800.000	-0.031	0.104
-129.312	57.886	0.147	0.142
-128.297	-19.285	0.109	-0.067
-127.283	-200.000	0.015	-0.241
-126.268	60.284	-0.173	0.168
-125.253	-64.592	0.210	0.084
-124.239	-109.346	-0.124	-0.026
-123.224	-200.000	0.016	0.290
-122.210	7.015	0.059	-0.043
-121.195	-32.432	0.263	-0.145
-120.180	284.554	-0.058	0.102
-119.166	-9.291	0.383	0.253
-118.151	-200.000	0.037	0.323
-117.137	645.900	-0.028	0.071
-116.122	735.164	-0.125	0.329
-115.107	427.947	0.046	0.099
-114.093	-200.000	0.011	0.172
-113.078	-200.000	0.000	-0.028
-112.064	-147.385	0.505	0.042
-111.049	7.042	0.173	-0.127
-110.034	-94.674	0.151	0.040
-109.020	-71.596	0.288	-0.106
-108.005	101.538	0.233	-0.267
-106.991	-200.000	-0.072	0.413
-105.976	36.428	0.221	0.192
-104.962	55.457	0.204	0.194
-103.947	92.219	-0.167	0.185
-102.932	-200.000	0.012	-0.216
-101.918	-51.972	0.229	0.105
-100.903	-36.038	0.207	0.110
-99.889	69.235	0.179	-0.182
-98.874	-200.000	-0.017	0.171
-97.859	-116.327	0.080	0.015
-96.845	16.562	-0.182	0.142
-95.830	86.732	0.145	-0.158
-94.816	22.534	0.130	0.104
-93.801	-200.000	0.035	0.360
-92.786	398.261	-0.088	0.181
-91.772	145.265	0.053	-0.070
-90.757	36.957	0.217	-0.189
-89.743	327.647	0.092	0.174
-88.728	800.000	0.038	0.134
-87.713	339.993	-0.091	0.175
-86.699	-200.000	-0.016	-0.151
-85.684	-131.201	-0.210	-0.027
-84.670	-200.000	-0.004	-0.304
-83.655	-119.084	0.452	-0.078
-82.640	219.212	0.124	-0.196
-81.626	35.623	0.170	-0.147
-80.611	800.000	-0.019	0.076
-79.597	11.652	0.213	0.161
-78.582	-126.792	-0.098	0.014
-77.567	-200.000	-0.032	0.168
-76.553	-90.124	-0.294	0.084
-75.538	-98.290	0.168	0.042
-74.524	-78.666	0.252	0.085
-73.509	-103.383	0.255	0.059
-72.494	800.000	0.047	0.143
-71.480	-168.048	-0.120	0.005
-70.465	260.084	0.245	0.416
-69.451	-79.431	0.095	-0.031
-68.436	495.732	-0.116	0.263
-67.422	116.593	0.090	-0.108
-66.407	490.914	0.124	-0.280
-65.392	-8.635	-0.027	0.018
-64.378	-88.428	0.272	0.080
-63.363	800.000	0.039	-0.115
-62.349	118.345	-0.118	-0.143
-61.334	561.636	-0.520	-1.237
-60.319	47.147	0.424	0.389
-59.305	800.000	-0.262	-0.924
-58.290	800.000	0.299	0.828
-57.276	800.000	0.466	1.832
-56.261	-200.000	97.241	606.237
-55.246	638.929	1381.116	3454.620
-54.232	197.367	2558.381	3840.429
-53.217	120.820	2138.656	2615.449
-52.203	43.808	1598.994	1439.882
-51.188	35.266	1335.793	1151.785
-50.173	32.061	1294.204	1097.182
-49.159	55.068	1341.852	1274.851
-48.144	57.268	1358.263	1303.442
-47.130	35.425	1317.249	1136.553
-46.115	31.827	1299.688	1100.288
-45.100	31.732	1294.528	1095.315
-44.086	31.602	1292.065	1092.434
-43.071	31.501	1290.120	1090.157
-42.057	31.546	1287.735	1088.357
-41.042	31.611	1286.076	1087.292
-40.027	31.681	1284.523	1086.341
-39.013	31.691	1282.530	1084.670
-37.998	31.583	1281.228	1082.899
-36.984	31.655	1279.587	1081.887
-35.969	31.786	1277.538	1080.866
-34.954	31.659	1275.948	1078.746
-33.940	31.638	1274.583	1077.429
-32.925	31.774	1273.324	1077.106
-31.911	31.758	1272.000	1075.849
-30.896	31.773	1270.430	1074.564
-29.881	31.788	1269.353	1073.699
-28.867	31.830	1267.439	1072.275
-27.852	31.813	1266.129	1071.028
-26.838	31.963	1264.599	1070.548
-25.823	31.883	1263.584	1069.192
-24.809	31.713	1262.498	1067.262
-23.794	31.719	1260.982	1065.971
-22.779	31.883	1259.391	1065.517
-21.765	31.751	1258.354	1063.847
-20.750	31.722	1256.911	1062.420
-19.736	31.580	1256.097	1060.884
-18.721	31.620	1254.657	1059.855
-17.706	31.637	1253.619	1059.031
-16.692	31.663	1252.533	1058.216
-15.677	31.699	1251.065	1057.137
-14.663	31.569	1250.447	1055.839
-13.648	31.702	1248.746	1055.113
-12.633	31.628	1248.010	1054.031
-11.619	31.574	1247.220	1053.017
-10.604	31.617	1246.294	1052.438
-9.590	31.475	1246.179	1051.502
-8.575	31.617	1244.314	1050.683
-7.560	31.565	1243.826	1049.937
-6.546	31.620	1242.611	1049.178
-5.531	31.646	1242.012	1048.776
-4.517	31.666	1241.081	1048.059
-3.502	31.668	1240.033	1047.142
-2.487	31.457	1239.496	1045.471
-1.473	31.669	1234.938	1042.761
-0.458	30.241	1219.986	1022.236
0.556	25.328	1202.499	984.194
1.571	21.534	1207.404	967.197
2.586	20.659	1222.487	974.294
3.600	20.110	1211.273	962.224
4.615	15.332	1141.123	881.369
5.629	7.926	1068.106	788.345
6.644	4.695	1049.458	758.774
7.659	4.525	1046.725	755.907
8.673	4.538	1046.176	755.506
9.688	4.433	1044.699	753.860
10.702	4.552	1042.769	752.982
11.717	8.689	1047.986	776.791
12.731	15.750	1057.924	818.561
13.746	18.535	1061.018	834.459
14.761	18.001	1059.145	830.314
15.775	16.706	1057.768	822.872
16.790	15.766	1055.346	816.356
17.804	15.046	1054.219	811.921
18.819	14.693	1052.609	808.899
19.834	14.523	1051.805	807.390
20.848	14.357	1051.110	805.982
21.863	14.101	1049.998	803.818
22.877	13.881	1049.823	802.552
23.892	13.903	1048.902	801.882
24.907	13.939	1047.798	801.141
25.921	13.932	1046.807	800.279
26.936	14.024	1045.739	799.834
27.950	13.980	1044.344	798.483
28.965	14.038	1043.196	797.814
29.980	14.236	1041.435	797.345
30.994	14.186	1040.688	796.463
32.009	14.258	1039.717	795.995
33.023	14.274	1038.340	794.945
34.038	14.124	1037.126	793.233
35.053	14.170	1036.388	792.818
36.067	13.999	1035.596	791.327
37.082	14.138	1034.462	791.052
38.096	14.206	1033.744	790.753
39.111	14.126	1033.309	789.969
40.126	14.107	1032.059	788.856
41.140	13.925	1030.796	786.958
42.155	13.921	1029.506	785.887
43.169	13.799	1028.406	784.398
44.184	13.808	1027.374	783.587
45.199	13.826	1026.460	782.902
46.213	13.875	1025.287	782.172
47.228	14.079	1023.663	781.821
48.242	14.053	1023.019	781.140
49.257	14.029	1022.199	780.329
50.271	14.041	1021.793	780.007
51.286	14.180	1020.964	779.959
52.301	14.067	1020.071	778.677
53.315	13.974	1018.918	777.292
54.330	13.977	1017.846	776.423
55.344	13.941	1017.244	775.723
56.359	14.012	1016.198	775.190
57.374	13.911	1015.695	774.264
58.388	13.794	1014.592	772.812
59.403	13.833	1013.700	772.245
60.417	13.791	1013.219	771.615
61.432	13.704	1012.272	770.422
62.447	13.622	1011.684	769.527
63.461	13.774	1010.447	769.224
64.476	13.716	1009.457	768.131
65.490	13.734	1008.409	767.350
66.505	13.771	1007.916	767.077
67.520	13.706	1007.499	766.390
68.534	13.840	1006.875	766.471
69.549	13.747	1005.864	765.202
70.563	13.743	1004.792	764.299
71.578	13.678	1004.253	763.525
72.593	13.603	1003.603	762.618
73.607	13.565	1002.903	761.841
74.622	13.569	1002.637	761.590
75.636	13.645	1001.815	761.250
76.651	13.687	1000.711	760.535
77.666	13.647	1000.606	760.205
78.680	13.669	999.974	759.756
79.695	13.720	998.907	759.111
80.709	13.897	998.219	759.331
81.724	13.890	997.692	758.834
82.739	14.016	996.474	758.415
83.753	13.982	996.450	758.174
84.768	14.189	995.495	758.325
85.782	14.083	994.631	757.114
86.797	14.188	993.855	756.933
87.812	14.108	992.634	755.573
88.826	14.073	991.584	754.551
89.841	14.082	990.830	753.953
90.855	14.109	990.373	753.660
91.870	14.206	989.515	753.377
92.884	14.276	988.213	752.637
93.899	14.231	987.545	751.858
94.914	14.323	987.004	751.793
95.928	14.273	986.013	750.748
96.943	14.142	985.283	749.535
97.957	14.110	984.709	748.887
98.972	14.263	983.337	748.467
99.987	14.115	982.786	747.316
101.001	14.138	981.850	746.640
102.016	14.122	981.087	745.926
103.030	14.144	980.144	745.237
104.045	14.226	979.479	745.037
105.060	13.992	978.275	743.006
106.074	14.032	977.563	742.579
107.089	13.978	976.157	741.206
108.103	13.905	975.702	740.469
109.118	13.928	974.814	739.829
110.133	13.880	973.876	738.839
111.147	13.746	973.408	737.824
112.162	13.868	972.588	737.679
113.176	14.070	971.530	737.708
114.191	13.965	970.835	736.648
115.206	13.911	970.239	735.891
116.220	13.856	969.774	735.231
117.235	13.924	968.355	734.393
118.249	13.897	967.538	733.589
119.264	13.872	967.089	733.070
120.279	13.721	966.418	731.832
121.293	13.802	965.166	731.174
122.308	13.804	964.307	730.468
123.322	13.847	962.839	729.483
124.337	13.866	962.573	729.301
125.352	13.824	961.407	728.165
126.366	13.920	960.286	727.672
127.381	13.953	959.339	727.034
128.395	13.917	958.464	726.150
129.410	13.845	958.274	725.629
130.424	13.943	956.751	724.837
131.439	13.895	956.856	724.645
132.454	13.968	955.704	724.025
133.468	14.064	954.836	723.720
134.483	14.091	953.920	723.083
135.497	14.180	952.558	722.370
136.512	13.937	952.347	721.095
137.527	14.030	951.659	720.912
138.541	14.041	950.947	720.358
139.556	13.970	950.119	719.356
140.570	14.108	949.448	719.382
141.585	14.299	948.696	719.577
142.600	14.211	947.784	718.439
143.614	14.279	946.603	717.776
144.629	14.343	946.115	717.617
145.643	14.192	945.056	716.100
146.658	14.223	944.072	715.423
147.673	14.093	943.648	714.480
148.687	13.985	942.713	713.245
149.702	14.039	941.460	712.466
150.716	14.080	940.858	712.122
151.731	14.064	940.147	711.453
152.746	14.102	939.469	711.042
153.760	14.135	939.052	710.803
154.775	14.234	938.146	710.477
155.789	14.210	937.608	709.904
156.804	14.159	937.242	709.347
157.819	14.258	936.777	709.353
158.833	14.240	935.972	708.603
159.848	14.280	934.930	707.925
160.862	14.264	933.876	706.994
161.877	14.188	932.793	705.790
162.892	14.144	931.988	704.934
163.906	14.166	930.860	704.112
164.921	14.105	930.291	703.358
165.935	14.220	929.289	703.025
166.950	14.167	929.173	702.650
167.964	14.256	927.865	701.977
168.979	14.139	926.900	700.689
169.994	14.112	926.180	699.969
171.008	14.203	925.429	699.725
172.023	14.324	925.044	699.881
173.037	14.256	924.027	698.763
174.052	14.426	923.486	699.005
175.067	14.266	922.624	697.620
176.081	14.201	922.273	697.020
177.096	14.269	921.459	696.627
178.110	14.279	921.099	696.335
179.125	14.283	920.788	696.054
180.140	14.318	920.364	695.821
181.154	14.257	919.536	694.878
182.169	14.447	919.043	695.235
183.183	14.463	918.472	694.810
184.198	14.442	917.508	693.930
185.213	14.464	917.164	693.703
186.227	14.546	915.876	693.007
187.242	14.695	915.333	693.154
188.256	14.644	914.876	692.535
189.271	14.689	913.921	691.936
190.286	14.327	913.590	690.127
191.300	14.220	912.718	688.964
192.315	14.205	912.102	688.373
193.329	14.211	911.371	687.784
194.344	14.346	910.677	687.760
195.359	14.454	909.857	687.526
196.373	14.535	909.736	687.707
197.388	14.526	909.634	687.531
198.402	14.790	908.664	687.822
199.417	14.817	908.251	687.562
200.432	14.770	908.059	687.163
201.446	14.811	907.413	686.781
202.461	14.855	907.245	686.774
203.475	14.866	906.159	685.936
204.490	14.746	905.522	684.903
205.504	14.706	904.504	683.906
206.519	14.648	903.725	683.022
207.534	14.702	903.035	682.657
208.548	14.762	902.730	682.615
209.563	14.775	901.793	681.899
210.577	14.795	901.092	681.387
211.592	14.904	900.464	681.297
212.607	15.002	899.710	681.068
213.621	14.893	899.120	680.117
214.636	14.939	898.048	679.433
215.650	14.917	897.696	679.016
216.665	15.028	897.065	678.927
217.680	15.146	896.282	678.754
218.694	14.973	895.833	677.655
219.709	15.010	895.472	677.471
220.723	14.909	894.878	676.553
221.738	14.874	894.112	675.771
222.753	15.058	893.390	675.911
223.767	15.038	892.821	675.339
224.782	15.028	892.488	674.985
225.796	15.227	891.760	675.179
226.811	15.270	890.437	674.288
227.826	15.215	890.405	673.983
228.840	15.048	889.524	672.585
229.855	14.937	888.762	671.505
230.869	15.057	887.942	671.306
231.884	15.034	887.752	671.013
232.899	15.022	886.589	670.025
233.913	14.915	886.177	669.227
234.928	14.976	885.114	668.607
235.942	14.950	885.163	668.483
236.957	15.007	884.504	668.152
237.972	15.057	883.460	667.506
238.986	15.081	882.745	667.003
240.001	15.048	882.349	666.512
241.015	15.038	881.622	665.865
242.030	15.145	881.161	665.881
243.045	15.397	880.345	666.208
244.059	15.191	880.154	665.188
245.074	15.121	879.364	664.251
246.088	15.249	878.974	664.408
247.103	15.251	878.312	663.855
248.117	15.431	877.927	664.218
249.132	15.566	877.137	664.097
250.147	15.633	876.801	664.047
251.161	15.598	876.170	663.373
252.176	15.438	875.766	662.375
253.190	15.647	874.745	662.369
254.205	15.869	873.766	662.442
255.220	15.644	873.451	661.261
256.234	15.616	872.915	660.686
257.249	15.706	872.218	660.455
258.263	15.693	871.469	659.776
259.278	15.810	870.844	659.703
260.293	15.836	870.038	659.139
261.307	15.986	869.155	658.997
262.322	15.923	868.590	658.262
263.336	15.721	868.497	657.344
264.351	15.780	867.491	656.756
265.366	15.787	867.065	656.402
266.380	15.850	866.416	656.099
267.395	15.810	865.591	655.260
268.409	15.688	864.961	654.250
269.424	15.811	864.408	654.251
270.439	15.908	863.306	653.738
271.453	15.801	862.757	652.847
272.468	15.761	862.261	652.259
273.482	15.717	862.016	651.848
274.497	15.759	861.033	651.208
275.512	15.761	860.716	650.919
276.526	15.809	860.024	650.523
277.541	15.855	859.535	650.272
278.555	16.013	858.955	650.387
279.570	15.988	858.268	649.712
280.585	16.076	857.801	649.643
281.599	15.939	856.999	648.450
282.614	15.904	856.145	647.613
283.628	15.955	855.529	647.283
284.643	15.950	855.040	646.838
285.657	16.025	854.618	646.750
286.672	16.056	853.663	646.089
287.687	16.073	852.557	645.258
288.701	15.950	852.531	644.710
289.716	16.158	851.991	645.041
290.730	16.092	851.288	644.198
291.745	16.078	850.648	643.603
292.760	16.142	850.358	643.574
293.774	16.119	849.897	643.081
294.789	16.177	849.017	642.575
295.803	16.199	847.988	641.825
296.818	16.151	847.680	641.352
297.833	16.110	847.066	640.676
298.847	16.058	846.745	640.179
299.862	16.238	845.931	640.190
300.876	16.122	845.487	639.358
301.891	16.288	845.116	639.647
302.906	16.214	844.726	639.016
303.920	16.422	844.049	639.234
304.935	16.458	843.545	638.932
305.949	16.431	842.650	638.097
306.964	16.421	842.079	637.571
307.979	16.397	841.486	636.973
308.993	16.532	841.018	637.071
310.008	16.444	840.532	636.318
311.022	16.487	839.894	635.940
312.037	16.348	839.021	634.698
313.052	16.211	839.041	634.144
314.066	16.197	838.169	633.376
315.081	16.342	837.966	633.712
316.095	16.384	836.663	632.827
317.110	16.257	836.305	632.025
318.125	16.329	835.888	631.922
319.139	16.350	835.515	631.661
320.154	16.462	835.069	631.687
321.168	16.314	834.632	630.750
322.183	16.513	833.744	630.766
323.197	16.485	833.435	630.370
324.212	16.433	832.928	629.737
325.227	16.433	831.762	628.800
326.241	16.510	831.453	628.798
327.256	16.476	831.085	628.336
328.270	16.416	830.780	627.828
329.285	16.498	829.587	627.174
330.300	16.490	829.188	626.790
331.314	16.459	829.197	626.623
332.329	16.552	828.538	626.417
333.343	16.375	828.409	625.609
334.358	16.564	827.888	625.857
335.373	16.651	827.304	625.683
336.387	16.613	827.145	625.366
337.402	16.636	826.784	625.124
338.416	16.615	826.672	624.904
339.431	16.866	825.896	625.190
340.446	16.956	825.606	625.249
341.460	16.960	825.254	624.940
342.475	16.959	824.877	624.597
343.489	16.990	824.399	624.294
344.504	16.936	823.871	623.638
345.519	16.929	823.575	623.333
346.533	17.063	822.909	623.268
347.548	16.860	822.368	622.058
348.562	16.779	822.263	621.624
349.577	16.726	821.190	620.565
350.592	16.751	820.641	620.186
351.606	16.697	819.865	619.347
352.621	16.746	819.273	619.025
353.635	16.947	818.657	619.239
354.650	16.955	818.074	618.771
355.665	16.933	817.793	618.425
356.679	16.960	816.879	617.777
357.694	17.010	816.340	617.497
358.708	17.086	815.464	617.055
359.723	16.982	815.114	616.359
360.738	17.076	814.161	615.925
361.752	17.057	813.572	615.357
362.767	17.117	813.407	615.392
363.781	17.237	812.776	615.295
364.796	17.250	812.649	615.192
365.810	17.381	811.985	615.108
366.825	17.366	811.616	614.723
367.840	17.203	811.228	613.782
368.854	17.187	810.968	613.473
369.869	17.326	810.184	613.331
370.883	17.261	810.095	612.971
371.898	17.365	809.940	613.177
372.913	17.424	809.224	612.793
373.927	17.222	808.877	611.749
374.942	17.354	808.237	611.684
375.956	17.592	807.393	611.846
376.971	17.389	807.529	611.166
377.986	17.540	807.292	611.474
379.000	17.577	806.510	610.962
380.015	17.527	805.801	610.191
381.029	17.619	805.650	610.353
382.044	17.441	804.947	609.129
383.059	17.622	803.943	608.960
384.073	17.596	803.616	608.566
385.088	17.500	802.594	607.398
386.102	17.485	802.701	607.370
387.117	17.484	802.198	606.935
388.132	17.468	801.308	606.150
389.146	17.465	800.677	605.607
390.161	17.606	800.533	605.946
391.175	17.684	799.925	605.708
392.190	17.581	799.034	604.615
393.205	17.616	799.023	604.677
394.219	17.587	798.599	604.202
395.234	17.294	798.591	603.102
396.248	17.302	797.900	602.557
397.263	17.436	797.552	602.715
398.278	17.612	796.512	602.498
399.292	17.553	796.718	602.391
400.307	17.387	796.110	601.292
401.321	17.490	795.638	601.244
402.336	17.565	795.347	601.239
403.350	17.715	794.621	601.166
404.365	17.538	794.790	600.615
405.380	17.723	793.719	600.403
406.394	17.950	793.297	600.831
407.409	17.981	792.664	600.406
408.423	18.070	792.257	600.359
409.438	17.773	792.486	599.435
410.453	17.907	791.754	599.298
411.467	17.943	791.330	599.049
412.482	17.994	791.154	599.043
413.496	18.203	790.573	599.282
414.511	18.098	790.306	598.660
415.526	18.125	789.762	598.290
416.540	17.964	789.716	597.639
417.555	18.010	788.920	597.144
418.569	18.136	788.354	597.101
419.584	18.133	788.220	596.938
420.599	18.101	787.697	596.376
421.613	156.073	1369.695	1793.056
422.628	134.919	1454.507	1793.165
