DTS Sentinel unit serial number:	SN413079Multiplexer serial number:	ORYXHardware model number:	OX4-SRSoftware version number:	ORYX F/W v4.00 Oryx Data Collector v3.7.2.0data status	okinstallation	princeton_trtdifferential loss correction	single-endedforward channel	channel 1reverse channel	N/Adate	2019/09/19time	15:26:35forward acquisition time	60.00reverse acquisition time	0.00gamma	496.2192k internal	0.2313k external	0.2313temperature offset calibration	1.0025default loss term (dB/km)	0.3790temperature slope calibration	1.0000multiplexer offset coefficient	1.0000multiplexer slope coefficient	1.0000fibre end	0.00T internal ref (°C)	33.94T ext. ref 1 (°C)	1.15T ext. ref 2 (°C)	30.87length (m)	temperature (°C)	Stokes	anti-Stokes-747.200	187.587	0.134	-0.203
-746.185	733.069	-0.157	0.427
-745.171	-89.228	-0.356	0.107
-744.156	-58.907	-0.307	-0.135
-743.142	-103.245	-0.228	-0.055
-742.127	166.521	-0.203	0.291
-741.112	7.303	0.008	-0.006
-740.098	800.000	-0.062	0.216
-739.083	186.580	-0.114	-0.172
-738.069	-105.448	-0.165	0.038
-737.054	-4.956	0.259	0.181
-736.039	-117.722	-0.095	-0.017
-735.025	-158.293	-0.338	-0.020
-734.010	800.000	-0.107	-0.340
-732.996	-107.678	-0.452	-0.100
-731.981	-32.591	0.176	-0.100
-730.966	-89.203	-0.151	-0.045
-729.952	-56.610	-0.077	0.035
-728.937	54.150	-0.281	-0.275
-727.923	800.000	-0.008	0.032
-726.908	-114.081	0.177	0.035
-725.894	-56.157	-0.430	-0.194
-724.879	-12.024	0.215	-0.143
-723.864	-200.000	0.020	0.198
-722.850	186.000	-0.308	-0.464
-721.835	390.328	-0.149	-0.313
-720.821	-46.836	-0.299	0.148
-719.806	183.342	0.069	0.103
-718.791	-44.105	-0.159	-0.081
-717.777	-28.451	0.152	-0.089
-716.762	20.878	-0.229	0.188
-715.748	800.000	-0.116	0.440
-714.733	241.860	0.099	-0.167
-713.718	-156.363	0.165	-0.010
-712.704	475.753	-0.135	0.309
-711.689	-107.453	-0.190	-0.042
-710.675	545.688	-0.124	-0.300
-709.660	800.000	0.060	-0.222
-708.645	-147.150	-0.277	0.024
-707.631	-200.000	0.010	0.192
-706.616	18.294	0.059	-0.048
-705.602	-200.000	-0.002	0.340
-704.587	-200.000	-0.026	0.279
-703.572	-84.432	0.253	-0.081
-702.558	-146.685	0.258	-0.023
-701.543	-79.395	0.234	-0.080
-700.529	415.388	0.050	-0.107
-699.514	66.105	-0.294	-0.302
-698.499	-200.000	-0.026	-0.144
-697.485	-17.610	0.195	-0.124
-696.470	-200.000	0.015	0.381
-695.456	-200.000	-0.042	0.209
-694.441	766.266	-0.052	-0.142
-693.426	-53.447	-0.250	-0.116
-692.412	800.000	-0.053	-0.150
-691.397	-200.000	0.000	0.039
-690.383	800.000	-0.141	-0.428
-689.368	32.076	0.141	0.123
-688.354	140.552	-0.195	-0.261
-687.339	507.544	-0.055	0.130
-686.324	680.833	0.109	-0.287
-685.310	-60.430	-0.510	0.219
-684.295	-124.467	-0.331	-0.052
-683.281	-74.393	-0.059	0.021
-682.266	-200.000	-0.017	-0.102
-681.251	-165.813	0.217	-0.009
-680.237	-83.549	0.166	-0.054
-679.222	353.436	-0.042	0.084
-678.208	-58.454	-0.244	-0.107
-677.193	-74.964	-0.226	-0.082
-676.178	174.826	-0.128	0.188
-675.164	104.902	-0.093	-0.111
-674.149	-200.000	-0.013	-0.147
-673.135	89.534	-0.140	0.158
-672.120	-26.151	-0.016	-0.009
-671.105	-200.000	0.006	-0.070
-670.091	-200.000	0.001	-0.167
-669.076	800.000	-0.077	-0.221
-668.062	326.433	-0.205	-0.397
-667.047	-200.000	-0.045	-0.448
-666.032	719.618	0.144	0.388
-665.018	223.322	0.199	0.325
-664.003	171.637	0.088	0.127
-662.989	-47.398	-0.271	-0.133
-661.974	4.240	-0.175	-0.130
-660.959	-162.477	0.269	0.013
-659.945	127.767	-0.208	-0.267
-658.930	-109.064	0.220	-0.047
-657.916	10.987	0.064	-0.049
-656.901	800.000	-0.154	-0.472
-655.886	-76.049	0.277	-0.099
-654.872	173.958	-0.087	0.127
-653.857	-99.706	-0.345	0.087
-652.843	54.132	-0.156	-0.152
-651.828	-40.548	-0.111	0.058
-650.814	-200.000	-0.004	-0.354
-649.799	800.000	-0.044	0.187
-648.784	-110.642	-0.261	-0.055
-647.770	24.715	0.101	-0.085
-646.755	-116.814	0.163	0.030
-645.741	-158.352	-0.330	0.019
-644.726	329.385	0.095	-0.185
-643.711	-137.074	-0.266	0.031
-642.697	0.650	0.117	0.084
-641.682	-9.327	0.149	-0.101
-640.668	-124.733	-0.342	-0.053
-639.653	-200.000	-0.013	0.141
-638.638	206.498	-0.065	-0.103
-637.624	-200.000	0.004	0.298
-636.609	-24.054	-0.281	-0.170
-635.595	-200.000	0.014	-0.239
-634.580	-114.514	0.238	0.046
-633.565	195.343	-0.134	0.206
-632.551	-153.929	-0.230	-0.016
-631.536	-51.886	-0.225	-0.106
-630.522	-200.000	-0.010	0.242
-629.507	243.414	-0.096	0.162
-628.492	33.549	-0.267	0.234
-627.478	-154.122	0.023	-0.002
-626.463	-200.000	-0.024	-0.188
-625.449	47.117	-0.095	0.089
-624.434	411.624	0.031	0.066
-623.419	160.025	0.024	0.033
-622.405	47.073	-0.147	-0.138
-621.390	-37.035	-0.214	-0.116
-620.376	800.000	-0.051	0.155
-619.361	-200.000	-0.068	0.308
-618.346	-200.000	-0.055	0.292
-617.332	155.465	0.093	-0.129
-616.317	-55.581	-0.030	0.014
-615.303	-200.000	0.008	-0.155
-614.288	708.994	-0.060	-0.159
-613.273	9.048	-0.269	0.205
-612.259	-89.429	0.022	0.006
-611.244	-16.576	0.035	0.022
-610.230	119.660	0.176	0.220
-609.215	46.764	-0.298	0.280
-608.201	-115.012	0.350	0.067
-607.186	-97.736	-0.416	0.109
-606.171	-60.348	0.136	0.058
-605.157	800.000	-0.051	-0.158
-604.142	800.000	0.079	0.287
-603.128	214.247	-0.131	0.209
-602.113	26.175	0.179	-0.151
-601.098	72.265	-0.238	0.250
-600.084	-200.000	0.034	-0.390
-599.069	-65.990	-0.378	0.152
-598.055	4.969	-0.270	0.201
-597.040	-126.179	-0.151	0.023
-596.025	-200.000	0.001	0.410
-595.011	-200.000	-0.008	0.215
-593.996	8.116	-0.291	0.220
-592.982	130.014	-0.204	-0.263
-591.967	132.253	-0.045	-0.058
-590.952	89.858	0.239	-0.269
-589.938	-60.137	0.357	-0.154
-588.923	3.809	0.241	-0.178
-587.909	52.053	-0.219	-0.210
-586.894	473.852	0.105	-0.239
-585.879	-200.000	-0.090	0.414
-584.865	-52.000	-0.146	-0.069
-583.850	117.994	0.087	0.107
-582.836	318.192	0.033	-0.062
-581.821	-51.046	0.245	-0.116
-580.806	-166.770	0.409	-0.017
-579.792	-200.000	-0.055	-0.424
-578.777	-77.138	-0.216	0.076
-577.763	-134.862	-0.181	-0.022
-576.748	-119.153	0.172	0.030
-575.733	-200.000	0.014	-0.274
-574.719	-126.020	0.236	0.036
-573.704	-66.477	0.279	0.111
-572.690	-42.567	-0.223	-0.115
-571.675	800.000	-0.033	0.140
-570.661	-200.000	0.006	-0.290
-569.646	464.752	-0.160	-0.361
-568.631	-200.000	0.007	0.132
-567.617	45.595	-0.167	-0.155
-566.602	-78.835	0.569	-0.196
-565.588	-47.581	-0.134	0.066
-564.573	-160.804	0.183	-0.010
-563.558	-200.000	-0.007	0.136
-562.544	71.992	-0.276	-0.289
-561.529	196.575	-0.147	-0.226
-560.515	90.937	-0.115	0.130
-559.500	279.111	0.126	0.226
-558.485	45.958	-0.156	0.146
-557.471	-160.864	-0.068	0.004
-556.456	5.314	0.088	0.066
-555.442	151.648	0.085	0.117
-554.427	283.050	0.086	0.155
-553.412	-200.000	0.004	-0.025
-552.398	276.686	-0.063	-0.113
-551.383	-200.000	0.007	-0.185
-550.369	262.729	0.114	-0.200
-549.354	283.154	0.048	-0.087
-548.339	176.263	0.176	0.257
-547.325	748.292	-0.046	0.126
-546.310	-97.277	0.246	0.065
-545.296	-78.712	-0.177	0.061
-544.281	-132.795	-0.189	-0.024
-543.266	-66.132	-0.149	-0.060
-542.252	-200.000	-0.027	-0.155
-541.237	25.208	-0.152	-0.127
-540.223	-200.000	0.019	0.099
-539.208	-39.612	0.124	0.065
-538.193	-92.265	0.069	0.020
-537.179	256.697	0.081	0.139
-536.164	-200.000	0.022	-0.200
-535.150	65.125	0.168	0.171
-534.135	-144.938	-0.093	0.009
-533.121	448.419	0.163	-0.360
-532.106	627.829	0.127	-0.323
-531.091	-200.000	-0.011	-0.086
-530.077	-193.139	0.158	0.001
-529.062	-200.000	0.035	0.268
-528.048	239.680	-0.077	-0.129
-527.033	-95.784	0.184	0.050
-526.018	-48.952	0.057	0.027
-525.004	-129.773	-0.170	-0.024
-523.989	20.398	0.054	-0.044
-522.975	-91.175	0.209	0.060
-521.960	153.053	0.047	-0.065
-520.945	-49.759	-0.126	-0.060
-519.931	-24.917	0.046	-0.028
-518.916	148.577	-0.040	0.054
-517.902	800.000	0.095	0.287
-516.887	-58.512	-0.142	-0.062
-515.872	168.687	0.229	-0.328
-514.858	48.515	0.171	-0.161
-513.843	800.000	-0.059	0.257
-512.829	83.985	0.202	-0.222
-511.814	-61.405	-0.289	0.122
-510.799	-108.249	-0.233	0.051
-509.785	-4.074	0.359	-0.250
-508.770	-200.000	0.013	0.060
-507.756	800.000	0.099	-0.283
-506.741	115.078	-0.068	-0.084
-505.726	-183.047	0.204	-0.004
-504.712	-1.220	-0.264	0.187
-503.697	120.879	0.050	0.063
-502.683	-53.177	0.111	0.051
-501.668	-89.549	-0.276	0.081
-500.653	62.776	-0.057	-0.057
-499.639	264.994	0.146	-0.255
-498.624	-58.217	-0.236	-0.103
-497.610	-200.000	-0.008	0.085
-496.595	61.752	0.036	-0.036
-495.581	39.932	-0.126	-0.113
-494.566	147.467	-0.094	-0.128
-493.551	122.234	0.196	-0.246
-492.537	118.554	0.138	0.171
-491.522	279.473	-0.069	-0.123
-490.508	11.553	0.279	0.215
-489.493	-200.000	0.005	-0.188
-488.478	-63.141	0.082	0.034
-487.464	800.000	0.064	0.222
-486.449	-200.000	0.021	-0.218
-485.435	-200.000	-0.036	-0.258
-484.420	23.382	-0.135	0.112
-483.405	619.476	-0.089	0.223
-482.391	49.800	0.033	-0.031
-481.376	-162.484	-0.014	-0.001
-480.362	-200.000	0.005	0.136
-479.347	800.000	-0.028	0.083
-478.332	-21.018	-0.363	-0.223
-477.318	48.955	0.231	-0.217
-476.303	-200.000	-0.015	0.110
-475.289	-146.723	-0.411	0.036
-474.274	-61.390	0.202	0.085
-473.259	-90.217	-0.328	-0.096
-472.245	267.757	0.082	0.143
-471.230	-109.612	-0.360	-0.076
-470.216	93.722	0.191	-0.217
-469.201	84.252	0.009	-0.010
-468.186	125.577	-0.211	-0.267
-467.172	407.125	0.026	-0.055
-466.157	-85.749	0.350	0.109
-465.143	-122.551	0.179	-0.029
-464.128	-72.740	-0.095	-0.035
-463.113	33.701	0.222	-0.193
-462.099	-99.922	-0.271	-0.068
-461.084	10.376	0.185	-0.141
-460.070	55.229	0.168	0.163
-459.055	-111.529	0.435	0.089
-458.040	-200.000	0.000	-0.067
-457.026	-82.541	-0.228	0.074
-456.011	-110.273	0.251	0.052
-454.997	-157.994	-0.253	-0.015
-453.982	800.000	-0.040	-0.143
-452.968	-104.227	-0.061	-0.014
-451.953	-8.269	0.260	-0.175
-450.938	612.461	-0.130	-0.326
-449.924	34.538	0.185	-0.162
-448.909	-200.000	-0.002	-0.170
-447.895	157.259	-0.173	0.240
-446.880	-111.928	0.376	-0.076
-445.865	-37.491	0.265	-0.142
-444.851	-200.000	0.011	-0.252
-443.836	58.058	-0.091	0.090
-442.822	237.388	0.039	0.065
-441.807	800.000	0.056	-0.171
-440.792	-66.866	0.226	0.090
-439.778	-71.387	0.152	-0.057
-438.763	-84.303	-0.116	-0.037
-437.749	90.641	-0.146	-0.164
-436.734	160.940	0.091	0.128
-435.719	251.126	-0.069	-0.118
-434.705	800.000	-0.085	0.288
-433.690	-200.000	-0.011	-0.132
-432.676	-175.878	-0.436	0.012
-431.661	-2.776	-0.134	0.094
-430.646	147.814	-0.059	-0.080
-429.632	800.000	0.086	-0.320
-428.617	-116.806	0.097	0.018
-427.603	46.711	0.177	0.165
-426.588	-200.000	0.023	0.226
-425.573	463.754	-0.033	-0.074
-424.559	-161.234	0.261	-0.014
-423.544	-88.916	-0.216	-0.064
-422.530	-38.407	-0.184	0.098
-421.515	421.001	-0.033	-0.070
-420.500	290.094	0.067	-0.122
-419.486	-109.154	-0.106	-0.023
-418.471	205.608	0.129	0.201
-417.457	-79.422	-0.263	0.089
-416.442	-83.483	0.142	0.046
-415.428	-11.092	-0.144	0.095
-414.413	39.439	0.188	0.169
-413.398	34.283	-0.213	0.186
-412.384	-200.000	0.002	-0.164
-411.369	-73.821	0.394	0.144
-410.355	471.234	-0.032	0.073
-409.340	635.432	0.125	-0.318
-408.325	244.596	-0.046	0.077
-407.311	603.479	-0.006	-0.016
-406.296	-144.510	-0.116	0.011
-405.282	-195.615	-0.276	-0.002
-404.267	10.916	-0.034	-0.026
-403.252	-42.960	-0.124	0.063
-402.238	-55.158	0.201	0.091
-401.223	-200.000	0.153	0.000
-400.209	49.258	-0.213	-0.201
-399.194	-4.783	-0.245	0.169
-398.179	-4.346	-0.171	-0.118
-397.165	513.146	0.062	0.144
-396.150	800.000	0.042	0.174
-395.136	-87.873	0.141	-0.043
-394.121	110.180	-0.263	0.316
-393.106	-83.668	0.320	-0.102
-392.092	323.925	-0.112	0.213
-391.077	-41.940	0.091	0.047
-390.063	-111.636	-0.276	0.056
-389.048	313.352	0.017	0.031
-388.033	-93.064	-0.148	0.041
-387.019	-200.000	-0.041	-0.241
-386.004	-113.686	0.168	0.033
-384.990	-200.000	-0.036	0.321
-383.975	244.370	0.027	0.045
-382.960	-65.133	-0.302	-0.122
-381.946	81.167	0.144	0.155
-380.931	-68.340	-0.246	0.096
-379.917	-200.000	-0.013	-0.077
-378.902	-74.684	0.270	-0.097
-377.888	-144.215	-0.497	-0.046
-376.873	192.604	0.134	0.202
-375.858	800.000	0.066	0.266
-374.844	-200.000	-0.034	0.213
-373.829	800.000	0.082	-0.331
-372.815	-200.000	0.021	-0.309
-371.800	-79.408	0.190	-0.064
-370.785	158.801	-0.123	0.170
-369.771	-66.334	0.176	-0.070
-368.756	-55.706	-0.311	0.139
-367.742	50.456	-0.137	0.130
-366.727	161.060	0.189	-0.265
-365.712	800.000	-0.012	0.039
-364.698	-129.147	-0.110	-0.015
-363.683	-200.000	-0.054	-0.285
-362.669	-200.000	-0.011	0.153
-361.654	795.889	-0.028	-0.078
-360.639	-154.511	-0.288	-0.019
-359.625	800.000	0.047	-0.145
-358.610	278.326	-0.086	0.154
-357.596	-73.779	0.187	-0.068
-356.581	-179.506	-0.268	0.006
-355.566	-34.829	-0.185	0.101
-354.552	94.191	0.213	-0.242
-353.537	-200.000	0.007	0.199
-352.523	800.000	0.079	-0.226
-351.508	132.635	0.036	0.047
-350.493	-200.000	-0.015	-0.093
-349.479	9.937	0.117	0.089
-348.464	175.905	0.097	-0.141
-347.450	-200.000	0.038	0.396
-346.435	-9.870	0.103	-0.069
-345.420	800.000	-0.061	-0.192
-344.406	-200.000	0.035	0.224
-343.391	606.777	-0.100	-0.248
-342.377	27.383	0.224	0.188
-341.362	-200.000	0.044	0.211
-340.348	-200.000	-0.008	-0.244
-339.333	-191.474	-0.184	0.002
-338.318	800.000	0.006	-0.020
-337.304	132.971	0.042	0.055
-336.289	284.796	0.137	-0.247
-335.275	-63.562	-0.307	-0.126
-334.260	236.224	-0.137	0.226
-333.245	-78.278	-0.227	0.078
-332.231	800.000	-0.045	-0.155
-331.216	-200.000	0.010	-0.196
-330.202	-16.147	0.235	0.149
-329.187	-162.735	-0.254	-0.012
-328.172	-200.000	0.018	-0.254
-327.158	-200.000	-0.015	-0.404
-326.143	800.000	0.110	-0.323
-325.129	-6.031	0.076	-0.052
-324.114	800.000	0.036	-0.120
-323.099	161.058	0.091	-0.127
-322.085	-103.422	-0.263	0.062
-321.070	-79.760	-0.116	0.039
-320.056	-159.597	-0.136	0.007
-319.041	112.429	0.158	0.190
-318.026	800.000	0.052	0.190
-317.012	564.502	-0.009	0.022
-315.997	-7.237	-0.119	0.081
-314.983	10.579	0.217	-0.165
-313.968	-8.474	0.246	0.165
-312.953	-200.000	0.020	0.089
-311.939	-146.698	-0.097	-0.008
-310.924	-105.013	0.532	0.122
-309.910	-200.000	-0.075	0.407
-308.895	186.654	-0.078	0.116
-307.880	-165.847	0.224	-0.010
-306.866	138.173	-0.201	-0.263
-305.851	-200.000	-0.018	-0.234
-304.837	-200.000	0.065	0.403
-303.822	332.760	0.069	-0.133
-302.807	-200.000	-0.005	-0.077
-301.793	-154.470	0.297	0.020
-300.778	171.054	0.071	0.102
-299.764	-5.217	-0.264	0.181
-298.749	-34.431	0.026	-0.014
-297.735	-163.135	-0.469	0.022
-296.720	-200.000	-0.029	-0.183
-295.705	-25.544	-0.329	0.194
-294.691	-71.144	0.298	0.112
-293.676	-200.000	0.001	0.041
-292.662	-147.376	0.189	-0.016
-291.647	-180.510	0.450	0.009
-290.632	440.797	0.040	0.086
-289.618	-62.766	0.417	0.172
-288.603	-200.000	0.039	-0.333
-287.589	-200.000	-0.013	0.069
-286.574	-200.000	-0.020	0.245
-285.559	-123.659	-0.062	0.010
-284.545	407.169	0.065	0.136
-283.530	-22.484	-0.109	-0.065
-282.516	125.388	-0.034	-0.042
-281.501	-92.710	0.191	-0.053
-280.486	-5.736	-0.166	0.113
-279.472	-200.000	0.028	0.262
-278.457	-200.000	0.015	0.210
-277.443	-13.254	-0.210	-0.136
-276.428	155.853	-0.196	0.269
-275.413	9.606	-0.227	-0.171
-274.399	-107.012	0.179	0.039
-273.384	118.665	0.155	0.191
-272.370	95.740	-0.135	0.153
-271.355	52.995	0.183	-0.174
-270.340	41.360	0.255	-0.230
-269.326	800.000	-0.057	0.230
-268.311	-11.370	0.261	-0.171
-267.297	-42.706	-0.222	-0.113
-266.282	30.992	0.070	-0.060
-265.267	783.259	-0.082	0.225
-264.253	-72.250	-0.231	0.085
-263.238	-200.000	0.004	-0.163
-262.224	-7.335	0.184	-0.124
-261.209	-69.555	-0.039	0.015
-260.195	21.913	0.207	0.168
-259.180	-93.376	-0.167	-0.046
-258.165	-126.882	-0.166	-0.024
-257.151	-50.726	0.142	0.067
-256.136	800.000	0.055	0.201
-255.122	136.115	0.129	0.167
-254.107	-4.727	0.193	0.133
-253.092	800.000	-0.048	0.157
-252.078	479.618	-0.064	0.144
-251.063	-200.000	-0.015	-0.117
-250.049	-200.000	-0.013	-0.169
-249.034	-57.586	-0.165	0.072
-248.019	-35.633	0.139	0.075
-247.005	-82.472	-0.202	0.065
-245.990	-109.736	-0.264	0.055
-244.976	-81.469	0.283	-0.093
-243.961	1.387	-0.045	-0.032
-242.946	-37.327	0.214	-0.114
-241.932	-43.424	-0.139	-0.070
-240.917	-16.116	0.128	-0.081
-239.903	49.791	0.139	-0.130
-238.888	-200.000	-0.029	-0.353
-237.873	149.271	0.001	-0.002
-236.859	19.725	0.291	-0.233
-235.844	-21.722	-0.298	-0.181
-234.830	-200.000	-0.001	0.130
-233.815	-65.943	-0.174	-0.069
-232.800	-58.601	-0.278	-0.120
-231.786	536.111	0.138	0.326
-230.771	-134.310	-0.094	-0.012
-229.757	176.113	0.084	0.121
-228.742	183.538	-0.146	-0.215
-227.727	-200.000	-0.008	-0.063
-226.713	-105.647	-0.132	-0.030
-225.698	-200.000	-0.009	-0.120
-224.684	-94.628	-0.140	-0.038
-223.669	-33.784	-0.083	0.046
-222.655	-200.000	-0.074	0.380
-221.640	-38.624	-0.155	-0.081
-220.625	-5.102	0.410	-0.280
-219.611	83.666	0.127	-0.138
-218.596	-79.823	0.200	-0.067
-217.582	-39.200	-0.053	-0.028
-216.567	204.969	0.187	0.289
-215.552	657.102	0.065	-0.165
-214.538	-200.000	0.004	-0.069
-213.523	-0.573	-0.214	-0.151
-212.509	352.135	0.149	0.293
-211.494	678.505	0.103	-0.266
-210.479	-50.049	-0.378	-0.178
-209.465	800.000	0.017	0.069
-208.450	800.000	-0.049	0.175
-207.436	-32.507	-0.124	0.069
-206.421	800.000	0.003	-0.010
-205.406	-97.370	-0.140	0.036
-204.392	169.932	-0.158	-0.224
-203.377	155.616	0.112	-0.153
-202.363	281.258	0.204	0.362
-201.348	116.604	0.017	-0.021
-200.333	-200.000	-0.000	-0.021
-199.319	34.853	0.247	-0.215
-198.304	97.055	0.037	0.043
-197.290	327.613	-0.126	-0.240
-196.275	-50.251	0.216	-0.101
-195.260	313.302	0.069	-0.129
-194.246	-82.684	0.145	0.047
-193.231	107.809	0.079	-0.093
-192.217	-148.912	0.208	0.017
-191.202	632.728	-0.074	0.185
-190.187	320.673	0.131	0.247
-189.173	434.264	0.159	0.343
-188.158	-200.000	-0.019	-0.135
-187.144	57.268	0.087	0.084
-186.129	800.000	0.065	0.191
-185.114	-157.320	0.125	0.007
-184.100	-200.000	-0.016	0.302
-183.085	317.773	0.192	0.361
-182.071	-200.000	-0.038	-0.216
-181.056	-200.000	0.002	0.144
-180.042	-50.312	-0.136	0.064
-179.027	800.000	-0.025	-0.095
-178.012	-200.000	-0.020	0.197
-176.998	135.388	0.176	0.227
-175.983	16.808	-0.349	-0.274
-174.969	-48.043	0.457	-0.219
-173.954	36.900	0.152	-0.134
-172.939	719.297	0.118	0.311
-171.925	272.824	-0.141	0.247
-170.910	-66.961	-0.278	-0.109
-169.896	-200.000	-0.014	-0.223
-168.881	120.405	0.173	0.213
-167.866	-200.000	0.019	-0.098
-166.852	-95.866	0.056	0.015
-165.837	-200.000	-0.043	-0.203
-164.823	-200.000	-0.074	-0.352
-163.808	17.410	0.099	-0.078
-162.793	63.669	0.188	0.187
-161.779	-27.433	0.327	0.189
-160.764	800.000	-0.013	0.042
-159.750	800.000	-0.049	0.203
-158.735	-46.781	-0.076	0.037
-157.720	157.719	0.020	0.027
-156.706	-94.995	-0.102	0.027
-155.691	-200.000	-0.018	0.090
-154.677	424.042	-0.011	-0.024
-153.662	800.000	-0.015	0.041
-152.647	800.000	-0.057	0.182
-151.633	-64.503	0.208	0.084
-150.618	185.772	-0.128	-0.188
-149.604	67.467	-0.163	0.165
-148.589	-91.395	0.303	0.086
-147.574	-118.500	0.109	-0.019
-146.560	359.516	0.133	0.263
-145.545	124.778	0.201	0.251
-144.531	-145.148	-0.305	-0.027
-143.516	-51.447	-0.335	0.155
-142.502	254.611	0.231	-0.391
-141.487	-200.000	0.021	0.218
-140.472	800.000	-0.117	0.326
-139.458	-200.000	0.026	-0.170
-138.443	10.546	0.435	0.329
-137.429	58.058	-0.050	0.049
-136.414	-200.000	-0.014	0.179
-135.399	-175.754	0.438	0.012
-134.385	-200.000	-0.036	0.299
-133.370	-200.000	0.022	0.335
-132.356	71.768	-0.137	0.141
-131.341	-200.000	0.055	0.281
-130.326	301.658	0.107	0.196
-129.312	-81.727	-0.244	-0.079
-128.297	181.097	-0.129	-0.188
-127.283	99.199	0.116	0.133
-126.268	-200.000	0.023	-0.171
-125.253	-200.000	-0.017	0.078
-124.239	800.000	0.054	0.162
-123.224	-114.336	-0.183	0.035
-122.210	-146.251	0.232	0.020
-121.195	-39.503	-0.264	-0.137
-120.180	-6.651	-0.075	0.051
-119.166	360.691	-0.074	0.147
-118.151	-64.649	0.266	-0.107
-117.137	192.900	0.189	0.283
-116.122	-120.934	-0.290	-0.048
-115.107	-79.396	0.226	-0.076
-114.093	800.000	-0.143	-0.455
-113.078	-73.333	-0.544	-0.197
-112.064	800.000	-0.031	0.121
-111.049	107.968	0.035	0.041
-110.034	-200.000	-0.000	0.188
-109.020	124.227	-0.138	0.171
-108.005	31.617	-0.068	0.058
-106.991	86.362	-0.103	0.113
-105.976	755.522	0.046	0.123
-104.962	581.250	-0.081	0.198
-103.947	-111.100	0.419	-0.085
-102.932	707.184	-0.016	0.041
-101.918	-116.033	0.178	0.033
-100.903	58.193	0.204	-0.198
-99.889	800.000	0.126	-0.414
-98.874	-73.405	-0.227	-0.082
-97.859	261.064	-0.013	-0.022
-96.845	-36.441	0.279	0.148
-95.830	63.284	-0.134	-0.132
-94.816	9.077	0.028	0.021
-93.801	235.424	-0.174	-0.284
-92.786	84.925	0.057	0.062
-91.772	-93.317	-0.018	-0.005
-90.757	-100.688	-0.227	-0.055
-89.743	-176.852	0.074	0.002
-88.728	3.281	0.132	-0.095
-87.713	-73.727	0.384	0.138
-86.699	-100.627	-0.205	0.050
-85.684	348.832	-0.090	-0.175
-84.670	195.434	0.022	0.033
-83.655	-87.750	-0.107	-0.032
-82.640	-37.363	0.049	-0.026
-81.626	-24.042	-0.143	-0.084
-80.611	-13.231	0.248	-0.159
-79.597	712.764	0.143	-0.374
-78.582	-117.883	0.200	0.035
-77.567	-200.000	0.038	0.249
-76.553	262.863	0.087	0.149
-75.538	-39.245	0.204	-0.106
-74.524	81.377	0.199	-0.212
-73.509	800.000	-0.086	-0.252
-72.494	156.669	-0.043	0.058
-71.480	-157.783	-0.591	-0.035
-70.465	315.803	0.077	0.144
-69.451	165.039	-0.070	-0.097
-68.436	800.000	-0.004	-0.013
-67.422	-83.436	0.328	0.104
-66.407	38.550	0.261	0.230
-65.392	133.039	-0.081	-0.103
-64.378	-59.631	0.215	0.091
-63.363	417.082	0.034	0.071
-62.349	11.239	-0.207	0.156
-61.334	366.795	-0.462	-0.922
-60.319	45.006	0.184	0.167
-59.305	800.000	-0.208	-0.845
-58.290	435.000	0.427	0.917
-57.276	343.017	0.672	1.301
-56.261	-200.000	97.631	557.944
-55.246	491.926	1434.828	3245.478
-54.232	142.157	2667.554	3494.194
-53.217	110.346	2228.747	2643.832
-52.203	45.692	1665.138	1519.339
-51.188	37.281	1395.724	1220.882
-50.173	34.077	1352.718	1163.656
-49.159	55.287	1401.797	1338.399
-48.144	58.671	1419.351	1376.145
-47.130	37.719	1373.919	1204.331
-46.115	34.104	1355.777	1166.271
-45.100	33.915	1351.102	1161.046
-44.086	33.855	1349.242	1159.038
-43.071	33.879	1346.470	1156.758
-42.057	33.751	1344.647	1154.366
-41.042	33.718	1342.714	1152.462
-40.027	33.916	1341.078	1152.212
-39.013	33.934	1339.071	1150.549
-37.998	33.902	1337.177	1148.685
-36.984	33.919	1335.706	1147.476
-35.969	33.934	1333.671	1145.774
-34.954	34.074	1332.053	1145.181
-33.940	34.000	1331.119	1143.888
-32.925	34.071	1329.392	1142.781
-31.911	33.981	1328.206	1141.177
-30.896	33.970	1326.600	1139.687
-29.881	34.102	1324.971	1139.035
-28.867	34.051	1323.119	1137.090
-27.852	34.099	1322.177	1136.526
-26.838	34.040	1320.997	1135.111
-25.823	33.985	1319.364	1133.337
-24.809	34.038	1317.911	1132.358
-23.794	34.054	1316.274	1131.001
-22.779	33.974	1315.527	1129.839
-21.765	33.976	1314.095	1128.578
-20.750	34.048	1312.235	1127.363
-19.736	33.836	1311.242	1125.210
-18.721	33.916	1309.826	1124.422
-17.706	33.905	1308.427	1123.109
-16.692	33.865	1307.407	1121.957
-15.677	33.999	1306.123	1121.597
-14.663	33.775	1305.731	1119.899
-13.648	33.841	1304.065	1118.809
-12.633	33.856	1303.310	1118.207
-11.619	33.820	1302.890	1117.590
-10.604	33.888	1301.202	1116.501
-9.590	33.856	1300.607	1115.756
-8.575	33.846	1299.765	1114.929
-7.560	33.873	1298.275	1113.768
-6.546	33.826	1297.739	1112.986
-5.531	33.840	1296.735	1112.162
-4.517	33.803	1295.758	1111.068
-3.502	33.889	1295.163	1111.016
-2.487	33.858	1294.242	1110.000
-1.473	33.877	1290.424	1106.790
-0.458	33.162	1275.969	1090.231
0.556	29.258	1257.751	1051.358
1.571	24.613	1262.775	1028.787
2.586	22.644	1276.460	1028.376
3.600	21.136	1263.643	1009.246
4.615	15.231	1186.951	915.736
5.629	5.895	1107.016	806.216
6.644	1.525	1085.421	768.371
7.659	1.109	1083.238	764.662
8.673	0.969	1082.049	763.045
9.688	0.988	1081.415	762.630
10.702	1.223	1079.138	762.135
11.717	5.983	1085.373	790.478
12.731	13.562	1095.915	836.485
13.746	17.208	1099.358	857.474
14.761	17.696	1099.452	859.930
15.775	16.947	1097.642	854.668
16.790	15.933	1095.752	848.018
17.804	15.354	1094.088	843.740
18.819	14.984	1092.635	840.685
19.834	14.550	1091.611	837.648
20.848	14.215	1091.490	835.797
21.863	14.117	1090.102	834.169
22.877	13.978	1089.097	832.629
23.892	13.788	1088.825	831.396
24.907	13.975	1087.703	831.401
25.921	13.881	1087.177	830.454
26.936	13.979	1085.958	829.941
27.950	13.822	1085.062	828.398
28.965	14.007	1083.971	828.416
29.980	13.920	1082.726	826.957
30.994	14.094	1081.606	826.893
32.009	14.127	1080.747	826.330
33.023	14.081	1079.651	825.189
34.038	14.003	1078.598	823.926
35.053	14.019	1077.538	823.120
36.067	14.036	1076.995	822.717
37.082	14.026	1076.124	821.932
38.096	13.986	1075.368	821.082
39.111	13.959	1074.307	820.064
40.126	13.987	1073.381	819.426
41.140	14.001	1072.043	818.402
42.155	13.905	1070.883	816.971
43.169	13.942	1069.796	816.249
44.184	13.848	1069.095	815.179
45.199	13.894	1068.048	814.537
46.213	13.927	1066.671	813.575
47.228	13.932	1065.756	812.832
48.242	13.928	1064.437	811.731
49.257	13.978	1063.773	811.401
50.271	14.132	1062.742	811.292
51.286	14.097	1061.598	810.179
52.301	14.146	1060.678	809.641
53.315	13.841	1059.972	807.546
54.330	13.826	1059.062	806.707
55.344	13.934	1058.129	806.450
56.359	13.966	1057.043	805.707
57.374	14.037	1055.788	805.026
58.388	13.900	1055.323	803.937
59.403	14.031	1054.546	803.904
60.417	13.858	1054.109	802.664
61.432	13.767	1053.277	801.522
62.447	13.898	1052.118	801.200
63.461	13.858	1050.955	800.051
64.476	13.817	1050.615	799.525
65.490	13.837	1049.707	798.858
66.505	13.841	1048.951	798.231
67.520	13.886	1048.213	797.817
68.534	13.928	1047.741	797.588
69.549	13.834	1047.026	796.522
70.563	13.833	1046.128	795.762
71.578	13.731	1045.234	794.525
72.593	13.855	1044.454	794.452
73.607	13.813	1043.856	793.726
74.622	13.780	1043.165	792.974
75.636	13.956	1042.385	793.151
76.651	13.893	1041.307	791.961
77.666	13.756	1040.927	790.947
78.680	13.748	1040.534	790.541
79.695	13.720	1039.735	789.732
80.709	13.863	1039.289	790.005
81.724	13.882	1038.271	789.250
82.739	13.889	1037.265	788.448
83.753	14.004	1036.407	788.275
84.768	14.056	1035.674	787.890
85.782	14.072	1034.506	787.011
86.797	14.106	1033.747	786.521
87.812	13.961	1032.949	785.162
88.826	14.043	1031.976	784.738
89.841	13.977	1031.049	783.652
90.855	14.082	1029.882	783.194
91.870	14.123	1029.516	783.037
92.884	14.127	1028.775	782.422
93.899	14.094	1027.883	781.521
94.914	14.050	1026.623	780.289
95.928	14.094	1026.244	780.137
96.943	14.089	1024.957	779.066
97.957	14.104	1023.793	778.181
98.972	14.074	1023.634	777.850
99.987	14.121	1022.279	776.975
101.001	14.168	1021.479	776.518
102.016	14.105	1020.489	775.401
103.030	14.128	1020.204	775.225
104.045	14.083	1019.221	774.197
105.060	14.118	1018.461	773.717
106.074	14.169	1017.584	773.218
107.089	14.011	1016.503	771.593
108.103	14.011	1015.654	770.883
109.118	13.954	1014.939	770.006
110.133	14.049	1013.827	769.533
111.147	13.937	1013.438	768.654
112.162	13.959	1012.506	767.982
113.176	14.120	1011.162	767.634
114.191	14.108	1010.515	767.022
115.206	14.118	1010.013	766.620
116.220	14.272	1008.499	766.110
117.235	14.096	1008.315	765.091
118.249	14.042	1007.097	763.853
119.264	13.966	1006.823	763.229
120.279	14.174	1005.711	763.274
121.293	14.163	1004.861	762.509
122.308	14.033	1003.857	761.083
123.322	14.102	1003.199	760.835
124.337	14.057	1001.677	759.406
125.352	14.061	1000.642	758.575
126.366	14.084	999.309	757.599
127.381	14.060	998.547	756.846
128.395	14.067	997.759	756.212
129.410	14.081	996.817	755.497
130.424	14.188	995.580	754.977
131.439	14.182	994.920	754.382
132.454	14.107	994.307	753.512
133.468	14.130	993.418	752.874
134.483	14.182	992.510	752.358
135.497	14.156	991.574	751.461
136.512	14.144	990.730	750.703
137.527	14.222	989.942	750.391
138.541	14.151	989.472	749.647
139.556	14.206	988.343	748.974
140.570	14.047	988.248	748.119
141.585	14.280	986.724	747.949
142.600	14.239	986.059	747.192
143.614	14.266	985.033	746.470
144.629	14.308	983.996	745.806
145.643	14.176	983.642	744.882
146.658	14.201	982.262	743.882
147.673	14.259	981.471	743.475
148.687	14.207	980.508	742.448
149.702	14.205	979.730	741.785
150.716	14.388	978.630	741.701
151.731	14.235	978.319	740.721
152.746	14.106	977.686	739.599
153.760	14.234	977.100	739.659
154.775	14.268	976.586	739.356
155.789	14.281	975.892	738.826
156.804	14.434	975.102	738.841
157.819	14.398	974.168	737.907
158.833	14.424	973.393	737.368
159.848	14.418	972.706	736.759
160.862	14.428	971.438	735.775
161.877	14.268	970.714	734.457
162.892	14.413	969.508	734.116
163.906	14.287	969.161	733.233
164.921	14.288	968.128	732.392
165.935	14.415	967.068	732.087
166.950	14.303	966.251	730.908
167.964	14.332	965.148	730.136
168.979	14.364	964.828	729.972
169.994	14.371	963.444	728.892
171.008	14.468	962.774	728.743
172.023	14.379	962.438	728.037
173.037	14.542	961.629	728.071
174.052	14.557	960.614	727.301
175.067	14.387	960.391	726.328
176.081	14.430	960.085	726.219
177.096	14.456	959.409	725.758
178.110	14.629	958.021	725.395
179.125	14.541	957.360	724.449
180.140	14.536	957.628	724.566
181.154	14.555	956.930	724.056
182.169	14.552	956.556	723.696
183.183	14.632	955.717	723.343
184.198	14.626	954.641	722.438
185.213	14.623	954.326	722.122
186.227	14.607	953.404	721.294
187.242	14.673	953.062	721.256
188.256	14.777	951.763	720.658
189.271	14.676	951.234	719.760
190.286	14.610	950.543	718.889
191.300	14.608	949.639	718.131
192.315	14.436	949.685	717.361
193.329	14.558	948.669	717.058
194.344	14.629	948.196	716.940
195.359	14.577	947.115	715.837
196.373	14.726	946.543	715.981
197.388	14.685	946.208	715.485
198.402	14.756	945.687	715.333
199.417	14.918	944.689	715.207
200.432	14.817	944.836	714.824
201.446	14.995	943.753	714.704
202.461	15.006	943.403	714.421
203.475	14.819	943.072	713.308
204.490	14.789	942.316	712.548
205.504	14.827	941.327	711.896
206.519	14.857	940.371	711.237
207.534	14.895	939.596	710.753
208.548	14.857	939.093	710.146
209.563	14.834	938.396	709.460
210.577	14.907	937.770	709.231
211.592	14.997	937.153	709.084
212.607	15.027	936.205	708.433
213.621	15.032	935.382	707.769
214.636	15.090	934.747	707.469
215.650	14.981	934.088	706.446
216.665	15.099	933.324	706.307
217.680	15.202	932.249	705.864
218.694	15.059	931.935	704.962
219.709	15.146	931.528	704.957
220.723	15.135	930.844	704.329
221.738	15.091	930.082	703.507
222.753	15.200	929.279	703.293
223.767	15.133	929.017	702.753
224.782	15.200	928.259	702.398
225.796	15.305	927.452	702.163
226.811	15.299	926.827	701.605
227.826	15.220	926.066	700.635
228.840	15.257	925.046	699.959
229.855	15.328	924.723	699.946
230.869	15.271	923.583	698.785
231.884	15.288	923.332	698.604
232.899	15.265	922.429	697.764
233.913	15.299	921.689	697.282
234.928	15.229	921.068	696.463
235.942	15.205	920.559	695.914
236.957	15.111	919.928	694.984
237.972	15.426	919.008	695.533
238.986	15.260	918.746	694.586
240.001	15.335	917.981	694.257
241.015	15.343	917.066	693.538
242.030	15.342	916.469	693.021
243.045	15.280	916.399	692.648
244.059	15.412	915.451	692.419
245.074	15.369	914.781	691.673
246.088	15.367	914.080	691.072
247.103	15.457	913.213	690.727
248.117	15.451	912.657	690.220
249.132	15.482	912.697	690.315
250.147	15.673	911.433	690.083
251.161	15.640	911.114	689.643
252.176	15.679	909.805	688.755
253.190	15.735	909.429	688.635
254.205	15.768	908.637	688.110
255.220	15.794	907.683	687.432
256.234	15.654	907.495	686.659
257.249	15.738	907.158	686.685
258.263	15.881	905.997	686.328
259.278	15.739	905.391	685.232
260.293	15.834	904.806	685.115
261.307	15.811	904.489	684.720
262.322	15.780	904.031	684.189
263.336	15.823	902.796	683.368
264.351	15.909	901.954	683.016
265.366	15.907	901.530	682.628
266.380	15.978	900.965	682.428
267.395	16.006	899.801	681.598
268.409	15.968	899.427	681.101
269.424	16.070	898.670	680.881
270.439	15.960	898.262	680.066
271.453	16.019	897.283	679.502
272.468	15.947	897.054	678.979
273.482	16.031	896.074	678.513
274.497	15.992	895.387	677.779
275.512	16.006	895.086	677.546
276.526	16.055	894.663	677.364
277.541	16.145	893.942	677.119
278.555	16.154	893.658	676.880
279.570	16.207	892.583	676.218
280.585	16.187	891.978	675.620
281.599	16.133	890.968	674.580
282.614	16.180	890.277	674.186
283.628	16.135	889.832	673.609
284.643	16.199	889.305	673.404
285.657	16.184	888.531	672.701
286.672	16.235	888.090	672.510
287.687	16.226	888.014	672.358
288.701	16.161	887.168	671.398
289.716	16.209	886.423	670.964
290.730	16.277	885.593	670.547
291.745	16.305	885.062	670.199
292.760	16.268	884.620	669.655
293.774	16.344	883.872	669.333
294.789	16.199	883.490	668.409
295.803	16.356	882.606	668.304
296.818	16.339	881.526	667.358
297.833	16.303	881.129	666.859
298.847	16.331	880.429	666.378
299.862	16.409	879.911	666.234
300.876	16.622	879.005	666.329
301.891	16.545	878.680	665.722
302.906	16.426	878.429	665.003
303.920	16.632	877.500	665.052
304.935	16.645	876.362	664.182
305.949	16.552	876.460	663.831
306.964	16.529	876.022	663.349
307.979	16.625	874.850	662.779
308.993	16.564	874.590	662.288
310.008	16.745	873.895	662.410
311.022	16.640	873.632	661.742
312.037	16.534	873.063	660.836
313.052	16.645	872.150	660.520
314.066	16.660	871.806	660.260
315.081	16.638	871.098	659.580
316.095	16.679	870.467	659.205
317.110	16.712	869.931	658.868
318.125	16.636	869.270	658.012
319.139	16.574	869.096	657.583
320.154	16.722	868.399	657.573
321.168	16.831	867.878	657.540
322.183	16.669	867.551	656.606
323.197	16.887	866.469	656.576
324.212	16.783	866.376	656.043
325.227	16.722	865.830	655.334
326.241	16.814	865.000	655.006
327.256	16.669	864.645	654.118
328.270	16.818	863.833	654.020
329.285	16.782	863.557	653.616
330.300	16.690	862.722	652.570
331.314	16.764	862.398	652.552
332.329	16.770	862.051	652.256
333.343	16.841	861.493	652.049
334.358	16.926	860.702	651.720
335.373	16.985	860.481	651.722
336.387	16.902	860.111	651.063
337.402	16.879	859.958	650.804
338.416	16.951	859.732	650.851
339.431	17.160	858.625	650.757
340.446	17.094	858.098	650.048
341.460	16.994	858.145	649.641
342.475	17.162	857.572	649.792
343.489	17.037	857.509	649.209
344.504	17.186	856.684	649.097
345.519	17.139	856.433	648.669
346.533	17.146	855.458	647.902
347.548	17.189	855.094	647.733
348.562	17.046	854.847	646.944
349.577	17.157	853.891	646.584
350.592	17.171	853.542	646.315
351.606	17.217	852.991	646.018
352.621	17.153	852.267	645.169
353.635	17.161	851.375	644.466
354.650	17.404	850.145	644.399
355.665	17.298	849.927	643.775
356.679	17.283	849.276	643.167
357.694	17.376	848.529	642.898
358.708	17.262	848.357	642.278
359.723	17.326	847.411	641.747
360.738	17.347	846.598	641.152
361.752	17.405	846.131	640.962
362.767	17.372	845.748	640.492
363.781	17.402	845.397	640.282
364.796	17.395	844.859	639.792
365.810	17.510	844.165	639.642
366.825	17.454	844.039	639.278
367.840	17.492	843.710	639.113
368.854	17.599	842.978	638.904
369.869	17.511	842.488	638.149
370.883	17.535	842.142	637.920
371.898	17.620	841.634	637.797
372.913	17.650	841.219	637.537
373.927	17.610	840.886	637.079
374.942	17.709	840.562	637.147
375.956	17.604	840.110	636.356
376.971	17.752	839.202	636.165
377.986	17.833	838.970	636.232
379.000	17.768	838.840	635.835
380.015	17.754	838.071	635.144
381.029	17.709	837.858	634.761
382.044	17.765	836.772	634.088
383.059	17.840	836.062	633.774
384.073	17.888	835.708	633.626
385.088	17.866	834.931	632.903
386.102	17.948	834.085	632.506
387.117	17.803	833.907	631.779
388.132	17.857	833.381	631.527
389.146	17.827	832.762	630.889
390.161	17.777	832.670	630.580
391.175	17.775	832.255	630.202
392.190	17.837	831.391	629.722
393.205	17.882	830.685	629.297
394.219	17.907	830.389	629.109
395.234	17.786	830.490	628.684
396.248	17.891	829.836	628.519
397.263	17.819	829.439	627.898
398.278	17.985	828.979	628.105
399.292	17.889	828.519	627.348
400.307	17.903	828.111	627.035
401.321	17.936	827.430	626.584
402.336	18.077	826.732	626.517
403.350	17.919	826.617	625.797
404.365	18.018	826.036	625.664
405.380	18.129	825.212	625.388
406.394	18.043	825.094	624.928
407.409	18.080	824.720	624.726
408.423	18.079	824.756	624.695
409.438	18.135	823.894	624.191
410.453	18.092	823.646	623.790
411.467	18.234	823.003	623.767
412.482	18.259	822.650	623.534
413.496	18.290	822.277	623.311
414.511	18.237	821.873	622.756
415.526	18.289	821.534	622.631
416.540	18.260	821.007	622.073
417.555	18.459	820.063	622.026
418.569	18.352	819.895	621.454
419.584	18.352	819.534	621.124
420.599	18.375	819.269	620.955
421.613	106.202	1286.691	1446.154
422.628	91.862	1354.781	1446.281
