DTS Sentinel unit serial number:	SN413079Multiplexer serial number:	ORYXHardware model number:	OX4-SRSoftware version number:	ORYX F/W v4.00 Oryx Data Collector v3.7.2.0data status	okinstallation	princeton_trtdifferential loss correction	single-endedforward channel	channel 1reverse channel	N/Adate	2019/09/12time	09:52:11forward acquisition time	60.00reverse acquisition time	0.00gamma	496.2192k internal	0.2299k external	0.2299temperature offset calibration	1.0050default loss term (dB/km)	0.3790temperature slope calibration	1.0000multiplexer offset coefficient	1.0000multiplexer slope coefficient	1.0000fibre end	0.00T internal ref (°C)	36.06T ext. ref 1 (°C)	1.85T ext. ref 2 (°C)	32.33length (m)	temperature (°C)	Stokes	anti-Stokes-747.200	-200.000	0.008	-0.078
-746.185	125.353	-0.072	0.093
-745.171	396.834	0.226	-0.481
-744.156	81.569	0.226	-0.249
-743.142	348.795	0.131	0.263
-742.127	-16.392	-0.273	0.177
-741.112	383.431	0.029	0.061
-740.098	263.600	0.284	0.504
-739.083	-87.825	-0.139	0.043
-738.069	-200.000	-0.006	0.094
-737.054	-200.000	0.030	0.607
-736.039	16.534	-0.401	0.323
-735.025	800.000	-0.036	-0.151
-734.010	254.062	-0.170	-0.297
-732.996	-105.605	-0.045	-0.010
-731.981	95.976	-0.279	-0.325
-730.966	800.000	-0.036	0.109
-729.952	-1.223	0.218	-0.157
-728.937	-95.001	0.006	-0.002
-727.923	74.745	0.102	-0.110
-726.908	-68.183	0.132	0.052
-725.894	-200.000	-0.020	0.129
-724.879	-125.010	-0.293	0.046
-723.864	86.522	-0.331	-0.372
-722.850	800.000	-0.037	-0.155
-721.835	-44.856	0.180	-0.091
-720.821	800.000	0.020	0.066
-719.806	-125.827	0.272	-0.042
-718.791	390.355	0.113	-0.240
-717.777	-129.406	0.217	0.031
-716.762	-156.213	0.114	0.007
-715.748	15.554	-0.146	-0.117
-714.733	445.597	0.071	0.159
-713.718	-20.004	0.218	0.137
-712.704	-16.507	-0.063	0.041
-711.689	-113.336	-0.517	-0.103
-710.675	-186.400	0.144	0.002
-709.660	800.000	0.054	-0.175
-708.645	-200.000	0.007	0.053
-707.631	-43.748	-0.092	0.047
-706.616	-21.583	-0.288	-0.179
-705.602	300.698	-0.128	-0.240
-704.587	-151.939	-0.224	0.017
-703.572	331.513	0.041	0.080
-702.558	-73.082	0.278	-0.104
-701.543	-26.493	0.132	0.079
-700.529	80.616	-0.102	-0.112
-699.514	540.444	0.076	0.184
-698.499	-200.000	-0.046	-0.322
-697.485	-68.550	0.070	0.028
-696.470	74.485	-0.061	0.066
-695.456	-97.820	0.265	-0.070
-694.441	69.976	0.194	-0.203
-693.426	-109.918	-0.240	-0.051
-692.412	161.033	-0.171	-0.243
-691.397	30.065	-0.085	0.074
-690.383	196.953	-0.088	0.137
-689.368	-45.448	0.352	0.178
-688.354	-200.000	0.031	-0.238
-687.339	80.986	-0.179	-0.196
-686.324	800.000	0.036	0.159
-685.310	-74.273	-0.060	0.022
-684.295	-200.000	-0.033	0.357
-683.281	-10.786	-0.222	-0.149
-682.266	316.989	-0.021	0.041
-681.251	110.558	-0.154	-0.188
-680.237	-200.000	0.012	0.150
-679.222	-185.746	-0.053	-0.001
-678.208	-200.000	-0.017	-0.116
-677.193	101.678	-0.191	-0.227
-676.178	783.180	-0.069	0.191
-675.164	434.525	-0.205	0.452
-674.149	-40.484	0.116	0.062
-673.135	47.575	0.115	-0.110
-672.120	98.586	-0.249	-0.293
-671.105	594.435	0.121	-0.304
-670.091	-57.543	-0.103	-0.046
-669.076	657.362	-0.109	0.286
-668.062	35.110	-0.152	-0.135
-667.047	595.286	-0.021	-0.052
-666.032	-93.405	0.282	-0.080
-665.018	-28.777	-0.101	-0.059
-664.003	-95.271	0.216	-0.059
-662.989	-200.000	-0.064	0.314
-661.974	667.949	-0.065	0.171
-660.959	-188.159	-0.338	0.004
-659.945	684.013	0.127	0.338
-658.930	-200.000	-0.028	0.192
-657.916	-73.959	0.290	0.107
-656.901	-170.150	0.187	-0.007
-655.886	800.000	0.039	-0.129
-654.872	800.000	0.041	-0.116
-653.857	700.014	0.076	-0.204
-652.843	-200.000	0.004	0.229
-651.828	800.000	0.091	-0.326
-650.814	422.427	-0.111	-0.243
-649.799	68.332	0.164	-0.171
-648.784	-54.704	0.119	-0.055
-647.770	-200.000	0.131	-0.729
-646.755	800.000	-0.080	-0.246
-645.741	-92.153	-0.232	0.067
-644.726	800.000	-0.074	0.245
-643.711	-200.000	-0.004	0.103
-642.697	205.852	-0.099	0.156
-641.682	-111.537	0.060	-0.012
-640.668	24.433	-0.223	0.188
-639.653	133.422	-0.151	-0.199
-638.638	186.162	0.030	0.046
-637.624	162.215	-0.133	-0.189
-636.609	673.278	0.100	0.264
-635.595	289.214	0.137	-0.253
-634.580	396.299	-0.099	-0.210
-633.565	-36.755	0.394	-0.215
-632.551	-175.190	-0.156	-0.004
-631.536	62.270	-0.256	-0.260
-630.522	263.910	0.235	0.415
-629.507	-158.022	-0.156	-0.009
-628.492	18.330	-0.023	0.019
-627.478	-200.000	-0.004	-0.347
-626.463	-70.818	0.240	-0.092
-625.449	-200.000	0.037	0.216
-624.434	646.357	-0.101	0.261
-623.419	110.942	-0.141	0.172
-622.405	800.000	0.087	-0.287
-621.390	-199.878	0.433	-0.002
-620.376	-68.839	-0.166	0.065
-619.361	98.203	0.132	-0.154
-618.346	-15.513	0.080	0.052
-617.332	800.000	-0.069	0.227
-616.317	-200.000	-0.024	0.197
-615.303	800.000	0.027	-0.107
-614.288	-200.000	-0.042	-0.235
-613.273	-200.000	-0.020	-0.146
-612.259	122.299	-0.083	-0.106
-611.244	-81.379	0.116	0.039
-610.230	-34.808	-0.142	-0.079
-609.215	-200.000	0.000	-0.038
-608.201	12.085	-0.079	-0.062
-607.186	24.070	-0.215	-0.180
-606.171	-88.869	0.197	0.059
-605.157	62.093	-0.184	-0.186
-604.142	-130.349	-0.093	0.013
-603.128	397.349	0.061	0.129
-602.113	-138.354	0.131	0.015
-601.098	-200.000	0.029	-0.397
-600.084	-61.298	-0.211	-0.090
-599.069	478.640	-0.124	0.285
-598.055	24.939	-0.249	0.210
-597.040	-112.809	0.238	-0.048
-596.025	56.267	-0.135	0.133
-595.011	-39.855	0.126	0.067
-593.996	-127.322	0.235	0.035
-592.982	-200.000	0.004	0.265
-591.967	10.983	-0.340	0.264
-590.952	-6.460	0.283	0.196
-589.938	-200.000	-0.008	0.124
-588.923	-75.366	-0.103	-0.037
-587.909	429.028	0.082	0.180
-586.894	0.144	-0.074	-0.054
-585.879	-28.571	0.313	0.183
-584.865	-132.315	0.171	-0.022
-583.850	-151.107	0.530	0.040
-582.836	-103.760	-0.324	0.077
-581.821	8.558	0.124	0.095
-580.806	55.190	-0.202	-0.198
-579.792	295.772	-0.042	-0.077
-578.777	-146.643	-0.135	-0.012
-577.763	-17.425	0.148	-0.095
-576.748	103.997	-0.106	-0.126
-575.733	800.000	-0.060	-0.210
-574.719	-200.000	-0.015	0.124
-573.704	-200.000	-0.013	-0.166
-572.690	293.302	0.056	-0.104
-571.675	-53.919	0.074	0.034
-570.661	173.885	0.187	0.273
-569.646	-43.541	-0.111	-0.057
-568.631	-21.307	-0.048	-0.030
-567.617	234.708	-0.174	0.291
-566.602	132.812	-0.038	0.050
-565.588	344.548	-0.138	0.274
-564.573	-27.482	-0.188	-0.111
-563.558	157.944	-0.052	0.073
-562.544	765.494	-0.004	-0.012
-561.529	-163.215	0.075	0.004
-560.515	-200.000	0.008	-0.228
-559.500	-28.658	-0.239	0.139
-558.485	-200.000	0.008	-0.082
-557.471	-200.000	-0.011	-0.061
-556.456	-56.566	-0.149	0.067
-555.442	221.112	-0.086	-0.140
-554.427	23.708	-0.206	-0.172
-553.412	38.419	-0.171	0.154
-552.398	-77.748	0.223	-0.078
-551.383	20.194	0.236	0.193
-550.369	167.906	-0.121	0.174
-549.354	160.833	-0.100	0.141
-548.339	-59.060	-0.248	-0.108
-547.325	184.257	0.124	0.186
-546.310	800.000	0.110	0.402
-545.296	-5.754	-0.278	-0.193
-544.281	-45.568	0.293	-0.147
-543.266	137.489	0.057	0.076
-542.252	-200.000	0.016	0.137
-541.237	234.287	0.162	-0.271
-540.223	-20.389	0.160	-0.100
-539.208	-200.000	-0.004	-0.128
-538.193	800.000	-0.086	0.297
-537.179	48.203	-0.135	-0.128
-536.164	-123.386	0.149	0.024
-535.150	-7.768	0.229	-0.157
-534.135	-37.105	-0.166	0.090
-533.121	253.249	0.082	0.141
-532.106	-41.159	-0.139	-0.073
-531.091	-87.598	0.104	-0.032
-530.077	-94.632	-0.348	0.096
-529.062	132.226	-0.086	-0.112
-528.048	800.000	-0.107	-0.371
-527.033	-79.789	0.201	-0.068
-526.018	-161.646	0.312	-0.016
-525.004	-200.000	-0.000	0.061
-523.989	-122.603	-0.223	-0.037
-522.975	224.704	-0.222	-0.364
-521.960	-200.000	-0.010	0.270
-520.945	141.665	0.074	-0.099
-519.931	8.494	-0.059	0.045
-518.916	-48.501	0.123	0.060
-517.902	-200.000	-0.026	0.209
-516.887	-14.615	0.302	0.196
-515.872	601.019	-0.044	0.112
-514.858	19.478	0.054	0.044
-513.843	-147.346	-0.106	0.009
-512.829	-98.271	0.232	0.060
-511.814	-127.412	0.318	-0.047
-510.799	-77.416	0.108	0.038
-509.785	800.000	0.110	0.407
-508.770	-147.895	-0.026	0.002
-507.756	-76.035	-0.201	0.072
-506.741	8.845	0.028	-0.021
-505.726	-75.930	-0.248	-0.089
-504.712	-19.967	-0.061	-0.038
-503.697	42.784	0.204	0.188
-502.683	-63.188	0.250	0.104
-501.668	220.547	-0.112	0.182
-500.653	-75.838	0.057	0.020
-499.639	257.588	-0.156	0.272
-498.624	56.488	-0.122	0.120
-497.610	96.357	-0.140	-0.162
-496.595	-200.000	0.048	0.422
-495.581	222.466	0.144	-0.234
-494.566	551.018	0.160	-0.389
-493.551	-17.013	-0.075	0.048
-492.537	-137.978	-0.142	0.016
-491.522	800.000	0.065	0.238
-490.508	530.228	-0.118	0.282
-489.493	30.108	-0.149	-0.128
-488.478	152.464	0.141	-0.194
-487.464	2.487	0.174	-0.127
-486.449	-46.982	0.258	-0.127
-485.435	-45.962	-0.058	-0.029
-484.420	97.593	0.079	-0.092
-483.405	-51.410	-0.077	0.036
-482.391	10.425	0.217	-0.167
-481.376	120.184	0.122	0.152
-480.362	74.196	-0.076	0.080
-479.347	-106.754	-0.306	0.069
-478.332	-102.950	0.259	0.062
-477.318	-56.026	-0.377	-0.170
-476.303	-108.205	-0.323	-0.071
-475.289	9.685	0.288	-0.220
-474.274	-99.834	-0.313	0.079
-473.259	-200.000	0.021	-0.163
-472.245	-19.666	-0.066	-0.041
-471.230	72.736	0.103	0.109
-470.216	-24.409	-0.087	-0.052
-469.201	-200.000	0.013	-0.144
-468.186	522.011	0.029	-0.069
-467.172	245.264	0.068	-0.115
-466.157	2.252	-0.275	-0.201
-465.143	108.779	0.056	0.068
-464.128	-71.359	0.429	-0.162
-463.113	-20.765	0.210	-0.130
-462.099	-10.663	0.224	0.149
-461.084	800.000	-0.103	-0.383
-460.070	-200.000	0.015	-0.077
-459.055	-42.067	-0.299	-0.154
-458.040	-200.000	0.125	0.578
-457.026	145.510	-0.050	0.068
-456.011	312.017	-0.253	0.479
-454.997	-83.055	0.349	0.113
-453.982	-200.000	-0.012	0.096
-452.968	-200.000	-0.050	0.253
-451.953	800.000	0.044	-0.164
-450.938	-41.727	0.233	-0.121
-449.924	302.515	-0.047	0.087
-448.909	-79.631	0.098	-0.033
-447.895	-143.137	-0.412	0.040
-446.880	142.700	0.150	-0.201
-445.865	-30.438	-0.146	0.083
-444.851	-82.085	0.099	0.032
-443.836	1.099	0.185	-0.134
-442.822	-27.640	0.422	-0.247
-441.807	-91.675	-0.099	-0.028
-440.792	539.692	-0.105	-0.252
-439.778	197.281	-0.208	0.320
-438.763	-83.822	-0.294	0.095
-437.749	-31.795	-0.245	-0.138
-436.734	800.000	0.043	0.165
-435.719	111.562	-0.074	0.090
-434.705	-139.947	0.133	0.014
-433.690	208.124	-0.189	-0.297
-432.676	339.168	0.048	0.094
-431.661	185.913	-0.143	0.214
-430.646	440.437	-0.029	0.063
-429.632	289.531	0.054	0.099
-428.617	-21.203	0.289	0.178
-427.603	-113.906	0.132	-0.026
-426.588	800.000	-0.139	-0.490
-425.573	-200.000	-0.012	-0.155
-424.559	519.508	-0.125	0.295
-423.544	197.916	0.149	0.230
-422.530	210.031	0.121	0.191
-421.515	-14.960	-0.068	-0.044
-420.500	-81.479	-0.205	0.068
-419.486	272.560	0.118	-0.209
-418.471	-178.534	0.263	0.006
-417.457	393.050	-0.110	0.231
-416.442	-101.957	0.227	-0.055
-415.428	31.237	0.121	0.105
-414.413	-200.000	0.027	-0.290
-413.398	69.809	0.024	-0.025
-412.384	35.251	0.312	0.275
-411.369	-124.422	0.167	0.026
-410.355	-200.000	-0.047	0.290
-409.340	60.454	-0.206	0.205
-408.325	-43.625	0.149	-0.076
-407.311	226.813	-0.038	-0.061
-406.296	88.247	0.263	-0.294
-405.282	800.000	0.070	0.281
-404.267	-108.729	0.244	-0.053
-403.252	-200.000	-0.203	0.001
-402.238	800.000	-0.029	-0.108
-401.223	-200.000	0.009	0.039
-400.209	-44.227	0.131	0.066
-399.194	82.991	0.300	0.328
-398.179	-200.000	-0.001	0.262
-397.165	653.031	-0.029	0.076
-396.150	-59.619	0.336	0.145
-395.136	-200.000	-0.026	-0.157
-394.121	-34.050	-0.195	0.108
-393.106	57.823	0.181	-0.178
-392.092	-200.000	0.066	-0.394
-391.077	-138.760	-0.243	0.027
-390.063	-171.545	0.179	0.006
-389.048	154.747	-0.100	-0.138
-388.033	-200.000	-0.031	-0.174
-387.019	800.000	0.019	-0.065
-386.004	198.925	0.170	0.263
-384.990	-107.373	0.199	-0.044
-383.975	425.849	-0.035	0.075
-382.960	-50.535	-0.426	-0.202
-381.946	46.489	0.155	0.145
-380.931	20.284	0.145	-0.118
-379.917	-200.000	0.001	-0.157
-378.902	449.161	-0.089	-0.197
-377.888	103.964	-0.126	0.149
-376.873	-104.689	0.127	0.030
-375.858	207.776	-0.089	0.140
-374.844	800.000	-0.121	-0.365
-373.829	800.000	-0.117	-0.349
-372.815	35.531	0.192	-0.170
-371.800	104.208	0.226	0.267
-370.785	-117.247	-0.267	-0.049
-369.771	61.747	-0.278	0.279
-368.756	-200.000	0.007	0.256
-367.742	-36.327	-0.064	0.035
-366.727	317.975	0.023	-0.043
-365.712	-200.000	0.020	-0.329
-364.698	45.944	-0.092	-0.086
-363.683	-177.014	0.199	-0.005
-362.669	528.088	-0.085	-0.202
-361.654	-200.000	-0.017	-0.169
-360.639	215.404	0.065	-0.103
-359.625	148.596	0.087	0.118
-358.610	-75.635	0.085	0.030
-357.596	-64.187	-0.426	-0.174
-356.581	292.605	0.065	0.119
-355.566	-200.000	0.051	-0.251
-354.552	323.657	-0.040	-0.076
-353.537	-153.493	0.342	0.024
-352.523	-93.770	-0.110	0.030
-351.508	-74.074	-0.299	-0.109
-350.493	-200.000	0.009	-0.378
-349.479	-91.837	-0.184	0.052
-348.464	800.000	0.018	0.057
-347.450	554.778	-0.059	-0.143
-346.435	-200.000	-0.006	-0.132
-345.420	-59.355	0.106	0.046
-344.406	-29.369	0.089	0.051
-343.391	800.000	-0.042	0.120
-342.377	-161.775	-0.310	0.016
-341.362	580.368	0.100	0.246
-340.348	-31.339	0.258	-0.146
-339.333	332.777	-0.067	0.130
-338.318	-200.000	0.022	-0.168
-337.304	-73.118	-0.266	-0.098
-336.289	126.235	0.089	-0.113
-335.275	-74.574	0.208	-0.075
-334.260	-200.000	0.031	-0.212
-333.245	221.066	-0.054	-0.087
-332.231	136.390	-0.198	-0.259
-331.216	155.771	-0.085	0.117
-330.202	-0.235	0.054	0.038
-329.187	1.088	-0.177	-0.127
-328.172	40.973	-0.209	0.190
-327.158	300.013	-0.060	0.110
-326.143	-154.720	-0.240	0.016
-325.129	751.498	0.119	-0.323
-324.114	-19.749	-0.218	0.135
-323.099	800.000	0.065	0.219
-322.085	-200.000	-0.014	-0.234
-321.070	28.433	-0.166	-0.141
-320.056	137.737	0.091	-0.120
-319.041	289.428	0.046	-0.084
-318.026	-14.664	0.031	0.020
-317.012	93.066	-0.263	0.298
-315.997	-140.971	0.292	-0.030
-314.983	151.279	0.254	0.347
-313.968	800.000	-0.038	-0.126
-312.953	39.981	0.046	0.042
-311.939	484.961	-0.101	0.230
-310.924	-16.444	-0.030	0.019
-309.910	-62.719	-0.438	-0.182
-308.895	-200.000	0.003	-0.046
-307.880	800.000	0.124	0.413
-306.866	-30.444	-0.173	0.098
-305.851	-155.882	-0.174	0.011
-304.837	81.676	-0.091	0.099
-303.822	425.716	-0.146	-0.316
-302.807	-15.831	-0.322	0.206
-301.793	800.000	0.029	-0.092
-300.778	261.073	0.207	-0.359
-299.764	28.688	0.041	0.035
-298.749	-200.000	0.009	-0.095
-297.735	464.096	-0.020	-0.044
-296.720	-116.080	-0.146	0.027
-295.705	-62.632	-0.085	-0.035
-294.691	-35.355	0.187	0.102
-293.676	163.022	-0.193	0.272
-292.662	-22.675	0.104	0.063
-291.647	800.000	0.065	-0.201
-290.632	-200.000	0.087	0.448
-289.618	-26.881	-0.019	-0.011
-288.603	-47.526	-0.197	0.096
-287.589	-148.792	-0.314	-0.025
-286.574	-47.112	0.101	-0.050
-285.559	109.269	-0.204	0.245
-284.545	-65.109	-0.403	0.163
-283.530	59.079	0.144	0.142
-282.516	293.712	0.013	-0.024
-281.501	800.000	0.015	0.046
-280.486	135.370	0.062	-0.081
-279.472	110.339	0.289	-0.348
-278.457	69.691	-0.224	-0.231
-277.443	-86.255	-0.283	-0.087
-276.428	56.634	0.201	-0.196
-275.413	-200.000	-0.004	0.233
-274.399	-27.382	-0.145	-0.085
-273.384	-32.176	0.239	0.134
-272.370	-189.085	0.184	-0.002
-271.355	73.518	-0.191	0.201
-270.340	-133.104	-0.366	-0.046
-269.326	440.729	-0.078	-0.171
-268.311	196.982	0.096	-0.146
-267.297	800.000	0.123	0.406
-266.282	-3.020	-0.047	-0.033
-265.267	32.331	0.317	-0.274
-264.253	-197.876	-0.276	0.002
-263.238	-42.370	0.217	0.111
-262.224	-200.000	-0.013	-0.135
-261.209	219.618	-0.184	-0.295
-260.195	-126.687	0.562	0.083
-259.180	483.297	0.082	0.186
-258.165	601.142	-0.012	0.029
-257.151	267.310	-0.095	-0.166
-256.136	-112.476	-0.258	-0.052
-255.122	82.371	-0.213	-0.232
-254.107	-148.349	0.139	-0.011
-253.092	-77.548	-0.315	-0.109
-252.078	2.813	0.094	0.068
-251.063	249.570	-0.037	0.062
-250.049	-67.471	0.073	-0.029
-249.034	-101.898	0.207	-0.050
-248.019	84.126	-0.127	-0.139
-247.005	407.557	-0.079	0.167
-245.990	-200.000	0.019	-0.187
-244.976	31.316	0.303	-0.261
-243.961	290.776	-0.129	0.235
-242.946	-200.000	0.007	0.298
-241.932	-27.644	0.162	-0.094
-240.917	2.411	-0.030	0.022
-239.903	800.000	-0.048	0.150
-238.888	-200.000	-0.034	0.472
-237.873	-56.654	0.195	0.086
-236.859	440.291	0.106	0.233
-235.844	19.312	0.103	0.083
-234.830	45.858	-0.159	-0.147
-233.815	800.000	-0.212	0.710
-232.800	333.808	0.113	0.219
-231.786	-200.000	-0.021	-0.285
-230.771	800.000	0.050	-0.202
-229.757	80.870	-0.081	0.088
-228.742	162.517	0.196	-0.275
-227.727	322.029	-0.063	-0.121
-226.713	-129.687	-0.160	-0.022
-225.698	5.443	-0.125	-0.093
-224.684	236.170	-0.149	-0.247
-223.669	800.000	-0.083	0.302
-222.655	-139.497	-0.180	0.019
-221.640	-5.469	-0.146	0.100
-220.625	155.707	-0.068	-0.094
-219.611	-77.589	-0.273	0.095
-218.596	504.166	0.057	0.132
-217.582	800.000	0.033	-0.139
-216.567	800.000	0.049	0.210
-215.552	-96.450	0.212	-0.056
-214.538	-14.476	-0.161	0.104
-213.523	118.704	0.189	0.234
-212.509	282.325	-0.012	-0.022
-211.494	-51.637	0.323	0.150
-210.479	-200.000	-0.045	0.268
-209.465	67.461	-0.217	0.222
-208.450	359.096	-0.210	-0.420
-207.436	-15.013	-0.281	-0.180
-206.421	-164.394	0.164	-0.007
-205.406	-116.351	-0.188	-0.035
-204.392	800.000	-0.019	-0.074
-203.377	-133.984	-0.263	-0.033
-202.363	151.282	-0.091	-0.123
-201.348	-120.797	-0.053	0.009
-200.333	-171.503	0.177	-0.006
-199.319	709.734	-0.075	-0.197
-198.304	-111.597	0.200	-0.041
-197.290	-129.620	-0.085	0.012
-196.275	-5.449	0.218	-0.150
-195.260	-200.000	0.017	-0.281
-194.246	-65.397	0.116	-0.046
-193.231	-38.010	-0.209	0.111
-192.217	-116.964	0.273	0.050
-191.202	800.000	0.095	0.319
-190.187	74.638	-0.233	0.245
-189.173	631.026	-0.086	0.217
-188.158	-155.226	-0.163	0.011
-187.144	12.365	0.320	0.246
-186.129	111.552	-0.071	0.086
-185.114	-82.195	-0.047	0.015
-184.100	185.252	-0.066	0.097
-183.085	-200.000	-0.008	-0.135
-182.071	116.964	0.337	0.413
-181.056	-200.000	0.027	0.158
-180.042	57.490	0.336	-0.328
-179.027	-151.301	0.300	0.022
-178.012	182.835	0.244	-0.359
-176.998	800.000	-0.037	-0.122
-175.983	-93.424	0.317	-0.088
-174.969	210.913	0.141	0.221
-173.954	-55.616	0.361	0.161
-172.939	200.499	0.189	-0.290
-171.925	-98.555	-0.122	-0.031
-170.910	-168.504	-0.077	-0.003
-169.896	335.576	0.022	-0.043
-168.881	89.091	0.200	0.222
-167.866	-164.159	-0.379	-0.017
-166.852	-200.000	0.062	0.394
-165.837	-120.220	0.137	-0.023
-164.823	695.726	0.101	0.264
-163.808	58.277	-0.364	-0.356
-162.793	-127.046	-0.186	-0.027
-161.779	125.668	-0.114	0.143
-160.764	-13.126	0.102	-0.066
-159.750	-200.000	0.013	-0.201
-158.735	366.825	-0.167	-0.337
-157.720	-59.724	0.194	0.083
-156.706	-13.787	-0.122	-0.079
-155.691	-117.998	0.356	-0.064
-154.677	627.167	0.043	-0.108
-153.662	-29.602	0.402	-0.229
-152.647	-37.112	0.264	-0.141
-151.633	-200.000	-0.023	-0.111
-150.618	800.000	0.080	-0.270
-149.604	-144.903	-0.337	0.031
-148.589	306.955	-0.015	-0.028
-147.574	-200.000	-0.005	-0.052
-146.560	-16.514	0.177	-0.112
-145.545	116.790	0.070	0.086
-144.531	46.459	0.070	0.065
-143.516	-200.000	0.018	0.385
-142.502	-163.079	0.194	-0.009
-141.487	-34.651	0.141	-0.077
-140.472	-70.335	0.301	-0.114
-139.458	-152.989	-0.204	-0.014
-138.443	-54.206	-0.180	-0.081
-137.429	-200.000	0.001	-0.069
-136.414	-129.220	-0.155	0.022
-135.399	146.112	0.179	-0.239
-134.385	59.870	0.228	-0.225
-133.370	-200.000	0.013	-0.257
-132.356	-44.290	0.312	-0.156
-131.341	755.383	-0.076	0.205
-130.326	-23.717	0.083	-0.050
-129.312	214.300	0.111	-0.174
-128.297	-66.626	-0.116	0.046
-127.283	134.201	-0.152	-0.196
-126.268	246.362	0.105	0.177
-125.253	65.797	0.100	-0.101
-124.239	-200.000	-0.042	0.311
-123.224	-200.000	0.014	0.113
-122.210	34.144	0.118	0.102
-121.195	430.756	0.101	-0.218
-120.180	125.179	0.208	0.261
-119.166	185.610	0.065	0.096
-118.151	-82.174	-0.465	0.151
-117.137	55.607	-0.420	0.405
-116.122	95.900	0.119	-0.136
-115.107	44.522	0.165	-0.151
-114.093	-81.970	0.514	-0.167
-113.078	-3.804	-0.172	-0.119
-112.064	-160.454	-0.170	0.009
-111.049	-148.695	0.242	0.020
-110.034	177.954	-0.124	-0.179
-109.020	-178.494	0.223	0.005
-108.005	-62.889	0.041	-0.017
-106.991	800.000	-0.099	0.354
-105.976	-200.000	0.069	-0.345
-104.962	-200.000	-0.002	-0.066
-103.947	-49.657	0.160	-0.076
-102.932	800.000	-0.026	0.104
-101.918	-72.782	-0.253	0.093
-100.903	54.850	0.126	0.121
-99.889	-200.000	0.027	0.189
-98.874	-4.977	0.073	0.050
-97.859	125.123	0.132	-0.165
-96.845	164.745	-0.163	0.229
-95.830	121.903	-0.317	0.393
-94.816	268.718	-0.048	0.084
-93.801	89.456	-0.027	0.030
-92.786	800.000	-0.023	0.091
-91.772	-51.014	0.197	-0.092
-90.757	413.622	-0.049	0.103
-89.743	61.072	0.195	0.192
-88.728	69.454	-0.305	0.313
-87.713	-132.824	-0.130	0.017
-86.699	-30.910	0.227	-0.128
-85.684	-175.160	0.172	-0.005
-84.670	-33.554	0.182	-0.100
-83.655	-97.025	0.269	0.070
-82.640	110.090	0.176	0.209
-81.626	17.402	-0.180	-0.142
-80.611	800.000	0.043	-0.133
-79.597	-134.171	0.240	-0.029
-78.582	266.672	0.043	0.074
-77.567	-171.531	-0.325	0.011
-76.553	800.000	0.073	-0.227
-75.538	-110.351	-0.175	-0.036
-74.524	-153.297	0.117	0.008
-73.509	385.204	-0.074	-0.152
-72.494	-52.654	-0.116	0.053
-71.480	800.000	0.083	-0.333
-70.465	-70.935	0.377	-0.141
-69.451	-123.468	0.315	-0.050
-68.436	-147.099	0.249	0.021
-67.422	-66.486	-0.516	0.204
-66.407	160.517	0.190	-0.264
-65.392	-160.939	0.156	-0.008
-64.378	67.791	-0.149	-0.151
-63.363	134.840	0.071	0.091
-62.349	181.255	0.050	-0.073
-61.334	58.117	-0.893	-0.869
-60.319	76.698	0.148	0.156
-59.305	-200.000	0.006	-1.164
-58.290	700.600	0.429	1.121
-57.276	156.735	1.111	1.525
-56.261	-200.000	90.348	519.123
-55.246	479.766	1388.723	3126.230
-54.232	147.709	2599.906	3479.468
-53.217	111.850	2203.294	2641.900
-52.203	47.038	1651.241	1525.222
-51.188	39.422	1382.953	1230.023
-50.173	36.125	1339.907	1171.691
-49.159	56.076	1386.120	1335.822
-48.144	60.417	1404.525	1380.314
-47.130	39.853	1361.044	1212.996
-46.115	36.285	1342.629	1174.857
-45.100	35.960	1338.122	1168.897
-44.086	35.963	1335.538	1166.611
-43.071	35.932	1333.168	1164.309
-42.057	35.915	1330.930	1162.207
-41.042	35.896	1329.193	1160.529
-40.027	35.968	1327.383	1159.337
-39.013	36.004	1325.226	1157.619
-37.998	35.990	1323.472	1155.961
-36.984	36.042	1321.821	1154.783
-35.969	36.050	1320.266	1153.428
-34.954	36.213	1317.963	1152.342
-33.940	36.109	1317.070	1150.892
-32.925	36.115	1315.642	1149.637
-31.911	36.145	1314.190	1148.502
-30.896	36.150	1312.941	1147.395
-29.881	36.187	1311.310	1146.141
-28.867	36.285	1309.476	1145.078
-27.852	36.241	1308.052	1143.524
-26.838	36.232	1305.869	1141.515
-25.823	36.213	1304.940	1140.548
-24.809	36.114	1303.991	1139.088
-23.794	36.246	1302.260	1138.312
-22.779	36.160	1301.142	1136.778
-21.765	36.207	1299.515	1135.593
-20.750	36.121	1298.257	1133.938
-19.736	36.039	1296.944	1132.264
-18.721	36.046	1295.687	1131.167
-17.706	35.904	1294.663	1129.392
-16.692	36.050	1293.502	1129.192
-15.677	36.090	1292.107	1128.165
-14.663	35.999	1291.332	1126.907
-13.648	35.847	1290.302	1125.077
-12.633	36.031	1289.032	1124.998
-11.619	35.938	1288.260	1123.738
-10.604	36.058	1287.341	1123.590
-9.590	35.965	1286.473	1122.245
-8.575	35.832	1285.819	1120.858
-7.560	35.951	1284.468	1120.329
-6.546	35.938	1283.841	1119.661
-5.531	35.837	1283.068	1118.356
-4.517	35.932	1282.027	1117.954
-3.502	35.983	1280.793	1117.133
-2.487	35.916	1279.883	1115.906
-1.473	36.095	1275.757	1113.295
-0.458	34.949	1261.037	1093.859
0.556	31.514	1242.679	1054.869
1.571	27.691	1247.982	1037.579
2.586	26.774	1263.020	1044.706
3.600	25.709	1251.440	1028.950
4.615	18.396	1174.119	925.914
5.629	7.054	1093.320	804.722
6.644	2.201	1071.594	764.428
7.659	1.964	1068.821	761.196
8.673	1.624	1067.424	758.440
9.688	1.593	1066.018	757.223
10.702	1.903	1064.623	757.705
11.717	8.555	1074.595	798.013
12.731	19.462	1090.172	864.449
13.746	24.430	1096.846	894.635
14.761	25.126	1097.543	898.616
15.775	25.195	1096.586	898.097
16.790	24.955	1095.650	896.051
17.804	24.956	1095.210	895.617
18.819	24.979	1094.782	895.299
19.834	25.106	1094.429	895.566
20.848	25.086	1094.322	895.301
21.863	25.237	1092.929	894.837
22.877	25.102	1092.564	893.784
23.892	25.270	1091.832	893.943
24.907	24.995	1091.405	892.148
25.921	25.134	1090.039	891.642
26.936	25.113	1088.094	889.865
27.950	24.998	1087.053	888.366
28.965	25.006	1084.927	886.588
29.980	24.991	1083.667	885.408
30.994	25.101	1082.858	885.213
32.009	25.198	1081.817	884.761
33.023	24.951	1080.603	882.475
34.038	25.069	1079.545	882.110
35.053	25.129	1078.964	881.855
36.067	25.075	1078.305	880.974
37.082	25.179	1077.586	880.819
38.096	25.329	1077.056	881.040
39.111	25.421	1076.118	880.647
40.126	25.200	1074.688	878.317
41.140	24.904	1072.768	875.223
42.155	24.640	1071.592	872.899
43.169	24.675	1070.644	872.218
44.184	24.748	1070.229	872.161
45.199	24.678	1068.784	870.567
46.213	24.662	1068.513	870.189
47.228	24.915	1067.395	870.431
48.242	24.958	1066.305	869.674
49.257	25.012	1065.766	869.422
50.271	25.248	1064.956	869.826
51.286	25.170	1064.342	868.869
52.301	25.139	1063.147	867.668
53.315	25.166	1062.191	866.943
54.330	25.021	1061.408	865.524
55.344	25.089	1060.797	865.281
56.359	25.016	1059.383	863.698
57.374	24.906	1058.762	862.584
58.388	24.818	1058.105	861.551
59.403	24.830	1056.767	860.440
60.417	24.650	1056.137	858.987
61.432	24.691	1055.778	858.819
62.447	24.792	1054.840	858.463
63.461	24.825	1054.085	857.928
64.476	24.779	1052.738	856.536
65.490	24.726	1051.825	855.464
66.505	24.878	1051.464	855.821
67.520	24.768	1051.097	854.923
68.534	24.558	1049.568	852.602
69.549	24.327	1048.289	850.387
70.563	24.276	1047.972	849.809
71.578	24.304	1047.131	849.187
72.593	24.165	1046.223	847.712
73.607	24.365	1045.699	848.162
74.622	24.631	1045.233	848.974
75.636	24.690	1044.527	848.605
76.651	24.503	1043.600	846.891
77.666	24.389	1042.963	845.761
78.680	24.501	1041.816	845.286
79.695	24.615	1041.339	845.363
80.709	24.662	1040.902	845.154
81.724	24.742	1039.565	844.373
82.739	24.779	1039.150	844.136
83.753	25.189	1038.481	845.449
84.768	25.358	1038.020	845.796
85.782	25.632	1036.914	846.107
86.797	25.404	1036.210	844.390
87.812	25.258	1034.902	842.563
88.826	25.283	1034.044	841.905
89.841	25.371	1033.244	841.593
90.855	25.347	1032.459	840.767
91.870	25.430	1031.247	840.095
92.884	25.315	1030.269	838.685
93.899	25.204	1029.028	837.082
94.914	25.329	1028.584	837.233
95.928	25.156	1027.504	835.473
96.943	24.907	1026.330	833.286
97.957	24.719	1024.895	831.173
98.972	24.551	1023.966	829.566
99.987	24.863	1022.928	830.096
101.001	25.013	1022.806	830.618
102.016	25.221	1021.592	830.525
103.030	25.003	1020.744	828.751
104.045	24.774	1020.190	827.169
105.060	24.612	1018.686	825.128
106.074	24.842	1018.532	825.996
107.089	25.101	1017.913	826.614
108.103	24.987	1016.520	824.882
109.118	24.727	1015.634	822.895
110.133	24.893	1014.444	822.623
111.147	24.691	1013.259	820.662
112.162	24.514	1012.658	819.291
113.176	24.677	1012.262	819.644
114.191	24.643	1011.219	818.572
115.206	24.345	1010.481	816.537
116.220	24.331	1009.540	815.643
117.235	24.467	1008.553	815.394
118.249	24.488	1007.656	814.691
119.264	24.432	1006.790	813.664
120.279	24.346	1006.493	812.960
121.293	24.536	1005.540	812.982
122.308	24.508	1004.673	812.082
123.322	24.371	1003.563	810.493
124.337	24.297	1002.112	808.912
125.352	23.792	1000.502	805.254
126.366	23.767	999.721	804.440
127.381	24.392	1000.154	807.547
128.395	24.888	999.543	809.223
129.410	25.046	998.530	809.045
130.424	25.068	997.279	808.060
131.439	25.040	996.682	807.378
132.454	24.969	995.788	806.266
133.468	24.988	994.954	805.605
134.483	25.068	994.015	805.131
135.497	25.231	993.437	805.324
136.512	25.176	992.414	804.175
137.527	25.203	991.629	803.589
138.541	25.218	990.890	802.987
139.556	25.328	990.004	802.688
140.570	25.332	989.528	802.250
141.585	25.453	988.202	801.646
142.600	25.349	987.118	800.230
143.614	25.530	986.344	800.340
144.629	25.615	986.012	800.377
145.643	25.433	984.441	798.223
146.658	25.135	983.732	796.252
147.673	25.282	982.024	795.451
148.687	25.228	981.291	794.549
149.702	25.106	980.398	793.215
150.716	25.012	979.318	791.856
151.731	25.163	978.988	792.186
152.746	25.310	978.394	792.285
153.760	25.434	977.497	792.033
154.775	25.540	976.700	791.787
155.789	25.388	976.037	790.509
156.804	25.434	975.126	789.903
157.819	25.386	974.500	789.116
158.833	25.459	973.891	788.873
159.848	25.499	972.716	788.028
160.862	25.405	971.397	786.479
161.877	25.356	970.583	785.536
162.892	25.384	969.283	784.534
163.906	25.353	968.202	783.455
164.921	25.339	967.258	782.560
165.935	25.465	966.431	782.372
166.950	25.368	965.693	781.285
167.964	25.342	964.736	780.325
168.979	25.311	963.605	779.208
169.994	25.120	962.880	777.724
171.008	25.479	962.469	778.880
172.023	25.556	961.224	778.137
173.037	25.252	960.431	776.113
174.052	25.134	959.580	774.846
175.067	25.147	958.804	774.208
176.081	25.291	958.241	774.306
177.096	25.183	957.816	773.425
178.110	24.812	956.850	770.979
179.125	24.724	955.686	769.595
180.140	24.699	955.892	769.586
181.154	25.002	955.419	770.441
182.169	25.313	955.272	771.588
183.183	25.588	954.281	771.902
184.198	25.256	953.608	769.863
185.213	25.287	953.059	769.487
186.227	25.409	952.265	769.301
187.242	25.464	951.575	768.910
188.256	25.448	951.119	768.404
189.271	25.490	950.504	768.020
190.286	25.219	949.191	765.735
191.300	24.596	947.415	761.578
192.315	23.810	945.969	757.001
193.329	23.726	945.468	756.177
194.344	24.654	946.074	760.544
195.359	25.123	946.063	762.464
196.373	25.436	945.458	763.238
197.388	25.106	945.094	761.475
198.402	25.311	944.405	761.726
199.417	25.349	943.235	760.876
200.432	25.007	942.613	758.856
201.446	24.766	941.874	757.177
202.461	24.923	941.046	757.105
203.475	24.052	939.145	751.833
204.490	23.422	937.686	747.943
205.504	24.123	938.591	751.556
206.519	24.860	938.814	754.778
207.534	24.879	938.100	754.215
208.548	25.479	937.338	756.063
209.563	25.200	936.626	754.250
210.577	25.114	936.352	753.597
211.592	25.480	935.862	754.676
212.607	25.374	934.863	753.360
213.621	25.541	934.078	753.357
214.636	25.426	933.557	752.390
215.650	25.363	933.049	751.651
216.665	25.595	932.304	751.955
217.680	25.541	931.606	751.100
218.694	25.054	930.132	747.812
219.709	24.908	929.712	746.798
220.723	25.213	929.566	747.890
221.738	25.400	928.573	747.801
222.753	25.183	928.103	746.456
223.767	25.419	927.313	746.733
224.782	25.655	927.227	747.581
225.796	25.577	926.766	746.818
226.811	24.966	925.049	742.832
227.826	24.192	923.826	738.578
228.840	24.353	923.398	738.837
229.855	24.464	922.485	738.504
230.869	24.033	922.023	736.284
231.884	24.580	921.769	738.280
232.899	25.231	922.220	741.263
233.913	25.221	920.979	740.160
234.928	25.219	920.092	739.374
235.942	25.081	919.761	738.475
236.957	24.818	918.888	736.626
237.972	24.883	918.367	736.411
238.986	24.872	918.024	736.024
240.001	24.890	917.126	735.312
241.015	24.965	916.761	735.263
242.030	25.150	916.605	735.831
243.045	25.394	915.812	736.129
244.059	25.296	915.400	735.333
245.074	25.301	913.892	734.075
246.088	24.890	913.265	731.829
247.103	25.131	913.000	732.536
248.117	25.681	913.087	734.789
249.132	26.053	912.657	735.895
250.147	26.069	911.919	735.297
251.161	26.103	911.490	735.026
252.176	26.260	911.065	735.255
253.190	26.154	910.706	734.471
254.205	26.374	909.978	734.715
255.220	26.336	909.294	733.941
256.234	26.157	908.559	732.559
257.249	26.018	907.900	731.397
258.263	26.150	906.900	731.062
259.278	26.180	906.368	730.688
260.293	26.236	905.950	730.517
261.307	26.088	905.383	729.394
262.322	25.941	904.334	727.893
263.336	25.265	902.137	723.335
264.351	24.096	900.499	717.253
265.366	24.314	900.156	717.794
266.380	25.363	900.924	722.566
267.395	25.760	900.840	724.029
268.409	25.617	900.344	722.994
269.424	25.998	899.755	723.988
270.439	25.949	899.064	723.168
271.453	26.065	898.307	722.963
272.468	26.348	898.068	723.837
273.482	26.170	897.795	722.841
274.497	25.791	896.765	720.432
275.512	25.458	895.967	718.398
276.526	25.810	895.850	719.645
277.541	26.096	895.387	720.351
278.555	25.810	894.511	718.442
279.570	25.708	893.402	717.081
280.585	26.031	892.653	717.706
281.599	25.838	892.211	716.518
282.614	25.196	891.108	713.019
283.628	25.295	890.244	712.657
284.643	25.602	890.096	713.693
285.657	25.212	888.688	710.955
286.672	25.006	888.270	709.741
287.687	25.480	888.222	711.517
288.701	25.465	887.451	710.780
289.716	25.316	886.647	709.481
290.730	25.200	885.945	708.402
291.745	24.886	885.529	706.766
292.760	25.288	884.929	707.809
293.774	26.261	885.096	711.717
294.789	26.547	885.254	712.906
295.803	26.488	884.600	712.085
296.818	26.638	883.457	711.691
297.833	26.138	882.384	708.802
298.847	26.150	881.845	708.351
299.862	26.265	882.079	708.930
300.876	26.598	881.617	709.800
301.891	26.517	880.726	708.701
302.906	26.065	879.610	705.975
303.920	26.328	879.284	706.678
304.935	26.430	879.395	707.103
305.949	26.501	878.540	706.629
306.964	26.253	877.698	704.924
307.979	26.313	877.283	704.761
308.993	26.707	877.054	706.049
310.008	26.589	876.755	705.290
311.022	26.459	875.498	703.709
312.037	26.189	875.140	702.308
313.052	25.887	874.267	700.371
314.066	25.167	872.107	695.788
315.081	24.916	871.588	694.341
316.095	25.659	872.093	697.563
317.110	26.033	871.928	698.815
318.125	25.284	870.215	694.484
319.139	24.243	868.853	689.315
320.154	24.266	868.496	689.057
321.168	25.150	869.264	693.026
322.183	25.895	869.041	695.662
323.197	26.013	868.807	695.870
324.212	26.220	868.531	696.386
325.227	26.363	867.894	696.362
326.241	26.263	866.758	695.006
327.256	26.058	866.379	693.852
328.270	25.892	865.865	692.740
329.285	25.790	865.036	691.623
330.300	25.587	863.887	689.867
331.314	25.771	863.853	690.484
332.329	26.195	863.715	691.935
333.343	26.319	863.568	692.232
334.358	26.372	862.971	691.896
335.373	26.433	862.808	691.936
336.387	26.735	862.713	692.957
337.402	26.803	862.703	693.146
338.416	26.714	862.218	692.353
339.431	26.813	861.596	692.170
340.446	26.993	861.626	692.820
341.460	26.883	860.996	691.833
342.475	26.656	860.478	690.491
343.489	26.667	860.204	690.252
344.504	27.067	859.792	691.385
345.519	27.402	859.058	692.007
346.533	27.179	859.102	691.131
347.548	27.189	858.273	690.442
348.562	27.144	857.432	689.532
349.577	27.186	856.787	689.113
350.592	26.930	856.581	687.915
351.606	27.025	855.593	687.422
352.621	26.976	854.798	686.537
353.635	26.871	854.028	685.460
354.650	26.197	852.479	681.613
355.665	25.406	850.829	677.253
356.679	25.820	850.544	678.528
357.694	26.183	850.420	679.735
358.708	26.040	849.715	678.574
359.723	26.401	850.157	680.222
360.738	26.820	849.167	680.947
361.752	27.014	848.861	681.366
362.767	27.249	848.657	682.027
363.781	27.580	848.341	682.952
364.796	27.586	848.154	682.765
365.810	27.766	847.516	682.864
366.825	27.529	846.993	681.494
367.840	27.251	846.388	679.909
368.854	26.862	845.432	677.628
369.869	26.767	845.241	677.059
370.883	26.875	844.619	676.904
371.898	26.915	843.962	676.468
372.913	26.931	843.802	676.338
373.927	27.119	843.366	676.630
374.942	27.194	842.907	676.480
375.956	27.323	842.417	676.509
376.971	27.371	842.362	676.582
377.986	27.554	841.871	676.808
379.000	27.495	840.924	675.769
380.015	27.302	840.576	674.712
381.029	27.394	839.815	674.384
382.044	27.434	839.613	674.308
383.059	27.506	838.861	673.912
384.073	27.525	838.533	673.660
385.088	27.413	837.609	672.444
386.102	27.219	836.557	670.822
387.117	27.194	835.993	670.218
388.132	26.936	834.840	668.286
389.146	26.246	834.314	665.266
390.161	26.684	834.377	666.868
391.175	27.188	833.902	668.285
392.190	26.814	832.937	666.079
393.205	25.432	830.662	659.134
394.219	23.993	828.965	652.456
395.234	23.949	828.934	652.212
396.248	25.538	830.113	658.912
397.263	26.967	831.222	664.975
398.278	26.846	830.806	664.139
399.292	26.692	829.874	662.770
400.307	26.826	829.699	663.062
401.321	26.810	829.323	662.646
402.336	27.214	828.988	663.793
403.350	27.633	829.070	665.329
404.365	28.018	828.663	666.347
405.380	28.205	828.462	666.810
406.394	28.309	828.147	666.875
407.409	27.955	827.766	665.221
408.423	28.246	826.913	665.536
409.438	28.312	826.520	665.399
410.453	28.165	826.524	664.809
411.467	28.233	825.395	664.089
412.482	28.408	824.924	664.287
413.496	28.324	825.067	664.039
414.511	28.247	824.679	663.388
415.526	28.183	824.097	662.628
416.540	28.042	823.304	661.425
417.555	27.978	822.514	660.498
418.569	27.930	822.064	659.905
419.584	27.854	821.455	659.083
420.599	27.731	820.768	658.030
421.613	103.625	1280.883	1431.430
422.628	89.621	1347.924	1431.558
