DTS Sentinel unit serial number:	SN413079Multiplexer serial number:	ORYXHardware model number:	OX4-SRSoftware version number:	ORYX F/W v4.00 Oryx Data Collector v3.7.2.0data status	okinstallation	princeton_trtdifferential loss correction	single-endedforward channel	channel 1reverse channel	N/Adate	2019/09/12time	19:43:34forward acquisition time	15.00reverse acquisition time	0.00gamma	496.2192k internal	0.2322k external	0.2322temperature offset calibration	1.0134default loss term (dB/km)	0.3790temperature slope calibration	1.0000multiplexer offset coefficient	1.0000multiplexer slope coefficient	1.0000fibre end	0.00T internal ref (°C)	32.06T ext. ref 1 (°C)	3.40T ext. ref 2 (°C)	26.60length (m)	temperature (°C)	Stokes	anti-Stokes-747.200	63.660	-0.256	0.260
-746.185	-46.067	-0.293	0.146
-745.171	-155.320	0.067	-0.004
-744.156	-161.424	0.188	-0.010
-743.142	53.316	0.448	-0.433
-742.127	800.000	0.046	0.191
-741.112	-189.951	-0.403	0.005
-740.098	581.238	0.166	-0.411
-739.083	-200.000	0.181	0.806
-738.069	-89.463	-0.726	0.215
-737.054	-48.476	0.734	0.357
-736.039	-115.298	-0.632	0.121
-735.025	800.000	0.149	0.640
-734.010	-16.307	-0.220	-0.141
-732.996	800.000	-0.255	-0.719
-731.981	-20.213	-0.284	-0.177
-730.966	60.946	-0.398	-0.399
-729.952	40.443	-0.725	-0.659
-728.937	-30.558	0.667	0.382
-727.923	-19.601	-0.337	0.211
-726.908	-32.926	-0.450	0.252
-725.894	217.754	-0.155	0.250
-724.879	212.210	-0.041	0.065
-723.864	-62.854	-0.222	0.093
-722.850	-200.000	0.066	0.673
-721.835	-200.000	-0.013	0.286
-720.821	-80.822	-0.208	-0.070
-719.806	-200.000	0.081	0.491
-718.791	-200.000	0.109	0.603
-717.777	800.000	-0.134	0.384
-716.762	-200.000	-0.014	0.148
-715.748	193.569	-0.199	0.304
-714.733	749.398	-0.130	-0.353
-713.718	-200.000	0.012	-0.751
-712.704	214.837	-0.049	-0.078
-711.689	104.675	-0.372	0.442
-710.675	-200.000	0.043	0.214
-709.660	-94.210	0.096	0.027
-708.645	-188.957	0.849	-0.010
-707.631	800.000	-0.127	-0.355
-706.616	169.186	0.413	-0.594
-705.602	315.513	-0.395	0.751
-704.587	-85.840	-0.496	0.155
-703.572	-74.979	0.615	0.222
-702.558	800.000	0.085	-0.311
-701.543	-59.076	0.650	0.283
-700.529	543.526	0.168	0.404
-699.514	-55.098	0.188	-0.085
-698.499	-24.700	0.753	0.452
-697.485	-138.718	-0.098	-0.011
-696.470	222.015	0.313	0.508
-695.456	298.251	-0.284	-0.526
-694.441	-23.960	0.643	-0.388
-693.426	318.921	0.323	0.617
-692.412	-126.884	-0.505	0.075
-691.397	151.224	-0.104	0.142
-690.383	3.850	-0.424	0.312
-689.368	212.145	0.311	0.494
-688.354	800.000	-0.051	0.219
-687.339	-200.000	0.049	-0.449
-686.324	-142.498	0.814	-0.081
-685.310	49.497	0.482	-0.457
-684.295	110.182	0.316	0.383
-683.281	89.272	0.678	0.761
-682.266	19.573	-0.367	-0.298
-681.251	50.680	0.438	-0.418
-680.237	196.906	0.365	-0.560
-679.222	-166.678	0.442	0.018
-678.208	-200.000	0.039	0.325
-677.193	800.000	-0.299	0.857
-676.178	789.688	-0.093	0.257
-675.164	-153.872	0.783	0.054
-674.149	-55.275	0.165	0.075
-673.135	767.938	0.090	0.247
-672.120	-152.867	0.371	0.026
-671.105	-132.319	0.467	0.061
-670.091	800.000	-0.300	-0.880
-669.076	4.269	-0.227	-0.167
-668.062	452.722	0.149	0.333
-667.047	541.071	-0.079	-0.190
-666.032	115.327	-0.450	0.553
-665.018	800.000	0.159	0.551
-664.003	335.254	-0.124	-0.243
-662.989	60.823	0.251	-0.250
-661.974	-135.624	-0.354	0.042
-660.959	-94.535	-0.215	0.059
-659.945	126.488	0.295	-0.377
-658.930	800.000	0.275	-0.853
-657.916	-94.496	-0.797	0.219
-656.901	800.000	0.094	-0.267
-655.886	-200.000	0.062	-0.301
-654.872	-41.178	-0.276	0.144
-653.857	734.068	0.193	0.520
-652.843	39.746	0.697	0.629
-651.828	-10.061	-0.355	-0.238
-650.814	201.408	0.411	-0.636
-649.799	-200.000	-0.009	0.761
-648.784	486.976	-0.234	-0.538
-647.770	-200.000	0.057	-0.460
-646.755	-195.772	0.395	-0.003
-645.741	-57.233	-0.332	-0.147
-644.726	-124.153	-0.395	0.062
-643.711	164.432	0.180	0.255
-642.697	60.721	0.172	0.172
-641.682	-85.037	-0.411	-0.130
-640.668	217.979	0.493	-0.791
-639.653	491.295	-0.338	0.778
-638.638	-84.803	-0.441	-0.139
-637.624	-108.053	-0.130	0.028
-636.609	-4.368	0.106	-0.074
-635.595	78.461	-0.689	-0.740
-634.580	-82.665	-0.903	0.294
-633.565	234.747	-0.232	-0.384
-632.551	-85.978	0.540	-0.168
-631.536	-113.948	-0.772	-0.151
-630.522	800.000	0.127	0.358
-629.507	49.598	-0.487	0.462
-628.492	115.341	0.521	-0.640
-627.478	-34.563	0.474	-0.261
-626.463	-200.000	0.001	0.185
-625.449	81.969	-0.521	0.568
-624.434	302.721	0.262	0.487
-623.419	7.003	-0.404	-0.303
-622.405	-2.355	-0.625	-0.441
-621.390	28.397	0.337	-0.286
-620.376	-31.960	-0.505	-0.285
-619.361	-200.000	0.042	0.593
-618.346	-200.000	-0.081	0.521
-617.332	268.263	-0.192	-0.337
-616.317	16.858	-0.600	-0.477
-615.303	-62.260	-0.923	0.387
-614.288	-120.039	0.299	-0.051
-613.273	-200.000	0.026	0.809
-612.259	173.371	-0.170	0.246
-611.244	323.794	-0.313	0.600
-610.230	573.720	-0.245	-0.602
-609.215	313.610	-0.604	-1.141
-608.201	133.426	-0.245	0.318
-607.186	-12.981	0.394	-0.258
-606.171	-23.577	-0.464	-0.280
-605.157	352.105	-0.335	0.667
-604.142	-200.000	-0.088	0.407
-603.128	94.553	-0.472	-0.539
-602.113	-133.660	0.484	0.061
-601.098	-107.561	0.975	-0.214
-600.084	-33.306	-0.468	-0.260
-599.069	-24.961	0.654	-0.390
-598.055	-180.131	0.378	0.008
-597.040	448.725	-0.082	-0.182
-596.025	-200.000	-0.009	-0.178
-595.011	-110.189	-0.833	0.174
-593.996	183.600	-0.438	0.650
-592.982	169.854	0.479	0.688
-591.967	174.124	-0.553	-0.802
-590.952	800.000	-0.156	-0.667
-589.938	-28.606	0.483	-0.279
-588.923	-46.541	0.671	0.331
-587.909	-200.000	0.173	1.126
-586.894	-56.617	0.235	-0.104
-585.879	270.799	0.241	-0.426
-584.865	158.825	-0.440	-0.614
-583.850	225.320	0.153	0.249
-582.836	15.224	-0.425	0.335
-581.821	11.316	-0.164	0.126
-580.806	-53.960	0.305	-0.140
-579.792	800.000	0.138	-0.430
-578.777	18.769	-0.150	0.120
-577.763	-139.351	-0.359	0.039
-576.748	-24.406	-0.363	-0.217
-575.733	-107.580	-0.503	-0.111
-574.719	281.361	0.151	0.271
-573.704	384.090	0.113	-0.234
-572.690	-41.184	-0.523	0.271
-571.675	144.207	-0.264	-0.354
-570.661	-200.000	0.073	-0.493
-569.646	-200.000	-0.013	-0.276
-568.631	-70.168	-1.046	0.399
-567.617	574.059	0.120	0.294
-566.602	139.291	-0.240	-0.316
-565.588	-63.854	-0.834	-0.342
-564.573	-66.911	-0.876	-0.347
-563.558	-55.016	0.858	0.388
-562.544	-31.876	-0.229	-0.128
-561.529	481.920	0.179	-0.407
-560.515	-7.727	-1.047	-0.709
-559.500	-200.000	-0.035	0.262
-558.485	121.557	-0.479	0.598
-557.471	-168.103	-0.467	0.018
-556.456	-200.000	0.032	0.352
-555.442	118.807	-0.430	-0.532
-554.427	-200.000	0.137	0.784
-553.412	238.196	-0.116	-0.193
-552.398	-5.356	0.632	0.436
-551.383	-200.000	-0.097	-0.827
-550.369	-184.396	1.054	0.017
-549.354	674.040	0.256	-0.665
-548.339	9.726	0.323	-0.246
-547.325	12.336	-0.379	-0.293
-546.310	49.506	-0.081	-0.076
-545.296	463.852	-0.178	-0.400
-544.281	-200.000	0.054	-0.702
-543.266	-21.415	0.526	0.322
-542.252	-200.000	-0.118	0.551
-541.237	-91.394	-0.797	-0.228
-540.223	-200.000	0.066	-0.511
-539.208	-76.272	-0.459	0.162
-538.193	800.000	0.121	0.345
-537.179	-153.276	0.330	-0.023
-536.164	-19.885	-0.611	0.378
-535.150	12.356	0.438	-0.338
-534.135	-79.082	0.634	-0.216
-533.121	-24.268	-0.463	-0.277
-532.106	-55.841	-0.207	0.093
-531.091	51.304	0.388	0.369
-530.077	-132.601	-0.285	0.037
-529.062	-200.000	-0.005	-0.407
-528.048	-200.000	-0.146	-0.748
-527.033	664.447	0.381	-0.985
-526.018	-120.001	-0.588	0.101
-525.004	26.434	-0.630	0.528
-523.989	39.671	0.253	0.227
-522.975	-107.006	-0.369	0.082
-521.960	-200.000	0.071	0.411
-520.945	-93.991	0.387	-0.106
-519.931	-200.000	-0.066	-0.501
-518.916	800.000	-0.162	-0.610
-517.902	-154.828	-0.524	-0.035
-516.887	-96.561	0.378	0.100
-515.872	252.791	-0.358	0.612
-514.858	73.547	0.500	0.524
-513.843	21.249	0.556	-0.452
-512.829	-172.885	0.269	-0.008
-511.814	-200.000	0.006	-0.149
-510.799	90.218	0.237	-0.265
-509.785	528.559	-0.078	0.185
-508.770	54.436	0.251	0.242
-507.756	-200.000	-0.026	0.198
-506.741	-175.742	0.879	-0.024
-505.726	127.626	0.092	0.117
-504.712	-200.000	-0.014	0.096
-503.697	81.005	0.192	-0.207
-502.683	250.085	0.217	-0.368
-501.668	64.142	0.401	-0.404
-500.653	513.754	0.057	0.133
-499.639	300.020	0.303	0.558
-498.624	-99.774	-0.396	0.099
-497.610	-200.000	0.156	-0.001
-496.595	70.627	0.310	0.321
-495.581	-176.777	0.164	-0.004
-494.566	21.145	-0.523	0.425
-493.551	-200.000	0.105	-0.774
-492.537	-32.478	0.213	-0.119
-491.522	-102.689	-0.611	-0.146
-490.508	-28.980	-0.614	0.353
-489.493	160.008	0.132	-0.185
-488.478	-11.249	0.421	-0.277
-487.464	65.492	-0.515	-0.521
-486.449	320.788	-0.297	0.564
-485.435	-65.433	-0.300	0.121
-484.420	-2.613	-0.213	-0.149
-483.405	-118.880	-0.348	0.061
-482.391	326.977	0.090	0.172
-481.376	-31.290	-0.699	0.393
-480.362	-76.331	-0.156	-0.055
-479.347	-105.178	0.724	-0.165
-478.332	142.572	-0.778	1.033
-477.318	419.501	-0.103	0.221
-476.303	800.000	0.108	0.305
-475.289	-200.000	-0.048	-0.332
-474.274	-118.274	-0.281	0.050
-473.259	82.336	-0.242	-0.263
-472.245	456.768	-0.164	-0.363
-471.230	-74.030	0.854	0.309
-470.216	-120.647	0.328	0.056
-469.201	476.414	-0.158	0.356
-468.186	458.268	0.118	-0.262
-467.172	-35.844	-0.602	0.326
-466.157	-156.247	0.462	0.029
-465.143	-113.616	0.290	0.057
-464.128	565.407	0.284	0.687
-463.113	-113.549	0.615	0.120
-462.099	-10.542	0.347	0.229
-461.084	-28.220	-0.778	0.449
-460.070	-137.642	-0.534	0.060
-459.055	-147.379	-0.319	0.027
-458.040	-200.000	0.026	-0.291
-457.026	-157.741	0.767	-0.046
-456.011	-200.000	-0.008	-0.283
-454.997	-200.000	0.148	-0.757
-453.982	124.343	-0.299	0.375
-452.968	15.704	-0.353	0.277
-451.953	39.129	0.417	0.372
-450.938	-200.000	-0.065	-0.698
-449.924	800.000	-0.139	0.460
-448.909	15.796	0.318	0.250
-447.895	64.076	0.047	-0.047
-446.880	296.439	0.035	-0.064
-445.865	-200.000	0.096	0.561
-444.851	-84.524	0.778	-0.245
-443.836	-24.336	-0.571	0.340
-442.822	-29.494	0.697	0.398
-441.807	800.000	0.161	0.703
-440.792	800.000	0.168	0.480
-439.778	-31.801	-0.852	0.477
-438.763	223.318	-0.209	0.337
-437.749	-156.470	0.344	0.021
-436.734	-200.000	-0.059	0.431
-435.719	97.403	0.440	-0.504
-434.705	-75.200	-0.205	0.073
-433.690	136.532	-0.414	0.539
-432.676	-70.589	0.269	0.102
-431.661	-54.592	0.283	0.128
-430.646	-57.637	-0.856	0.374
-429.632	5.350	-0.324	0.238
-428.617	-200.000	-0.088	0.603
-427.603	447.976	-0.493	1.083
-426.588	-200.000	0.039	0.268
-425.573	61.740	0.513	-0.509
-424.559	24.381	-0.431	0.355
-423.544	720.059	0.245	-0.651
-422.530	800.000	0.131	-0.542
-421.515	-72.031	-0.247	-0.092
-420.500	-2.393	-0.208	-0.145
-419.486	-78.302	-0.360	0.123
-418.471	-200.000	-0.047	-0.583
-417.457	-200.000	0.096	0.681
-416.442	-200.000	0.005	0.114
-415.428	-200.000	0.076	-0.727
-414.413	-200.000	-0.004	-0.161
-413.398	-120.988	1.155	0.194
-412.384	6.744	0.555	-0.412
-411.369	494.138	-0.122	-0.279
-410.355	800.000	0.215	0.939
-409.340	-16.192	-0.484	0.307
-408.325	103.774	-0.633	0.742
-407.311	800.000	-0.249	-0.958
-406.296	133.694	0.229	-0.295
-405.282	55.546	-0.352	0.340
-404.267	-110.378	0.542	0.112
-403.252	17.279	-0.483	-0.382
-402.238	-86.954	-0.129	0.039
-401.223	-51.689	-0.639	-0.297
-400.209	-147.253	-0.817	-0.069
-399.194	197.780	0.476	-0.724
-398.179	-25.906	-0.685	-0.402
-397.165	800.000	-0.080	-0.228
-396.150	-94.218	-0.713	0.195
-395.136	-200.000	0.001	0.483
-394.121	-116.175	-0.324	0.060
-393.106	587.585	-0.115	-0.282
-392.092	-184.690	-0.212	-0.003
-391.077	-84.894	-0.177	0.055
-390.063	92.856	0.557	-0.626
-389.048	26.022	-0.405	-0.336
-388.033	-97.650	0.184	-0.048
-387.019	-60.883	0.443	0.187
-386.004	47.629	-0.295	-0.274
-384.990	-200.000	-0.063	0.788
-383.975	444.585	-0.245	0.535
-382.960	790.488	-0.081	-0.221
-381.946	19.267	-0.643	-0.514
-380.931	170.201	0.159	0.227
-379.917	800.000	-0.283	0.879
-378.902	-104.225	-0.098	0.023
-377.888	35.453	-0.491	-0.429
-376.873	237.028	0.631	-1.041
-375.858	-200.000	0.072	0.708
-374.844	-100.084	-0.442	-0.110
-373.829	120.216	0.394	-0.487
-372.815	-0.935	0.588	-0.414
-371.800	800.000	-0.295	-0.840
-370.785	-2.321	0.686	0.479
-369.771	13.677	-0.308	-0.238
-368.756	-3.481	-0.680	-0.471
-367.742	-171.820	0.490	-0.016
-366.727	282.988	-0.305	0.546
-365.712	-158.147	0.826	0.048
-364.698	-200.000	0.211	1.071
-363.683	-200.000	0.038	0.395
-362.669	186.373	-0.319	0.472
-361.654	7.133	0.232	-0.172
-360.639	-15.599	0.176	0.112
-359.625	130.606	0.449	0.573
-358.610	95.631	0.425	-0.483
-357.596	95.388	0.448	0.509
-356.581	-200.000	-0.026	-0.222
-355.566	48.645	0.334	-0.312
-354.552	-173.461	0.256	-0.008
-353.537	-48.551	0.761	-0.364
-352.523	127.068	-0.319	0.402
-351.508	46.080	-0.635	-0.585
-350.493	-104.140	0.890	-0.206
-349.479	-86.404	-0.342	0.104
-348.464	-113.175	0.670	0.131
-347.450	-70.835	0.231	-0.087
-346.435	800.000	0.121	-0.518
-345.420	800.000	-0.193	-0.600
-344.406	-68.598	-0.953	-0.367
-343.391	-200.000	0.055	-0.683
-342.377	-109.599	-0.445	-0.093
-341.362	-109.557	0.366	-0.077
-340.348	205.154	-0.343	-0.530
-339.333	65.011	0.382	-0.384
-338.318	800.000	0.042	-0.166
-337.304	-88.080	0.504	0.150
-336.289	77.585	-0.778	-0.823
-335.275	111.912	-0.321	0.386
-334.260	-200.000	-0.121	-1.173
-333.245	456.007	0.226	0.499
-332.231	16.081	-0.452	0.354
-331.216	-76.429	-0.707	0.247
-330.202	800.000	0.130	0.420
-329.187	82.378	0.334	-0.360
-328.172	800.000	-0.096	-0.301
-327.158	800.000	0.094	-0.393
-326.143	352.057	0.183	0.361
-325.129	-77.156	-0.110	0.038
-324.114	297.733	-0.263	-0.480
-323.099	-200.000	0.047	-1.114
-322.085	-79.733	0.859	-0.288
-321.070	379.790	0.140	0.286
-320.056	-38.661	-0.403	0.212
-319.041	800.000	0.176	-0.502
-318.026	628.299	0.341	0.855
-317.012	189.823	0.177	0.264
-315.997	-94.375	0.614	0.167
-314.983	-200.000	0.053	-0.388
-313.968	495.183	0.185	0.422
-312.953	-93.871	0.062	0.017
-311.939	-200.000	-0.109	-0.691
-310.924	99.232	-0.377	0.433
-309.910	-74.031	0.400	-0.144
-308.895	800.000	0.128	-0.450
-307.880	-137.155	0.045	-0.005
-306.866	-151.765	1.101	0.080
-305.851	255.849	0.082	-0.139
-304.837	60.954	0.431	0.424
-303.822	-70.719	0.635	-0.238
-302.807	210.741	0.388	-0.605
-301.793	32.560	0.019	0.016
-300.778	-200.000	-0.053	0.947
-299.764	-100.818	0.760	0.186
-298.749	-49.574	-0.570	-0.270
-297.735	718.593	0.133	-0.350
-296.720	384.874	0.229	0.469
-295.705	800.000	0.204	0.686
-294.691	571.093	0.319	0.771
-293.676	-93.636	-0.369	0.101
-292.662	287.288	0.521	0.934
-291.647	-118.449	-1.310	0.230
-290.632	-133.119	0.075	-0.009
-289.618	93.857	0.339	-0.381
-288.603	-95.293	0.414	0.111
-287.589	-200.000	-0.050	0.253
-286.574	184.091	-0.688	-1.011
-285.559	-120.256	-0.580	0.098
-284.545	477.026	0.234	0.525
-283.530	114.843	0.435	-0.526
-282.516	462.973	0.256	-0.566
-281.501	-38.487	0.336	-0.176
-280.486	-136.180	0.511	-0.059
-279.472	-200.000	0.029	0.292
-278.457	190.902	-0.411	0.613
-277.443	-4.551	0.373	-0.256
-276.428	497.218	0.166	0.379
-275.413	-39.813	0.340	-0.176
-274.399	127.920	-0.471	-0.595
-273.384	800.000	0.160	0.545
-272.370	-163.363	-0.830	0.039
-271.355	-125.316	-0.702	0.106
-270.340	-145.466	-0.306	0.027
-269.326	-99.940	-0.430	0.106
-268.311	105.685	0.224	-0.263
-267.297	33.871	0.763	-0.659
-266.282	-162.971	0.495	0.024
-265.267	-200.000	-0.079	0.508
-264.253	800.000	0.155	0.476
-263.238	-200.000	0.043	-0.452
-262.224	318.325	0.212	0.398
-261.209	-148.431	-0.542	-0.044
-260.195	-61.071	1.114	0.466
-259.180	162.853	0.389	0.541
-258.165	800.000	-0.128	-0.407
-257.151	-67.485	-0.576	-0.224
-256.136	800.000	0.099	0.370
-255.122	749.623	-0.195	0.521
-254.107	-200.000	0.016	0.716
-253.092	-62.635	0.398	0.164
-252.078	264.974	-0.200	-0.346
-251.063	-156.381	-0.064	0.004
-250.049	-200.000	0.086	0.762
-249.034	-200.000	0.246	1.220
-248.019	-84.262	0.295	0.093
-247.005	-107.434	-0.349	-0.076
-245.990	119.010	0.259	-0.317
-244.976	-200.000	-0.005	-0.773
-243.961	-200.000	-0.067	-0.596
-242.946	357.959	-0.417	-0.824
-241.932	-136.940	0.221	-0.025
-240.917	325.897	0.103	-0.195
-239.903	190.084	0.084	-0.125
-238.888	116.949	-0.256	-0.312
-237.873	-94.799	0.544	0.146
-236.859	-200.000	-0.084	0.438
-235.844	-0.170	-0.647	-0.456
-234.830	264.713	-0.348	-0.600
-233.815	-147.993	0.532	-0.044
-232.800	731.057	0.145	0.383
-231.786	781.435	0.066	-0.179
-230.771	232.440	-0.125	0.204
-229.757	59.135	-0.539	0.526
-228.742	-97.091	0.796	-0.206
-227.727	-200.000	0.055	0.589
-226.713	95.940	0.440	0.498
-225.698	-200.000	-0.040	0.209
-224.684	-32.648	0.286	0.157
-223.669	121.551	0.532	-0.656
-222.655	300.851	-0.201	-0.368
-221.640	706.760	0.090	-0.235
-220.625	-70.186	-0.189	-0.071
-219.611	-200.000	0.078	-0.803
-218.596	-99.648	-0.463	-0.115
-217.582	291.324	-0.018	0.032
-216.567	-55.679	0.368	-0.163
-215.552	48.755	0.366	0.340
-214.538	-200.000	0.037	0.186
-213.523	-134.763	0.906	0.109
-212.509	-137.620	0.946	-0.105
-211.494	-200.000	-0.014	-0.291
-210.479	43.064	-0.500	-0.451
-209.465	599.633	-0.190	0.467
-208.450	24.183	-0.184	-0.151
-207.436	-60.462	0.480	0.202
-206.421	104.319	0.407	0.474
-205.406	-200.000	0.006	0.346
-204.392	-29.080	0.297	-0.168
-203.377	63.270	-0.375	-0.372
-202.363	-155.119	0.696	0.045
-201.348	39.423	-0.081	0.072
-200.333	800.000	0.234	1.007
-199.319	-92.547	0.915	0.254
-198.304	0.136	0.322	0.227
-197.290	-200.000	-0.038	-0.361
-196.275	-87.549	-0.043	0.013
-195.260	21.450	0.414	0.333
-194.246	-63.031	-0.414	0.169
-193.231	-53.960	-0.247	0.111
-192.217	-137.003	-0.519	0.059
-191.202	246.188	-0.188	-0.313
-190.187	10.866	0.134	-0.101
-189.173	-128.461	-0.253	0.035
-188.158	800.000	0.141	0.401
-187.144	14.033	0.580	0.446
-186.129	-26.809	-0.616	0.356
-185.114	800.000	0.190	0.574
-184.100	303.097	0.209	-0.383
-183.085	74.386	-0.188	-0.195
-182.071	-123.430	0.216	0.034
-181.056	-129.541	0.456	-0.062
-180.042	-177.063	0.211	0.005
-179.027	-200.000	-0.036	-0.334
-178.012	83.277	-0.248	0.267
-176.998	270.867	-0.218	-0.379
-175.983	113.379	0.576	-0.690
-174.969	800.000	-0.158	-0.434
-173.954	-200.000	0.062	0.664
-172.939	67.382	0.188	0.190
-171.925	46.993	0.453	-0.416
-170.910	-190.847	0.713	-0.007
-169.896	-28.605	0.395	-0.224
-168.881	-72.680	-0.175	0.064
-167.866	641.091	0.364	0.915
-166.852	-38.841	0.455	-0.237
-165.837	-49.066	-0.690	-0.326
-164.823	800.000	-0.250	-1.052
-163.808	-64.876	0.144	0.058
-162.793	-121.800	-0.097	-0.016
-161.779	-141.643	0.775	-0.077
-160.764	800.000	0.045	-0.194
-159.750	61.853	-0.589	0.579
-158.735	77.989	0.034	-0.035
-157.720	-12.313	0.730	0.471
-156.706	77.278	0.234	-0.246
-155.691	-200.000	-0.090	0.786
-154.677	-171.890	-0.979	0.032
-153.662	-76.779	-0.220	0.076
-152.647	-0.412	0.142	-0.099
-151.633	-30.837	-0.292	0.163
-150.618	143.196	0.512	0.673
-149.604	10.992	0.445	-0.336
-148.589	-183.174	-0.452	-0.008
-147.574	-146.390	-0.448	-0.039
-146.560	-15.132	-0.076	-0.048
-145.545	331.861	-0.225	0.428
-144.531	38.090	-0.079	-0.069
-143.516	692.475	-0.197	0.510
-142.502	103.273	-0.717	-0.829
-141.487	-200.000	0.016	-0.344
-140.472	44.754	0.870	-0.790
-139.458	-102.114	-1.203	0.286
-138.443	-43.065	-0.505	-0.253
-137.429	-27.142	0.614	-0.353
-136.414	758.973	0.147	0.392
-135.399	589.426	-0.333	-0.811
-134.385	-77.488	0.203	-0.070
-133.370	-92.340	-0.841	-0.234
-132.356	-156.180	-0.288	-0.018
-131.341	-110.602	0.048	-0.010
-130.326	-27.135	-0.960	-0.552
-129.312	800.000	-0.088	-0.323
-128.297	712.416	-0.195	0.508
-127.283	-158.831	-0.491	-0.028
-126.268	-78.889	0.517	0.174
-125.253	-145.559	1.118	0.099
-124.239	-200.000	0.028	0.246
-123.224	-15.723	0.415	0.261
-122.210	100.489	-0.490	0.561
-121.195	-1.014	-0.339	0.237
-120.180	-41.023	-0.111	-0.057
-119.166	13.354	0.184	0.140
-118.151	-106.840	0.260	0.057
-117.137	800.000	-0.073	-0.274
-116.122	222.340	0.345	0.547
-115.107	-200.000	-0.050	0.343
-114.093	-71.700	-0.563	-0.207
-113.078	238.857	-0.264	0.433
-112.064	230.696	-0.340	-0.548
-111.049	800.000	0.051	-0.200
-110.034	-80.793	-0.960	0.314
-109.020	52.475	-0.051	0.048
-108.005	0.971	-0.552	-0.390
-106.991	-200.000	0.088	-0.714
-105.976	96.028	0.141	0.158
-104.962	-143.256	0.604	0.057
-103.947	737.561	0.146	-0.387
-102.932	-58.156	-0.455	-0.195
-101.918	-111.638	0.250	0.050
-100.903	180.304	0.349	0.504
-99.889	-68.743	-1.366	-0.520
-98.874	-149.520	0.762	-0.059
-97.859	-200.000	0.004	0.501
-96.845	491.804	-0.137	-0.309
-95.830	252.914	-0.135	0.227
-94.816	234.560	0.417	-0.676
-93.801	619.528	0.176	-0.436
-92.786	-108.002	0.578	-0.124
-91.772	800.000	-0.115	-0.432
-90.757	344.002	0.586	1.131
-89.743	-76.375	0.567	-0.197
-88.728	282.159	0.194	0.343
-87.713	346.298	0.170	-0.330
-86.699	-90.516	0.362	0.103
-85.684	-152.295	0.812	-0.058
-84.670	-23.491	0.405	0.239
-83.655	-200.000	0.020	-0.306
-82.640	716.370	0.322	0.841
-81.626	649.702	0.229	-0.578
-80.611	-184.606	0.866	-0.014
-79.597	27.263	0.430	0.355
-78.582	-1.915	0.464	-0.321
-77.567	39.240	-0.254	-0.224
-76.553	-200.000	-0.010	-0.322
-75.538	800.000	-0.068	-0.207
-74.524	23.185	-0.644	0.521
-73.509	265.897	0.173	0.297
-72.494	-200.000	0.099	-0.598
-71.480	80.634	-0.591	0.627
-70.465	-200.000	0.020	-0.306
-69.451	-75.487	-0.552	-0.193
-68.436	149.694	-0.132	-0.176
-67.422	-140.128	1.107	0.114
-66.407	10.083	-0.665	-0.497
-65.392	-101.218	-0.124	-0.030
-64.378	-96.042	0.368	0.096
-63.363	126.108	0.299	0.372
-62.349	-200.000	-0.043	0.288
-61.334	-129.447	-1.306	-0.178
-60.319	-200.000	0.046	0.482
-59.305	366.973	0.481	-0.955
-58.290	208.141	0.339	0.521
-57.276	205.125	1.150	1.756
-56.261	-200.000	97.209	607.380
-55.246	659.445	1358.831	3438.960
-54.232	203.848	2522.086	3839.645
-53.217	120.494	2117.428	2586.154
-52.203	43.956	1587.705	1430.414
-51.188	35.843	1326.630	1147.043
-50.173	32.389	1286.762	1092.511
-49.159	56.167	1337.883	1277.193
-48.144	56.818	1353.175	1295.590
-47.130	35.665	1311.273	1132.538
-46.115	32.222	1294.012	1097.520
-45.100	31.846	1289.367	1091.348
-44.086	31.862	1287.077	1089.458
-43.071	31.847	1283.232	1086.074
-42.057	31.776	1280.955	1083.696
-41.042	31.955	1280.211	1084.053
-40.027	31.900	1278.126	1081.932
-39.013	31.649	1277.424	1079.843
-37.998	31.929	1274.830	1079.223
-36.984	32.236	1273.312	1079.656
-35.969	32.137	1271.752	1077.725
-34.954	32.040	1269.484	1075.204
-33.940	32.150	1268.443	1074.908
-32.925	32.305	1266.148	1073.803
-31.911	32.270	1265.560	1073.063
-30.896	32.394	1262.760	1071.354
-29.881	32.138	1262.284	1069.449
-28.867	32.380	1260.934	1069.638
-27.852	32.147	1260.089	1067.557
-26.838	32.337	1258.564	1067.303
-25.823	32.125	1257.502	1065.158
-24.809	32.177	1256.135	1064.253
-23.794	31.952	1255.391	1062.304
-22.779	32.152	1254.350	1062.513
-21.765	32.193	1251.933	1060.655
-20.750	31.937	1251.670	1058.945
-19.736	32.061	1249.781	1058.005
-18.721	31.803	1248.898	1055.760
-17.706	32.077	1246.934	1055.601
-16.692	31.992	1246.288	1054.535
-15.677	32.260	1243.978	1054.040
-14.663	32.126	1244.101	1053.349
-13.648	31.967	1243.103	1051.571
-12.633	31.957	1241.870	1050.432
-11.619	31.969	1241.601	1050.230
-10.604	31.968	1240.278	1049.061
-9.590	31.810	1239.178	1047.207
-8.575	31.755	1238.333	1046.143
-7.560	31.975	1237.437	1046.575
-6.546	32.087	1235.918	1045.874
-5.531	31.889	1235.930	1044.737
-4.517	31.899	1235.323	1044.238
-3.502	32.058	1233.369	1043.431
-2.487	31.831	1232.899	1041.732
-1.473	32.289	1227.642	1039.778
-0.458	30.427	1213.873	1017.883
0.556	27.968	1196.557	978.458
1.571	24.149	1201.701	961.998
2.586	23.027	1215.912	967.151
3.600	22.780	1204.484	956.639
4.615	17.109	1132.799	870.632
5.629	7.807	1059.267	769.250
6.644	3.557	1039.461	734.597
7.659	3.286	1037.710	732.010
8.673	3.436	1034.049	730.073
9.688	3.321	1033.104	728.795
10.702	3.635	1032.273	729.629
11.717	9.518	1039.858	762.866
12.731	18.686	1053.802	816.855
13.746	23.739	1058.944	844.867
14.761	24.447	1059.225	848.385
15.775	23.914	1058.154	844.920
16.790	23.552	1057.608	842.688
17.804	23.259	1056.464	840.314
18.819	23.214	1056.329	839.919
19.834	23.757	1054.105	840.646
20.848	23.478	1055.175	840.101
21.863	23.390	1054.764	839.283
22.877	23.359	1054.133	838.561
23.892	23.269	1053.049	837.201
24.907	22.963	1053.224	835.814
25.921	23.250	1050.092	834.610
26.936	23.084	1050.486	834.066
27.950	23.007	1047.789	831.491
28.965	22.975	1047.059	830.685
29.980	23.031	1045.876	829.937
30.994	23.260	1045.003	830.246
32.009	23.570	1042.880	829.937
33.023	23.519	1041.755	828.726
34.038	22.952	1042.399	826.514
35.053	23.035	1041.294	825.954
36.067	22.687	1040.857	823.908
37.082	23.358	1038.438	825.049
38.096	23.096	1039.018	824.215
39.111	23.110	1038.875	824.092
40.126	22.958	1037.106	821.911
41.140	22.847	1034.401	819.180
42.155	22.423	1034.167	816.954
43.169	22.136	1033.824	815.278
44.184	22.585	1031.608	815.537
45.199	22.461	1030.623	814.114
46.213	22.783	1029.277	814.462
47.228	23.302	1028.710	816.338
48.242	23.282	1029.357	816.684
49.257	23.362	1028.036	815.933
50.271	23.381	1027.867	815.816
51.286	23.299	1027.224	814.853
52.301	23.514	1027.077	815.656
53.315	23.264	1025.260	812.993
54.330	23.222	1024.808	812.370
55.344	23.157	1022.613	810.262
56.359	23.007	1021.733	808.804
57.374	22.855	1022.735	808.831
58.388	22.814	1020.734	806.987
59.403	22.602	1019.316	804.827
60.417	22.483	1019.310	804.211
61.432	22.559	1018.987	804.228
62.447	22.277	1018.731	802.669
63.461	22.411	1016.314	801.304
64.476	22.151	1016.262	800.010
65.490	22.432	1014.039	799.464
66.505	22.507	1015.257	800.696
67.520	22.320	1014.759	799.382
68.534	22.133	1012.484	796.669
69.549	22.235	1011.865	796.575
70.563	22.131	1011.258	795.556
71.578	21.972	1010.107	793.862
72.593	21.724	1009.470	792.170
73.607	21.799	1008.502	791.680
74.622	22.005	1008.452	792.500
75.636	22.131	1007.936	792.590
76.651	22.027	1007.596	791.787
77.666	22.322	1006.730	792.366
78.680	22.049	1005.102	789.786
79.695	22.336	1003.954	790.101
80.709	22.251	1004.588	790.147
81.724	22.361	1004.353	790.387
82.739	22.686	1003.143	790.823
83.753	23.269	1002.144	792.578
84.768	23.304	1003.863	794.021
85.782	23.586	1002.387	794.048
86.797	23.794	1000.629	793.513
87.812	23.363	999.524	790.643
88.826	23.803	998.161	791.455
89.841	23.689	998.689	791.297
90.855	23.666	997.419	790.117
91.870	23.592	996.278	788.815
92.884	23.923	993.975	788.389
93.899	23.366	994.457	786.232
94.914	23.632	992.842	786.064
95.928	23.247	993.206	784.575
96.943	23.231	991.560	783.135
97.957	23.079	991.620	782.442
98.972	23.256	989.485	781.469
99.987	23.409	989.616	782.179
101.001	23.270	987.396	779.742
102.016	23.122	987.001	778.709
103.030	23.405	986.932	779.831
104.045	23.369	986.347	779.141
105.060	23.404	984.944	778.120
106.074	23.075	984.225	776.039
107.089	22.846	983.047	774.038
108.103	22.665	983.095	773.214
109.118	22.548	979.878	770.102
110.133	22.222	979.595	768.389
111.147	22.296	978.208	767.557
112.162	22.098	978.044	766.493
113.176	22.177	978.096	766.811
114.191	22.651	976.333	767.427
115.206	22.294	976.411	765.867
116.220	22.489	974.458	765.112
117.235	22.606	973.979	765.177
118.249	22.079	973.848	762.718
119.264	22.061	973.009	761.916
120.279	22.129	971.676	761.098
121.293	21.959	970.707	759.539
122.308	21.829	969.230	757.751
123.322	21.512	969.363	756.421
124.337	21.853	967.704	756.528
125.352	22.022	965.986	755.849
126.366	21.988	965.439	755.208
127.381	22.094	965.373	755.544
128.395	22.352	964.513	755.911
129.410	22.441	963.425	755.373
130.424	22.571	962.941	755.484
131.439	22.971	960.821	755.465
132.454	22.513	961.132	753.686
133.468	23.047	959.664	754.746
134.483	22.774	958.626	752.699
135.497	22.750	959.130	752.925
136.512	22.888	957.603	752.249
137.527	22.955	956.548	751.641
138.541	22.851	956.307	750.939
139.556	22.772	954.592	749.191
140.570	23.003	955.933	751.158
141.585	23.493	954.765	752.253
142.600	23.671	954.097	752.415
143.614	23.509	954.519	751.997
144.629	23.591	952.837	750.951
145.643	23.744	950.521	749.706
146.658	23.160	950.034	746.792
147.673	23.149	948.672	745.607
148.687	23.138	947.182	744.326
149.702	22.670	947.202	742.306
150.716	22.717	946.660	742.012
151.731	23.071	945.353	742.408
152.746	23.159	944.337	741.916
153.760	23.067	944.850	741.865
154.775	23.148	944.326	741.726
155.789	23.458	942.782	741.747
156.804	23.319	942.112	740.574
157.819	23.372	940.720	739.633
158.833	23.504	941.046	740.377
159.848	23.762	939.998	740.560
160.862	23.688	938.967	739.377
161.877	23.000	937.698	735.449
162.892	22.972	937.565	735.165
163.906	22.682	936.045	732.703
164.921	22.562	935.577	731.772
165.935	22.807	934.535	731.907
166.950	23.192	932.079	731.512
167.964	22.879	932.331	730.349
168.979	22.696	931.481	728.864
169.994	22.704	930.571	728.120
171.008	23.085	930.342	729.451
172.023	23.543	929.919	730.939
173.037	23.562	929.329	730.493
174.052	23.070	928.530	727.776
175.067	23.002	927.632	726.726
176.081	22.794	925.505	724.142
177.096	22.731	926.153	724.329
178.110	22.646	925.225	723.186
179.125	22.705	923.810	722.260
180.140	22.733	924.176	722.597
181.154	23.041	923.888	723.569
182.169	23.319	924.378	725.026
183.183	23.386	923.355	724.435
184.198	23.087	922.697	722.632
185.213	23.049	921.841	721.742
186.227	23.206	920.699	721.424
187.242	23.328	921.370	722.384
188.256	23.513	919.610	721.693
189.271	23.653	918.915	721.652
190.286	23.162	918.338	719.139
191.300	22.557	916.693	715.333
192.315	22.025	915.683	712.325
193.329	22.286	916.478	713.939
194.344	22.321	915.839	713.518
195.359	22.831	915.844	715.530
196.373	23.188	914.958	716.217
197.388	23.408	914.540	716.719
198.402	23.480	914.915	717.239
199.417	24.105	913.135	718.303
200.432	24.147	913.236	718.486
201.446	23.947	912.629	717.139
202.461	23.681	912.584	715.969
203.475	23.863	911.229	715.575
204.490	22.667	910.859	710.404
205.504	22.954	910.187	710.977
206.519	23.156	908.518	710.420
207.534	23.174	908.012	710.033
208.548	23.094	908.555	710.074
209.563	23.203	906.933	709.179
210.577	23.564	905.225	709.225
211.592	23.650	905.983	710.098
212.607	23.936	905.267	710.618
213.621	23.727	905.051	709.550
214.636	23.209	904.141	706.708
215.650	23.643	902.801	707.327
216.665	23.721	902.204	707.109
217.680	23.688	902.124	706.851
218.694	23.693	901.182	706.069
219.709	23.710	899.663	704.886
220.723	23.837	898.280	704.242
221.738	23.388	898.838	702.836
222.753	23.390	898.917	702.846
223.767	23.711	897.727	703.125
224.782	23.875	897.752	703.730
225.796	23.460	897.789	702.053
226.811	23.570	895.663	700.762
227.826	23.229	894.979	698.819
228.840	23.231	893.909	697.931
229.855	23.149	893.825	697.480
230.869	22.976	893.151	696.213
231.884	23.524	892.339	697.671
232.899	22.897	892.914	695.593
233.913	23.198	890.815	695.076
234.928	22.702	890.674	692.957
235.942	22.926	889.086	692.541
236.957	22.779	889.267	692.043
237.972	22.878	888.275	691.596
238.986	22.840	887.688	690.929
240.001	22.624	888.326	690.520
241.015	22.837	887.547	690.687
242.030	22.925	886.498	690.153
243.045	22.980	887.283	690.919
244.059	23.236	885.799	690.703
245.074	23.329	885.450	690.729
246.088	23.495	885.132	691.069
247.103	23.829	884.393	691.731
248.117	23.678	885.591	692.017
249.132	24.493	883.831	693.747
250.147	24.592	883.662	693.939
251.161	24.738	883.075	693.983
252.176	24.438	882.763	692.513
253.190	24.704	882.668	693.411
254.205	24.406	882.106	691.750
255.220	24.182	881.232	690.138
256.234	24.307	879.904	689.520
257.249	24.496	878.951	689.442
258.263	24.082	878.099	687.115
259.278	24.467	878.012	688.470
260.293	24.126	877.830	686.953
261.307	24.624	876.410	687.699
262.322	24.615	875.893	687.196
263.336	24.228	876.003	685.732
264.351	24.280	874.236	684.489
265.366	24.702	873.307	685.320
266.380	24.705	874.038	685.845
267.395	24.380	873.030	683.746
268.409	24.350	871.225	682.160
269.424	24.650	871.621	683.556
270.439	24.102	870.782	680.740
271.453	24.408	869.234	680.641
272.468	24.224	870.747	681.062
273.482	24.309	869.119	680.053
274.497	24.130	868.493	678.820
275.512	24.575	867.641	679.786
276.526	24.043	868.241	678.170
277.541	24.233	867.406	678.183
278.555	24.461	867.033	678.697
279.570	24.932	866.219	679.789
280.585	24.629	865.365	677.907
281.599	24.336	864.377	675.962
282.614	23.851	863.800	673.617
283.628	23.937	863.026	673.277
284.643	24.066	861.954	672.868
285.657	23.903	861.717	672.011
286.672	23.938	862.126	672.400
287.687	24.134	861.210	672.368
288.701	24.528	860.010	672.857
289.716	24.053	859.567	670.662
290.730	24.222	859.448	671.145
291.745	24.210	859.262	670.895
292.760	24.560	858.500	671.555
293.774	24.997	858.043	672.780
294.789	24.745	857.302	671.196
295.803	24.370	856.267	668.918
296.818	24.630	854.888	668.755
297.833	24.047	854.671	666.344
298.847	24.261	854.339	666.829
299.862	24.581	854.684	668.236
300.876	24.352	854.866	667.462
301.891	24.810	853.702	668.205
302.906	24.727	853.900	667.993
303.920	24.919	853.273	668.157
304.935	25.215	851.962	668.175
305.949	25.057	850.793	666.613
306.964	24.412	851.039	664.345
307.979	24.435	850.711	664.116
308.993	24.754	849.844	664.566
310.008	25.310	849.220	666.082
311.022	24.486	848.691	662.554
312.037	24.217	847.837	660.831
313.052	23.831	847.846	659.345
314.066	23.902	846.203	658.273
315.081	23.869	845.022	657.175
316.095	24.015	845.370	657.928
317.110	24.167	844.375	657.655
318.125	23.756	843.405	655.328
319.139	23.647	842.707	654.325
320.154	23.703	843.144	654.810
321.168	23.695	842.650	654.340
322.183	23.637	842.422	653.892
323.197	23.953	841.510	654.290
324.212	23.991	840.399	653.504
325.227	24.309	839.632	654.019
326.241	23.857	839.494	652.195
327.256	23.914	839.346	652.234
328.270	24.274	837.756	652.256
329.285	23.853	837.512	650.467
330.300	23.981	836.640	650.202
331.314	24.223	836.672	651.053
332.329	24.395	836.178	651.240
333.343	24.182	836.736	650.839
334.358	24.214	836.059	650.370
335.373	24.332	836.591	651.156
336.387	24.392	835.940	650.811
337.402	24.646	835.990	651.719
338.416	24.993	835.214	652.322
339.431	24.927	834.831	651.725
340.446	25.259	834.555	652.659
341.460	25.595	833.572	653.051
342.475	25.316	833.774	652.137
343.489	25.213	833.982	651.871
344.504	25.349	832.986	651.529
345.519	25.402	832.726	651.456
346.533	25.527	831.652	651.013
347.548	25.450	831.195	650.319
348.562	24.735	831.293	647.750
349.577	24.847	829.214	646.478
350.592	24.724	829.237	645.995
351.606	24.294	829.398	644.506
352.621	24.866	827.450	644.999
353.635	24.418	827.115	643.067
354.650	24.587	826.935	643.477
355.665	24.717	825.360	642.665
356.679	24.786	825.639	643.070
357.694	24.974	823.913	642.346
358.708	24.321	824.876	640.692
359.723	24.857	823.367	641.385
360.738	24.821	822.092	640.206
361.752	25.152	820.722	640.265
362.767	25.101	821.562	640.681
363.781	25.242	822.275	641.685
364.796	25.190	822.038	641.258
365.810	25.576	820.218	641.158
366.825	25.675	820.827	641.931
367.840	25.172	821.074	640.273
368.854	25.344	818.840	639.086
369.869	24.972	818.416	637.374
370.883	25.129	818.407	637.869
371.898	25.310	818.635	638.635
372.913	25.350	818.651	638.731
373.927	25.206	816.843	636.755
374.942	25.332	816.144	636.602
375.956	25.360	816.140	636.641
376.971	25.475	815.849	636.763
377.986	25.567	815.469	636.736
379.000	25.815	814.689	636.948
380.015	25.595	814.464	635.937
381.029	25.386	814.275	634.995
382.044	25.938	812.392	635.419
383.059	25.920	812.187	635.138
384.073	25.977	811.569	634.798
385.088	25.147	811.265	631.583
386.102	24.792	810.862	629.963
387.117	24.693	809.284	628.335
388.132	24.879	808.954	628.674
389.146	24.506	809.429	627.678
390.161	25.670	809.471	631.743
391.175	25.235	808.510	629.413
392.190	25.071	807.077	627.668
393.205	24.683	806.381	625.712
394.219	24.830	805.215	625.266
395.234	24.664	805.296	624.692
396.248	24.642	805.244	624.519
397.263	24.883	804.636	624.836
398.278	24.599	804.182	623.438
399.292	24.735	804.093	623.789
400.307	24.557	803.844	622.919
401.321	24.457	803.100	621.938
402.336	24.893	802.560	622.981
403.350	25.119	802.132	623.381
404.365	25.915	802.076	626.047
405.380	25.932	802.396	626.301
406.394	25.904	802.436	626.179
407.409	25.725	801.980	625.149
408.423	26.418	800.377	626.243
409.438	26.123	800.421	625.202
410.453	26.114	799.451	624.355
411.467	25.621	800.316	623.268
412.482	25.894	799.266	623.343
413.496	25.988	798.544	623.049
414.511	25.708	799.363	622.663
415.526	26.082	798.344	623.104
416.540	25.704	798.710	622.029
417.555	25.661	797.679	621.025
418.569	25.860	797.139	621.236
419.584	25.942	796.356	620.851
420.599	25.772	796.135	620.040
421.613	161.654	1370.479	1792.958
422.628	140.227	1454.197	1793.048
