DTS Sentinel unit serial number:	SN413079Multiplexer serial number:	ORYXHardware model number:	OX4-SRSoftware version number:	ORYX F/W v4.00 Oryx Data Collector v3.7.2.0data status	okinstallation	princeton_trtdifferential loss correction	single-endedforward channel	channel 1reverse channel	N/Adate	2019/09/18time	20:22:35forward acquisition time	60.00reverse acquisition time	0.00gamma	496.2192k internal	0.2333k external	0.2333temperature offset calibration	1.0022default loss term (dB/km)	0.3790temperature slope calibration	1.0000multiplexer offset coefficient	1.0000multiplexer slope coefficient	1.0000fibre end	0.00T internal ref (°C)	28.77T ext. ref 1 (°C)	0.85T ext. ref 2 (°C)	19.51length (m)	temperature (°C)	Stokes	anti-Stokes-747.200	70.725	0.211	-0.220
-746.185	-110.692	0.213	0.044
-745.171	-200.000	-0.009	-0.045
-744.156	27.080	-0.125	0.105
-743.142	-200.000	-0.009	-0.139
-742.127	-200.000	-0.030	0.275
-741.112	-20.823	0.132	-0.081
-740.098	800.000	0.042	0.154
-739.083	38.232	-0.342	0.306
-738.069	3.200	-0.181	0.133
-737.054	40.289	-0.289	-0.261
-736.039	-198.670	0.215	-0.001
-735.025	-177.532	0.317	-0.008
-734.010	-200.000	0.020	0.193
-732.996	-73.897	0.371	0.135
-731.981	192.091	0.214	-0.324
-730.966	83.299	0.058	-0.064
-729.952	255.232	0.124	0.213
-728.937	-172.177	-0.439	0.014
-727.923	-200.000	-0.019	0.263
-726.908	800.000	-0.050	0.213
-725.894	70.465	-0.355	-0.369
-724.879	-6.436	-0.279	-0.191
-723.864	-109.422	-0.259	-0.055
-722.850	800.000	-0.081	-0.352
-721.835	-200.000	-0.052	0.336
-720.821	-40.174	-0.175	-0.091
-719.806	-200.000	-0.057	-0.665
-718.791	-200.000	0.010	0.091
-717.777	-200.000	0.031	-0.282
-716.762	-195.980	0.198	-0.001
-715.748	-78.121	0.173	-0.060
-714.733	-200.000	-0.027	-0.227
-713.718	197.178	0.077	-0.117
-712.704	-1.768	-0.197	-0.139
-711.689	-179.266	0.226	0.005
-710.675	593.412	-0.047	-0.117
-709.660	274.430	0.165	-0.294
-708.645	150.188	-0.131	-0.179
-707.631	152.535	-0.098	0.135
-706.616	753.625	0.056	0.152
-705.602	46.462	0.134	0.125
-704.587	-181.922	0.183	0.003
-703.572	-84.050	0.121	-0.039
-702.558	-76.485	0.117	0.041
-701.543	-64.160	0.213	-0.087
-700.529	-22.646	-0.243	0.148
-699.514	127.332	0.242	-0.308
-698.499	30.652	0.178	0.153
-697.485	-200.000	-0.020	-0.092
-696.470	209.147	0.204	-0.321
-695.456	-37.150	0.330	-0.177
-694.441	59.934	-0.152	0.151
-693.426	-84.839	0.319	0.101
-692.412	160.396	0.117	0.164
-691.397	-46.740	0.102	0.050
-690.383	800.000	-0.221	-0.624
-689.368	-200.000	-0.015	-0.203
-688.354	13.082	0.144	0.111
-687.339	-14.746	0.133	-0.085
-686.324	59.043	0.205	0.202
-685.310	188.076	0.126	-0.188
-684.295	-185.055	0.024	0.000
-683.281	-200.000	-0.013	-0.095
-682.266	-165.230	0.233	-0.010
-681.251	-65.374	0.186	-0.075
-680.237	-200.000	0.003	0.156
-679.222	-5.480	0.139	-0.096
-678.208	-2.340	-0.171	0.120
-677.193	-131.408	-0.643	0.085
-676.178	345.067	0.079	-0.156
-675.164	-200.000	-0.023	-0.408
-674.149	800.000	0.083	-0.270
-673.135	-200.000	0.049	0.279
-672.120	-167.798	-0.062	-0.002
-671.105	800.000	0.064	-0.181
-670.091	-115.318	0.104	-0.020
-669.076	219.747	0.172	-0.277
-668.062	-135.882	0.208	-0.025
-667.047	-27.948	-0.256	-0.149
-666.032	-200.000	0.023	0.337
-665.018	800.000	-0.066	0.282
-664.003	25.615	0.507	-0.423
-662.989	-200.000	0.030	-0.318
-661.974	-100.047	0.093	0.023
-660.959	-8.373	-0.395	-0.266
-659.945	-200.000	0.024	-0.142
-658.930	800.000	0.060	-0.192
-657.916	235.773	-0.048	-0.079
-656.901	-200.000	0.049	0.321
-655.886	82.448	-0.086	-0.094
-654.872	34.780	0.189	-0.166
-653.857	107.704	0.176	-0.210
-652.843	800.000	0.011	-0.033
-651.828	99.541	-0.204	0.237
-650.814	-106.011	-0.133	0.030
-649.799	639.432	-0.073	-0.185
-648.784	-200.000	-0.022	-0.197
-647.770	97.517	-0.144	0.165
-646.755	-200.000	-0.020	0.184
-645.741	-110.374	-0.152	-0.032
-644.726	292.808	-0.081	-0.147
-643.711	417.128	0.130	0.279
-642.697	-125.781	-0.135	-0.020
-641.682	800.000	-0.118	-0.393
-640.668	352.284	0.022	-0.044
-639.653	142.158	-0.156	0.208
-638.638	158.239	0.190	-0.264
-637.624	800.000	0.035	0.100
-636.609	-13.338	-0.333	-0.217
-635.595	294.149	-0.048	-0.088
-634.580	-200.000	0.003	-0.234
-633.565	-124.581	0.091	0.014
-632.551	210.728	0.169	-0.266
-631.536	230.817	-0.147	-0.241
-630.522	-39.236	0.170	0.089
-629.507	-200.000	-0.031	0.217
-628.492	43.465	0.073	-0.066
-627.478	-200.000	0.000	-0.218
-626.463	-200.000	-0.068	-0.333
-625.449	23.835	-0.182	-0.150
-624.434	-200.000	0.073	0.355
-623.419	-60.701	-0.210	-0.089
-622.405	51.571	0.081	-0.077
-621.390	100.771	0.166	0.193
-620.376	280.928	-0.095	0.170
-619.361	39.170	-0.246	-0.221
-618.346	-150.056	0.092	-0.007
-617.332	140.689	-0.133	0.176
-616.317	-126.897	0.238	-0.035
-615.303	-166.879	-0.179	-0.007
-614.288	241.141	0.109	-0.182
-613.273	-200.000	-0.024	0.189
-612.259	40.898	-0.168	-0.152
-611.244	100.593	0.161	0.187
-610.230	249.125	-0.215	-0.364
-609.215	-157.654	-0.118	-0.007
-608.201	161.577	-0.177	0.248
-607.186	116.891	0.117	0.143
-606.171	98.971	-0.276	0.318
-605.157	-92.784	0.242	-0.068
-604.142	800.000	0.045	0.171
-603.128	-166.603	0.087	-0.004
-602.113	-185.698	-0.189	-0.003
-601.098	-200.000	0.044	-0.257
-600.084	-200.000	0.008	-0.293
-599.069	111.763	-0.118	0.143
-598.055	-4.099	0.213	-0.147
-597.040	255.196	-0.233	0.399
-596.025	-24.740	-0.052	-0.031
-595.011	24.430	0.111	0.092
-593.996	-92.931	0.243	-0.068
-592.982	-133.508	-0.066	-0.008
-591.967	-200.000	-0.037	0.288
-590.952	-124.340	0.309	-0.048
-589.938	-200.000	-0.066	-0.353
-588.923	158.661	0.135	0.188
-587.909	394.706	0.103	-0.215
-586.894	46.983	-0.216	0.201
-585.879	83.126	-0.256	-0.278
-584.865	501.214	-0.112	0.258
-583.850	545.024	-0.053	-0.126
-582.836	-127.906	0.265	-0.038
-581.821	292.593	0.064	0.117
-580.806	800.000	-0.014	0.057
-579.792	800.000	-0.081	-0.236
-578.777	328.478	-0.213	-0.408
-577.763	-20.362	-0.280	-0.172
-576.748	122.220	-0.138	-0.173
-575.733	-153.969	0.233	0.016
-574.719	-23.073	-0.262	0.158
-573.704	-200.000	0.010	-0.166
-572.690	242.919	0.255	-0.426
-571.675	-151.678	-0.077	-0.006
-570.661	-31.999	-0.271	-0.152
-569.646	800.000	0.043	-0.129
-568.631	-148.912	0.154	-0.012
-567.617	-93.727	-0.385	0.106
-566.602	264.695	-0.189	0.328
-565.588	-159.861	0.233	0.013
-564.573	-109.312	0.168	-0.036
-563.558	480.530	0.061	-0.138
-562.544	434.852	0.075	-0.164
-561.529	-200.000	-0.029	-0.290
-560.515	135.641	0.238	-0.309
-559.500	327.062	0.013	0.025
-558.485	-200.000	0.022	-0.334
-557.471	-22.362	-0.154	0.093
-556.456	133.896	0.054	-0.070
-555.442	800.000	-0.086	-0.337
-554.427	-108.395	0.241	0.052
-553.412	0.938	0.167	0.119
-552.398	61.132	0.165	-0.164
-551.383	-81.347	0.377	0.124
-550.369	120.941	-0.063	-0.078
-549.354	194.644	-0.111	-0.168
-548.339	337.420	0.065	-0.127
-547.325	-36.300	-0.231	0.124
-546.310	83.052	-0.123	-0.134
-545.296	-63.374	0.228	0.094
-544.281	-51.216	-0.167	-0.078
-543.266	141.569	-0.019	0.025
-542.252	18.090	0.102	-0.081
-541.237	333.544	-0.009	-0.018
-540.223	-200.000	0.015	0.350
-539.208	367.342	-0.193	0.389
-538.193	-55.452	0.118	-0.053
-537.179	41.893	-0.110	0.099
-536.164	-3.351	-0.091	0.063
-535.150	100.269	0.129	-0.149
-534.135	459.744	-0.067	-0.149
-533.121	800.000	0.115	0.330
-532.106	-65.760	0.317	-0.127
-531.091	31.849	-0.184	0.158
-530.077	-35.804	0.426	-0.230
-529.062	800.000	0.056	0.193
-528.048	105.075	-0.279	-0.329
-527.033	-200.000	-0.052	-0.241
-526.018	-3.920	-0.106	-0.073
-525.004	-200.000	0.007	-0.234
-523.989	127.604	0.131	-0.166
-522.975	-200.000	0.120	-0.619
-521.960	21.356	0.097	0.078
-520.945	-67.875	0.503	-0.196
-519.931	-200.000	-0.073	0.405
-518.916	106.106	0.194	0.229
-517.902	756.075	-0.036	0.096
-516.887	-200.000	0.002	0.132
-515.872	291.643	0.271	0.491
-514.858	-16.279	0.266	-0.168
-513.843	289.444	0.134	0.242
-512.829	757.443	-0.108	0.290
-511.814	-200.000	-0.016	0.121
-510.799	8.015	-0.021	0.016
-509.785	-181.484	-0.187	0.004
-508.770	-109.009	-0.144	0.031
-507.756	-163.211	0.725	-0.035
-506.741	230.382	-0.108	0.177
-505.726	-60.184	-0.108	0.046
-504.712	-33.528	-0.194	0.107
-503.697	69.389	-0.206	-0.212
-502.683	282.195	0.176	-0.315
-501.668	112.358	-0.161	0.194
-500.653	-86.270	0.491	-0.151
-499.639	-26.549	-0.231	-0.135
-498.624	800.000	0.114	-0.371
-497.610	-200.000	0.005	-0.028
-496.595	-26.710	0.141	0.082
-495.581	-85.576	-0.111	-0.034
-494.566	-113.035	0.004	0.001
-493.551	-200.000	0.066	0.399
-492.537	100.102	-0.168	0.194
-491.522	8.970	-0.288	0.216
-490.508	-200.000	0.061	0.346
-489.493	-200.000	-0.036	0.203
-488.478	213.705	-0.142	0.224
-487.464	-200.000	0.047	0.217
-486.449	405.542	-0.184	0.386
-485.435	-52.840	-0.211	0.097
-484.420	800.000	0.167	-0.535
-483.405	-157.017	-0.192	0.012
-482.391	-200.000	-0.009	0.151
-481.376	-141.887	0.225	-0.022
-480.362	-200.000	0.015	0.142
-479.347	-177.794	-0.338	0.008
-478.332	95.191	0.179	0.203
-477.318	60.198	0.083	0.082
-476.303	-90.672	-0.259	-0.075
-475.289	-39.767	0.246	-0.128
-474.274	-200.000	-0.010	0.150
-473.259	-69.182	0.293	-0.112
-472.245	-21.271	-0.152	0.093
-471.230	-200.000	-0.017	0.280
-470.216	232.420	-0.177	-0.289
-469.201	800.000	-0.022	0.079
-468.186	-23.837	-0.363	-0.216
-467.172	-153.449	-0.180	-0.012
-466.157	-200.000	-0.028	-0.332
-465.143	-141.964	0.061	0.006
-464.128	800.000	-0.092	-0.329
-463.113	-200.000	0.055	0.282
-462.099	220.511	-0.259	0.412
-461.084	-117.394	0.118	-0.021
-460.070	-200.000	0.012	0.139
-459.055	-142.301	-0.415	-0.041
-458.040	258.312	-0.083	0.142
-457.026	-29.362	-0.078	-0.044
-456.011	-200.000	0.032	-0.196
-454.997	-16.611	-0.118	-0.074
-453.982	255.235	0.079	0.134
-452.968	112.558	-0.153	0.184
-451.953	-122.125	0.259	0.042
-450.938	-67.240	-0.140	0.055
-449.924	-200.000	0.063	-0.305
-448.909	84.154	0.060	-0.066
-447.895	436.126	0.125	0.270
-446.880	12.338	-0.036	-0.028
-445.865	-200.000	-0.033	0.237
-444.851	56.076	0.172	0.166
-443.836	-29.658	-0.314	0.178
-442.822	-200.000	0.007	-0.204
-441.807	-59.772	-0.068	-0.029
-440.792	-93.615	-0.198	-0.054
-439.778	5.305	-0.103	-0.076
-438.763	-200.000	0.040	0.257
-437.749	800.000	-0.034	-0.114
-436.734	576.674	-0.116	-0.281
-435.719	-200.000	-0.010	-0.319
-434.705	-38.190	-0.163	-0.086
-433.690	398.701	-0.099	0.207
-432.676	-15.884	0.070	-0.044
-431.661	-36.425	0.286	0.153
-430.646	-172.011	0.067	-0.002
-429.632	-5.835	0.060	-0.041
-428.617	-141.427	0.080	-0.008
-427.603	178.566	0.083	0.121
-426.588	-200.000	0.030	-0.186
-425.573	-200.000	0.019	-0.183
-424.559	54.523	0.045	-0.043
-423.544	-73.000	-0.165	0.060
-422.530	224.383	-0.153	0.246
-421.515	-134.240	-0.290	0.035
-420.500	-134.552	-0.353	-0.043
-419.486	-27.436	0.265	-0.153
-418.471	14.830	0.205	0.159
-417.457	-200.000	-0.018	0.290
-416.442	20.221	0.179	0.144
-415.428	-126.793	-0.171	-0.025
-414.413	159.146	0.138	0.191
-413.398	-87.662	-0.094	0.028
-412.384	71.184	-0.188	0.193
-411.369	-29.588	-0.058	0.033
-410.355	-200.000	0.028	0.298
-409.340	13.324	-0.163	0.125
-408.325	-78.670	-0.088	0.030
-407.311	-188.964	-0.420	0.005
-406.296	-64.438	0.076	0.031
-405.282	-200.000	-0.001	0.064
-404.267	-115.233	-0.070	0.013
-403.252	-27.861	-0.197	-0.113
-402.238	-3.921	0.269	-0.185
-401.223	800.000	0.069	0.202
-400.209	-105.633	-0.204	-0.046
-399.194	-166.499	-0.028	0.001
-398.179	88.512	-0.135	-0.149
-397.165	800.000	-0.077	0.291
-396.150	-200.000	-0.020	0.219
-395.136	311.287	-0.081	0.151
-394.121	-135.637	0.109	-0.013
-393.106	-153.471	0.201	-0.014
-392.092	-91.992	0.155	-0.043
-391.077	-200.000	-0.002	0.084
-390.063	655.754	0.006	-0.014
-389.048	777.124	0.109	-0.294
-388.033	-200.000	-0.007	-0.259
-387.019	43.326	-0.090	0.082
-386.004	82.304	0.043	0.047
-384.990	36.279	-0.179	-0.157
-383.975	-105.745	0.198	-0.044
-382.960	-0.441	-0.193	0.136
-381.946	293.819	0.106	-0.192
-380.931	800.000	0.109	-0.339
-379.917	-49.010	-0.127	-0.061
-378.902	-78.738	-0.231	0.078
-377.888	-101.984	-0.408	-0.097
-376.873	-31.500	0.309	-0.172
-375.858	-110.129	0.236	0.049
-374.844	-24.194	0.197	0.116
-373.829	-200.000	-0.006	-0.194
-372.815	3.832	-0.201	-0.145
-371.800	-18.022	-0.250	-0.155
-370.785	51.009	0.125	0.117
-369.771	317.596	-0.114	-0.214
-368.756	9.296	0.091	0.068
-367.742	-200.000	-0.033	-0.191
-366.727	-176.712	0.410	0.010
-365.712	-27.606	0.118	0.068
-364.698	115.289	0.200	0.241
-363.683	43.182	0.268	0.243
-362.669	-129.347	0.336	-0.046
-361.654	-98.647	0.134	0.034
-360.639	370.743	0.116	0.233
-359.625	-58.125	-0.246	0.106
-358.610	661.967	-0.072	-0.183
-357.596	63.163	-0.214	-0.212
-356.581	-12.098	-0.428	0.277
-355.566	-169.296	-0.100	-0.004
-354.552	-200.000	-0.018	-0.294
-353.537	800.000	-0.070	0.225
-352.523	157.456	0.167	0.229
-351.508	65.331	0.193	-0.194
-350.493	-120.488	-0.265	0.045
-349.479	26.839	-0.071	0.059
-348.464	-118.456	0.178	-0.031
-347.450	-142.134	0.049	-0.005
-346.435	800.000	-0.014	-0.053
-345.420	86.547	0.214	0.233
-344.406	237.485	-0.142	0.234
-343.391	-200.000	-0.020	0.204
-342.377	-28.033	0.079	0.045
-341.362	39.245	-0.097	0.086
-340.348	-75.547	0.251	-0.088
-339.333	800.000	-0.070	-0.251
-338.318	83.742	-0.180	0.194
-337.304	-30.659	0.368	-0.206
-336.289	8.332	-0.274	0.204
-335.275	-119.223	-0.337	0.058
-334.260	117.011	0.198	-0.241
-333.245	-200.000	-0.052	-0.276
-332.231	112.450	0.149	-0.179
-331.216	-119.309	-0.347	-0.060
-330.202	-200.000	-0.011	-0.221
-329.187	45.555	0.265	-0.242
-328.172	-19.501	0.239	0.146
-327.158	-19.121	-0.171	-0.105
-326.143	-103.660	-0.288	-0.067
-325.129	-68.552	0.101	-0.039
-324.114	152.990	-0.104	0.140
-323.099	800.000	0.120	0.327
-322.085	-14.254	0.252	0.161
-321.070	412.479	-0.005	0.011
-320.056	51.724	0.169	-0.159
-319.041	-32.874	-0.100	-0.055
-318.026	107.388	0.319	0.375
-317.012	291.265	-0.091	-0.164
-315.997	121.545	0.147	-0.181
-314.983	12.137	-0.107	-0.081
-313.968	-96.370	-0.139	-0.036
-312.953	-54.602	0.323	-0.145
-311.939	-200.000	-0.002	0.018
-310.924	-4.728	-0.095	0.065
-309.910	-133.494	0.267	0.033
-308.895	17.125	0.299	0.235
-307.880	-132.600	-0.190	-0.024
-306.866	-64.425	0.010	0.004
-305.851	314.266	0.086	-0.159
-304.837	-28.035	0.112	0.064
-303.822	333.976	0.117	-0.225
-302.807	-43.483	-0.201	0.100
-301.793	-200.000	-0.017	0.094
-300.778	-200.000	-0.045	0.312
-299.764	-200.000	0.060	0.399
-298.749	-14.840	0.270	-0.171
-297.735	-101.015	-0.267	0.065
-296.720	-138.793	0.166	0.018
-295.705	-108.157	-0.203	0.043
-294.691	-200.000	-0.005	-0.149
-293.676	-200.000	-0.033	0.158
-292.662	44.781	-0.059	-0.053
-291.647	-57.925	-0.200	0.086
-290.632	18.036	-0.041	0.032
-289.618	27.551	-0.058	0.048
-288.603	-59.320	-0.092	-0.039
-287.589	-92.609	0.033	-0.009
-286.574	181.703	0.038	-0.055
-285.559	-200.000	0.023	-0.257
-284.545	800.000	0.045	-0.160
-283.530	35.649	0.156	0.135
-282.516	414.469	-0.073	-0.153
-281.501	-124.790	-0.143	-0.022
-280.486	800.000	0.123	0.442
-279.472	-200.000	-0.002	-0.075
-278.457	-47.515	-0.050	-0.024
-277.443	339.658	0.092	0.177
-276.428	131.537	0.092	-0.116
-275.413	800.000	-0.060	-0.227
-274.399	-154.688	-0.141	-0.009
-273.384	-53.743	-0.274	-0.123
-272.370	-164.850	0.501	-0.022
-271.355	508.087	0.129	0.295
-270.340	515.640	-0.016	-0.037
-269.326	-83.142	-0.124	0.039
-268.311	-200.000	0.001	-0.066
-267.297	203.972	0.080	0.122
-266.282	-78.740	-0.129	0.043
-265.267	-128.413	-0.060	0.008
-264.253	-121.810	-0.247	-0.040
-263.238	800.000	0.027	0.087
-262.224	601.264	-0.092	0.225
-261.209	596.997	0.097	0.237
-260.195	339.703	0.050	-0.096
-259.180	-200.000	0.051	-0.395
-258.165	53.153	0.226	-0.213
-257.151	-59.820	0.181	-0.076
-256.136	286.878	-0.165	0.294
-255.122	-29.506	0.199	-0.112
-254.107	369.391	0.020	0.040
-253.092	-103.446	0.171	0.040
-252.078	376.955	-0.066	-0.133
-251.063	364.179	-0.059	-0.117
-250.049	622.060	0.108	-0.269
-249.034	-12.455	-0.031	-0.020
-248.019	151.874	0.065	0.088
-247.005	-8.375	0.127	0.084
-245.990	540.547	0.138	-0.324
-244.976	-131.880	0.290	0.037
-243.961	22.498	-0.076	0.061
-242.946	800.000	-0.020	-0.077
-241.932	800.000	0.023	0.074
-240.917	228.752	-0.118	0.190
-239.903	542.693	0.081	0.189
-238.888	93.637	-0.250	0.280
-237.873	-159.731	-0.236	0.013
-236.859	-106.536	-0.161	0.035
-235.844	-68.678	-0.233	0.089
-234.830	-136.352	-0.251	0.029
-233.815	83.414	-0.135	-0.145
-232.800	141.177	-0.086	-0.113
-231.786	35.089	-0.064	0.055
-230.771	94.804	0.229	-0.256
-229.757	13.189	0.103	0.078
-228.742	800.000	0.079	-0.333
-227.727	365.647	0.066	0.132
-226.713	64.461	0.227	0.225
-225.698	4.410	0.411	0.297
-224.684	525.260	0.224	0.519
-223.669	-55.503	-0.177	-0.078
-222.655	-74.786	-0.020	-0.007
-221.640	0.574	0.112	-0.079
-220.625	-62.238	0.160	0.066
-219.611	24.851	-0.199	-0.163
-218.596	167.364	0.190	-0.266
-217.582	-200.000	-0.007	0.054
-216.567	-132.917	0.306	-0.038
-215.552	18.142	0.108	0.085
-214.538	-102.668	0.363	0.085
-213.523	128.117	0.046	0.057
-212.509	-200.000	-0.004	0.155
-211.494	-115.897	0.428	-0.079
-210.479	-78.663	-0.260	-0.087
-209.465	-200.000	-0.036	0.344
-208.450	800.000	0.023	0.100
-207.436	20.501	0.042	0.033
-206.421	800.000	0.089	0.286
-205.406	-200.000	0.012	-0.195
-204.392	-200.000	0.031	-0.177
-203.377	-77.634	-0.138	0.047
-202.363	-200.000	0.009	-0.302
-201.348	74.406	0.219	-0.227
-200.333	-59.044	0.103	-0.044
-199.319	-20.857	0.099	0.060
-198.304	-200.000	-0.059	0.407
-197.290	800.000	0.030	0.110
-196.275	-59.910	-0.104	0.044
-195.260	800.000	-0.035	0.127
-194.246	-200.000	-0.008	0.230
-193.231	-169.425	0.080	0.003
-192.217	-53.066	-0.389	0.176
-191.202	-104.549	0.322	-0.073
-190.187	-11.523	-0.088	0.057
-189.173	163.072	0.157	-0.216
-188.158	-200.000	0.042	0.422
-187.144	-131.138	-0.046	0.006
-186.129	68.598	0.121	-0.122
-185.114	154.990	-0.289	-0.391
-184.100	-120.761	0.155	0.026
-183.085	50.625	0.039	-0.036
-182.071	-200.000	-0.018	-0.109
-181.056	-17.015	0.204	0.127
-180.042	-58.804	0.261	0.111
-179.027	800.000	0.017	-0.047
-178.012	72.459	-0.197	0.202
-176.998	-163.333	-0.084	0.004
-175.983	-100.792	0.115	0.028
-174.969	152.692	0.209	-0.281
-173.954	-200.000	-0.036	-0.160
-172.939	-56.855	-0.209	0.091
-171.925	16.563	0.053	0.041
-170.910	-200.000	-0.026	0.139
-169.896	-43.372	-0.298	-0.148
-168.881	800.000	-0.061	-0.261
-167.866	57.004	-0.072	-0.069
-166.852	-200.000	0.005	-0.039
-165.837	800.000	0.123	-0.364
-164.823	-122.988	0.184	-0.029
-163.808	-200.000	-0.019	-0.131
-162.793	25.556	-0.076	0.062
-161.779	-177.307	-0.435	-0.011
-160.764	0.276	-0.100	-0.070
-159.750	760.977	-0.024	-0.063
-158.735	104.724	-0.216	0.250
-157.720	-200.000	0.016	-0.311
-156.706	7.529	-0.227	0.167
-155.691	-186.801	-0.139	0.002
-154.677	5.071	0.247	-0.179
-153.662	-11.548	0.012	0.008
-152.647	38.934	0.122	0.107
-151.633	-200.000	-0.045	0.217
-150.618	-200.000	0.028	-0.188
-149.604	-63.968	-0.202	-0.081
-148.589	-200.000	-0.046	0.217
-147.574	-200.000	0.006	0.123
-146.560	-138.612	0.101	-0.011
-145.545	-121.863	0.056	0.009
-144.531	-200.000	0.006	0.114
-143.516	182.952	0.169	0.246
-142.502	-200.000	0.037	0.229
-141.487	148.710	0.139	0.185
-140.472	415.668	-0.190	0.397
-139.458	-91.086	-0.158	-0.044
-138.443	221.451	0.153	-0.242
-137.429	-114.768	0.234	0.044
-136.414	800.000	-0.111	-0.434
-135.399	206.911	0.189	-0.290
-134.385	270.955	-0.108	0.186
-133.370	-0.509	-0.100	-0.069
-132.356	-106.628	0.327	-0.071
-131.341	-99.705	-0.215	-0.053
-130.326	800.000	-0.070	0.256
-129.312	33.065	0.187	0.159
-128.297	-200.000	0.013	0.131
-127.283	137.517	-0.256	-0.328
-126.268	-21.660	0.154	-0.092
-125.253	-200.000	-0.043	0.272
-124.239	-200.000	0.000	-0.006
-123.224	-79.050	0.156	-0.052
-122.210	-200.000	0.014	-0.402
-121.195	-126.320	0.166	0.024
-120.180	-200.000	0.005	0.391
-119.166	-200.000	0.052	0.338
-118.151	427.447	0.039	0.082
-117.137	-31.027	-0.332	0.184
-116.122	13.234	0.197	-0.150
-115.107	417.131	-0.109	0.227
-114.093	-200.000	-0.031	-0.175
-113.078	-20.056	0.515	0.312
-112.064	-9.406	0.234	-0.153
-111.049	625.416	-0.109	-0.271
-110.034	-200.000	0.011	-0.520
-109.020	37.580	0.164	0.142
-108.005	33.145	0.136	0.116
-106.991	56.497	0.134	0.128
-105.976	-42.364	0.087	0.044
-104.962	101.766	-0.087	-0.099
-103.947	-144.580	-0.225	0.020
-102.932	-78.398	0.294	0.099
-101.918	-120.989	-0.210	0.035
-100.903	800.000	0.086	-0.243
-99.889	-59.462	0.287	0.121
-98.874	401.065	-0.048	-0.098
-97.859	444.073	-0.150	0.323
-96.845	-77.661	-0.274	0.093
-95.830	-200.000	-0.002	0.060
-94.816	800.000	0.063	0.192
-93.801	329.635	0.254	0.478
-92.786	634.268	0.027	-0.068
-91.772	-166.719	0.145	0.006
-90.757	800.000	0.022	0.066
-89.743	-134.229	0.349	0.042
-88.728	564.506	0.143	-0.339
-87.713	22.223	-0.247	0.198
-86.699	12.646	0.151	0.114
-85.684	800.000	0.070	-0.249
-84.670	-75.095	-0.220	-0.077
-83.655	-200.000	-0.006	-0.345
-82.640	-80.768	0.141	-0.046
-81.626	-135.990	0.141	0.016
-80.611	-48.437	0.014	-0.007
-79.597	-60.823	0.179	0.074
-78.582	-200.000	0.013	0.164
-77.567	393.937	0.054	0.110
-76.553	23.319	-0.229	0.184
-75.538	-51.386	-0.020	0.009
-74.524	-168.488	-0.167	-0.006
-73.509	178.894	-0.082	0.118
-72.494	-71.264	-0.330	0.121
-71.480	55.394	-0.108	-0.102
-70.465	42.321	0.036	-0.032
-69.451	58.348	0.075	-0.072
-68.436	-67.511	-0.121	0.046
-67.422	-200.000	-0.021	0.133
-66.407	38.379	0.147	0.128
-65.392	-63.744	-0.257	-0.103
-64.378	396.581	-0.031	0.063
-63.363	-200.000	0.024	0.269
-62.349	115.033	-0.138	0.165
-61.334	14.423	-1.283	-0.980
-60.319	67.395	0.734	0.734
-59.305	275.877	-0.609	-1.059
-58.290	218.561	0.646	1.011
-57.276	360.140	0.727	1.425
-56.261	-200.000	112.680	687.070
-55.246	525.264	1475.318	3398.437
-54.232	152.967	2634.953	3526.339
-53.217	108.051	2139.370	2495.908
-52.203	40.321	1600.588	1409.475
-51.188	32.228	1350.593	1140.424
-50.173	29.284	1312.846	1091.109
-49.159	57.669	1368.672	1309.412
-48.144	56.580	1383.115	1316.636
-47.130	32.339	1338.844	1130.988
-46.115	28.813	1322.099	1095.817
-45.100	28.686	1316.570	1090.438
-44.086	28.704	1313.747	1088.164
-43.071	28.634	1311.467	1085.815
-42.057	28.553	1310.147	1084.204
-41.042	28.683	1308.253	1083.360
-40.027	28.573	1307.283	1081.862
-39.013	28.648	1305.298	1080.617
-37.998	28.757	1302.597	1078.979
-36.984	28.680	1301.405	1077.498
-35.969	28.749	1299.353	1076.161
-34.954	28.729	1297.949	1074.841
-33.940	28.847	1296.502	1074.286
-32.925	28.941	1294.898	1073.462
-31.911	28.799	1294.050	1071.890
-30.896	28.767	1292.399	1070.291
-29.881	28.855	1291.196	1069.770
-28.867	28.933	1289.627	1068.881
-27.852	28.845	1288.162	1067.109
-26.838	28.896	1287.015	1066.411
-25.823	28.911	1285.255	1065.001
-24.809	28.822	1284.192	1063.562
-23.794	28.707	1283.182	1062.017
-22.779	28.827	1281.696	1061.441
-21.765	28.847	1280.439	1060.469
-20.750	28.787	1278.755	1058.690
-19.736	28.778	1277.510	1057.563
-18.721	28.823	1276.233	1056.727
-17.706	28.723	1275.514	1055.512
-16.692	28.783	1273.888	1054.469
-15.677	28.718	1273.280	1053.551
-14.663	28.711	1272.285	1052.646
-13.648	28.748	1271.443	1052.119
-12.633	28.786	1269.949	1051.057
-11.619	28.705	1269.422	1050.118
-10.604	28.712	1268.433	1049.298
-9.590	28.601	1267.884	1048.168
-8.575	28.711	1265.977	1047.180
-7.560	28.691	1265.833	1046.901
-6.546	28.733	1264.650	1046.121
-5.531	28.696	1264.058	1045.378
-4.517	28.711	1263.396	1044.874
-3.502	28.743	1262.540	1044.309
-2.487	28.716	1261.276	1043.069
-1.473	28.510	1256.440	1037.863
-0.458	26.191	1240.686	1011.829
0.556	20.748	1220.972	964.958
1.571	16.050	1225.968	942.605
2.586	14.771	1240.406	946.385
3.600	14.499	1228.723	935.861
4.615	11.065	1157.891	863.641
5.629	4.309	1085.709	776.030
6.644	0.989	1067.531	746.624
7.659	0.813	1065.507	744.274
8.673	0.748	1064.007	742.842
9.688	0.830	1063.006	742.478
10.702	0.975	1061.018	741.734
11.717	5.050	1065.538	764.844
12.731	12.093	1075.009	806.313
13.746	16.635	1080.373	832.664
14.761	17.495	1081.237	837.486
15.775	16.703	1079.233	831.971
16.790	15.765	1077.287	825.796
17.804	14.878	1076.041	820.416
18.819	14.705	1074.444	818.275
19.834	14.337	1074.044	816.098
20.848	14.227	1072.768	814.518
21.863	13.879	1072.245	812.345
22.877	13.788	1071.045	810.920
23.892	13.756	1070.170	810.031
24.907	13.680	1069.638	809.186
25.921	13.726	1069.251	809.044
26.936	13.733	1068.056	808.104
27.950	13.766	1067.271	807.599
28.965	13.866	1065.860	806.944
29.980	14.013	1064.307	806.411
30.994	13.970	1063.305	805.371
32.009	13.963	1062.594	804.728
33.023	13.968	1061.436	803.804
34.038	13.912	1060.458	802.722
35.053	13.872	1060.043	802.141
36.067	13.947	1058.832	801.520
37.082	13.955	1057.960	800.826
38.096	13.867	1057.707	800.140
39.111	13.799	1056.676	798.963
40.126	13.797	1055.286	797.831
41.140	13.806	1054.141	796.935
42.155	13.743	1052.955	795.665
43.169	13.594	1052.380	794.449
44.184	13.668	1050.893	793.610
45.199	13.753	1049.979	793.254
46.213	13.749	1048.984	792.413
47.228	13.837	1047.761	791.842
48.242	13.723	1046.697	790.425
49.257	13.919	1045.440	790.339
50.271	13.921	1044.531	789.591
51.286	13.764	1043.896	788.293
52.301	13.809	1043.147	787.870
53.315	13.778	1041.865	786.685
54.330	13.887	1040.842	786.362
55.344	13.747	1040.384	785.283
56.359	13.708	1039.634	784.461
57.374	13.882	1038.510	784.368
58.388	13.594	1037.921	782.494
59.403	13.726	1036.674	782.108
60.417	13.881	1035.690	782.024
61.432	13.741	1034.979	780.761
62.447	13.780	1034.271	780.340
63.461	13.781	1033.135	779.421
64.476	13.762	1032.840	779.036
65.490	13.616	1031.926	777.593
66.505	13.625	1031.303	777.100
67.520	13.682	1030.283	776.529
68.534	13.721	1029.630	776.150
69.549	13.809	1028.761	775.838
70.563	13.634	1028.339	774.631
71.578	13.727	1027.257	774.181
72.593	13.724	1026.434	773.480
73.607	13.788	1025.724	773.173
74.622	13.691	1025.257	772.301
75.636	13.592	1024.651	771.315
76.651	13.636	1023.499	770.587
77.666	13.829	1022.916	770.976
78.680	13.708	1022.360	769.929
79.695	13.664	1021.987	769.374
80.709	13.678	1021.448	768.966
81.724	13.717	1020.874	768.647
82.739	13.806	1019.803	768.182
83.753	13.836	1019.048	767.684
84.768	13.996	1017.787	767.408
85.782	13.912	1016.987	766.346
86.797	13.901	1015.998	765.485
87.812	13.869	1015.780	765.104
88.826	13.845	1014.526	763.983
89.841	13.825	1013.555	763.092
90.855	13.901	1012.756	762.773
91.870	14.040	1011.664	762.518
92.884	13.897	1011.122	761.389
93.899	14.004	1010.276	761.174
94.914	13.918	1009.088	759.816
95.928	13.912	1008.961	759.628
96.943	13.874	1008.057	758.706
97.957	13.942	1007.081	758.216
98.972	13.941	1006.078	757.389
99.987	13.956	1005.054	756.618
101.001	13.785	1004.565	755.404
102.016	13.966	1003.114	755.069
103.030	13.943	1002.460	754.407
104.045	14.033	1001.978	754.383
105.060	13.924	1000.991	753.082
106.074	13.756	1000.010	751.513
107.089	13.812	999.217	751.104
108.103	13.775	998.123	750.049
109.118	13.915	996.827	749.643
110.133	13.758	996.524	748.638
111.147	13.800	995.683	748.132
112.162	13.898	994.607	747.698
113.176	13.954	994.003	747.426
114.191	13.918	993.022	746.464
115.206	13.841	992.825	745.904
116.220	13.819	991.796	744.965
117.235	13.795	990.721	743.985
118.249	13.845	989.953	743.563
119.264	13.959	988.960	743.262
120.279	13.853	988.006	742.007
121.293	13.788	987.438	741.223
122.308	13.792	987.076	740.907
123.322	13.825	985.646	739.914
124.337	13.847	984.354	738.976
125.352	13.850	983.519	738.297
126.366	13.865	982.273	737.366
127.381	13.862	981.255	736.520
128.395	13.899	980.591	736.122
129.410	13.763	980.063	735.055
130.424	13.932	978.739	734.747
131.439	14.027	977.667	734.296
132.454	13.934	977.144	733.426
133.468	13.909	976.836	733.024
134.483	13.852	975.868	731.981
135.497	13.882	974.491	731.014
136.512	13.954	973.981	730.883
137.527	13.920	973.031	729.955
138.541	13.978	971.695	729.143
139.556	13.964	971.277	728.703
140.570	14.116	970.679	728.857
141.585	14.058	969.947	727.989
142.600	14.109	968.647	727.173
143.614	14.149	968.073	726.851
144.629	14.020	967.632	725.894
145.643	14.012	966.681	725.082
146.658	14.167	965.087	724.498
147.673	14.040	963.806	722.916
148.687	13.996	963.494	722.430
149.702	13.994	962.992	721.981
150.716	14.062	961.885	721.382
151.731	14.097	961.064	720.853
152.746	14.045	960.749	720.329
153.760	14.085	959.985	719.863
154.775	14.017	959.593	719.211
155.789	14.097	959.023	719.068
156.804	14.028	958.278	718.145
157.819	14.260	957.289	718.342
158.833	14.229	956.888	717.846
159.848	14.266	955.982	717.262
160.862	14.241	954.615	716.066
161.877	14.180	953.998	715.276
162.892	14.122	953.434	714.540
163.906	14.194	951.863	713.611
164.921	14.143	951.227	712.851
165.935	14.009	950.743	711.852
166.950	14.186	949.917	711.926
167.964	14.302	948.812	711.533
168.979	14.242	947.727	710.401
169.994	14.259	946.857	709.756
171.008	14.137	946.353	708.797
172.023	14.331	945.676	709.052
173.037	14.327	944.683	708.229
174.052	14.232	944.446	707.585
175.067	14.274	943.343	706.874
176.081	14.234	942.776	706.215
177.096	14.202	942.775	706.015
178.110	14.278	941.614	705.406
179.125	14.237	941.580	705.147
180.140	14.298	940.457	704.500
181.154	14.298	940.537	704.496
182.169	14.373	939.676	704.108
183.183	14.550	939.066	704.336
184.198	14.451	938.455	703.399
185.213	14.577	937.223	702.941
186.227	14.360	937.027	701.821
187.242	14.494	936.251	701.738
188.256	14.490	935.815	701.334
189.271	14.613	934.287	700.643
190.286	14.426	933.942	699.537
191.300	14.334	933.395	698.680
192.315	14.304	932.978	698.179
193.329	14.371	932.326	697.913
194.344	14.504	931.383	697.702
195.359	14.383	931.025	696.864
196.373	14.471	930.202	696.555
197.388	14.627	929.770	696.822
198.402	14.593	929.300	696.264
199.417	14.708	928.578	696.144
200.432	14.627	928.294	695.532
201.446	14.786	927.671	695.662
202.461	14.726	927.176	694.982
203.475	14.737	926.529	694.483
204.490	14.722	925.475	693.565
205.504	14.700	924.681	692.820
206.519	14.863	923.921	692.863
207.534	14.761	923.283	691.900
208.548	14.720	922.805	691.311
209.563	14.674	922.323	690.700
210.577	14.823	921.448	690.598
211.592	14.728	921.204	689.965
212.607	14.799	920.019	689.308
213.621	14.678	919.784	688.573
214.636	14.816	918.758	688.309
215.650	14.968	917.879	688.216
216.665	15.013	916.962	687.653
217.680	14.871	916.635	686.763
218.694	14.947	916.182	686.677
219.709	14.973	915.463	686.183
220.723	15.041	914.495	685.674
221.738	14.980	914.168	685.121
222.753	14.957	913.519	684.479
223.767	14.952	912.998	684.008
224.782	14.976	911.847	683.184
225.796	15.068	911.548	683.273
226.811	14.992	911.278	682.701
227.826	15.143	909.952	682.260
228.840	15.015	909.401	681.269
229.855	15.068	908.405	680.677
230.869	15.028	907.693	679.920
231.884	14.975	907.434	679.450
232.899	15.035	906.814	679.171
233.913	15.080	906.085	678.747
234.928	15.092	904.905	677.851
235.942	14.994	904.967	677.441
236.957	15.046	904.352	677.130
237.972	15.166	903.663	677.040
238.986	15.144	902.541	676.052
240.001	15.071	902.293	675.512
241.015	15.180	901.565	675.347
242.030	15.118	901.026	674.630
243.045	15.096	900.376	673.997
244.059	15.312	899.229	673.947
245.074	15.285	898.955	673.574
246.088	15.210	898.362	672.768
247.103	15.384	897.829	673.007
248.117	15.364	897.012	672.254
249.132	15.418	896.441	671.986
250.147	15.439	895.839	671.559
251.161	15.554	894.948	671.289
252.176	15.365	894.766	670.339
253.190	15.482	893.709	669.954
254.205	15.407	893.494	669.436
255.220	15.485	892.986	669.307
256.234	15.385	892.132	668.207
257.249	15.583	891.163	668.212
258.263	15.640	890.624	667.973
259.278	15.603	889.983	667.289
260.293	15.687	889.509	667.208
261.307	15.587	888.871	666.272
262.322	15.676	888.244	666.096
263.336	15.752	887.324	665.649
264.351	15.735	886.685	665.043
265.366	15.826	885.880	664.740
266.380	15.728	885.707	664.163
267.395	15.733	885.006	663.598
268.409	15.828	883.933	663.112
269.424	15.731	883.548	662.381
270.439	15.848	882.667	662.123
271.453	15.830	881.643	661.224
272.468	15.729	881.618	660.749
273.482	15.647	881.318	660.144
274.497	15.826	880.252	659.988
275.512	15.756	879.677	659.228
276.526	15.889	879.468	659.531
277.541	15.923	878.558	658.925
278.555	15.939	878.154	658.625
279.570	15.845	877.504	657.712
280.585	15.889	876.638	657.178
281.599	15.944	875.974	656.834
282.614	15.934	875.629	656.480
283.628	15.970	875.194	656.238
284.643	16.009	874.361	655.707
285.657	16.039	873.706	655.272
286.672	15.985	873.103	654.551
287.687	16.100	872.381	654.401
288.701	16.056	872.085	653.948
289.716	16.028	871.332	653.219
290.730	16.091	870.688	652.921
291.745	16.118	870.209	652.610
292.760	16.084	869.988	652.255
293.774	16.241	868.686	651.827
294.789	16.196	868.314	651.317
295.803	16.113	867.516	650.340
296.818	16.202	866.827	650.110
297.833	16.227	866.344	649.783
298.847	16.152	865.343	648.688
299.862	16.266	865.158	648.932
300.876	16.358	864.480	648.717
301.891	16.404	863.776	648.309
302.906	16.373	863.693	648.071
303.920	16.312	863.048	647.295
304.935	16.546	862.184	647.485
305.949	16.304	861.966	646.339
306.964	16.422	861.406	646.313
307.979	16.390	860.726	645.623
308.993	16.363	860.207	645.073
310.008	16.397	859.684	644.754
311.022	16.503	858.889	644.504
312.037	16.465	858.076	643.694
313.052	16.458	857.430	643.124
314.066	16.271	857.603	642.488
315.081	16.540	856.354	642.516
316.095	16.440	856.003	641.815
317.110	16.394	855.431	641.156
318.125	16.455	854.667	640.755
319.139	16.595	854.064	640.778
320.154	16.385	854.219	640.042
321.168	16.585	853.307	640.061
322.183	16.498	852.778	639.278
323.197	16.519	852.657	639.210
324.212	16.524	851.920	638.620
325.227	16.629	851.258	638.462
326.241	16.597	850.681	637.851
327.256	16.486	850.205	637.023
328.270	16.632	849.759	637.181
329.285	16.541	848.497	635.836
330.300	16.502	848.496	635.631
331.314	16.536	847.988	635.322
332.329	16.590	847.179	634.862
333.343	16.612	846.752	634.569
334.358	16.708	846.238	634.488
335.373	16.879	845.639	634.624
336.387	16.630	845.682	633.666
337.402	16.672	845.218	633.422
338.416	16.774	844.956	633.549
339.431	16.750	844.486	633.050
340.446	16.851	844.338	633.264
341.460	16.887	843.795	632.934
342.475	16.862	843.432	632.510
343.489	16.963	843.030	632.531
344.504	16.861	842.347	631.581
345.519	16.986	841.842	631.614
346.533	16.815	841.777	630.870
347.548	16.945	840.817	630.580
348.562	16.948	840.197	630.070
349.577	16.903	839.459	629.295
350.592	16.984	839.012	629.205
351.606	17.014	837.986	628.489
352.621	16.966	837.379	627.799
353.635	16.918	837.130	627.381
354.650	17.063	836.354	627.281
355.665	16.938	835.589	626.190
356.679	17.059	835.168	626.264
357.694	17.058	834.566	625.754
358.708	17.127	833.705	625.309
359.723	17.191	832.996	624.957
360.738	17.144	832.751	624.545
361.752	17.265	832.105	624.448
362.767	17.182	831.818	623.873
363.781	17.294	831.158	623.734
364.796	17.318	830.640	623.379
365.810	17.155	830.558	622.666
366.825	17.252	830.135	622.648
367.840	17.372	829.156	622.297
368.854	17.290	828.800	621.676
369.869	17.311	828.386	621.386
370.883	17.418	827.924	621.376
371.898	17.475	827.302	621.063
372.913	17.579	827.157	621.276
373.927	17.349	826.641	619.995
374.942	17.301	827.017	620.049
375.956	17.415	826.234	619.823
376.971	17.511	825.803	619.791
377.986	17.718	824.680	619.646
379.000	17.548	824.575	618.897
380.015	17.625	824.034	618.713
381.029	17.645	823.253	618.145
382.044	17.657	822.600	617.647
383.059	17.593	822.270	617.109
384.073	17.657	821.851	616.972
385.088	17.494	821.021	615.705
386.102	17.664	820.501	615.876
387.117	17.669	820.008	615.469
388.132	17.450	819.606	614.324
389.146	17.559	818.970	614.186
390.161	17.703	818.386	614.211
391.175	17.788	818.139	614.276
392.190	17.623	817.734	613.326
393.205	17.635	817.120	612.854
394.219	17.651	816.904	612.695
395.234	17.718	816.239	612.383
396.248	17.602	815.889	611.649
397.263	17.650	815.515	611.488
398.278	17.662	815.226	611.259
399.292	17.817	814.645	611.327
400.307	17.799	814.347	610.982
401.321	17.785	813.635	610.343
402.336	17.715	813.381	609.848
403.350	17.785	812.776	609.591
404.365	17.877	812.435	609.610
405.380	17.863	812.060	609.224
406.394	17.939	811.329	608.895
407.409	17.973	811.031	608.739
408.423	18.009	810.759	608.609
409.438	18.020	809.814	607.885
410.453	17.988	809.923	607.799
411.467	18.032	809.287	607.425
412.482	18.047	808.974	607.189
413.496	18.093	808.890	607.234
414.511	17.983	808.564	606.544
415.526	18.065	807.584	606.048
416.540	18.118	806.916	605.681
417.555	18.188	806.943	605.896
418.569	18.060	806.731	605.230
419.584	18.312	805.899	605.443
420.599	18.244	805.239	604.653
421.613	113.209	1295.734	1478.563
422.628	97.754	1367.168	1478.650
