DTS Sentinel unit serial number:	SN413079Multiplexer serial number:	ORYXHardware model number:	OX4-SRSoftware version number:	ORYX F/W v4.00 Oryx Data Collector v3.7.2.0data status	okinstallation	princeton_trtdifferential loss correction	single-endedforward channel	channel 1reverse channel	N/Adate	2019/09/18time	23:30:35forward acquisition time	60.00reverse acquisition time	0.00gamma	496.2192k internal	0.2341k external	0.2341temperature offset calibration	1.0020default loss term (dB/km)	0.3790temperature slope calibration	1.0000multiplexer offset coefficient	1.0000multiplexer slope coefficient	1.0000fibre end	0.00T internal ref (°C)	23.67T ext. ref 1 (°C)	0.78T ext. ref 2 (°C)	16.69length (m)	temperature (°C)	Stokes	anti-Stokes-747.200	800.000	0.029	-0.098
-746.185	-7.274	-0.105	0.071
-745.171	18.992	0.130	0.104
-744.156	-23.698	-0.297	0.179
-743.142	-12.866	0.115	-0.075
-742.127	432.505	-0.094	0.204
-741.112	119.637	-0.141	-0.175
-740.098	741.927	-0.091	0.245
-739.083	800.000	-0.067	0.197
-738.069	-66.681	-0.250	0.099
-737.054	-200.000	0.028	0.184
-736.039	105.124	-0.124	-0.147
-735.025	800.000	0.031	0.128
-734.010	800.000	-0.052	0.206
-732.996	162.737	0.045	0.063
-731.981	36.470	0.086	-0.076
-730.966	-37.233	-0.070	0.037
-729.952	239.021	0.191	-0.317
-728.937	-200.000	0.006	-0.322
-727.923	-105.826	-0.451	0.102
-726.908	710.910	-0.104	0.274
-725.894	-71.649	-0.415	-0.155
-724.879	63.001	-0.233	-0.233
-723.864	74.078	-0.146	-0.154
-722.850	-200.000	0.021	0.097
-721.835	100.452	-0.219	-0.254
-720.821	124.000	0.094	-0.118
-719.806	-43.316	-0.420	0.213
-718.791	336.044	-0.174	0.338
-717.777	331.418	0.035	-0.068
-716.762	264.397	-0.159	-0.277
-715.748	-78.909	-0.085	-0.029
-714.733	-10.229	0.192	-0.128
-713.718	-200.000	-0.040	-0.267
-712.704	-16.879	-0.197	0.125
-711.689	-58.756	-0.054	0.024
-710.675	800.000	-0.065	0.199
-709.660	-200.000	0.039	0.213
-708.645	-72.175	0.350	-0.130
-707.631	115.020	0.117	0.142
-706.616	800.000	0.075	0.213
-705.602	-21.176	-0.089	-0.054
-704.587	-200.000	-0.023	0.103
-703.572	-200.000	0.034	0.151
-702.558	-47.304	-0.199	0.097
-701.543	-200.000	0.008	0.082
-700.529	335.219	-0.127	0.247
-699.514	-110.787	0.372	-0.077
-698.499	-145.403	-0.414	0.037
-697.485	55.443	-0.212	0.205
-696.470	40.598	-0.199	0.180
-695.456	-181.961	0.198	-0.004
-694.441	43.370	0.183	0.167
-693.426	-47.662	0.224	0.109
-692.412	223.251	-0.078	-0.126
-691.397	-90.830	-0.253	0.073
-690.383	13.434	0.066	0.051
-689.368	9.751	-0.249	-0.189
-688.354	154.349	-0.081	0.112
-687.339	-200.000	0.002	0.046
-686.324	-200.000	0.015	-0.116
-685.310	-23.271	0.201	-0.121
-684.295	-118.432	0.050	0.009
-683.281	452.449	-0.126	-0.279
-682.266	21.970	-0.390	-0.318
-681.251	304.147	0.137	-0.254
-680.237	-65.486	0.287	-0.115
-679.222	573.628	0.138	0.336
-678.208	-126.369	0.113	0.017
-677.193	-25.194	-0.032	-0.019
-676.178	5.421	-0.205	-0.151
-675.164	488.365	-0.100	-0.228
-674.149	-127.819	-0.253	-0.036
-673.135	-55.016	0.073	-0.033
-672.120	14.849	0.167	-0.130
-671.105	-200.000	0.009	0.086
-670.091	233.433	0.039	0.064
-669.076	-200.000	-0.031	-0.188
-668.062	-200.000	-0.021	0.172
-667.047	267.657	-0.151	-0.264
-666.032	-118.847	0.262	-0.046
-665.018	-2.617	0.050	0.035
-664.003	59.753	-0.355	0.350
-662.989	-116.482	0.524	-0.097
-661.974	60.031	0.097	-0.095
-660.959	98.449	-0.084	0.097
-659.945	-200.000	0.038	-0.190
-658.930	-200.000	0.012	-0.059
-657.916	10.294	-0.076	0.058
-656.901	-200.000	0.011	-0.298
-655.886	84.324	0.056	-0.061
-654.872	800.000	-0.038	0.158
-653.857	-200.000	0.042	-0.312
-652.843	-92.331	-0.220	0.062
-651.828	7.353	-0.237	-0.176
-650.814	443.501	-0.048	-0.105
-649.799	-200.000	0.007	-0.044
-648.784	57.877	-0.055	0.054
-647.770	9.838	-0.317	-0.240
-646.755	-200.000	0.003	-0.114
-645.741	479.708	-0.075	-0.169
-644.726	-94.500	-0.153	0.042
-643.711	800.000	-0.039	0.157
-642.697	463.482	0.143	0.318
-641.682	-187.020	0.347	0.005
-640.668	-92.951	0.228	-0.064
-639.653	183.108	-0.130	0.192
-638.638	-200.000	0.012	0.193
-637.624	355.129	-0.151	0.300
-636.609	-98.927	-0.027	0.007
-635.595	6.166	0.159	0.117
-634.580	-25.709	-0.170	-0.100
-633.565	-200.000	-0.024	0.149
-632.551	-53.298	-0.353	0.161
-631.536	110.218	0.117	-0.140
-630.522	108.504	-0.059	0.070
-629.507	-200.000	0.011	-0.147
-628.492	147.642	0.166	0.224
-627.478	-200.000	-0.034	0.205
-626.463	-34.166	0.395	-0.217
-625.449	84.024	0.138	0.150
-624.434	-200.000	0.103	-0.542
-623.419	-103.874	-0.129	0.030
-622.405	22.735	0.217	-0.177
-621.390	800.000	0.029	0.088
-620.376	-200.000	0.022	-0.181
-619.361	-32.863	-0.123	-0.068
-618.346	130.565	0.300	0.383
-617.332	228.123	-0.093	-0.152
-616.317	277.193	-0.199	-0.353
-615.303	-28.903	-0.223	0.128
-614.288	-135.045	0.289	0.035
-613.273	-108.344	0.153	-0.033
-612.259	-200.000	0.022	-0.204
-611.244	-200.000	-0.008	0.102
-610.230	-56.680	-0.228	-0.101
-609.215	303.290	0.050	0.092
-608.201	-114.659	0.396	-0.076
-607.186	-12.583	0.228	-0.148
-606.171	-111.921	-0.394	-0.079
-605.157	-200.000	-0.034	-0.239
-604.142	-200.000	0.045	0.202
-603.128	-127.585	0.184	0.027
-602.113	686.048	0.121	-0.316
-601.098	142.186	-0.107	-0.142
-600.084	-200.000	-0.031	-0.289
-599.069	-200.000	-0.017	0.180
-598.055	80.750	0.215	-0.231
-597.040	325.840	0.174	-0.333
-596.025	197.135	-0.131	0.199
-595.011	-86.964	-0.198	-0.060
-593.996	208.277	-0.021	0.032
-592.982	800.000	-0.156	0.493
-591.967	736.344	0.090	0.241
-590.952	-74.909	0.328	0.117
-589.938	-132.425	-0.197	0.025
-588.923	0.447	-0.093	0.067
-587.909	800.000	-0.075	-0.249
-586.894	126.835	0.098	-0.124
-585.879	28.037	-0.169	-0.142
-584.865	185.665	-0.067	-0.100
-583.850	92.911	-0.087	-0.098
-582.836	-200.000	0.008	-0.135
-581.821	619.086	-0.066	0.166
-580.806	671.655	0.020	-0.051
-579.792	-25.525	0.085	-0.050
-578.777	-16.157	-0.498	-0.315
-577.763	-86.066	0.271	-0.083
-576.748	57.790	0.099	-0.096
-575.733	-32.687	0.086	-0.048
-574.719	-200.000	0.065	-0.476
-573.704	-77.492	0.199	-0.069
-572.690	346.189	-0.072	-0.141
-571.675	460.443	0.072	0.160
-570.661	-96.592	0.141	-0.037
-569.646	-200.000	-0.018	-0.310
-568.631	51.714	0.316	-0.299
-567.617	416.973	-0.074	-0.157
-566.602	437.168	-0.044	0.095
-565.588	19.715	-0.076	0.061
-564.573	800.000	0.116	0.372
-563.558	-200.000	0.022	0.217
-562.544	55.446	0.126	-0.121
-561.529	-95.740	0.134	-0.036
-560.515	431.833	0.067	0.144
-559.500	-200.000	0.007	0.342
-558.485	124.836	0.104	-0.131
-557.471	-26.090	-0.226	-0.132
-556.456	213.513	-0.133	0.210
-555.442	100.902	0.037	-0.043
-554.427	6.137	0.192	0.142
-553.412	800.000	0.050	0.196
-552.398	36.155	0.188	0.165
-551.383	800.000	0.064	-0.220
-550.369	800.000	0.053	-0.167
-549.354	-146.138	0.313	0.027
-548.339	10.061	0.051	-0.038
-547.325	25.409	0.085	0.070
-546.310	274.874	0.191	0.336
-545.296	-195.576	-0.232	-0.002
-544.281	-138.537	-0.208	-0.023
-543.266	49.959	-0.267	0.250
-542.252	-77.091	-0.095	0.033
-541.237	-186.585	-0.102	0.001
-540.223	-30.281	0.150	-0.085
-539.208	-200.000	-0.040	-0.207
-538.193	800.000	-0.204	-0.570
-537.179	106.894	0.108	0.128
-536.164	-53.359	0.262	0.119
-535.150	-110.090	0.309	-0.064
-534.135	-200.000	0.002	-0.320
-533.121	27.652	0.132	-0.111
-532.106	740.710	-0.046	0.124
-531.091	31.572	0.258	-0.220
-530.077	800.000	0.026	-0.072
-529.062	-65.469	0.118	-0.047
-528.048	-137.188	-0.320	0.036
-527.033	-121.564	0.069	0.011
-526.018	-65.894	0.116	0.046
-525.004	594.852	0.021	-0.051
-523.989	432.295	0.097	-0.210
-522.975	800.000	0.069	-0.275
-521.960	138.367	-0.085	-0.111
-520.945	127.828	-0.204	0.257
-519.931	752.030	-0.099	-0.265
-518.916	358.003	-0.094	-0.187
-517.902	-200.000	-0.052	0.392
-516.887	48.567	0.052	0.048
-515.872	59.495	0.214	0.209
-514.858	-200.000	0.069	0.000
-513.843	-170.045	-0.160	0.006
-512.829	-200.000	-0.008	0.050
-511.814	-159.927	-0.415	-0.023
-510.799	18.387	0.080	0.063
-509.785	358.662	0.070	-0.139
-508.770	-57.274	0.062	0.027
-507.756	-9.124	0.242	-0.161
-506.741	-53.318	-0.276	0.126
-505.726	800.000	-0.028	-0.087
-504.712	-1.642	0.046	-0.032
-503.697	31.238	0.120	0.102
-502.683	211.075	0.090	-0.141
-501.668	-98.460	0.393	-0.100
-500.653	75.306	-0.092	-0.097
-499.639	-200.000	-0.031	-0.324
-498.624	-200.000	0.034	-0.175
-497.610	-94.852	-0.168	-0.045
-496.595	-65.872	0.315	-0.125
-495.581	-200.000	0.006	-0.422
-494.566	222.139	0.207	-0.330
-493.551	-67.487	-0.181	-0.070
-492.537	-76.069	0.236	-0.083
-491.522	-200.000	0.002	-0.358
-490.508	-3.939	-0.201	-0.139
-489.493	712.107	-0.086	0.226
-488.478	-83.139	-0.392	0.125
-487.464	-200.000	-0.020	-0.217
-486.449	-200.000	-0.065	-0.394
-485.435	-123.067	-0.083	-0.013
-484.420	25.325	0.037	-0.030
-483.405	-80.874	-0.272	0.090
-482.391	-191.964	-0.272	0.003
-481.376	46.747	0.178	-0.164
-480.362	204.108	-0.098	-0.151
-479.347	-159.268	-0.251	0.014
-478.332	155.335	0.140	0.191
-477.318	591.722	-0.069	0.170
-476.303	800.000	0.054	0.149
-475.289	-19.312	-0.120	0.074
-474.274	800.000	-0.040	-0.165
-473.259	-200.000	0.027	-0.299
-472.245	-88.971	0.141	0.041
-471.230	62.499	-0.171	-0.169
-470.216	-116.977	0.503	0.091
-469.201	-117.628	-0.109	0.019
-468.186	-33.009	-0.096	-0.053
-467.172	115.621	-0.258	-0.312
-466.157	533.868	0.042	0.098
-465.143	800.000	0.152	0.473
-464.128	243.274	0.186	0.309
-463.113	-79.454	-0.079	-0.026
-462.099	717.791	0.160	0.421
-461.084	197.268	0.070	0.105
-460.070	-200.000	0.004	-0.077
-459.055	131.676	-0.173	0.221
-458.040	-67.608	0.129	0.050
-457.026	700.841	0.100	0.262
-456.011	157.062	-0.049	0.067
-454.997	800.000	-0.007	0.026
-453.982	-71.666	-0.150	-0.056
-452.968	-136.476	-0.227	-0.026
-451.953	306.758	0.088	0.163
-450.938	144.576	0.172	0.227
-449.924	8.626	0.224	0.167
-448.909	-97.830	-0.244	0.063
-447.895	-200.000	0.052	-0.427
-446.880	100.342	0.297	0.341
-445.865	393.368	-0.047	0.097
-444.851	-200.000	0.000	0.051
-443.836	-124.852	-0.353	-0.054
-442.822	-75.019	-0.078	0.028
-441.807	-94.613	-0.280	-0.075
-440.792	41.261	0.282	0.253
-439.778	-117.937	-0.073	0.013
-438.763	256.274	-0.116	-0.197
-437.749	-200.000	-0.015	0.269
-436.734	-200.000	-0.017	-0.241
-435.719	78.007	-0.182	0.192
-434.705	-18.149	0.039	0.024
-433.690	-43.182	-0.350	-0.176
-432.676	106.544	0.141	0.165
-431.661	-56.106	-0.073	0.032
-430.646	-200.000	0.005	-0.108
-429.632	121.928	0.060	-0.074
-428.617	-200.000	0.008	0.246
-427.603	-200.000	0.018	0.134
-426.588	-80.217	0.279	-0.092
-425.573	-34.925	0.359	0.194
-424.559	293.635	-0.042	-0.076
-423.544	141.091	-0.191	0.249
-422.530	-133.309	-0.283	-0.035
-421.515	354.302	0.120	-0.236
-420.500	51.087	-0.375	0.352
-419.486	-200.000	-0.019	-0.243
-418.471	-24.207	0.183	-0.108
-417.457	-200.000	-0.005	-0.137
-416.442	209.482	0.207	0.320
-415.428	-95.987	0.274	-0.072
-414.413	386.971	0.080	0.163
-413.398	-54.726	-0.262	-0.117
-412.384	614.816	0.141	-0.351
-411.369	-103.623	-0.215	0.050
-410.355	-200.000	-0.023	0.311
-409.340	800.000	0.082	0.351
-408.325	800.000	-0.114	0.317
-407.311	-125.374	-0.325	0.049
-406.296	735.862	-0.051	-0.136
-405.282	800.000	-0.087	-0.302
-404.267	42.356	-0.104	0.093
-403.252	-55.752	-0.299	-0.132
-402.238	-84.324	-0.054	0.017
-401.223	-64.827	-0.080	-0.032
-400.209	156.498	0.087	0.118
-399.194	-161.320	0.294	0.015
-398.179	12.486	-0.120	-0.091
-397.165	-62.661	-0.044	0.018
-396.150	-86.818	-0.198	-0.060
-395.136	-46.551	-0.330	-0.160
-394.121	-4.081	-0.116	-0.080
-393.106	139.814	-0.221	-0.288
-392.092	83.461	-0.143	0.154
-391.077	-43.945	-0.011	-0.005
-390.063	487.255	0.130	0.292
-389.048	-200.000	-0.006	0.209
-388.033	-97.069	-0.077	0.020
-387.019	-147.834	0.291	0.024
-386.004	-76.208	-0.022	0.008
-384.990	512.338	-0.096	0.221
-383.975	-200.000	0.042	-0.261
-382.960	-14.569	0.396	0.252
-381.946	-200.000	-0.013	-0.232
-380.931	-200.000	0.015	-0.131
-379.917	524.326	0.081	-0.189
-378.902	800.000	0.032	-0.092
-377.888	-27.646	0.154	0.088
-376.873	104.954	0.082	0.095
-375.858	-32.846	-0.282	0.155
-374.844	-167.510	-0.140	-0.006
-373.829	-16.275	0.220	-0.138
-372.815	-146.552	-0.153	0.013
-371.800	-17.758	0.091	-0.057
-370.785	13.819	0.018	-0.014
-369.771	77.664	-0.044	0.046
-368.756	-130.937	-0.302	0.040
-367.742	-7.140	-0.229	-0.154
-366.727	45.511	0.100	0.091
-365.712	37.134	-0.089	0.078
-364.698	524.678	-0.083	0.194
-363.683	-29.533	-0.160	0.090
-362.669	-101.708	0.099	-0.024
-361.654	183.194	-0.212	-0.309
-360.639	73.779	-0.082	-0.085
-359.625	106.797	-0.091	0.107
-358.610	-50.371	-0.292	0.136
-357.596	-26.586	0.199	0.115
-356.581	-10.149	0.181	0.118
-355.566	-200.000	-0.039	-0.253
-354.552	-81.593	-0.116	0.038
-353.537	-113.697	-0.514	0.099
-352.523	-136.964	0.232	0.026
-351.508	-129.690	0.147	-0.020
-350.493	-119.068	-0.222	-0.038
-349.479	-126.253	0.309	0.046
-348.464	-93.613	-0.145	-0.040
-347.450	-165.519	-0.276	-0.012
-346.435	441.650	-0.092	-0.199
-345.420	103.352	0.025	-0.029
-344.406	-126.187	0.489	0.072
-343.391	-135.934	0.144	-0.017
-342.377	-38.638	-0.228	0.119
-341.362	-0.843	-0.171	-0.120
-340.348	289.234	-0.022	-0.039
-339.333	141.471	-0.250	0.327
-338.318	-119.957	0.174	-0.029
-337.304	-200.000	-0.017	-0.264
-336.289	-20.732	0.294	-0.178
-335.275	-44.178	0.093	-0.046
-334.260	296.115	0.018	0.032
-333.245	-60.606	-0.101	-0.042
-332.231	-134.619	-0.183	-0.022
-331.216	43.564	-0.081	0.073
-330.202	64.946	0.087	-0.087
-329.187	-61.202	-0.183	0.076
-328.172	189.687	-0.089	-0.132
-327.158	153.552	0.232	0.313
-326.143	-200.000	-0.036	0.294
-325.129	139.584	-0.241	0.312
-324.114	268.578	0.088	0.152
-323.099	800.000	0.234	0.640
-322.085	-133.110	0.334	-0.042
-321.070	134.626	-0.199	-0.255
-320.056	-164.484	0.087	-0.004
-319.041	-16.275	-0.163	0.102
-318.026	-88.705	-0.238	0.070
-317.012	-6.663	-0.215	-0.144
-315.997	-192.168	0.147	-0.001
-314.983	800.000	0.054	-0.207
-313.968	-200.000	-0.047	-0.233
-312.953	-52.823	0.271	0.123
-311.939	123.268	-0.044	-0.055
-310.924	13.647	-0.206	0.158
-309.910	-200.000	0.051	0.417
-308.895	-91.286	0.138	-0.039
-307.880	134.136	-0.052	0.066
-306.866	-200.000	-0.072	-0.363
-305.851	-78.469	-0.181	-0.061
-304.837	-200.000	-0.005	-0.087
-303.822	232.212	0.051	-0.082
-302.807	-200.000	-0.002	0.022
-301.793	134.460	0.168	-0.214
-300.778	-200.000	-0.013	0.232
-299.764	-104.934	0.194	0.044
-298.749	319.791	0.155	0.290
-297.735	58.883	0.141	0.136
-296.720	-200.000	0.021	-0.222
-295.705	-101.140	0.163	-0.039
-294.691	144.776	-0.179	-0.235
-293.676	460.674	0.113	-0.248
-292.662	24.304	0.323	0.263
-291.647	536.284	0.069	-0.161
-290.632	-200.000	0.007	0.135
-289.618	-146.797	0.499	0.042
-288.603	800.000	0.106	0.438
-287.589	38.384	0.085	-0.075
-286.574	-106.097	0.234	-0.052
-285.559	-12.523	0.067	-0.043
-284.545	-80.085	0.114	-0.038
-283.530	-125.370	-0.226	0.034
-282.516	-200.000	-0.001	0.016
-281.501	-135.362	0.138	0.016
-280.486	27.710	-0.058	0.048
-279.472	-169.436	0.306	-0.011
-278.457	800.000	-0.193	-0.569
-277.443	-125.771	-0.363	-0.054
-276.428	-152.432	-0.243	-0.017
-275.413	-200.000	-0.004	-0.018
-274.399	-142.284	-0.108	-0.011
-273.384	264.054	0.103	-0.177
-272.370	13.839	0.042	0.032
-271.355	-157.992	0.405	-0.024
-270.340	-200.000	-0.007	-0.274
-269.326	-46.531	-0.156	0.075
-268.311	128.526	-0.219	0.274
-267.297	207.604	0.094	0.144
-266.282	-200.000	0.028	0.145
-265.267	800.000	-0.057	-0.211
-264.253	-200.000	-0.056	-0.261
-263.238	-54.597	-0.421	0.187
-262.224	-2.901	0.246	-0.169
-261.209	170.629	0.100	-0.142
-260.195	711.772	0.097	-0.253
-259.180	47.153	0.120	-0.110
-258.165	34.042	-0.130	-0.112
-257.151	-104.724	0.361	0.082
-256.136	-145.871	-0.140	0.012
-255.122	152.977	-0.110	0.147
-254.107	-119.919	0.181	-0.031
-253.092	90.903	0.203	0.224
-252.078	-200.000	-0.005	0.267
-251.063	-200.000	0.032	0.502
-250.049	352.118	-0.069	0.134
-249.034	-200.000	0.027	-0.256
-248.019	168.573	0.108	-0.151
-247.005	115.066	-0.257	0.308
-245.990	-200.000	-0.004	0.129
-244.976	-88.332	-0.313	-0.092
-243.961	800.000	0.079	0.271
-242.946	23.434	-0.240	0.194
-241.932	-116.823	-0.015	0.003
-240.917	66.105	0.329	0.328
-239.903	-152.566	0.260	0.018
-238.888	264.096	-0.100	-0.171
-237.873	-120.772	0.033	-0.005
-236.859	437.091	0.167	0.357
-235.844	-200.000	0.010	-0.256
-234.830	-200.000	0.064	0.475
-233.815	306.405	0.063	0.116
-232.800	78.427	-0.155	0.163
-231.786	-67.542	0.370	-0.143
-230.771	-30.183	-0.153	-0.086
-229.757	-122.556	0.416	0.066
-228.742	-40.839	0.218	0.111
-227.727	91.543	0.217	0.240
-226.713	-200.000	-0.015	0.086
-225.698	-104.146	-0.095	-0.022
-224.684	149.000	-0.185	-0.245
-223.669	486.528	-0.131	-0.294
-222.655	-146.593	-0.279	-0.024
-221.640	558.715	0.052	-0.123
-220.625	384.722	0.054	-0.110
-219.611	-10.094	0.230	0.150
-218.596	71.053	-0.183	0.186
-217.582	-28.914	-0.048	0.027
-216.567	-200.000	0.061	0.296
-215.552	-134.987	0.342	-0.041
-214.538	-200.000	-0.049	0.233
-213.523	274.621	0.156	-0.272
-212.509	-86.060	-0.015	0.005
-211.494	-200.000	-0.032	0.290
-210.479	800.000	-0.101	-0.281
-209.465	-22.605	0.226	-0.134
-208.450	-200.000	-0.032	0.294
-207.436	-74.631	-0.428	0.151
-206.421	-45.341	0.343	0.167
-205.406	39.145	0.376	0.330
-204.392	-95.156	-0.376	-0.099
-203.377	-200.000	-0.036	0.308
-202.363	-127.253	0.218	-0.031
-201.348	800.000	0.126	-0.362
-200.333	-157.837	-0.229	0.013
-199.319	-61.268	-0.240	-0.099
-198.304	679.902	-0.119	-0.304
-197.290	-78.705	-0.211	-0.071
-196.275	800.000	0.052	0.210
-195.260	-143.530	-0.285	0.027
-194.246	-107.151	0.276	0.060
-193.231	800.000	-0.048	0.176
-192.217	79.923	0.187	0.197
-191.202	73.170	-0.082	-0.085
-190.187	139.880	0.104	0.135
-189.173	-157.978	0.316	0.018
-188.158	10.808	-0.262	0.196
-187.144	-200.000	-0.055	0.540
-186.129	-200.000	0.040	0.220
-185.114	439.199	-0.169	-0.362
-184.100	-200.000	-0.025	-0.296
-183.085	116.058	-0.169	0.203
-182.071	800.000	0.083	-0.331
-181.056	800.000	-0.058	-0.185
-180.042	319.458	-0.084	0.156
-179.027	-200.000	-0.064	0.282
-178.012	-23.650	0.173	0.102
-176.998	-200.000	-0.072	-0.388
-175.983	-27.480	-0.204	-0.116
-174.969	800.000	0.099	0.419
-173.954	180.517	-0.153	-0.221
-172.939	247.111	0.127	-0.211
-171.925	119.404	-0.107	-0.130
-170.910	800.000	-0.027	0.080
-169.896	28.481	-0.331	-0.274
-168.881	-200.000	0.107	-0.703
-167.866	-70.403	-0.194	-0.072
-166.852	-200.000	-0.013	0.117
-165.837	610.828	0.141	-0.346
-164.823	377.714	0.091	0.182
-163.808	196.785	-0.033	0.050
-162.793	-200.000	0.009	-0.128
-161.779	-200.000	0.009	-0.048
-160.764	25.120	0.055	-0.045
-159.750	155.523	-0.102	-0.137
-158.735	4.572	0.505	0.363
-157.720	131.211	-0.202	0.255
-156.706	800.000	-0.082	-0.290
-155.691	-124.174	-0.315	-0.048
-154.677	-75.958	0.321	-0.111
-153.662	-96.486	-0.169	-0.044
-152.647	151.484	-0.120	0.160
-151.633	-33.255	-0.487	0.264
-150.618	-200.000	-0.017	0.117
-149.604	-7.445	-0.092	-0.061
-148.589	179.277	0.098	0.141
-147.574	128.352	-0.083	0.104
-146.560	-200.000	0.003	0.154
-145.545	800.000	0.033	-0.131
-144.531	-27.478	-0.018	0.010
-143.516	800.000	-0.028	-0.082
-142.502	374.789	-0.016	-0.031
-141.487	557.507	-0.191	0.450
-140.472	500.968	0.175	0.394
-139.458	195.688	0.083	0.123
-138.443	70.482	-0.192	0.195
-137.429	-11.205	-0.176	0.114
-136.414	-200.000	-0.043	0.272
-135.399	800.000	-0.007	-0.024
-134.385	-127.716	-0.198	0.028
-133.370	-87.827	0.125	0.037
-132.356	-60.627	-0.156	0.065
-131.341	323.007	0.195	0.363
-130.326	-200.000	-0.028	0.203
-129.312	800.000	0.103	-0.397
-128.297	-200.000	-0.002	0.137
-127.283	71.497	0.080	-0.081
-126.268	71.587	-0.059	0.060
-125.253	-13.121	0.028	-0.018
-124.239	800.000	0.067	0.218
-123.224	135.439	0.030	0.039
-122.210	196.680	0.132	-0.197
-121.195	658.653	-0.115	0.290
-120.180	-30.184	0.154	0.086
-119.166	411.646	0.148	-0.306
-118.151	132.129	0.170	-0.214
-117.137	386.282	0.123	-0.248
-116.122	-68.241	-0.162	-0.062
-115.107	-89.778	-0.330	-0.094
-114.093	800.000	0.046	-0.182
-113.078	800.000	0.028	0.096
-112.064	800.000	0.071	0.288
-111.049	44.060	0.128	0.114
-110.034	-200.000	0.064	0.424
-109.020	800.000	0.017	-0.068
-108.005	-158.287	0.196	0.011
-106.991	156.679	-0.161	-0.218
-105.976	800.000	0.053	-0.195
-104.962	-27.970	-0.100	-0.056
-103.947	-200.000	0.028	0.205
-102.932	800.000	-0.061	0.206
-101.918	-200.000	0.074	0.444
-100.903	137.384	0.180	-0.230
-99.889	-200.000	0.012	-0.202
-98.874	-174.672	0.185	0.005
-97.859	800.000	0.118	0.383
-96.845	142.835	0.278	0.361
-95.830	800.000	-0.159	0.540
-94.816	141.663	0.089	0.115
-93.801	-91.261	0.301	0.084
-92.786	220.764	-0.083	-0.130
-91.772	47.306	0.050	-0.046
-90.757	-200.000	-0.006	0.133
-89.743	-200.000	-0.012	0.127
-88.728	-53.476	-0.102	0.046
-87.713	-25.463	0.128	-0.074
-86.699	-144.723	-0.356	0.032
-85.684	-200.000	0.014	0.133
-84.670	800.000	-0.044	-0.143
-83.655	800.000	-0.009	0.034
-82.640	-200.000	0.032	0.217
-81.626	-166.331	-0.123	0.005
-80.611	-200.000	-0.075	-0.326
-79.597	-200.000	0.029	0.418
-78.582	-105.796	0.138	0.030
-77.567	66.849	-0.072	-0.071
-76.553	-200.000	0.015	-0.090
-75.538	-200.000	0.009	0.073
-74.524	-120.112	-0.270	0.045
-73.509	248.141	-0.105	-0.173
-72.494	-25.922	0.180	-0.103
-71.480	-165.956	0.011	0.000
-70.465	28.777	0.195	0.162
-69.451	-118.569	-0.273	0.047
-68.436	346.988	0.212	-0.407
-67.422	300.679	-0.187	0.338
-66.407	-67.192	0.184	0.071
-65.392	23.177	-0.316	-0.253
-64.378	-45.504	0.043	0.021
-63.363	-94.777	-0.586	-0.155
-62.349	800.000	0.058	-0.188
-61.334	66.794	-1.145	-1.137
-60.319	170.858	0.647	0.905
-59.305	264.995	-0.582	-0.990
-58.290	468.356	0.760	1.665
-57.276	258.801	0.869	1.462
-56.261	-200.000	125.031	676.392
-55.246	436.244	1563.737	3320.688
-54.232	144.340	2717.285	3538.158
-53.217	98.144	2148.457	2412.837
-52.203	35.343	1584.811	1355.826
-51.188	26.869	1329.047	1086.470
-50.173	24.454	1291.463	1041.627
-49.159	53.674	1360.434	1273.601
-48.144	49.838	1371.623	1261.079
-47.130	27.061	1319.675	1079.779
-46.115	23.818	1301.181	1045.562
-45.100	23.595	1295.661	1039.778
-44.086	23.555	1293.392	1037.679
-43.071	23.542	1291.036	1035.676
-42.057	23.472	1289.007	1033.599
-41.042	23.521	1287.579	1032.698
-40.027	23.606	1286.063	1031.934
-39.013	23.497	1284.347	1029.885
-37.998	23.618	1282.287	1028.890
-36.984	23.771	1280.125	1028.002
-35.969	23.578	1278.876	1025.841
-34.954	23.620	1277.479	1024.926
-33.940	23.647	1276.206	1024.015
-32.925	23.727	1274.791	1023.300
-31.911	23.790	1273.162	1022.316
-30.896	23.776	1272.247	1021.458
-29.881	23.756	1271.033	1020.332
-28.867	23.794	1269.358	1019.163
-27.852	23.798	1267.740	1017.849
-26.838	23.751	1266.940	1016.894
-25.823	23.797	1265.587	1016.033
-24.809	23.726	1263.655	1014.037
-23.794	23.840	1262.718	1013.896
-22.779	23.691	1261.468	1012.003
-21.765	23.692	1260.158	1010.913
-20.750	23.773	1258.978	1010.391
-19.736	23.728	1257.528	1008.929
-18.721	23.661	1257.267	1008.300
-17.706	23.696	1255.316	1006.891
-16.692	23.602	1254.520	1005.683
-15.677	23.651	1252.913	1004.633
-14.663	23.639	1251.699	1003.549
-13.648	23.617	1250.839	1002.696
-12.633	23.666	1249.441	1001.814
-11.619	23.596	1249.316	1001.277
-10.604	23.641	1248.166	1000.570
-9.590	23.567	1247.308	999.429
-8.575	23.629	1246.592	999.163
-7.560	23.517	1245.813	997.867
-6.546	23.644	1244.857	997.774
-5.531	23.564	1243.934	996.547
-4.517	23.601	1243.201	996.126
-3.502	23.507	1243.059	995.446
-2.487	23.540	1241.771	994.561
-1.473	23.597	1236.821	990.874
-0.458	21.744	1222.290	968.961
0.556	17.199	1206.287	930.903
1.571	13.420	1213.311	915.379
2.586	12.596	1228.299	921.989
3.600	12.529	1216.393	912.598
4.615	9.457	1146.002	843.633
5.629	3.629	1076.259	763.463
6.644	0.833	1060.056	738.273
7.659	0.706	1057.924	736.103
8.673	0.806	1056.826	735.760
9.688	0.766	1055.370	734.486
10.702	0.919	1053.474	733.846
11.717	4.453	1056.957	753.374
12.731	11.274	1065.785	792.867
13.746	15.928	1072.538	820.547
14.761	17.204	1074.044	827.850
15.775	16.776	1071.083	823.416
16.790	15.703	1069.639	817.022
17.804	14.912	1068.315	812.098
18.819	14.693	1066.801	809.810
19.834	14.394	1066.266	807.884
20.848	14.169	1065.316	806.005
21.863	13.794	1064.443	803.455
22.877	13.680	1063.727	802.295
23.892	13.841	1062.450	802.035
24.907	13.743	1061.981	801.136
25.921	13.677	1061.634	800.486
26.936	13.766	1060.684	800.127
27.950	13.976	1059.239	799.978
28.965	13.877	1058.221	798.663
29.980	13.900	1056.925	797.727
30.994	13.931	1056.195	797.255
32.009	13.965	1055.007	796.451
33.023	13.877	1053.907	795.127
34.038	13.905	1053.244	794.689
35.053	13.734	1052.671	793.368
36.067	13.845	1051.778	793.154
37.082	13.918	1050.726	792.641
38.096	13.921	1050.079	792.096
39.111	13.925	1048.924	791.173
40.126	13.860	1047.936	790.050
41.140	13.710	1046.882	788.471
42.155	13.679	1046.146	787.701
43.169	13.656	1044.824	786.529
44.184	13.692	1043.703	785.783
45.199	13.685	1042.571	784.831
46.213	13.750	1041.649	784.372
47.228	13.830	1040.502	783.817
48.242	13.766	1039.615	782.779
49.257	13.777	1038.850	782.188
50.271	13.884	1037.577	781.661
51.286	13.924	1036.546	781.006
52.301	13.772	1035.767	779.632
53.315	13.807	1034.927	779.096
54.330	13.788	1033.941	778.197
55.344	13.834	1032.899	777.557
56.359	13.808	1032.007	776.695
57.374	13.766	1031.468	776.027
58.388	13.680	1030.847	775.090
59.403	13.621	1029.965	774.079
60.417	13.700	1028.935	773.607
61.432	13.745	1028.257	773.241
62.447	13.587	1027.627	771.962
63.461	13.643	1026.857	771.575
64.476	13.746	1025.707	771.122
65.490	13.583	1025.155	769.878
66.505	13.651	1024.848	769.895
67.520	13.684	1023.855	769.238
68.534	13.700	1022.791	768.443
69.549	13.645	1022.758	768.093
70.563	13.657	1021.447	767.100
71.578	13.563	1020.435	765.836
72.593	13.586	1020.007	765.553
73.607	13.529	1019.124	764.562
74.622	13.608	1018.937	764.715
75.636	13.584	1018.408	764.139
76.651	13.627	1017.016	763.229
77.666	13.600	1016.795	762.870
78.680	13.639	1015.976	762.367
79.695	13.630	1015.403	761.825
80.709	13.729	1014.714	761.697
81.724	13.709	1013.679	760.762
82.739	13.691	1013.015	760.114
83.753	13.802	1012.189	759.937
84.768	13.821	1011.531	759.462
85.782	13.868	1010.055	758.500
86.797	13.870	1009.380	757.936
87.812	13.814	1008.668	757.078
88.826	13.853	1007.415	756.250
89.841	13.960	1006.830	756.230
90.855	13.801	1006.121	754.905
91.870	13.834	1005.543	754.558
92.884	13.899	1004.566	754.050
93.899	13.777	1004.089	753.073
94.914	14.021	1002.613	753.007
95.928	13.937	1001.946	752.060
96.943	14.076	1000.990	751.904
97.957	13.866	1000.369	750.420
98.972	13.909	999.685	750.034
99.987	13.834	998.828	748.986
101.001	13.879	997.481	748.114
102.016	13.939	996.580	747.642
103.030	13.926	995.969	747.058
104.045	13.954	995.092	746.462
105.060	13.838	994.175	745.187
106.074	13.882	993.203	744.590
107.089	13.775	992.822	743.758
108.103	13.881	991.774	743.381
109.118	13.887	990.896	742.685
110.133	13.829	990.056	741.729
111.147	13.805	989.429	741.087
112.162	13.842	988.140	740.223
113.176	13.934	987.217	739.872
114.191	13.842	986.737	739.038
115.206	13.909	986.178	738.851
116.220	13.906	985.461	738.238
117.235	13.849	983.760	736.644
118.249	13.857	983.485	736.410
119.264	13.894	982.752	735.959
120.279	13.882	982.016	735.290
121.293	13.806	980.750	733.939
122.308	13.812	980.331	733.588
123.322	13.877	979.054	732.854
124.337	13.825	978.231	731.946
125.352	13.778	977.453	731.091
126.366	13.769	976.274	730.105
127.381	13.829	975.473	729.707
128.395	13.788	974.342	728.616
129.410	13.635	973.834	727.500
130.424	13.827	972.722	727.447
131.439	13.857	971.977	726.955
132.454	13.869	971.123	726.304
133.468	13.889	970.703	726.013
134.483	13.871	969.425	724.916
135.497	13.897	968.368	724.173
136.512	13.864	967.539	723.348
137.527	13.925	966.698	722.918
138.541	13.850	965.893	721.925
139.556	13.933	965.309	721.787
140.570	13.947	964.742	721.359
141.585	13.853	964.162	720.453
142.600	13.990	962.951	720.080
143.614	13.936	961.975	719.053
144.629	13.983	961.268	718.662
145.643	14.036	960.345	718.140
146.658	14.057	959.223	717.329
147.673	14.066	958.597	716.835
148.687	13.893	958.056	715.619
149.702	13.891	957.217	714.923
150.716	14.043	956.042	714.634
151.731	13.991	955.780	714.154
152.746	13.985	954.937	713.435
153.760	14.154	953.999	713.393
154.775	14.126	953.550	712.877
155.789	14.011	952.889	711.827
156.804	14.121	952.220	711.734
157.819	14.180	951.616	711.474
158.833	14.178	950.967	710.915
159.848	14.239	950.169	710.515
160.862	14.123	949.417	709.395
161.877	14.153	948.219	708.567
162.892	14.055	947.203	707.328
163.906	14.046	946.514	706.714
164.921	14.072	945.817	706.238
165.935	14.146	944.822	705.749
166.950	14.297	943.703	705.488
167.964	14.081	943.074	704.042
168.979	14.294	942.095	704.150
169.994	14.232	941.450	703.343
171.008	14.337	940.686	703.154
172.023	14.246	940.272	702.399
173.037	14.306	939.350	701.899
174.052	14.201	938.738	700.937
175.067	14.250	938.367	700.806
176.081	14.293	937.765	700.475
177.096	14.248	936.925	699.596
178.110	14.119	936.582	698.738
179.125	14.322	935.776	698.923
180.140	14.409	935.072	698.703
181.154	14.443	934.795	698.575
182.169	14.386	933.963	697.653
183.183	14.508	933.854	698.022
184.198	14.505	932.927	697.253
185.213	14.399	932.311	696.289
186.227	14.487	931.602	696.066
187.242	14.501	930.825	695.480
188.256	14.542	929.800	694.825
189.271	14.545	929.024	694.197
190.286	14.395	928.499	693.118
191.300	14.308	928.212	692.483
192.315	14.298	927.534	691.872
193.329	14.419	926.914	691.850
194.344	14.461	925.870	691.185
195.359	14.453	925.158	690.559
196.373	14.397	924.679	689.911
197.388	14.621	924.158	690.384
198.402	14.589	923.914	690.010
199.417	14.592	923.523	689.667
200.432	14.825	922.191	689.575
201.446	14.749	922.140	689.163
202.461	14.785	921.529	688.795
203.475	14.822	921.045	688.521
204.490	14.782	919.873	687.421
205.504	14.676	919.401	686.570
206.519	14.624	919.022	686.015
207.534	14.803	917.913	685.861
208.548	14.704	917.239	684.891
209.563	14.690	916.881	684.504
210.577	14.713	916.142	683.987
211.592	14.760	915.410	683.573
212.607	14.840	914.259	682.977
213.621	14.856	913.907	682.723
214.636	14.833	913.412	682.199
215.650	14.932	912.426	681.803
216.665	14.929	911.669	681.168
217.680	14.997	910.729	680.680
218.694	14.855	910.848	680.130
219.709	14.934	909.461	679.355
220.723	14.950	909.186	679.153
221.738	14.949	908.400	678.503
222.753	15.089	907.462	678.311
223.767	14.977	907.527	677.844
224.782	15.112	906.588	677.630
225.796	15.036	906.610	677.278
226.811	15.050	905.476	676.430
227.826	15.057	904.399	675.592
228.840	14.997	904.197	675.140
229.855	15.064	902.909	674.389
230.869	15.121	902.442	674.210
231.884	15.007	902.088	673.426
232.899	15.101	900.748	672.744
233.913	15.067	900.395	672.287
234.928	15.039	899.608	671.525
235.942	14.955	899.315	670.912
236.957	15.216	898.044	670.950
237.972	15.100	897.836	670.269
238.986	15.135	897.147	669.834
240.001	15.245	896.240	669.540
241.015	15.072	896.400	668.907
242.030	15.199	895.187	668.448
243.045	15.217	894.343	667.830
244.059	15.243	894.015	667.633
245.074	15.193	893.535	667.014
246.088	15.253	892.583	666.485
247.103	15.244	892.254	666.141
248.117	15.264	891.582	665.661
249.132	15.409	891.216	665.904
250.147	15.296	890.707	665.017
251.161	15.243	889.774	664.052
252.176	15.346	888.900	663.748
253.190	15.516	888.197	663.837
254.205	15.514	887.196	663.023
255.220	15.491	887.001	662.728
256.234	15.571	886.466	662.584
257.249	15.596	885.666	662.025
258.263	15.506	885.140	661.221
259.278	15.492	884.467	660.605
260.293	15.621	883.853	660.592
261.307	15.723	883.456	660.639
262.322	15.661	882.863	659.896
263.336	15.660	882.016	659.201
264.351	15.644	881.266	658.518
265.366	15.848	880.369	658.585
266.380	15.689	880.265	657.829
267.395	15.708	879.698	657.421
268.409	15.697	878.896	656.721
269.424	15.703	877.868	655.919
270.439	15.856	876.881	655.720
271.453	15.849	876.317	655.213
272.468	15.664	876.363	654.466
273.482	15.653	875.662	653.845
274.497	15.747	874.813	653.517
275.512	15.865	874.039	653.338
276.526	15.767	873.803	652.726
277.541	15.780	873.615	652.578
278.555	15.905	872.980	652.531
279.570	15.995	872.069	652.141
280.585	15.933	871.387	651.333
281.599	15.975	870.530	650.796
282.614	15.900	870.156	650.171
283.628	15.915	869.841	649.935
284.643	15.983	868.639	649.242
285.657	15.858	868.044	648.259
286.672	15.940	867.538	648.138
287.687	16.118	867.000	648.365
288.701	15.999	866.502	647.477
289.716	16.031	866.005	647.168
290.730	16.159	865.356	647.119
291.745	16.102	864.495	646.201
292.760	16.191	863.855	646.005
293.774	16.211	863.308	645.616
294.789	16.254	862.270	644.945
295.803	16.253	861.864	644.583
296.818	16.258	861.243	644.077
297.833	16.130	860.991	643.345
298.847	16.273	860.074	643.146
299.862	16.297	859.653	642.868
300.876	16.374	858.668	642.366
301.891	16.199	858.398	641.444
302.906	16.312	857.933	641.466
303.920	16.313	857.189	640.857
304.935	16.523	856.434	641.033
305.949	16.305	856.046	639.861
306.964	16.468	855.324	639.880
307.979	16.350	854.794	638.981
308.993	16.389	854.337	638.731
310.008	16.417	853.884	638.440
311.022	16.570	853.055	638.342
312.037	16.358	852.911	637.379
313.052	16.310	852.375	636.738
314.066	16.552	851.610	637.024
315.081	16.468	850.986	636.186
316.095	16.482	850.208	635.600
317.110	16.532	849.449	635.164
318.125	16.560	848.906	634.808
319.139	16.378	848.835	634.014
320.154	16.665	848.062	634.457
321.168	16.406	847.836	633.262
322.183	16.574	847.036	633.237
323.197	16.517	846.579	632.625
324.212	16.468	846.377	632.236
325.227	16.330	845.788	631.226
326.241	16.519	844.948	631.246
327.256	16.694	843.821	631.002
328.270	16.663	843.647	630.699
329.285	16.524	843.471	629.994
330.300	16.470	842.940	629.343
331.314	16.657	842.034	629.303
332.329	16.707	841.528	629.056
333.343	16.749	841.065	628.812
334.358	16.699	840.813	628.382
335.373	16.749	840.604	628.355
336.387	16.659	840.264	627.712
337.402	16.793	839.992	627.950
338.416	16.801	839.588	627.620
339.431	16.795	839.364	627.377
340.446	16.939	838.415	627.143
341.460	16.951	837.915	626.759
342.475	16.843	837.853	626.257
343.489	16.936	837.445	626.242
344.504	16.870	837.098	625.682
345.519	16.907	836.423	625.257
346.533	16.919	835.840	624.813
347.548	17.002	835.200	624.585
348.562	16.971	834.791	624.109
349.577	16.947	834.070	623.424
350.592	16.942	833.515	622.938
351.606	17.118	832.919	623.084
352.621	17.065	832.214	622.307
353.635	17.074	831.367	621.650
354.650	17.019	831.277	621.328
355.665	17.021	830.627	620.794
356.679	17.115	829.526	620.259
357.694	17.135	829.239	620.060
358.708	17.159	828.642	619.647
359.723	17.161	827.718	618.910
360.738	17.143	827.706	618.781
361.752	17.206	826.686	618.194
362.767	17.259	826.379	618.103
363.781	17.128	825.835	617.164
364.796	17.317	825.444	617.503
365.810	17.240	825.184	616.975
366.825	17.417	824.674	617.182
367.840	17.415	823.769	616.443
368.854	17.250	823.651	615.700
369.869	17.324	823.100	615.501
370.883	17.454	822.411	615.404
371.898	17.368	822.590	615.172
372.913	17.366	822.278	614.878
373.927	17.376	821.446	614.235
374.942	17.395	821.189	614.058
375.956	17.466	820.642	613.850
376.971	17.542	820.223	613.758
377.986	17.440	819.584	612.858
379.000	17.575	818.852	612.743
380.015	17.582	818.696	612.596
381.029	17.619	818.401	612.455
382.044	17.792	817.432	612.296
383.059	17.631	817.156	611.455
384.073	17.526	816.523	610.553
385.088	17.612	815.665	610.165
386.102	17.519	815.470	609.631
387.117	17.624	815.010	609.608
388.132	17.745	813.975	609.214
389.146	17.738	813.679	608.916
390.161	17.621	813.323	608.177
391.175	17.653	812.980	607.978
392.190	17.650	812.110	607.266
393.205	17.669	811.710	606.978
394.219	17.670	811.640	606.875
395.234	17.702	811.238	606.635
396.248	17.791	810.532	606.370
397.263	17.790	810.222	606.083
398.278	17.794	809.882	605.789
399.292	17.708	809.522	605.160
400.307	17.609	809.100	604.439
401.321	17.756	808.646	604.568
402.336	17.888	807.770	604.326
403.350	17.664	808.001	603.653
404.365	17.878	807.103	603.687
405.380	17.962	806.548	603.514
406.394	17.832	806.274	602.795
407.409	17.868	805.741	602.473
408.423	17.962	805.305	602.423
409.438	18.020	804.938	602.300
410.453	18.076	804.473	602.095
411.467	18.104	804.035	601.814
412.482	18.072	803.876	601.528
413.496	18.059	803.562	601.196
414.511	18.069	803.158	600.874
415.526	18.136	802.860	600.834
416.540	18.184	802.031	600.328
417.555	18.195	801.501	599.918
418.569	18.220	801.123	599.671
419.584	18.288	800.674	599.519
420.599	18.281	800.224	599.104
421.613	116.188	1297.873	1490.870
422.628	100.307	1370.338	1490.940
