DTS Sentinel unit serial number:	SN413079Multiplexer serial number:	ORYXHardware model number:	OX4-SRSoftware version number:	ORYX F/W v4.00 Oryx Data Collector v3.7.2.0data status	okinstallation	princeton_trtdifferential loss correction	single-endedforward channel	channel 1reverse channel	N/Adate	2019/09/15time	12:50:35forward acquisition time	60.00reverse acquisition time	0.00gamma	496.2192k internal	0.2296k external	0.2296temperature offset calibration	0.9984default loss term (dB/km)	0.3790temperature slope calibration	1.0000multiplexer offset coefficient	1.0000multiplexer slope coefficient	1.0000fibre end	0.00T internal ref (°C)	36.02T ext. ref 1 (°C)	5.01T ext. ref 2 (°C)	33.93length (m)	temperature (°C)	Stokes	anti-Stokes-747.200	84.995	0.148	-0.166
-746.185	194.074	0.092	0.143
-745.171	480.961	0.075	-0.175
-744.156	-81.606	-0.296	-0.099
-743.142	-53.936	-0.161	-0.075
-742.127	-200.000	0.089	0.459
-741.112	-141.916	-0.335	-0.034
-740.098	-94.591	-0.243	0.068
-739.083	179.980	-0.022	0.032
-738.069	-200.000	-0.012	-0.082
-737.054	-74.422	0.207	-0.076
-736.039	-200.000	0.000	-0.176
-735.025	-122.263	0.308	0.051
-734.010	-7.963	-0.215	-0.148
-732.996	-27.097	0.180	-0.107
-731.981	-176.028	0.355	0.010
-730.966	193.424	0.114	-0.176
-729.952	-160.999	0.304	0.016
-728.937	84.589	-0.101	-0.113
-727.923	-200.000	-0.005	-0.148
-726.908	-200.000	-0.000	0.008
-725.894	326.702	0.195	-0.382
-724.879	800.000	0.041	-0.148
-723.864	-76.226	0.054	0.020
-722.850	800.000	0.074	0.237
-721.835	482.247	-0.031	-0.071
-720.821	72.209	-0.151	-0.161
-719.806	-97.336	0.249	-0.066
-718.791	-162.409	0.431	0.022
-717.777	-85.303	-0.152	-0.048
-716.762	-84.243	0.255	0.083
-715.748	294.536	0.085	-0.158
-714.733	-83.525	-0.334	-0.109
-713.718	-200.000	-0.025	-0.112
-712.704	-159.519	-0.408	0.023
-711.689	-5.274	0.114	-0.080
-710.675	-171.690	-0.235	-0.008
-709.660	19.014	0.046	0.037
-708.645	-133.257	-0.210	-0.027
-707.631	23.405	0.139	-0.117
-706.616	-86.495	0.043	0.013
-705.602	-190.659	-0.291	-0.003
-704.587	344.264	-0.023	0.047
-703.572	-46.728	0.319	0.159
-702.558	-94.611	-0.340	0.094
-701.543	74.549	0.098	0.105
-700.529	800.000	0.097	0.335
-699.514	-71.358	0.052	0.020
-698.499	-180.017	0.068	0.001
-697.485	800.000	-0.023	0.073
-696.470	-21.664	0.195	-0.121
-695.456	3.363	0.096	-0.071
-694.441	-23.002	-0.089	-0.055
-693.426	96.063	-0.252	0.293
-692.412	-62.687	-0.110	-0.047
-691.397	165.953	0.150	-0.216
-690.383	118.610	-0.086	0.108
-689.368	-171.118	-0.553	-0.019
-688.354	-92.958	-0.143	0.041
-687.339	-123.631	0.035	-0.006
-686.324	618.416	-0.176	0.450
-685.310	24.038	-0.043	0.036
-684.295	-0.151	-0.211	-0.153
-683.281	83.254	0.082	0.092
-682.266	800.000	0.075	-0.292
-681.251	105.403	-0.047	0.057
-680.237	378.694	-0.051	-0.106
-679.222	-52.222	-0.217	0.102
-678.208	-33.578	-0.058	-0.033
-677.193	615.848	-0.070	0.179
-676.178	-22.251	-0.191	-0.118
-675.164	-24.291	-0.323	0.196
-674.149	-200.000	-0.009	0.238
-673.135	129.432	-0.141	-0.183
-672.120	453.677	-0.134	0.302
-671.105	239.670	-0.167	-0.284
-670.091	-125.098	0.237	-0.037
-669.076	173.773	-0.072	-0.106
-668.062	-84.536	0.285	0.091
-667.047	-120.220	0.369	0.064
-666.032	-200.000	-0.021	0.137
-665.018	213.473	0.096	0.154
-664.003	-200.000	-0.019	0.143
-662.989	-47.888	-0.263	-0.130
-661.974	63.299	-0.220	-0.225
-660.959	12.283	-0.171	-0.134
-659.945	800.000	-0.092	-0.270
-658.930	83.990	-0.215	-0.239
-657.916	-200.000	-0.031	0.197
-656.901	-91.767	-0.284	-0.082
-655.886	-93.229	0.373	0.105
-654.872	800.000	0.028	-0.118
-653.857	184.911	-0.176	-0.266
-652.843	-69.503	-0.111	-0.043
-651.828	130.451	-0.121	-0.157
-650.814	182.077	0.095	0.142
-649.799	800.000	0.017	-0.057
-648.784	9.340	0.189	0.146
-647.770	62.445	-0.154	-0.156
-646.755	113.929	-0.216	-0.268
-645.741	-87.139	0.145	-0.045
-644.726	-79.228	0.074	-0.026
-643.711	-200.000	-0.009	-0.089
-642.697	-33.930	0.158	-0.089
-641.682	48.694	0.159	-0.152
-640.668	-176.346	-0.138	0.004
-639.653	-103.270	-0.016	0.004
-638.638	154.223	-0.244	0.341
-637.624	181.427	0.054	0.080
-636.609	-200.000	0.016	0.207
-635.595	-62.927	-0.274	0.115
-634.580	-98.022	0.067	0.017
-633.565	-115.589	0.333	0.064
-632.551	-200.000	-0.048	-0.336
-631.536	10.587	-0.225	-0.174
-630.522	19.819	0.270	0.221
-629.507	-75.817	-0.301	-0.109
-628.492	364.471	0.151	-0.309
-627.478	126.789	-0.185	-0.239
-626.463	33.159	0.230	-0.203
-625.449	-57.818	0.212	-0.094
-624.434	730.286	-0.097	-0.264
-623.419	-78.874	-0.296	-0.102
-622.405	-0.631	0.295	0.213
-621.390	-200.000	-0.028	0.295
-620.376	-21.728	-0.043	-0.027
-619.361	-151.075	0.051	-0.004
-618.346	137.790	0.166	0.221
-617.332	-56.991	-0.105	-0.047
-616.317	-28.548	-0.181	0.106
-615.303	73.527	-0.152	0.162
-614.288	248.426	-0.074	-0.127
-613.273	-182.538	0.326	0.006
-612.259	131.726	0.213	-0.278
-611.244	-200.000	0.015	0.093
-610.230	-91.687	0.085	-0.025
-609.215	54.902	-0.229	0.224
-608.201	-163.914	0.293	-0.014
-607.186	-52.161	-0.115	0.054
-606.171	800.000	0.062	-0.251
-605.157	-91.073	0.166	-0.049
-604.142	114.639	-0.101	-0.125
-603.128	-54.108	-0.252	-0.116
-602.113	-200.000	-0.004	0.229
-601.098	-200.000	0.014	-0.156
-600.084	140.429	-0.206	0.276
-599.069	70.545	0.105	0.110
-598.055	-40.234	0.397	0.210
-597.040	-117.988	0.120	-0.022
-596.025	-200.000	0.046	-0.459
-595.011	-200.000	0.001	0.139
-593.996	91.987	-0.051	-0.058
-592.982	73.069	-0.133	-0.141
-591.967	-8.635	0.231	0.157
-590.952	-200.000	-0.005	0.048
-589.938	96.813	0.179	-0.208
-588.923	-135.832	-0.224	-0.027
-587.909	109.051	-0.163	0.198
-586.894	5.894	0.099	0.074
-585.879	-56.165	-0.452	0.204
-584.865	-1.958	-0.320	-0.228
-583.850	215.521	-0.037	0.060
-582.836	64.505	-0.281	0.288
-581.821	194.158	0.138	-0.212
-580.806	182.455	0.170	-0.254
-579.792	100.743	0.135	-0.160
-578.777	-127.197	0.119	-0.018
-577.763	95.241	-0.128	-0.148
-576.748	-97.717	0.226	-0.059
-575.733	3.842	-0.117	0.087
-574.719	-19.952	0.133	-0.083
-573.704	-149.625	-0.131	-0.010
-572.690	-140.940	0.150	-0.016
-571.675	38.767	-0.109	0.099
-570.661	61.268	-0.075	-0.076
-569.646	-200.000	-0.006	-0.123
-568.631	-161.964	-0.206	-0.011
-567.617	108.616	0.351	-0.425
-566.602	-25.155	-0.181	-0.109
-565.588	357.740	-0.113	0.229
-564.573	-114.586	0.170	-0.033
-563.558	492.790	0.052	0.121
-562.544	-163.469	0.111	0.005
-561.529	-19.305	-0.149	-0.094
-560.515	193.299	0.143	0.219
-559.500	78.001	0.040	0.043
-558.485	800.000	-0.026	-0.082
-557.471	800.000	-0.086	-0.261
-556.456	800.000	0.055	0.156
-555.442	-200.000	0.053	-0.266
-554.427	263.082	-0.057	0.101
-553.412	-159.285	-0.383	0.022
-552.398	-115.820	0.489	-0.093
-551.383	-109.760	-0.015	-0.003
-550.369	506.736	-0.135	0.318
-549.354	116.040	0.222	-0.276
-548.339	-100.034	-0.130	0.033
-547.325	-200.000	-0.059	0.470
-546.310	800.000	-0.110	0.372
-545.296	-200.000	-0.034	0.181
-544.281	-135.097	-0.117	0.014
-543.266	132.569	-0.157	-0.205
-542.252	245.761	-0.032	0.055
-541.237	3.673	-0.039	0.029
-540.223	-150.042	0.150	0.012
-539.208	800.000	0.107	-0.315
-538.193	102.359	-0.115	-0.136
-537.179	-200.000	0.003	-0.014
-536.164	37.171	-0.168	0.151
-535.150	-200.000	-0.000	-0.091
-534.135	287.541	-0.063	0.115
-533.121	-200.000	0.238	0.000
-532.106	-200.000	0.043	-0.207
-531.091	-64.714	-0.174	-0.071
-530.077	246.849	0.045	-0.076
-529.062	329.772	-0.065	0.127
-528.048	693.614	-0.050	-0.132
-527.033	-126.117	-0.245	-0.037
-526.018	688.803	-0.126	-0.334
-525.004	-200.000	0.009	-0.150
-523.989	-119.558	0.083	0.015
-522.975	-68.513	-0.346	-0.136
-521.960	-142.692	0.278	-0.027
-520.945	210.691	-0.026	-0.041
-519.931	201.047	0.063	-0.099
-518.916	-5.639	0.102	0.070
-517.902	28.821	-0.221	-0.190
-516.887	-52.213	0.114	-0.054
-515.872	-144.112	0.240	-0.023
-514.858	-74.347	-0.463	0.169
-513.843	800.000	0.035	0.132
-512.829	-43.378	-0.367	-0.188
-511.814	800.000	-0.039	0.143
-510.799	18.160	-0.098	0.079
-509.785	-0.059	0.145	-0.105
-508.770	-22.814	-0.136	-0.083
-507.756	-102.470	-0.382	-0.093
-506.741	-95.238	-0.166	-0.045
-505.726	-36.423	-0.172	0.094
-504.712	93.957	-0.175	0.201
-503.697	-102.942	0.262	0.063
-502.683	152.489	0.066	0.092
-501.668	-108.381	0.203	0.044
-500.653	-27.032	0.021	0.012
-499.639	-90.784	-0.041	-0.012
-498.624	800.000	0.083	0.357
-497.610	800.000	-0.111	0.319
-496.595	-32.688	0.091	0.051
-495.581	-19.473	0.123	0.077
-494.566	-200.000	-0.015	-0.186
-493.551	24.458	0.036	0.030
-492.537	97.275	-0.197	0.229
-491.522	800.000	-0.038	-0.129
-490.508	800.000	0.092	0.352
-489.493	-9.919	0.163	0.110
-488.478	800.000	-0.041	0.135
-487.464	-115.441	-0.071	-0.014
-486.449	-200.000	-0.019	0.093
-485.435	166.417	0.088	0.127
-484.420	-54.403	0.094	0.043
-483.405	-200.000	-0.052	-0.294
-482.391	-42.254	0.309	-0.160
-481.376	132.660	-0.064	-0.083
-480.362	-69.326	0.246	-0.096
-479.347	800.000	0.070	0.232
-478.332	-122.527	-0.104	0.017
-477.318	-79.365	0.473	-0.162
-476.303	103.906	-0.077	-0.091
-475.289	23.584	-0.187	0.156
-474.274	-7.600	-0.105	0.072
-473.259	-36.220	-0.258	-0.141
-472.245	12.476	0.088	0.068
-471.230	-200.000	0.017	-0.175
-470.216	-77.307	-0.130	-0.046
-469.201	800.000	0.060	-0.242
-468.186	288.612	0.115	0.211
-467.172	-200.000	-0.010	-0.098
-466.157	800.000	0.053	-0.154
-465.143	-23.480	0.123	0.075
-464.128	46.905	-0.206	-0.194
-463.113	-200.000	-0.042	0.372
-462.099	800.000	0.122	-0.345
-461.084	800.000	-0.054	-0.181
-460.070	-200.000	-0.044	-0.300
-459.055	-78.749	0.253	0.087
-458.040	-29.620	0.209	0.121
-457.026	-89.237	0.188	-0.056
-456.011	195.313	0.131	0.202
-454.997	-200.000	0.006	0.245
-453.982	-89.779	-0.237	0.070
-452.968	-200.000	0.043	-0.429
-451.953	65.474	0.173	0.177
-450.938	-200.000	-0.032	-0.199
-449.924	-200.000	-0.019	0.191
-448.909	52.018	0.302	0.291
-447.895	85.700	0.109	0.121
-446.880	-200.000	0.016	-0.187
-445.865	800.000	0.073	0.294
-444.851	98.992	0.189	0.221
-443.836	-200.000	-0.032	0.327
-442.822	464.768	0.118	0.266
-441.807	669.586	0.058	0.153
-440.792	-134.637	-0.357	-0.044
-439.778	-200.000	-0.009	0.093
-438.763	-39.309	-0.120	-0.064
-437.749	258.525	0.073	0.126
-436.734	141.298	-0.162	0.216
-435.719	-149.763	0.426	-0.034
-434.705	160.968	-0.082	-0.116
-433.690	-60.845	-0.037	-0.016
-432.676	-200.000	-0.000	0.340
-431.661	18.529	-0.126	0.102
-430.646	800.000	0.063	-0.210
-429.632	-75.389	-0.293	-0.105
-428.617	800.000	0.095	0.380
-427.603	-200.000	0.002	-0.169
-426.588	35.402	0.233	0.207
-425.573	-46.860	-0.025	0.013
-424.559	-200.000	0.027	0.268
-423.544	-105.348	0.321	0.074
-422.530	-13.235	0.151	-0.099
-421.515	-31.534	-0.245	0.139
-420.500	800.000	0.046	0.196
-419.486	562.618	0.065	0.159
-418.471	-132.740	-0.197	0.025
-417.457	47.626	0.141	0.133
-416.442	800.000	0.094	0.291
-415.428	81.389	-0.286	-0.312
-414.413	-35.921	-0.294	0.161
-413.398	-72.245	0.332	0.124
-412.384	-74.409	0.182	-0.066
-411.369	-89.744	-0.340	-0.100
-410.355	800.000	-0.013	-0.043
-409.340	-21.881	0.120	0.073
-408.325	-200.000	0.031	0.154
-407.311	520.795	-0.023	0.055
-406.296	201.955	0.106	-0.164
-405.282	-23.559	-0.235	-0.142
-404.267	-41.648	0.019	0.010
-403.252	-116.448	0.162	0.030
-402.238	-93.575	-0.235	0.066
-401.223	-121.923	-0.475	0.079
-400.209	-70.972	-0.168	0.064
-399.194	-119.428	0.091	-0.016
-398.179	-139.265	0.145	0.016
-397.165	-200.000	0.019	0.167
-396.150	48.959	0.180	0.170
-395.136	-134.570	0.381	0.047
-394.121	-200.000	0.008	0.226
-393.106	271.326	0.057	0.101
-392.092	-200.000	0.003	-0.017
-391.077	112.481	0.165	0.201
-390.063	228.374	-0.050	0.083
-389.048	267.749	-0.107	-0.189
-388.033	132.560	-0.170	0.221
-387.019	800.000	0.072	-0.225
-386.004	227.440	0.063	-0.104
-384.990	-200.000	0.012	-0.103
-383.975	-100.805	0.125	-0.031
-382.960	-200.000	-0.023	0.226
-381.946	-200.000	0.037	-0.208
-380.931	-200.000	0.001	-0.075
-379.917	93.138	-0.194	0.221
-378.902	233.526	0.083	-0.138
-377.888	-68.419	-0.247	-0.097
-376.873	-200.000	-0.016	0.131
-375.858	-106.746	-0.430	-0.096
-374.844	-43.269	0.188	-0.096
-373.829	63.263	0.110	-0.111
-372.815	-200.000	0.012	-0.258
-371.800	-95.144	0.126	0.034
-370.785	-103.744	-0.352	-0.083
-369.771	26.706	0.027	-0.023
-368.756	69.773	-0.232	0.241
-367.742	85.673	-0.336	0.372
-366.727	-200.000	-0.014	-0.115
-365.712	130.854	-0.108	-0.140
-364.698	-78.968	-0.182	-0.062
-363.683	99.830	0.203	-0.237
-362.669	287.449	0.101	0.184
-361.654	50.395	-0.342	-0.325
-360.639	-200.000	-0.012	-0.192
-359.625	141.340	0.211	0.281
-358.610	800.000	0.067	0.196
-357.596	-40.911	-0.276	-0.144
-356.581	-27.361	0.199	0.117
-355.566	-156.330	0.165	0.010
-354.552	-74.290	-0.135	-0.049
-353.537	-200.000	0.020	-0.232
-352.523	800.000	0.047	-0.171
-351.508	-200.000	-0.007	0.287
-350.493	800.000	0.034	-0.101
-349.479	800.000	-0.038	0.107
-348.464	-143.202	0.011	-0.001
-347.450	-63.299	-0.043	0.018
-346.435	800.000	0.029	-0.109
-345.420	-102.326	0.276	0.067
-344.406	-70.735	-0.164	-0.062
-343.391	-200.000	-0.083	-0.376
-342.377	-200.000	-0.004	0.169
-341.362	258.227	0.042	0.072
-340.348	-200.000	-0.044	-0.225
-339.333	58.943	0.177	0.175
-338.318	13.372	-0.152	-0.118
-337.304	-200.000	0.046	-0.206
-336.289	161.917	0.265	-0.374
-335.275	-175.756	0.291	0.008
-334.260	264.415	0.097	-0.170
-333.245	130.171	-0.137	-0.176
-332.231	29.810	0.057	0.049
-331.216	100.228	-0.034	0.040
-330.202	-200.000	-0.001	0.303
-329.187	-68.758	0.336	0.131
-328.172	108.397	-0.058	-0.070
-327.158	800.000	0.051	0.161
-326.143	-200.000	-0.031	0.288
-325.129	-10.384	-0.314	0.209
-324.114	-72.742	0.158	-0.058
-323.099	-104.492	0.335	-0.078
-322.085	301.461	0.217	-0.404
-321.070	-0.780	0.059	-0.042
-320.056	-200.000	0.062	0.307
-319.041	721.890	0.130	-0.349
-318.026	-8.402	-0.281	0.190
-317.012	800.000	-0.087	0.363
-315.997	-47.940	0.122	-0.059
-314.983	-108.393	0.167	0.036
-313.968	305.331	-0.088	-0.163
-312.953	800.000	0.059	-0.169
-311.939	23.725	-0.090	-0.075
-310.924	-35.380	-0.174	0.095
-309.910	-78.508	-0.168	-0.058
-308.895	315.864	0.138	0.262
-307.880	-200.000	0.028	0.126
-306.866	-200.000	-0.012	-0.199
-305.851	17.161	0.232	0.185
-304.837	-130.793	0.044	0.006
-303.822	-111.660	-0.293	0.060
-302.807	-93.142	-0.176	-0.049
-301.793	-77.483	0.380	-0.133
-300.778	800.000	-0.016	-0.058
-299.764	-154.191	-0.213	0.014
-298.749	800.000	0.052	-0.183
-297.735	3.333	-0.213	0.156
-296.720	-200.000	0.029	-0.310
-295.705	-200.000	-0.037	0.360
-294.691	-124.829	-0.188	0.029
-293.676	-200.000	-0.048	-0.259
-292.662	55.716	-0.278	0.270
-291.647	371.788	-0.129	0.263
-290.632	-59.027	-0.188	-0.081
-289.618	-166.909	-0.279	-0.011
-288.603	-0.312	-0.095	-0.068
-287.589	164.234	-0.017	0.023
-286.574	235.875	0.187	-0.310
-285.559	379.233	0.098	-0.201
-284.545	-103.309	-0.253	0.060
-283.530	7.104	0.097	-0.073
-282.516	800.000	-0.081	-0.274
-281.501	39.980	0.021	0.019
-280.486	800.000	0.020	0.082
-279.472	800.000	-0.073	0.240
-278.457	581.434	-0.091	-0.223
-277.443	-15.722	-0.099	0.063
-276.428	-38.646	0.193	-0.102
-275.413	800.000	-0.082	-0.323
-274.399	-155.552	0.276	-0.018
-273.384	178.346	0.237	-0.347
-272.370	407.220	0.047	-0.100
-271.355	-65.816	0.195	0.078
-270.340	-129.134	-0.205	0.029
-269.326	-60.275	0.403	-0.172
-268.311	-39.349	-0.190	0.100
-267.297	-200.000	-0.021	-0.227
-266.282	58.845	0.104	-0.102
-265.267	-61.553	0.158	-0.066
-264.253	-200.000	0.018	0.143
-263.238	96.621	-0.203	-0.234
-262.224	800.000	0.038	0.132
-261.209	-45.515	0.185	0.092
-260.195	54.108	0.051	0.049
-259.180	699.177	0.065	-0.172
-258.165	-73.311	0.200	-0.074
-257.151	640.722	-0.109	0.277
-256.136	324.804	0.108	0.206
-255.122	506.328	-0.120	0.278
-254.107	-200.000	0.018	-0.086
-253.092	-153.550	0.089	-0.006
-252.078	-82.341	0.231	0.075
-251.063	272.943	0.124	-0.220
-250.049	800.000	0.042	0.151
-249.034	-200.000	-0.002	-0.131
-248.019	69.327	-0.140	-0.144
-247.005	1.842	0.124	-0.090
-245.990	-62.682	0.048	-0.020
-244.976	-47.144	0.139	0.068
-243.961	76.588	0.179	-0.190
-242.946	-82.473	0.229	-0.074
-241.932	-29.886	0.376	-0.215
-240.917	216.699	-0.046	-0.074
-239.903	542.318	-0.065	-0.155
-238.888	-34.358	0.100	-0.055
-237.873	99.865	-0.201	-0.233
-236.859	-200.000	-0.005	-0.052
-235.844	-9.407	0.037	0.025
-234.830	3.690	-0.182	-0.133
-233.815	-200.000	-0.089	-0.442
-232.800	-45.495	-0.199	0.099
-231.786	-129.008	-0.307	0.043
-230.771	-200.000	0.011	0.186
-229.757	3.883	0.111	0.081
-228.742	-75.830	0.250	-0.089
-227.727	800.000	-0.025	-0.104
-226.713	227.976	0.016	-0.025
-225.698	366.658	-0.091	0.184
-224.684	-200.000	-0.023	0.413
-223.669	-200.000	0.026	0.135
-222.655	-200.000	-0.023	0.389
-221.640	-101.350	0.113	-0.028
-220.625	-200.000	0.029	0.161
-219.611	160.476	-0.100	0.140
-218.596	-159.854	0.053	0.003
-217.582	800.000	-0.046	0.193
-216.567	-200.000	0.074	-0.329
-215.552	-27.942	-0.257	0.149
-214.538	293.546	0.145	-0.266
-213.523	-0.735	-0.222	-0.158
-212.509	68.616	-0.089	-0.092
-211.494	396.263	0.156	-0.326
-210.479	492.139	-0.006	-0.013
-209.465	-162.213	0.237	0.012
-208.450	-75.203	0.121	-0.043
-207.436	-21.216	0.188	-0.115
-206.421	-128.964	0.240	0.034
-205.406	-200.000	-0.033	0.333
-204.392	-200.000	-0.009	-0.102
-203.377	482.598	0.070	-0.158
-202.363	-200.000	0.032	-0.156
-201.348	527.479	-0.056	-0.132
-200.333	189.654	-0.133	0.200
-199.319	386.905	-0.050	0.102
-198.304	-200.000	-0.029	0.273
-197.290	23.962	0.174	-0.143
-196.275	-200.000	-0.026	-0.212
-195.260	-39.400	-0.253	-0.133
-194.246	-200.000	0.020	0.212
-193.231	800.000	0.057	0.248
-192.217	-130.675	-0.039	0.005
-191.202	-97.522	0.246	0.064
-190.187	800.000	-0.056	0.239
-189.173	-200.000	0.016	0.246
-188.158	112.403	-0.115	0.139
-187.144	67.837	-0.304	-0.311
-186.129	28.117	0.197	0.166
-185.114	-200.000	-0.008	-0.233
-184.100	38.388	-0.187	0.167
-183.085	92.683	-0.011	-0.012
-182.071	75.868	-0.053	0.056
-181.056	-63.994	-0.117	0.048
-180.042	-163.874	-0.357	-0.017
-179.027	1.955	-0.059	0.043
-178.012	-38.783	-0.076	0.040
-176.998	11.333	0.166	0.127
-175.983	-51.050	-0.116	-0.054
-174.969	188.855	0.123	-0.184
-173.954	-174.534	0.102	0.003
-172.939	56.709	-0.183	-0.178
-171.925	-143.501	0.040	0.004
-170.910	147.952	0.056	-0.075
-169.896	-68.302	0.107	-0.041
-168.881	-134.450	0.102	0.012
-167.866	77.389	0.068	-0.073
-166.852	-171.201	-0.255	0.009
-165.837	-83.653	-0.152	0.048
-164.823	-200.000	-0.042	0.242
-163.808	143.301	-0.147	0.195
-162.793	8.261	0.127	0.095
-161.779	-29.228	-0.137	-0.078
-160.764	-200.000	-0.031	0.143
-159.750	-104.292	-0.161	-0.037
-158.735	-59.328	-0.149	0.064
-157.720	-74.594	-0.039	-0.014
-156.706	28.144	0.191	0.161
-155.691	-2.549	-0.090	0.063
-154.677	-117.543	-0.105	0.019
-153.662	371.591	0.178	-0.360
-152.647	180.918	-0.094	-0.138
-151.633	81.885	0.150	0.162
-150.618	70.840	0.207	-0.214
-149.604	-52.073	-0.166	-0.077
-148.589	135.373	-0.092	-0.119
-147.574	-128.308	0.347	0.049
-146.560	-179.493	-0.156	0.003
-145.545	-159.395	-0.007	0.000
-144.531	72.652	0.144	-0.150
-143.516	284.184	0.199	-0.357
-142.502	-105.484	0.359	0.081
-141.487	-200.000	-0.009	0.319
-140.472	174.221	0.190	0.275
-139.458	-71.579	-0.232	0.087
-138.443	-200.000	-0.028	0.203
-137.429	229.531	0.057	0.092
-136.414	-43.075	0.292	0.148
-135.399	51.610	0.063	0.060
-134.385	158.559	-0.231	0.320
-133.370	800.000	0.131	0.374
-132.356	-200.000	-0.023	0.268
-131.341	49.664	0.091	0.085
-130.326	728.052	0.162	-0.430
-129.312	54.559	0.208	-0.200
-128.297	-142.335	0.122	0.012
-127.283	-160.074	-0.414	-0.022
-126.268	-91.597	-0.239	0.068
-125.253	-118.249	0.130	0.023
-124.239	58.140	0.163	0.159
-123.224	-200.000	-0.002	0.144
-122.210	4.089	-0.071	0.052
-121.195	350.483	-0.034	-0.067
-120.180	-57.179	0.045	-0.020
-119.166	-43.138	0.284	0.143
-118.151	-188.284	-0.352	0.004
-117.137	-22.839	-0.439	0.264
-116.122	95.822	0.199	0.226
-115.107	-136.488	0.243	0.028
-114.093	63.577	-0.053	-0.053
-113.078	-16.269	-0.048	0.031
-112.064	-109.168	0.309	-0.065
-111.049	800.000	0.064	0.186
-110.034	-94.984	0.120	-0.032
-109.020	25.027	-0.094	-0.078
-108.005	-50.111	0.316	0.149
-106.991	-27.377	-0.130	0.075
-105.976	-200.000	-0.007	-0.068
-104.962	366.491	0.094	-0.189
-103.947	-200.000	0.053	0.368
-102.932	20.442	0.075	0.060
-101.918	-152.489	0.036	-0.003
-100.903	208.454	0.195	0.304
-99.889	-34.734	-0.351	0.191
-98.874	-200.000	0.050	0.268
-97.859	-108.281	0.409	0.088
-96.845	612.008	-0.090	0.223
-95.830	800.000	0.123	0.354
-94.816	-67.274	0.139	-0.055
-93.801	44.120	-0.230	0.210
-92.786	-200.000	-0.005	-0.049
-91.772	-70.335	0.059	0.022
-90.757	-70.596	0.461	-0.174
-89.743	-25.497	0.219	0.129
-88.728	-200.000	0.004	0.106
-87.713	-84.001	-0.242	0.077
-86.699	-98.076	0.193	-0.050
-85.684	7.290	-0.242	0.180
-84.670	-87.617	0.142	0.043
-83.655	-200.000	-0.049	-0.301
-82.640	595.515	-0.060	0.147
-81.626	-200.000	0.017	0.139
-80.611	-4.670	0.167	0.114
-79.597	800.000	-0.045	0.191
-78.582	800.000	-0.125	-0.382
-77.567	-5.121	0.108	0.074
-76.553	-200.000	-0.001	-0.438
-75.538	-24.405	0.276	-0.164
-74.524	291.208	-0.125	0.227
-73.509	-200.000	0.004	-0.070
-72.494	-176.647	0.014	-0.000
-71.480	673.069	-0.058	-0.149
-70.465	-98.759	-0.245	-0.062
-69.451	55.117	-0.169	-0.163
-68.436	-20.772	-0.103	-0.063
-67.422	800.000	0.040	0.174
-66.407	-200.000	0.004	-0.049
-65.392	-24.781	0.145	0.086
-64.378	750.010	-0.044	0.117
-63.363	89.990	0.070	0.078
-62.349	23.336	0.265	0.217
-61.334	37.603	-0.798	-0.704
-60.319	17.033	0.424	0.334
-59.305	-200.000	-0.179	-0.863
-58.290	60.120	0.488	0.479
-57.276	800.000	0.472	1.509
-56.261	-200.000	89.404	504.475
-55.246	514.210	1403.156	3255.770
-54.232	183.017	2609.302	3831.196
-53.217	116.960	2213.009	2702.595
-52.203	46.847	1655.812	1530.220
-51.188	39.220	1386.484	1233.664
-50.173	36.010	1343.164	1175.521
-49.159	55.486	1388.165	1336.085
-48.144	60.110	1406.294	1382.140
-47.130	39.962	1363.695	1217.764
-46.115	36.178	1345.924	1178.772
-45.100	36.006	1340.952	1173.328
-44.086	35.919	1338.146	1170.293
-43.071	35.886	1336.062	1168.224
-42.057	35.764	1334.275	1165.880
-41.042	35.944	1332.458	1165.335
-40.027	35.979	1330.662	1163.927
-39.013	35.937	1328.856	1162.047
-37.998	35.897	1327.186	1160.302
-36.984	36.004	1325.024	1159.009
-35.969	36.029	1323.344	1157.646
-34.954	36.058	1321.384	1156.056
-33.940	36.150	1320.181	1155.510
-32.925	36.060	1318.941	1153.841
-31.911	36.062	1317.598	1152.632
-30.896	36.085	1316.171	1151.478
-29.881	36.192	1314.238	1150.375
-28.867	36.212	1312.603	1149.020
-27.852	36.164	1311.133	1147.402
-26.838	36.207	1309.465	1146.153
-25.823	36.092	1308.561	1144.630
-24.809	36.201	1306.811	1143.698
-23.794	36.080	1305.683	1141.954
-22.779	36.087	1304.061	1140.527
-21.765	36.105	1303.112	1139.759
-20.750	36.184	1301.231	1138.539
-19.736	35.917	1300.712	1136.460
-18.721	35.921	1299.214	1135.133
-17.706	35.967	1297.732	1134.065
-16.692	36.059	1296.530	1133.509
-15.677	35.948	1295.643	1132.036
-14.663	35.902	1294.428	1130.658
-13.648	35.920	1293.009	1129.477
-12.633	35.897	1292.331	1128.707
-11.619	35.977	1291.214	1128.155
-10.604	35.933	1290.500	1127.229
-9.590	35.943	1289.318	1126.210
-8.575	35.870	1288.612	1125.121
-7.560	35.904	1287.912	1124.662
-6.546	35.922	1286.905	1123.846
-5.531	35.881	1285.980	1122.755
-4.517	36.032	1284.482	1122.282
-3.502	35.924	1284.019	1121.207
-2.487	35.956	1283.111	1120.553
-1.473	36.100	1278.959	1117.720
-0.458	35.187	1264.921	1100.163
0.556	31.048	1247.393	1064.740
1.571	27.564	1252.287	1048.811
2.586	26.276	1266.758	1053.334
3.600	24.888	1254.722	1035.212
4.615	18.891	1180.714	941.328
5.629	9.810	1101.675	831.625
6.644	5.320	1080.405	792.760
7.659	4.973	1077.481	788.792
8.673	4.895	1076.019	787.258
9.688	4.863	1074.519	785.925
10.702	5.173	1073.365	786.578
11.717	10.686	1081.783	820.604
12.731	18.324	1092.223	867.288
13.746	19.820	1092.548	875.045
14.761	18.027	1089.774	863.692
15.775	16.909	1087.589	856.236
16.790	15.928	1085.322	849.431
17.804	15.176	1083.685	844.288
18.819	14.796	1082.499	841.378
19.834	14.462	1081.769	839.054
20.848	14.143	1080.784	836.610
21.863	13.782	1080.486	834.490
22.877	13.842	1079.362	833.852
23.892	13.873	1078.518	833.282
24.907	13.770	1078.063	832.337
25.921	13.924	1076.349	831.713
26.936	13.909	1074.986	830.511
27.950	13.855	1074.438	829.742
28.965	13.986	1072.401	828.752
29.980	14.126	1070.826	828.158
30.994	14.062	1069.426	826.681
32.009	14.131	1068.596	826.313
33.023	14.099	1067.316	825.091
34.038	14.154	1066.249	824.466
35.053	14.052	1065.680	823.446
36.067	13.987	1064.897	822.444
37.082	13.937	1064.285	821.652
38.096	14.027	1063.238	821.219
39.111	14.068	1062.583	820.844
40.126	13.981	1061.243	819.303
41.140	13.714	1060.101	817.036
42.155	13.833	1058.661	816.440
43.169	13.680	1057.687	814.865
44.184	13.832	1056.834	814.882
45.199	13.722	1055.573	813.298
46.213	13.855	1054.323	812.913
47.228	13.945	1053.205	812.417
48.242	13.908	1052.385	811.532
49.257	13.918	1051.151	810.561
50.271	13.930	1050.626	810.143
51.286	14.130	1049.584	810.240
52.301	14.019	1048.593	808.865
53.315	13.861	1047.727	807.355
54.330	13.776	1046.453	805.889
55.344	13.774	1045.774	805.286
56.359	13.887	1044.691	804.926
57.374	13.883	1043.606	804.002
58.388	13.741	1043.487	803.152
59.403	13.804	1041.828	802.108
60.417	13.641	1041.534	801.021
61.432	13.806	1040.458	800.919
62.447	13.736	1039.635	799.879
63.461	13.667	1039.027	799.010
64.476	13.654	1037.532	797.725
65.490	13.682	1036.776	797.209
66.505	13.721	1036.576	797.169
67.520	13.757	1035.347	796.327
68.534	13.767	1034.774	795.867
69.549	13.689	1034.074	794.883
70.563	13.686	1033.166	794.102
71.578	13.630	1032.629	793.349
72.593	13.554	1031.826	792.296
73.607	13.543	1031.096	791.615
74.622	13.770	1030.371	792.070
75.636	13.662	1029.548	790.855
76.651	13.739	1028.928	790.674
77.666	13.532	1028.416	789.226
78.680	13.633	1027.765	789.137
79.695	13.709	1027.101	788.920
80.709	13.810	1026.454	788.832
81.724	13.833	1025.650	788.255
82.739	13.845	1025.075	787.801
83.753	13.875	1024.459	787.399
84.768	13.972	1023.650	787.165
85.782	14.089	1022.567	786.820
86.797	14.065	1021.752	786.007
87.812	13.995	1020.583	784.708
88.826	14.027	1019.887	784.253
89.841	14.080	1018.408	783.298
90.855	14.003	1018.130	782.653
91.870	14.113	1017.072	782.285
92.884	13.963	1016.409	781.000
93.899	14.034	1015.856	780.842
94.914	14.248	1014.705	780.893
95.928	14.097	1014.035	779.600
96.943	14.054	1012.963	778.507
97.957	14.008	1012.310	777.718
98.972	14.122	1011.211	777.341
99.987	14.051	1010.505	776.397
101.001	14.043	1009.398	775.439
102.016	14.115	1008.514	775.028
103.030	14.098	1007.745	774.286
104.045	14.094	1007.089	773.698
105.060	14.004	1006.164	772.501
106.074	13.809	1005.425	770.959
107.089	13.902	1003.831	770.101
108.103	13.885	1002.691	769.076
109.118	13.715	1002.370	767.976
110.133	13.849	1001.068	767.529
111.147	13.837	1000.143	766.699
112.162	13.821	999.840	766.324
113.176	13.897	999.165	766.090
114.191	13.967	997.861	765.344
115.206	13.921	997.355	764.675
116.220	13.870	996.288	763.555
117.235	13.915	995.392	763.011
118.249	13.851	994.978	762.330
119.264	13.796	993.991	761.255
120.279	13.848	993.348	760.931
121.293	13.892	992.168	760.164
122.308	13.734	991.515	758.874
123.322	13.760	990.630	758.247
124.337	13.679	989.635	757.047
125.352	13.865	988.225	756.750
126.366	13.812	987.666	756.015
127.381	13.763	986.468	754.807
128.395	13.778	985.162	753.811
129.410	13.824	984.899	753.749
130.424	13.886	983.779	753.109
131.439	13.945	982.880	752.618
132.454	13.960	982.391	752.249
133.468	14.027	981.298	751.645
134.483	13.947	980.518	750.622
135.497	13.992	979.441	749.936
136.512	14.035	978.417	749.279
137.527	14.070	977.646	748.777
138.541	14.079	977.086	748.323
139.556	14.103	976.377	747.824
140.570	14.095	975.552	747.086
141.585	14.278	974.519	747.054
142.600	14.204	973.728	746.047
143.614	14.418	972.704	746.155
144.629	14.322	972.119	745.209
145.643	14.327	971.275	744.520
146.658	14.093	970.135	742.539
147.673	14.092	969.396	741.899
148.687	14.114	968.209	741.025
149.702	14.039	967.363	739.976
150.716	14.084	966.646	739.565
151.731	14.115	965.968	739.119
152.746	13.995	965.785	738.380
153.760	14.147	965.046	738.424
154.775	14.143	964.048	737.577
155.789	14.247	963.258	737.368
156.804	14.194	962.821	736.735
157.819	14.286	962.200	736.600
158.833	14.249	961.558	735.879
159.848	14.246	960.778	735.206
160.862	14.339	959.733	734.748
161.877	14.198	958.810	733.359
162.892	14.089	957.727	731.983
163.906	14.158	956.637	731.391
164.921	14.122	956.032	730.703
165.935	14.366	954.888	730.834
166.950	14.270	954.300	729.902
167.964	14.134	953.468	728.602
168.979	14.151	952.690	728.019
169.994	14.151	951.334	726.920
171.008	14.196	951.238	726.977
172.023	14.300	950.505	726.809
173.037	14.333	949.913	726.435
174.052	14.325	949.218	725.804
175.067	14.210	948.181	724.444
176.081	14.158	947.535	723.663
177.096	14.261	947.400	723.940
178.110	14.303	946.458	723.341
179.125	14.258	945.757	722.547
180.140	14.381	945.162	722.563
181.154	14.289	945.084	722.037
182.169	14.407	944.441	721.996
183.183	14.394	943.775	721.367
184.198	14.468	943.039	721.058
185.213	14.580	941.888	720.599
186.227	14.490	941.677	719.984
187.242	14.523	940.809	719.401
188.256	14.707	939.941	719.466
189.271	14.493	939.326	718.009
190.286	14.408	938.685	717.091
191.300	14.194	937.703	715.356
192.315	14.138	937.199	714.668
193.329	14.286	936.584	714.770
194.344	14.352	935.931	714.493
195.359	14.366	935.371	714.063
196.373	14.566	935.040	714.603
197.388	14.576	934.441	714.124
198.402	14.651	933.921	713.987
199.417	14.751	933.392	713.945
200.432	14.640	933.033	713.135
201.446	14.700	932.579	712.980
202.461	14.822	931.691	712.757
203.475	14.751	931.586	712.312
204.490	14.724	930.649	711.415
205.504	14.622	929.488	710.034
206.519	14.735	928.802	709.926
207.534	14.719	928.070	709.237
208.548	14.780	927.407	708.925
209.563	14.692	926.851	708.063
210.577	14.792	926.272	707.981
211.592	14.771	925.856	707.512
212.607	14.894	924.644	707.046
213.621	14.772	923.958	705.944
214.636	14.818	922.967	705.316
215.650	14.789	922.712	704.937
216.665	14.870	922.218	704.839
217.680	14.959	921.433	704.552
218.694	15.008	920.684	704.122
219.709	15.028	920.100	703.699
220.723	14.980	919.488	702.965
221.738	15.046	918.797	702.651
222.753	15.016	917.974	701.834
223.767	15.081	917.155	701.420
224.782	15.025	917.022	701.022
225.796	15.078	916.337	700.658
226.811	15.175	915.527	700.379
227.826	15.035	914.699	699.103
228.840	15.008	914.413	698.707
229.855	15.040	913.184	697.842
230.869	14.984	912.843	697.286
231.884	14.865	912.253	696.278
232.899	15.001	911.369	696.105
233.913	14.919	910.941	695.377
234.928	15.026	910.032	695.065
235.942	14.957	909.170	694.061
236.957	14.879	909.111	693.631
237.972	14.987	908.297	693.394
238.986	14.948	907.675	692.698
240.001	15.022	906.920	692.366
241.015	15.063	906.085	691.835
242.030	15.084	905.513	691.425
243.045	15.134	904.981	691.164
244.059	15.171	904.315	690.747
245.074	15.236	903.803	690.562
246.088	15.194	903.627	690.194
247.103	15.225	902.961	689.751
248.117	15.426	901.826	689.648
249.132	15.489	901.366	689.498
250.147	15.506	901.094	689.297
251.161	15.542	900.041	688.576
252.176	15.516	899.598	688.071
253.190	15.619	898.848	687.858
254.205	15.630	897.905	687.119
255.220	15.823	896.819	687.019
256.234	15.731	896.438	686.291
257.249	15.777	896.105	686.160
258.263	15.591	895.517	684.893
259.278	15.653	894.782	684.521
260.293	15.707	894.380	684.373
261.307	15.647	893.639	683.500
262.322	15.689	893.058	683.166
263.336	15.845	892.246	683.118
264.351	15.864	891.171	682.312
265.366	15.843	890.763	681.853
266.380	15.808	890.308	681.303
267.395	15.717	889.718	680.425
268.409	15.752	888.646	679.687
269.424	15.807	888.094	679.427
270.439	15.797	887.075	678.547
271.453	15.682	886.402	677.508
272.468	15.847	885.524	677.439
273.482	15.797	885.161	676.903
274.497	15.926	884.576	676.912
275.512	15.863	883.755	675.972
276.526	15.778	883.958	675.725
277.541	15.874	883.230	675.496
278.555	15.875	882.903	675.188
279.570	16.002	882.272	675.157
280.585	16.034	880.988	674.241
281.599	15.831	880.362	672.891
282.614	15.880	879.624	672.464
283.628	15.905	879.030	672.050
284.643	16.017	878.602	672.108
285.657	15.952	877.854	671.217
286.672	15.979	877.159	670.736
287.687	15.967	876.510	670.131
288.701	15.988	876.181	669.906
289.716	15.988	875.219	669.112
290.730	15.986	875.047	668.911
291.745	15.996	874.794	668.699
292.760	16.077	874.064	668.402
293.774	16.208	873.266	668.252
294.789	16.136	872.675	667.456
295.803	16.119	871.996	666.812
296.818	16.037	870.948	665.627
297.833	16.090	870.292	665.274
298.847	16.109	869.794	664.908
299.862	16.128	869.550	664.739
300.876	16.093	869.212	664.285
301.891	16.021	868.792	663.620
302.906	16.168	867.658	663.277
303.920	16.284	867.452	663.515
304.935	16.573	866.428	663.808
305.949	16.449	865.853	662.822
306.964	16.353	865.078	661.791
307.979	16.380	864.735	661.577
308.993	16.381	864.379	661.249
310.008	16.447	863.480	660.761
311.022	16.430	863.131	660.369
312.037	16.346	862.525	659.522
313.052	16.285	861.777	658.652
314.066	16.190	861.651	658.128
315.081	16.302	860.947	657.967
316.095	16.331	859.953	657.263
317.110	16.354	859.321	656.812
318.125	16.400	858.914	656.619
319.139	16.185	858.398	655.333
320.154	16.399	857.956	655.770
321.168	16.379	857.513	655.295
322.183	16.531	856.533	655.077
323.197	16.474	856.243	654.577
324.212	16.313	856.017	653.722
325.227	16.339	855.524	653.388
326.241	16.440	854.557	652.983
327.256	16.445	853.928	652.463
328.270	16.440	853.483	652.047
329.285	16.326	852.958	651.146
330.300	16.400	852.614	651.113
331.314	16.428	851.772	650.520
332.329	16.472	851.487	650.413
333.343	16.535	851.325	650.476
334.358	16.701	849.991	650.034
335.373	16.606	850.225	649.794
336.387	16.690	849.628	649.601
337.402	16.723	849.834	649.828
338.416	16.796	849.303	649.645
339.431	16.770	848.809	649.109
340.446	16.780	848.296	648.695
341.460	16.864	847.913	648.667
342.475	16.937	847.552	648.612
343.489	16.943	847.180	648.293
344.504	16.966	846.274	647.632
345.519	16.972	846.255	647.583
346.533	16.869	845.601	646.631
347.548	16.890	844.912	646.129
348.562	16.847	844.351	645.476
349.577	16.937	843.526	645.131
350.592	16.848	843.006	644.341
351.606	16.838	842.315	643.718
352.621	16.909	841.645	643.417
353.635	16.838	841.343	642.861
354.650	16.911	840.480	642.421
355.665	17.020	839.898	642.330
356.679	16.959	839.626	641.836
357.694	17.011	838.670	641.245
358.708	16.987	838.072	640.639
359.723	16.907	837.723	640.013
360.738	16.911	837.060	639.467
361.752	16.981	836.428	639.191
362.767	17.200	835.826	639.498
363.781	17.063	835.482	638.662
364.796	17.337	834.951	639.229
365.810	17.242	834.474	638.452
366.825	17.280	834.042	638.208
367.840	17.460	833.659	638.534
368.854	17.379	833.069	637.723
369.869	17.198	832.664	636.676
370.883	17.185	832.561	636.492
371.898	17.220	832.293	636.362
372.913	17.450	831.708	636.721
373.927	17.411	831.002	635.975
374.942	17.341	830.738	635.458
375.956	17.365	830.377	635.215
376.971	17.527	829.691	635.240
377.986	17.625	829.150	635.133
379.000	17.608	828.460	634.486
380.015	17.379	828.576	633.666
381.029	17.578	827.446	633.483
382.044	17.548	827.101	633.053
383.059	17.576	826.220	632.425
384.073	17.530	825.737	631.832
385.088	17.588	825.083	631.489
386.102	17.480	824.440	630.542
387.117	17.565	823.859	630.353
388.132	17.599	823.206	629.925
389.146	17.516	823.241	629.588
390.161	17.502	823.085	629.364
391.175	17.521	822.341	628.809
392.190	17.594	821.580	628.439
393.205	17.482	821.290	627.750
394.219	17.502	820.799	627.394
395.234	17.574	820.196	627.140
396.248	17.506	819.696	626.454
397.263	17.557	819.474	626.416
398.278	17.364	819.113	625.374
399.292	17.356	818.919	625.142
400.307	17.444	818.239	624.892
401.321	17.543	817.603	624.715
402.336	17.443	817.251	624.023
403.350	17.515	816.868	623.938
404.365	17.746	816.479	624.432
405.380	17.780	816.044	624.169
406.394	17.677	815.582	623.382
407.409	17.750	815.519	623.545
408.423	17.974	814.877	623.819
409.438	17.965	814.185	623.202
410.453	17.932	813.945	622.843
411.467	17.887	813.300	622.130
412.482	17.923	813.122	622.070
413.496	18.069	812.692	622.215
414.511	17.961	812.548	621.659
415.526	17.970	811.996	621.216
416.540	18.022	811.245	620.772
417.555	18.084	810.369	620.271
418.569	18.153	810.476	620.549
419.584	17.978	809.883	619.407
420.599	18.015	809.938	619.529
421.613	150.344	1369.563	1784.132
422.628	130.470	1451.110	1784.228
