DTS Sentinel unit serial number:	SN413079Multiplexer serial number:	ORYXHardware model number:	OX4-SRSoftware version number:	ORYX F/W v4.00 Oryx Data Collector v3.7.2.0data status	okinstallation	princeton_trtdifferential loss correction	single-endedforward channel	channel 1reverse channel	N/Adate	2019/09/13time	07:46:35forward acquisition time	60.00reverse acquisition time	0.00gamma	496.2192k internal	0.2333k external	0.2333temperature offset calibration	1.0162default loss term (dB/km)	0.3790temperature slope calibration	1.0000multiplexer offset coefficient	1.0000multiplexer slope coefficient	1.0000fibre end	0.00T internal ref (°C)	26.50T ext. ref 1 (°C)	4.21T ext. ref 2 (°C)	22.86length (m)	temperature (°C)	Stokes	anti-Stokes-747.200	391.730	0.061	-0.128
-746.185	549.473	0.125	0.300
-745.171	-200.000	0.002	-0.076
-744.156	-56.986	-0.175	0.078
-743.142	280.854	0.050	0.089
-742.127	-51.693	-0.140	-0.066
-741.112	-200.000	0.144	-0.000
-740.098	411.535	0.025	0.053
-739.083	800.000	0.043	0.138
-738.069	-167.635	0.251	-0.010
-737.054	122.453	-0.027	0.034
-736.039	277.332	-0.035	0.063
-735.025	-36.476	0.052	0.028
-734.010	547.694	-0.080	-0.193
-732.996	523.787	-0.012	0.027
-731.981	-38.864	-0.259	0.137
-730.966	-24.296	-0.139	-0.083
-729.952	566.164	0.057	0.139
-728.937	-89.020	0.205	-0.061
-727.923	-116.732	0.406	-0.075
-726.908	-127.343	-0.112	0.016
-725.894	321.357	0.033	0.063
-724.879	-37.434	0.139	-0.075
-723.864	-200.000	-0.028	0.140
-722.850	-200.000	-0.066	0.538
-721.835	-35.543	-0.064	0.035
-720.821	-67.781	-0.082	-0.032
-719.806	800.000	-0.045	-0.187
-718.791	459.668	-0.105	-0.235
-717.777	190.595	0.108	-0.162
-716.762	-3.103	-0.260	0.182
-715.748	65.266	0.123	0.125
-714.733	-200.000	-0.022	-0.119
-713.718	-92.942	0.139	-0.039
-712.704	19.066	0.076	-0.061
-711.689	571.602	-0.045	0.111
-710.675	196.463	-0.173	-0.265
-709.660	48.624	-0.058	0.055
-708.645	149.220	0.168	0.229
-707.631	-200.000	-0.012	-0.084
-706.616	-114.858	0.038	-0.007
-705.602	98.197	-0.136	-0.157
-704.587	-76.454	0.154	-0.054
-703.572	800.000	0.072	0.216
-702.558	-200.000	0.023	-0.157
-701.543	568.571	-0.099	-0.241
-700.529	800.000	-0.090	0.266
-699.514	194.148	0.024	-0.036
-698.499	-66.619	-0.275	-0.109
-697.485	409.849	-0.056	-0.119
-696.470	278.440	-0.263	-0.470
-695.456	-122.372	-0.200	-0.033
-694.441	-98.411	-0.295	-0.076
-693.426	746.246	-0.056	0.152
-692.412	29.438	0.069	0.059
-691.397	76.204	-0.327	-0.348
-690.383	800.000	-0.067	-0.256
-689.368	800.000	0.070	0.201
-688.354	31.148	0.201	0.173
-687.339	-200.000	0.032	-0.243
-686.324	26.342	-0.196	-0.165
-685.310	-200.000	-0.022	0.156
-684.295	-66.186	0.199	0.080
-683.281	277.476	0.045	0.080
-682.266	-200.000	0.001	-0.147
-681.251	800.000	-0.047	-0.156
-680.237	105.347	-0.218	0.258
-679.222	-87.542	0.297	-0.090
-678.208	-200.000	-0.004	-0.163
-677.193	-200.000	-0.004	0.119
-676.178	-93.624	0.139	0.038
-675.164	634.107	0.079	0.200
-674.149	-59.361	0.216	0.093
-673.135	22.139	0.004	0.003
-672.120	-139.993	0.206	-0.022
-671.105	211.299	0.061	-0.097
-670.091	-26.614	0.132	-0.078
-669.076	-13.937	-0.254	0.165
-668.062	-24.177	-0.383	0.229
-667.047	-200.000	-0.066	-0.340
-666.032	800.000	0.046	0.150
-665.018	-200.000	-0.005	0.159
-664.003	800.000	0.055	0.190
-662.989	198.942	0.030	0.046
-661.974	-200.000	0.027	-0.189
-660.959	-200.000	-0.021	-0.165
-659.945	263.402	0.111	-0.193
-658.930	341.825	-0.271	-0.530
-657.916	800.000	0.098	-0.397
-656.901	26.480	-0.200	0.167
-655.886	-44.557	0.163	-0.082
-654.872	28.350	-0.167	0.142
-653.857	-35.777	0.184	-0.100
-652.843	88.808	-0.218	-0.243
-651.828	-200.000	-0.005	-0.260
-650.814	-3.546	0.132	-0.092
-649.799	800.000	-0.054	0.175
-648.784	172.119	0.182	-0.262
-647.770	311.851	0.133	-0.250
-646.755	-131.714	0.282	0.037
-645.741	-123.976	0.413	-0.065
-644.726	15.551	0.128	0.101
-643.711	-200.000	0.010	-0.464
-642.697	-200.000	0.014	-0.265
-641.682	144.728	-0.077	-0.103
-640.668	-76.914	0.332	-0.116
-639.653	-200.000	-0.073	-0.326
-638.638	-96.147	-0.105	0.028
-637.624	-64.220	0.036	-0.015
-636.609	682.845	-0.082	0.213
-635.595	-191.299	0.189	0.002
-634.580	55.107	0.209	-0.202
-633.565	349.933	-0.059	-0.117
-632.551	-200.000	-0.022	-0.152
-631.536	84.514	-0.112	0.123
-630.522	350.807	-0.012	0.023
-629.507	-200.000	0.040	0.223
-628.492	164.532	-0.160	-0.226
-627.478	-4.584	-0.306	-0.212
-626.463	-172.207	-0.303	-0.010
-625.449	-153.909	0.152	0.010
-624.434	-200.000	0.036	0.269
-623.419	205.251	0.185	-0.288
-622.405	-97.795	-0.229	-0.059
-621.390	108.580	0.180	0.215
-620.376	428.167	0.065	0.140
-619.361	-47.227	-0.272	0.133
-618.346	-84.485	0.257	-0.081
-617.332	-134.352	-0.317	-0.039
-616.317	76.903	-0.103	-0.110
-615.303	175.671	0.156	-0.226
-614.288	261.438	0.074	-0.128
-613.273	800.000	0.094	-0.268
-612.259	-116.675	-0.119	0.022
-611.244	-151.214	-0.060	-0.004
-610.230	-43.909	0.262	-0.132
-609.215	174.056	-0.264	0.381
-608.201	-82.844	-0.247	0.080
-607.186	161.892	0.076	-0.107
-606.171	-45.174	0.202	-0.100
-605.157	800.000	-0.012	0.035
-604.142	-125.679	0.192	0.029
-603.128	291.328	0.252	0.458
-602.113	-18.951	-0.488	0.304
-601.098	121.089	-0.093	0.116
-600.084	-5.907	-0.122	-0.084
-599.069	800.000	-0.045	-0.168
-598.055	-58.120	-0.130	-0.056
-597.040	29.848	-0.116	0.099
-596.025	800.000	0.050	-0.161
-595.011	328.479	0.122	0.235
-593.996	-200.000	-0.004	-0.126
-592.982	588.277	0.028	-0.069
-591.967	221.182	-0.071	-0.113
-590.952	231.099	0.054	0.088
-589.938	-19.893	0.396	0.244
-588.923	145.866	-0.119	0.160
-587.909	-130.688	-0.530	0.071
-586.894	-200.000	0.009	-0.078
-585.879	-116.877	-0.172	0.031
-584.865	800.000	0.090	0.309
-583.850	-166.920	0.244	0.010
-582.836	-200.000	0.004	-0.049
-581.821	-54.155	0.047	-0.021
-580.806	371.528	0.075	-0.152
-579.792	92.428	-0.049	0.055
-578.777	800.000	-0.049	0.185
-577.763	-200.000	0.023	-0.163
-576.748	-26.354	-0.173	0.102
-575.733	-86.959	-0.267	-0.081
-574.719	687.097	-0.098	0.256
-573.704	-1.364	-0.328	-0.231
-572.690	-23.478	0.111	-0.066
-571.675	800.000	-0.098	-0.332
-570.661	561.978	-0.048	-0.115
-569.646	800.000	-0.126	-0.360
-568.631	-70.859	-0.256	-0.096
-567.617	-200.000	-0.082	0.376
-566.602	142.218	-0.147	0.194
-565.588	-16.711	-0.371	0.235
-564.573	64.989	-0.163	-0.165
-563.558	-5.623	0.130	-0.089
-562.544	99.150	-0.206	0.238
-561.529	-21.983	-0.302	0.183
-560.515	-91.334	0.290	0.083
-559.500	-53.540	-0.098	-0.045
-558.485	-25.488	0.143	0.084
-557.471	-74.402	0.160	0.057
-556.456	-5.962	0.139	-0.095
-555.442	40.737	0.332	0.299
-554.427	800.000	-0.077	-0.319
-553.412	-200.000	-0.016	-0.104
-552.398	-152.254	-0.344	0.025
-551.383	467.213	-0.063	-0.141
-550.369	800.000	0.193	-0.545
-549.354	-33.790	0.110	0.061
-548.339	193.868	0.246	0.371
-547.325	800.000	-0.083	-0.297
-546.310	-200.000	-0.007	-0.062
-545.296	-8.929	0.091	0.061
-544.281	800.000	-0.029	0.104
-543.266	64.234	0.111	-0.111
-542.252	222.068	0.175	-0.281
-541.237	141.936	0.113	-0.150
-540.223	-19.427	0.203	-0.126
-539.208	-200.000	0.026	-0.368
-538.193	-50.222	-0.105	0.050
-537.179	61.713	-0.204	-0.203
-536.164	757.355	0.151	0.409
-535.150	-200.000	0.035	-0.241
-534.135	800.000	0.052	0.202
-533.121	-81.009	-0.260	0.086
-532.106	25.999	0.239	0.199
-531.091	-126.216	-0.057	-0.009
-530.077	800.000	-0.027	-0.095
-529.062	411.836	-0.020	-0.042
-528.048	-110.900	0.252	0.052
-527.033	-193.504	0.213	0.002
-526.018	-143.722	-0.270	0.026
-525.004	-119.152	-0.128	-0.022
-523.989	68.281	-0.128	-0.131
-522.975	21.427	0.068	0.055
-521.960	-66.480	-0.243	-0.096
-520.945	480.960	-0.030	0.067
-519.931	800.000	0.057	-0.176
-518.916	-200.000	-0.022	0.257
-517.902	342.641	0.052	0.101
-516.887	-37.134	0.007	0.004
-515.872	-200.000	0.007	0.116
-514.858	-103.129	-0.157	0.037
-513.843	141.692	-0.128	0.169
-512.829	276.047	0.224	0.397
-511.814	-108.960	-0.454	0.096
-510.799	169.658	0.151	0.215
-509.785	205.482	-0.108	-0.167
-508.770	-91.756	-0.197	0.056
-507.756	-200.000	0.011	0.302
-506.741	-34.413	-0.295	-0.161
-505.726	72.410	0.248	0.258
-504.712	220.815	0.147	-0.235
-503.697	51.577	0.324	-0.306
-502.683	153.915	0.055	-0.075
-501.668	46.059	-0.045	-0.042
-500.653	42.646	-0.246	-0.223
-499.639	-153.750	0.085	0.006
-498.624	-197.018	-0.077	0.000
-497.610	65.045	0.073	-0.073
-496.595	-166.481	-0.177	-0.007
-495.581	485.629	0.123	-0.278
-494.566	-44.882	-0.139	-0.069
-493.551	-137.360	0.371	-0.042
-492.537	396.213	0.054	0.111
-491.522	800.000	-0.030	0.111
-490.508	-200.000	0.002	0.156
-489.493	-119.496	-0.270	0.047
-488.478	44.036	0.129	-0.117
-487.464	-127.455	0.334	-0.048
-486.449	-80.114	-0.306	-0.102
-485.435	64.922	-0.337	0.339
-484.420	12.154	-0.189	-0.145
-483.405	-54.654	0.306	0.138
-482.391	-200.000	-0.033	0.171
-481.376	331.450	0.158	0.303
-480.362	-36.649	-0.102	-0.054
-479.347	-200.000	0.010	0.270
-478.332	70.704	-0.011	-0.011
-477.318	320.227	0.067	0.127
-476.303	-113.316	0.351	-0.069
-475.289	38.028	-0.179	0.158
-474.274	-59.684	-0.127	0.054
-473.259	-143.120	0.051	-0.005
-472.245	-141.308	-0.068	0.007
-471.230	619.724	0.182	-0.455
-470.216	-191.127	-0.409	0.004
-469.201	-95.112	-0.338	-0.091
-468.186	-26.736	-0.288	-0.167
-467.172	-100.811	0.342	-0.084
-466.157	-152.349	0.111	0.008
-465.143	-200.000	0.038	0.343
-464.128	766.007	0.057	0.154
-463.113	-22.425	0.265	-0.160
-462.099	800.000	0.040	0.139
-461.084	-159.104	0.243	-0.014
-460.070	151.624	0.116	0.158
-459.055	31.420	0.148	-0.126
-458.040	1.743	-0.103	0.074
-457.026	-200.000	-0.003	-0.064
-456.011	-200.000	-0.003	0.110
-454.997	800.000	-0.072	0.294
-453.982	-26.244	-0.108	-0.063
-452.968	-21.934	-0.195	-0.118
-451.953	312.700	-0.142	0.266
-450.938	381.608	0.209	-0.427
-449.924	293.211	0.095	-0.172
-448.909	800.000	-0.091	-0.305
-447.895	96.979	0.179	0.204
-446.880	-153.561	0.086	0.006
-445.865	-52.088	-0.277	-0.128
-444.851	-200.000	-0.276	-0.001
-443.836	2.078	-0.047	-0.033
-442.822	-73.154	-0.422	-0.154
-441.807	-200.000	0.001	-0.208
-440.792	146.096	-0.152	-0.203
-439.778	-200.000	0.205	-0.000
-438.763	34.406	-0.140	0.121
-437.749	-200.000	-0.021	0.267
-436.734	-200.000	0.034	-0.205
-435.719	-200.000	-0.026	-0.217
-434.705	126.943	-0.198	-0.249
-433.690	-8.662	0.253	-0.169
-432.676	-19.898	0.257	0.157
-431.661	-92.247	0.250	0.070
-430.646	-200.000	-0.015	-0.316
-429.632	800.000	0.063	-0.221
-428.617	34.599	0.199	-0.172
-427.603	77.081	-0.224	-0.237
-426.588	-200.000	0.018	-0.081
-425.573	-200.000	0.008	-0.124
-424.559	800.000	0.105	0.339
-423.544	-179.212	-0.284	0.006
-422.530	14.754	-0.188	-0.146
-421.515	-92.621	0.357	-0.100
-420.500	80.133	-0.123	-0.131
-419.486	53.447	0.143	0.136
-418.471	-48.091	-0.167	-0.080
-417.457	-200.000	-0.032	0.158
-416.442	-106.418	-0.234	-0.052
-415.428	-23.782	0.368	0.219
-414.413	-94.222	-0.174	-0.047
-413.398	-12.698	-0.282	-0.183
-412.384	-200.000	-0.006	0.237
-411.369	37.099	0.270	-0.237
-410.355	21.528	-0.056	-0.045
-409.340	-18.123	0.206	0.128
-408.325	-0.551	-0.009	0.007
-407.311	-200.000	-0.001	0.391
-406.296	-165.822	-0.233	-0.010
-405.282	-49.943	-0.257	0.121
-404.267	80.492	0.160	0.171
-403.252	-139.429	-0.256	-0.027
-402.238	130.463	-0.298	0.379
-401.223	-36.509	0.176	0.094
-400.209	-26.700	0.011	-0.006
-399.194	-200.000	0.066	0.303
-398.179	-28.801	0.339	-0.193
-397.165	-4.549	0.220	0.151
-396.150	-110.697	-0.232	0.047
-395.136	-38.803	-0.189	0.099
-394.121	-114.330	-0.380	-0.073
-393.106	-97.426	-0.191	-0.049
-392.092	220.137	0.030	0.047
-391.077	387.748	0.046	-0.094
-390.063	10.032	-0.188	-0.141
-389.048	800.000	-0.081	0.244
-388.033	-200.000	0.012	-0.131
-387.019	800.000	-0.039	0.162
-386.004	447.432	0.040	0.087
-384.990	-97.454	0.095	-0.025
-383.975	185.724	-0.046	0.068
-382.960	3.507	0.110	0.079
-381.946	141.603	-0.062	0.081
-380.931	77.166	-0.214	-0.226
-379.917	-161.033	-0.314	0.016
-378.902	101.292	0.142	0.164
-377.888	135.039	-0.033	0.043
-376.873	-200.000	-0.001	-0.342
-375.858	154.626	0.129	0.175
-374.844	-141.017	-0.200	-0.020
-373.829	252.535	0.045	-0.075
-372.815	-139.623	0.161	-0.017
-371.800	-58.641	0.149	-0.064
-370.785	359.188	-0.041	-0.080
-369.771	463.369	0.092	0.203
-368.756	-43.126	0.250	-0.126
-367.742	-103.303	0.389	0.091
-366.727	800.000	-0.058	0.198
-365.712	351.116	0.109	0.214
-364.698	800.000	-0.017	-0.052
-363.683	33.737	-0.120	-0.103
-362.669	-79.353	-0.263	0.088
-361.654	340.040	-0.067	0.130
-360.639	186.899	-0.013	-0.019
-359.625	408.733	0.131	-0.275
-358.610	-200.000	-0.012	0.192
-357.596	219.373	-0.076	0.120
-356.581	414.649	0.097	0.205
-355.566	-133.980	-0.129	0.016
-354.552	-121.598	-0.316	-0.052
-353.537	21.910	-0.011	-0.009
-352.523	42.410	-0.320	-0.288
-351.508	-200.000	-0.019	-0.152
-350.493	-38.990	0.038	-0.020
-349.479	349.050	-0.118	-0.231
-348.464	-65.927	0.060	-0.024
-347.450	-200.000	-0.058	-0.329
-346.435	-58.803	0.304	-0.130
-345.420	607.931	-0.074	-0.182
-344.406	-194.585	0.082	0.001
-343.391	362.409	-0.052	-0.103
-342.377	237.995	-0.144	0.237
-341.362	-123.741	0.111	0.017
-340.348	-200.000	-0.031	0.177
-339.333	-42.766	-0.288	0.145
-338.318	42.052	-0.079	0.071
-337.304	800.000	0.045	0.167
-336.289	258.224	0.171	0.292
-335.275	21.314	-0.275	0.221
-334.260	112.638	-0.103	-0.123
-333.245	-54.955	0.047	0.021
-332.231	800.000	0.125	-0.416
-331.216	-143.882	0.412	0.038
-330.202	-139.905	-0.374	0.039
-329.187	800.000	-0.049	0.144
-328.172	-92.161	0.132	0.037
-327.158	-33.003	0.369	0.202
-326.143	13.897	-0.120	-0.092
-325.129	800.000	0.025	-0.076
-324.114	-200.000	-0.021	0.108
-323.099	-21.424	-0.153	0.093
-322.085	-200.000	0.053	-0.282
-321.070	-200.000	-0.042	0.350
-320.056	800.000	-0.128	0.350
-319.041	800.000	0.103	-0.285
-318.026	-107.387	0.164	0.036
-317.012	-200.000	0.034	0.259
-315.997	327.775	0.142	0.270
-314.983	-129.777	-0.533	0.072
-313.968	106.407	-0.074	-0.087
-312.953	128.953	0.161	-0.203
-311.939	-182.366	0.181	0.003
-310.924	102.106	0.126	0.145
-309.910	-63.604	0.064	-0.026
-308.895	-200.000	0.045	0.389
-307.880	-149.947	0.201	0.015
-306.866	140.881	0.063	-0.082
-305.851	498.259	-0.019	-0.044
-304.837	139.567	0.166	0.215
-303.822	-5.022	0.097	-0.066
-302.807	383.728	0.138	0.280
-301.793	-200.000	-0.077	0.396
-300.778	800.000	-0.062	0.211
-299.764	800.000	0.045	-0.148
-298.749	-5.516	0.201	-0.137
-297.735	84.939	-0.180	-0.194
-296.720	-200.000	-0.051	-0.376
-295.705	-104.215	0.345	0.079
-294.691	800.000	0.136	0.475
-293.676	-138.727	0.090	0.010
-292.662	361.061	-0.184	-0.364
-291.647	-200.000	-0.239	0.001
-290.632	-200.000	-0.019	-0.301
-289.618	-200.000	-0.002	-0.284
-288.603	-51.402	0.128	0.059
-287.589	262.116	-0.111	0.190
-286.574	-124.273	-0.236	-0.036
-285.559	-129.392	0.310	-0.043
-284.545	28.049	0.128	-0.107
-283.530	800.000	-0.062	-0.216
-282.516	-33.655	-0.354	0.193
-281.501	380.406	0.056	0.113
-280.486	303.535	0.147	-0.268
-279.472	-86.293	0.159	0.048
-278.457	-181.131	0.271	0.005
-277.443	56.882	-0.271	-0.260
-276.428	-22.193	-0.117	0.070
-275.413	74.280	0.170	-0.176
-274.399	22.421	-0.252	0.203
-273.384	-149.131	-0.203	0.016
-272.370	-114.258	0.152	0.029
-271.355	9.317	0.177	-0.132
-270.340	73.941	-0.157	-0.162
-269.326	-136.451	-0.520	0.060
-268.311	178.353	0.162	0.233
-267.297	-15.435	0.049	-0.031
-266.282	570.966	-0.119	0.286
-265.267	-25.469	-0.257	0.150
-264.253	-58.538	-0.202	-0.087
-263.238	35.531	0.224	-0.194
-262.224	191.082	0.059	0.088
-261.209	-29.428	-0.198	-0.112
-260.195	52.795	0.363	-0.342
-259.180	800.000	-0.037	-0.137
-258.165	258.115	0.088	-0.149
-257.151	-200.000	0.026	0.354
-256.136	140.671	-0.069	0.090
-255.122	251.879	0.032	-0.053
-254.107	227.573	-0.255	0.410
-253.092	-28.439	0.054	0.031
-252.078	-26.164	0.347	0.201
-251.063	-200.000	-0.012	-0.117
-250.049	-83.339	-0.099	0.031
-249.034	-151.601	0.062	0.005
-248.019	-94.377	-0.273	-0.073
-247.005	28.434	0.047	0.039
-245.990	-137.850	0.572	-0.063
-244.976	-9.407	0.048	-0.031
-243.961	25.710	-0.285	0.234
-242.946	-200.000	-0.006	0.184
-241.932	-73.722	-0.165	0.059
-240.917	-200.000	-0.021	0.118
-239.903	273.578	0.172	-0.300
-238.888	-195.541	-0.192	0.001
-237.873	20.127	0.276	-0.219
-236.859	-200.000	0.041	-0.236
-235.844	351.439	-0.172	-0.336
-234.830	-30.608	-0.331	0.185
-233.815	300.136	-0.106	-0.193
-232.800	-32.981	0.466	0.255
-231.786	103.683	-0.280	-0.324
-230.771	-62.192	0.180	0.074
-229.757	-131.881	0.401	-0.052
-228.742	107.206	0.072	-0.084
-227.727	-200.000	-0.004	-0.024
-226.713	-200.000	-0.027	0.274
-225.698	183.969	-0.160	-0.233
-224.684	-200.000	0.006	-0.068
-223.669	-13.783	0.041	-0.026
-222.655	-119.095	0.497	0.086
-221.640	-98.847	-0.100	-0.025
-220.625	800.000	0.102	0.282
-219.611	-163.215	-0.304	0.014
-218.596	-99.986	0.227	-0.056
-217.582	360.848	-0.141	0.278
-216.567	379.174	-0.030	0.062
-215.552	-200.000	-0.052	-0.338
-214.538	291.618	-0.030	-0.054
-213.523	156.731	0.140	-0.191
-212.509	-200.000	0.034	0.149
-211.494	800.000	-0.078	-0.224
-210.479	54.058	-0.195	-0.185
-209.465	-200.000	0.052	-0.315
-208.450	640.620	-0.159	0.399
-207.436	800.000	-0.004	-0.012
-206.421	427.094	0.096	0.205
-205.406	-58.334	0.331	0.142
-204.392	-200.000	0.026	-0.241
-203.377	490.410	-0.123	-0.278
-202.363	-200.000	-0.025	0.189
-201.348	463.528	0.039	0.085
-200.333	800.000	0.066	0.224
-199.319	800.000	0.024	0.090
-198.304	128.860	0.135	-0.169
-197.290	-200.000	0.003	0.130
-196.275	25.758	0.087	0.071
-195.260	-109.969	-0.206	0.042
-194.246	166.808	-0.024	0.033
-193.231	-8.566	0.172	-0.113
-192.217	231.939	0.146	-0.235
-191.202	-66.508	0.359	-0.140
-190.187	110.069	0.209	-0.247
-189.173	-92.928	0.123	0.034
-188.158	223.664	-0.162	-0.257
-187.144	-200.000	-0.039	0.205
-186.129	-172.340	0.162	0.005
-185.114	-162.230	-0.380	0.019
-184.100	-200.000	-0.016	0.143
-183.085	-88.650	0.353	-0.103
-182.071	22.100	-0.181	0.145
-181.056	800.000	0.022	-0.085
-180.042	318.852	0.153	-0.285
-179.027	-48.482	0.217	0.103
-178.012	-14.296	0.023	-0.014
-176.998	216.263	0.062	-0.097
-175.983	800.000	0.049	0.190
-174.969	235.940	-0.253	0.411
-173.954	-200.000	0.041	0.208
-172.939	-105.915	0.224	-0.050
-171.925	-188.648	-0.216	-0.003
-170.910	-200.000	0.081	0.494
-169.896	-200.000	0.002	-0.176
-168.881	-120.868	-0.251	0.042
-167.866	-17.266	0.325	0.201
-166.852	392.836	0.150	-0.306
-165.837	94.370	0.189	0.211
-164.823	-50.824	0.145	0.067
-163.808	-142.091	0.275	-0.027
-162.793	190.440	0.146	0.216
-161.779	-45.535	-0.066	0.032
-160.764	-160.035	-0.502	0.027
-159.750	48.620	-0.288	0.265
-158.735	261.061	0.143	-0.244
-157.720	122.643	0.262	-0.322
-156.706	-49.877	-0.234	-0.109
-155.691	-159.667	0.300	-0.016
-154.677	800.000	0.151	0.413
-153.662	-135.377	-0.111	-0.013
-152.647	682.553	-0.057	-0.145
-151.633	-102.905	0.219	-0.051
-150.618	-98.898	-0.306	-0.076
-149.604	29.834	0.351	-0.294
-148.589	-54.090	-0.104	-0.047
-147.574	800.000	0.027	-0.104
-146.560	800.000	0.101	-0.370
-145.545	663.712	-0.094	-0.239
-144.531	182.357	0.254	-0.368
-143.516	-200.000	-0.053	-0.234
-142.502	36.511	0.084	0.072
-141.487	10.230	0.131	-0.098
-140.472	16.934	0.122	-0.095
-139.458	24.341	-0.113	0.092
-138.443	-200.000	-0.024	-0.255
-137.429	-4.996	0.158	0.107
-136.414	-200.000	0.024	0.227
-135.399	28.723	0.149	0.124
-134.385	-200.000	0.012	-0.090
-133.370	800.000	0.067	-0.197
-132.356	319.295	-0.151	0.280
-131.341	180.076	0.179	-0.258
-130.326	362.225	0.011	0.022
-129.312	-200.000	0.003	-0.022
-128.297	417.702	0.185	0.388
-127.283	-55.399	-0.069	-0.030
-126.268	-200.000	0.068	-0.494
-125.253	241.295	-0.145	-0.237
-124.239	-87.986	0.406	0.120
-123.224	-200.000	-0.032	0.155
-122.210	-200.000	0.085	-0.388
-121.195	134.790	0.207	-0.264
-120.180	-200.000	-0.088	-0.441
-119.166	-65.524	0.258	-0.101
-118.151	70.654	0.008	0.009
-117.137	-200.000	-0.005	0.098
-116.122	-118.728	-0.268	-0.046
-115.107	-110.119	-0.143	0.029
-114.093	-97.373	0.178	-0.045
-113.078	800.000	-0.068	-0.243
-112.064	387.799	0.051	-0.103
-111.049	114.213	-0.054	-0.064
-110.034	77.196	-0.224	0.233
-109.020	-145.454	0.487	-0.043
-108.005	-190.352	0.207	0.002
-106.991	800.000	-0.029	-0.104
-105.976	-99.924	0.110	-0.027
-104.962	-15.965	0.070	0.043
-103.947	715.379	-0.076	-0.199
-102.932	57.645	-0.214	-0.205
-101.918	-200.000	-0.025	0.226
-100.903	512.016	-0.070	-0.159
-99.889	517.807	0.141	0.324
-98.874	82.258	0.136	-0.145
-97.859	5.054	-0.111	-0.080
-96.845	-140.734	0.444	-0.045
-95.830	800.000	0.029	0.099
-94.816	-200.000	-0.029	0.292
-93.801	192.829	0.009	-0.013
-92.786	142.091	0.209	0.271
-91.772	525.420	0.072	-0.167
-90.757	-200.000	-0.033	-0.392
-89.743	-57.263	0.370	-0.159
-88.728	800.000	-0.099	0.376
-87.713	-108.052	-0.215	0.046
-86.699	-49.627	-0.052	0.024
-85.684	-189.940	0.148	0.002
-84.670	-112.712	0.331	-0.065
-83.655	-44.227	-0.392	-0.192
-82.640	111.851	0.269	0.318
-81.626	-28.537	0.331	-0.187
-80.611	-200.000	-0.015	-0.136
-79.597	166.835	0.096	0.134
-78.582	-200.000	-0.244	0.001
-77.567	165.912	0.154	0.214
-76.553	82.976	-0.146	-0.155
-75.538	800.000	0.055	-0.224
-74.524	-200.000	0.058	0.291
-73.509	209.819	0.127	0.196
-72.494	-84.967	-0.116	-0.036
-71.480	61.114	-0.295	0.286
-70.465	-133.158	-0.124	-0.015
-69.451	-200.000	0.025	-0.198
-68.436	200.066	-0.302	-0.454
-67.422	147.881	-0.020	-0.027
-66.407	382.379	0.088	0.176
-65.392	41.426	0.108	-0.096
-64.378	-65.421	0.180	0.071
-63.363	19.282	0.210	-0.165
-62.349	-162.041	0.278	0.014
-61.334	35.455	-1.018	-0.875
-60.319	366.475	0.259	0.511
-59.305	800.000	-0.457	-1.238
-58.290	296.120	0.555	0.996
-57.276	369.949	0.719	1.425
-56.261	-200.000	116.817	659.169
-55.246	521.580	1541.051	3539.227
-54.232	174.434	2714.144	3840.518
-53.217	107.542	2159.768	2515.030
-52.203	38.235	1593.901	1388.621
-51.188	29.788	1335.719	1113.065
-50.173	26.921	1297.465	1064.359
-49.159	54.786	1355.397	1279.575
-48.144	52.711	1369.624	1280.556
-47.130	30.098	1323.566	1104.610
-46.115	26.665	1305.020	1068.874
-45.100	26.368	1300.469	1063.361
-44.086	26.404	1297.394	1061.012
-43.071	26.384	1295.181	1059.046
-42.057	26.287	1293.547	1057.102
-41.042	26.378	1291.950	1056.286
-40.027	26.393	1290.016	1054.747
-39.013	26.379	1288.328	1053.244
-37.998	26.411	1286.535	1051.926
-36.984	26.445	1284.602	1050.497
-35.969	26.502	1282.980	1049.464
-34.954	26.469	1281.109	1047.697
-33.940	26.482	1279.701	1046.578
-32.925	26.591	1278.334	1046.050
-31.911	26.596	1277.244	1045.146
-30.896	26.618	1275.408	1043.729
-29.881	26.576	1274.776	1042.929
-28.867	26.612	1272.953	1041.600
-27.852	26.653	1271.601	1040.693
-26.838	26.703	1269.875	1039.527
-25.823	26.575	1268.881	1037.937
-24.809	26.591	1267.395	1036.769
-23.794	26.597	1265.897	1035.538
-22.779	26.464	1265.140	1034.116
-21.765	26.589	1263.537	1033.480
-20.750	26.636	1262.402	1032.777
-19.736	26.515	1261.659	1031.440
-18.721	26.487	1260.053	1029.925
-17.706	26.469	1259.097	1029.000
-16.692	26.516	1257.891	1028.242
-15.677	26.505	1256.487	1026.994
-14.663	26.429	1255.826	1025.976
-13.648	26.423	1254.417	1024.751
-12.633	26.459	1253.339	1024.035
-11.619	26.375	1252.608	1022.922
-10.604	26.373	1252.099	1022.454
-9.590	26.420	1250.665	1021.509
-8.575	26.325	1249.549	1020.022
-7.560	26.503	1248.596	1020.207
-6.546	26.530	1248.126	1019.933
-5.531	26.415	1247.460	1018.704
-4.517	26.462	1246.259	1017.947
-3.502	26.484	1245.267	1017.215
-2.487	26.504	1244.570	1016.720
-1.473	26.420	1240.806	1013.137
-0.458	25.064	1226.460	993.866
0.556	23.879	1209.805	959.752
1.571	20.384	1216.848	946.241
2.586	19.586	1231.337	953.023
3.600	19.066	1219.522	940.954
4.615	14.664	1148.556	863.400
5.629	7.652	1076.739	775.238
6.644	4.530	1058.918	747.343
7.659	4.166	1056.663	743.935
8.673	4.152	1055.174	742.756
9.688	4.003	1054.289	741.353
10.702	4.519	1052.041	742.172
11.717	9.115	1058.673	768.836
12.731	16.742	1068.883	812.921
13.746	21.210	1074.587	838.701
14.761	22.086	1075.382	843.453
15.775	21.385	1073.831	838.801
16.790	20.355	1072.117	832.451
17.804	19.809	1070.433	828.458
18.819	19.601	1069.030	826.301
19.834	19.538	1068.904	825.830
20.848	19.536	1068.068	825.100
21.863	19.205	1067.440	822.961
22.877	19.090	1066.593	821.688
23.892	19.043	1066.092	821.003
24.907	19.125	1065.116	820.572
25.921	18.981	1064.293	819.180
26.936	19.073	1062.602	818.243
27.950	18.940	1061.483	816.677
28.965	19.172	1059.924	816.505
29.980	19.263	1058.746	815.956
30.994	19.465	1057.772	816.091
32.009	19.419	1056.887	815.115
33.023	19.384	1056.025	814.213
34.038	19.364	1054.252	812.679
35.053	19.113	1053.864	811.125
36.067	19.175	1052.708	810.460
37.082	19.140	1052.434	810.008
38.096	19.338	1052.186	810.680
39.111	19.384	1051.147	810.024
40.126	19.111	1049.418	807.339
41.140	18.768	1048.129	804.667
42.155	18.666	1046.602	802.950
43.169	18.601	1046.021	802.127
44.184	18.728	1044.226	801.271
45.199	18.787	1043.256	800.732
46.213	18.879	1042.920	800.831
47.228	19.097	1042.269	801.275
48.242	19.246	1040.950	800.883
49.257	19.127	1039.905	799.458
50.271	19.225	1039.515	799.541
51.286	19.310	1038.480	799.068
52.301	19.247	1037.218	797.736
53.315	19.079	1036.414	796.267
54.330	18.995	1035.165	794.850
55.344	18.912	1034.468	793.860
56.359	18.919	1033.706	793.241
57.374	18.951	1032.891	792.691
58.388	18.738	1031.969	790.932
59.403	18.802	1030.862	790.307
60.417	18.783	1030.385	789.785
61.432	18.690	1029.661	788.735
62.447	18.527	1028.860	787.300
63.461	18.503	1027.824	786.328
64.476	18.548	1026.774	785.661
65.490	18.414	1026.095	784.460
66.505	18.532	1025.380	784.383
67.520	18.472	1025.083	783.812
68.534	18.577	1023.654	783.130
69.549	18.465	1023.539	782.462
70.563	18.417	1022.261	781.194
71.578	18.194	1021.575	779.586
72.593	18.130	1020.838	778.662
73.607	18.184	1020.137	778.307
74.622	18.363	1019.297	778.412
75.636	18.174	1019.325	777.502
76.651	18.394	1018.151	777.538
77.666	18.418	1017.423	777.023
78.680	18.376	1017.095	776.511
79.695	18.507	1016.456	776.551
80.709	18.609	1015.935	776.543
81.724	18.582	1015.532	776.045
82.739	18.851	1014.845	776.666
83.753	18.982	1014.184	776.685
84.768	19.414	1013.664	778.169
85.782	19.622	1012.615	778.231
86.797	19.486	1011.774	776.901
87.812	19.107	1010.899	774.458
88.826	19.451	1009.547	774.899
89.841	19.460	1009.107	774.534
90.855	19.498	1008.157	773.905
91.870	19.497	1007.746	773.517
92.884	19.389	1006.561	772.056
93.899	19.417	1005.442	771.253
94.914	19.545	1004.643	771.145
95.928	19.455	1004.191	770.326
96.943	19.293	1002.842	768.500
97.957	19.299	1001.570	767.485
98.972	19.280	1001.221	767.066
99.987	19.350	1000.399	766.680
101.001	19.366	999.058	765.656
102.016	19.255	998.433	764.615
103.030	19.436	997.719	764.805
104.045	19.352	996.939	763.765
105.060	19.170	995.802	762.021
106.074	18.984	994.438	760.089
107.089	18.699	993.461	758.017
108.103	18.599	992.800	757.004
109.118	18.483	992.017	755.827
110.133	18.525	990.996	755.168
111.147	18.515	989.992	754.291
112.162	18.674	989.213	754.331
113.176	18.700	988.719	754.001
114.191	18.810	987.929	753.818
115.206	18.711	987.279	752.821
116.220	18.757	986.186	752.122
117.235	18.659	985.100	750.795
118.249	18.694	984.576	750.484
119.264	18.544	983.937	749.275
120.279	18.499	982.893	748.218
121.293	18.491	981.989	747.430
122.308	18.339	981.153	746.063
123.322	18.267	980.374	745.093
124.337	18.246	979.188	744.032
125.352	18.301	978.452	743.647
126.366	18.361	976.850	742.623
127.381	18.362	976.097	741.992
128.395	18.423	975.930	742.063
129.410	18.456	974.917	741.368
130.424	18.554	974.150	741.142
131.439	18.674	973.039	740.753
132.454	18.762	972.831	740.907
133.468	18.772	971.498	739.871
134.483	18.736	970.545	738.925
135.497	18.812	969.916	738.706
136.512	18.663	968.959	737.272
137.527	18.792	968.480	737.397
138.541	18.801	967.617	736.710
139.556	18.932	966.980	736.723
140.570	19.074	966.502	736.902
141.585	19.153	966.068	736.841
142.600	19.360	964.846	736.732
143.614	19.380	964.376	736.393
144.629	19.396	963.869	736.008
145.643	19.218	962.839	734.398
146.658	19.064	961.443	732.614
147.673	18.966	960.024	731.049
148.687	18.869	959.260	729.992
149.702	18.782	958.346	728.861
150.716	18.885	957.404	728.516
151.731	18.816	956.870	727.756
152.746	18.835	956.301	727.337
153.760	19.005	955.586	727.451
154.775	19.228	954.923	727.824
155.789	19.063	954.397	726.661
156.804	19.241	953.324	726.531
157.819	19.249	953.046	726.289
158.833	19.359	952.926	726.595
159.848	19.552	951.748	726.446
160.862	19.275	950.660	724.385
161.877	18.988	949.419	722.170
162.892	18.838	948.281	720.615
163.906	18.848	947.172	719.747
164.921	18.750	946.638	718.868
165.935	18.988	945.384	718.848
166.950	19.025	944.989	718.639
167.964	19.172	943.807	718.288
168.979	19.061	942.813	717.007
169.994	18.995	942.097	716.126
171.008	18.938	941.834	715.624
172.023	19.366	941.082	716.767
173.037	19.452	940.401	716.543
174.052	19.307	939.361	715.086
175.067	18.749	938.839	712.310
176.081	18.766	938.171	711.810
177.096	18.921	937.704	712.035
178.110	18.913	936.678	711.159
179.125	18.913	936.567	711.015
180.140	18.985	936.422	711.137
181.154	19.203	935.706	711.432
182.169	19.421	935.268	711.934
183.183	19.414	934.694	711.408
184.198	19.368	933.987	710.618
185.213	19.460	933.122	710.274
186.227	19.443	932.877	709.954
187.242	19.555	932.518	710.081
188.256	19.606	931.660	709.573
189.271	19.606	931.069	709.061
190.286	19.069	929.971	705.957
191.300	18.688	928.563	703.267
192.315	18.690	927.679	702.545
193.329	18.835	927.157	702.680
194.344	19.004	926.939	703.142
195.359	19.090	926.299	702.946
196.373	19.259	925.781	703.178
197.388	19.437	925.717	703.795
198.402	19.579	925.287	703.988
199.417	19.646	924.690	703.742
200.432	19.965	923.837	704.330
201.446	19.968	923.739	704.204
202.461	20.178	922.742	704.235
203.475	19.937	922.026	702.647
204.490	19.672	920.787	700.566
205.504	19.515	920.066	699.321
206.519	19.469	919.732	698.820
207.534	19.328	919.104	697.709
208.548	19.504	918.144	697.631
209.563	19.436	918.009	697.190
210.577	19.577	917.537	697.338
211.592	19.804	916.554	697.447
212.607	19.964	915.605	697.306
213.621	19.708	915.012	695.763
214.636	19.734	914.264	695.238
215.650	19.680	913.621	694.469
216.665	19.799	913.415	694.732
217.680	19.924	912.915	694.788
218.694	19.990	912.131	694.398
219.709	19.928	911.489	693.596
220.723	19.762	910.980	692.487
221.738	19.762	909.827	691.549
222.753	19.852	909.307	691.450
223.767	19.958	909.038	691.608
224.782	20.180	908.163	691.767
225.796	20.194	907.874	691.541
226.811	20.025	907.024	690.158
227.826	19.763	906.538	688.684
228.840	19.762	905.360	687.727
229.855	19.750	904.414	686.900
230.869	19.768	903.723	686.383
231.884	19.676	903.433	685.739
232.899	19.770	902.179	685.100
233.913	19.566	902.005	684.096
234.928	19.434	901.105	682.831
235.942	19.383	900.508	682.117
236.957	19.603	899.566	682.213
237.972	19.494	899.657	681.791
238.986	19.429	898.954	680.940
240.001	19.584	898.268	680.971
241.015	19.786	897.319	680.986
242.030	19.767	897.076	680.669
243.045	19.969	896.226	680.758
244.059	19.679	895.982	679.373
245.074	19.713	895.396	678.999
246.088	20.122	895.044	680.278
247.103	20.112	894.369	679.666
248.117	20.273	894.143	680.066
249.132	20.581	893.927	681.050
250.147	20.684	893.402	680.992
251.161	20.772	892.845	680.850
252.176	20.746	892.394	680.344
253.190	20.803	891.417	679.762
254.205	20.927	890.802	679.717
255.220	20.779	890.229	678.644
256.234	20.748	889.460	677.877
257.249	20.805	888.541	677.338
258.263	20.693	888.027	676.452
259.278	20.732	887.315	676.000
260.293	20.755	887.168	675.915
261.307	20.840	886.597	675.753
262.322	20.955	885.685	675.443
263.336	20.950	884.736	674.641
264.351	20.956	884.418	674.361
265.366	20.890	884.233	673.903
266.380	20.884	883.358	673.156
267.395	20.795	882.390	672.013
268.409	20.890	881.268	671.466
269.424	20.688	880.859	670.315
270.439	20.747	879.689	669.596
271.453	20.702	878.766	668.660
272.468	20.619	878.665	668.203
273.482	20.620	878.257	667.839
274.497	20.516	877.927	667.131
275.512	20.546	877.169	666.610
276.526	20.566	876.580	666.180
277.541	20.739	876.273	666.551
278.555	20.769	876.184	666.538
279.570	21.152	875.298	667.269
280.585	21.077	874.166	666.063
281.599	20.802	873.188	664.208
282.614	20.546	872.930	662.978
283.628	20.663	872.209	662.816
284.643	20.748	871.568	662.594
285.657	20.755	870.917	662.068
286.672	20.528	870.715	660.994
287.687	20.709	869.931	661.026
288.701	20.725	869.389	660.617
289.716	20.897	868.611	660.619
290.730	20.783	868.326	659.914
291.745	21.061	867.483	660.266
292.760	20.903	867.682	659.760
293.774	21.269	866.152	659.920
294.789	20.969	865.682	658.372
295.803	20.841	865.053	657.352
296.818	20.790	863.885	656.215
297.833	20.774	863.558	655.849
298.847	20.789	863.258	655.620
299.862	20.758	863.199	655.399
300.876	21.036	862.126	655.573
301.891	21.252	861.351	655.734
302.906	21.200	861.268	655.421
303.920	21.603	860.614	656.374
304.935	21.318	860.741	655.346
305.949	21.268	859.499	654.154
306.964	21.120	858.668	652.911
307.979	21.339	858.302	653.392
308.993	21.254	858.109	652.872
310.008	21.311	857.428	652.505
311.022	21.309	856.468	651.711
312.037	21.120	855.752	650.405
313.052	20.946	855.077	649.185
314.066	20.813	854.415	648.131
315.081	20.902	853.882	648.001
316.095	20.870	853.052	647.194
317.110	20.748	853.002	646.647
318.125	20.789	852.252	646.174
319.139	20.790	851.861	645.821
320.154	20.924	851.516	646.001
321.168	20.880	851.010	645.397
322.183	20.922	850.442	645.066
323.197	21.084	849.916	645.209
324.212	20.942	849.688	644.451
325.227	20.935	848.620	643.559
326.241	20.917	847.984	642.954
327.256	20.887	847.566	642.469
328.270	20.944	846.909	642.122
329.285	20.781	846.414	641.090
330.300	20.932	845.744	641.083
331.314	21.064	845.657	641.444
332.329	21.283	844.826	641.563
333.343	21.324	844.844	641.670
334.358	21.200	844.550	640.936
335.373	21.273	844.049	640.766
336.387	21.302	843.584	640.464
337.402	21.367	843.744	640.766
338.416	21.668	843.073	641.302
339.431	21.889	842.790	641.839
340.446	21.843	842.323	641.257
341.460	21.720	842.444	640.841
342.475	21.862	841.883	640.877
343.489	21.995	841.304	640.866
344.504	22.042	840.903	640.676
345.519	22.137	840.213	640.440
346.533	22.052	839.687	639.671
347.548	21.806	838.769	638.022
348.562	21.632	837.974	636.727
349.577	21.302	837.783	635.328
350.592	21.334	836.812	634.652
351.606	21.272	836.191	633.898
352.621	21.090	835.946	632.997
353.635	21.354	835.036	633.207
354.650	21.481	834.164	632.952
355.665	21.592	833.885	633.082
356.679	21.541	833.471	632.530
357.694	21.448	832.324	631.269
358.708	21.713	831.618	631.631
359.723	21.674	831.253	631.157
360.738	21.669	830.777	630.723
361.752	21.657	830.573	630.469
362.767	21.743	830.014	630.296
363.781	21.948	829.627	630.687
364.796	22.198	829.222	631.219
365.810	22.299	829.066	631.405
366.825	22.254	828.438	630.712
367.840	22.138	828.052	629.945
368.854	22.187	827.135	629.369
369.869	22.142	826.765	628.871
370.883	22.027	826.435	628.151
371.898	22.131	826.518	628.532
372.913	22.051	826.259	627.994
373.927	22.064	825.500	627.408
374.942	22.148	824.878	627.179
375.956	22.262	824.479	627.226
376.971	22.320	823.952	626.976
377.986	22.465	823.476	627.075
379.000	22.451	823.025	626.625
380.015	22.525	822.465	626.407
381.029	22.234	822.053	625.003
382.044	22.350	821.387	624.853
383.059	22.554	820.713	625.008
384.073	22.427	819.978	623.946
385.088	22.179	819.179	622.405
386.102	22.126	818.224	621.437
387.117	22.042	818.068	620.965
388.132	22.062	817.183	620.308
389.146	22.169	816.829	620.362
390.161	22.382	816.626	620.904
391.175	22.357	816.053	620.327
392.190	22.246	815.618	619.549
393.205	22.198	814.927	618.802
394.219	22.169	814.512	618.329
395.234	21.961	814.273	617.364
396.248	21.841	813.613	616.386
397.263	21.760	812.975	615.562
398.278	21.806	812.626	615.404
399.292	21.765	812.607	615.192
400.307	21.739	811.655	614.327
401.321	21.917	811.332	614.651
402.336	21.954	811.062	614.522
403.350	22.058	810.843	614.665
404.365	22.234	810.340	614.845
405.380	22.466	809.729	615.137
406.394	22.548	809.779	615.408
407.409	22.637	809.329	615.320
408.423	22.644	809.058	615.085
409.438	22.899	808.093	615.185
410.453	22.864	808.011	614.948
411.467	22.785	807.775	614.439
412.482	22.963	807.281	614.629
413.496	22.866	806.923	613.962
414.511	23.084	806.614	614.432
415.526	22.789	805.972	612.864
416.540	22.719	805.216	611.993
417.555	22.818	805.084	612.180
418.569	22.838	804.887	612.046
419.584	22.891	804.068	611.553
420.599	22.860	803.489	610.950
421.613	165.075	1370.252	1794.954
422.628	143.585	1452.848	1795.042
