DTS Sentinel unit serial number:	SN413079Multiplexer serial number:	ORYXHardware model number:	OX4-SRSoftware version number:	ORYX F/W v4.00 Oryx Data Collector v3.7.2.0data status	okinstallation	princeton_trtdifferential loss correction	single-endedforward channel	channel 1reverse channel	N/Adate	2019/09/17time	06:10:35forward acquisition time	60.00reverse acquisition time	0.00gamma	496.2192k internal	0.2326k external	0.2326temperature offset calibration	0.9969default loss term (dB/km)	0.3790temperature slope calibration	1.0000multiplexer offset coefficient	1.0000multiplexer slope coefficient	1.0000fibre end	0.00T internal ref (°C)	28.56T ext. ref 1 (°C)	0.13T ext. ref 2 (°C)	21.99length (m)	temperature (°C)	Stokes	anti-Stokes-747.200	16.291	0.373	0.297
-746.185	-200.000	0.027	0.166
-745.171	-200.000	-0.011	-0.120
-744.156	-4.277	0.146	0.102
-743.142	84.935	0.128	0.141
-742.127	-200.000	-0.071	0.317
-741.112	-200.000	0.018	0.145
-740.098	-57.370	-0.295	0.131
-739.083	-128.317	0.034	0.005
-738.069	-200.000	-0.040	0.184
-737.054	-121.926	-0.159	-0.026
-736.039	-86.484	-0.211	0.065
-735.025	800.000	-0.037	0.138
-734.010	-83.298	-0.176	0.057
-732.996	-55.282	-0.126	-0.057
-731.981	-60.354	0.174	-0.075
-730.966	-62.335	-0.371	0.156
-729.952	11.262	0.237	0.183
-728.937	-95.652	-0.190	-0.051
-727.923	-82.746	-0.200	0.065
-726.908	-126.710	-0.284	-0.042
-725.894	-114.224	-0.162	-0.032
-724.879	-124.687	-0.418	-0.065
-723.864	313.799	0.101	0.191
-722.850	-17.379	-0.106	-0.067
-721.835	109.856	-0.075	-0.091
-720.821	-78.254	0.218	0.075
-719.806	-78.021	-0.181	0.063
-718.791	-71.083	-0.295	-0.112
-717.777	-200.000	-0.032	-0.179
-716.762	611.878	0.048	-0.122
-715.748	-200.000	-0.095	-0.496
-714.733	-6.938	0.161	0.110
-713.718	112.764	0.196	0.240
-712.704	761.086	-0.115	0.314
-711.689	-26.704	0.065	0.038
-710.675	305.935	0.085	0.159
-709.660	79.468	-0.194	-0.210
-708.645	-96.364	0.374	0.100
-707.631	379.490	0.048	-0.099
-706.616	11.523	0.074	0.057
-705.602	543.718	0.093	0.224
-704.587	117.539	-0.128	0.159
-703.572	-30.398	0.303	-0.173
-702.558	-116.864	0.376	-0.069
-701.543	-200.000	0.032	0.235
-700.529	-88.503	-0.277	0.083
-699.514	333.415	0.102	0.198
-698.499	-97.593	-0.110	-0.029
-697.485	241.735	-0.144	-0.243
-696.470	-48.666	0.176	-0.085
-695.456	-69.438	0.372	-0.144
-694.441	41.832	0.215	-0.196
-693.426	1.032	-0.147	0.106
-692.412	414.484	0.084	0.181
-691.397	-85.452	-0.209	0.066
-690.383	60.899	-0.047	0.047
-689.368	415.018	0.028	-0.061
-688.354	68.687	0.229	-0.236
-687.339	-200.000	-0.001	-0.070
-686.324	32.171	-0.119	0.103
-685.310	-95.873	-0.178	0.048
-684.295	31.150	-0.114	-0.098
-683.281	-200.000	0.006	-0.151
-682.266	-93.783	-0.237	0.066
-681.251	145.641	-0.145	-0.195
-680.237	149.571	0.082	-0.112
-679.222	-70.548	-0.039	0.015
-678.208	-200.000	-0.518	0.002
-677.193	-200.000	-0.048	-0.322
-676.178	-41.869	-0.131	-0.068
-675.164	-82.776	0.382	-0.124
-674.149	-91.547	-0.265	-0.076
-673.135	0.834	-0.067	0.048
-672.120	67.316	0.128	-0.131
-671.105	185.421	0.181	-0.270
-670.091	28.156	0.190	-0.161
-669.076	62.544	0.226	-0.227
-668.062	-82.688	-0.402	-0.131
-667.047	-200.000	-0.051	0.259
-666.032	46.189	0.142	-0.132
-665.018	-76.792	0.283	0.099
-664.003	190.340	0.142	-0.214
-662.989	-14.255	0.121	-0.078
-661.974	-7.971	-0.461	-0.313
-660.959	92.901	-0.267	-0.304
-659.945	-200.000	-0.015	-0.086
-658.930	253.388	0.068	0.117
-657.916	65.397	0.208	0.211
-656.901	-126.529	-0.372	-0.056
-655.886	-42.496	-0.257	0.132
-654.872	-200.000	-0.003	0.053
-653.857	668.609	-0.074	-0.192
-652.843	131.971	0.193	0.250
-651.828	-90.061	0.135	-0.039
-650.814	-200.000	0.006	0.342
-649.799	-200.000	-0.028	-0.483
-648.784	10.748	-0.477	0.366
-647.770	-101.631	-0.262	0.064
-646.755	-108.910	-0.186	0.040
-645.741	132.370	-0.230	0.298
-644.726	-21.548	-0.112	0.069
-643.711	-200.000	0.031	0.215
-642.697	12.882	0.242	-0.188
-641.682	281.490	-0.060	-0.109
-640.668	64.034	-0.163	-0.165
-639.653	130.631	-0.182	-0.235
-638.638	-200.000	-0.038	-0.186
-637.624	-102.705	-0.284	0.068
-636.609	-94.066	0.134	0.037
-635.595	425.888	0.029	-0.063
-634.580	376.297	0.043	-0.089
-633.565	-131.084	0.234	0.031
-632.551	-151.000	0.134	0.010
-631.536	-67.537	0.096	-0.038
-630.522	-83.165	0.122	-0.039
-629.507	-4.230	-0.339	-0.235
-628.492	-200.000	0.005	-0.044
-627.478	621.238	0.049	-0.123
-626.463	-110.314	-0.308	-0.064
-625.449	44.915	-0.312	-0.288
-624.434	662.158	-0.088	-0.229
-623.419	-200.000	0.028	0.188
-622.405	800.000	0.073	-0.209
-621.390	59.321	-0.364	0.360
-620.376	-44.714	0.147	0.074
-619.361	-129.222	-0.330	-0.046
-618.346	-64.841	-0.152	0.062
-617.332	-105.353	0.313	0.072
-616.317	-85.675	0.060	0.019
-615.303	-73.350	0.619	0.227
-614.288	100.137	-0.256	0.298
-613.273	-200.000	-0.057	0.656
-612.259	-68.786	0.255	-0.099
-611.244	554.806	0.158	0.382
-610.230	-54.936	0.170	0.077
-609.215	-200.000	-0.019	-0.226
-608.201	-144.679	-0.308	0.028
-607.186	-110.622	0.054	0.011
-606.171	800.000	0.115	-0.361
-605.157	-51.590	-0.366	0.171
-604.142	800.000	0.144	0.490
-603.128	566.581	-0.126	-0.307
-602.113	130.901	-0.230	-0.296
-601.098	-200.000	0.031	0.153
-600.084	-200.000	0.042	0.322
-599.069	-200.000	-0.046	0.335
-598.055	-200.000	-0.007	0.127
-597.040	480.743	0.049	-0.112
-596.025	-11.304	-0.179	0.118
-595.011	-29.497	-0.111	0.064
-593.996	248.635	-0.258	-0.439
-592.982	-69.405	0.302	-0.116
-591.967	-91.989	0.206	0.058
-590.952	-89.662	0.087	0.026
-589.938	295.488	0.211	-0.387
-588.923	-200.000	-0.003	-0.106
-587.909	282.406	-0.175	-0.314
-586.894	-96.467	0.356	0.094
-585.879	99.187	0.088	-0.101
-584.865	-200.000	0.035	-0.376
-583.850	-200.000	-0.065	-0.398
-582.836	-68.948	0.259	-0.100
-581.821	-83.577	-0.230	-0.074
-580.806	187.442	-0.119	-0.178
-579.792	19.431	-0.139	0.112
-578.777	-200.000	0.045	-0.259
-577.763	-200.000	-0.034	0.227
-576.748	496.777	0.059	-0.135
-575.733	7.763	-0.268	-0.201
-574.719	237.646	0.039	0.065
-573.704	-200.000	-0.003	-0.024
-572.690	226.506	-0.170	0.276
-571.675	32.561	0.260	-0.225
-570.661	268.346	0.122	0.215
-569.646	-135.805	-0.186	-0.022
-568.631	-193.986	0.156	-0.001
-567.617	-200.000	-0.003	0.241
-566.602	-200.000	0.033	0.306
-565.588	-66.644	-0.282	-0.112
-564.573	-79.762	0.244	0.082
-563.558	-40.992	-0.202	0.104
-562.544	-200.000	-0.012	-0.095
-561.529	-200.000	-0.024	-0.211
-560.515	159.476	-0.273	-0.380
-559.500	-200.000	0.011	-0.173
-558.485	38.055	-0.290	-0.259
-557.471	84.162	-0.231	-0.252
-556.456	527.109	0.055	0.130
-555.442	98.204	-0.071	0.082
-554.427	-200.000	0.028	-0.209
-553.412	-200.000	-0.032	-0.472
-552.398	-9.817	-0.150	0.100
-551.383	728.635	-0.048	-0.128
-550.369	82.266	-0.464	-0.503
-549.354	-4.353	-0.086	0.059
-548.339	309.609	0.076	-0.143
-547.325	-200.000	-0.023	-0.195
-546.310	380.646	-0.057	-0.117
-545.296	-69.643	0.304	-0.116
-544.281	84.799	0.132	0.145
-543.266	-87.148	-0.235	-0.071
-542.252	-120.590	-0.076	-0.013
-541.237	-73.243	-0.471	-0.172
-540.223	-88.334	0.250	0.075
-539.208	150.556	0.204	-0.277
-538.193	-193.936	0.129	0.001
-537.179	6.525	0.213	-0.158
-536.164	-200.000	0.041	-0.262
-535.150	-76.975	0.205	-0.072
-534.135	-90.330	-0.176	0.051
-533.121	208.976	-0.178	-0.279
-532.106	-87.814	-0.064	-0.019
-531.091	800.000	-0.087	-0.257
-530.077	39.796	0.133	-0.119
-529.062	-200.000	0.041	0.460
-528.048	70.495	0.139	0.143
-527.033	231.357	0.107	0.175
-526.018	213.466	0.017	0.027
-525.004	384.290	0.078	0.161
-523.989	-32.784	0.317	-0.176
-522.975	35.864	-0.161	0.141
-521.960	-131.081	0.302	0.040
-520.945	39.191	-0.360	0.322
-519.931	154.692	-0.054	0.074
-518.916	115.012	-0.199	0.243
-517.902	0.754	0.146	-0.104
-516.887	-200.000	0.034	-0.374
-515.872	120.493	-0.182	-0.226
-514.858	800.000	-0.138	-0.384
-513.843	-200.000	0.013	-0.379
-512.829	445.228	-0.056	-0.122
-511.814	-29.735	0.368	-0.210
-510.799	185.690	-0.130	0.192
-509.785	532.911	-0.070	-0.165
-508.770	-14.076	-0.074	0.048
-507.756	-44.993	-0.395	-0.197
-506.741	-3.184	-0.218	-0.152
-505.726	-200.000	0.000	0.017
-504.712	84.846	0.115	0.126
-503.697	-200.000	-0.000	-0.209
-502.683	800.000	-0.060	0.178
-501.668	-54.072	-0.149	-0.068
-500.653	666.034	0.116	-0.298
-499.639	-32.210	-0.153	0.085
-498.624	-200.000	-0.020	-0.252
-497.610	-152.464	0.020	-0.001
-496.595	24.631	-0.221	0.183
-495.581	504.551	0.076	0.176
-494.566	34.907	-0.140	-0.122
-493.551	-101.853	0.279	0.067
-492.537	44.985	0.106	-0.098
-491.522	-200.000	-0.055	0.248
-490.508	-154.330	0.054	0.004
-489.493	800.000	-0.054	0.204
-488.478	407.921	0.144	0.305
-487.464	-148.042	-0.368	-0.031
-486.449	-60.472	0.303	-0.129
-485.435	-5.310	0.236	-0.162
-484.420	-97.215	-0.241	0.063
-483.405	-200.000	0.006	0.160
-482.391	16.101	0.185	0.146
-481.376	341.033	0.081	0.158
-480.362	-200.000	-0.005	0.268
-479.347	-5.001	-0.103	0.071
-478.332	-142.487	0.409	-0.040
-477.318	-200.000	-0.006	0.296
-476.303	521.492	-0.106	-0.248
-475.289	800.000	-0.072	-0.198
-474.274	-74.993	-0.067	0.024
-473.259	-59.311	0.101	-0.043
-472.245	201.247	-0.114	0.175
-471.230	-23.987	-0.352	0.210
-470.216	-200.000	0.031	0.401
-469.201	-200.000	0.015	0.160
-468.186	-1.250	-0.081	-0.057
-467.172	65.929	-0.139	-0.140
-466.157	-200.000	-0.034	-0.299
-465.143	100.103	0.212	-0.246
-464.128	-200.000	-0.006	0.242
-463.113	165.152	-0.145	0.204
-462.099	428.286	-0.025	0.055
-461.084	4.757	0.176	-0.129
-460.070	-188.463	-0.244	0.003
-459.055	-150.492	0.243	0.019
-458.040	166.604	-0.142	-0.200
-457.026	123.613	-0.218	0.272
-456.011	184.991	0.068	-0.101
-454.997	-50.974	-0.262	0.123
-453.982	146.381	-0.099	-0.132
-452.968	-36.611	0.154	-0.083
-451.953	-30.151	0.234	0.133
-450.938	-200.000	-0.022	0.107
-449.924	183.913	0.150	-0.221
-448.909	-200.000	-0.052	-0.250
-447.895	-200.000	0.040	0.221
-446.880	180.707	0.105	-0.154
-445.865	42.138	-0.106	0.096
-444.851	38.901	-0.128	0.114
-443.836	800.000	0.168	0.594
-442.822	-126.344	0.378	-0.056
-441.807	266.503	-0.158	-0.274
-440.792	-200.000	0.013	-0.222
-439.778	-200.000	-0.012	0.135
-438.763	-200.000	0.061	-0.584
-437.749	-76.931	0.314	0.109
-436.734	325.364	0.116	0.220
-435.719	-7.552	0.243	0.164
-434.705	800.000	-0.076	0.248
-433.690	-200.000	-0.024	0.380
-432.676	-200.000	0.015	0.241
-431.661	-31.497	-0.128	0.072
-430.646	206.992	-0.214	-0.332
-429.632	192.317	-0.063	-0.095
-428.617	-200.000	0.038	0.180
-427.603	800.000	0.037	-0.120
-426.588	800.000	0.079	0.245
-425.573	124.819	-0.155	-0.195
-424.559	-16.860	0.206	0.129
-423.544	340.546	0.081	-0.158
-422.530	575.213	-0.107	-0.261
-421.515	-200.000	-0.047	0.262
-420.500	-118.466	0.293	-0.052
-419.486	-61.779	0.337	0.140
-418.471	66.768	0.119	0.121
-417.457	-156.767	0.078	-0.005
-416.442	-37.436	0.111	0.059
-415.428	333.466	-0.089	0.171
-414.413	-200.000	0.046	-0.436
-413.398	154.731	0.041	0.056
-412.384	800.000	0.078	0.234
-411.369	-109.520	-0.245	0.052
-410.355	-146.860	-0.179	0.015
-409.340	230.896	-0.167	0.273
-408.325	-200.000	0.050	0.238
-407.311	209.826	0.089	0.139
-406.296	-10.933	0.185	0.122
-405.282	33.735	-0.104	0.090
-404.267	-18.788	0.134	-0.083
-403.252	-60.619	-0.158	-0.067
-402.238	79.199	0.114	0.121
-401.223	800.000	-0.040	0.154
-400.209	-200.000	0.033	-0.319
-399.194	648.594	0.050	0.126
-398.179	-200.000	-0.011	0.297
-397.165	-200.000	-0.039	-0.176
-396.150	478.432	-0.191	-0.430
-395.136	177.585	-0.113	0.163
-394.121	306.649	-0.007	0.013
-393.106	89.608	-0.251	-0.279
-392.092	171.530	0.065	0.094
-391.077	-159.376	0.442	0.025
-390.063	-149.843	0.419	0.033
-389.048	216.486	0.084	0.133
-388.033	-131.853	-0.229	-0.030
-387.019	-200.000	0.043	-0.262
-386.004	0.132	-0.107	-0.076
-384.990	-4.303	0.181	0.125
-383.975	79.629	0.067	-0.071
-382.960	-200.000	0.008	-0.081
-381.946	18.399	0.362	0.288
-380.931	58.511	0.225	-0.220
-379.917	396.762	-0.028	-0.057
-378.902	74.660	0.227	0.238
-377.888	-58.394	0.151	0.065
-376.873	9.534	-0.099	0.074
-375.858	-122.258	0.352	0.057
-374.844	36.297	-0.039	0.034
-373.829	-82.295	0.343	-0.111
-372.815	222.357	0.171	-0.274
-371.800	800.000	0.017	0.055
-370.785	680.054	0.057	-0.147
-369.771	800.000	-0.031	-0.106
-368.756	5.960	-0.186	0.137
-367.742	-55.434	-0.208	-0.093
-366.727	-9.640	-0.125	-0.083
-365.712	39.183	0.108	-0.096
-364.698	150.313	0.141	0.190
-363.683	-158.242	0.140	-0.008
-362.669	-200.000	-0.002	-0.151
-361.654	-3.910	-0.260	0.179
-360.639	-72.810	0.212	0.077
-359.625	-52.724	-0.175	0.080
-358.610	231.699	-0.021	0.034
-357.596	-54.216	-0.029	0.013
-356.581	72.866	-0.144	-0.150
-355.566	413.987	0.203	0.430
-354.552	59.191	0.164	0.161
-353.537	800.000	0.027	0.092
-352.523	-89.503	0.145	-0.042
-351.508	-31.361	0.160	-0.089
-350.493	-200.000	-0.024	-0.173
-349.479	38.068	-0.101	-0.089
-348.464	-200.000	-0.058	0.355
-347.450	-200.000	0.004	0.130
-346.435	800.000	0.043	-0.139
-345.420	264.172	0.057	0.099
-344.406	110.206	-0.043	-0.051
-343.391	-167.779	0.067	-0.003
-342.377	-120.876	-0.212	-0.035
-341.362	-54.330	-0.063	0.029
-340.348	-137.516	0.161	0.018
-339.333	226.199	0.110	-0.177
-338.318	-200.000	0.183	-0.000
-337.304	320.710	0.090	0.171
-336.289	146.473	-0.177	0.236
-335.275	93.332	-0.030	-0.034
-334.260	-200.000	0.002	0.184
-333.245	-103.046	-0.273	0.064
-332.231	415.971	-0.078	-0.165
-331.216	-41.875	0.044	-0.023
-330.202	-66.997	-0.224	0.088
-329.187	-101.642	-0.259	0.063
-328.172	-200.000	0.025	-0.122
-327.158	-48.216	-0.373	-0.178
-326.143	236.391	0.208	-0.342
-325.129	108.561	-0.049	0.058
-324.114	-110.876	0.218	-0.045
-323.099	-185.131	0.420	-0.006
-322.085	286.020	0.125	0.224
-321.070	-178.083	-0.301	-0.007
-320.056	-26.317	-0.365	-0.213
-319.041	603.441	0.039	0.097
-318.026	28.303	-0.093	-0.078
-317.012	156.473	-0.085	0.116
-315.997	-70.764	-0.269	-0.101
-314.983	123.373	-0.088	0.109
-313.968	43.160	0.251	0.227
-312.953	-69.963	-0.162	0.061
-311.939	519.068	0.033	0.078
-310.924	285.944	-0.104	0.186
-309.910	-200.000	-0.039	-0.299
-308.895	267.657	0.201	-0.349
-307.880	122.096	-0.103	0.127
-306.866	14.556	0.345	0.267
-305.851	24.309	-0.196	0.160
-304.837	323.987	-0.089	0.168
-303.822	31.690	0.351	-0.299
-302.807	-39.766	0.201	0.104
-301.793	-200.000	-0.016	0.157
-300.778	189.666	-0.209	-0.311
-299.764	-11.236	0.063	0.041
-298.749	213.730	-0.103	-0.161
-297.735	371.876	-0.077	-0.155
-296.720	31.164	-0.166	-0.141
-295.705	170.374	0.154	-0.218
-294.691	-30.342	0.184	-0.104
-293.676	169.188	0.098	0.138
-292.662	297.782	-0.044	0.080
-291.647	-15.506	0.167	-0.106
-290.632	440.930	-0.065	0.140
-289.618	-0.296	0.412	-0.290
-288.603	-20.147	0.094	-0.057
-287.589	57.000	0.110	0.106
-286.574	42.977	0.211	-0.191
-285.559	-53.644	-0.154	-0.070
-284.545	-127.770	-0.348	-0.050
-283.530	-83.347	0.279	-0.089
-282.516	205.637	0.095	0.146
-281.501	-153.593	-0.435	0.030
-280.486	-193.805	0.352	-0.003
-279.472	263.997	0.182	-0.314
-278.457	223.281	-0.090	0.144
-277.443	-54.717	-0.183	0.082
-276.428	-200.000	-0.019	0.152
-275.413	35.982	0.356	0.310
-274.399	-200.000	0.007	-0.124
-273.384	74.476	0.197	-0.205
-272.370	386.184	-0.082	-0.167
-271.355	88.293	0.016	-0.017
-270.340	-153.255	0.175	-0.012
-269.326	-46.359	0.109	0.053
-268.311	168.326	0.078	-0.111
-267.297	-200.000	0.026	0.425
-266.282	255.036	-0.104	0.176
-265.267	318.655	0.130	0.244
-264.253	136.026	-0.194	-0.250
-263.238	-184.459	-0.142	-0.002
-262.224	260.734	-0.188	-0.322
-261.209	-86.669	-0.032	-0.010
-260.195	93.947	-0.118	-0.132
-259.180	-200.000	0.004	-0.293
-258.165	694.017	0.116	0.301
-257.151	-200.000	0.027	0.135
-256.136	-147.298	-0.190	-0.016
-255.122	674.916	-0.108	-0.278
-254.107	-83.840	-0.174	-0.055
-253.092	480.776	0.083	0.187
-252.078	28.663	-0.159	0.133
-251.063	800.000	0.072	-0.235
-250.049	1.862	0.200	0.143
-249.034	303.700	-0.283	0.519
-248.019	-41.786	-0.371	-0.188
-247.005	138.478	0.114	-0.148
-245.990	501.273	0.076	-0.175
-244.976	-139.175	-0.158	-0.017
-243.961	-200.000	0.018	-0.379
-242.946	-70.631	0.218	-0.081
-241.932	198.062	0.160	0.242
-240.917	-200.000	0.021	0.145
-239.903	-49.041	0.049	-0.023
-238.888	182.621	0.201	0.293
-237.873	52.227	0.084	-0.080
-236.859	-60.343	0.339	0.143
-235.844	54.445	-0.230	0.219
-234.830	-105.450	-0.129	0.029
-233.815	109.756	-0.078	-0.093
-232.800	-200.000	-0.028	0.516
-231.786	800.000	-0.110	0.462
-230.771	267.513	0.191	0.330
-229.757	-200.000	0.014	-0.158
-228.742	-91.116	0.219	-0.062
-227.727	-18.250	0.122	0.076
-226.713	139.299	0.252	-0.327
-225.698	800.000	-0.122	-0.370
-224.684	230.275	0.149	0.241
-223.669	63.922	0.163	0.162
-222.655	0.686	0.285	-0.202
-221.640	-200.000	0.011	0.150
-220.625	761.469	0.086	0.232
-219.611	-7.246	-0.188	0.126
-218.596	800.000	-0.022	-0.087
-217.582	9.293	0.224	0.167
-216.567	-125.686	0.205	-0.031
-215.552	-79.080	-0.083	0.028
-214.538	-200.000	-0.033	-0.379
-213.523	196.844	0.032	0.048
-212.509	-136.929	-0.132	0.015
-211.494	800.000	0.020	0.063
-210.479	-200.000	-0.006	0.390
-209.465	800.000	-0.070	0.196
-208.450	-106.494	0.041	-0.009
-207.436	800.000	-0.116	0.476
-206.421	-88.924	0.098	-0.029
-205.406	108.889	-0.020	0.024
-204.392	117.736	0.075	0.091
-203.377	-166.518	-0.494	0.020
-202.363	367.803	-0.106	0.212
-201.348	-200.000	-0.034	0.170
-200.333	164.504	0.094	-0.130
-199.319	-48.871	-0.495	0.234
-198.304	-144.064	-0.260	0.024
-197.290	-200.000	-0.005	-0.305
-196.275	-2.476	-0.303	-0.210
-195.260	-189.935	-0.203	0.002
-194.246	-9.735	0.354	0.233
-193.231	-145.720	-0.187	-0.016
-192.217	570.962	0.076	-0.183
-191.202	275.585	-0.133	-0.233
-190.187	-200.000	-0.070	0.435
-189.173	-108.736	-0.236	-0.050
-188.158	-200.000	0.001	0.039
-187.144	-200.000	0.017	-0.089
-186.129	-200.000	-0.002	0.388
-185.114	-94.400	0.073	-0.020
-184.100	553.904	-0.089	0.211
-183.085	-1.130	0.320	0.223
-182.071	-7.428	-0.261	-0.174
-181.056	-40.943	0.074	0.038
-180.042	639.514	-0.036	0.090
-179.027	-200.000	-0.020	-0.300
-178.012	-50.482	-0.355	0.165
-176.998	388.683	0.095	-0.195
-175.983	-145.692	-0.181	-0.016
-174.969	765.294	-0.039	-0.104
-173.954	75.877	0.078	0.081
-172.939	124.310	-0.017	-0.021
-171.925	178.952	-0.182	-0.263
-170.910	-31.374	0.223	0.124
-169.896	-30.413	0.320	0.179
-168.881	-200.000	-0.032	0.142
-167.866	162.147	0.035	-0.049
-166.852	-200.000	-0.004	0.094
-165.837	720.268	-0.055	-0.145
-164.823	353.620	-0.124	-0.244
-163.808	647.273	-0.040	0.102
-162.793	800.000	-0.066	-0.218
-161.779	147.507	0.086	-0.114
-160.764	-35.601	0.256	-0.137
-159.750	-35.728	0.216	-0.116
-158.735	55.992	0.206	-0.197
-157.720	800.000	-0.040	-0.141
-156.706	23.150	0.353	0.286
-155.691	-165.042	0.191	-0.008
-154.677	-200.000	0.037	0.341
-153.662	85.856	-0.176	0.190
-152.647	433.242	0.022	0.047
-151.633	653.691	0.088	-0.221
-150.618	-200.000	0.001	-0.166
-149.604	-200.000	-0.014	-0.181
-148.589	-136.234	-0.246	-0.028
-147.574	-153.330	-0.284	-0.020
-146.560	-200.000	0.030	0.162
-145.545	-200.000	0.030	0.160
-144.531	-40.469	-0.145	-0.074
-143.516	-14.586	0.073	0.047
-142.502	800.000	-0.033	0.095
-141.487	-200.000	0.078	0.364
-140.472	-125.905	0.172	0.026
-139.458	96.118	0.289	-0.326
-138.443	-13.049	0.118	-0.075
-137.429	-164.728	-0.119	0.005
-136.414	-75.730	-0.568	-0.198
-135.399	-200.000	-0.004	-0.206
-134.385	800.000	0.035	-0.114
-133.370	-200.000	-0.000	0.141
-132.356	-98.276	-0.098	0.025
-131.341	51.813	-0.381	0.357
-130.326	192.179	0.093	-0.138
-129.312	31.599	0.113	0.095
-128.297	-200.000	-0.031	-0.257
-127.283	448.714	-0.119	0.257
-126.268	41.242	0.223	0.198
-125.253	166.144	-0.235	0.327
-124.239	-174.481	0.277	-0.008
-123.224	-35.460	0.045	-0.024
-122.210	-149.492	0.263	0.021
-121.195	406.158	0.108	0.225
-120.180	-63.565	0.104	0.042
-119.166	-99.173	-0.142	-0.035
-118.151	800.000	0.080	-0.254
-117.137	-111.734	-0.031	-0.006
-116.122	201.521	0.100	0.152
-115.107	52.589	0.179	-0.168
-114.093	-111.099	-0.075	0.015
-113.078	-105.618	-0.183	0.041
-112.064	0.697	-0.166	-0.117
-111.049	59.329	0.277	0.269
-110.034	-110.291	-0.163	0.033
-109.020	474.370	0.068	0.151
-108.005	-177.610	-0.293	0.007
-106.991	-200.000	-0.004	0.114
-105.976	77.388	-0.061	-0.064
-104.962	-135.546	0.457	0.053
-103.947	800.000	0.061	-0.263
-102.932	-200.000	0.012	0.060
-101.918	-118.673	-0.150	0.026
-100.903	-127.393	0.149	-0.021
-99.889	188.090	-0.043	0.063
-98.874	-78.113	0.228	-0.077
-97.859	169.890	-0.090	0.127
-96.845	75.334	0.184	0.191
-95.830	800.000	-0.083	0.254
-94.816	-91.135	0.234	0.066
-93.801	112.486	-0.302	0.359
-92.786	-170.549	0.362	0.012
-91.772	702.608	0.047	0.123
-90.757	486.898	-0.185	0.415
-89.743	-200.000	-0.011	0.350
-88.728	220.660	-0.121	-0.191
-87.713	-44.286	0.182	0.090
-86.699	262.496	0.256	0.437
-85.684	-85.268	-0.218	0.067
-84.670	-13.344	0.019	0.012
-83.655	-134.977	0.134	0.016
-82.640	-149.215	0.029	-0.002
-81.626	-137.110	-0.051	0.006
-80.611	-200.000	0.016	-0.160
-79.597	64.115	0.067	0.066
-78.582	-28.778	-0.155	0.087
-77.567	2.139	0.156	-0.111
-76.553	-96.264	-0.380	0.099
-75.538	-44.809	0.371	0.182
-74.524	301.751	0.071	-0.130
-73.509	-200.000	0.011	0.189
-72.494	-200.000	0.001	0.065
-71.480	54.207	0.210	0.198
-70.465	506.427	-0.130	0.295
-69.451	251.071	0.149	0.248
-68.436	-71.763	-0.193	0.071
-67.422	706.573	-0.063	-0.162
-66.407	198.526	0.126	0.190
-65.392	338.426	-0.175	-0.334
-64.378	-157.121	0.202	0.012
-63.363	-77.580	0.307	0.105
-62.349	30.144	-0.077	-0.065
-61.334	50.518	-1.158	-1.075
-60.319	651.663	0.295	0.743
-59.305	800.000	-0.374	-1.307
-58.290	800.000	0.445	1.320
-57.276	663.765	0.663	1.680
-56.261	-200.000	111.644	633.782
-55.246	458.991	1507.873	3293.743
-54.232	145.410	2678.024	3520.457
-53.217	105.609	2155.212	2501.225
-52.203	40.124	1604.305	1415.786
-51.188	32.124	1349.083	1142.099
-50.173	29.060	1310.543	1091.292
-49.159	55.515	1365.281	1297.461
-48.144	55.228	1380.362	1310.009
-47.130	32.293	1335.536	1131.466
-46.115	28.692	1318.605	1095.634
-45.100	28.546	1313.651	1090.609
-44.086	28.531	1311.094	1088.354
-43.071	28.498	1308.686	1086.117
-42.057	28.341	1306.727	1083.521
-41.042	28.419	1305.033	1082.534
-40.027	28.501	1302.970	1081.262
-39.013	28.415	1301.852	1079.783
-37.998	28.483	1299.658	1078.322
-36.984	28.519	1297.594	1076.776
-35.969	28.620	1295.805	1075.843
-34.954	28.475	1294.390	1073.777
-33.940	28.565	1293.773	1073.749
-32.925	28.697	1291.507	1072.597
-31.911	28.639	1290.092	1071.037
-30.896	28.707	1288.933	1070.433
-29.881	28.756	1287.401	1069.405
-28.867	28.682	1286.075	1067.826
-27.852	28.627	1284.852	1066.451
-26.838	28.719	1283.245	1065.611
-25.823	28.705	1281.805	1064.291
-24.809	28.623	1280.909	1063.028
-23.794	28.590	1279.610	1061.718
-22.779	28.612	1278.013	1060.477
-21.765	28.673	1276.431	1059.475
-20.750	28.638	1275.484	1058.442
-19.736	28.568	1274.406	1057.104
-18.721	28.711	1272.693	1056.467
-17.706	28.455	1271.949	1054.335
-16.692	28.449	1270.849	1053.344
-15.677	28.606	1269.377	1052.984
-14.663	28.521	1268.807	1051.983
-13.648	28.489	1267.302	1050.509
-12.633	28.473	1266.505	1049.712
-11.619	28.471	1266.475	1049.639
-10.604	28.548	1265.097	1048.894
-9.590	28.535	1264.121	1047.970
-8.575	28.375	1263.130	1046.190
-7.560	28.483	1261.973	1045.805
-6.546	28.464	1261.068	1044.907
-5.531	28.449	1260.814	1044.571
-4.517	28.428	1260.081	1043.803
-3.502	28.485	1258.869	1043.083
-2.487	28.514	1257.969	1042.461
-1.473	28.417	1254.003	1038.583
-0.458	26.814	1238.126	1016.413
0.556	21.235	1220.830	975.725
1.571	17.231	1225.865	957.159
2.586	16.186	1239.843	962.031
3.600	16.105	1228.816	952.930
4.615	11.947	1156.662	874.737
5.629	4.076	1082.261	778.939
6.644	0.462	1062.756	746.962
7.659	0.132	1060.465	743.655
8.673	0.058	1059.476	742.530
9.688	-0.121	1058.613	740.974
10.702	0.252	1056.566	741.312
11.717	4.862	1062.724	768.348
12.731	12.975	1073.131	816.076
13.746	16.967	1077.623	839.212
14.761	17.139	1076.737	839.293
15.775	15.996	1074.972	832.205
16.790	15.001	1073.395	825.998
17.804	14.338	1071.546	821.234
18.819	13.917	1070.686	818.429
19.834	13.675	1069.686	816.401
20.848	13.487	1068.423	814.440
21.863	13.256	1067.444	812.489
22.877	13.122	1066.704	811.192
23.892	13.082	1066.378	810.676
24.907	13.120	1065.659	810.246
25.921	13.082	1065.110	809.572
26.936	13.225	1063.718	809.143
27.950	13.213	1063.056	808.509
28.965	13.236	1061.732	807.540
29.980	13.253	1060.635	806.719
30.994	13.424	1059.149	806.350
32.009	13.363	1058.324	805.351
33.023	13.344	1057.749	804.752
34.038	13.239	1056.493	803.216
35.053	13.261	1055.700	802.650
36.067	13.267	1054.802	801.925
37.082	13.343	1053.703	801.385
38.096	13.203	1053.414	800.414
39.111	13.288	1052.426	800.004
40.126	13.285	1051.396	799.137
41.140	13.114	1050.079	797.239
42.155	13.019	1049.160	796.015
43.169	13.084	1047.651	795.112
44.184	12.991	1047.073	794.155
45.199	13.020	1046.131	793.510
46.213	13.198	1044.547	793.095
47.228	13.095	1044.010	792.121
48.242	13.199	1042.450	791.365
49.257	13.177	1041.633	790.572
50.271	13.269	1040.780	790.293
51.286	13.239	1039.629	789.206
52.301	13.281	1038.705	788.635
53.315	13.090	1038.122	787.209
54.330	13.067	1037.327	786.427
55.344	13.138	1036.104	785.771
56.359	13.055	1035.480	784.831
57.374	13.223	1034.205	784.596
58.388	13.087	1033.654	783.464
59.403	13.011	1033.258	782.733
60.417	13.051	1032.301	782.129
61.432	13.145	1030.762	781.336
62.447	13.026	1030.467	780.481
63.461	13.060	1029.390	779.755
64.476	12.993	1028.245	778.505
65.490	13.037	1027.665	778.203
66.505	13.006	1027.204	777.641
67.520	12.999	1026.647	777.116
68.534	13.088	1025.866	776.875
69.549	13.177	1025.038	776.600
70.563	13.060	1024.338	775.450
71.578	13.104	1023.540	774.984
72.593	13.098	1022.560	774.146
73.607	12.991	1022.061	773.199
74.622	12.978	1021.655	772.762
75.636	13.031	1020.690	772.209
76.651	13.116	1019.921	771.960
77.666	13.001	1019.514	771.042
78.680	13.079	1018.596	770.645
79.695	12.933	1018.018	769.458
80.709	13.045	1017.598	769.594
81.724	13.060	1016.430	768.715
82.739	13.204	1015.535	768.638
83.753	13.161	1015.244	768.152
84.768	13.216	1014.198	767.548
85.782	13.328	1013.078	767.151
86.797	13.277	1012.149	766.141
87.812	13.183	1011.259	764.966
88.826	13.183	1010.137	764.048
89.841	13.304	1009.220	763.847
90.855	13.161	1008.652	762.691
91.870	13.285	1007.936	762.652
92.884	13.254	1007.283	761.948
93.899	13.346	1005.927	761.277
94.914	13.349	1005.393	760.822
95.928	13.415	1004.478	760.363
96.943	13.359	1003.552	759.341
97.957	13.334	1002.796	758.588
98.972	13.298	1002.118	757.839
99.987	13.308	1001.260	757.173
101.001	13.164	1000.788	756.088
102.016	13.177	999.466	755.083
103.030	13.267	998.513	754.705
104.045	13.468	997.050	754.451
105.060	13.275	996.925	753.408
106.074	13.166	995.875	752.052
107.089	13.158	994.634	751.013
108.103	13.105	994.299	750.452
109.118	13.203	993.033	749.875
110.133	13.125	992.309	748.909
111.147	13.116	991.466	748.165
112.162	13.238	990.564	747.970
113.176	13.387	989.921	748.093
114.191	13.334	989.184	747.231
115.206	13.191	988.746	746.186
116.220	13.157	987.594	745.099
117.235	13.225	986.483	744.502
118.249	13.308	985.476	744.049
119.264	13.218	984.887	743.132
120.279	13.197	984.374	742.587
121.293	13.128	983.679	741.685
122.308	13.259	982.750	741.508
123.322	13.176	981.588	740.193
124.337	13.196	980.455	739.362
125.352	13.215	979.136	738.388
126.366	13.169	978.459	737.609
127.381	13.115	977.343	736.457
128.395	13.216	976.495	736.203
129.410	13.197	975.632	735.403
130.424	13.225	974.815	734.848
131.439	13.254	973.722	734.089
132.454	13.300	972.901	733.607
133.468	13.308	972.204	733.052
134.483	13.194	971.605	732.032
135.497	13.242	970.587	731.414
136.512	13.214	969.857	730.675
137.527	13.233	969.038	730.077
138.541	13.217	968.285	729.374
139.556	13.248	967.651	728.967
140.570	13.281	966.769	728.383
141.585	13.301	965.960	727.797
142.600	13.397	964.848	727.317
143.614	13.530	964.146	727.309
144.629	13.539	963.236	726.595
145.643	13.517	962.753	726.072
146.658	13.365	961.953	724.740
147.673	13.384	960.734	723.839
148.687	13.298	960.381	723.132
149.702	13.344	959.226	722.400
150.716	13.361	958.391	721.782
151.731	13.320	957.403	720.798
152.746	13.336	957.111	720.580
153.760	13.376	956.155	719.971
154.775	13.392	956.073	719.915
155.789	13.364	955.467	719.274
156.804	13.500	954.267	718.898
157.819	13.587	953.902	718.936
158.833	13.645	952.940	718.400
159.848	13.529	952.287	717.339
160.862	13.487	951.218	716.293
161.877	13.446	950.311	715.368
162.892	13.584	948.905	714.841
163.906	13.574	948.274	714.259
164.921	13.500	947.639	713.399
165.935	13.525	946.762	712.782
166.950	13.504	946.058	712.102
167.964	13.469	945.137	711.192
168.979	13.529	944.200	710.685
169.994	13.573	943.098	709.979
171.008	13.671	942.286	709.726
172.023	13.570	941.905	708.943
173.037	13.539	941.494	708.439
174.052	13.598	940.639	707.984
175.067	13.452	940.369	707.097
176.081	13.471	939.556	706.502
177.096	13.467	938.957	705.971
178.110	13.494	938.602	705.758
179.125	13.550	937.510	705.110
180.140	13.550	937.314	704.901
181.154	13.659	936.313	704.550
182.169	13.637	935.904	704.088
183.183	13.735	935.282	703.975
184.198	13.781	934.298	703.367
185.213	13.802	933.769	702.994
186.227	13.835	933.110	702.577
187.242	13.850	932.660	702.238
188.256	13.933	931.910	701.962
189.271	13.797	931.117	700.730
190.286	13.769	930.159	699.829
191.300	13.610	929.458	698.567
192.315	13.571	929.282	698.211
193.329	13.509	928.798	697.522
194.344	13.788	927.862	697.933
195.359	13.797	927.152	697.375
196.373	13.835	926.517	696.994
197.388	13.808	926.288	696.646
198.402	13.946	925.346	696.453
199.417	13.941	924.981	696.097
200.432	14.042	924.502	696.098
201.446	14.009	923.906	695.448
202.461	14.134	923.317	695.468
203.475	14.041	922.739	694.585
204.490	14.098	921.831	694.077
205.504	13.975	921.010	692.884
206.519	14.126	920.476	693.049
207.534	14.026	919.818	692.074
208.548	14.011	919.317	691.576
209.563	14.136	918.225	691.214
210.577	14.041	917.865	690.487
211.592	14.263	916.597	690.392
212.607	14.184	916.321	689.796
213.621	14.151	915.527	688.998
214.636	14.237	914.827	688.767
215.650	14.121	914.469	687.957
216.665	14.206	913.408	687.450
217.680	14.326	912.938	687.532
218.694	14.478	911.927	687.335
219.709	14.164	911.935	685.985
220.723	14.368	911.126	686.155
221.738	14.285	910.309	685.139
222.753	14.254	909.995	684.715
223.767	14.238	909.241	684.019
224.782	14.316	908.535	683.748
225.796	14.416	908.263	683.897
226.811	14.469	907.336	683.353
227.826	14.290	906.986	682.296
228.840	14.341	906.142	681.811
229.855	14.303	905.427	681.054
230.869	14.297	904.539	680.302
231.884	14.370	903.590	679.826
232.899	14.315	902.962	679.070
233.913	14.333	902.279	678.570
234.928	14.328	901.469	677.879
235.942	14.411	901.009	677.812
236.957	14.346	900.496	677.099
237.972	14.471	899.696	676.947
238.986	14.491	898.867	676.347
240.001	14.395	898.685	675.759
241.015	14.407	897.926	675.179
242.030	14.675	897.196	675.652
243.045	14.387	896.899	674.205
244.059	14.363	896.427	673.692
245.074	14.556	895.183	673.478
246.088	14.564	894.870	673.213
247.103	14.570	894.734	673.077
248.117	14.621	893.952	672.633
249.132	14.699	893.068	672.223
250.147	14.693	892.909	672.020
251.161	14.827	891.993	671.810
252.176	14.684	891.787	671.022
253.190	14.937	890.565	671.060
254.205	14.837	890.328	670.419
255.220	14.652	889.907	669.302
256.234	14.899	888.883	669.459
257.249	14.827	888.275	668.656
258.263	14.806	887.382	667.840
259.278	14.971	886.344	667.658
260.293	15.000	886.146	667.566
261.307	15.008	885.485	667.040
262.322	15.051	885.010	666.796
263.336	15.193	883.552	666.202
264.351	14.954	883.587	665.222
265.366	15.024	882.846	664.882
266.380	15.148	882.196	664.823
267.395	15.061	881.706	664.051
268.409	15.002	880.938	663.182
269.424	15.074	880.279	662.912
270.439	15.053	879.378	662.092
271.453	15.063	878.628	661.507
272.468	15.143	878.082	661.354
273.482	15.119	877.450	660.722
274.497	15.065	877.037	660.141
275.512	15.102	876.680	659.962
276.526	15.104	875.941	659.355
277.541	15.136	875.801	659.317
278.555	15.148	875.084	658.765
279.570	15.259	874.077	658.383
280.585	15.345	872.847	657.739
281.599	15.289	872.354	657.088
282.614	15.326	871.895	656.829
283.628	15.341	871.151	656.269
284.643	15.297	871.008	655.932
285.657	15.292	870.036	655.120
286.672	15.245	869.380	654.385
287.687	15.166	869.000	653.735
288.701	15.202	868.912	653.751
289.716	15.398	867.998	653.768
290.730	15.363	866.993	652.816
291.745	15.497	866.227	652.705
292.760	15.321	866.388	652.083
293.774	15.473	865.448	651.910
294.789	15.394	864.414	650.765
295.803	15.512	863.741	650.658
296.818	15.442	863.357	650.040
297.833	15.531	862.545	649.714
298.847	15.417	862.638	649.288
299.862	15.428	861.565	648.463
300.876	15.600	860.880	648.555
301.891	15.592	860.452	648.147
302.906	15.654	859.649	647.720
303.920	15.658	859.310	647.425
304.935	15.656	858.917	647.064
305.949	15.690	858.058	646.488
306.964	15.645	857.637	645.944
307.979	15.738	856.774	645.591
308.993	15.783	856.294	645.345
310.008	15.777	855.758	644.863
311.022	15.698	855.254	644.124
312.037	15.663	854.597	643.435
313.052	15.710	854.082	643.171
314.066	15.693	853.369	642.513
315.081	15.543	853.489	641.972
316.095	15.697	852.212	641.543
317.110	15.611	851.945	640.956
318.125	15.738	851.438	641.003
319.139	15.695	851.036	640.480
320.154	15.702	850.611	640.132
321.168	15.741	849.894	639.682
322.183	15.850	848.990	639.359
323.197	15.714	849.208	638.953
324.212	15.748	848.351	638.380
325.227	15.753	847.597	637.775
326.241	15.851	847.018	637.652
327.256	15.885	846.793	637.556
328.270	15.765	845.925	636.393
329.285	15.766	845.431	635.969
330.300	15.808	844.639	635.477
331.314	15.768	844.417	635.099
332.329	15.815	843.697	634.678
333.343	15.874	843.423	634.640
334.358	16.096	842.648	634.838
335.373	16.004	842.359	634.216
336.387	15.916	842.387	633.851
337.402	15.980	841.938	633.698
338.416	16.104	841.545	633.810
339.431	16.214	841.119	633.847
340.446	16.116	840.782	633.168
341.460	16.204	840.589	633.300
342.475	16.024	840.144	632.233
343.489	16.176	839.318	632.125
344.504	16.278	838.701	631.986
345.519	16.178	838.667	631.531
346.533	16.213	837.881	631.011
347.548	16.192	837.639	630.696
348.562	16.142	836.769	629.800
349.577	16.185	836.187	629.465
350.592	16.181	835.692	629.021
351.606	16.118	835.078	628.268
352.621	16.177	834.156	627.740
353.635	16.261	833.740	627.685
354.650	16.358	833.071	627.484
355.665	16.274	832.502	626.687
356.679	16.323	831.883	626.350
357.694	16.275	831.584	625.889
358.708	16.311	830.502	625.154
359.723	16.347	830.080	624.915
360.738	16.387	829.546	624.605
361.752	16.451	828.488	623.991
362.767	16.667	828.054	624.403
363.781	16.574	828.025	623.984
364.796	16.497	827.310	623.104
365.810	16.575	827.113	623.190
366.825	16.512	826.697	622.587
367.840	16.663	825.966	622.537
368.854	16.644	825.637	622.166
369.869	16.754	825.036	622.064
370.883	16.528	824.657	620.892
371.898	16.560	824.572	620.892
372.913	16.636	823.752	620.497
373.927	16.656	823.330	620.195
374.942	16.558	823.174	619.667
375.956	16.795	822.756	620.164
376.971	16.835	822.090	619.754
377.986	16.915	821.620	619.637
379.000	16.765	821.369	618.844
380.015	16.828	820.915	618.676
381.029	16.794	820.018	617.822
382.044	16.801	819.482	617.390
383.059	16.909	818.913	617.301
384.073	16.988	818.187	616.987
385.088	16.885	817.728	616.211
386.102	16.957	817.171	615.996
387.117	16.843	817.095	615.470
388.132	16.829	816.110	614.623
389.146	16.755	815.600	613.919
390.161	16.984	814.827	614.110
391.175	16.900	814.658	613.624
392.190	16.892	814.070	613.099
393.205	16.753	813.927	612.434
394.219	16.954	813.101	612.484
395.234	16.851	813.118	612.072
396.248	16.857	812.488	611.565
397.263	16.931	811.924	611.353
398.278	17.052	811.864	611.690
399.292	16.845	811.304	610.467
400.307	16.849	810.809	610.058
401.321	17.028	810.223	610.203
402.336	16.981	809.644	609.544
403.350	16.998	809.300	609.294
404.365	17.142	808.917	609.469
405.380	17.259	807.876	609.050
406.394	17.247	807.762	608.868
407.409	17.070	807.585	608.047
408.423	17.214	807.205	608.221
409.438	17.323	806.681	608.163
410.453	17.344	806.329	607.917
411.467	17.294	805.596	607.134
412.482	17.391	805.524	607.370
413.496	17.345	805.402	607.061
414.511	17.398	804.835	606.771
415.526	17.356	804.235	606.114
416.540	17.531	803.387	606.045
417.555	17.448	803.050	605.440
418.569	17.402	802.915	605.120
419.584	17.350	802.571	604.625
420.599	17.504	801.662	604.432
421.613	109.718	1294.722	1472.562
422.628	94.450	1366.555	1472.675
