DTS Sentinel unit serial number:	SN413079Multiplexer serial number:	ORYXHardware model number:	OX4-SRSoftware version number:	ORYX F/W v4.00 Oryx Data Collector v3.7.2.0data status	okinstallation	princeton_trtdifferential loss correction	single-endedforward channel	channel 1reverse channel	N/Adate	2019/09/18time	20:14:35forward acquisition time	60.00reverse acquisition time	0.00gamma	496.2192k internal	0.2331k external	0.2331temperature offset calibration	1.0029default loss term (dB/km)	0.3790temperature slope calibration	1.0000multiplexer offset coefficient	1.0000multiplexer slope coefficient	1.0000fibre end	0.00T internal ref (°C)	29.33T ext. ref 1 (°C)	0.87T ext. ref 2 (°C)	19.86length (m)	temperature (°C)	Stokes	anti-Stokes-747.200	800.000	0.079	-0.249
-746.185	-200.000	-0.035	0.251
-745.171	1.594	0.148	-0.108
-744.156	92.913	-0.281	0.319
-743.142	-22.246	-0.208	-0.127
-742.127	-55.100	0.098	-0.044
-741.112	45.702	-0.155	0.145
-740.098	-13.864	-0.355	0.231
-739.083	522.045	0.087	-0.206
-738.069	23.899	0.010	0.008
-737.054	-160.029	-0.156	0.009
-736.039	13.612	-0.204	0.160
-735.025	-200.000	0.062	0.349
-734.010	433.805	-0.036	0.078
-732.996	-74.681	-0.128	-0.046
-731.981	-119.452	0.055	0.010
-730.966	-67.071	-0.221	0.088
-729.952	-200.000	-0.098	-0.667
-728.937	-155.021	-0.327	-0.022
-727.923	-28.988	-0.139	-0.081
-726.908	-75.710	-0.108	-0.038
-725.894	53.621	-0.153	-0.147
-724.879	107.820	0.181	-0.216
-723.864	-56.792	0.176	0.078
-722.850	248.874	-0.120	0.205
-721.835	138.476	-0.086	-0.114
-720.821	-98.005	0.424	0.110
-719.806	-152.879	0.113	-0.008
-718.791	127.410	0.241	-0.307
-717.777	-7.968	-0.119	-0.081
-716.762	-200.000	-0.010	0.246
-715.748	-200.000	-0.019	0.350
-714.733	373.292	0.144	0.294
-713.718	-87.324	0.129	-0.039
-712.704	-161.330	-0.233	0.012
-711.689	-200.000	-0.009	-0.454
-710.675	-200.000	0.007	-0.188
-709.660	67.084	-0.243	0.249
-708.645	189.234	0.097	0.147
-707.631	110.798	0.149	-0.181
-706.616	90.488	-0.279	-0.314
-705.602	723.900	0.104	-0.278
-704.587	-42.598	0.212	0.108
-703.572	-56.223	0.283	-0.126
-702.558	-6.678	0.370	0.253
-701.543	58.431	0.160	-0.158
-700.529	204.229	-0.056	-0.087
-699.514	-200.000	-0.013	-0.219
-698.499	-65.069	-0.340	0.138
-697.485	26.195	0.153	-0.129
-696.470	7.152	-0.226	0.169
-695.456	89.820	-0.153	-0.171
-694.441	-62.416	0.285	-0.119
-693.426	-17.303	0.155	-0.098
-692.412	1.076	-0.423	0.305
-691.397	-143.274	-0.211	0.020
-690.383	-4.812	0.165	0.114
-689.368	60.856	-0.251	-0.250
-688.354	-200.000	-0.039	0.175
-687.339	-42.172	0.043	-0.022
-686.324	729.747	0.046	-0.122
-685.310	370.870	-0.134	0.273
-684.295	-18.743	0.235	0.147
-683.281	-26.908	-0.274	0.160
-682.266	-100.040	0.192	0.048
-681.251	800.000	-0.053	0.208
-680.237	-38.874	-0.072	0.038
-679.222	63.769	0.088	0.089
-678.208	-101.368	0.117	0.029
-677.193	-125.251	0.066	0.010
-676.178	-110.739	0.286	0.059
-675.164	-40.052	-0.145	-0.076
-674.149	68.688	0.117	-0.120
-673.135	-116.413	-0.125	0.023
-672.120	-200.000	0.013	0.195
-671.105	118.339	0.106	-0.131
-670.091	-200.000	-0.018	0.222
-669.076	159.096	-0.138	-0.192
-668.062	289.427	-0.048	0.088
-667.047	21.972	0.048	-0.039
-666.032	7.305	-0.163	-0.122
-665.018	288.033	-0.120	0.219
-664.003	-52.788	-0.412	0.191
-662.989	72.515	0.111	-0.116
-661.974	635.378	0.062	-0.158
-660.959	-200.000	-0.061	-0.391
-659.945	-89.787	-0.044	0.013
-658.930	-131.761	0.107	0.014
-657.916	-38.327	-0.246	0.131
-656.901	-200.000	0.013	0.269
-655.886	334.631	-0.135	-0.262
-654.872	213.491	0.122	-0.193
-653.857	-168.020	-0.237	0.009
-652.843	-200.000	0.000	-0.085
-651.828	444.281	-0.010	-0.022
-650.814	-199.943	0.097	-0.000
-649.799	200.359	0.134	-0.206
-648.784	-125.915	-0.182	0.027
-647.770	800.000	-0.108	-0.387
-646.755	441.161	-0.054	-0.118
-645.741	-143.338	-0.297	-0.029
-644.726	689.872	0.119	-0.312
-643.711	-28.623	0.095	-0.055
-642.697	683.748	-0.075	0.195
-641.682	265.487	-0.203	-0.355
-640.668	800.000	-0.044	-0.179
-639.653	-86.495	0.047	0.014
-638.638	195.960	0.145	0.221
-637.624	-166.646	-0.266	0.011
-636.609	-138.349	-0.188	0.021
-635.595	800.000	0.067	0.232
-634.580	-3.719	-0.091	0.063
-633.565	-200.000	-0.011	-0.166
-632.551	-46.460	0.202	-0.099
-631.536	-200.000	-0.018	-0.112
-630.522	369.749	-0.064	0.129
-629.507	-23.761	-0.005	-0.003
-628.492	800.000	-0.025	-0.079
-627.478	-113.457	-0.199	-0.039
-626.463	186.026	0.161	-0.239
-625.449	29.898	0.192	0.164
-624.434	123.488	0.087	-0.110
-623.419	-14.936	-0.171	0.110
-622.405	800.000	0.051	0.162
-621.390	-102.391	-0.169	-0.040
-620.376	-97.013	0.219	-0.057
-619.361	-173.743	0.077	-0.002
-618.346	285.845	-0.009	0.016
-617.332	116.700	-0.172	-0.212
-616.317	-200.000	0.034	0.244
-615.303	-127.662	0.193	0.028
-614.288	-200.000	0.081	-0.391
-613.273	10.531	0.158	-0.120
-612.259	-40.883	-0.055	-0.029
-611.244	158.389	0.116	0.161
-610.230	78.702	-0.017	-0.018
-609.215	-131.832	-0.183	0.024
-608.201	181.120	-0.121	-0.178
-607.186	-86.235	-0.293	-0.090
-606.171	-31.843	-0.010	-0.006
-605.157	306.250	-0.062	0.115
-604.142	-23.071	-0.145	0.088
-603.128	-68.449	0.122	-0.047
-602.113	800.000	-0.051	-0.212
-601.098	35.092	0.200	0.175
-600.084	40.933	0.139	-0.125
-599.069	800.000	-0.008	-0.027
-598.055	-200.000	-0.074	0.366
-597.040	800.000	0.023	0.084
-596.025	269.783	-0.121	-0.212
-595.011	-74.737	0.053	-0.019
-593.996	-68.204	0.248	-0.096
-592.982	-1.003	-0.086	-0.061
-591.967	90.483	0.085	-0.095
-590.952	0.954	-0.223	-0.160
-589.938	800.000	-0.039	0.160
-588.923	-79.181	-0.108	-0.037
-587.909	-68.421	-0.269	0.104
-586.894	170.640	0.136	-0.195
-585.879	-125.895	-0.124	0.019
-584.865	436.737	0.188	-0.409
-583.850	-12.418	0.072	0.047
-582.836	-25.290	-0.220	0.130
-581.821	-6.257	-0.386	0.263
-580.806	-101.747	0.176	0.043
-579.792	-154.422	0.108	0.007
-578.777	800.000	0.076	0.321
-577.763	71.717	-0.211	0.219
-576.748	-56.014	0.197	-0.088
-575.733	-200.000	-0.010	0.058
-574.719	800.000	-0.051	-0.198
-573.704	-200.000	0.004	0.095
-572.690	82.542	0.105	-0.114
-571.675	368.248	-0.072	-0.145
-570.661	-200.000	0.077	-0.432
-569.646	-200.000	-0.002	-0.075
-568.631	-152.574	0.248	-0.018
-567.617	-113.725	0.174	-0.034
-566.602	-200.000	-0.015	0.079
-565.588	-98.873	0.266	-0.067
-564.573	-7.659	0.171	-0.115
-563.558	54.468	0.243	0.234
-562.544	137.090	-0.177	-0.232
-561.529	50.640	0.048	-0.045
-560.515	-55.280	-0.209	-0.094
-559.500	-113.843	0.266	0.052
-558.485	-200.000	0.065	0.305
-557.471	244.249	-0.256	0.430
-556.456	-200.000	0.012	-0.175
-555.442	-200.000	0.052	-0.261
-554.427	-0.693	0.181	0.128
-553.412	-8.516	-0.139	-0.094
-552.398	237.993	-0.204	0.337
-551.383	800.000	-0.009	0.032
-550.369	-0.188	0.211	0.150
-549.354	171.240	-0.313	0.448
-548.339	22.443	-0.199	0.163
-547.325	800.000	0.049	0.210
-546.310	-175.183	0.110	-0.003
-545.296	291.078	0.158	-0.287
-544.281	-103.001	-0.283	0.067
-543.266	-200.000	0.030	-0.226
-542.252	-130.763	-0.146	-0.020
-541.237	101.690	0.068	0.079
-540.223	-143.464	-0.256	-0.024
-539.208	800.000	-0.051	0.214
-538.193	359.816	-0.080	-0.160
-537.179	-200.000	0.022	0.145
-536.164	-200.000	-0.008	0.233
-535.150	6.374	0.101	0.075
-534.135	18.564	-0.078	0.062
-533.121	-200.000	0.011	0.075
-532.106	800.000	-0.035	-0.123
-531.091	-200.000	-0.041	-0.278
-530.077	-13.839	0.534	0.344
-529.062	731.074	0.116	0.310
-528.048	84.969	-0.126	0.138
-527.033	-1.005	0.294	-0.207
-526.018	-27.755	0.240	0.139
-525.004	-80.547	-0.079	-0.026
-523.989	-26.588	-0.083	-0.048
-522.975	513.990	-0.124	-0.289
-521.960	-161.968	-0.296	-0.015
-520.945	395.769	0.123	-0.256
-519.931	-67.861	0.142	0.055
-518.916	168.732	-0.135	-0.192
-517.902	152.965	0.105	0.143
-516.887	-200.000	-0.029	-0.353
-515.872	-105.766	-0.102	-0.023
-514.858	-34.179	0.403	-0.221
-513.843	-200.000	-0.011	-0.048
-512.829	-5.276	-0.022	-0.015
-511.814	151.714	-0.106	0.144
-510.799	-6.241	0.308	0.210
-509.785	-37.939	-0.258	-0.137
-508.770	-200.000	0.008	-0.312
-507.756	47.510	0.091	0.085
-506.741	800.000	-0.059	-0.254
-505.726	184.423	0.086	0.127
-504.712	-136.705	0.191	-0.022
-503.697	-147.172	0.291	0.025
-502.683	800.000	-0.071	0.255
-501.668	800.000	-0.163	0.468
-500.653	176.677	-0.145	0.210
-499.639	-94.390	-0.110	0.030
-498.624	-200.000	0.014	-0.167
-497.610	-200.000	0.032	-0.141
-496.595	-200.000	-0.008	0.093
-495.581	800.000	0.095	-0.283
-494.566	-200.000	0.049	-0.398
-493.551	-200.000	0.014	0.204
-492.537	-47.096	-0.464	0.226
-491.522	461.031	-0.173	0.385
-490.508	-83.397	-0.286	-0.091
-489.493	-95.952	0.166	-0.044
-488.478	-108.655	0.152	-0.033
-487.464	531.861	-0.040	0.094
-486.449	800.000	-0.057	-0.167
-485.435	-200.000	-0.011	-0.136
-484.420	15.168	-0.225	-0.176
-483.405	65.922	-0.259	0.262
-482.391	-61.627	-0.191	-0.080
-481.376	-200.000	0.025	0.267
-480.362	-200.000	0.043	-0.353
-479.347	-75.038	0.177	0.063
-478.332	800.000	-0.059	-0.178
-477.318	-200.000	-0.014	-0.284
-476.303	-92.559	-0.253	-0.071
-475.289	-28.157	-0.201	-0.116
-474.274	-200.000	0.004	-0.248
-473.259	-76.492	0.068	0.024
-472.245	55.535	-0.130	0.125
-471.230	-53.025	-0.170	0.078
-470.216	-197.392	-0.149	-0.001
-469.201	-121.505	0.186	0.031
-468.186	-21.010	-0.124	-0.076
-467.172	-168.026	-0.186	0.007
-466.157	7.887	-0.130	-0.097
-465.143	-132.547	0.190	0.024
-464.128	210.671	0.246	-0.384
-463.113	-43.483	0.137	-0.069
-462.099	400.427	-0.074	0.153
-461.084	34.810	0.104	0.090
-460.070	2.733	0.042	-0.031
-459.055	-109.077	0.243	0.051
-458.040	533.525	0.055	-0.130
-457.026	-17.193	-0.293	-0.184
-456.011	82.433	0.162	0.174
-454.997	-200.000	-0.004	-0.175
-453.982	-200.000	0.002	-0.157
-452.968	71.962	-0.154	-0.160
-451.953	-28.769	-0.275	-0.157
-450.938	-200.000	0.012	-0.163
-449.924	-200.000	0.025	0.191
-448.909	-55.028	0.328	-0.147
-447.895	-175.565	0.043	0.001
-446.880	41.326	0.225	0.203
-445.865	-137.275	0.512	0.058
-444.851	-121.368	0.307	0.051
-443.836	-123.119	-0.245	0.039
-442.822	-86.327	-0.092	-0.028
-441.807	-200.000	0.043	0.397
-440.792	-3.625	0.133	-0.092
-439.778	-30.826	-0.258	-0.145
-438.763	800.000	-0.064	0.269
-437.749	-121.835	-0.025	-0.004
-436.734	-200.000	-0.020	-0.181
-435.719	230.378	0.109	-0.176
-434.705	16.719	0.155	-0.122
-433.690	-200.000	-0.046	-0.286
-432.676	65.022	-0.301	-0.303
-431.661	-98.943	0.305	0.077
-430.646	14.963	0.240	-0.187
-429.632	487.277	-0.111	0.251
-428.617	-95.497	-0.063	0.017
-427.603	800.000	-0.058	-0.200
-426.588	-32.506	0.323	0.179
-425.573	-82.207	0.276	-0.089
-424.559	76.715	0.092	0.097
-423.544	79.578	0.207	-0.220
-422.530	58.781	-0.117	-0.114
-421.515	-124.171	0.238	-0.037
-420.500	165.077	-0.114	0.160
-419.486	-200.000	0.005	-0.175
-418.471	33.817	0.170	0.147
-417.457	-33.721	-0.081	0.044
-416.442	-32.199	0.064	0.035
-415.428	63.213	-0.099	-0.098
-414.413	91.180	0.245	0.273
-413.398	284.935	0.129	0.231
-412.384	-85.265	0.253	0.079
-411.369	800.000	-0.073	-0.218
-410.355	280.869	-0.018	0.032
-409.340	559.562	-0.091	0.218
-408.325	800.000	-0.034	-0.108
-407.311	137.323	-0.076	-0.099
-406.296	176.253	0.049	-0.071
-405.282	255.221	-0.065	0.110
-404.267	-185.075	0.147	-0.002
-403.252	-200.000	-0.030	-0.176
-402.238	211.169	-0.104	0.162
-401.223	242.711	0.164	0.273
-400.209	-94.806	-0.412	-0.111
-399.194	-83.985	0.125	0.039
-398.179	37.909	-0.200	0.176
-397.165	13.013	-0.052	0.040
-396.150	146.310	-0.109	-0.145
-395.136	7.038	-0.276	0.204
-394.121	800.000	-0.052	0.170
-393.106	20.927	0.111	-0.090
-392.092	21.073	0.086	-0.069
-391.077	-200.000	0.036	0.233
-390.063	138.001	0.164	0.214
-389.048	251.923	-0.105	-0.178
-388.033	-49.501	-0.194	0.092
-387.019	307.290	-0.064	0.118
-386.004	-93.972	-0.268	0.073
-384.990	-200.000	0.051	-0.232
-383.975	-200.000	0.022	-0.176
-382.960	-8.074	0.275	-0.184
-381.946	-53.681	0.103	0.047
-380.931	-200.000	-0.034	0.490
-379.917	-169.060	-0.083	0.003
-378.902	-141.272	0.057	0.006
-377.888	-200.000	-0.042	-0.258
-376.873	800.000	0.129	-0.422
-375.858	-46.506	0.302	-0.147
-374.844	-72.848	-0.108	-0.039
-373.829	159.147	0.110	-0.152
-372.815	343.798	0.220	0.428
-371.800	123.581	-0.151	-0.188
-370.785	-20.369	0.378	-0.231
-369.771	800.000	-0.122	-0.416
-368.756	186.163	0.133	0.196
-367.742	-200.000	-0.006	-0.200
-366.727	-26.652	-0.277	-0.161
-365.712	-190.423	-0.336	-0.004
-364.698	-60.206	-0.221	-0.093
-363.683	800.000	0.035	0.102
-362.669	176.151	0.023	-0.033
-361.654	27.143	0.262	-0.218
-360.639	-15.348	0.100	-0.064
-359.625	-160.452	-0.174	-0.009
-358.610	-200.000	-0.058	0.364
-357.596	-200.000	0.002	0.214
-356.581	6.721	-0.393	-0.290
-355.566	284.987	-0.079	-0.141
-354.552	129.575	0.072	-0.091
-353.537	45.233	-0.424	0.388
-352.523	-93.530	0.410	0.112
-351.508	-122.228	0.062	0.010
-350.493	-200.000	-0.078	0.370
-349.479	49.345	0.095	0.088
-348.464	-136.441	-0.227	0.026
-347.450	-167.860	0.173	-0.007
-346.435	120.794	-0.229	0.282
-345.420	800.000	0.090	0.301
-344.406	156.883	-0.067	0.092
-343.391	58.915	0.122	0.119
-342.377	91.544	0.097	0.108
-341.362	64.988	0.151	-0.152
-340.348	471.661	-0.070	0.155
-339.333	-111.202	-0.179	-0.036
-338.318	-200.000	-0.059	-0.349
-337.304	-73.520	-0.274	0.099
-336.289	29.271	0.108	-0.091
-335.275	262.485	0.190	-0.327
-334.260	-161.983	0.209	-0.010
-333.245	-132.933	-0.279	-0.035
-332.231	149.220	0.115	-0.154
-331.216	-58.264	0.131	-0.057
-330.202	-200.000	0.030	0.218
-329.187	-166.744	-0.368	-0.015
-328.172	-17.290	0.030	0.019
-327.158	782.039	0.053	0.144
-326.143	-47.561	0.206	-0.099
-325.129	800.000	-0.074	0.228
-324.114	-8.608	-0.224	0.149
-323.099	800.000	-0.036	0.142
-322.085	15.583	0.143	0.111
-321.070	105.939	0.103	-0.121
-320.056	20.885	-0.225	0.181
-319.041	106.264	0.225	-0.264
-318.026	-128.070	-0.303	0.043
-317.012	-23.665	0.165	0.098
-315.997	-200.000	0.002	0.103
-314.983	-186.921	-0.221	-0.003
-313.968	-36.383	0.069	-0.037
-312.953	-176.456	-0.299	0.008
-311.939	265.206	0.244	-0.421
-310.924	370.088	-0.089	0.179
-309.910	-200.000	-0.025	0.146
-308.895	-200.000	0.006	0.208
-307.880	35.483	0.124	0.108
-306.866	-134.770	0.202	0.024
-305.851	-103.389	-0.215	-0.050
-304.837	74.908	-0.020	0.021
-303.822	283.974	-0.213	0.379
-302.807	-200.000	-0.004	-0.241
-301.793	9.078	-0.197	-0.147
-300.778	-91.485	0.306	0.086
-299.764	800.000	-0.123	0.357
-298.749	-200.000	0.007	0.087
-297.735	-117.050	-0.307	-0.055
-296.720	-200.000	0.010	-0.090
-295.705	800.000	0.049	-0.211
-294.691	-61.746	0.224	0.093
-293.676	-136.589	-0.218	-0.025
-292.662	1.303	0.290	-0.206
-291.647	-200.000	-0.015	0.140
-290.632	149.026	-0.074	0.099
-289.618	98.175	-0.086	0.098
-288.603	438.306	-0.118	-0.255
-287.589	-149.888	-0.128	0.010
-286.574	-151.527	0.187	-0.014
-285.559	-86.493	0.172	-0.052
-284.545	185.126	-0.095	0.139
-283.530	207.724	0.135	0.208
-282.516	-100.287	-0.318	0.078
-281.501	102.056	-0.113	0.131
-280.486	198.728	-0.140	0.212
-279.472	-200.000	-0.011	0.142
-278.457	-125.029	0.178	-0.027
-277.443	111.020	0.287	0.342
-276.428	-200.000	-0.016	-0.106
-275.413	684.452	-0.056	0.145
-274.399	-200.000	0.008	0.331
-273.384	517.425	-0.200	0.463
-272.370	291.872	0.020	0.036
-271.355	-146.713	0.265	0.023
-270.340	-10.075	0.178	0.117
-269.326	-200.000	-0.053	0.253
-268.311	-200.000	-0.018	0.174
-267.297	115.940	0.330	-0.399
-266.282	-19.927	-0.249	-0.152
-265.267	-200.000	-0.052	0.319
-264.253	-200.000	0.005	-0.272
-263.238	-55.654	0.174	-0.077
-262.224	6.181	0.189	-0.138
-261.209	78.062	-0.095	-0.100
-260.195	-8.405	0.166	0.110
-259.180	-200.000	0.003	-0.053
-258.165	-200.000	0.049	-0.282
-257.151	489.582	0.063	-0.143
-256.136	230.441	0.182	0.295
-255.122	-200.000	-0.024	-0.147
-254.107	-174.626	-0.183	0.005
-253.092	361.051	-0.099	0.195
-252.078	800.000	0.093	0.350
-251.063	-73.511	-0.127	0.046
-250.049	120.675	0.131	-0.161
-249.034	-117.333	-0.165	0.030
-248.019	463.173	0.029	0.063
-247.005	138.722	0.190	-0.246
-245.990	-143.787	-0.053	-0.005
-244.976	800.000	-0.042	0.153
-243.961	-15.998	0.065	0.041
-242.946	83.211	0.214	0.230
-241.932	-200.000	0.018	-0.248
-240.917	-99.791	0.270	0.067
-239.903	-49.539	0.304	-0.143
-238.888	800.000	0.085	0.315
-237.873	-106.157	0.161	0.036
-236.859	71.687	0.136	0.139
-235.844	-133.761	0.141	-0.017
-234.830	-0.974	0.141	0.099
-233.815	-82.855	-0.210	-0.067
-232.800	-123.670	-0.219	0.034
-231.786	-13.180	-0.125	0.080
-230.771	44.867	-0.041	0.037
-229.757	800.000	-0.128	-0.412
-228.742	639.731	0.143	0.358
-227.727	-94.082	-0.300	0.081
-226.713	-112.028	-0.141	0.028
-225.698	800.000	0.071	0.259
-224.684	-76.691	0.155	0.054
-223.669	-200.000	0.015	-0.097
-222.655	-130.722	-0.235	0.031
-221.640	800.000	0.022	-0.095
-220.625	-152.418	-0.188	0.013
-219.611	-107.892	-0.094	-0.020
-218.596	159.656	0.077	-0.105
-217.582	184.967	-0.175	-0.256
-216.567	-51.949	0.292	-0.134
-215.552	-105.829	-0.282	0.063
-214.538	489.917	-0.154	-0.348
-213.523	11.288	0.046	-0.035
-212.509	-200.000	-0.032	-0.183
-211.494	-91.878	-0.375	-0.105
-210.479	-146.680	-0.180	0.015
-209.465	800.000	-0.056	-0.170
-208.450	29.016	0.173	0.144
-207.436	-200.000	0.066	0.320
-206.421	-200.000	-0.010	0.096
-205.406	240.448	0.087	-0.142
-204.392	24.956	-0.110	-0.090
-203.377	-200.000	0.014	0.083
-202.363	774.553	0.085	0.229
-201.348	-165.333	0.280	0.012
-200.333	54.561	-0.266	0.253
-199.319	800.000	0.014	0.054
-198.304	800.000	0.118	-0.402
-197.290	800.000	0.068	0.214
-196.275	-200.000	0.010	0.220
-195.260	21.662	0.273	0.219
-194.246	77.241	-0.174	-0.182
-193.231	53.935	0.015	0.014
-192.217	170.280	0.097	0.137
-191.202	-97.232	-0.241	0.062
-190.187	91.595	0.137	0.152
-189.173	-90.714	0.229	-0.065
-188.158	2.540	0.327	0.233
-187.144	58.356	-0.227	-0.219
-186.129	104.435	0.088	-0.102
-185.114	133.188	-0.107	0.136
-184.100	-119.992	-0.123	-0.021
-183.085	-200.000	0.031	-0.315
-182.071	-200.000	0.046	-0.287
-181.056	800.000	0.056	-0.221
-180.042	800.000	-0.082	-0.284
-179.027	35.230	0.057	0.049
-178.012	800.000	0.018	-0.070
-176.998	187.958	0.069	0.101
-175.983	800.000	0.105	-0.305
-174.969	-51.492	0.281	0.129
-173.954	204.599	0.128	0.196
-172.939	238.468	0.120	-0.196
-171.925	-200.000	-0.013	0.099
-170.910	800.000	0.045	0.157
-169.896	123.819	0.060	0.074
-168.881	340.025	0.065	0.125
-167.866	-46.670	0.302	0.145
-166.852	226.162	-0.253	0.404
-165.837	191.761	-0.144	-0.214
-164.823	-200.000	-0.082	-0.411
-163.808	-10.888	-0.052	-0.034
-162.793	-46.567	-0.266	-0.128
-161.779	122.421	0.072	-0.088
-160.764	-33.733	-0.205	0.111
-159.750	156.166	0.233	-0.317
-158.735	117.123	0.297	0.359
-157.720	-200.000	-0.041	-0.453
-156.706	-200.000	-0.001	0.015
-155.691	6.997	-0.318	0.233
-154.677	800.000	0.049	-0.132
-153.662	277.106	-0.165	0.288
-152.647	-47.602	-0.046	-0.022
-151.633	-61.567	-0.269	-0.111
-150.618	131.931	0.169	0.213
-149.604	99.042	-0.166	-0.189
-148.589	510.992	0.117	-0.267
-147.574	184.476	-0.055	0.080
-146.560	5.200	-0.260	0.189
-145.545	-109.881	0.288	0.059
-144.531	-200.000	0.004	0.335
-143.516	277.806	-0.095	-0.166
-142.502	-200.000	0.002	-0.058
-141.487	-144.604	0.123	-0.011
-140.472	-200.000	0.004	0.126
-139.458	-93.543	0.046	0.013
-138.443	156.635	-0.049	0.067
-137.429	106.285	0.139	0.162
-136.414	123.213	-0.379	-0.467
-135.399	48.145	-0.169	0.156
-134.385	800.000	0.034	-0.141
-133.370	-200.000	0.045	-0.228
-132.356	-200.000	0.257	-0.001
-131.341	-95.266	-0.288	0.076
-130.326	-84.608	0.169	-0.052
-129.312	-119.115	-0.177	0.030
-128.297	-82.992	-0.200	0.063
-127.283	352.708	0.120	-0.234
-126.268	-177.763	0.185	0.004
-125.253	152.964	-0.089	0.119
-124.239	800.000	-0.063	-0.262
-123.224	29.603	-0.048	0.040
-122.210	-200.000	0.012	0.115
-121.195	156.410	-0.157	-0.212
-120.180	-26.061	0.213	0.123
-119.166	374.071	0.101	0.201
-118.151	-200.000	0.041	-0.208
-117.137	-149.204	-0.245	0.019
-116.122	-85.157	0.233	0.072
-115.107	22.240	0.216	0.173
-114.093	800.000	-0.037	0.109
-113.078	-94.078	-0.127	0.034
-112.064	268.360	0.028	0.049
-111.049	8.053	0.217	0.160
-110.034	-95.426	-0.369	0.097
-109.020	336.026	0.207	0.394
-108.005	222.233	-0.126	-0.199
-106.991	-200.000	0.008	0.114
-105.976	-200.000	-0.025	0.397
-104.962	102.838	0.095	-0.109
-103.947	340.878	0.047	0.090
-102.932	53.489	0.212	0.200
-101.918	466.914	-0.100	0.221
-100.903	-41.289	-0.248	-0.126
-99.889	-95.298	-0.194	0.051
-98.874	800.000	0.112	-0.340
-97.859	-69.707	-0.127	-0.048
-96.845	611.478	-0.079	0.193
-95.830	23.001	-0.057	-0.046
-94.816	237.676	0.022	0.036
-93.801	-90.710	0.260	-0.074
-92.786	15.983	-0.218	0.168
-91.772	232.213	0.190	-0.306
-90.757	130.644	0.122	-0.154
-89.743	-71.429	0.135	-0.050
-88.728	-90.652	0.332	-0.094
-87.713	-200.000	-0.024	-0.206
-86.699	-49.862	-0.261	-0.121
-85.684	42.824	0.281	-0.251
-84.670	-200.000	-0.018	0.157
-83.655	43.594	-0.024	-0.021
-82.640	-52.797	-0.619	-0.280
-81.626	-173.769	-0.150	-0.004
-80.611	-200.000	-0.008	-0.273
-79.597	-144.167	0.255	0.023
-78.582	-37.106	-0.287	0.151
-77.567	-200.000	0.021	-0.235
-76.553	-125.375	-0.287	0.043
-75.538	38.534	0.130	0.114
-74.524	154.351	-0.061	-0.082
-73.509	-86.970	-0.423	-0.126
-72.494	-126.265	-0.256	-0.037
-71.480	-45.302	-0.177	-0.086
-70.465	-200.000	-0.016	-0.266
-69.451	7.372	-0.284	0.208
-68.436	-56.021	0.326	-0.142
-67.422	-200.000	0.001	-0.135
-66.407	800.000	-0.032	-0.111
-65.392	800.000	-0.091	0.296
-64.378	8.444	0.193	-0.142
-63.363	800.000	-0.016	-0.065
-62.349	-155.600	0.330	-0.021
-61.334	106.813	-0.904	-1.051
-60.319	19.366	1.063	0.836
-59.305	566.059	-0.376	-0.894
-58.290	294.066	0.711	1.272
-57.276	-200.000	0.309	1.354
-56.261	-200.000	110.112	680.906
-55.246	525.400	1471.837	3393.384
-54.232	152.551	2635.337	3525.545
-53.217	109.180	2142.849	2511.526
-52.203	40.978	1604.751	1418.916
-51.188	32.818	1353.176	1147.071
-50.173	29.771	1315.247	1096.832
-49.159	58.861	1369.335	1318.134
-48.144	58.637	1384.400	1331.236
-47.130	33.121	1340.029	1137.571
-46.115	29.432	1323.112	1101.196
-45.100	29.299	1318.238	1096.305
-44.086	29.190	1315.614	1093.429
-43.071	29.198	1313.538	1091.711
-42.057	29.168	1311.715	1089.973
-41.042	29.200	1309.792	1088.521
-40.027	29.278	1308.233	1087.646
-39.013	29.264	1306.102	1085.745
-37.998	29.199	1304.620	1084.091
-36.984	29.327	1302.634	1083.149
-35.969	29.285	1300.649	1081.211
-34.954	29.300	1299.168	1080.019
-33.940	29.402	1297.506	1079.192
-32.925	29.369	1296.407	1078.042
-31.911	29.382	1294.909	1076.834
-30.896	29.452	1293.579	1076.093
-29.881	29.488	1292.197	1075.110
-28.867	29.428	1291.256	1073.934
-27.852	29.479	1289.422	1072.665
-26.838	29.439	1288.534	1071.646
-25.823	29.325	1287.369	1069.978
-24.809	29.308	1285.926	1068.633
-23.794	29.404	1284.231	1067.737
-22.779	29.399	1282.887	1066.552
-21.765	29.403	1281.895	1065.706
-20.750	29.450	1280.273	1064.586
-19.736	29.309	1279.200	1062.840
-18.721	29.264	1278.059	1061.593
-17.706	29.287	1276.912	1060.727
-16.692	29.347	1275.329	1059.713
-15.677	29.269	1274.600	1058.624
-14.663	29.296	1273.579	1057.884
-13.648	29.318	1272.357	1056.955
-12.633	29.235	1271.411	1055.650
-11.619	29.319	1270.636	1055.449
-10.604	29.305	1269.579	1054.446
-9.590	29.259	1268.777	1053.476
-8.575	29.339	1267.571	1052.889
-7.560	29.219	1267.260	1051.906
-6.546	29.253	1266.062	1051.064
-5.531	29.259	1265.724	1050.773
-4.517	29.360	1264.179	1050.025
-3.502	29.347	1263.568	1049.403
-2.487	29.249	1262.451	1047.875
-1.473	29.110	1258.092	1043.426
-0.458	26.831	1241.576	1016.926
0.556	21.242	1222.422	968.973
1.571	16.479	1226.673	945.676
2.586	15.289	1240.690	949.656
3.600	14.803	1228.995	937.899
4.615	11.270	1158.702	865.447
5.629	4.420	1086.620	777.339
6.644	1.126	1067.868	747.630
7.659	0.766	1065.599	744.207
8.673	0.752	1065.040	743.681
9.688	0.826	1063.304	742.767
10.702	1.064	1061.255	742.433
11.717	4.978	1066.301	765.135
12.731	12.166	1075.705	807.299
13.746	16.644	1080.907	833.230
14.761	17.546	1081.258	837.866
15.775	16.786	1079.441	832.648
16.790	15.867	1077.538	826.596
17.804	15.119	1076.122	821.769
18.819	14.757	1074.719	818.848
19.834	14.456	1074.578	817.194
20.848	14.199	1073.542	815.074
21.863	14.069	1072.160	813.316
22.877	13.950	1071.626	812.259
23.892	13.857	1070.694	811.024
24.907	13.750	1070.539	810.313
25.921	13.763	1069.508	809.526
26.936	13.858	1068.713	809.314
27.950	13.961	1067.858	809.096
28.965	14.122	1066.151	808.517
29.980	14.080	1064.635	807.090
30.994	14.015	1064.190	806.368
32.009	14.017	1063.286	805.621
33.023	13.923	1062.550	804.534
34.038	14.086	1060.827	803.946
35.053	14.183	1060.003	803.719
36.067	13.975	1059.388	802.181
37.082	14.097	1057.851	801.532
38.096	14.081	1057.561	801.163
39.111	13.919	1056.959	799.859
40.126	13.928	1055.856	798.997
41.140	13.837	1054.745	797.647
42.155	13.772	1053.949	796.662
43.169	13.915	1052.531	796.206
44.184	13.837	1051.427	794.927
45.199	13.712	1051.021	793.953
46.213	13.831	1049.377	793.207
47.228	13.764	1048.503	792.155
48.242	13.837	1047.417	791.616
49.257	13.998	1046.104	791.318
50.271	13.969	1045.456	790.622
51.286	13.968	1044.707	789.980
52.301	13.989	1043.499	789.096
53.315	13.838	1042.801	787.783
54.330	13.828	1041.720	786.847
55.344	13.819	1040.613	785.898
56.359	13.840	1039.918	785.407
57.374	13.846	1038.745	784.476
58.388	13.979	1037.824	784.340
59.403	13.731	1037.156	782.594
60.417	13.656	1037.047	782.093
61.432	13.781	1035.792	781.663
62.447	13.780	1034.316	780.476
63.461	13.817	1033.685	780.107
64.476	13.741	1033.338	779.415
65.490	13.793	1032.172	778.714
66.505	13.779	1031.645	778.182
67.520	13.773	1030.914	777.531
68.534	13.775	1030.108	776.866
69.549	13.866	1029.075	776.441
70.563	13.889	1028.230	775.846
71.578	13.748	1027.624	774.660
72.593	13.694	1026.773	773.699
73.607	13.742	1026.167	773.398
74.622	13.757	1025.640	772.999
75.636	13.795	1024.819	772.490
76.651	13.613	1024.308	771.190
77.666	13.791	1022.998	770.962
78.680	13.808	1022.811	770.834
79.695	13.790	1022.264	770.270
80.709	13.690	1021.520	769.176
81.724	13.841	1020.797	769.263
82.739	13.794	1020.379	768.663
83.753	13.959	1019.129	768.416
84.768	13.865	1018.789	767.656
85.782	13.984	1017.627	767.263
86.797	13.882	1016.863	766.147
87.812	13.892	1016.027	765.498
88.826	13.872	1015.169	764.692
89.841	13.943	1013.744	763.874
90.855	13.904	1013.365	763.344
91.870	13.957	1012.237	762.670
92.884	14.036	1011.553	762.449
93.899	14.002	1010.837	761.688
94.914	14.086	1009.782	761.208
95.928	13.988	1009.232	760.281
96.943	14.078	1007.952	759.659
97.957	14.065	1006.914	758.748
98.972	14.019	1006.685	758.299
99.987	14.088	1005.384	757.566
101.001	14.007	1004.411	756.400
102.016	14.025	1003.944	756.060
103.030	13.998	1003.315	755.400
104.045	14.075	1001.858	754.582
105.060	13.986	1001.284	753.682
106.074	13.963	999.952	752.507
107.089	13.905	999.129	751.558
108.103	14.017	997.953	751.116
109.118	14.068	997.013	750.573
110.133	13.947	996.541	749.605
111.147	13.987	995.443	748.891
112.162	14.051	994.861	748.677
113.176	13.958	994.010	747.550
114.191	14.007	992.940	746.899
115.206	14.031	992.055	746.274
116.220	14.145	990.788	745.765
117.235	13.958	990.677	744.778
118.249	14.154	989.135	744.434
119.264	13.889	989.554	743.495
120.279	13.841	988.610	742.505
121.293	13.892	987.420	741.772
122.308	13.996	986.474	741.461
123.322	14.102	985.546	741.169
124.337	13.886	984.702	739.509
125.352	13.973	983.247	738.738
126.366	13.910	982.283	737.666
127.381	13.964	981.194	737.023
128.395	13.823	980.903	736.116
129.410	14.016	979.217	735.638
130.424	14.097	978.596	735.464
131.439	13.914	978.121	734.236
132.454	13.949	977.497	733.857
133.468	14.103	976.424	733.664
134.483	13.982	975.401	732.296
135.497	14.033	974.457	731.747
136.512	13.920	973.870	730.748
137.527	14.024	972.871	730.391
138.541	13.994	972.451	729.879
139.556	14.059	971.650	729.497
140.570	13.987	971.134	728.730
141.585	14.151	970.158	728.652
142.600	14.134	969.428	727.965
143.614	14.167	968.518	727.361
144.629	14.257	967.164	726.671
145.643	14.258	966.409	726.046
146.658	14.162	965.585	724.941
147.673	14.132	964.659	724.052
148.687	14.259	964.057	724.090
149.702	14.128	962.747	722.472
150.716	14.099	962.367	721.999
151.731	14.079	961.896	721.493
152.746	14.251	961.010	721.510
153.760	14.101	960.402	720.342
154.775	14.173	960.094	720.358
155.789	14.262	959.530	720.256
156.804	14.321	958.360	719.567
157.819	14.280	957.736	718.859
158.833	14.329	957.425	718.773
159.848	14.318	956.344	717.851
160.862	14.414	955.210	717.351
161.877	14.235	954.355	715.875
162.892	14.260	953.567	715.329
163.906	14.216	952.736	714.454
164.921	14.306	951.899	714.149
165.935	14.441	950.360	713.509
166.950	14.243	949.998	712.327
167.964	14.403	949.211	712.358
168.979	14.276	948.793	711.438
169.994	14.381	947.277	710.685
171.008	14.321	947.026	710.179
172.023	14.463	946.069	710.001
173.037	14.376	945.675	709.273
174.052	14.487	944.620	708.892
175.067	14.386	944.333	708.184
176.081	14.359	943.441	707.338
177.096	14.393	942.887	707.005
178.110	14.426	942.208	706.572
179.125	14.525	941.605	706.478
180.140	14.493	940.795	705.672
181.154	14.461	940.750	705.442
182.169	14.462	939.919	704.757
183.183	14.541	939.503	704.718
184.198	14.602	938.774	704.369
185.213	14.517	937.769	703.192
186.227	14.530	937.509	702.991
187.242	14.477	936.773	702.152
188.256	14.647	936.251	702.417
189.271	14.670	935.050	701.548
190.286	14.520	934.270	700.271
191.300	14.555	933.711	699.937
192.315	14.377	933.589	699.036
193.329	14.468	932.933	698.866
194.344	14.491	932.102	698.277
195.359	14.569	931.276	697.921
196.373	14.587	930.595	697.425
197.388	14.719	930.425	697.787
198.402	14.802	929.460	697.350
199.417	14.805	929.171	697.084
200.432	14.749	928.625	696.377
201.446	14.862	928.087	696.383
202.461	15.017	927.162	696.274
203.475	14.768	926.979	695.038
204.490	14.843	925.995	694.550
205.504	14.899	925.120	694.065
206.519	14.757	924.430	692.897
207.534	14.813	924.163	692.870
208.548	14.777	923.458	692.130
209.563	14.839	922.670	691.735
210.577	14.862	921.678	691.023
211.592	14.985	920.909	690.895
212.607	15.019	920.556	690.710
213.621	14.997	919.707	689.922
214.636	14.881	919.116	688.939
215.650	14.934	918.401	688.558
216.665	15.028	917.874	688.491
217.680	15.002	917.210	687.822
218.694	15.013	916.226	687.069
219.709	15.110	915.226	686.659
220.723	15.130	914.952	686.471
221.738	15.107	914.268	685.805
222.753	15.058	913.602	685.045
223.767	15.182	912.962	685.010
224.782	15.173	912.095	684.262
225.796	15.194	912.232	684.390
226.811	15.120	911.263	683.301
227.826	15.208	910.609	683.108
228.840	15.276	909.811	682.728
229.855	15.231	908.649	681.613
230.869	15.235	907.842	680.962
231.884	15.211	907.569	680.599
232.899	15.146	906.515	679.485
233.913	15.312	905.696	679.484
234.928	15.118	905.533	678.514
235.942	15.195	905.069	678.421
236.957	15.167	904.434	677.769
237.972	15.176	903.900	677.345
238.986	15.256	903.174	677.067
240.001	15.148	902.328	675.936
241.015	15.179	902.027	675.775
242.030	15.313	901.529	675.883
243.045	15.277	900.676	675.038
244.059	15.252	900.170	674.500
245.074	15.427	899.358	674.533
246.088	15.228	898.929	673.355
247.103	15.454	898.027	673.527
248.117	15.441	897.466	672.993
249.132	15.445	896.842	672.481
250.147	15.362	896.414	671.770
251.161	15.615	895.612	672.118
252.176	15.576	895.092	671.514
253.190	15.473	894.776	670.806
254.205	15.521	894.091	670.424
255.220	15.601	893.034	669.893
256.234	15.742	892.239	669.799
257.249	15.635	891.907	669.064
258.263	15.675	890.859	668.377
259.278	15.541	890.696	667.661
260.293	15.692	889.839	667.563
261.307	15.827	889.139	667.512
262.322	15.720	888.397	666.474
263.336	15.888	887.791	666.624
264.351	15.991	886.907	666.308
265.366	15.887	886.495	665.531
266.380	15.778	885.784	664.508
267.395	15.717	885.645	664.103
268.409	15.953	884.235	663.917
269.424	15.924	883.638	663.293
270.439	16.000	882.927	663.004
271.453	15.916	882.283	662.129
272.468	15.814	882.304	661.684
273.482	15.985	880.995	661.315
274.497	15.950	880.881	661.035
275.512	15.860	880.395	660.258
276.526	15.950	880.075	660.315
277.541	15.917	879.306	659.550
278.555	15.948	878.560	659.053
279.570	16.052	878.102	659.057
280.585	16.044	877.336	658.392
281.599	16.079	876.419	657.781
282.614	16.147	875.748	657.484
283.628	15.930	875.338	656.275
284.643	16.125	874.420	656.287
285.657	16.125	873.671	655.668
286.672	16.206	873.644	655.904
287.687	16.166	872.596	654.905
288.701	16.212	872.245	654.762
289.716	16.228	871.793	654.424
290.730	16.137	871.077	653.477
291.745	16.315	869.845	653.183
292.760	16.319	869.680	653.016
293.774	16.424	868.966	652.829
294.789	16.382	868.122	651.974
295.803	16.277	867.694	651.192
296.818	16.334	867.011	650.843
297.833	16.208	866.636	650.018
298.847	16.213	865.724	649.295
299.862	16.245	865.240	648.997
300.876	16.301	865.012	648.983
301.891	16.328	864.189	648.413
302.906	16.531	863.381	648.527
303.920	16.469	862.842	647.828
304.935	16.532	862.439	647.710
305.949	16.493	861.749	646.985
306.964	16.499	860.883	646.300
307.979	16.612	860.332	646.262
308.993	16.542	860.238	645.866
310.008	16.499	859.851	645.355
311.022	16.503	859.091	644.743
312.037	16.545	858.382	644.312
313.052	16.516	857.754	643.674
314.066	16.479	857.419	643.223
315.081	16.424	856.749	642.457
316.095	16.521	856.144	642.315
317.110	16.564	855.195	641.707
318.125	16.714	854.723	641.865
319.139	16.601	854.668	641.340
320.154	16.568	854.241	640.838
321.168	16.595	853.797	640.550
322.183	16.744	852.916	640.396
323.197	16.539	852.516	639.264
324.212	16.677	851.947	639.302
325.227	16.569	851.288	638.344
326.241	16.764	850.650	638.541
327.256	16.675	849.801	637.514
328.270	16.707	849.598	637.427
329.285	16.674	849.308	637.027
330.300	16.727	848.237	636.368
331.314	16.644	848.070	635.872
332.329	16.766	847.256	635.666
333.343	16.742	847.185	635.466
334.358	16.736	846.643	634.980
335.373	16.754	846.108	634.591
336.387	16.856	845.937	634.788
337.402	16.949	845.364	634.649
338.416	16.885	844.984	634.069
339.431	17.001	844.895	634.379
340.446	17.059	844.366	634.142
341.460	17.146	843.825	634.003
342.475	17.061	843.464	633.360
343.489	17.110	843.205	633.294
344.504	17.171	842.433	632.885
345.519	17.145	842.176	632.541
346.533	16.980	841.809	631.592
347.548	16.971	840.967	630.873
348.562	16.986	840.658	630.640
349.577	17.064	840.259	630.573
350.592	17.197	839.069	630.118
351.606	17.008	838.627	629.030
352.621	17.182	837.873	629.053
353.635	17.018	837.221	627.901
354.650	17.129	836.428	627.661
355.665	17.205	835.852	627.455
356.679	17.254	835.240	627.122
357.694	17.173	834.591	626.281
358.708	17.270	834.206	626.292
359.723	17.256	833.584	625.719
360.738	17.316	832.823	625.313
361.752	17.383	832.254	625.078
362.767	17.321	831.691	624.372
363.781	17.293	831.407	624.000
364.796	17.364	830.766	623.722
365.810	17.451	830.392	623.704
366.825	17.442	830.444	623.659
367.840	17.528	829.468	623.185
368.854	17.463	828.985	622.527
369.869	17.439	828.957	622.365
370.883	17.556	828.089	622.086
371.898	17.509	827.897	621.714
372.913	17.497	827.574	621.373
373.927	17.377	827.338	620.703
374.942	17.586	826.290	620.624
375.956	17.593	826.219	620.539
376.971	17.525	825.994	620.067
377.986	17.607	825.606	620.022
379.000	17.653	825.079	619.739
380.015	17.646	824.277	619.054
381.029	17.670	823.543	618.537
382.044	17.686	823.496	618.503
383.059	17.863	822.273	618.172
384.073	17.724	822.107	617.490
385.088	17.711	821.310	616.788
386.102	17.731	820.684	616.335
387.117	17.675	820.074	615.621
388.132	17.740	819.719	615.535
389.146	17.722	818.946	614.835
390.161	17.800	818.485	614.716
391.175	17.928	818.079	614.817
392.190	17.806	817.822	614.131
393.205	17.742	817.660	613.726
394.219	17.854	816.734	613.378
395.234	17.855	816.400	613.075
396.248	17.830	816.228	612.802
397.263	17.891	815.683	612.558
398.278	17.740	815.503	611.828
399.292	17.754	814.958	611.416
400.307	17.806	814.235	611.005
401.321	18.028	813.460	611.161
402.336	17.826	813.448	610.378
403.350	17.837	813.059	610.071
404.365	18.006	812.455	610.165
405.380	17.943	811.900	609.472
406.394	17.921	811.439	608.994
407.409	18.093	810.665	608.970
408.423	18.049	810.918	608.951
409.438	18.127	810.138	608.588
410.453	18.131	809.915	608.382
411.467	18.149	809.173	607.834
412.482	18.148	809.078	607.704
413.496	18.279	808.582	607.746
414.511	18.224	808.571	607.485
415.526	18.282	807.587	606.898
416.540	18.277	807.262	606.585
417.555	18.310	806.576	606.131
418.569	18.195	806.865	605.888
419.584	18.477	805.704	605.960
420.599	18.318	805.631	605.287
421.613	113.102	1295.214	1477.639
422.628	97.679	1366.512	1477.738
