DTS Sentinel unit serial number:	SN413079Multiplexer serial number:	ORYXHardware model number:	OX4-SRSoftware version number:	ORYX F/W v4.00 Oryx Data Collector v3.7.2.0data status	okinstallation	princeton_trtdifferential loss correction	single-endedforward channel	channel 1reverse channel	N/Adate	2019/09/10time	22:24:11forward acquisition time	60.00reverse acquisition time	0.00gamma	496.2192k internal	0.2331k external	0.2331temperature offset calibration	0.9943default loss term (dB/km)	0.3790temperature slope calibration	1.0000multiplexer offset coefficient	1.0000multiplexer slope coefficient	1.0000fibre end	0.00T internal ref (°C)	30.41T ext. ref 1 (°C)	-0.30T ext. ref 2 (°C)	23.77length (m)	temperature (°C)	Stokes	anti-Stokes-747.200	-200.000	-0.048	-0.222
-746.185	36.060	-0.117	-0.104
-745.171	-160.705	0.705	-0.038
-744.156	-123.136	-0.168	-0.027
-743.142	236.357	-0.084	-0.140
-742.127	-73.865	0.111	-0.041
-741.112	105.634	0.250	-0.297
-740.098	46.607	-0.123	0.115
-739.083	247.244	-0.207	0.352
-738.069	-200.000	-0.073	0.445
-737.054	-79.066	0.185	0.063
-736.039	-76.218	-0.281	0.100
-735.025	146.215	0.043	0.058
-734.010	-33.173	-0.158	-0.088
-732.996	-107.564	-0.503	0.111
-731.981	800.000	0.046	0.137
-730.966	180.659	-0.048	0.071
-729.952	-200.000	0.009	0.113
-728.937	-200.000	0.024	0.121
-727.923	-1.107	-0.053	-0.038
-726.908	-200.000	-0.434	-0.002
-725.894	99.778	-0.293	-0.341
-724.879	35.685	0.207	-0.183
-723.864	-34.174	0.087	-0.048
-722.850	117.032	-0.156	0.192
-721.835	-200.000	-0.245	0.001
-720.821	-83.719	-0.179	-0.057
-719.806	39.582	0.201	0.182
-718.791	-70.358	-0.236	0.090
-717.777	35.684	-0.291	-0.257
-716.762	-33.263	-0.234	-0.130
-715.748	-100.436	-0.313	-0.078
-714.733	29.220	0.140	0.120
-713.718	85.113	0.181	0.200
-712.704	-175.791	0.291	-0.008
-711.689	233.624	-0.081	-0.134
-710.675	-75.514	-0.092	-0.033
-709.660	-108.340	0.245	-0.053
-708.645	-163.569	-0.152	-0.007
-707.631	-49.666	0.219	-0.105
-706.616	-93.841	-0.304	0.084
-705.602	669.985	-0.109	0.284
-704.587	341.848	0.081	-0.158
-703.572	14.157	-0.533	0.417
-702.558	-200.000	0.043	-0.253
-701.543	0.713	0.233	0.168
-700.529	-103.984	0.366	-0.086
-699.514	-200.000	-0.005	0.198
-698.499	-200.000	-0.021	-0.175
-697.485	59.183	-0.103	0.102
-696.470	-200.000	-0.023	-0.160
-695.456	-32.432	0.188	0.105
-694.441	-172.976	-0.058	0.002
-693.426	-200.000	0.031	0.142
-692.412	9.206	-0.213	-0.162
-691.397	196.418	-0.188	-0.288
-690.383	800.000	0.018	-0.071
-689.368	34.050	0.153	-0.134
-688.354	-200.000	-0.004	0.147
-687.339	511.900	-0.047	-0.110
-686.324	-44.367	-0.128	0.064
-685.310	389.381	-0.061	0.127
-684.295	800.000	-0.077	0.288
-683.281	800.000	-0.047	0.135
-682.266	-80.254	0.137	-0.046
-681.251	121.075	-0.255	-0.318
-680.237	800.000	0.165	-0.508
-679.222	-200.000	0.035	-0.197
-678.208	-117.207	-0.118	0.022
-677.193	800.000	-0.040	0.120
-676.178	-84.083	-0.227	-0.072
-675.164	-21.140	0.202	0.124
-674.149	-200.000	-0.014	-0.254
-673.135	800.000	-0.093	-0.270
-672.120	-60.486	-0.069	0.029
-671.105	604.164	0.155	-0.388
-670.091	196.448	-0.305	-0.466
-669.076	-200.000	-0.060	-0.289
-668.062	-111.706	0.280	0.057
-667.047	58.163	-0.474	-0.466
-666.032	297.395	0.068	-0.125
-665.018	-123.396	0.372	0.059
-664.003	-200.000	0.036	0.210
-662.989	-111.495	-0.185	-0.038
-661.974	-0.356	-0.346	-0.246
-660.959	-72.418	0.255	0.095
-659.945	204.422	-0.143	0.223
-658.930	-85.264	0.340	0.107
-657.916	-39.169	0.126	-0.067
-656.901	-200.000	-0.010	-0.076
-655.886	-141.909	-0.127	-0.013
-654.872	-117.156	0.231	0.042
-653.857	132.829	-0.209	0.271
-652.843	800.000	-0.146	-0.415
-651.828	-200.000	-0.018	-0.251
-650.814	-20.012	-0.204	-0.126
-649.799	-200.000	-0.025	-0.192
-648.784	-71.223	0.062	-0.023
-647.770	161.618	0.142	0.200
-646.755	481.877	-0.062	0.140
-645.741	197.652	-0.091	-0.140
-644.726	-118.485	-0.273	-0.048
-643.711	150.396	-0.164	0.223
-642.697	-171.150	0.177	-0.006
-641.682	130.846	-0.037	-0.048
-640.668	800.000	-0.037	-0.125
-639.653	63.059	-0.292	-0.294
-638.638	-200.000	-0.009	0.224
-637.624	-200.000	0.240	-0.001
-636.609	-57.015	0.303	0.134
-635.595	-103.245	-0.170	-0.040
-634.580	-112.786	-0.173	0.034
-633.565	800.000	0.074	-0.255
-632.551	239.971	-0.049	-0.082
-631.536	-116.993	0.022	-0.004
-630.522	-140.658	-0.544	-0.056
-629.507	154.004	-0.058	-0.080
-628.492	-55.501	-0.181	0.081
-627.478	451.877	0.065	-0.144
-626.463	65.264	-0.162	-0.164
-625.449	94.472	0.208	0.237
-624.434	-200.000	0.010	0.100
-623.419	-135.784	-0.153	-0.018
-622.405	800.000	0.112	0.345
-621.390	-59.657	0.131	-0.056
-620.376	65.582	-0.159	-0.161
-619.361	355.209	0.134	-0.266
-618.346	-200.000	-0.001	0.036
-617.332	162.679	-0.185	-0.261
-616.317	-20.801	0.180	-0.110
-615.303	-200.000	-0.009	-0.206
-614.288	200.077	-0.101	-0.155
-613.273	203.712	0.033	-0.051
-612.259	-200.000	-0.014	-0.166
-611.244	74.709	-0.179	-0.188
-610.230	18.348	0.141	-0.113
-609.215	590.678	0.141	0.349
-608.201	-29.123	0.046	0.026
-607.186	191.886	-0.151	0.228
-606.171	-200.000	0.003	0.340
-605.157	-147.806	-0.335	0.028
-604.142	101.700	-0.062	-0.073
-603.128	129.597	0.070	-0.089
-602.113	800.000	0.037	-0.148
-601.098	102.563	0.106	-0.125
-600.084	139.448	-0.211	-0.277
-599.069	128.537	0.151	0.192
-598.055	31.020	0.190	-0.163
-597.040	25.640	-0.287	-0.239
-596.025	-79.686	0.078	0.026
-595.011	-40.142	-0.067	-0.035
-593.996	409.308	-0.024	0.050
-592.982	256.871	0.208	-0.358
-591.967	-200.000	0.022	-0.106
-590.952	464.630	-0.130	0.292
-589.938	-200.000	0.075	0.458
-588.923	-67.666	-0.147	-0.057
-587.909	-14.256	-0.139	0.090
-586.894	230.447	0.169	-0.277
-585.879	-200.000	0.021	-0.232
-584.865	262.675	-0.140	-0.244
-583.850	351.017	-0.196	0.387
-582.836	-172.545	0.196	-0.006
-581.821	-6.197	-0.245	0.167
-580.806	-9.073	0.071	0.047
-579.792	-200.000	0.020	-0.192
-578.777	57.605	-0.380	0.372
-577.763	162.840	-0.184	0.258
-576.748	-200.000	0.039	-0.236
-575.733	-200.000	0.002	0.249
-574.719	-28.686	0.154	-0.088
-573.704	-200.000	-0.067	-0.309
-572.690	120.230	0.084	-0.104
-571.675	-200.000	-0.037	-0.320
-570.661	-200.000	-0.075	0.410
-569.646	171.421	-0.129	-0.185
-568.631	-99.586	-0.332	0.083
-567.617	133.943	0.075	-0.097
-566.602	358.202	0.026	0.053
-565.588	258.689	-0.147	0.252
-564.573	-17.426	-0.081	-0.051
-563.558	-22.291	0.116	0.070
-562.544	-103.256	0.176	0.042
-561.529	77.487	0.178	-0.189
-560.515	106.409	0.104	0.124
-559.500	800.000	0.096	-0.398
-558.485	-200.000	0.059	0.328
-557.471	189.702	-0.272	-0.407
-556.456	368.038	0.062	-0.124
-555.442	-28.220	-0.334	-0.193
-554.427	-200.000	-0.038	-0.237
-553.412	-53.251	0.218	-0.100
-552.398	32.288	0.187	-0.161
-551.383	-200.000	0.030	-0.169
-550.369	690.522	0.130	0.341
-549.354	100.111	0.203	-0.235
-548.339	800.000	0.071	-0.299
-547.325	-200.000	0.051	-0.397
-546.310	-200.000	-0.011	0.180
-545.296	-200.000	0.031	0.398
-544.281	112.473	-0.135	-0.163
-543.266	-200.000	-0.021	-0.163
-542.252	-55.337	0.092	-0.041
-541.237	-122.178	-0.163	-0.027
-540.223	637.684	-0.107	-0.271
-539.208	-200.000	-0.033	-0.426
-538.193	-150.497	-0.262	0.020
-537.179	-73.250	0.265	0.097
-536.164	-200.000	0.014	0.143
-535.150	800.000	0.064	0.207
-534.135	209.458	-0.040	-0.062
-533.121	-149.635	-0.146	-0.011
-532.106	-131.631	-0.568	-0.074
-531.091	56.215	0.122	-0.118
-530.077	-200.000	0.015	0.115
-529.062	-8.318	0.173	0.116
-528.048	91.548	-0.120	-0.135
-527.033	-153.563	-0.158	-0.011
-526.018	-200.000	0.034	-0.418
-525.004	-200.000	0.018	-0.165
-523.989	-123.163	-0.268	0.043
-522.975	-200.000	-0.034	-0.606
-521.960	-200.000	0.015	0.069
-520.945	-151.206	0.061	0.005
-519.931	800.000	0.116	-0.319
-518.916	268.404	0.109	0.190
-517.902	85.499	0.147	0.161
-516.887	-48.269	-0.037	-0.018
-515.872	179.692	-0.235	-0.343
-514.858	207.826	0.143	-0.223
-513.843	122.732	0.217	0.271
-512.829	-176.751	-0.125	-0.003
-511.814	-200.000	0.000	0.005
-510.799	108.080	-0.168	0.199
-509.785	774.721	0.112	0.306
-508.770	-121.756	-0.222	-0.037
-507.756	189.603	0.122	0.182
-506.741	-71.767	-0.214	-0.079
-505.726	-134.340	-0.222	-0.027
-504.712	-165.877	0.230	-0.010
-503.697	-148.753	0.075	-0.006
-502.683	-148.651	-0.188	0.015
-501.668	734.209	0.011	0.029
-500.653	-80.569	-0.236	-0.078
-499.639	-14.244	-0.207	0.133
-498.624	800.000	0.100	0.427
-497.610	-100.043	0.055	-0.014
-496.595	800.000	-0.074	0.272
-495.581	96.865	0.203	0.232
-494.566	228.633	-0.132	-0.215
-493.551	-69.517	0.205	0.078
-492.537	-200.000	0.005	0.232
-491.522	295.172	0.146	-0.267
-490.508	-61.519	0.131	0.055
-489.493	-83.625	-0.152	0.048
-488.478	-200.000	0.007	-0.255
-487.464	304.839	-0.205	-0.379
-486.449	-139.912	-0.222	-0.023
-485.435	88.096	-0.051	-0.057
-484.420	147.713	-0.243	-0.326
-483.405	800.000	-0.012	-0.054
-482.391	14.229	0.066	-0.051
-481.376	-3.615	-0.243	-0.168
-480.362	-200.000	-0.011	-0.380
-479.347	194.800	0.033	-0.051
-478.332	-200.000	0.006	-0.090
-477.318	341.962	-0.108	-0.210
-476.303	-200.000	0.011	0.333
-475.289	-200.000	0.006	0.298
-474.274	-154.377	-0.072	-0.005
-473.259	298.315	-0.126	-0.230
-472.245	144.193	-0.058	0.077
-471.230	-200.000	0.001	0.057
-470.216	-200.000	-0.025	0.227
-469.201	-91.992	0.082	0.023
-468.186	-109.061	0.387	-0.082
-467.172	558.383	-0.097	-0.233
-466.157	597.605	0.083	0.205
-465.143	-83.653	-0.100	0.032
-464.128	-17.229	-0.203	0.127
-463.113	-200.000	0.089	0.516
-462.099	-108.866	-0.104	-0.022
-461.084	-52.641	0.262	0.120
-460.070	296.434	0.074	-0.134
-459.055	-68.947	-0.136	-0.052
-458.040	180.377	-0.125	-0.182
-457.026	-13.026	0.159	-0.103
-456.011	103.271	-0.078	0.091
-454.997	-24.537	-0.463	-0.275
-453.982	-112.614	-0.411	-0.081
-452.968	294.330	0.101	0.184
-451.953	147.482	-0.021	-0.028
-450.938	93.704	0.233	-0.262
-449.924	476.146	0.126	0.283
-448.909	93.106	0.112	-0.126
-447.895	-75.270	-0.086	-0.031
-446.880	-200.000	-0.047	0.242
-445.865	-98.975	0.233	0.059
-444.851	800.000	-0.024	-0.068
-443.836	-66.836	-0.145	0.057
-442.822	-147.526	0.191	0.016
-441.807	800.000	-0.093	0.267
-440.792	-200.000	0.084	0.377
-439.778	101.429	-0.168	0.195
-438.763	308.442	0.048	-0.089
-437.749	-200.000	-0.043	0.277
-436.734	-101.895	-0.223	-0.054
-435.719	-123.277	-0.230	-0.037
-434.705	50.640	-0.048	0.046
-433.690	-190.293	-0.198	0.002
-432.676	3.949	-0.114	0.083
-431.661	-139.298	-0.207	-0.022
-430.646	-200.000	-0.014	-0.082
-429.632	-53.678	0.077	-0.035
-428.617	-49.294	-0.228	0.108
-427.603	-200.000	-0.047	-0.350
-426.588	800.000	-0.044	-0.189
-425.573	381.504	0.074	0.151
-424.559	-144.987	-0.144	-0.013
-423.544	-163.976	0.226	-0.010
-422.530	95.656	-0.173	-0.196
-421.515	-144.022	0.077	-0.007
-420.500	232.611	-0.119	-0.194
-419.486	-105.432	-0.286	-0.065
-418.471	-41.198	0.271	0.139
-417.457	-47.224	-0.169	0.082
-416.442	27.422	0.226	0.189
-415.428	-24.426	0.313	0.185
-414.413	800.000	0.077	0.275
-413.398	12.487	0.075	0.057
-412.384	-200.000	0.021	0.159
-411.369	360.260	0.149	0.295
-410.355	-73.851	0.262	-0.095
-409.340	65.796	-0.046	-0.046
-408.325	-168.519	0.027	-0.001
-407.311	-91.154	0.424	-0.121
-406.296	-92.830	-0.394	0.109
-405.282	-200.000	0.037	0.355
-404.267	-200.000	-0.038	-0.186
-403.252	-86.912	-0.303	0.092
-402.238	-147.612	0.341	0.029
-401.223	-70.751	-0.288	0.108
-400.209	5.742	0.084	0.062
-399.194	73.008	0.063	0.066
-398.179	-56.885	0.111	-0.049
-397.165	91.736	-0.061	-0.068
-396.150	366.568	-0.107	-0.214
-395.136	25.267	0.305	-0.251
-394.121	107.988	-0.239	-0.283
-393.106	-200.000	-0.012	0.203
-392.092	296.997	-0.047	-0.085
-391.077	332.489	-0.143	-0.274
-390.063	-183.118	-0.272	0.005
-389.048	-156.633	0.158	-0.010
-388.033	800.000	-0.059	0.166
-387.019	-106.209	-0.143	0.032
-386.004	-70.754	0.376	-0.141
-384.990	-47.826	-0.255	-0.123
-383.975	37.081	0.162	0.143
-382.960	-200.000	-0.003	0.182
-381.946	800.000	-0.093	0.363
-380.931	-110.761	0.015	0.003
-379.917	76.824	-0.271	0.285
-378.902	605.837	-0.036	0.088
-377.888	-44.013	-0.247	0.123
-376.873	436.801	0.077	0.166
-375.858	800.000	0.083	-0.257
-374.844	-104.861	-0.118	-0.027
-373.829	247.174	0.137	-0.229
-372.815	104.952	-0.184	-0.215
-371.800	-148.723	0.381	-0.031
-370.785	149.141	0.164	0.220
-369.771	-59.380	0.184	0.078
-368.756	99.533	-0.074	-0.084
-367.742	-15.601	-0.254	-0.161
-366.727	-200.000	0.002	0.115
-365.712	127.537	0.154	0.194
-364.698	500.304	0.028	0.063
-363.683	168.801	0.054	-0.076
-362.669	-32.214	-0.164	0.091
-361.654	422.211	0.139	0.297
-360.639	-102.305	0.234	0.056
-359.625	-103.243	0.183	-0.043
-358.610	-200.000	-0.026	-0.125
-357.596	13.436	-0.068	0.052
-356.581	800.000	-0.040	-0.111
-355.566	-137.305	-0.112	-0.013
-354.552	800.000	-0.102	0.365
-353.537	-200.000	0.009	0.139
-352.523	201.174	-0.096	-0.146
-351.508	64.585	-0.276	-0.276
-350.493	-68.971	0.248	-0.095
-349.479	-145.464	0.287	0.026
-348.464	-15.015	-0.314	-0.199
-347.450	-109.654	-0.138	0.029
-346.435	-35.715	0.224	0.120
-345.420	134.460	0.064	0.082
-344.406	18.909	0.112	-0.089
-343.391	9.374	0.207	0.155
-342.377	-149.551	0.158	-0.012
-341.362	120.828	0.095	0.117
-340.348	-28.187	-0.168	-0.096
-339.333	-200.000	0.001	0.056
-338.318	800.000	-0.009	0.033
-337.304	-50.979	-0.222	-0.103
-336.289	-37.432	0.202	-0.107
-335.275	23.931	-0.139	0.114
-334.260	-49.176	0.247	0.117
-333.245	45.039	-0.109	0.099
-332.231	24.762	-0.115	-0.094
-331.216	-200.000	0.011	0.159
-330.202	59.965	0.279	0.272
-329.187	-32.190	-0.132	-0.073
-328.172	-90.850	-0.229	0.065
-327.158	31.946	0.109	-0.093
-326.143	144.410	-0.031	-0.041
-325.129	-200.000	-0.007	0.210
-324.114	-161.281	0.270	0.014
-323.099	20.058	0.037	-0.030
-322.085	800.000	0.161	-0.454
-321.070	-113.076	-0.190	0.037
-320.056	-136.055	0.052	-0.006
-319.041	150.608	0.095	0.127
-318.026	-51.404	-0.182	-0.084
-317.012	83.627	0.115	-0.124
-315.997	-200.000	-0.032	0.166
-314.983	-73.303	0.216	0.078
-313.968	115.540	0.066	-0.079
-312.953	-200.000	0.015	-0.174
-311.939	-152.463	-0.511	-0.036
-310.924	-178.344	-0.262	-0.006
-309.910	-200.000	-0.028	0.302
-308.895	-116.181	-0.224	-0.041
-307.880	-200.000	0.029	0.178
-306.866	-200.000	-0.020	0.304
-305.851	-85.477	0.168	0.052
-304.837	56.228	-0.183	0.176
-303.822	50.690	0.133	0.124
-302.807	800.000	-0.063	-0.214
-301.793	800.000	-0.040	0.168
-300.778	800.000	0.083	-0.346
-299.764	-88.985	0.079	-0.023
-298.749	-86.050	0.204	0.062
-297.735	-69.470	-0.137	-0.052
-296.720	800.000	0.024	-0.081
-295.705	-84.708	0.042	0.013
-294.691	193.030	-0.103	-0.154
-293.676	182.220	0.093	-0.136
-292.662	-200.000	0.074	-0.322
-291.647	-163.938	-0.537	0.025
-290.632	-200.000	-0.129	0.617
-289.618	211.477	0.022	0.034
-288.603	-200.000	0.006	-0.331
-287.589	-112.715	0.353	-0.069
-286.574	15.939	0.238	0.185
-285.559	34.359	0.142	-0.122
-284.545	-143.730	-0.425	0.040
-283.530	-29.897	0.258	-0.145
-282.516	-200.000	0.004	0.042
-281.501	-137.182	0.363	0.041
-280.486	316.561	0.060	0.112
-279.472	-121.418	0.209	-0.034
-278.457	-149.461	0.269	-0.021
-277.443	398.980	-0.182	-0.376
-276.428	-200.000	0.052	0.292
-275.413	800.000	0.022	0.065
-274.399	-200.000	-0.024	0.154
-273.384	122.931	-0.132	0.164
-272.370	-200.000	-0.002	0.047
-271.355	6.298	-0.034	0.025
-270.340	800.000	0.085	0.311
-269.326	-123.374	0.196	-0.031
-268.311	196.657	-0.046	-0.069
-267.297	53.819	0.325	-0.309
-266.282	800.000	0.103	-0.355
-265.267	-200.000	-0.000	0.097
-264.253	-158.599	0.232	-0.013
-263.238	-172.530	-0.092	-0.003
-262.224	-125.021	0.026	0.004
-261.209	1.829	-0.295	0.210
-260.195	-52.131	0.068	0.031
-259.180	164.520	0.091	0.126
-258.165	-96.510	0.173	-0.045
-257.151	21.205	0.154	-0.124
-256.136	-138.013	-0.056	0.006
-255.122	33.685	0.136	0.117
-254.107	211.907	-0.124	-0.193
-253.092	-118.115	0.129	-0.023
-252.078	-140.104	0.243	0.025
-251.063	224.793	0.159	0.254
-250.049	-200.000	-0.043	-0.202
-249.034	242.476	0.084	-0.139
-248.019	117.235	-0.045	-0.055
-247.005	-19.503	-0.311	-0.190
-245.990	-96.757	0.075	0.019
-244.976	77.830	0.220	-0.232
-243.961	-64.463	0.397	-0.159
-242.946	423.221	0.020	0.043
-241.932	-19.354	-0.250	0.153
-240.917	-72.048	-0.065	0.024
-239.903	-52.602	0.087	-0.040
-238.888	-56.040	0.214	0.094
-237.873	-100.292	-0.123	0.030
-236.859	215.029	-0.056	-0.088
-235.844	-93.073	-0.121	-0.033
-234.830	-120.568	0.129	0.022
-233.815	-200.000	-0.082	0.367
-232.800	19.802	0.253	0.201
-231.786	177.440	0.176	0.253
-230.771	73.268	-0.127	-0.131
-229.757	-200.000	0.096	0.000
-228.742	80.005	0.251	-0.266
-227.727	-121.641	0.138	0.023
-226.713	-200.000	-0.009	0.090
-225.698	-200.000	0.015	-0.234
-224.684	492.357	-0.060	-0.135
-223.669	-97.437	-0.233	-0.060
-222.655	-154.922	0.225	0.015
-221.640	151.147	-0.186	0.250
-220.625	-160.520	0.071	-0.004
-219.611	-200.000	-0.022	0.121
-218.596	800.000	-0.003	0.009
-217.582	-67.363	0.170	-0.066
-216.567	-3.386	-0.058	0.040
-215.552	58.632	0.307	0.297
-214.538	456.904	0.134	-0.293
-213.523	83.173	0.041	-0.044
-212.509	266.212	-0.148	0.256
-211.494	122.440	-0.148	0.183
-210.479	-200.000	-0.028	0.209
-209.465	284.380	0.191	0.339
-208.450	357.789	0.043	0.085
-207.436	305.461	-0.138	-0.253
-206.421	-63.732	0.412	0.166
-205.406	800.000	0.053	-0.164
-204.392	34.369	-0.388	0.334
-203.377	-149.758	0.319	0.025
-202.363	-30.937	0.228	-0.127
-201.348	-102.243	0.225	0.053
-200.333	9.309	0.220	0.164
-199.319	-74.915	-0.384	0.136
-198.304	-200.000	-0.014	-0.201
-197.290	-63.045	-0.100	0.041
-196.275	-153.697	0.330	0.022
-195.260	55.309	-0.112	-0.107
-194.246	22.944	0.314	0.254
-193.231	-51.758	0.225	0.103
-192.217	205.033	-0.153	0.234
-191.202	-61.914	0.055	0.023
-190.187	-80.146	-0.209	0.069
-189.173	800.000	0.068	0.226
-188.158	-200.000	-0.047	0.253
-187.144	-200.000	0.016	0.217
-186.129	299.921	0.111	-0.201
-185.114	-132.305	-0.244	0.031
-184.100	-12.485	0.119	-0.076
-183.085	-69.001	0.248	0.094
-182.071	-60.531	0.208	-0.087
-181.056	-40.502	0.309	-0.158
-180.042	255.576	-0.140	-0.236
-179.027	800.000	0.078	-0.258
-178.012	-200.000	0.050	0.240
-176.998	225.371	-0.057	-0.091
-175.983	-200.000	0.061	-0.269
-174.969	-200.000	-0.026	-0.322
-173.954	351.207	0.042	-0.082
-172.939	-66.422	0.023	-0.009
-171.925	-30.206	-0.237	0.132
-170.910	-44.707	-0.085	0.042
-169.896	-108.925	-0.017	0.004
-168.881	800.000	-0.045	0.175
-167.866	28.118	0.221	-0.183
-166.852	430.119	-0.090	0.192
-165.837	-107.994	-0.241	0.051
-164.823	-19.760	-0.056	0.034
-163.808	800.000	0.083	0.229
-162.793	169.661	-0.166	0.234
-161.779	-90.001	-0.139	-0.040
-160.764	-96.832	0.341	-0.088
-159.750	443.809	0.046	0.098
-158.735	16.410	-0.163	-0.127
-157.720	-200.000	0.046	0.327
-156.706	-115.486	-0.093	-0.017
-155.691	-32.330	0.041	-0.023
-154.677	-200.000	-0.014	-0.288
-153.662	40.060	0.121	-0.107
-152.647	-102.583	0.314	0.074
-151.633	-82.996	-0.192	0.061
-150.618	-84.081	0.253	-0.079
-149.604	15.442	-0.196	-0.152
-148.589	316.748	0.065	-0.120
-147.574	305.066	-0.217	-0.396
-146.560	800.000	0.052	-0.142
-145.545	-123.684	-0.413	0.064
-144.531	-123.571	0.386	-0.060
-143.516	-200.000	0.060	0.263
-142.502	-200.000	-0.003	0.109
-141.487	-4.655	0.097	-0.066
-140.472	92.630	0.122	0.135
-139.458	65.668	-0.230	-0.228
-138.443	-90.202	-0.234	0.067
-137.429	-134.474	0.229	0.028
-136.414	800.000	0.087	-0.297
-135.399	-200.000	0.007	0.489
-134.385	244.375	-0.146	-0.241
-133.370	-200.000	0.009	-0.416
-132.356	-124.140	-0.276	0.042
-131.341	-96.058	0.039	-0.010
-130.326	800.000	0.040	-0.119
-129.312	-200.000	-0.016	-0.189
-128.297	-119.416	-0.400	-0.068
-127.283	124.365	-0.134	-0.165
-126.268	376.051	-0.081	0.162
-125.253	-191.072	0.082	0.001
-124.239	-48.700	0.155	0.073
-123.224	173.353	-0.083	-0.117
-122.210	-39.324	0.087	-0.045
-121.195	800.000	-0.006	0.023
-120.180	-122.655	0.369	0.059
-119.166	81.337	0.179	0.190
-118.151	-44.679	-0.223	0.109
-117.137	-200.000	-0.006	-0.048
-116.122	-200.000	0.070	0.345
-115.107	-152.755	-0.435	0.030
-114.093	175.571	0.093	0.133
-113.078	-200.000	-0.008	0.040
-112.064	274.986	-0.144	-0.251
-111.049	-30.357	-0.108	0.060
-110.034	-200.000	-0.003	0.146
-109.020	-38.607	0.294	-0.152
-108.005	-200.000	-0.005	-0.051
-106.991	-28.209	0.213	-0.121
-105.976	800.000	0.115	0.310
-104.962	136.874	0.155	0.199
-103.947	575.548	-0.040	-0.096
-102.932	-200.000	0.022	-0.113
-101.918	-200.000	0.040	-0.238
-100.903	-200.000	-0.014	0.163
-99.889	-100.613	-0.175	-0.042
-98.874	141.934	-0.278	0.361
-97.859	-30.879	0.132	0.073
-96.845	-92.156	0.250	0.069
-95.830	-82.597	-0.109	0.035
-94.816	-25.904	-0.350	0.202
-93.801	800.000	0.111	-0.367
-92.786	-154.562	0.146	-0.010
-91.772	-189.362	-0.242	-0.003
-90.757	-150.880	0.165	-0.012
-89.743	206.445	-0.115	-0.176
-88.728	-200.000	0.010	-0.249
-87.713	-70.734	0.395	-0.146
-86.699	15.465	0.553	-0.426
-85.684	-200.000	-0.015	-0.102
-84.670	272.095	-0.260	-0.450
-83.655	378.323	0.102	0.204
-82.640	64.136	-0.189	-0.187
-81.626	142.981	0.039	0.051
-80.611	703.934	-0.046	-0.119
-79.597	800.000	0.114	0.310
-78.582	-200.000	0.065	-0.431
-77.567	-200.000	0.047	0.217
-76.553	245.557	0.204	0.336
-75.538	363.113	0.098	-0.192
-74.524	11.263	-0.036	0.027
-73.509	-200.000	0.023	-0.212
-72.494	503.532	0.077	-0.175
-71.480	125.211	0.082	-0.101
-70.465	-2.951	-0.159	0.109
-69.451	-200.000	0.011	0.226
-68.436	-200.000	-0.028	-0.130
-67.422	107.611	-0.039	0.045
-66.407	217.307	-0.121	0.190
-65.392	443.965	0.138	0.297
-64.378	461.422	0.055	-0.121
-63.363	-96.326	0.135	0.035
-62.349	-159.778	-0.246	-0.013
-61.334	50.064	-0.904	-0.836
-60.319	-200.000	0.096	0.432
-59.305	210.105	-0.784	-1.206
-58.290	66.108	0.979	0.973
-57.276	598.160	0.593	1.440
-56.261	-200.000	103.448	613.341
-55.246	522.355	1468.080	3376.818
-54.232	182.605	2661.214	3844.775
-53.217	114.705	2148.024	2564.680
-52.203	42.398	1589.411	1415.438
-51.188	33.883	1323.864	1128.599
-50.173	30.739	1282.599	1075.245
-49.159	54.659	1334.687	1260.454
-48.144	55.573	1351.488	1281.653
-47.130	34.114	1307.299	1115.652
-46.115	30.623	1289.446	1080.145
-45.100	30.533	1284.080	1075.084
-44.086	30.355	1281.434	1071.797
-43.071	30.225	1279.599	1069.472
-42.057	30.205	1277.573	1067.623
-41.042	30.323	1276.112	1067.036
-40.027	30.354	1274.325	1065.674
-39.013	30.300	1272.693	1063.959
-37.998	30.374	1271.123	1063.031
-36.984	30.385	1269.480	1061.675
-35.969	30.493	1267.293	1060.421
-34.954	30.418	1266.101	1058.955
-33.940	30.428	1265.100	1058.132
-32.925	30.477	1263.282	1056.850
-31.911	30.435	1262.024	1055.514
-30.896	30.551	1260.140	1054.554
-29.881	30.565	1259.369	1053.946
-28.867	30.508	1258.035	1052.469
-27.852	30.499	1256.539	1051.125
-26.838	30.535	1255.317	1050.264
-25.823	30.522	1254.009	1049.055
-24.809	30.636	1252.026	1047.996
-23.794	30.467	1251.327	1046.416
-22.779	30.548	1249.574	1045.363
-21.765	30.469	1248.784	1044.217
-20.750	30.506	1247.360	1043.195
-19.736	30.420	1245.841	1041.397
-18.721	30.315	1245.030	1040.094
-17.706	30.380	1243.661	1039.274
-16.692	30.411	1242.415	1038.360
-15.677	30.403	1241.595	1037.589
-14.663	30.436	1240.200	1036.566
-13.648	30.380	1239.563	1035.684
-12.633	30.329	1238.791	1034.711
-11.619	30.358	1237.819	1034.019
-10.604	30.294	1236.994	1032.933
-9.590	30.250	1235.699	1031.569
-8.575	30.212	1234.826	1030.588
-7.560	30.189	1233.940	1029.676
-6.546	30.319	1232.877	1029.469
-5.531	30.224	1232.618	1028.688
-4.517	30.284	1231.651	1028.170
-3.502	30.276	1230.322	1026.979
-2.487	30.399	1229.619	1027.030
-1.473	30.443	1225.078	1023.437
-0.458	28.846	1210.142	1002.222
0.556	23.229	1192.706	964.454
1.571	19.384	1197.857	947.452
2.586	18.677	1211.710	954.392
3.600	18.464	1201.473	945.072
4.615	13.496	1130.376	863.233
5.629	4.439	1056.022	762.097
6.644	-0.055	1036.304	726.120
7.659	-0.275	1033.826	723.261
8.673	-0.439	1032.614	721.562
9.688	-0.430	1030.913	720.350
10.702	0.057	1029.056	721.323
11.717	5.663	1037.594	754.294
12.731	14.841	1049.913	807.723
13.746	18.947	1055.321	831.712
14.761	19.539	1055.678	834.783
15.775	19.729	1054.475	834.678
16.790	19.264	1053.943	831.936
17.804	19.171	1053.317	830.922
18.819	19.357	1052.771	831.311
19.834	19.339	1052.840	831.207
20.848	19.378	1052.470	831.027
21.863	19.329	1051.858	830.238
22.877	19.206	1051.032	828.921
23.892	19.331	1050.248	828.828
24.907	19.224	1049.871	827.942
25.921	19.164	1048.714	826.671
26.936	19.463	1047.144	826.791
27.950	19.321	1045.142	824.456
28.965	19.073	1043.692	822.060
29.980	19.201	1041.611	820.954
30.994	19.252	1041.117	820.736
32.009	19.317	1039.561	819.746
33.023	19.174	1038.300	818.002
34.038	19.229	1037.732	817.740
35.053	19.397	1036.886	817.799
36.067	19.449	1035.856	817.163
37.082	19.410	1035.314	816.477
38.096	19.586	1034.615	816.687
39.111	19.624	1033.741	816.105
40.126	19.484	1032.259	814.199
41.140	19.099	1030.937	811.272
42.155	19.038	1028.796	809.228
43.169	19.178	1028.076	809.248
44.184	19.152	1026.961	808.179
45.199	19.022	1025.718	806.519
46.213	19.037	1025.208	806.117
47.228	19.082	1024.232	805.487
48.242	19.176	1023.013	804.896
49.257	19.321	1022.214	804.874
50.271	19.251	1021.679	804.053
51.286	19.342	1020.563	803.527
52.301	19.341	1020.017	803.024
53.315	19.327	1018.895	802.005
54.330	19.274	1017.952	800.946
55.344	19.274	1017.341	800.394
56.359	19.295	1016.411	799.686
57.374	19.157	1015.071	797.923
58.388	19.199	1014.103	797.285
59.403	19.056	1013.241	795.879
60.417	19.051	1012.112	794.896
61.432	19.093	1011.874	794.835
62.447	19.212	1010.959	794.592
63.461	19.241	1010.189	794.054
64.476	19.146	1009.148	792.725
65.490	19.226	1007.995	792.119
66.505	19.226	1007.119	791.358
67.520	19.205	1007.091	791.172
68.534	18.941	1005.742	788.829
69.549	18.760	1004.485	786.944
70.563	18.715	1004.381	786.589
71.578	18.731	1003.043	785.544
72.593	18.711	1001.460	784.140
73.607	18.910	1001.238	784.810
74.622	19.269	1000.643	785.912
75.636	19.015	1000.323	784.431
76.651	18.904	999.632	783.312
77.666	18.829	998.790	782.245
78.680	18.911	998.022	781.945
79.695	18.987	997.120	781.517
80.709	19.176	996.294	781.656
81.724	19.089	995.692	780.721
82.739	19.058	995.237	780.156
83.753	19.402	994.612	781.151
84.768	19.566	993.709	781.115
85.782	19.662	993.038	780.956
86.797	19.532	991.768	779.301
87.812	19.359	990.916	777.779
88.826	19.530	989.724	777.547
89.841	19.528	988.559	776.553
90.855	19.637	988.014	776.547
91.870	19.494	986.971	775.017
92.884	19.409	985.778	773.632
93.899	19.326	984.629	772.286
94.914	19.685	983.299	772.780
95.928	19.406	982.762	771.044
96.943	19.143	981.882	769.111
97.957	18.866	980.529	766.750
98.972	18.744	979.295	765.169
99.987	19.045	978.884	766.125
101.001	19.376	978.022	766.853
102.016	19.287	977.132	765.694
103.030	19.041	976.432	763.984
104.045	19.030	975.161	762.871
105.060	18.975	973.751	761.457
106.074	19.119	973.514	761.844
107.089	19.445	973.188	762.962
108.103	19.335	971.621	761.183
109.118	19.311	970.162	759.863
110.133	19.064	969.501	758.193
111.147	19.018	968.223	756.922
112.162	18.875	967.056	755.315
113.176	19.169	966.513	756.115
114.191	19.089	965.552	754.945
115.206	18.788	964.256	752.547
116.220	18.767	963.731	751.979
117.235	18.839	963.144	751.769
118.249	18.859	962.177	751.035
119.264	18.759	961.493	750.000
120.279	18.927	960.923	750.221
121.293	18.997	959.996	749.737
122.308	19.037	958.999	749.065
123.322	18.967	957.559	747.570
124.337	18.849	956.501	746.165
125.352	18.157	955.004	741.928
126.366	18.357	953.583	741.628
127.381	19.089	953.473	744.644
128.395	19.268	953.089	745.052
129.410	19.517	951.728	744.995
130.424	19.394	951.046	743.866
131.439	19.541	950.061	743.663
132.454	19.396	949.241	742.333
133.468	19.407	948.314	741.589
134.483	19.520	947.571	741.430
135.497	19.598	946.913	741.182
136.512	19.604	946.137	740.537
137.527	19.705	944.953	739.973
138.541	19.697	943.792	738.964
139.556	19.665	943.274	738.360
140.570	19.590	942.635	737.474
141.585	19.577	941.600	736.540
142.600	19.593	940.627	735.783
143.614	19.829	939.693	735.994
144.629	19.752	939.560	735.494
145.643	19.659	937.777	733.640
146.658	19.598	936.666	732.448
147.673	19.632	935.502	731.615
148.687	19.448	934.745	730.180
149.702	19.497	933.760	729.552
150.716	19.419	932.838	728.440
151.731	19.576	932.067	728.437
152.746	19.647	931.648	728.343
153.760	19.848	930.690	728.375
154.775	19.822	930.145	727.776
155.789	19.748	929.115	726.594
156.804	19.823	928.210	726.137
157.819	19.765	927.757	725.476
158.833	19.846	927.361	725.442
159.848	19.986	925.654	724.628
160.862	19.700	924.723	722.638
161.877	19.801	923.750	722.236
162.892	19.955	923.070	722.285
163.906	19.763	922.118	720.673
164.921	19.910	921.082	720.412
165.935	19.950	919.962	719.639
166.950	19.759	919.109	718.117
167.964	19.724	918.744	717.622
168.979	19.668	917.396	716.272
169.994	19.709	916.405	715.608
171.008	19.912	915.933	716.013
172.023	19.789	915.277	714.930
173.037	19.484	913.872	712.508
174.052	19.374	913.320	711.562
175.067	19.502	912.784	711.610
176.081	19.703	912.130	711.866
177.096	19.595	911.643	710.975
178.110	19.274	910.607	708.787
179.125	19.315	909.849	708.304
180.140	19.320	909.331	707.858
181.154	19.423	909.188	708.104
182.169	19.768	908.548	708.957
183.183	19.791	908.481	708.940
184.198	19.789	907.501	708.103
185.213	19.745	906.595	707.154
186.227	19.888	905.745	707.011
187.242	19.876	905.173	706.453
188.256	19.710	904.940	705.532
189.271	19.683	903.952	704.589
190.286	19.615	902.548	703.154
191.300	19.142	901.515	700.363
192.315	18.622	899.377	696.531
193.329	18.530	899.309	696.043
194.344	19.256	899.867	699.361
195.359	19.794	899.336	701.071
196.373	19.739	899.040	700.554
197.388	19.516	898.514	699.177
198.402	19.561	897.278	698.337
199.417	19.596	896.915	698.135
200.432	19.307	896.045	696.228
201.446	19.091	895.469	694.846
202.461	19.167	894.651	694.455
203.475	18.342	893.297	690.023
204.490	17.853	891.477	686.588
205.504	18.706	892.046	690.399
206.519	19.340	891.438	692.414
207.534	19.325	891.694	692.489
208.548	19.904	891.009	694.221
209.563	19.519	890.092	691.899
210.577	19.489	889.559	691.304
211.592	19.903	889.288	692.691
212.607	19.815	888.166	691.403
213.621	19.912	887.547	691.249
214.636	19.842	887.145	690.594
215.650	19.794	885.989	689.443
216.665	19.902	885.713	689.596
217.680	19.781	884.906	688.425
218.694	19.418	883.463	685.800
219.709	19.336	882.620	684.757
220.723	19.641	882.418	685.750
221.738	19.698	881.560	685.249
222.753	19.779	881.284	685.297
223.767	19.796	880.346	684.575
224.782	20.041	880.189	685.360
225.796	19.891	879.498	684.168
226.811	19.257	878.372	680.727
227.826	18.747	876.833	677.466
228.840	18.928	876.510	677.869
229.855	19.081	875.568	677.684
230.869	18.730	874.659	675.538
231.884	19.167	874.300	676.918
232.899	19.779	874.424	679.359
233.913	19.735	874.167	678.926
234.928	19.723	873.381	678.212
235.942	19.572	872.949	677.223
236.957	19.518	871.526	675.847
237.972	19.481	871.364	675.515
238.986	19.522	870.612	675.033
240.001	19.465	869.890	674.193
241.015	19.578	869.146	673.998
242.030	19.553	868.796	673.569
243.045	19.767	868.374	674.015
244.059	19.923	867.806	674.125
245.074	19.825	866.745	672.857
246.088	19.399	865.584	670.244
247.103	19.689	865.220	671.028
248.117	20.060	865.446	672.582
249.132	20.210	864.862	672.653
250.147	20.258	864.063	672.157
251.161	20.545	863.279	672.597
252.176	20.430	862.871	671.775
253.190	20.541	862.177	671.607
254.205	20.564	861.712	671.274
255.220	20.529	861.459	670.881
256.234	20.532	860.380	669.993
257.249	20.302	859.544	668.395
258.263	20.332	858.991	668.022
259.278	20.622	858.368	668.595
260.293	20.407	857.933	667.372
261.307	20.342	857.284	666.558
262.322	20.185	856.133	665.000
263.336	19.428	854.370	660.675
264.351	18.433	852.188	655.126
265.366	18.667	852.293	656.045
266.380	19.687	852.752	660.239
267.395	20.307	852.205	662.122
268.409	20.144	851.668	661.024
269.424	20.229	851.550	661.199
270.439	20.244	850.629	660.481
271.453	20.387	850.391	660.783
272.468	20.709	849.714	661.424
273.482	20.646	849.277	660.785
274.497	20.255	848.074	658.309
275.512	19.791	846.916	655.593
276.526	20.299	846.796	657.365
277.541	20.418	846.745	657.718
278.555	20.145	845.911	655.980
279.570	20.036	844.717	654.582
280.585	20.189	844.195	654.698
281.599	20.323	843.472	654.587
282.614	19.515	842.495	650.724
283.628	19.617	842.190	650.818
284.643	20.080	841.424	651.908
285.657	19.724	840.180	649.549
286.672	19.382	839.336	647.558
287.687	20.057	839.472	650.137
288.701	19.927	838.922	649.166
289.716	19.757	837.756	647.571
290.730	19.512	837.644	646.508
291.745	19.288	836.431	644.679
292.760	19.740	836.105	646.059
293.774	20.808	836.475	650.280
294.789	20.769	836.611	650.178
295.803	20.896	835.837	649.996
296.818	21.071	835.233	650.122
297.833	20.577	834.227	647.441
298.847	20.537	832.867	646.179
299.862	20.778	832.971	647.097
300.876	20.832	833.100	647.343
301.891	20.872	831.574	646.247
302.906	20.251	831.269	643.651
303.920	20.351	831.142	643.865
304.935	20.768	830.084	644.534
305.949	20.867	829.343	644.268
306.964	20.709	828.799	643.202
307.979	20.696	828.545	642.903
308.993	20.977	828.182	643.600
310.008	21.089	827.481	643.413
311.022	20.590	826.782	640.974
312.037	20.745	826.065	640.931
313.052	20.446	825.497	639.334
314.066	19.727	824.043	635.508
315.081	19.225	823.731	633.365
316.095	20.235	823.809	637.081
317.110	20.703	823.135	638.220
318.125	19.880	821.575	633.942
319.139	19.017	820.402	629.822
320.154	18.963	820.314	629.499
321.168	19.857	820.449	632.819
322.183	20.450	820.443	634.925
323.197	20.480	820.415	634.960
324.212	20.764	819.862	635.512
325.227	20.814	819.242	635.157
326.241	20.643	818.649	634.018
327.256	20.601	818.209	633.468
328.270	20.554	817.386	632.603
329.285	20.409	816.287	631.171
330.300	20.160	815.285	629.437
331.314	20.490	815.016	630.370
332.329	20.657	815.330	631.164
333.343	20.878	814.882	631.563
334.358	20.841	814.342	630.952
335.373	20.878	813.821	630.628
336.387	21.285	813.493	631.792
337.402	21.110	813.875	631.396
338.416	21.100	813.339	630.888
339.431	21.197	812.993	630.915
340.446	21.396	812.504	631.198
341.460	21.207	811.523	629.698
342.475	21.185	811.145	629.271
343.489	21.147	810.955	628.933
344.504	21.258	810.919	629.248
345.519	21.462	810.081	629.276
346.533	21.527	809.819	629.248
347.548	21.679	809.243	629.293
348.562	21.499	809.142	628.512
349.577	21.472	808.628	627.962
350.592	21.489	807.462	627.061
351.606	21.572	806.909	626.872
352.621	21.483	805.824	625.656
353.635	21.487	805.243	625.164
354.650	20.733	803.728	621.241
355.665	19.916	802.368	617.224
356.679	20.173	801.980	617.787
357.694	20.755	801.499	619.431
358.708	20.549	801.489	618.638
359.723	20.891	800.829	619.290
360.738	21.276	800.535	620.376
361.752	21.307	800.243	620.201
362.767	21.656	799.978	621.183
363.781	21.717	799.628	621.069
364.796	21.797	799.166	620.940
365.810	21.766	798.961	620.617
366.825	22.016	797.975	620.678
367.840	21.614	797.522	618.851
368.854	21.296	796.789	617.105
369.869	21.154	796.666	616.455
370.883	21.237	796.160	616.301
371.898	20.924	795.706	614.792
372.913	21.207	794.989	615.180
373.927	21.349	794.789	615.469
374.942	21.540	794.253	615.672
375.956	21.662	793.881	615.759
376.971	21.633	793.805	615.542
377.986	21.747	793.625	615.751
379.000	21.643	792.726	614.632
380.015	21.629	792.026	613.987
381.029	21.771	791.641	614.132
382.044	21.944	790.998	614.183
383.059	21.826	790.435	613.279
384.073	21.681	790.253	612.578
385.088	21.991	789.497	613.019
386.102	21.740	788.887	611.615
387.117	21.725	788.176	610.959
388.132	21.256	787.543	608.779
389.146	21.000	786.189	606.787
390.161	21.173	786.183	607.332
391.175	21.473	786.186	608.325
392.190	21.177	784.939	606.277
393.205	19.988	783.220	600.772
394.219	18.953	781.455	595.782
395.234	18.746	781.693	595.192
396.248	20.370	783.080	601.831
397.263	21.606	783.340	606.261
398.278	21.585	783.376	606.162
399.292	21.213	782.780	604.358
400.307	21.286	782.092	604.027
401.321	21.479	781.942	604.525
402.336	21.702	781.620	604.994
403.350	22.063	781.136	605.811
404.365	22.282	780.888	606.319
405.380	22.368	780.792	606.486
406.394	22.446	780.085	606.154
407.409	22.464	779.483	605.694
408.423	22.426	779.158	605.256
409.438	22.518	779.175	605.531
410.453	22.487	778.555	604.890
411.467	22.440	777.896	604.163
412.482	22.511	777.168	603.788
413.496	22.643	777.079	604.117
414.511	22.652	776.356	603.534
415.526	22.651	776.270	603.410
416.540	22.148	776.068	601.477
417.555	22.129	775.299	600.765
418.569	22.087	774.904	600.261
419.584	22.079	774.154	599.600
420.599	21.955	773.361	598.510
421.613	159.363	1362.125	1798.338
422.628	137.546	1447.914	1798.416
