DTS Sentinel unit serial number:	SN413079Multiplexer serial number:	ORYXHardware model number:	OX4-SRSoftware version number:	ORYX F/W v4.00 Oryx Data Collector v3.7.2.0data status	okinstallation	princeton_trtdifferential loss correction	single-endedforward channel	channel 1reverse channel	N/Adate	2019/09/12time	03:12:11forward acquisition time	60.00reverse acquisition time	0.00gamma	496.2192k internal	0.2322k external	0.2322temperature offset calibration	1.0084default loss term (dB/km)	0.3790temperature slope calibration	1.0000multiplexer offset coefficient	1.0000multiplexer slope coefficient	1.0000fibre end	0.00T internal ref (°C)	32.27T ext. ref 1 (°C)	2.10T ext. ref 2 (°C)	27.04length (m)	temperature (°C)	Stokes	anti-Stokes-747.200	800.000	0.069	0.288
-746.185	-103.691	0.365	0.086
-745.171	-70.160	0.330	-0.127
-744.156	800.000	-0.083	0.283
-743.142	-200.000	0.011	0.055
-742.127	-200.000	0.073	0.375
-741.112	-77.985	0.364	0.127
-740.098	-200.000	0.017	0.309
-739.083	-30.560	-0.077	0.044
-738.069	144.679	-0.212	0.286
-737.054	-7.582	-0.135	-0.092
-736.039	-76.609	-0.154	-0.055
-735.025	-152.440	0.438	0.032
-734.010	435.394	-0.160	-0.351
-732.996	-200.000	0.021	0.207
-731.981	74.542	0.253	-0.268
-730.966	28.079	-0.078	-0.066
-729.952	-107.628	-0.190	-0.042
-728.937	-44.003	-0.144	-0.073
-727.923	113.368	-0.252	-0.308
-726.908	-13.174	-0.209	-0.137
-725.894	18.529	-0.127	-0.103
-724.879	800.000	0.042	0.165
-723.864	-160.092	0.260	-0.014
-722.850	102.612	-0.132	-0.156
-721.835	-2.405	-0.277	-0.196
-720.821	800.000	0.022	-0.095
-719.806	42.042	-0.137	0.125
-718.791	567.131	0.017	-0.041
-717.777	-200.000	-0.043	-0.352
-716.762	435.030	-0.057	0.125
-715.748	-200.000	-0.069	0.351
-714.733	-200.000	0.008	-0.150
-713.718	367.553	-0.068	0.139
-712.704	-32.417	-0.171	-0.096
-711.689	456.199	-0.074	-0.166
-710.675	389.576	0.272	-0.568
-709.660	134.605	0.257	-0.336
-708.645	33.805	-0.175	0.154
-707.631	516.791	-0.096	0.226
-706.616	-200.000	0.025	-0.109
-705.602	338.340	0.160	0.315
-704.587	-24.347	-0.141	0.085
-703.572	370.258	0.201	-0.411
-702.558	178.228	-0.224	-0.330
-701.543	19.771	0.104	-0.085
-700.529	-164.218	0.409	0.019
-699.514	800.000	0.032	0.106
-698.499	-53.792	-0.203	0.093
-697.485	-7.439	0.174	-0.119
-696.470	-200.000	-0.021	-0.497
-695.456	-89.486	-0.072	-0.021
-694.441	-95.810	-0.230	0.062
-693.426	-111.112	-0.102	0.021
-692.412	25.136	-0.032	0.027
-691.397	-40.482	-0.006	0.003
-690.383	-73.030	-0.345	0.128
-689.368	56.819	-0.150	0.147
-688.354	-42.659	0.191	0.098
-687.339	-48.631	-0.092	0.045
-686.324	800.000	-0.039	-0.125
-685.310	-200.000	-0.055	-0.338
-684.295	-102.114	-0.114	-0.028
-683.281	18.178	-0.286	0.230
-682.266	-109.357	0.267	-0.057
-681.251	51.340	-0.108	0.103
-680.237	148.575	-0.157	-0.214
-679.222	-200.000	0.090	-0.411
-678.208	-200.000	0.013	-0.080
-677.193	147.467	0.202	-0.274
-676.178	1.791	-0.268	-0.195
-675.164	18.016	0.201	0.162
-674.149	523.124	0.106	0.250
-673.135	-43.478	0.314	0.160
-672.120	13.048	-0.335	-0.261
-671.105	-200.000	0.023	-0.273
-670.091	-91.668	-0.220	0.063
-669.076	520.634	0.066	-0.156
-668.062	-75.794	0.263	0.094
-667.047	309.819	0.126	-0.238
-666.032	656.509	-0.067	-0.174
-665.018	-200.000	0.009	0.060
-664.003	-103.110	0.118	-0.028
-662.989	-130.214	0.413	-0.057
-661.974	-49.079	-0.084	-0.041
-660.959	188.089	0.061	0.092
-659.945	-200.000	-0.005	0.116
-658.930	-25.463	-0.231	-0.137
-657.916	285.252	-0.023	-0.041
-656.901	800.000	0.024	0.067
-655.886	800.000	-0.018	-0.052
-654.872	188.204	-0.032	-0.049
-653.857	-183.071	0.209	-0.004
-652.843	144.827	0.080	-0.107
-651.828	-192.121	0.214	0.002
-650.814	100.622	0.298	-0.348
-649.799	-149.487	-0.308	-0.025
-648.784	132.288	0.195	-0.253
-647.770	-200.000	-0.017	0.119
-646.755	-200.000	0.070	0.340
-645.741	-102.571	-0.203	0.049
-644.726	800.000	-0.118	0.374
-643.711	450.391	-0.080	-0.177
-642.697	-41.346	-0.269	0.140
-641.682	18.215	0.024	-0.019
-640.668	-157.092	0.303	0.019
-639.653	-47.232	-0.038	0.018
-638.638	-200.000	-0.038	-0.252
-637.624	-128.701	-0.311	-0.044
-636.609	-105.854	0.493	-0.112
-635.595	79.869	0.189	-0.204
-634.580	-53.049	-0.044	-0.020
-633.565	-200.000	-0.021	0.163
-632.551	593.988	-0.094	0.233
-631.536	-200.000	0.003	0.107
-630.522	-200.000	0.041	-0.332
-629.507	-180.923	0.197	0.004
-628.492	590.377	-0.110	-0.272
-627.478	357.116	-0.100	-0.201
-626.463	-200.000	0.029	-0.286
-625.449	372.155	-0.026	0.053
-624.434	-15.957	0.158	0.101
-623.419	-200.000	-0.011	-0.221
-622.405	2.587	-0.383	-0.279
-621.390	800.000	-0.061	0.247
-620.376	100.768	-0.171	0.200
-619.361	-126.112	-0.227	0.034
-618.346	-98.795	-0.347	-0.089
-617.332	-200.000	-0.012	-0.168
-616.317	-200.000	-0.037	-0.226
-615.303	116.202	0.136	0.167
-614.288	61.742	-0.272	-0.272
-613.273	800.000	0.073	-0.218
-612.259	-146.029	-0.345	0.031
-611.244	222.744	-0.163	-0.264
-610.230	352.615	0.092	-0.183
-609.215	367.007	-0.122	0.248
-608.201	199.300	0.056	-0.087
-607.186	-132.152	0.041	0.005
-606.171	-200.000	0.013	-0.541
-605.157	-122.624	0.313	0.051
-604.142	-20.318	-0.135	0.084
-603.128	800.000	0.155	-0.552
-602.113	-200.000	-0.016	0.157
-601.098	-200.000	-0.021	0.202
-600.084	29.688	0.214	0.183
-599.069	18.041	0.252	0.202
-598.055	800.000	0.035	0.099
-597.040	-200.000	-0.023	-0.103
-596.025	-97.831	0.244	0.063
-595.011	-82.748	-0.184	-0.060
-593.996	200.134	-0.074	0.114
-592.982	-95.878	0.300	-0.080
-591.967	60.693	0.183	0.183
-590.952	-94.813	0.466	-0.127
-589.938	800.000	-0.013	-0.051
-588.923	66.519	0.282	-0.288
-587.909	-141.813	0.067	0.007
-586.894	500.468	-0.041	-0.095
-585.879	-120.710	-0.223	-0.038
-584.865	-101.517	-0.144	-0.035
-583.850	211.236	-0.230	0.364
-582.836	-31.589	-0.245	-0.138
-581.821	800.000	0.045	-0.177
-580.806	-200.000	0.028	-0.225
-579.792	-115.625	-0.103	0.019
-578.777	500.790	0.135	-0.313
-577.763	425.726	-0.096	-0.209
-576.748	73.065	-0.219	0.229
-575.733	202.138	0.094	0.145
-574.719	-64.971	0.375	0.152
-573.704	-200.000	0.025	-0.282
-572.690	-200.000	0.031	-0.329
-571.675	-126.969	0.240	-0.035
-570.661	133.481	0.069	-0.090
-569.646	275.277	-0.054	-0.095
-568.631	20.117	-0.178	-0.144
-567.617	-126.554	-0.362	0.054
-566.602	57.543	0.168	-0.165
-565.588	-7.926	0.085	0.058
-564.573	57.050	0.090	-0.088
-563.558	-65.367	-0.263	-0.106
-562.544	-83.403	-0.362	0.116
-561.529	157.397	0.149	0.207
-560.515	206.481	-0.192	-0.300
-559.500	-22.293	-0.219	-0.133
-558.485	72.041	-0.085	0.089
-557.471	800.000	0.065	0.210
-556.456	-154.907	-0.332	0.022
-555.442	109.767	-0.036	-0.044
-554.427	800.000	0.022	-0.091
-553.412	-163.867	-0.152	-0.007
-552.398	-150.065	-0.200	-0.016
-551.383	89.300	-0.251	0.281
-550.369	206.115	-0.238	0.371
-549.354	-200.000	0.017	0.227
-548.339	800.000	0.039	0.141
-547.325	-104.479	0.126	-0.029
-546.310	800.000	0.108	0.327
-545.296	-101.306	0.322	-0.079
-544.281	78.141	0.294	-0.314
-543.266	6.215	-0.360	-0.268
-542.252	-200.000	-0.014	-0.065
-541.237	-93.681	-0.061	0.017
-540.223	-83.217	0.150	-0.048
-539.208	49.133	-0.077	0.073
-538.193	402.694	-0.040	-0.084
-537.179	-200.000	-0.011	0.077
-536.164	800.000	0.053	-0.165
-535.150	-45.977	-0.067	0.033
-534.135	30.877	0.208	0.179
-533.121	-200.000	0.016	0.224
-532.106	399.386	0.077	0.161
-531.091	-107.521	0.132	0.029
-530.077	-200.000	-0.010	-0.318
-529.062	201.646	-0.072	0.111
-528.048	-125.630	-0.202	-0.031
-527.033	233.724	0.109	-0.181
-526.018	-200.000	0.081	-0.388
-525.004	-103.113	-0.150	0.036
-523.989	-200.000	0.074	0.398
-522.975	-103.796	-0.150	0.035
-521.960	733.509	-0.165	0.442
-520.945	45.591	-0.201	-0.186
-519.931	-200.000	-0.092	-0.424
-518.916	186.522	0.255	0.380
-517.902	-84.429	0.210	0.067
-516.887	340.949	-0.143	-0.280
-515.872	-102.405	-0.418	-0.100
-514.858	126.706	-0.042	0.053
-513.843	-200.000	0.010	0.128
-512.829	-172.635	0.212	-0.007
-511.814	13.599	-0.279	-0.217
-510.799	-104.854	0.079	-0.018
-509.785	-61.881	0.222	0.093
-508.770	-200.000	0.003	-0.255
-507.756	179.134	-0.133	-0.195
-506.741	539.480	0.019	-0.046
-505.726	309.364	-0.116	-0.216
-504.712	213.709	-0.014	-0.023
-503.697	36.293	0.067	0.059
-502.683	-107.329	0.126	0.028
-501.668	78.674	0.150	-0.160
-500.653	88.942	-0.108	0.120
-499.639	-13.398	-0.215	-0.139
-498.624	-131.474	0.196	0.026
-497.610	-96.806	-0.192	0.051
-496.595	-36.854	0.260	-0.140
-495.581	-162.252	-0.306	0.015
-494.566	800.000	-0.049	0.211
-493.551	-11.921	0.198	0.130
-492.537	-120.701	0.116	0.020
-491.522	-200.000	0.026	0.126
-490.508	-36.408	0.327	-0.176
-489.493	228.139	0.182	0.296
-488.478	-150.336	0.185	0.014
-487.464	34.179	-0.083	-0.073
-486.449	-116.457	-0.014	0.003
-485.435	-112.997	0.129	-0.025
-484.420	34.528	0.323	0.282
-483.405	-200.000	0.027	0.205
-482.391	-200.000	-0.001	0.137
-481.376	-200.000	0.018	-0.272
-480.362	743.075	-0.142	-0.382
-479.347	14.750	-0.108	0.085
-478.332	30.558	0.141	-0.121
-477.318	-200.000	0.059	-0.323
-476.303	-50.216	0.275	-0.130
-475.289	46.124	0.151	-0.140
-474.274	-44.107	0.202	-0.101
-473.259	-102.298	-0.164	-0.039
-472.245	141.953	0.192	-0.255
-471.230	-195.045	0.372	-0.003
-470.216	144.235	0.102	0.136
-469.201	53.369	-0.262	0.251
-468.186	-54.485	0.305	0.138
-467.172	186.361	0.021	-0.032
-466.157	49.258	-0.092	-0.086
-465.143	362.346	-0.169	0.340
-464.128	-200.000	0.200	0.000
-463.113	297.018	0.120	-0.220
-462.099	-81.788	0.207	0.068
-461.084	-200.000	-0.023	0.464
-460.070	-67.165	-0.273	-0.108
-459.055	-178.084	0.114	-0.003
-458.040	-22.486	-0.258	0.156
-457.026	-106.812	0.125	0.028
-456.011	223.158	0.267	0.429
-454.997	334.867	-0.022	-0.042
-453.982	49.163	0.164	-0.154
-452.968	-18.954	0.161	0.100
-451.953	228.138	-0.226	0.367
-450.938	526.063	-0.056	-0.131
-449.924	-4.225	0.027	-0.019
-448.909	-42.340	0.121	-0.062
-447.895	-180.298	-0.221	0.005
-446.880	800.000	0.033	-0.108
-445.865	-70.188	0.173	0.066
-444.851	-200.000	-0.008	0.326
-443.836	36.044	-0.171	0.150
-442.822	130.448	-0.088	-0.112
-441.807	30.518	0.166	0.142
-440.792	-200.000	0.031	0.229
-439.778	-200.000	0.243	0.001
-438.763	-65.946	0.189	0.075
-437.749	60.861	-0.095	-0.094
-436.734	-61.415	-0.184	0.077
-435.719	-200.000	0.022	-0.238
-434.705	-38.386	0.291	-0.154
-433.690	-102.624	0.307	-0.073
-432.676	-45.150	-0.192	0.095
-431.661	60.687	-0.100	-0.099
-430.646	-68.340	-0.306	0.119
-429.632	33.358	-0.080	0.070
-428.617	-200.000	-0.006	0.234
-427.603	50.261	-0.136	-0.128
-426.588	15.742	-0.038	0.030
-425.573	-160.948	0.102	0.005
-424.559	-127.557	0.356	0.052
-423.544	-35.124	0.130	0.071
-422.530	-200.000	0.037	0.202
-421.515	146.502	-0.157	0.210
-420.500	207.425	-0.105	-0.163
-419.486	-119.651	-0.268	-0.046
-418.471	177.987	0.093	0.135
-417.457	-85.387	-0.159	-0.049
-416.442	-32.163	0.156	0.087
-415.428	800.000	-0.104	-0.301
-414.413	-83.763	0.091	-0.029
-413.398	-200.000	0.026	-0.193
-412.384	-35.920	0.066	-0.035
-411.369	238.412	0.139	0.230
-410.355	-101.365	0.134	0.033
-409.340	-37.827	0.279	-0.148
-408.325	109.202	-0.156	-0.186
-407.311	-200.000	0.034	0.461
-406.296	86.640	-0.089	0.098
-405.282	-118.686	0.213	-0.037
-404.267	-200.000	-0.015	-0.236
-403.252	-20.264	-0.221	-0.136
-402.238	371.379	0.140	0.282
-401.223	-200.000	0.040	-0.198
-400.209	-27.378	0.288	0.167
-399.194	161.489	-0.177	0.247
-398.179	-124.781	0.108	0.017
-397.165	-18.046	0.096	0.060
-396.150	800.000	0.085	-0.260
-395.136	769.512	-0.053	-0.143
-394.121	167.631	-0.203	-0.288
-393.106	41.331	0.090	0.081
-392.092	800.000	-0.030	0.090
-391.077	800.000	-0.051	-0.160
-390.063	-200.000	-0.002	-0.046
-389.048	-200.000	-0.005	-0.305
-388.033	-61.350	-0.158	0.066
-387.019	-200.000	-0.040	-0.181
-386.004	359.163	-0.098	0.196
-384.990	32.216	-0.219	-0.189
-383.975	-73.190	0.090	0.033
-382.960	-200.000	0.058	0.355
-381.946	59.887	-0.133	-0.131
-380.931	-200.000	-0.005	-0.127
-379.917	-61.199	-0.100	0.042
-378.902	1.724	0.256	-0.184
-377.888	58.525	0.122	0.119
-376.873	-49.443	-0.098	0.047
-375.858	-75.030	0.192	-0.069
-374.844	-65.716	-0.380	0.152
-373.829	-57.777	-0.221	-0.096
-372.815	192.567	0.105	-0.158
-371.800	10.200	-0.157	0.119
-370.785	-14.344	0.146	-0.093
-369.771	187.982	-0.243	0.361
-368.756	33.147	-0.137	0.118
-367.742	-51.580	-0.080	0.037
-366.727	-200.000	-0.070	0.410
-365.712	-173.042	-0.188	0.006
-364.698	800.000	-0.027	-0.098
-363.683	210.543	-0.076	-0.119
-362.669	-19.052	-0.334	-0.207
-361.654	-2.664	-0.267	0.186
-360.639	-137.286	0.214	0.024
-359.625	-200.000	0.008	-0.392
-358.610	-0.773	0.320	-0.226
-357.596	-39.466	-0.410	0.214
-356.581	403.504	-0.053	-0.110
-355.566	51.690	-0.149	0.141
-354.552	-130.632	-0.091	-0.012
-353.537	78.549	0.126	-0.134
-352.523	123.011	-0.248	-0.308
-351.508	126.494	-0.086	0.108
-350.493	-104.033	0.291	0.067
-349.479	474.868	0.113	0.253
-348.464	10.894	-0.264	0.200
-347.450	-57.003	-0.314	-0.138
-346.435	-154.493	-0.228	0.015
-345.420	800.000	-0.039	0.119
-344.406	-59.790	0.335	0.143
-343.391	-149.158	-0.434	0.035
-342.377	117.609	0.088	0.107
-341.362	-200.000	0.022	0.255
-340.348	260.193	0.044	-0.076
-339.333	-200.000	-0.073	-0.383
-338.318	142.373	0.066	0.087
-337.304	-114.164	-0.050	0.010
-336.289	-200.000	0.017	-0.125
-335.275	800.000	0.075	-0.236
-334.260	-67.934	-0.188	-0.073
-333.245	-106.162	0.149	-0.033
-332.231	-200.000	-0.004	0.060
-331.216	10.132	0.232	-0.175
-330.202	-200.000	-0.010	0.088
-329.187	-182.624	0.050	-0.001
-328.172	-200.000	-0.056	0.274
-327.158	-200.000	-0.011	0.046
-326.143	52.039	0.094	-0.089
-325.129	-87.393	-0.172	-0.052
-324.114	-109.991	0.098	0.020
-323.099	634.001	0.076	0.192
-322.085	-137.274	-0.180	0.020
-321.070	-123.312	0.134	0.021
-320.056	-45.841	-0.067	-0.033
-319.041	-200.000	-0.011	0.146
-318.026	-123.316	-0.101	-0.016
-317.012	324.259	0.151	-0.286
-315.997	-200.000	0.014	-0.137
-314.983	62.370	-0.220	0.218
-313.968	-200.000	-0.002	0.154
-312.953	61.480	-0.157	-0.155
-311.939	180.739	-0.056	-0.081
-310.924	-38.392	0.325	0.171
-309.910	-200.000	-0.010	0.244
-308.895	179.498	0.123	0.179
-307.880	-200.000	-0.012	-0.210
-306.866	800.000	0.015	0.045
-305.851	-113.931	-0.230	-0.044
-304.837	-80.483	-0.127	-0.042
-303.822	62.402	-0.113	-0.112
-302.807	440.152	-0.108	-0.234
-301.793	24.410	-0.195	0.160
-300.778	132.550	0.302	0.387
-299.764	-84.967	-0.364	0.114
-298.749	281.862	-0.080	0.143
-297.735	-141.189	-0.370	-0.037
-296.720	-127.668	0.152	-0.022
-295.705	-16.775	-0.225	-0.141
-294.691	326.019	-0.166	0.316
-293.676	107.728	-0.099	0.116
-292.662	800.000	0.067	0.187
-291.647	36.836	0.127	-0.111
-290.632	-200.000	-0.065	-0.287
-289.618	800.000	0.024	-0.067
-288.603	-59.458	0.267	0.114
-287.589	39.193	-0.155	0.138
-286.574	296.114	-0.038	-0.069
-285.559	51.713	-0.377	0.356
-284.545	64.453	0.292	-0.292
-283.530	-11.396	0.227	0.148
-282.516	-51.734	0.372	0.172
-281.501	693.086	-0.096	0.249
-280.486	85.156	-0.158	0.172
-279.472	-127.439	0.104	-0.015
-278.457	67.872	0.140	0.142
-277.443	-57.154	-0.290	-0.127
-276.428	-13.827	0.247	0.158
-275.413	-200.000	0.014	0.194
-274.399	3.839	-0.161	-0.116
-273.384	-200.000	-0.042	-0.189
-272.370	424.214	-0.061	-0.130
-271.355	143.930	0.132	-0.174
-270.340	166.504	-0.065	0.091
-269.326	61.240	0.230	-0.227
-268.311	800.000	-0.058	0.160
-267.297	173.841	-0.122	0.174
-266.282	-198.469	0.213	-0.001
-265.267	-135.950	0.428	-0.050
-264.253	14.379	-0.157	0.122
-263.238	-143.268	0.175	0.017
-262.224	-10.108	0.190	0.125
-261.209	15.087	0.398	0.309
-260.195	80.010	0.065	0.069
-259.180	63.896	-0.052	0.052
-258.165	-200.000	0.002	0.027
-257.151	675.180	-0.145	-0.374
-256.136	-9.851	0.122	-0.081
-255.122	-52.176	-0.248	-0.114
-254.107	-200.000	-0.018	-0.234
-253.092	-133.518	-0.255	0.032
-252.078	800.000	0.063	0.196
-251.063	800.000	-0.037	-0.135
-250.049	-200.000	-0.013	0.071
-249.034	-200.000	-0.014	-0.269
-248.019	-117.488	-0.164	-0.029
-247.005	86.715	-0.190	-0.208
-245.990	-105.476	0.374	-0.084
-244.976	-136.348	-0.287	0.033
-243.961	120.821	-0.058	0.071
-242.946	126.792	-0.080	-0.101
-241.932	50.569	0.216	0.203
-240.917	800.000	0.100	0.376
-239.903	75.972	0.192	0.201
-238.888	800.000	-0.055	0.179
-237.873	-200.000	-0.038	0.276
-236.859	12.040	-0.278	0.212
-235.844	-25.426	-0.067	0.039
-234.830	-200.000	0.001	-0.110
-233.815	157.564	0.195	-0.268
-232.800	170.424	0.111	0.157
-231.786	-200.000	-0.015	-0.191
-230.771	800.000	-0.141	0.385
-229.757	-54.384	-0.180	-0.081
-228.742	365.076	-0.085	0.169
-227.727	-200.000	-0.025	-0.127
-226.713	7.897	-0.179	0.133
-225.698	800.000	-0.041	0.145
-224.684	716.766	0.071	-0.187
-223.669	-200.000	-0.007	0.090
-222.655	67.423	0.161	-0.163
-221.640	225.612	-0.138	-0.222
-220.625	-65.040	0.223	-0.089
-219.611	800.000	-0.077	0.299
-218.596	-200.000	0.040	0.308
-217.582	-44.917	-0.275	-0.135
-216.567	179.869	0.194	0.282
-215.552	-200.000	0.061	-0.396
-214.538	74.796	-0.010	0.010
-213.523	-120.747	-0.306	0.051
-212.509	-95.000	0.254	-0.068
-211.494	113.737	0.187	-0.225
-210.479	-136.493	0.229	0.026
-209.465	58.723	0.054	-0.052
-208.450	44.179	-0.216	-0.196
-207.436	349.784	-0.077	0.150
-206.421	-83.377	0.279	0.088
-205.406	-122.237	0.344	-0.056
-204.392	-98.438	0.094	-0.024
-203.377	-128.271	-0.017	0.002
-202.363	-200.000	0.017	0.092
-201.348	-27.683	0.208	-0.119
-200.333	130.445	0.251	0.319
-199.319	-60.787	0.440	0.184
-198.304	-164.469	-0.396	0.018
-197.290	-30.213	0.315	0.177
-196.275	337.324	0.117	0.225
-195.260	-200.000	0.215	0.000
-194.246	-122.269	0.200	-0.032
-193.231	13.346	0.170	0.130
-192.217	167.948	0.157	-0.221
-191.202	-45.282	-0.289	-0.142
-190.187	-23.465	0.308	0.183
-189.173	357.788	-0.113	0.223
-188.158	509.430	0.057	-0.131
-187.144	-200.000	-0.035	0.216
-186.129	-127.592	0.274	-0.039
-185.114	-87.778	0.140	-0.042
-184.100	-37.755	-0.651	0.342
-183.085	-63.144	0.092	-0.037
-182.071	58.627	0.185	0.179
-181.056	-73.305	-0.278	-0.101
-180.042	-200.000	-0.008	0.296
-179.027	800.000	-0.055	0.151
-178.012	800.000	0.036	-0.129
-176.998	-200.000	0.018	0.150
-175.983	-12.545	0.087	0.056
-174.969	122.570	-0.095	-0.118
-173.954	108.011	0.215	-0.253
-172.939	636.260	-0.109	-0.272
-171.925	156.969	-0.227	0.309
-170.910	607.679	-0.032	-0.079
-169.896	1.040	0.178	-0.126
-168.881	-125.519	-0.217	0.033
-167.866	-200.000	-0.054	-0.497
-166.852	-126.037	-0.130	-0.019
-165.837	-65.577	0.192	-0.076
-164.823	2.170	0.112	0.080
-163.808	24.393	0.065	0.053
-162.793	-36.735	0.156	-0.083
-161.779	-71.208	-0.145	0.054
-160.764	460.513	0.089	0.195
-159.750	-90.274	-0.207	0.059
-158.735	316.588	0.189	-0.353
-157.720	-135.006	0.363	-0.043
-156.706	67.924	-0.138	0.139
-155.691	141.118	0.301	-0.393
-154.677	35.096	-0.300	-0.259
-153.662	279.950	0.051	-0.089
-152.647	72.955	-0.225	-0.232
-151.633	82.555	-0.197	-0.212
-150.618	-200.000	0.010	-0.136
-149.604	-21.635	-0.050	0.030
-148.589	-96.987	0.406	-0.105
-147.574	-123.485	0.563	0.088
-146.560	-17.843	-0.180	-0.111
-145.545	686.286	0.029	0.075
-144.531	199.283	0.049	-0.074
-143.516	783.165	0.082	0.221
-142.502	-54.763	-0.076	-0.034
-141.487	800.000	0.100	0.324
-140.472	800.000	0.022	0.070
-139.458	363.645	-0.158	-0.312
-138.443	-144.744	-0.280	0.025
-137.429	123.737	-0.087	-0.108
-136.414	176.614	0.177	0.254
-135.399	401.752	0.091	-0.190
-134.385	-88.442	0.401	-0.118
-133.370	207.972	-0.040	-0.062
-132.356	217.970	-0.121	-0.190
-131.341	-45.268	0.106	0.052
-130.326	32.762	0.163	-0.140
-129.312	-200.000	0.006	-0.268
-128.297	0.485	0.247	0.174
-127.283	146.209	0.091	-0.120
-126.268	-141.998	0.329	0.032
-125.253	-87.470	-0.084	0.025
-124.239	-43.482	-0.521	0.259
-123.224	-44.746	-0.245	0.121
-122.210	422.542	0.116	0.245
-121.195	56.060	0.193	-0.184
-120.180	-136.864	0.360	0.041
-119.166	-200.000	0.015	-0.182
-118.151	800.000	0.065	-0.238
-117.137	-127.211	-0.133	0.019
-116.122	-200.000	-0.004	-0.256
-115.107	800.000	0.023	-0.076
-114.093	101.849	0.090	-0.103
-113.078	35.120	0.212	-0.183
-112.064	-26.876	-0.050	0.029
-111.049	7.787	0.230	-0.170
-110.034	2.535	-0.155	-0.111
-109.020	-103.125	0.352	0.082
-108.005	-90.086	0.056	0.016
-106.991	-200.000	0.008	0.401
-105.976	800.000	-0.050	-0.153
-104.962	118.871	0.096	0.117
-103.947	800.000	-0.015	0.057
-102.932	169.864	-0.017	-0.024
-101.918	-125.848	0.330	0.049
-100.903	-68.056	-0.060	0.023
-99.889	210.049	0.081	0.125
-98.874	800.000	0.070	-0.278
-97.859	-171.585	-0.101	-0.003
-96.845	-182.727	0.374	-0.007
-95.830	800.000	-0.059	0.206
-94.816	-53.133	0.131	0.059
-93.801	-135.002	0.134	0.016
-92.786	196.401	0.166	0.249
-91.772	240.998	-0.132	0.218
-90.757	43.302	0.241	0.216
-89.743	42.335	-0.109	0.097
-88.728	104.130	0.010	-0.011
-87.713	-200.000	0.023	0.158
-86.699	-89.315	0.299	0.087
-85.684	-126.086	0.204	0.030
-84.670	-200.000	-0.043	-0.318
-83.655	-61.185	0.098	-0.041
-82.640	-200.000	0.018	-0.266
-81.626	730.296	0.014	0.038
-80.611	196.580	0.125	-0.187
-79.597	76.847	0.102	-0.107
-78.582	54.746	-0.030	0.029
-77.567	800.000	-0.069	-0.276
-76.553	-115.566	-0.397	0.073
-75.538	-119.150	0.284	-0.049
-74.524	-80.605	-0.136	-0.044
-73.509	149.206	0.150	0.200
-72.494	102.776	-0.178	0.205
-71.480	-200.000	-0.016	-0.318
-70.465	69.524	-0.164	0.166
-69.451	6.197	0.146	-0.106
-68.436	40.885	-0.187	0.166
-67.422	668.524	-0.103	0.263
-66.407	-59.634	0.313	-0.132
-65.392	-6.817	-0.112	0.075
-64.378	-113.929	0.373	-0.071
-63.363	4.398	0.128	0.092
-62.349	35.077	0.182	0.157
-61.334	90.697	-0.667	-0.735
-60.319	-55.500	0.343	0.151
-59.305	-200.000	-0.058	-1.063
-58.290	194.866	0.677	1.011
-57.276	800.000	0.397	1.576
-56.261	-200.000	95.367	592.132
-55.246	571.226	1365.654	3269.778
-54.232	162.803	2539.351	3505.710
-53.217	113.610	2134.696	2549.747
-52.203	44.076	1600.071	1442.601
-51.188	35.871	1338.360	1157.508
-50.173	32.620	1296.943	1102.656
-49.159	54.267	1344.247	1272.272
-48.144	56.478	1361.251	1301.478
-47.130	36.006	1319.409	1141.739
-46.115	32.488	1302.417	1106.363
-45.100	32.184	1297.873	1100.674
-44.086	32.229	1294.947	1098.416
-43.071	32.169	1293.127	1096.477
-42.057	32.010	1290.742	1093.487
-41.042	32.150	1288.905	1092.700
-40.027	32.137	1287.636	1091.504
-39.013	32.200	1285.413	1089.941
-37.998	32.282	1283.713	1088.936
-36.984	32.192	1282.235	1087.115
-35.969	32.248	1279.847	1085.372
-34.954	32.354	1278.070	1084.433
-33.940	32.261	1277.128	1083.055
-32.925	32.358	1275.892	1082.523
-31.911	32.285	1274.566	1080.932
-30.896	32.412	1272.477	1079.851
-29.881	32.384	1271.347	1078.687
-28.867	32.400	1270.166	1077.735
-27.852	32.448	1268.244	1076.331
-26.838	32.413	1267.224	1075.222
-25.823	32.356	1265.895	1073.729
-24.809	32.305	1264.891	1072.545
-23.794	32.238	1263.528	1070.963
-22.779	32.353	1262.008	1070.286
-21.765	32.301	1260.522	1068.689
-20.750	32.378	1259.453	1068.180
-19.736	32.318	1257.681	1066.293
-18.721	32.269	1256.612	1065.067
-17.706	32.266	1255.680	1064.217
-16.692	32.332	1254.324	1063.402
-15.677	32.230	1253.425	1062.016
-14.663	32.145	1252.428	1060.654
-13.648	32.195	1251.156	1059.815
-12.633	32.198	1250.453	1059.192
-11.619	32.189	1249.861	1058.597
-10.604	32.262	1248.761	1058.036
-9.590	32.114	1247.915	1056.447
-8.575	32.172	1246.693	1055.696
-7.560	32.105	1246.107	1054.779
-6.546	32.185	1245.060	1054.303
-5.531	32.116	1244.538	1053.430
-4.517	32.332	1242.950	1053.252
-3.502	32.154	1242.360	1051.718
-2.487	32.327	1241.067	1051.547
-1.473	32.126	1237.355	1047.238
-0.458	30.796	1222.601	1027.380
0.556	27.939	1205.550	990.641
1.571	24.431	1211.297	976.130
2.586	23.715	1227.020	984.742
3.600	23.220	1215.963	973.060
4.615	16.987	1144.005	883.056
5.629	7.024	1066.607	774.664
6.644	2.427	1046.265	737.700
7.659	2.044	1044.159	734.307
8.673	2.017	1042.689	733.081
9.688	1.924	1041.430	731.685
10.702	2.507	1040.001	733.411
11.717	9.203	1049.351	772.207
12.731	19.262	1063.150	831.046
13.746	24.321	1069.802	860.658
14.761	25.268	1071.450	866.483
15.775	25.489	1070.298	866.540
16.790	25.166	1069.752	864.464
17.804	25.172	1068.916	863.742
18.819	25.331	1068.563	864.146
19.834	25.352	1068.200	863.877
20.848	25.352	1067.844	863.509
21.863	25.524	1067.082	863.645
22.877	25.382	1066.150	862.132
23.892	25.244	1066.060	861.321
24.907	25.396	1065.054	861.159
25.921	25.338	1064.256	860.162
26.936	25.296	1062.965	858.841
27.950	25.222	1061.536	857.257
28.965	25.171	1059.470	855.267
29.980	25.224	1058.232	854.447
30.994	25.463	1057.046	854.552
32.009	25.487	1056.271	853.960
33.023	25.227	1054.986	851.613
34.038	25.294	1054.419	851.397
35.053	25.340	1053.780	851.027
36.067	25.334	1053.169	850.427
37.082	25.614	1051.945	850.690
38.096	25.682	1051.507	850.583
39.111	25.665	1050.966	849.989
40.126	25.496	1049.488	847.918
41.140	25.152	1047.893	844.938
42.155	24.966	1046.434	842.808
43.169	24.929	1045.639	841.922
44.184	25.071	1044.322	841.454
45.199	24.891	1043.955	840.235
46.213	25.040	1042.488	839.682
47.228	25.238	1042.199	840.302
48.242	25.228	1041.424	839.557
49.257	25.305	1040.638	839.210
50.271	25.494	1039.767	839.311
51.286	25.563	1038.786	838.770
52.301	25.468	1037.831	837.479
53.315	25.408	1037.391	836.773
54.330	25.409	1036.293	835.819
55.344	25.322	1035.643	834.812
56.359	25.447	1034.330	834.264
57.374	25.150	1033.499	832.142
58.388	25.117	1033.174	831.652
59.403	25.052	1032.211	830.504
60.417	25.009	1030.745	829.050
61.432	25.067	1030.660	829.179
62.447	25.124	1030.314	829.089
63.461	25.195	1029.437	828.638
64.476	25.018	1028.892	827.308
65.490	25.049	1027.276	826.079
66.505	25.091	1026.934	825.924
67.520	25.130	1026.166	825.412
68.534	24.876	1025.256	823.440
69.549	24.568	1024.245	821.141
70.563	24.674	1022.966	820.529
71.578	24.593	1022.210	819.478
72.593	24.442	1021.457	818.109
73.607	24.584	1021.151	818.443
74.622	24.840	1020.709	819.187
75.636	24.956	1020.278	819.298
76.651	24.894	1019.173	818.055
77.666	24.684	1018.066	816.137
78.680	24.833	1017.734	816.478
79.695	24.917	1016.976	816.182
80.709	25.005	1016.675	816.269
81.724	24.964	1016.035	815.494
82.739	25.094	1014.979	815.168
83.753	25.420	1014.456	816.155
84.768	25.703	1013.975	816.980
85.782	25.851	1013.099	816.877
86.797	25.623	1011.928	814.825
87.812	25.472	1011.045	813.359
88.826	25.638	1010.201	813.359
89.841	25.643	1009.322	812.603
90.855	25.748	1008.662	812.474
91.870	25.622	1007.717	811.069
92.884	25.454	1006.798	809.501
93.899	25.401	1005.820	808.408
94.914	25.684	1004.878	808.851
95.928	25.586	1003.433	807.178
96.943	25.326	1002.188	804.936
97.957	25.000	1001.309	802.699
98.972	24.976	1000.016	801.483
99.987	25.099	999.756	801.756
101.001	25.314	998.778	801.860
102.016	25.277	998.309	801.246
103.030	25.202	997.266	800.008
104.045	25.246	995.641	798.829
105.060	24.955	995.382	797.253
106.074	25.128	994.764	797.459
107.089	25.476	994.192	798.473
108.103	25.328	992.940	796.743
109.118	25.149	991.857	795.010
110.133	25.045	990.885	793.701
111.147	24.824	990.055	791.986
112.162	24.690	988.872	790.377
113.176	25.058	988.517	791.648
114.191	24.789	988.253	790.179
115.206	24.612	986.622	788.024
116.220	24.619	985.759	787.298
117.235	24.867	984.751	787.515
118.249	24.728	984.286	786.459
119.264	24.704	983.346	785.537
120.279	24.756	982.532	785.042
121.293	24.829	981.914	784.799
122.308	24.777	981.179	783.918
123.322	24.788	979.874	782.854
124.337	24.669	978.162	780.896
125.352	24.210	976.789	777.729
126.366	24.135	975.797	776.540
127.381	24.912	975.941	779.973
128.395	25.171	975.624	780.779
129.410	25.320	974.867	780.752
130.424	25.382	973.530	779.884
131.439	25.305	973.108	779.142
132.454	25.152	972.518	777.938
133.468	25.186	970.807	776.646
134.483	25.422	970.251	777.152
135.497	25.596	969.583	777.300
136.512	25.440	969.056	776.137
137.527	25.544	968.056	775.714
138.541	25.590	967.037	775.026
139.556	25.500	966.533	774.170
140.570	25.681	965.910	774.381
141.585	25.739	964.731	773.614
142.600	25.746	963.551	772.631
143.614	25.775	963.358	772.533
144.629	25.868	962.295	772.011
145.643	25.710	961.172	770.366
146.658	25.565	959.693	768.492
147.673	25.357	958.618	766.675
148.687	25.361	957.844	766.003
149.702	25.359	956.780	765.079
150.716	25.207	955.982	763.725
151.731	25.545	955.407	764.635
152.746	25.706	954.735	764.712
153.760	25.735	954.205	764.343
154.775	25.640	954.298	763.948
155.789	25.746	952.866	763.185
156.804	25.581	952.021	761.739
157.819	25.719	951.090	761.514
158.833	25.958	950.246	761.780
159.848	25.911	949.444	760.870
160.862	25.711	948.255	759.007
161.877	25.689	947.167	757.974
162.892	25.872	945.996	757.743
163.906	25.820	944.882	756.562
164.921	25.613	944.366	755.217
165.935	25.799	943.362	755.126
166.950	25.786	942.639	754.424
167.964	25.829	941.500	753.628
168.979	25.573	940.661	751.820
169.994	25.498	939.756	750.715
171.008	25.739	939.225	751.228
172.023	25.730	938.397	750.462
173.037	25.465	937.485	748.565
174.052	25.563	936.060	747.768
175.067	25.385	935.895	746.831
176.081	25.522	935.448	746.979
177.096	25.495	935.095	746.515
178.110	25.255	933.508	744.187
179.125	25.038	932.911	742.747
180.140	25.163	932.840	743.141
181.154	25.276	932.601	743.354
182.169	25.539	932.588	744.369
183.183	25.768	931.899	744.701
184.198	25.670	930.914	743.442
185.213	25.679	930.235	742.872
186.227	25.588	929.741	742.033
187.242	25.704	929.013	741.868
188.256	25.885	928.321	741.994
189.271	25.842	927.419	741.032
190.286	25.527	925.863	738.427
191.300	24.773	924.800	734.419
192.315	24.197	923.243	730.755
193.329	24.172	922.896	730.316
194.344	24.934	923.564	733.904
195.359	25.605	923.544	736.569
196.373	25.745	922.530	736.270
197.388	25.478	922.447	735.048
198.402	25.479	921.881	734.535
199.417	25.708	920.984	734.690
200.432	25.341	920.227	732.526
201.446	25.132	919.334	730.895
202.461	25.330	918.806	731.221
203.475	24.397	916.949	725.883
204.490	23.641	915.682	721.742
205.504	24.593	915.745	725.597
206.519	25.146	915.894	727.898
207.534	25.255	915.373	727.859
208.548	25.713	915.117	729.447
209.563	25.446	914.191	727.566
210.577	25.414	913.660	726.950
211.592	25.738	913.706	728.231
212.607	25.902	912.500	727.870
213.621	25.828	912.343	727.381
214.636	25.772	911.576	726.476
215.650	25.697	910.217	725.028
216.665	25.859	909.785	725.273
217.680	25.769	908.847	724.101
218.694	25.343	908.196	721.804
219.709	25.386	907.056	721.007
220.723	25.362	907.231	720.985
221.738	25.593	906.364	721.159
222.753	25.584	906.044	720.806
223.767	25.774	905.564	721.122
224.782	25.854	905.325	721.186
225.796	25.982	904.316	720.830
226.811	25.350	902.765	717.008
227.826	24.492	901.668	712.650
228.840	24.740	900.901	712.971
229.855	24.820	900.558	712.954
230.869	24.593	899.313	710.999
231.884	24.952	899.074	712.178
232.899	25.551	899.694	714.988
233.913	25.446	899.077	714.016
234.928	25.477	897.933	713.167
235.942	25.473	897.519	712.762
236.957	25.150	896.875	710.907
237.972	25.182	896.121	710.372
238.986	25.235	895.774	710.243
240.001	25.278	894.761	709.549
241.015	25.347	894.591	709.625
242.030	25.578	894.375	710.302
243.045	25.501	894.285	709.863
244.059	25.755	893.410	710.110
245.074	25.631	892.093	708.511
246.088	25.318	891.227	706.527
247.103	25.616	890.808	707.304
248.117	26.020	891.172	709.119
249.132	26.288	890.549	709.614
250.147	26.435	890.252	709.893
251.161	26.441	890.240	709.842
252.176	26.573	889.117	709.402
253.190	26.596	888.352	708.818
254.205	26.715	888.407	709.267
255.220	26.674	887.542	708.353
256.234	26.645	886.776	707.566
257.249	26.364	886.426	706.126
258.263	26.441	885.455	705.591
259.278	26.496	884.977	705.362
260.293	26.617	884.250	705.189
261.307	26.541	883.493	704.228
262.322	26.334	882.653	702.693
263.336	25.563	880.852	698.204
264.351	24.415	879.193	692.377
265.366	24.559	878.930	692.667
266.380	25.648	879.720	697.450
267.395	26.173	879.354	699.131
268.409	26.222	878.339	698.452
269.424	26.416	877.955	698.836
270.439	26.304	877.389	697.891
271.453	26.417	876.814	697.808
272.468	26.646	876.507	698.384
273.482	26.613	876.396	698.109
274.497	26.093	875.067	694.987
275.512	25.679	874.300	692.722
276.526	26.238	874.348	694.847
277.541	26.488	873.718	695.247
278.555	26.230	872.899	693.545
279.570	26.094	871.638	691.960
280.585	26.171	871.406	692.008
281.599	26.199	870.479	691.318
282.614	25.577	869.290	687.935
283.628	25.548	869.078	687.597
284.643	25.898	868.936	688.760
285.657	25.565	867.593	686.366
286.672	25.207	866.912	684.397
287.687	25.939	866.508	686.810
288.701	25.834	866.214	686.114
289.716	25.713	865.105	684.716
290.730	25.355	864.819	683.070
291.745	25.305	863.594	681.848
292.760	25.540	863.587	682.678
293.774	26.571	863.995	686.851
294.789	26.858	863.726	687.666
295.803	26.889	863.166	687.276
296.818	26.895	862.313	686.560
297.833	26.554	861.050	684.202
298.847	26.491	860.596	683.545
299.862	26.647	860.464	683.970
300.876	26.853	860.279	684.537
301.891	26.775	859.448	683.524
302.906	26.275	859.041	681.254
303.920	26.387	858.785	681.414
304.935	26.889	857.796	682.455
305.949	26.792	857.406	681.722
306.964	26.640	856.641	680.482
307.979	26.666	856.335	680.274
308.993	27.038	855.816	681.201
310.008	26.915	855.450	680.385
311.022	26.680	854.833	678.954
312.037	26.635	854.044	678.100
313.052	26.368	853.055	676.257
314.066	25.523	851.387	671.718
315.081	25.088	850.968	669.702
316.095	25.987	851.345	673.297
317.110	26.643	850.729	675.201
318.125	25.551	849.864	670.383
319.139	24.625	847.880	665.315
320.154	24.498	847.936	664.824
321.168	25.519	848.153	668.736
322.183	26.307	848.013	671.497
323.197	26.454	847.808	671.823
324.212	26.503	847.493	671.694
325.227	26.552	846.676	671.168
326.241	26.524	846.034	670.498
327.256	26.326	845.806	669.525
328.270	26.378	845.180	669.161
329.285	26.039	843.945	666.870
330.300	25.891	843.503	665.916
331.314	26.218	843.059	666.713
332.329	26.567	843.115	667.985
333.343	26.733	842.726	668.231
334.358	26.776	842.214	667.925
335.373	26.790	841.745	667.544
336.387	27.185	841.585	668.815
337.402	27.086	841.608	668.407
338.416	27.137	841.334	668.317
339.431	27.180	841.448	668.508
340.446	27.435	840.683	668.777
341.460	27.246	840.237	667.670
342.475	27.054	839.584	666.389
343.489	27.017	839.557	666.174
344.504	27.350	839.120	666.989
345.519	27.488	838.841	667.212
346.533	27.439	838.290	666.534
347.548	27.486	837.789	666.251
348.562	27.513	837.268	665.874
349.577	27.482	836.347	664.970
350.592	27.410	835.828	664.236
351.606	27.376	835.234	663.580
352.621	27.361	833.812	662.338
353.635	27.227	833.228	661.328
354.650	26.526	831.661	657.482
355.665	25.689	830.183	653.218
356.679	26.120	830.244	654.771
357.694	26.427	829.833	655.504
358.708	26.284	829.461	654.633
359.723	26.870	829.524	656.747
360.738	27.195	828.845	657.328
361.752	27.249	828.619	657.285
362.767	27.561	828.095	657.938
363.781	27.827	827.649	658.486
364.796	27.913	827.577	658.678
365.810	28.048	826.938	658.598
366.825	27.864	826.869	657.823
367.840	27.423	826.088	655.556
368.854	27.131	825.151	653.702
369.869	27.102	824.854	653.306
370.883	27.313	824.189	653.479
371.898	27.207	823.540	652.526
372.913	27.361	823.376	652.892
373.927	27.484	823.088	653.046
374.942	27.601	822.608	653.027
375.956	27.768	822.437	653.433
376.971	27.698	822.126	652.876
377.986	27.777	821.319	652.460
379.000	27.903	820.410	652.131
380.015	27.705	819.933	650.988
381.029	27.690	819.819	650.784
382.044	27.980	818.955	651.074
383.059	27.754	819.167	650.382
384.073	27.836	818.530	650.110
385.088	27.741	817.732	649.080
386.102	27.555	817.019	647.796
387.117	27.438	816.358	646.798
388.132	27.193	815.134	644.904
389.146	26.741	813.811	642.196
390.161	27.161	814.033	643.802
391.175	27.541	814.050	645.108
392.190	27.272	813.062	643.316
393.205	25.901	810.663	636.520
394.219	24.415	808.862	629.813
395.234	24.398	808.910	629.733
396.248	25.920	810.430	636.237
397.263	27.437	811.198	642.137
398.278	27.370	810.609	641.381
399.292	27.253	809.643	640.147
400.307	27.227	809.404	639.808
401.321	27.255	809.582	639.992
402.336	27.560	809.640	641.055
403.350	28.176	808.916	642.587
404.365	28.229	809.190	642.935
405.380	28.505	808.745	643.494
406.394	28.694	808.358	643.791
407.409	28.554	808.000	642.958
408.423	28.383	807.287	641.737
409.438	28.714	806.486	642.200
410.453	28.680	806.207	641.801
411.467	28.581	805.853	641.117
412.482	28.679	805.403	641.046
413.496	28.753	804.862	640.815
414.511	28.663	804.750	640.356
415.526	28.584	804.351	639.705
416.540	28.448	803.722	638.676
417.555	28.264	802.810	637.252
418.569	28.346	802.545	637.273
419.584	28.187	801.716	636.005
420.599	28.096	801.186	635.213
421.613	111.824	1285.142	1457.761
422.628	96.542	1355.663	1457.832
