DTS Sentinel unit serial number:	SN413079Multiplexer serial number:	ORYXHardware model number:	OX4-SRSoftware version number:	ORYX F/W v4.00 Oryx Data Collector v3.7.2.0data status	okinstallation	princeton_trtdifferential loss correction	single-endedforward channel	channel 1reverse channel	N/Adate	2019/09/17time	09:42:35forward acquisition time	60.00reverse acquisition time	0.00gamma	496.2192k internal	0.2324k external	0.2324temperature offset calibration	0.9960default loss term (dB/km)	0.3790temperature slope calibration	1.0000multiplexer offset coefficient	1.0000multiplexer slope coefficient	1.0000fibre end	0.00T internal ref (°C)	29.28T ext. ref 1 (°C)	0.16T ext. ref 2 (°C)	25.42length (m)	temperature (°C)	Stokes	anti-Stokes-747.200	-11.324	0.130	0.086
-746.185	800.000	-0.068	0.205
-745.171	800.000	0.047	-0.152
-744.156	12.588	0.106	-0.082
-743.142	-61.661	-0.118	0.050
-742.127	800.000	-0.165	0.568
-741.112	113.207	0.140	0.172
-740.098	-83.241	-0.263	0.085
-739.083	89.140	0.218	-0.245
-738.069	288.175	-0.175	0.319
-737.054	-200.000	-0.004	-0.147
-736.039	-85.575	-0.127	-0.040
-735.025	120.993	0.116	0.146
-734.010	307.250	0.113	-0.212
-732.996	-200.000	-0.025	-0.383
-731.981	-45.294	-0.288	0.144
-730.966	30.583	-0.167	-0.144
-729.952	414.572	0.153	-0.328
-728.937	800.000	-0.042	0.157
-727.923	105.633	-0.315	0.376
-726.908	-37.957	-0.347	0.186
-725.894	590.853	-0.220	-0.549
-724.879	-38.922	-0.238	-0.126
-723.864	126.531	-0.113	0.145
-722.850	27.597	0.193	-0.164
-721.835	-147.767	-0.185	0.016
-720.821	123.054	0.033	-0.042
-719.806	128.894	-0.108	-0.139
-718.791	110.669	0.065	0.079
-717.777	-113.576	0.198	-0.039
-716.762	-95.731	0.197	-0.053
-715.748	85.256	0.041	-0.045
-714.733	-200.000	-0.019	-0.386
-713.718	24.612	-0.090	-0.075
-712.704	176.315	-0.057	-0.083
-711.689	-200.000	0.024	0.118
-710.675	-130.835	0.149	0.020
-709.660	-68.560	-0.427	-0.167
-708.645	-112.922	0.095	-0.019
-707.631	-200.000	-0.040	0.182
-706.616	493.131	0.125	-0.288
-705.602	-73.868	-0.063	0.023
-704.587	-76.830	-0.258	-0.091
-703.572	800.000	-0.040	0.172
-702.558	143.408	0.181	0.243
-701.543	-45.316	0.311	-0.155
-700.529	-200.000	-0.024	-0.211
-699.514	-118.796	0.127	-0.023
-698.499	4.945	-0.151	-0.112
-697.485	-65.662	0.252	-0.102
-696.470	-41.255	-0.214	-0.111
-695.456	-48.103	0.218	0.106
-694.441	459.598	0.078	-0.175
-693.426	18.159	0.267	0.215
-692.412	205.981	0.217	-0.341
-691.397	-200.000	0.039	0.327
-690.383	202.322	-0.176	0.273
-689.368	-184.393	0.087	-0.001
-688.354	629.211	0.099	-0.251
-687.339	-196.946	-0.188	0.001
-686.324	-112.819	0.089	0.018
-685.310	-183.478	-0.258	0.004
-684.295	-165.206	-0.145	0.006
-683.281	-166.975	-0.085	-0.004
-682.266	159.281	0.119	0.167
-681.251	52.085	-0.112	0.108
-680.237	-85.275	0.129	0.041
-679.222	-43.559	0.238	0.121
-678.208	45.953	-0.063	-0.059
-677.193	-200.000	0.075	0.379
-676.178	-93.986	0.161	-0.044
-675.164	-200.000	0.001	0.085
-674.149	426.385	0.015	0.032
-673.135	-49.069	-0.193	0.093
-672.120	-93.089	0.219	0.061
-671.105	43.384	-0.093	-0.085
-670.091	-85.999	-0.199	-0.062
-669.076	-62.936	-0.261	0.109
-668.062	-28.973	0.132	-0.076
-667.047	800.000	-0.018	-0.052
-666.032	-200.000	-0.081	-0.410
-665.018	-162.170	-0.233	0.012
-664.003	-71.567	0.221	-0.083
-662.989	163.825	-0.208	0.295
-661.974	-79.489	0.086	0.029
-660.959	283.442	-0.119	0.214
-659.945	43.976	0.145	0.134
-658.930	582.528	-0.021	-0.051
-657.916	-150.333	-0.198	0.015
-656.901	399.175	0.164	0.345
-655.886	-200.000	-0.003	-0.026
-654.872	-160.840	0.211	-0.011
-653.857	-99.559	0.055	-0.014
-652.843	-200.000	0.066	-0.294
-651.828	-123.881	0.259	-0.041
-650.814	-130.291	-0.206	-0.028
-649.799	21.676	-0.115	-0.094
-648.784	-200.000	-0.010	0.321
-647.770	-18.322	-0.219	-0.138
-646.755	84.617	-0.157	-0.173
-645.741	203.451	0.053	0.082
-644.726	-69.544	-0.233	0.090
-643.711	-143.197	-0.283	-0.027
-642.697	57.221	-0.345	0.338
-641.682	136.734	-0.092	0.121
-640.668	6.315	0.079	-0.059
-639.653	-200.000	-0.014	0.152
-638.638	531.451	0.036	0.086
-637.624	261.585	-0.083	-0.145
-636.609	800.000	-0.054	0.155
-635.595	-11.005	0.060	-0.040
-634.580	266.312	-0.199	-0.349
-633.565	-200.000	0.008	0.046
-632.551	204.838	-0.024	-0.037
-631.536	-200.000	-0.012	-0.210
-630.522	473.926	-0.117	0.264
-629.507	-88.181	-0.401	-0.121
-628.492	-76.182	-0.228	0.081
-627.478	-200.000	-0.031	0.141
-626.463	195.479	-0.238	-0.364
-625.449	-65.094	0.195	0.079
-624.434	-24.819	-0.355	0.212
-623.419	-174.450	0.084	0.002
-622.405	-200.000	-0.028	0.130
-621.390	-200.000	0.016	0.122
-620.376	-84.491	0.364	0.115
-619.361	244.220	-0.083	-0.140
-618.346	23.674	-0.184	0.152
-617.332	-200.000	0.066	0.352
-616.317	10.190	-0.203	-0.155
-615.303	800.000	-0.051	-0.173
-614.288	511.464	0.072	-0.168
-613.273	-200.000	0.001	0.095
-612.259	54.045	-0.111	0.107
-611.244	-60.941	0.279	-0.118
-610.230	-200.000	-0.068	0.361
-609.215	-170.701	0.391	0.014
-608.201	-199.269	-0.287	0.002
-607.186	-89.638	-0.266	-0.078
-606.171	91.657	-0.078	-0.088
-605.157	-56.584	-0.196	0.087
-604.142	-70.560	0.309	-0.117
-603.128	712.597	-0.046	-0.123
-602.113	-200.000	-0.003	0.103
-601.098	3.322	0.013	-0.009
-600.084	-151.143	0.203	0.015
-599.069	-200.000	0.019	-0.160
-598.055	105.061	0.105	-0.124
-597.040	321.000	0.047	0.090
-596.025	-110.968	0.011	0.002
-595.011	-193.232	-0.124	0.001
-593.996	-63.513	-0.214	0.088
-592.982	-200.000	0.013	0.149
-591.967	-52.518	-0.318	-0.147
-590.952	-200.000	0.082	-0.461
-589.938	-200.000	-0.006	-0.159
-588.923	9.366	0.111	-0.084
-587.909	-88.774	-0.157	0.047
-586.894	79.048	-0.093	-0.100
-585.879	-200.000	-0.049	0.236
-584.865	46.831	-0.236	0.220
-583.850	-87.304	0.372	0.113
-582.836	-200.000	-0.005	-0.143
-581.821	800.000	-0.174	-0.521
-580.806	800.000	-0.025	0.077
-579.792	-200.000	0.000	-0.040
-578.777	800.000	-0.023	-0.092
-577.763	-200.000	0.016	-0.122
-576.748	23.830	-0.025	-0.021
-575.733	-74.023	0.203	0.074
-574.719	-149.976	-0.223	-0.017
-573.704	258.576	-0.080	-0.139
-572.690	70.344	-0.154	0.159
-571.675	-26.689	0.286	0.168
-570.661	21.994	0.281	0.230
-569.646	264.501	0.052	-0.090
-568.631	-76.848	-0.142	-0.050
-567.617	-200.000	-0.013	0.081
-566.602	-200.000	0.044	0.225
-565.588	786.620	0.029	-0.080
-564.573	800.000	-0.093	-0.307
-563.558	800.000	-0.108	0.387
-562.544	-84.526	0.209	-0.066
-561.529	800.000	-0.045	0.182
-560.515	-3.738	0.096	-0.067
-559.500	50.548	0.195	0.185
-558.485	800.000	0.165	0.470
-557.471	398.155	-0.154	0.323
-556.456	800.000	0.043	0.121
-555.442	-200.000	-0.038	-0.302
-554.427	370.027	0.108	-0.220
-553.412	-115.756	0.199	-0.037
-552.398	-179.080	0.103	-0.002
-551.383	-200.000	0.005	0.185
-550.369	-130.694	0.273	0.037
-549.354	127.366	-0.120	-0.153
-548.339	-128.220	-0.173	-0.025
-547.325	99.303	0.112	-0.130
-546.310	-200.000	-0.003	0.165
-545.296	-2.453	0.399	-0.280
-544.281	800.000	-0.081	0.336
-543.266	78.250	-0.199	-0.212
-542.252	64.103	-0.396	-0.399
-541.237	-196.195	0.250	-0.002
-540.223	-16.819	0.010	-0.006
-539.208	441.794	-0.059	-0.130
-538.193	183.861	0.145	-0.215
-537.179	-27.102	0.156	-0.091
-536.164	800.000	-0.103	-0.345
-535.150	65.805	0.094	-0.095
-534.135	15.186	-0.208	-0.164
-533.121	158.605	-0.110	-0.153
-532.106	31.655	0.293	-0.252
-531.091	46.812	0.085	0.079
-530.077	-200.000	-0.010	-0.138
-529.062	-53.448	0.155	-0.071
-528.048	1.988	-0.028	-0.020
-527.033	-94.100	-0.292	-0.080
-526.018	-110.695	0.055	0.011
-525.004	421.152	0.107	-0.229
-523.989	800.000	0.049	0.139
-522.975	-120.636	0.308	0.052
-521.960	-200.000	-0.003	0.022
-520.945	-128.936	-0.123	0.017
-519.931	-70.663	0.296	-0.112
-518.916	70.260	-0.149	-0.154
-517.902	800.000	-0.082	0.271
-516.887	28.379	0.308	0.260
-515.872	51.674	-0.028	-0.027
-514.858	37.258	0.180	-0.159
-513.843	792.391	-0.087	0.238
-512.829	16.393	0.116	-0.092
-511.814	570.460	-0.152	0.369
-510.799	513.070	-0.069	0.160
-509.785	-89.747	0.234	0.069
-508.770	-200.000	0.012	-0.089
-507.756	-200.000	0.021	-0.177
-506.741	80.191	0.043	0.046
-505.726	-122.942	0.330	-0.053
-504.712	20.558	-0.089	-0.072
-503.697	753.286	0.111	0.300
-502.683	57.685	-0.138	0.135
-501.668	8.250	-0.143	0.108
-500.653	301.412	-0.172	-0.318
-499.639	-58.568	0.126	-0.055
-498.624	-200.000	-0.008	0.043
-497.610	537.705	-0.014	-0.033
-496.595	-200.000	0.232	-0.001
-495.581	-200.000	-0.030	0.220
-494.566	1.192	0.088	-0.063
-493.551	4.529	0.279	-0.205
-492.537	-200.000	0.065	-0.285
-491.522	-200.000	-0.022	-0.224
-490.508	-89.027	0.531	0.157
-489.493	-66.638	0.250	0.099
-488.478	-80.522	-0.289	-0.096
-487.464	-200.000	-0.011	0.113
-486.449	-119.953	0.251	-0.043
-485.435	-135.621	-0.408	-0.048
-484.420	232.853	-0.053	-0.087
-483.405	-200.000	-0.010	-0.089
-482.391	-15.605	-0.110	0.070
-481.376	714.704	-0.066	-0.176
-480.362	-46.983	0.240	0.117
-479.347	102.297	-0.227	0.265
-478.332	-200.000	-0.034	-0.197
-477.318	-101.786	0.275	-0.067
-476.303	-148.031	0.162	-0.013
-475.289	-163.541	0.077	-0.004
-474.274	69.351	0.022	0.022
-473.259	153.267	0.327	0.447
-472.245	-50.539	0.518	-0.244
-471.230	248.957	0.139	-0.235
-470.216	-200.000	-0.038	0.190
-469.201	-123.291	0.249	0.040
-468.186	-115.366	-0.378	-0.071
-467.172	205.359	-0.154	-0.240
-466.157	-200.000	-0.041	-0.218
-465.143	-82.939	-0.065	0.021
-464.128	-200.000	-0.007	0.146
-463.113	763.074	-0.116	-0.315
-462.099	-189.064	-0.512	0.006
-461.084	280.074	-0.110	-0.196
-460.070	-127.091	0.096	0.014
-459.055	50.999	0.166	0.158
-458.040	208.651	0.123	0.193
-457.026	220.459	0.128	-0.204
-456.011	-200.000	-0.051	-0.243
-454.997	384.817	0.041	0.083
-453.982	-171.293	-0.256	-0.009
-452.968	138.730	-0.251	0.329
-451.953	-44.287	0.106	0.053
-450.938	800.000	0.046	0.159
-449.924	25.311	0.045	0.037
-448.909	259.596	-0.054	0.093
-447.895	741.108	-0.064	-0.172
-446.880	-132.811	-0.080	0.010
-445.865	6.348	0.339	-0.251
-444.851	-200.000	-0.012	0.166
-443.836	8.282	-0.284	0.213
-442.822	-141.256	0.221	0.022
-441.807	-200.000	-0.096	0.617
-440.792	289.365	0.197	0.357
-439.778	102.903	-0.081	-0.095
-438.763	-62.534	0.147	-0.061
-437.749	-115.855	-0.029	-0.005
-436.734	758.934	0.045	-0.120
-435.719	98.533	-0.144	0.165
-434.705	245.870	0.071	-0.119
-433.690	240.383	0.135	-0.224
-432.676	-200.000	0.012	0.231
-431.661	-111.099	-0.296	0.061
-430.646	800.000	-0.033	0.139
-429.632	-58.058	-0.048	0.021
-428.617	-200.000	0.019	0.118
-427.603	-89.402	-0.181	0.053
-426.588	37.339	0.091	0.080
-425.573	-153.020	-0.449	-0.032
-424.559	84.038	-0.113	-0.123
-423.544	-71.368	-0.347	-0.130
-422.530	800.000	-0.076	0.243
-421.515	-81.655	-0.261	-0.085
-420.500	-44.318	-0.149	0.075
-419.486	-127.481	0.231	-0.033
-418.471	249.999	-0.117	-0.198
-417.457	-24.507	-0.192	0.114
-416.442	-30.220	0.029	-0.016
-415.428	21.007	-0.068	-0.055
-414.413	495.021	0.009	-0.021
-413.398	-126.304	-0.185	-0.028
-412.384	73.377	-0.045	-0.047
-411.369	-200.000	-0.006	0.367
-410.355	-39.953	0.131	0.068
-409.340	43.274	-0.090	0.082
-408.325	266.259	-0.304	-0.529
-407.311	-160.970	-0.283	-0.015
-406.296	-173.341	-0.341	-0.010
-405.282	-200.000	-0.012	-0.138
-404.267	81.946	0.307	-0.332
-403.252	465.042	0.110	0.245
-402.238	-121.089	0.202	0.034
-401.223	19.011	0.143	-0.114
-400.209	-91.598	-0.259	0.074
-399.194	298.355	0.130	-0.239
-398.179	-100.695	0.331	0.081
-397.165	-200.000	-0.022	0.183
-396.150	28.713	-0.225	0.190
-395.136	357.972	0.083	-0.166
-394.121	317.205	0.137	-0.258
-393.106	-112.147	0.282	0.056
-392.092	152.302	0.156	0.212
-391.077	-160.314	-0.214	0.011
-390.063	-75.975	-0.144	-0.051
-389.048	337.028	-0.071	0.137
-388.033	749.752	-0.034	-0.092
-387.019	144.268	0.294	-0.391
-386.004	63.053	0.048	0.048
-384.990	-200.000	-0.003	0.112
-383.975	-68.588	-0.179	0.069
-382.960	5.855	0.332	0.245
-381.946	-157.993	-0.368	0.022
-380.931	-61.346	0.074	0.031
-379.917	159.598	0.076	-0.106
-378.902	512.689	-0.144	-0.334
-377.888	-200.000	-0.188	0.000
-376.873	-84.685	-0.082	0.026
-375.858	-130.869	0.367	-0.049
-374.844	230.748	0.004	0.007
-373.829	800.000	-0.079	0.221
-372.815	-149.196	0.114	0.009
-371.800	67.359	0.068	0.070
-370.785	-116.183	-0.125	-0.023
-369.771	-190.614	0.106	-0.001
-368.756	37.282	0.171	-0.151
-367.742	-13.822	0.266	-0.171
-366.727	-30.913	-0.104	0.058
-365.712	-66.376	-0.189	0.075
-364.698	-137.049	-0.221	-0.025
-363.683	21.587	0.178	0.144
-362.669	163.519	0.086	0.120
-361.654	-0.928	-0.226	-0.159
-360.639	-200.000	0.025	-0.198
-359.625	-200.000	-0.042	-0.298
-358.610	800.000	-0.033	0.139
-357.596	-43.579	-0.251	0.126
-356.581	292.611	-0.087	0.158
-355.566	131.785	-0.236	0.301
-354.552	358.345	-0.051	-0.102
-353.537	-200.000	-0.002	0.089
-352.523	-49.723	0.132	0.063
-351.508	-47.155	-0.176	0.085
-350.493	328.450	0.076	0.144
-349.479	516.605	-0.078	0.182
-348.464	-115.107	0.012	-0.002
-347.450	-200.000	-0.014	-0.335
-346.435	-80.587	0.356	0.118
-345.420	108.192	-0.130	0.154
-344.406	-60.268	0.097	-0.041
-343.391	800.000	0.014	-0.042
-342.377	-80.780	0.158	-0.052
-341.362	-191.151	-0.092	0.001
-340.348	-200.000	0.026	-0.143
-339.333	-16.677	-0.278	-0.175
-338.318	800.000	-0.021	0.069
-337.304	800.000	-0.124	-0.388
-336.289	-199.771	0.245	0.001
-335.275	-100.151	0.188	-0.046
-334.260	573.340	-0.034	-0.083
-333.245	800.000	0.063	-0.248
-332.231	15.355	-0.140	0.109
-331.216	-149.282	0.145	0.011
-330.202	-57.462	0.387	-0.169
-329.187	-80.613	0.346	0.114
-328.172	-36.181	-0.059	-0.031
-327.158	102.450	0.077	-0.089
-326.143	46.264	-0.278	-0.256
-325.129	-59.027	-0.339	0.145
-324.114	36.287	-0.196	-0.171
-323.099	51.060	0.290	-0.273
-322.085	530.597	0.117	0.275
-321.070	584.089	0.063	-0.152
-320.056	-131.757	0.455	-0.059
-319.041	-41.185	0.075	0.038
-318.026	674.767	0.081	-0.210
-317.012	-74.932	-0.115	0.041
-315.997	321.360	-0.158	-0.298
-314.983	48.528	0.098	0.091
-313.968	-69.930	-0.080	0.030
-312.953	6.595	-0.130	0.096
-311.939	-84.802	-0.160	-0.050
-310.924	151.522	-0.103	-0.140
-309.910	-200.000	-0.036	0.356
-308.895	800.000	0.053	-0.150
-307.880	-26.521	0.251	0.146
-306.866	53.733	0.091	0.087
-305.851	61.931	-0.151	-0.149
-304.837	78.027	0.186	-0.197
-303.822	-200.000	-0.030	0.301
-302.807	89.974	0.187	-0.208
-301.793	-41.141	0.068	-0.035
-300.778	224.064	-0.166	0.266
-299.764	-40.929	0.300	-0.154
-298.749	-200.000	0.034	-0.405
-297.735	458.583	0.069	0.152
-296.720	-95.786	-0.210	-0.056
-295.705	8.610	0.086	-0.064
-294.691	-15.507	0.329	-0.208
-293.676	90.989	0.041	0.046
-292.662	-180.646	-0.194	-0.004
-291.647	-83.731	0.260	0.082
-290.632	83.214	0.110	0.118
-289.618	-200.000	0.028	-0.177
-288.603	-200.000	0.010	0.221
-287.589	290.391	0.221	0.399
-286.574	-146.818	0.197	-0.017
-285.559	741.346	-0.073	-0.194
-284.545	-105.533	-0.100	-0.023
-283.530	-200.000	-0.032	0.156
-282.516	800.000	0.043	-0.162
-281.501	800.000	0.148	0.424
-280.486	354.525	-0.131	0.259
-279.472	282.882	0.150	0.266
-278.457	79.170	0.048	0.051
-277.443	-43.034	0.191	-0.096
-276.428	800.000	-0.087	-0.265
-275.413	800.000	-0.050	-0.195
-274.399	-53.951	-0.200	-0.090
-273.384	286.441	0.099	-0.177
-272.370	28.422	0.128	0.107
-271.355	29.747	0.186	0.157
-270.340	-200.000	-0.046	-0.249
-269.326	125.865	-0.262	0.328
-268.311	128.522	-0.131	-0.166
-267.297	75.245	0.192	-0.201
-266.282	16.338	-0.247	-0.193
-265.267	-153.484	-0.185	-0.013
-264.253	81.796	0.059	0.064
-263.238	-200.000	0.012	0.059
-262.224	197.255	-0.045	-0.068
-261.209	-170.524	-0.100	0.003
-260.195	-79.966	0.268	-0.089
-259.180	203.664	0.147	-0.225
-258.165	352.883	0.056	0.110
-257.151	14.896	-0.068	0.052
-256.136	-22.681	-0.250	-0.150
-255.122	-200.000	0.014	-0.292
-254.107	-51.096	-0.385	-0.179
-253.092	-200.000	0.001	-0.157
-252.078	-62.181	-0.132	-0.054
-251.063	-65.305	-0.133	0.053
-250.049	-96.110	0.145	-0.038
-249.034	-62.170	-0.187	0.077
-248.019	-27.753	0.175	0.101
-247.005	104.636	0.163	-0.190
-245.990	247.922	0.131	0.219
-244.976	800.000	0.045	0.139
-243.961	103.787	0.081	0.094
-242.946	93.819	0.178	0.199
-241.932	-61.917	0.195	0.081
-240.917	-5.600	-0.163	0.111
-239.903	-200.000	-0.003	-0.072
-238.888	-84.088	0.443	0.139
-237.873	332.359	-0.060	0.115
-236.859	-200.000	0.016	-0.107
-235.844	-1.433	0.199	0.139
-234.830	800.000	0.036	-0.148
-233.815	-48.230	0.116	-0.055
-232.800	260.951	0.238	-0.408
-231.786	37.307	0.163	0.143
-230.771	91.892	0.234	0.260
-229.757	-123.481	-0.165	0.026
-228.742	800.000	-0.070	0.243
-227.727	35.536	0.078	0.068
-226.713	-136.290	-0.236	0.027
-225.698	440.599	-0.082	0.177
-224.684	-96.292	0.156	0.041
-223.669	114.362	-0.160	-0.193
-222.655	800.000	-0.088	-0.316
-221.640	800.000	-0.203	-0.566
-220.625	3.048	0.137	-0.098
-219.611	-200.000	-0.029	-0.255
-218.596	560.163	0.033	0.079
-217.582	119.612	-0.113	-0.139
-216.567	140.986	-0.096	-0.126
-215.552	567.313	0.130	0.312
-214.538	-200.000	0.024	-0.103
-213.523	-8.538	-0.112	0.074
-212.509	-147.615	-0.186	0.015
-211.494	32.996	0.174	-0.149
-210.479	36.150	-0.290	0.253
-209.465	-26.442	0.057	-0.033
-208.450	-200.000	0.009	-0.048
-207.436	-53.764	0.314	0.142
-206.421	-47.385	0.135	0.065
-205.406	800.000	0.066	0.246
-204.392	110.405	0.267	0.317
-203.377	85.199	0.107	0.116
-202.363	800.000	-0.034	-0.126
-201.348	178.930	-0.107	0.155
-200.333	202.212	-0.195	0.297
-199.319	-47.380	0.245	-0.118
-198.304	135.109	-0.093	0.120
-197.290	-200.000	-0.023	0.176
-196.275	42.441	-0.268	-0.241
-195.260	-140.164	0.219	0.023
-194.246	-92.676	-0.200	-0.055
-193.231	-152.423	0.289	0.021
-192.217	-20.868	-0.300	0.182
-191.202	-99.906	0.021	-0.005
-190.187	-96.896	-0.106	0.027
-189.173	-25.042	-0.164	0.096
-188.158	419.901	-0.043	0.092
-187.144	132.519	-0.171	0.218
-186.129	495.252	0.034	0.076
-185.114	800.000	-0.047	-0.137
-184.100	-200.000	0.002	0.117
-183.085	-83.275	0.231	-0.073
-182.071	-150.635	0.408	0.031
-181.056	171.266	-0.095	-0.135
-180.042	-139.225	-0.275	0.029
-179.027	-44.471	-0.125	0.062
-178.012	-200.000	-0.001	0.252
-176.998	286.636	0.117	0.208
-175.983	507.253	-0.065	-0.148
-174.969	-87.026	-0.287	0.086
-173.954	-101.170	-0.198	-0.048
-172.939	-200.000	-0.032	0.207
-171.925	24.984	-0.254	0.208
-170.910	800.000	-0.021	0.059
-169.896	-50.187	-0.220	0.103
-168.881	800.000	-0.042	0.160
-167.866	350.722	0.105	-0.206
-166.852	29.770	-0.078	0.065
-165.837	-42.302	0.224	-0.113
-164.823	-140.028	-0.412	-0.043
-163.808	41.425	0.332	-0.297
-162.793	-89.066	-0.181	-0.053
-161.779	54.216	0.023	0.022
-160.764	172.701	-0.147	0.208
-159.750	410.914	0.156	-0.327
-158.735	-200.000	-0.032	0.248
-157.720	-52.033	-0.293	0.134
-156.706	179.910	0.172	0.249
-155.691	-43.277	0.059	0.029
-154.677	-110.261	0.225	0.046
-153.662	-121.792	-0.046	0.007
-152.647	10.552	0.130	-0.097
-151.633	59.359	0.042	0.041
-150.618	-200.000	-0.043	-0.270
-149.604	317.216	-0.071	-0.133
-148.589	287.867	0.141	0.252
-147.574	-121.681	0.095	-0.016
-146.560	800.000	0.085	0.244
-145.545	-113.709	0.544	-0.105
-144.531	63.665	-0.078	-0.077
-143.516	-63.373	-0.117	0.048
-142.502	-46.816	-0.173	0.083
-141.487	62.132	-0.104	0.102
-140.472	800.000	-0.085	0.282
-139.458	-187.812	0.376	-0.005
-138.443	-147.935	0.090	-0.007
-137.429	163.395	0.147	0.203
-136.414	-54.820	-0.257	-0.115
-135.399	-109.180	-0.168	-0.035
-134.385	-94.815	0.112	0.030
-133.370	-67.040	0.318	0.124
-132.356	128.853	0.126	0.159
-131.341	-41.120	0.104	0.053
-130.326	-200.000	-0.027	0.231
-129.312	86.802	0.033	-0.036
-128.297	175.094	-0.151	-0.216
-127.283	-142.524	-0.208	-0.020
-126.268	-200.000	0.006	-0.400
-125.253	67.165	0.047	-0.047
-124.239	-150.808	-0.222	-0.017
-123.224	78.547	0.162	0.171
-122.210	-95.772	-0.213	-0.056
-121.195	-200.000	0.062	0.272
-120.180	8.387	-0.353	-0.261
-119.166	-67.143	0.139	-0.054
-118.151	800.000	-0.083	0.298
-117.137	113.843	-0.148	0.178
-116.122	800.000	0.115	-0.380
-115.107	-52.744	-0.387	-0.176
-114.093	44.618	0.181	0.164
-113.078	-29.733	0.135	-0.076
-112.064	-12.194	-0.195	0.126
-111.049	371.740	0.022	0.045
-110.034	-156.490	0.410	-0.025
-109.020	-143.570	0.212	-0.020
-108.005	-138.033	0.315	-0.035
-106.991	497.747	-0.113	-0.256
-105.976	-125.682	0.506	-0.075
-104.962	91.440	0.105	-0.117
-103.947	-75.547	-0.088	-0.031
-102.932	120.831	-0.165	0.202
-101.918	284.413	0.161	-0.286
-100.903	-133.529	0.208	0.026
-99.889	-90.176	-0.168	-0.048
-98.874	-200.000	-0.008	-0.196
-97.859	433.061	-0.124	0.265
-96.845	-5.801	0.183	0.123
-95.830	3.281	0.278	-0.199
-94.816	149.903	0.149	0.199
-93.801	284.990	-0.128	0.227
-92.786	-3.268	-0.207	-0.142
-91.772	537.118	-0.047	-0.109
-90.757	66.484	0.160	-0.160
-89.743	-45.707	0.111	-0.054
-88.728	-83.752	0.097	-0.031
-87.713	-79.087	0.128	-0.043
-86.699	800.000	0.064	-0.183
-85.684	-79.514	-0.140	0.047
-84.670	476.092	-0.030	0.068
-83.655	636.176	-0.085	-0.212
-82.640	416.995	0.056	0.118
-81.626	-94.729	-0.446	-0.119
-80.611	-200.000	0.017	-0.277
-79.597	434.060	0.124	-0.264
-78.582	-84.055	-0.095	0.030
-77.567	251.707	-0.053	-0.088
-76.553	-61.420	-0.063	0.026
-75.538	-200.000	0.036	0.282
-74.524	-149.188	0.249	0.020
-73.509	-36.569	0.255	-0.135
-72.494	800.000	-0.046	-0.181
-71.480	-108.621	0.253	-0.053
-70.465	124.820	-0.087	-0.108
-69.451	-96.855	0.417	0.108
-68.436	-100.708	-0.290	-0.070
-67.422	21.941	0.132	0.106
-66.407	176.367	0.098	-0.140
-65.392	-118.341	-0.033	0.006
-64.378	5.433	-0.191	-0.139
-63.363	69.050	-0.138	0.140
-62.349	33.774	0.268	0.230
-61.334	61.155	-1.340	-1.308
-60.319	365.843	0.357	0.708
-59.305	800.000	-0.345	-1.257
-58.290	428.382	0.531	1.128
-57.276	187.928	0.900	1.322
-56.261	-200.000	106.137	572.944
-55.246	440.297	1474.632	3167.641
-54.232	146.033	2668.323	3517.446
-53.217	105.168	2170.698	2517.903
-52.203	40.723	1612.694	1428.942
-51.188	32.660	1350.088	1147.369
-50.173	29.570	1309.067	1094.194
-49.159	52.845	1361.186	1278.962
-48.144	53.269	1377.380	1296.694
-47.130	32.870	1333.104	1134.018
-46.115	29.441	1315.081	1098.275
-45.100	29.273	1309.983	1092.980
-44.086	29.204	1307.604	1090.539
-43.071	29.187	1305.291	1088.470
-42.057	29.026	1303.667	1086.123
-41.042	29.157	1301.497	1085.043
-40.027	29.069	1299.862	1083.117
-39.013	29.075	1298.050	1081.603
-37.998	29.206	1296.238	1080.817
-36.984	29.300	1294.083	1079.527
-35.969	29.295	1292.438	1078.081
-34.954	29.270	1290.947	1076.650
-33.940	29.313	1290.061	1076.121
-32.925	29.426	1288.495	1075.429
-31.911	29.275	1287.408	1073.598
-30.896	29.393	1285.542	1072.686
-29.881	29.485	1284.071	1071.955
-28.867	29.482	1283.105	1071.088
-27.852	29.368	1281.181	1068.778
-26.838	29.414	1279.793	1067.843
-25.823	29.398	1278.592	1066.707
-24.809	29.423	1277.144	1065.601
-23.794	29.349	1276.199	1064.345
-22.779	29.464	1274.370	1063.435
-21.765	29.433	1273.534	1062.516
-20.750	29.390	1272.152	1061.076
-19.736	29.278	1270.849	1059.301
-18.721	29.261	1269.904	1058.376
-17.706	29.163	1268.618	1056.698
-16.692	29.238	1267.467	1056.128
-15.677	29.174	1266.832	1055.191
-14.663	29.086	1265.975	1053.933
-13.648	29.071	1264.649	1052.699
-12.633	29.309	1262.947	1052.602
-11.619	29.185	1262.758	1051.697
-10.604	29.223	1261.479	1050.805
-9.590	29.169	1260.882	1049.956
-8.575	29.263	1259.337	1049.165
-7.560	29.194	1258.896	1048.360
-6.546	29.277	1257.477	1047.610
-5.531	29.142	1256.831	1046.265
-4.517	29.158	1256.552	1046.079
-3.502	29.274	1255.337	1045.687
-2.487	29.254	1254.434	1044.779
-1.473	29.111	1250.854	1040.949
-0.458	28.094	1235.844	1022.733
0.556	23.163	1219.200	987.052
1.571	19.537	1225.869	971.984
2.586	18.490	1240.964	977.898
3.600	18.328	1229.708	968.027
4.615	13.698	1156.095	885.333
5.629	4.709	1080.185	782.108
6.644	0.427	1060.511	746.635
7.659	0.175	1058.343	743.797
8.673	0.012	1057.073	742.035
9.688	0.016	1055.913	741.173
10.702	0.275	1054.031	741.058
11.717	5.455	1060.811	771.355
12.731	13.831	1071.646	820.739
13.746	17.410	1074.938	840.909
14.761	16.947	1074.623	838.301
15.775	16.089	1072.238	832.134
16.790	14.923	1070.438	824.915
17.804	14.298	1068.745	820.457
18.819	13.961	1068.108	818.238
19.834	13.621	1066.698	815.410
20.848	13.504	1065.924	814.170
21.863	13.167	1064.986	811.729
22.877	13.011	1064.568	810.570
23.892	13.079	1063.524	810.039
24.907	13.009	1062.979	809.206
25.921	13.142	1062.049	809.078
26.936	13.187	1061.329	808.681
27.950	13.128	1060.516	807.703
28.965	13.137	1059.527	806.921
29.980	13.384	1057.894	806.810
30.994	13.306	1056.712	805.457
32.009	13.368	1055.673	804.897
33.023	13.380	1054.907	804.297
34.038	13.312	1053.631	802.925
35.053	13.313	1053.203	802.532
36.067	13.217	1052.274	801.288
37.082	13.269	1051.801	801.110
38.096	13.262	1050.762	800.212
39.111	13.341	1049.832	799.815
40.126	12.916	1049.395	797.356
41.140	12.954	1048.157	796.531
42.155	12.923	1047.044	795.462
43.169	13.015	1045.449	794.626
44.184	13.082	1044.423	794.097
45.199	13.016	1043.485	792.994
46.213	13.017	1042.904	792.491
47.228	13.023	1041.712	791.544
48.242	13.273	1040.080	791.426
49.257	13.256	1038.998	790.453
50.271	13.184	1038.371	789.564
51.286	13.187	1037.470	788.821
52.301	13.191	1036.495	788.029
53.315	13.094	1036.098	787.195
54.330	13.223	1034.849	786.793
55.344	13.154	1034.041	785.779
56.359	13.132	1033.170	784.944
57.374	13.082	1032.207	783.907
58.388	12.847	1031.870	782.464
59.403	13.053	1030.582	782.395
60.417	13.012	1029.753	781.504
61.432	12.986	1029.065	780.790
62.447	12.917	1028.343	779.845
63.461	13.021	1027.272	779.457
64.476	12.967	1026.404	778.471
65.490	12.909	1025.985	777.812
66.505	13.020	1024.963	777.493
67.520	13.011	1024.636	777.130
68.534	13.102	1023.800	776.859
69.549	12.948	1023.198	775.607
70.563	13.015	1021.942	774.904
71.578	12.893	1021.289	773.765
72.593	12.883	1020.099	772.747
73.607	12.944	1019.347	772.395
74.622	12.926	1019.281	772.193
75.636	12.813	1019.049	771.422
76.651	12.928	1017.584	770.781
77.666	13.010	1016.844	770.537
78.680	12.918	1016.185	769.541
79.695	12.951	1015.593	769.176
80.709	12.932	1015.284	768.788
81.724	13.013	1014.053	768.165
82.739	13.149	1013.892	768.606
83.753	13.032	1013.647	767.808
84.768	13.176	1012.137	767.266
85.782	13.219	1011.204	766.688
86.797	13.244	1010.059	765.871
87.812	13.233	1009.026	764.968
88.826	13.153	1008.362	764.025
89.841	13.157	1007.706	763.480
90.855	13.308	1006.299	763.045
91.870	13.306	1005.441	762.318
92.884	13.198	1005.144	761.526
93.899	13.281	1004.037	761.000
94.914	13.405	1002.825	760.585
95.928	13.292	1002.271	759.580
96.943	13.213	1001.901	758.866
97.957	13.294	1001.007	758.493
98.972	13.339	999.692	757.637
99.987	13.266	998.814	756.573
101.001	13.164	997.741	755.228
102.016	13.242	997.094	755.027
103.030	13.368	996.124	754.798
104.045	13.203	995.696	753.656
105.060	13.267	994.462	752.944
106.074	13.188	993.587	751.860
107.089	13.143	992.740	750.947
108.103	13.049	991.539	749.546
109.118	13.098	990.820	749.156
110.133	13.063	989.845	748.195
111.147	13.118	988.872	747.642
112.162	13.037	988.303	746.779
113.176	13.094	987.578	746.425
114.191	13.197	986.865	746.281
115.206	13.210	985.891	745.541
116.220	13.147	984.784	744.354
117.235	13.136	984.239	743.824
118.249	13.165	983.350	743.218
119.264	13.073	982.853	742.364
120.279	13.208	981.937	742.210
121.293	13.071	980.976	740.804
122.308	13.192	980.191	740.689
123.322	13.260	978.871	739.930
124.337	13.143	978.164	738.806
125.352	13.118	977.129	737.848
126.366	13.135	976.273	737.213
127.381	13.081	974.888	735.859
128.395	13.054	974.459	735.350
129.410	13.039	973.474	734.475
130.424	13.161	972.962	734.567
131.439	13.273	971.611	733.979
132.454	13.121	971.308	733.013
133.468	13.282	970.334	732.926
134.483	13.333	969.494	732.453
135.497	13.269	968.102	731.053
136.512	13.229	967.849	730.620
137.527	13.244	966.682	729.741
138.541	13.139	966.325	728.944
139.556	13.226	965.419	728.580
140.570	13.291	964.545	728.139
141.585	13.404	963.751	727.976
142.600	13.378	962.814	727.086
143.614	13.396	961.846	726.370
144.629	13.421	961.304	726.010
145.643	13.471	960.484	725.542
146.658	13.285	959.562	723.967
147.673	13.288	958.797	723.339
148.687	13.343	957.534	722.565
149.702	13.287	956.887	721.766
150.716	13.237	956.433	721.141
151.731	13.406	955.114	720.819
152.746	13.169	955.251	719.828
153.760	13.279	954.523	719.692
154.775	13.348	953.843	719.417
155.789	13.381	952.745	718.671
156.804	13.348	952.315	718.140
157.819	13.451	951.689	718.051
158.833	13.474	950.895	717.488
159.848	13.594	949.754	717.084
160.862	13.427	949.134	715.829
161.877	13.374	948.367	714.958
162.892	13.446	947.211	714.331
163.906	13.260	946.171	712.684
164.921	13.367	945.658	712.695
165.935	13.397	944.649	711.999
166.950	13.491	943.748	711.664
167.964	13.435	943.020	710.809
168.979	13.445	942.087	710.086
169.994	13.423	941.412	709.421
171.008	13.411	940.917	708.933
172.023	13.523	940.668	709.163
173.037	13.431	939.952	708.167
174.052	13.480	938.801	707.447
175.067	13.628	937.896	707.335
176.081	13.472	937.596	706.380
177.096	13.483	937.342	706.172
178.110	13.510	936.313	705.448
179.125	13.452	935.930	704.854
180.140	13.566	935.067	704.625
181.154	13.616	934.907	704.655
182.169	13.832	933.878	704.733
183.183	13.728	933.452	703.907
184.198	13.677	932.771	703.115
185.213	13.730	932.145	702.807
186.227	13.699	931.504	702.131
187.242	13.683	930.838	701.498
188.256	13.869	930.246	701.777
189.271	13.727	929.240	700.356
190.286	13.682	928.355	699.436
191.300	13.630	927.777	698.721
192.315	13.504	927.126	697.638
193.329	13.526	927.102	697.651
194.344	13.658	926.453	697.654
195.359	13.634	925.511	696.783
196.373	13.781	924.740	696.759
197.388	13.817	924.358	696.559
198.402	13.834	923.973	696.280
199.417	14.020	923.210	696.424
200.432	13.977	922.798	695.870
201.446	13.991	922.139	695.372
202.461	14.068	921.584	695.212
203.475	14.078	920.829	694.625
204.490	14.016	920.154	693.793
205.504	13.918	919.708	692.987
206.519	13.995	918.553	692.375
207.534	13.991	918.131	691.983
208.548	14.031	917.207	691.388
209.563	13.964	917.058	690.937
210.577	14.032	916.163	690.485
211.592	14.128	915.447	690.284
212.607	14.152	914.603	689.684
213.621	14.041	914.181	688.843
214.636	14.031	913.277	688.063
215.650	14.139	912.787	688.080
216.665	14.140	912.301	687.653
217.680	14.184	911.464	687.143
218.694	14.214	910.612	686.565
219.709	14.240	909.854	686.039
220.723	14.360	908.796	685.677
221.738	14.157	908.918	684.870
222.753	14.230	908.196	684.568
223.767	14.235	907.484	683.989
224.782	14.251	907.224	683.798
225.796	14.283	906.988	683.691
226.811	14.295	905.934	682.889
227.826	14.175	905.351	681.897
228.840	14.371	903.942	681.578
229.855	14.382	903.267	681.053
230.869	14.293	902.414	679.984
231.884	14.248	902.122	679.521
232.899	14.326	901.314	679.170
233.913	14.383	900.528	678.751
234.928	14.177	900.158	677.572
235.942	14.143	899.870	677.159
236.957	14.151	899.033	676.498
237.972	14.402	898.005	676.687
238.986	14.406	897.301	676.113
240.001	14.317	897.153	675.580
241.015	14.389	896.378	675.226
242.030	14.488	895.567	674.956
243.045	14.347	895.052	673.940
244.059	14.413	894.547	673.767
245.074	14.515	893.834	673.582
246.088	14.487	893.151	672.894
247.103	14.515	892.394	672.377
248.117	14.594	891.985	672.327
249.132	14.566	891.959	672.136
250.147	14.731	890.471	671.621
251.161	14.816	890.008	671.550
252.176	14.716	889.169	670.458
253.190	14.816	888.659	670.415
254.205	14.806	888.312	670.054
255.220	14.776	887.526	669.282
256.234	14.828	887.351	669.299
257.249	14.892	886.277	668.684
258.263	14.911	885.519	668.132
259.278	14.749	885.411	667.342
260.293	14.865	884.609	667.142
261.307	14.957	883.882	666.901
262.322	14.833	883.568	666.112
263.336	15.036	882.332	665.930
264.351	15.031	881.343	665.105
265.366	15.075	880.763	664.783
266.380	14.983	880.590	664.228
267.395	14.912	879.936	663.395
268.409	15.012	878.936	662.978
269.424	15.072	877.952	662.415
270.439	15.012	877.556	661.817
271.453	15.094	876.518	661.303
272.468	15.107	876.313	661.138
273.482	15.016	876.111	660.569
274.497	15.106	875.101	660.103
275.512	15.041	874.699	659.488
276.526	15.139	874.224	659.456
277.541	15.115	873.687	658.899
278.555	15.185	872.896	658.518
279.570	15.195	872.458	658.167
280.585	15.321	871.698	658.034
281.599	15.214	870.952	656.992
282.614	15.171	870.534	656.449
283.628	15.076	869.641	655.344
284.643	15.090	869.299	655.086
285.657	15.276	868.171	654.905
286.672	15.299	867.517	654.443
287.687	15.274	867.234	654.072
288.701	15.229	866.866	653.563
289.716	15.246	866.159	653.036
290.730	15.396	865.896	653.364
291.745	15.453	864.671	652.603
292.760	15.388	864.256	651.982
293.774	15.505	863.201	651.584
294.789	15.436	863.221	651.272
295.803	15.308	862.276	650.006
296.818	15.397	861.653	649.823
297.833	15.404	861.053	649.339
298.847	15.378	860.734	648.942
299.862	15.465	859.955	648.634
300.876	15.588	859.454	648.673
301.891	15.664	858.455	648.155
302.906	15.628	858.016	647.625
303.920	15.571	857.807	647.191
304.935	15.584	857.444	646.910
305.949	15.749	856.481	646.762
306.964	15.714	855.906	646.135
307.979	15.630	855.598	645.524
308.993	15.702	854.983	645.280
310.008	15.830	854.000	644.971
311.022	15.622	853.239	643.544
312.037	15.611	853.388	643.556
313.052	15.608	852.651	642.929
314.066	15.731	852.106	642.933
315.081	15.646	851.740	642.274
316.095	15.593	850.853	641.349
317.110	15.658	850.575	641.327
318.125	15.530	850.332	640.603
319.139	15.734	849.299	640.545
320.154	15.725	848.803	640.079
321.168	15.822	848.097	639.857
322.183	15.699	847.726	639.053
323.197	15.803	847.300	639.070
324.212	15.824	846.587	638.555
325.227	15.817	845.974	638.011
326.241	15.724	845.480	637.228
327.256	15.695	845.233	636.879
328.270	15.844	844.183	636.593
329.285	15.718	843.940	635.876
330.300	15.746	843.464	635.569
331.314	15.669	843.269	635.076
332.329	15.837	842.367	634.973
333.343	15.755	842.215	634.493
334.358	15.879	841.786	634.582
335.373	15.843	841.389	634.092
336.387	15.938	840.747	633.907
337.402	16.105	840.280	634.129
338.416	15.906	840.282	633.324
339.431	16.078	839.672	633.454
340.446	16.100	839.272	633.181
341.460	16.034	838.906	632.601
342.475	16.187	838.318	632.674
343.489	16.111	838.222	632.262
344.504	16.177	837.596	631.981
345.519	16.161	837.172	631.544
346.533	16.107	836.731	630.955
347.548	16.109	835.960	630.323
348.562	16.188	835.494	630.212
349.577	16.238	834.706	629.747
350.592	16.101	834.499	629.025
351.606	16.074	833.458	628.085
352.621	16.237	833.144	628.398
353.635	16.097	832.480	627.320
354.650	16.072	831.882	626.724
355.665	16.377	831.025	627.154
356.679	16.328	830.458	626.490
357.694	16.244	829.785	625.616
358.708	16.455	828.768	625.572
359.723	16.383	828.214	624.835
360.738	16.396	827.741	624.469
361.752	16.473	827.478	624.499
362.767	16.328	826.901	623.476
363.781	16.496	826.352	623.625
364.796	16.430	826.203	623.212
365.810	16.413	826.015	622.956
366.825	16.569	825.239	622.889
367.840	16.612	824.890	622.726
368.854	16.593	824.209	622.089
369.869	16.457	823.803	621.229
370.883	16.523	823.523	621.204
371.898	16.456	823.608	620.966
372.913	16.583	822.869	620.822
373.927	16.516	822.169	619.994
374.942	16.603	821.758	619.948
375.956	16.707	821.236	619.877
376.971	16.733	820.785	619.579
377.986	16.785	820.384	619.412
379.000	16.870	819.535	619.024
380.015	16.765	819.528	618.581
381.029	16.751	819.311	618.313
382.044	16.847	818.412	617.928
383.059	16.956	817.532	617.608
384.073	16.851	817.273	616.974
385.088	16.784	816.535	616.121
386.102	16.779	815.898	615.564
387.117	16.814	815.129	615.058
388.132	17.037	814.170	615.090
389.146	16.850	814.219	614.393
390.161	16.810	813.968	614.004
391.175	16.777	813.389	613.395
392.190	16.876	812.679	613.162
393.205	17.013	812.261	613.288
394.219	16.877	812.047	612.581
395.234	16.893	811.589	612.240
396.248	16.855	811.473	611.959
397.263	16.866	810.508	611.219
398.278	16.797	810.516	610.921
399.292	16.810	810.047	610.561
400.307	16.873	809.505	610.326
401.321	16.789	808.905	609.517
402.336	16.961	808.399	609.701
403.350	17.001	808.113	609.574
404.365	16.945	807.772	609.060
405.380	17.157	806.928	609.131
406.394	17.092	806.423	608.463
407.409	17.169	805.981	608.351
408.423	17.212	805.908	608.395
409.438	17.191	805.476	607.940
410.453	17.256	805.194	607.907
411.467	17.428	804.288	607.784
412.482	17.380	804.048	607.376
413.496	17.447	803.569	607.201
414.511	17.293	803.653	606.662
415.526	17.301	803.238	606.321
416.540	17.224	802.762	605.634
417.555	17.217	802.385	605.271
418.569	17.426	801.562	605.342
419.584	17.423	801.152	604.968
420.599	17.373	800.642	604.352
421.613	109.112	1292.312	1469.605
422.628	93.904	1363.945	1469.715
