DTS Sentinel unit serial number:	SN413079Multiplexer serial number:	ORYXHardware model number:	OX4-SRSoftware version number:	ORYX F/W v4.00 Oryx Data Collector v3.7.2.0data status	okinstallation	princeton_trtdifferential loss correction	single-endedforward channel	channel 1reverse channel	N/Adate	2019/09/12time	09:12:11forward acquisition time	60.00reverse acquisition time	0.00gamma	496.2192k internal	0.2306k external	0.2306temperature offset calibration	1.0043default loss term (dB/km)	0.3790temperature slope calibration	1.0000multiplexer offset coefficient	1.0000multiplexer slope coefficient	1.0000fibre end	0.00T internal ref (°C)	34.69T ext. ref 1 (°C)	1.80T ext. ref 2 (°C)	32.99length (m)	temperature (°C)	Stokes	anti-Stokes-747.200	-200.000	0.011	0.248
-746.185	-200.000	-0.023	0.143
-745.171	270.663	0.167	0.299
-744.156	800.000	0.128	0.362
-743.142	-200.000	0.102	0.545
-742.127	33.098	-0.098	-0.087
-741.112	403.603	0.058	-0.124
-740.098	800.000	-0.130	0.368
-739.083	-105.013	-0.125	0.029
-738.069	-60.551	0.041	0.018
-737.054	-54.882	-0.100	-0.046
-736.039	-134.975	-0.283	-0.035
-735.025	-86.763	0.149	-0.046
-734.010	19.301	-0.117	0.096
-732.996	-200.000	0.002	-0.009
-731.981	-200.000	-0.052	-0.267
-730.966	-122.394	0.237	-0.039
-729.952	592.807	-0.104	0.261
-728.937	590.798	-0.161	-0.404
-727.923	800.000	-0.095	0.374
-726.908	21.353	0.210	0.173
-725.894	-141.549	-0.148	0.015
-724.879	-91.241	0.196	0.057
-723.864	288.400	-0.044	0.081
-722.850	66.142	0.190	-0.196
-721.835	-200.000	0.033	-0.399
-720.821	-200.000	0.006	-0.478
-719.806	-85.845	-0.395	-0.124
-718.791	131.632	0.250	-0.327
-717.777	-74.688	-0.240	-0.088
-716.762	-147.677	-0.250	-0.021
-715.748	42.656	0.137	0.127
-714.733	-200.000	-0.007	0.214
-713.718	64.722	-0.307	-0.315
-712.704	-200.000	0.015	-0.088
-711.689	-93.194	-0.172	-0.048
-710.675	-93.882	0.212	0.059
-709.660	-123.678	0.235	-0.038
-708.645	242.601	-0.096	0.163
-707.631	3.337	-0.089	-0.066
-706.616	215.278	-0.029	0.047
-705.602	-139.968	-0.087	0.009
-704.587	-200.000	0.032	0.148
-703.572	-46.726	-0.129	-0.064
-702.558	-200.000	0.005	-0.162
-701.543	800.000	-0.099	-0.282
-700.529	266.991	0.172	0.306
-699.514	63.102	0.119	-0.121
-698.499	157.253	0.146	-0.206
-697.485	140.264	-0.060	0.080
-696.470	8.714	-0.186	-0.143
-695.456	134.952	-0.062	0.082
-694.441	-25.119	0.289	-0.174
-693.426	800.000	0.091	-0.286
-692.412	-63.086	0.236	-0.099
-691.397	12.179	0.353	0.276
-690.383	78.632	-0.147	0.159
-689.368	-200.000	0.013	0.255
-688.354	128.326	0.262	-0.339
-687.339	800.000	0.109	-0.319
-686.324	228.527	0.040	0.066
-685.310	-89.467	0.211	0.063
-684.295	-70.618	0.328	-0.126
-683.281	-200.000	-0.010	-0.642
-682.266	505.421	0.209	-0.491
-681.251	-200.000	-0.032	0.161
-680.237	-200.000	-0.037	0.222
-679.222	-200.000	-0.039	-0.179
-678.208	445.193	-0.092	-0.206
-677.193	-42.628	0.074	0.038
-676.178	-121.201	-0.126	-0.021
-675.164	676.459	-0.100	-0.265
-674.149	80.172	-0.025	-0.027
-673.135	-200.000	-0.051	0.270
-672.120	-200.000	0.012	0.195
-671.105	64.744	-0.196	0.201
-670.091	-42.854	0.350	0.180
-669.076	-74.002	-0.206	-0.076
-668.062	800.000	-0.100	-0.287
-667.047	261.373	-0.072	-0.126
-666.032	-115.213	0.349	0.067
-665.018	-200.000	-0.042	-0.212
-664.003	153.929	0.124	-0.173
-662.989	-200.000	0.012	0.079
-661.974	-82.205	0.126	-0.042
-660.959	-200.000	0.052	-0.380
-659.945	284.712	0.122	-0.222
-658.930	374.896	0.129	0.267
-657.916	177.454	0.276	-0.408
-656.901	185.276	0.106	-0.160
-655.886	383.776	0.070	-0.146
-654.872	27.788	0.377	-0.322
-653.857	-145.812	-0.498	-0.045
-652.843	-148.134	0.334	0.028
-651.828	-23.627	-0.218	-0.132
-650.814	-200.000	0.001	0.021
-649.799	-200.000	0.009	-0.048
-648.784	63.566	0.281	-0.286
-647.770	-200.000	-0.063	-0.311
-646.755	-200.000	0.011	0.050
-645.741	619.395	-0.052	0.132
-644.726	-58.213	0.354	0.156
-643.711	-131.017	0.228	-0.031
-642.697	-36.584	0.348	-0.190
-641.682	-117.451	0.359	-0.066
-640.668	87.850	0.147	0.165
-639.653	800.000	-0.046	-0.139
-638.638	-200.000	-0.024	0.301
-637.624	306.134	-0.032	0.061
-636.609	359.924	0.085	0.172
-635.595	-99.074	-0.155	-0.040
-634.580	-55.993	-0.256	-0.116
-633.565	270.472	-0.110	-0.196
-632.551	-112.255	0.522	0.106
-631.536	222.051	0.043	-0.070
-630.522	-58.063	-0.220	-0.097
-629.507	-70.566	0.189	0.072
-628.492	129.122	-0.124	0.160
-627.478	-46.323	-0.079	-0.039
-626.463	-5.935	0.156	0.108
-625.449	337.362	-0.174	-0.343
-624.434	67.021	0.219	-0.226
-623.419	-200.000	0.032	0.143
-622.405	-57.979	-0.180	0.080
-621.390	-162.759	0.100	-0.005
-620.376	-108.546	-0.225	-0.049
-619.361	328.135	-0.016	0.031
-618.346	-200.000	0.017	-0.183
-617.332	-200.000	-0.017	-0.276
-616.317	162.525	-0.009	-0.013
-615.303	-6.759	0.183	-0.126
-614.288	-49.448	0.279	0.135
-613.273	14.033	-0.256	-0.201
-612.259	-97.093	-0.321	-0.085
-611.244	123.313	-0.032	0.040
-610.230	-14.278	0.309	0.202
-609.215	-56.459	0.389	0.175
-608.201	8.525	-0.275	0.209
-607.186	-48.686	0.191	-0.093
-606.171	304.097	-0.130	-0.244
-605.157	33.276	0.160	-0.140
-604.142	158.212	-0.027	-0.037
-603.128	-200.000	-0.007	-0.330
-602.113	-23.817	-0.176	-0.106
-601.098	40.629	0.204	-0.186
-600.084	-95.495	0.347	-0.094
-599.069	-141.249	0.064	-0.007
-598.055	-52.714	-0.296	-0.138
-597.040	-98.581	-0.047	-0.012
-596.025	439.192	0.032	-0.071
-595.011	390.057	-0.172	-0.362
-593.996	31.518	-0.095	0.083
-592.982	571.637	0.138	0.339
-591.967	-40.988	-0.285	-0.149
-590.952	800.000	-0.066	-0.285
-589.938	346.011	-0.169	-0.336
-588.923	11.582	0.097	-0.075
-587.909	106.344	-0.072	0.086
-586.894	-200.000	-0.003	-0.481
-585.879	-26.027	0.089	-0.053
-584.865	-97.186	0.148	-0.039
-583.850	545.532	0.178	-0.431
-582.836	-200.000	0.019	0.308
-581.821	-108.297	-0.059	-0.013
-580.806	-119.023	-0.106	-0.019
-579.792	-113.983	-0.198	-0.039
-578.777	37.954	-0.268	-0.241
-577.763	-88.238	-0.177	-0.054
-576.748	250.651	-0.032	0.054
-575.733	265.108	0.140	0.246
-574.719	800.000	0.118	-0.502
-573.704	131.540	-0.078	-0.101
-572.690	113.968	-0.064	0.078
-571.675	58.419	-0.153	0.152
-570.661	76.827	-0.283	0.304
-569.646	-15.719	0.284	-0.183
-568.631	-141.344	-0.266	-0.027
-567.617	-200.000	-0.004	0.059
-566.602	-61.236	0.113	-0.048
-565.588	-200.000	-0.060	-0.361
-564.573	800.000	-0.036	-0.142
-563.558	800.000	0.044	-0.161
-562.544	392.779	0.205	0.430
-561.529	800.000	-0.059	-0.173
-560.515	-58.597	0.472	-0.207
-559.500	-200.000	-0.010	-0.200
-558.485	20.919	-0.245	-0.200
-557.471	-200.000	0.019	-0.242
-556.456	-26.190	-0.382	-0.226
-555.442	-127.747	-0.083	-0.012
-554.427	-69.094	-0.155	-0.060
-553.412	-147.367	0.256	0.022
-552.398	-109.051	-0.182	0.039
-551.383	0.286	-0.206	0.149
-550.369	6.683	-0.110	0.082
-549.354	-137.497	-0.076	0.009
-548.339	41.162	-0.035	-0.032
-547.325	46.018	0.306	-0.286
-546.310	-200.000	0.031	-0.196
-545.296	-77.097	0.119	-0.042
-544.281	-37.261	0.148	-0.080
-543.266	-144.400	0.226	-0.021
-542.252	800.000	-0.047	0.176
-541.237	65.888	0.235	0.241
-540.223	-79.826	-0.160	-0.054
-539.208	-51.188	0.143	0.068
-538.193	-2.572	0.251	0.177
-537.179	102.237	-0.117	-0.138
-536.164	730.545	-0.092	-0.248
-535.150	-200.000	0.011	-0.450
-534.135	-200.000	-0.027	-0.210
-533.121	-121.615	0.120	0.020
-532.106	-200.000	0.015	0.075
-531.091	507.297	-0.093	-0.217
-530.077	-5.540	-0.101	0.070
-529.062	-172.156	-0.148	-0.005
-528.048	73.586	-0.168	-0.178
-527.033	184.013	0.166	-0.248
-526.018	364.078	-0.176	0.356
-525.004	481.084	-0.158	-0.362
-523.989	65.824	0.184	-0.188
-522.975	293.726	-0.210	0.386
-521.960	356.118	0.053	0.107
-520.945	-114.474	0.191	-0.037
-519.931	128.104	-0.112	-0.144
-518.916	800.000	0.062	-0.220
-517.902	196.856	0.159	-0.244
-516.887	99.154	0.113	0.132
-515.872	-169.432	0.075	0.003
-514.858	75.423	-0.111	-0.118
-513.843	-200.000	-0.024	0.146
-512.829	-47.327	0.052	0.025
-511.814	196.637	0.131	0.201
-510.799	65.219	-0.210	0.214
-509.785	-41.944	-0.319	-0.165
-508.770	-122.539	-0.145	-0.024
-507.756	-138.093	0.199	-0.022
-506.741	-61.200	0.056	-0.024
-505.726	-200.000	0.039	0.303
-504.712	21.109	-0.200	-0.163
-503.697	137.247	-0.161	-0.212
-502.683	-34.631	0.024	-0.013
-501.668	-172.640	0.077	0.002
-500.653	79.524	0.139	0.150
-499.639	183.579	0.125	0.186
-498.624	-75.393	0.230	-0.083
-497.610	-200.000	0.011	-0.073
-496.595	210.170	-0.145	0.229
-495.581	-116.566	-0.282	0.052
-494.566	-66.734	0.319	-0.127
-493.551	-54.981	-0.109	-0.049
-492.537	-114.980	0.146	-0.028
-491.522	356.056	0.074	-0.149
-490.508	-103.960	0.105	0.025
-489.493	-200.000	-0.008	0.228
-488.478	-110.583	-0.315	0.066
-487.464	-200.000	0.011	0.076
-486.449	800.000	-0.026	-0.088
-485.435	87.414	0.059	-0.066
-484.420	-70.039	0.110	0.042
-483.405	298.791	-0.088	0.163
-482.391	-49.032	0.329	0.159
-481.376	-128.470	-0.281	-0.040
-480.362	-58.509	0.179	-0.078
-479.347	0.154	-0.103	-0.074
-478.332	-119.888	0.387	0.067
-477.318	-200.000	-0.256	-0.001
-476.303	-117.231	0.176	0.032
-475.289	-27.675	0.081	-0.047
-474.274	-47.562	0.170	0.083
-473.259	54.130	-0.055	-0.054
-472.245	-68.670	-0.139	-0.054
-471.230	210.641	-0.125	0.198
-470.216	30.096	-0.216	-0.186
-469.201	800.000	0.125	0.378
-468.186	368.077	-0.015	-0.031
-467.172	123.137	-0.277	0.349
-466.157	-200.000	0.005	0.455
-465.143	283.506	0.086	-0.155
-464.128	800.000	-0.042	0.162
-463.113	15.845	0.170	-0.135
-462.099	-177.824	-0.248	-0.006
-461.084	90.241	-0.278	0.312
-460.070	74.916	-0.122	-0.129
-459.055	-9.975	0.259	0.173
-458.040	800.000	-0.042	0.143
-457.026	-152.475	0.151	0.011
-456.011	800.000	0.029	0.114
-454.997	800.000	0.093	-0.283
-453.982	770.258	0.062	0.170
-452.968	-200.000	0.023	0.277
-451.953	561.419	0.050	0.121
-450.938	21.209	-0.256	-0.209
-449.924	-61.749	-0.025	0.010
-448.909	-8.188	-0.205	-0.139
-447.895	2.351	-0.340	-0.248
-446.880	800.000	0.066	0.250
-445.865	62.647	0.137	-0.138
-444.851	14.663	-0.351	-0.276
-443.836	20.426	-0.222	-0.181
-442.822	14.796	0.098	0.077
-441.807	187.192	-0.020	0.030
-440.792	38.121	-0.273	0.244
-439.778	-77.677	-0.313	0.109
-438.763	-56.799	-0.368	0.164
-437.749	16.849	0.151	0.120
-436.734	-200.000	-0.051	0.306
-435.719	370.112	-0.076	-0.154
-434.705	112.034	0.179	0.218
-433.690	-200.000	0.058	0.309
-432.676	-65.215	0.035	-0.014
-431.661	-200.000	-0.047	0.237
-430.646	-29.422	-0.187	0.108
-429.632	800.000	-0.013	0.046
-428.617	800.000	-0.089	-0.328
-427.603	94.135	0.141	-0.160
-426.588	-61.495	-0.241	0.102
-425.573	-120.973	0.032	0.005
-424.559	159.441	0.130	0.181
-423.544	49.904	-0.048	-0.046
-422.530	800.000	0.016	-0.048
-421.515	-118.340	-0.245	0.044
-420.500	-89.670	0.213	0.063
-419.486	62.765	-0.124	-0.125
-418.471	-200.000	0.031	0.211
-417.457	150.534	0.085	-0.116
-416.442	172.466	-0.176	-0.255
-415.428	800.000	-0.076	-0.326
-414.413	-200.000	-0.003	0.047
-413.398	-149.890	-0.029	-0.002
-412.384	-200.000	-0.019	-0.112
-411.369	-141.017	0.321	0.033
-410.355	4.487	0.078	0.057
-409.340	-157.658	0.128	-0.008
-408.325	-74.749	0.308	-0.111
-407.311	138.509	-0.197	0.259
-406.296	363.197	-0.086	-0.174
-405.282	110.036	0.214	0.258
-404.267	39.974	0.165	-0.149
-403.252	489.719	-0.072	0.166
-402.238	749.819	-0.126	0.342
-401.223	531.317	0.107	0.253
-400.209	440.052	0.116	-0.254
-399.194	-75.687	0.106	0.038
-398.179	-65.007	-0.111	0.045
-397.165	14.655	-0.143	-0.112
-396.150	-29.238	-0.203	-0.117
-395.136	209.731	0.229	0.361
-394.121	-28.204	-0.042	0.024
-393.106	51.893	-0.279	-0.267
-392.092	187.755	-0.036	-0.054
-391.077	-34.555	0.260	-0.143
-390.063	415.489	-0.048	0.103
-389.048	-158.254	-0.250	-0.015
-388.033	-130.417	0.249	-0.034
-387.019	442.745	0.137	0.301
-386.004	800.000	-0.034	0.147
-384.990	36.250	-0.113	-0.100
-383.975	-200.000	-0.007	-0.105
-382.960	-69.275	0.026	-0.010
-381.946	429.186	0.091	-0.197
-380.931	-176.407	-0.277	0.007
-379.917	40.946	-0.067	-0.061
-378.902	-90.915	-0.429	-0.124
-377.888	-106.332	-0.352	-0.079
-376.873	458.402	-0.113	0.252
-375.858	215.235	-0.127	0.202
-374.844	443.364	-0.153	-0.337
-373.829	61.982	0.062	0.062
-372.815	-44.423	0.090	-0.045
-371.800	-66.964	0.210	0.083
-370.785	1.750	0.148	0.107
-369.771	181.034	0.031	-0.046
-368.756	325.065	0.108	0.206
-367.742	-120.497	0.098	-0.017
-366.727	-165.231	-0.200	-0.009
-365.712	40.537	-0.041	-0.037
-364.698	-29.649	-0.167	0.096
-363.683	-34.334	-0.214	0.118
-362.669	570.519	0.061	-0.148
-361.654	-90.792	-0.138	0.040
-360.639	800.000	-0.096	-0.370
-359.625	-111.795	0.211	-0.043
-358.610	-136.186	0.084	-0.010
-357.596	-87.125	0.181	0.055
-356.581	-144.637	-0.285	-0.026
-355.566	-200.000	-0.015	-0.219
-354.552	-200.000	0.003	-0.048
-353.537	800.000	-0.089	0.263
-352.523	162.053	0.064	0.089
-351.508	213.469	0.067	0.106
-350.493	800.000	0.061	-0.241
-349.479	106.051	0.120	-0.142
-348.464	-117.538	-0.132	0.024
-347.450	-9.778	0.163	0.109
-346.435	800.000	-0.088	0.297
-345.420	-139.379	0.414	0.044
-344.406	-105.410	-0.227	-0.052
-343.391	27.995	0.322	0.272
-342.377	-96.093	-0.125	-0.033
-341.362	45.891	0.192	0.178
-340.348	6.823	0.114	0.085
-339.333	-179.545	0.112	0.002
-338.318	-200.000	0.019	0.175
-337.304	304.683	-0.130	-0.241
-336.289	112.210	-0.103	-0.125
-335.275	355.600	0.081	-0.161
-334.260	-200.000	0.020	0.142
-333.245	106.920	-0.304	0.361
-332.231	256.551	0.149	0.257
-331.216	-95.690	0.193	0.052
-330.202	523.512	0.085	-0.200
-329.187	126.493	0.141	-0.179
-328.172	-64.382	0.160	0.065
-327.158	-106.054	-0.206	-0.046
-326.143	-125.414	-0.302	-0.046
-325.129	-200.000	-0.002	0.027
-324.114	143.799	0.095	-0.126
-323.099	46.423	0.180	0.167
-322.085	-29.042	0.140	0.080
-321.070	-127.066	-0.275	-0.040
-320.056	-200.000	0.018	0.157
-319.041	-75.343	-0.087	-0.031
-318.026	-99.066	-0.195	-0.049
-317.012	-83.059	-0.431	0.139
-315.997	-200.000	0.006	0.190
-314.983	182.519	-0.150	0.221
-313.968	-200.000	-0.042	0.191
-312.953	53.266	0.162	0.155
-311.939	252.253	0.029	-0.050
-310.924	-115.178	0.062	0.012
-309.910	40.509	0.307	0.277
-308.895	-180.211	0.272	-0.006
-307.880	394.695	0.089	0.185
-306.866	517.207	-0.031	-0.073
-305.851	-101.716	0.255	-0.062
-304.837	-200.000	-0.012	-0.206
-303.822	302.821	-0.193	-0.358
-302.807	-100.590	-0.193	-0.048
-301.793	-23.326	-0.116	0.070
-300.778	-11.801	0.217	-0.142
-299.764	-0.127	-0.098	0.070
-298.749	796.151	-0.113	0.310
-297.735	-87.676	-0.294	0.089
-296.720	-168.226	0.209	-0.008
-295.705	265.542	-0.116	0.202
-294.691	-25.062	-0.521	0.309
-293.676	-200.000	-0.031	0.173
-292.662	800.000	0.035	-0.099
-291.647	-48.309	-0.071	0.034
-290.632	-109.807	-0.249	0.052
-289.618	81.776	-0.102	0.110
-288.603	-109.274	0.101	-0.021
-287.589	-58.907	-0.215	-0.093
-286.574	-200.000	0.016	0.144
-285.559	23.750	-0.087	0.072
-284.545	717.481	-0.139	-0.369
-283.530	274.549	0.058	0.103
-282.516	-63.861	-0.349	0.143
-281.501	393.816	-0.167	-0.348
-280.486	-39.462	0.045	0.024
-279.472	182.238	-0.173	-0.255
-278.457	37.197	0.154	-0.136
-277.443	316.777	-0.189	-0.358
-276.428	84.334	0.178	-0.195
-275.413	-54.926	-0.202	-0.091
-274.399	750.655	0.109	0.294
-273.384	581.126	-0.141	-0.346
-272.370	-121.847	-0.070	-0.012
-271.355	613.918	-0.113	0.283
-270.340	-66.935	0.376	0.148
-269.326	209.788	-0.084	-0.131
-268.311	46.584	-0.170	0.158
-267.297	-200.000	0.022	-0.278
-266.282	800.000	0.071	0.221
-265.267	32.254	-0.039	-0.033
-264.253	-74.389	-0.374	-0.135
-263.238	660.422	-0.136	0.349
-262.224	-83.398	0.210	-0.067
-261.209	40.328	0.102	0.092
-260.195	-200.000	0.011	-0.070
-259.180	115.691	-0.122	-0.149
-258.165	77.024	-0.267	0.283
-257.151	645.328	-0.058	0.149
-256.136	14.854	-0.234	-0.182
-255.122	800.000	0.050	-0.140
-254.107	561.018	-0.082	-0.197
-253.092	56.144	0.139	0.135
-252.078	800.000	-0.089	-0.341
-251.063	-170.132	-0.312	-0.011
-250.049	800.000	0.068	0.263
-249.034	-200.000	0.010	0.060
-248.019	-200.000	-0.043	-0.198
-247.005	119.800	0.193	0.239
-245.990	-200.000	0.011	0.181
-244.976	72.282	0.057	0.059
-243.961	26.697	0.226	-0.189
-242.946	-144.715	0.430	-0.039
-241.932	-100.405	0.234	0.058
-240.917	-173.678	-0.322	0.010
-239.903	-62.321	0.147	-0.061
-238.888	-69.516	-0.125	0.048
-237.873	330.738	0.210	-0.404
-236.859	-200.000	0.051	-0.284
-235.844	79.450	-0.211	0.226
-234.830	-12.788	-0.266	-0.173
-233.815	-116.228	0.305	0.056
-232.800	-101.182	0.228	0.056
-231.786	800.000	0.127	0.407
-230.771	-106.845	-0.204	-0.045
-229.757	-160.699	0.223	0.012
-228.742	19.302	0.111	0.089
-227.727	-161.308	0.323	0.017
-226.713	-58.568	-0.201	-0.087
-225.698	294.001	-0.113	0.206
-224.684	-153.322	0.204	-0.014
-223.669	800.000	-0.062	-0.255
-222.655	-200.000	0.004	-0.130
-221.640	-200.000	-0.006	0.118
-220.625	800.000	0.042	0.139
-219.611	-200.000	0.065	-0.290
-218.596	-45.603	0.304	0.150
-217.582	-57.924	-0.239	0.104
-216.567	-115.634	0.364	-0.068
-215.552	713.917	-0.022	0.059
-214.538	156.054	0.074	-0.102
-213.523	-109.350	0.393	-0.083
-212.509	-120.350	0.194	0.033
-211.494	141.148	-0.192	0.253
-210.479	315.519	0.130	-0.244
-209.465	-56.509	-0.142	0.063
-208.450	-43.344	0.325	0.164
-207.436	-168.796	0.081	-0.003
-206.421	3.030	0.109	0.079
-205.406	276.245	-0.196	-0.347
-204.392	149.930	0.112	0.152
-203.377	775.923	0.046	0.126
-202.363	-159.987	0.140	-0.008
-201.348	-200.000	-0.016	0.250
-200.333	-95.036	0.275	0.074
-199.319	309.087	-0.049	-0.092
-198.304	102.859	-0.070	0.081
-197.290	59.310	-0.029	0.028
-196.275	-84.537	0.125	-0.039
-195.260	100.750	-0.094	0.109
-194.246	599.920	0.015	-0.038
-193.231	21.428	0.168	-0.136
-192.217	-132.836	0.054	-0.007
-191.202	401.703	-0.085	0.177
-190.187	648.138	0.076	0.192
-189.173	-27.900	-0.245	-0.141
-188.158	289.345	0.016	0.030
-187.144	800.000	0.040	0.136
-186.129	-200.000	0.019	-0.198
-185.114	276.871	-0.094	-0.166
-184.100	18.695	0.164	0.131
-183.085	245.191	-0.026	-0.044
-182.071	-3.220	-0.177	0.123
-181.056	98.810	0.123	-0.141
-180.042	-78.919	0.123	-0.042
-179.027	138.699	0.102	0.133
-178.012	-200.000	-0.013	0.156
-176.998	341.057	0.118	0.230
-175.983	162.235	-0.155	0.216
-174.969	-162.521	0.307	-0.015
-173.954	-200.000	0.056	0.284
-172.939	800.000	0.111	0.376
-171.925	0.708	-0.300	-0.213
-170.910	-6.065	0.227	0.154
-169.896	411.755	0.111	0.234
-168.881	421.805	-0.069	-0.146
-167.866	-200.000	-0.026	-0.164
-166.852	-79.253	-0.158	0.053
-165.837	86.238	0.278	0.305
-164.823	-144.371	0.329	0.030
-163.808	450.143	-0.123	0.269
-162.793	-85.285	-0.288	0.090
-161.779	-180.479	0.120	0.002
-160.764	105.141	0.443	-0.520
-159.750	-83.708	-0.364	-0.116
-158.735	-200.000	0.002	0.106
-157.720	-156.937	0.067	0.004
-156.706	-77.374	0.203	-0.070
-155.691	209.097	0.092	-0.143
-154.677	499.218	-0.092	0.211
-153.662	27.750	-0.195	-0.163
-152.647	200.337	0.138	0.211
-151.633	68.662	0.253	0.258
-150.618	-200.000	0.040	-0.251
-149.604	721.063	-0.029	-0.077
-148.589	69.341	-0.197	0.202
-147.574	-152.704	0.244	-0.017
-146.560	-200.000	0.005	-0.202
-145.545	-200.000	0.002	-0.261
-144.531	-87.740	-0.263	-0.079
-143.516	-122.929	0.120	-0.019
-142.502	-97.653	-0.219	0.057
-141.487	157.601	0.155	-0.213
-140.472	76.375	-0.229	0.241
-139.458	-139.766	0.098	0.010
-138.443	106.903	0.097	0.114
-137.429	69.111	-0.057	0.058
-136.414	-28.151	0.165	0.095
-135.399	137.115	-0.141	-0.183
-134.385	295.615	-0.026	-0.048
-133.370	-84.478	-0.235	-0.074
-132.356	-182.590	-0.167	-0.003
-131.341	-167.082	-0.057	-0.002
-130.326	-105.844	0.297	0.067
-129.312	19.033	-0.250	-0.199
-128.297	-200.000	0.001	-0.231
-127.283	72.375	-0.158	0.163
-126.268	-200.000	-0.003	-0.034
-125.253	-200.000	-0.034	-0.169
-124.239	444.818	0.143	-0.311
-123.224	-110.836	0.354	-0.072
-122.210	-200.000	-0.040	-0.172
-121.195	-200.000	0.020	0.127
-120.180	-73.845	-0.132	-0.048
-119.166	-68.188	0.359	-0.139
-118.151	92.595	0.148	-0.166
-117.137	-101.700	0.477	0.115
-116.122	346.659	-0.089	-0.174
-115.107	36.683	0.218	0.191
-114.093	800.000	0.090	0.360
-113.078	2.552	0.234	0.168
-112.064	-186.444	0.047	0.001
-111.049	596.336	0.180	-0.443
-110.034	800.000	-0.076	-0.215
-109.020	-195.008	0.204	-0.002
-108.005	-61.072	0.210	0.088
-106.991	-200.000	-0.005	-0.124
-105.976	-200.000	0.023	0.105
-104.962	-121.559	-0.048	-0.008
-103.947	-200.000	-0.011	0.093
-102.932	-69.253	0.032	-0.012
-101.918	9.654	0.147	-0.110
-100.903	800.000	0.028	0.119
-99.889	567.011	0.086	-0.208
-98.874	0.068	-0.380	-0.269
-97.859	407.967	-0.053	0.112
-96.845	-123.152	0.187	-0.030
-95.830	-145.844	0.205	-0.018
-94.816	-169.073	-0.115	0.004
-93.801	-182.668	-0.070	-0.001
-92.786	-116.047	0.183	0.034
-91.772	-119.756	0.034	-0.006
-90.757	575.668	0.073	0.176
-89.743	9.029	-0.360	-0.269
-88.728	16.026	-0.320	0.250
-87.713	124.529	-0.236	-0.294
-86.699	7.175	0.138	0.102
-85.684	126.871	0.311	0.391
-84.670	-200.000	-0.020	-0.348
-83.655	-84.161	0.177	-0.056
-82.640	-200.000	-0.001	0.067
-81.626	22.725	0.171	-0.139
-80.611	211.360	0.104	0.162
-79.597	456.519	0.022	-0.049
-78.582	111.078	0.111	-0.133
-77.567	53.315	-0.296	-0.281
-76.553	55.672	0.251	-0.241
-75.538	-140.068	0.089	-0.009
-74.524	-200.000	-0.002	-0.110
-73.509	111.277	-0.213	-0.254
-72.494	229.366	-0.168	-0.272
-71.480	-149.697	-0.094	-0.007
-70.465	-137.625	0.565	0.063
-69.451	-96.304	-0.294	-0.077
-68.436	-157.018	-0.153	-0.009
-67.422	-130.508	0.198	-0.027
-66.407	278.222	-0.221	-0.390
-65.392	-12.467	0.400	-0.259
-64.378	93.248	0.100	0.112
-63.363	8.682	-0.049	-0.037
-62.349	98.892	-0.090	0.103
-61.334	32.970	-1.023	-0.878
-60.319	539.942	0.206	0.486
-59.305	-200.000	-0.063	-0.734
-58.290	285.972	0.534	0.953
-57.276	-200.000	0.284	1.650
-56.261	-200.000	94.409	554.832
-55.246	536.671	1378.512	3241.271
-54.232	150.571	2595.408	3491.449
-53.217	113.879	2185.487	2630.955
-52.203	46.340	1638.321	1503.965
-51.188	38.260	1372.224	1209.890
-50.173	34.849	1329.585	1151.740
-49.159	56.028	1378.567	1324.545
-48.144	60.274	1396.113	1367.347
-47.130	38.357	1350.878	1191.470
-46.115	34.844	1332.967	1154.456
-45.100	34.711	1327.544	1148.916
-44.086	34.543	1325.422	1146.025
-43.071	34.545	1323.166	1144.040
-42.057	34.408	1321.219	1141.489
-41.042	34.561	1319.370	1140.763
-40.027	34.589	1317.796	1139.521
-39.013	34.684	1315.960	1138.460
-37.998	34.572	1313.692	1135.783
-36.984	34.773	1311.855	1135.342
-35.969	34.753	1310.095	1133.657
-34.954	34.794	1308.450	1132.433
-33.940	34.753	1307.029	1130.911
-32.925	34.791	1305.881	1130.100
-31.911	34.842	1304.618	1129.264
-30.896	34.771	1303.377	1127.724
-29.881	34.846	1301.463	1126.468
-28.867	34.787	1300.638	1125.363
-27.852	34.856	1298.540	1123.905
-26.838	34.803	1297.097	1122.302
-25.823	34.756	1296.087	1121.111
-24.809	34.792	1294.910	1120.257
-23.794	34.831	1293.136	1118.903
-22.779	34.746	1291.838	1117.243
-21.765	34.677	1290.809	1115.904
-20.750	34.737	1289.436	1115.020
-19.736	34.694	1288.210	1113.666
-18.721	34.598	1287.019	1112.032
-17.706	34.629	1285.686	1111.018
-16.692	34.607	1284.670	1109.969
-15.677	34.597	1283.854	1109.160
-14.663	34.560	1282.408	1107.656
-13.648	34.591	1281.318	1106.848
-12.633	34.567	1280.328	1105.808
-11.619	34.690	1279.326	1105.610
-10.604	34.623	1278.169	1104.182
-9.590	34.552	1277.773	1103.383
-8.575	34.647	1276.666	1102.933
-7.560	34.472	1276.151	1101.437
-6.546	34.627	1274.828	1101.142
-5.531	34.578	1273.754	1099.891
-4.517	34.660	1272.781	1099.478
-3.502	34.616	1271.830	1098.358
-2.487	34.617	1271.152	1097.734
-1.473	34.647	1267.448	1094.667
-0.458	33.789	1253.111	1077.373
0.556	30.730	1235.087	1041.821
1.571	27.383	1240.425	1027.378
2.586	26.565	1255.861	1035.392
3.600	25.343	1244.415	1018.935
4.615	17.993	1168.287	917.205
5.629	7.013	1087.944	798.867
6.644	2.192	1065.729	758.594
7.659	1.731	1063.085	754.360
8.673	1.675	1062.031	753.266
9.688	1.603	1060.511	751.769
10.702	1.802	1059.314	751.832
11.717	8.235	1068.682	790.362
12.731	18.827	1084.291	854.807
13.746	24.259	1090.741	886.927
14.761	25.100	1091.148	891.361
15.775	25.028	1091.011	890.814
16.790	24.764	1090.123	888.698
17.804	24.787	1089.235	888.009
18.819	24.928	1088.952	888.401
19.834	25.079	1088.810	888.952
20.848	25.084	1088.096	888.315
21.863	24.985	1087.639	887.377
22.877	25.065	1086.901	887.090
23.892	24.928	1086.416	885.937
24.907	25.075	1085.640	885.953
25.921	25.048	1084.112	884.493
26.936	24.935	1082.880	882.856
27.950	24.917	1081.154	881.282
28.965	24.692	1079.711	878.922
29.980	24.842	1078.405	878.516
30.994	24.945	1077.752	878.413
32.009	25.144	1076.286	878.115
33.023	24.780	1075.211	875.376
34.038	24.856	1074.446	875.049
35.053	25.027	1073.709	875.205
36.067	25.067	1072.948	874.706
37.082	25.121	1072.250	874.323
38.096	25.225	1071.863	874.434
39.111	25.316	1070.769	873.909
40.126	25.146	1069.515	871.982
41.140	24.781	1067.698	868.649
42.155	24.600	1066.259	866.526
43.169	24.756	1065.117	866.277
44.184	24.789	1064.459	865.825
45.199	24.671	1063.420	864.330
46.213	24.694	1062.949	863.983
47.228	24.822	1062.140	863.868
48.242	25.012	1060.685	863.525
49.257	24.982	1060.449	863.109
50.271	25.191	1059.624	863.369
51.286	25.145	1058.869	862.458
52.301	25.194	1057.645	861.618
53.315	25.052	1057.105	860.421
54.330	25.057	1055.569	859.119
55.344	24.953	1055.499	858.487
56.359	25.054	1054.496	858.080
57.374	24.949	1053.411	856.615
58.388	24.737	1052.597	854.866
59.403	24.643	1051.991	853.851
60.417	24.548	1050.958	852.484
61.432	24.703	1050.338	852.646
62.447	24.848	1049.809	852.827
63.461	24.942	1048.540	852.169
64.476	24.818	1048.055	851.113
65.490	24.798	1046.862	849.970
66.505	24.752	1045.957	848.944
67.520	24.856	1045.531	849.016
68.534	24.550	1044.600	846.733
69.549	24.209	1043.369	844.049
70.563	24.369	1042.176	843.763
71.578	24.377	1041.719	843.358
72.593	24.065	1041.243	841.421
73.607	24.232	1039.881	841.035
74.622	24.582	1039.643	842.421
75.636	24.512	1039.177	841.637
76.651	24.440	1037.719	840.044
77.666	24.335	1037.686	839.447
78.680	24.376	1036.942	838.963
79.695	24.514	1036.133	838.883
80.709	24.564	1035.661	838.664
81.724	24.647	1034.510	838.046
82.739	24.629	1034.258	837.683
83.753	25.179	1033.480	839.556
84.768	25.322	1032.988	839.749
85.782	25.467	1031.643	839.257
86.797	25.288	1030.800	837.663
87.812	24.962	1030.079	835.483
88.826	25.236	1029.182	835.958
89.841	25.410	1028.160	835.862
90.855	25.334	1027.047	834.534
91.870	25.154	1026.318	833.028
92.884	25.077	1025.162	831.660
93.899	25.080	1024.522	831.083
94.914	25.215	1023.782	831.031
95.928	25.159	1022.545	829.695
96.943	24.915	1021.472	827.624
97.957	24.630	1020.536	825.475
98.972	24.566	1018.989	823.857
99.987	24.757	1018.582	824.336
101.001	24.940	1017.659	824.359
102.016	25.077	1016.344	823.850
103.030	24.977	1015.619	822.730
104.045	24.682	1014.946	820.756
105.060	24.618	1013.956	819.593
106.074	24.746	1013.248	819.535
107.089	25.032	1012.499	820.163
108.103	25.075	1011.328	819.340
109.118	24.846	1009.745	816.938
110.133	24.667	1009.218	815.626
111.147	24.434	1008.290	813.740
112.162	24.463	1006.876	812.658
113.176	24.571	1007.166	813.311
114.191	24.621	1005.544	812.159
115.206	24.276	1004.557	809.724
116.220	24.134	1004.419	808.897
117.235	24.455	1002.850	809.015
118.249	24.415	1002.220	808.253
119.264	24.413	1001.207	807.356
120.279	24.429	1000.564	806.839
121.293	24.327	1000.145	805.967
122.308	24.516	999.289	806.060
123.322	24.443	997.582	804.285
124.337	24.226	996.617	802.456
125.352	23.804	995.129	799.288
126.366	23.705	994.231	798.054
127.381	24.551	994.213	801.768
128.395	24.831	993.992	802.774
129.410	24.861	993.262	802.251
130.424	24.920	992.167	801.556
131.439	25.040	990.945	801.038
132.454	24.848	990.256	799.548
133.468	25.006	989.008	799.176
134.483	25.118	988.659	799.326
135.497	25.278	988.159	799.562
136.512	25.307	987.194	798.839
137.527	25.190	986.470	797.664
138.541	25.172	985.620	796.825
139.556	25.434	984.444	796.964
140.570	25.355	983.977	796.165
141.585	25.329	983.138	795.301
142.600	25.367	981.570	794.132
143.614	25.552	981.082	794.482
144.629	25.505	980.571	793.792
145.643	25.193	979.556	791.522
146.658	25.244	977.928	790.362
147.673	25.104	976.899	788.846
148.687	25.017	976.130	787.773
149.702	25.014	974.900	786.697
150.716	25.000	973.659	785.564
151.731	25.136	973.052	785.602
152.746	25.366	972.815	786.346
153.760	25.456	971.961	785.982
154.775	25.443	971.355	785.366
155.789	25.343	970.841	784.445
156.804	25.289	969.934	783.407
157.819	25.346	969.287	783.060
158.833	25.460	968.221	782.629
159.848	25.446	967.377	781.814
160.862	25.407	965.781	780.288
161.877	25.353	965.129	779.455
162.892	25.533	963.692	779.008
163.906	25.484	962.445	777.720
164.921	25.432	962.120	777.163
165.935	25.400	961.366	776.347
166.950	25.366	960.212	775.197
167.964	25.327	959.336	774.253
168.979	25.218	958.429	772.983
169.994	25.289	957.467	772.448
171.008	25.418	957.204	772.721
172.023	25.524	956.386	772.449
173.037	25.222	955.075	770.024
174.052	25.052	954.327	768.625
175.067	25.015	953.708	767.897
176.081	25.157	953.103	767.951
177.096	25.190	952.104	767.222
178.110	24.865	951.057	764.921
179.125	24.771	950.577	764.063
180.140	24.823	950.100	763.838
181.154	24.983	949.975	764.349
182.169	25.274	949.536	765.169
183.183	25.542	949.301	766.057
184.198	25.271	948.294	764.021
185.213	25.166	947.942	763.225
186.227	25.320	947.264	763.264
187.242	25.302	946.688	762.659
188.256	25.439	945.895	762.530
189.271	25.570	945.048	762.337
190.286	25.092	944.075	759.461
191.300	24.432	942.695	755.488
192.315	23.668	941.013	750.844
193.329	23.724	940.129	750.308
194.344	24.652	941.130	754.965
195.359	25.232	940.936	757.189
196.373	25.290	940.186	756.763
197.388	25.213	939.464	755.791
198.402	25.322	938.934	755.758
199.417	25.289	938.238	754.991
200.432	25.006	937.245	752.936
201.446	24.866	936.922	752.021
202.461	24.894	936.441	751.688
203.475	24.032	934.511	746.460
204.490	23.183	933.107	741.714
205.504	24.243	933.399	746.323
206.519	24.794	932.811	748.089
207.534	24.906	932.811	748.492
208.548	25.294	932.801	750.041
209.563	25.180	931.319	748.307
210.577	25.014	931.103	747.373
211.592	25.474	930.597	748.818
212.607	25.507	929.781	748.235
213.621	25.536	929.368	747.957
214.636	25.522	928.314	746.983
215.650	25.384	927.659	745.816
216.665	25.446	927.691	746.033
217.680	25.505	926.725	745.437
218.694	24.913	925.278	741.754
219.709	24.790	924.970	740.931
220.723	25.161	924.349	741.904
221.738	25.314	923.787	742.021
222.753	25.236	922.944	740.953
223.767	25.385	922.729	741.331
224.782	25.582	922.530	741.917
225.796	25.594	921.586	741.145
226.811	24.924	919.966	737.017
227.826	24.303	918.750	733.428
228.840	24.387	918.248	733.305
229.855	24.606	917.480	733.526
230.869	24.098	916.638	730.706
231.884	24.576	916.621	732.585
232.899	25.212	917.134	735.542
233.913	25.055	916.213	734.095
234.928	25.124	915.408	733.666
235.942	25.128	914.711	733.058
236.957	24.688	914.070	730.683
237.972	24.900	913.164	730.758
238.986	24.899	913.034	730.585
240.001	24.991	912.347	730.348
241.015	25.037	911.932	730.136
242.030	25.211	910.912	729.965
243.045	25.350	910.648	730.255
244.059	25.483	910.334	730.480
245.074	25.254	909.243	728.611
246.088	24.914	908.221	726.347
247.103	25.105	908.355	727.162
248.117	25.910	908.306	730.325
249.132	25.952	908.102	730.264
250.147	26.125	907.301	730.257
251.161	26.233	906.801	730.227
252.176	26.215	906.099	729.522
253.190	26.328	905.633	729.539
254.205	26.342	905.551	729.465
255.220	26.340	904.716	728.719
256.234	26.166	903.919	727.313
257.249	25.995	903.147	725.938
258.263	26.019	902.214	725.221
259.278	26.143	901.768	725.297
260.293	26.315	901.171	725.444
261.307	26.170	900.594	724.333
262.322	25.877	899.830	722.478
263.336	25.187	897.733	717.970
264.351	24.118	895.965	712.220
265.366	24.228	895.661	712.358
266.380	25.402	896.304	717.496
267.395	25.805	895.807	718.643
268.409	25.657	895.431	717.690
269.424	25.940	894.705	718.171
270.439	26.001	893.918	717.718
271.453	25.923	893.903	717.333
272.468	26.214	893.514	718.115
273.482	26.205	892.965	717.574
274.497	25.762	891.933	714.921
275.512	25.477	890.661	712.709
276.526	25.912	890.526	714.263
277.541	26.033	890.595	714.734
278.555	25.900	889.572	713.322
279.570	25.745	888.770	712.005
280.585	25.916	888.525	712.419
281.599	25.871	887.208	711.123
282.614	25.253	886.138	707.769
283.628	25.146	886.006	707.178
284.643	25.484	885.367	707.937
285.657	25.198	884.062	705.707
286.672	24.961	883.286	704.093
287.687	25.375	883.473	705.805
288.701	25.501	882.681	705.604
289.716	25.281	881.914	704.068
290.730	25.246	881.276	703.359
291.745	24.879	880.475	701.217
292.760	25.207	880.579	702.527
293.774	26.164	880.921	706.483
294.789	26.535	880.706	707.699
295.803	26.505	880.105	707.037
296.818	26.559	878.973	706.275
297.833	26.063	878.154	703.621
298.847	26.022	877.298	702.710
299.862	26.355	877.110	703.796
300.876	26.466	876.999	704.077
301.891	26.489	875.832	703.167
302.906	25.949	874.957	700.304
303.920	26.106	874.971	700.865
304.935	26.538	874.664	702.232
305.949	26.428	874.271	701.428
306.964	26.177	873.193	699.529
307.979	26.240	872.933	699.502
308.993	26.730	872.647	701.108
310.008	26.588	872.350	700.257
311.022	26.318	871.487	698.459
312.037	26.194	870.485	697.117
313.052	25.992	869.571	695.545
314.066	25.019	867.786	690.307
315.081	24.641	867.292	688.399
316.095	25.569	868.002	692.475
317.110	25.974	867.271	693.389
318.125	25.250	866.098	689.610
319.139	24.217	864.479	684.296
320.154	24.164	864.241	683.843
321.168	25.149	864.528	687.787
322.183	25.878	864.363	690.389
323.197	26.074	863.659	690.516
324.212	26.201	863.923	691.152
325.227	26.314	863.130	690.890
326.241	25.944	862.917	689.243
327.256	26.024	862.093	688.829
328.270	25.942	861.170	687.720
329.285	25.616	860.639	685.990
330.300	25.506	859.033	684.232
331.314	25.803	859.720	685.851
332.329	26.162	859.426	686.923
333.343	26.352	858.947	687.199
334.358	26.373	858.447	686.820
335.373	26.331	858.425	686.581
336.387	26.715	858.058	687.685
337.402	26.755	857.959	687.694
338.416	26.652	858.022	687.295
339.431	26.934	857.219	687.659
340.446	26.908	857.055	687.367
341.460	26.932	856.338	686.822
342.475	26.732	855.795	685.569
343.489	26.653	855.759	685.183
344.504	27.050	855.120	686.108
345.519	27.101	855.018	686.161
346.533	27.168	854.443	685.890
347.548	27.139	853.863	685.253
348.562	27.024	853.136	684.176
349.577	27.141	852.498	684.044
350.592	27.203	851.722	683.594
351.606	27.088	851.206	682.687
352.621	26.825	850.331	680.939
353.635	26.927	849.490	680.588
354.650	26.306	848.257	677.214
355.665	25.227	846.516	671.728
356.679	25.776	846.214	673.480
357.694	26.235	845.726	674.748
358.708	25.931	845.675	673.511
359.723	26.532	845.261	675.367
360.738	26.741	844.857	675.762
361.752	26.893	844.708	676.150
362.767	27.102	844.480	676.689
363.781	27.474	844.005	677.630
364.796	27.407	843.611	677.004
365.810	27.650	843.002	677.358
366.825	27.603	842.440	676.674
367.840	27.234	841.720	674.667
368.854	26.823	841.154	672.630
369.869	26.872	840.556	672.274
370.883	26.993	839.751	672.018
371.898	26.706	839.916	671.026
372.913	27.115	839.362	672.039
373.927	27.157	838.552	671.487
374.942	27.209	838.353	671.459
375.956	27.337	837.889	671.501
376.971	27.473	837.620	671.727
377.986	27.567	837.504	671.923
379.000	27.341	837.085	670.692
380.015	27.231	836.376	669.660
381.029	27.366	835.823	669.656
382.044	27.489	834.919	669.322
383.059	27.461	834.628	668.927
384.073	27.583	833.729	668.595
385.088	27.551	833.347	668.113
386.102	27.317	832.090	666.191
387.117	27.086	831.992	665.206
388.132	26.852	830.605	663.184
389.146	26.438	829.664	660.860
390.161	26.667	829.870	661.805
391.175	27.264	829.759	663.837
392.190	26.935	828.405	661.494
393.205	25.442	826.330	654.346
394.219	23.832	824.684	647.130
395.234	23.730	824.936	646.897
396.248	25.584	826.038	654.460
397.263	26.958	826.998	660.164
398.278	26.936	826.562	659.676
399.292	26.693	825.848	658.167
400.307	26.598	825.321	657.343
401.321	26.917	824.691	657.940
402.336	27.273	824.574	659.079
403.350	27.683	824.489	660.436
404.365	28.006	824.200	661.317
405.380	28.318	823.768	662.039
406.394	28.170	823.675	661.369
407.409	28.050	823.326	660.597
408.423	28.030	822.859	660.094
409.438	28.161	822.645	660.336
410.453	28.280	821.875	660.089
411.467	28.210	821.058	659.121
412.482	28.172	820.825	658.739
413.496	28.190	820.696	658.643
414.511	28.279	820.053	658.389
415.526	28.111	819.589	657.353
416.540	28.050	818.828	656.467
417.555	27.803	818.185	655.006
418.569	27.952	818.062	655.385
419.584	27.853	817.255	654.327
420.599	27.827	816.687	653.717
421.613	106.261	1282.572	1443.439
422.628	91.913	1350.435	1443.535
