DTS Sentinel unit serial number:	SN413079Multiplexer serial number:	ORYXHardware model number:	OX4-SRSoftware version number:	ORYX F/W v4.00 Oryx Data Collector v3.7.2.0data status	okinstallation	princeton_trtdifferential loss correction	single-endedforward channel	channel 1reverse channel	N/Adate	2019/09/14time	11:54:35forward acquisition time	60.00reverse acquisition time	0.00gamma	496.2192k internal	0.2295k external	0.2295temperature offset calibration	1.0081default loss term (dB/km)	0.3790temperature slope calibration	1.0000multiplexer offset coefficient	1.0000multiplexer slope coefficient	1.0000fibre end	0.00T internal ref (°C)	37.22T ext. ref 1 (°C)	4.64T ext. ref 2 (°C)	34.82length (m)	temperature (°C)	Stokes	anti-Stokes-747.200	22.022	-0.107	-0.089
-746.185	-200.000	-0.008	0.335
-745.171	155.801	-0.266	-0.374
-744.156	-200.000	-0.026	-0.154
-743.142	374.450	-0.080	0.167
-742.127	-95.729	0.156	0.043
-741.112	83.329	-0.115	-0.127
-740.098	800.000	-0.060	0.222
-739.083	534.614	-0.047	0.115
-738.069	-200.000	0.015	-0.129
-737.054	-200.000	0.065	0.301
-736.039	-106.589	-0.414	0.094
-735.025	800.000	-0.041	-0.140
-734.010	-87.583	-0.310	0.096
-732.996	96.367	-0.229	0.268
-731.981	290.766	-0.025	-0.046
-730.966	143.617	-0.184	-0.250
-729.952	138.959	0.262	0.352
-728.937	-75.350	-0.256	0.093
-727.923	262.238	-0.208	-0.369
-726.908	28.609	-0.314	-0.271
-725.894	-82.911	0.172	-0.057
-724.879	-87.305	-0.049	-0.015
-723.864	130.886	-0.118	0.155
-722.850	133.505	-0.168	-0.221
-721.835	-37.183	-0.046	0.025
-720.821	3.596	-0.228	-0.170
-719.806	214.504	-0.038	-0.062
-718.791	229.344	0.115	-0.191
-717.777	-128.218	-0.178	-0.026
-716.762	-36.376	0.198	0.109
-715.748	-40.199	0.149	0.079
-714.733	800.000	0.096	-0.395
-713.718	645.480	0.072	0.187
-712.704	-155.974	-0.356	0.023
-711.689	-28.089	0.100	-0.059
-710.675	719.475	-0.055	-0.150
-709.660	-156.192	0.096	-0.006
-708.645	-27.725	0.189	0.112
-707.631	-160.489	0.061	-0.003
-706.616	632.242	-0.139	-0.359
-705.602	-68.600	-0.156	-0.062
-704.587	800.000	0.058	-0.188
-703.572	-157.699	0.204	-0.012
-702.558	-92.238	0.099	-0.028
-701.543	39.727	0.184	-0.169
-700.529	800.000	-0.125	-0.457
-699.514	-39.349	-0.071	0.038
-698.499	-42.827	-0.053	-0.027
-697.485	-48.430	0.091	0.045
-696.470	-137.883	0.230	-0.026
-695.456	-43.683	-0.109	-0.056
-694.441	-200.000	-0.019	-0.140
-693.426	-12.547	-0.121	0.081
-692.412	43.228	-0.070	0.065
-691.397	-200.000	0.008	0.210
-690.383	-200.000	0.001	-0.156
-689.368	800.000	0.107	0.316
-688.354	-147.372	-0.284	0.025
-687.339	-200.000	0.040	-0.193
-686.324	-56.786	0.222	-0.100
-685.310	-96.094	-0.170	-0.046
-684.295	-200.000	-0.059	-0.340
-683.281	90.429	-0.181	-0.207
-682.266	800.000	0.051	-0.222
-681.251	619.497	0.050	0.127
-680.237	-200.000	-0.021	-0.236
-679.222	88.075	-0.160	-0.181
-678.208	-52.776	0.452	0.213
-677.193	-182.246	-0.206	0.004
-676.178	345.042	-0.206	0.412
-675.164	-200.000	0.016	-0.080
-674.149	-69.126	0.131	0.051
-673.135	-26.816	-0.318	0.189
-672.120	-200.000	0.038	0.238
-671.105	-23.742	-0.190	0.116
-670.091	-200.000	0.017	-0.143
-669.076	-200.000	0.057	-0.262
-668.062	-200.000	-0.053	0.302
-667.047	-200.000	-0.025	0.159
-666.032	-200.000	0.003	0.073
-665.018	-30.806	0.128	-0.074
-664.003	-34.251	-0.252	-0.141
-662.989	93.638	0.176	0.203
-661.974	180.161	-0.126	0.188
-660.959	-60.473	0.275	0.119
-659.945	84.901	-0.341	-0.381
-658.930	800.000	0.071	-0.265
-657.916	309.227	-0.106	0.202
-656.901	-68.231	-0.039	-0.015
-655.886	117.284	0.309	-0.387
-654.872	-56.400	0.024	-0.011
-653.857	348.629	0.134	-0.268
-652.843	-86.505	0.348	0.109
-651.828	-81.682	-0.169	0.057
-650.814	800.000	-0.070	0.200
-649.799	15.501	0.121	-0.097
-648.784	4.038	0.203	-0.151
-647.770	-72.119	0.146	-0.055
-646.755	-113.751	0.089	-0.018
-645.741	4.596	-0.141	0.106
-644.726	-200.000	0.044	-0.251
-643.711	-52.799	-0.121	0.057
-642.697	248.463	-0.085	-0.146
-641.682	800.000	0.044	-0.158
-640.668	125.719	-0.089	-0.114
-639.653	13.634	-0.069	-0.055
-638.638	-93.958	-0.175	-0.049
-637.624	35.202	0.309	-0.275
-636.609	35.685	-0.255	0.228
-635.595	195.703	0.030	-0.047
-634.580	-200.000	0.001	-0.283
-633.565	2.483	-0.076	0.056
-632.551	151.253	0.096	-0.133
-631.536	-147.499	-0.069	0.006
-630.522	-0.795	-0.061	-0.044
-629.507	144.643	0.097	-0.132
-628.492	89.995	-0.129	-0.147
-627.478	-58.433	-0.169	0.075
-626.463	52.044	0.126	-0.122
-625.449	-4.325	0.233	0.164
-624.434	-112.695	0.150	0.030
-623.419	-69.158	-0.201	0.079
-622.405	660.370	-0.095	0.250
-621.390	-46.821	0.113	-0.056
-620.376	-200.000	0.028	0.168
-619.361	49.981	0.105	-0.100
-618.346	151.059	-0.124	0.171
-617.332	94.096	-0.089	-0.103
-616.317	800.000	-0.073	0.290
-615.303	-20.815	-0.110	0.068
-614.288	382.949	-0.095	0.200
-613.273	88.922	-0.192	0.218
-612.259	133.497	0.063	0.082
-611.244	-134.781	0.164	0.020
-610.230	116.591	0.101	-0.126
-609.215	654.247	-0.120	-0.313
-608.201	50.581	-0.143	0.138
-607.186	-56.873	-0.188	0.085
-606.171	158.644	0.089	-0.125
-605.157	592.586	-0.030	0.074
-604.142	800.000	-0.047	-0.208
-603.128	-101.189	0.055	-0.014
-602.113	-118.964	-0.443	-0.079
-601.098	-58.515	-0.192	-0.085
-600.084	158.672	-0.120	-0.170
-599.069	63.761	0.112	0.114
-598.055	-109.037	0.298	0.064
-597.040	-55.801	-0.103	-0.047
-596.025	347.079	0.047	0.095
-595.011	-54.677	0.233	-0.107
-593.996	121.796	-0.184	0.234
-592.982	21.725	0.054	-0.045
-591.967	-65.342	0.283	-0.116
-590.952	-200.000	-0.001	-0.078
-589.938	97.084	0.089	-0.104
-588.923	57.981	-0.122	0.121
-587.909	130.816	0.213	-0.277
-586.894	202.971	-0.117	-0.184
-585.879	-157.228	0.114	0.007
-584.865	-200.000	-0.044	-0.301
-583.850	-4.983	0.213	-0.149
-582.836	-152.242	0.074	-0.005
-581.821	-57.874	0.284	0.126
-580.806	431.568	-0.010	0.023
-579.792	66.067	0.121	0.125
-578.777	129.309	0.144	-0.187
-577.763	12.581	0.154	0.120
-576.748	2.837	0.039	-0.029
-575.733	81.346	-0.263	0.288
-574.719	-169.697	-0.298	-0.011
-573.704	296.017	-0.046	0.085
-572.690	-56.367	0.099	-0.045
-571.675	-200.000	0.000	0.012
-570.661	-142.861	-0.048	-0.005
-569.646	140.747	-0.155	-0.208
-568.631	49.310	-0.073	0.070
-567.617	-169.467	0.230	0.009
-566.602	55.205	0.123	-0.121
-565.588	800.000	0.115	0.461
-564.573	180.264	0.120	-0.178
-563.558	223.745	-0.112	-0.184
-562.544	53.326	-0.129	-0.125
-561.529	-47.985	0.208	0.102
-560.515	-158.938	0.172	-0.010
-559.500	-38.165	-0.482	0.260
-558.485	-167.662	-0.066	-0.003
-557.471	-193.619	-0.163	-0.001
-556.456	42.354	-0.107	-0.098
-555.442	-200.000	0.022	-0.166
-554.427	-200.000	0.016	0.263
-553.412	-49.279	-0.139	-0.067
-552.398	242.288	-0.075	-0.128
-551.383	240.367	0.106	0.179
-550.369	271.049	0.061	0.110
-549.354	99.253	-0.158	-0.185
-548.339	432.163	-0.076	-0.167
-547.325	-82.485	0.232	0.076
-546.310	257.910	-0.088	0.154
-545.296	-113.579	-0.094	-0.019
-544.281	476.426	-0.007	-0.016
-543.266	37.052	-0.098	0.088
-542.252	-200.000	0.022	0.184
-541.237	-180.501	-0.230	-0.005
-540.223	-124.114	0.073	0.012
-539.208	-200.000	0.010	-0.176
-538.193	-151.982	0.305	0.023
-537.179	-66.474	0.131	-0.053
-536.164	-105.894	0.097	-0.022
-535.150	-200.000	0.035	0.368
-534.135	-90.799	-0.207	-0.061
-533.121	-200.000	-0.021	0.283
-532.106	2.779	-0.314	0.231
-531.091	-116.829	0.210	-0.039
-530.077	-38.100	0.541	-0.291
-529.062	-111.675	-0.215	0.044
-528.048	-193.398	0.233	-0.002
-527.033	800.000	0.071	0.201
-526.018	75.042	-0.045	0.048
-525.004	-200.000	0.040	-0.205
-523.989	-75.217	-0.066	0.024
-522.975	-68.507	-0.469	0.184
-521.960	800.000	-0.043	-0.154
-520.945	-200.000	0.045	-0.380
-519.931	72.279	0.074	-0.078
-518.916	147.821	-0.086	-0.118
-517.902	-32.454	-0.211	-0.119
-516.887	800.000	-0.085	0.256
-515.872	-173.756	-0.245	-0.007
-514.858	800.000	-0.041	-0.143
-513.843	800.000	-0.031	-0.118
-512.829	-168.817	-0.208	-0.008
-511.814	32.275	0.186	-0.162
-510.799	800.000	-0.102	-0.345
-509.785	223.784	0.132	0.216
-508.770	800.000	-0.040	0.132
-507.756	-200.000	-0.003	-0.046
-506.741	-200.000	-0.003	-0.111
-505.726	508.378	-0.119	-0.281
-504.712	-200.000	-0.070	0.399
-503.697	-200.000	-0.047	-0.343
-502.683	-49.644	0.368	0.177
-501.668	387.335	-0.125	0.261
-500.653	262.713	-0.175	0.307
-499.639	-42.743	-0.350	0.180
-498.624	71.983	0.114	-0.120
-497.610	-123.543	-0.368	0.059
-496.595	-3.425	0.408	-0.287
-495.581	310.279	0.111	-0.210
-494.566	-133.800	-0.338	-0.043
-493.551	-200.000	0.039	0.225
-492.537	90.152	0.283	-0.321
-491.522	-113.046	0.370	0.074
-490.508	-157.868	-0.165	0.010
-489.493	-0.651	0.203	0.145
-488.478	20.215	0.031	0.025
-487.464	755.681	-0.043	0.117
-486.449	388.530	0.114	-0.238
-485.435	800.000	-0.109	-0.389
-484.420	-71.989	0.119	-0.045
-483.405	-200.000	-0.047	0.405
-482.391	19.498	0.038	-0.031
-481.376	-200.000	0.005	0.152
-480.362	-200.000	0.009	-0.115
-479.347	153.296	0.013	-0.017
-478.332	45.207	0.249	-0.232
-477.318	42.255	-0.169	0.156
-476.303	-78.356	0.283	0.098
-475.289	800.000	-0.094	-0.264
-474.274	164.684	0.115	-0.164
-473.259	-32.028	-0.077	0.044
-472.245	-200.000	0.002	0.078
-471.230	110.670	-0.047	-0.057
-470.216	737.673	-0.112	-0.304
-469.201	182.956	0.095	-0.142
-468.186	-22.584	0.105	0.064
-467.172	800.000	0.014	-0.046
-466.157	5.763	-0.172	-0.129
-465.143	-36.652	-0.332	-0.180
-464.128	-106.578	-0.234	0.053
-463.113	598.976	-0.067	-0.167
-462.099	656.563	-0.055	0.143
-461.084	-167.432	0.279	0.011
-460.070	-71.371	-0.186	0.070
-459.055	-125.221	0.081	-0.013
-458.040	-200.000	-0.038	-0.251
-457.026	-68.160	0.221	-0.087
-456.011	118.428	-0.128	-0.159
-454.997	-7.789	0.351	0.239
-453.982	-62.097	-0.141	-0.059
-452.968	-54.749	0.232	0.106
-451.953	48.234	0.093	-0.088
-450.938	154.087	0.071	0.098
-449.924	-89.727	-0.115	0.034
-448.909	-165.553	-0.227	0.010
-447.895	155.558	-0.242	0.337
-446.880	-120.547	0.056	0.010
-445.865	-93.371	-0.240	0.067
-444.851	53.382	0.176	-0.171
-443.836	-94.112	0.198	0.055
-442.822	123.442	-0.093	-0.118
-441.807	36.554	-0.186	0.166
-440.792	-123.501	0.166	-0.027
-439.778	100.436	0.200	0.234
-438.763	771.065	-0.079	-0.217
-437.749	-141.357	-0.161	0.017
-436.734	-45.057	0.060	0.030
-435.719	-200.000	-0.004	-0.421
-434.705	715.239	0.028	0.075
-433.690	82.789	0.250	0.274
-432.676	70.465	0.175	0.183
-431.661	226.241	-0.164	-0.269
-430.646	-122.229	-0.299	0.049
-429.632	442.434	-0.197	-0.435
-428.617	32.359	0.271	-0.236
-427.603	-93.337	0.174	-0.049
-426.588	-77.702	-0.146	0.051
-425.573	375.262	-0.103	-0.212
-424.559	-153.876	-0.249	-0.017
-423.544	-152.413	0.118	0.009
-422.530	-25.027	0.168	0.101
-421.515	-200.000	-0.056	-0.293
-420.500	-84.404	0.252	-0.080
-419.486	-200.000	-0.047	0.300
-418.471	166.987	0.052	0.075
-417.457	-79.052	0.293	-0.100
-416.442	44.390	0.184	0.171
-415.428	-88.952	-0.377	0.113
-414.413	233.909	0.137	-0.227
-413.398	561.182	-0.025	-0.061
-412.384	-36.837	-0.158	-0.085
-411.369	-109.204	0.113	-0.024
-410.355	78.582	0.305	0.329
-409.340	-200.000	0.004	0.069
-408.325	-120.280	0.449	0.077
-407.311	800.000	0.037	-0.154
-406.296	-200.000	0.007	0.166
-405.282	-200.000	-0.073	-0.383
-404.267	800.000	0.050	-0.174
-403.252	800.000	-0.022	-0.066
-402.238	199.265	-0.053	-0.083
-401.223	387.666	-0.085	0.177
-400.209	71.682	0.068	0.071
-399.194	-27.505	-0.306	0.179
-398.179	565.489	-0.179	-0.439
-397.165	-153.684	0.504	-0.035
-396.150	-200.000	-0.018	0.177
-395.136	-100.282	-0.385	0.096
-394.121	63.177	0.211	-0.213
-393.106	-200.000	0.035	-0.166
-392.092	-80.394	-0.060	0.020
-391.077	53.011	-0.049	-0.048
-390.063	-17.821	0.173	-0.109
-389.048	-137.982	-0.190	-0.021
-388.033	-200.000	0.027	-0.203
-387.019	78.387	-0.342	-0.368
-386.004	-70.590	0.007	-0.003
-384.990	-58.427	0.253	-0.111
-383.975	-200.000	0.008	0.098
-382.960	800.000	0.090	0.311
-381.946	-107.319	-0.204	-0.045
-380.931	-8.199	-0.128	0.087
-379.917	-57.848	0.311	0.137
-378.902	225.453	-0.199	-0.324
-377.888	-131.902	-0.234	-0.031
-376.873	-32.016	-0.146	-0.082
-375.858	22.713	-0.311	0.256
-374.844	-143.281	0.068	0.007
-373.829	-53.918	0.197	0.091
-372.815	-200.000	0.018	0.196
-371.800	-85.595	-0.089	-0.028
-370.785	-125.875	0.338	0.051
-369.771	-37.274	-0.244	-0.131
-368.756	-200.000	-0.009	-0.065
-367.742	-200.000	0.002	-0.180
-366.727	9.143	0.217	-0.165
-365.712	48.564	-0.176	-0.166
-364.698	-48.770	-0.237	0.115
-363.683	-181.539	-0.180	-0.004
-362.669	59.297	-0.050	-0.049
-361.654	93.978	0.200	0.228
-360.639	-80.993	-0.330	0.110
-359.625	209.343	-0.118	0.186
-358.610	-103.091	0.286	-0.068
-357.596	-30.808	-0.139	-0.079
-356.581	120.751	0.196	0.245
-355.566	264.438	-0.086	0.151
-354.552	68.452	0.125	0.129
-353.537	-200.000	-0.019	-0.400
-352.523	-52.314	-0.315	0.147
-351.508	-131.161	0.030	-0.004
-350.493	-200.000	-0.038	-0.192
-349.479	284.967	0.128	-0.232
-348.464	130.161	-0.144	-0.185
-347.450	-137.311	-0.183	0.021
-346.435	-125.499	0.105	0.016
-345.420	158.802	0.062	0.087
-344.406	-49.201	0.126	-0.061
-343.391	-200.000	0.027	0.422
-342.377	60.979	0.019	0.019
-341.362	-200.000	0.015	0.129
-340.348	-200.000	-0.004	0.022
-339.333	181.659	0.047	-0.070
-338.318	-200.000	-0.015	-0.082
-337.304	208.500	0.071	-0.111
-336.289	6.952	0.136	-0.102
-335.275	-31.015	-0.425	-0.241
-334.260	-67.487	-0.384	0.151
-333.245	55.123	0.128	0.124
-332.231	-126.916	-0.228	0.034
-331.216	-64.231	-0.199	0.082
-330.202	541.492	-0.073	-0.174
-329.187	-188.366	-0.197	-0.002
-328.172	57.353	-0.169	-0.165
-327.158	142.792	0.234	-0.313
-326.143	352.905	0.099	0.197
-325.129	-181.475	-0.120	-0.002
-324.114	211.761	-0.100	0.158
-323.099	250.053	0.134	-0.229
-322.085	-9.891	0.213	-0.143
-321.070	333.444	-0.116	0.226
-320.056	-80.063	-0.083	-0.028
-319.041	-145.975	0.115	0.010
-318.026	-104.028	-0.280	-0.066
-317.012	603.968	0.220	0.550
-315.997	146.511	-0.146	0.198
-314.983	800.000	0.051	-0.151
-313.968	-188.939	0.141	-0.002
-312.953	-109.947	-0.179	0.038
-311.939	49.919	0.054	-0.051
-310.924	418.610	0.046	-0.099
-309.910	-71.652	-0.050	-0.019
-308.895	220.614	0.085	-0.137
-307.880	-0.666	-0.344	-0.245
-306.866	-200.000	0.020	0.216
-305.851	-54.154	-0.105	-0.048
-304.837	-152.734	0.118	-0.008
-303.822	-19.618	0.276	0.172
-302.807	701.632	0.170	0.450
-301.793	-64.340	-0.186	-0.076
-300.778	102.568	-0.060	-0.070
-299.764	-136.814	-0.354	0.041
-298.749	248.532	-0.021	-0.036
-297.735	800.000	0.022	-0.088
-296.720	44.000	0.105	0.097
-295.705	-200.000	-0.001	0.208
-294.691	-200.000	-0.069	-0.318
-293.676	-36.358	0.262	0.142
-292.662	108.767	0.074	-0.089
-291.647	735.300	-0.031	0.084
-290.632	-151.242	-0.240	0.018
-289.618	-200.000	0.022	-0.174
-288.603	-21.440	0.030	-0.019
-287.589	57.362	0.054	0.053
-286.574	-200.000	-0.037	0.358
-285.559	85.696	0.229	0.253
-284.545	800.000	0.104	0.340
-283.530	-54.081	0.110	-0.050
-282.516	-200.000	0.025	-0.169
-281.501	35.463	-0.107	-0.094
-280.486	800.000	-0.118	0.350
-279.472	-200.000	0.271	0.000
-278.457	254.549	-0.045	0.077
-277.443	800.000	-0.123	-0.414
-276.428	800.000	0.042	-0.133
-275.413	800.000	-0.087	0.306
-274.399	-14.367	0.278	0.180
-273.384	-39.970	0.143	0.075
-272.370	194.978	0.050	-0.076
-271.355	166.154	-0.144	-0.205
-270.340	800.000	-0.075	-0.252
-269.326	67.444	-0.124	0.127
-268.311	-75.946	-0.194	0.069
-267.297	-43.112	-0.220	-0.112
-266.282	86.722	-0.206	-0.228
-265.267	229.911	0.287	-0.470
-264.253	29.652	-0.044	0.038
-263.238	17.295	0.191	0.152
-262.224	470.912	-0.117	-0.264
-261.209	-200.000	0.036	0.283
-260.195	477.938	0.089	0.203
-259.180	-177.710	0.333	0.008
-258.165	-68.850	-0.161	0.063
-257.151	-92.518	0.171	-0.048
-256.136	-197.485	-0.242	0.002
-255.122	-22.152	-0.252	0.153
-254.107	-42.258	0.213	0.109
-253.092	-36.216	0.118	0.064
-252.078	658.376	-0.036	0.093
-251.063	45.157	-0.013	-0.012
-250.049	3.654	-0.403	0.295
-249.034	16.671	0.294	0.233
-248.019	85.092	-0.159	0.175
-247.005	-70.387	0.172	0.066
-245.990	216.371	0.057	0.091
-244.976	18.634	0.369	0.295
-243.961	-200.000	0.009	-0.137
-242.946	69.136	0.121	0.125
-241.932	75.723	-0.011	-0.011
-240.917	-152.436	0.180	0.013
-239.903	44.609	0.082	-0.076
-238.888	-167.268	0.269	0.011
-237.873	-98.773	0.054	0.014
-236.859	97.760	-0.112	-0.128
-235.844	-114.765	-0.157	0.030
-234.830	165.743	0.111	-0.157
-233.815	-157.769	-0.130	0.008
-232.800	-141.358	-0.170	-0.017
-231.786	37.414	0.186	-0.166
-230.771	66.842	-0.076	0.077
-229.757	207.405	-0.125	-0.195
-228.742	800.000	0.122	0.349
-227.727	-200.000	0.013	0.304
-226.713	589.630	0.012	-0.031
-225.698	350.908	-0.048	0.095
-224.684	-34.784	-0.128	0.070
-223.669	83.286	0.170	0.186
-222.655	800.000	0.048	0.189
-221.640	-23.889	0.337	-0.202
-220.625	800.000	-0.074	0.305
-219.611	-137.152	-0.134	-0.015
-218.596	146.712	0.198	0.266
-217.582	0.867	-0.208	0.149
-216.567	800.000	-0.045	0.133
-215.552	55.705	-0.081	0.079
-214.538	12.458	0.066	0.051
-213.523	-68.579	-0.195	-0.076
-212.509	101.991	0.072	0.084
-211.494	60.373	-0.244	0.241
-210.479	-200.000	0.015	-0.221
-209.465	-137.631	0.245	-0.028
-208.450	-143.966	0.127	-0.012
-207.436	-44.341	0.071	-0.035
-206.421	97.478	-0.206	-0.237
-205.406	-153.521	-0.030	-0.002
-204.392	153.746	-0.128	0.176
-203.377	-177.549	0.238	0.006
-202.363	-5.164	0.295	-0.203
-201.348	-200.000	-0.014	0.470
-200.333	-136.994	-0.199	0.023
-199.319	74.709	-0.200	-0.211
-198.304	67.871	0.147	0.150
-197.290	417.149	-0.094	-0.202
-196.275	79.686	0.146	0.157
-195.260	800.000	0.104	-0.295
-194.246	256.072	-0.107	0.183
-193.231	-125.411	-0.208	0.032
-192.217	-95.836	-0.222	-0.059
-191.202	144.989	0.258	-0.345
-190.187	361.291	0.140	-0.281
-189.173	-200.000	-0.024	0.136
-188.158	27.483	0.101	0.085
-187.144	-54.216	-0.406	0.184
-186.129	-63.769	0.308	-0.126
-185.114	131.830	0.224	0.288
-184.100	-146.495	0.297	0.026
-183.085	63.383	0.259	0.260
-182.071	97.104	-0.119	-0.136
-181.056	466.300	0.086	-0.193
-180.042	-200.000	0.029	0.134
-179.027	-200.000	-0.005	0.171
-178.012	-158.730	-0.429	0.025
-176.998	55.005	0.194	0.188
-175.983	-68.242	-0.124	-0.048
-174.969	800.000	-0.031	-0.111
-173.954	800.000	-0.061	-0.180
-172.939	715.528	0.049	0.131
-171.925	-95.863	0.085	0.023
-170.910	-200.000	-0.055	-0.247
-169.896	-200.000	0.092	0.000
-168.881	-34.109	-0.172	-0.094
-167.866	800.000	0.115	-0.329
-166.852	-175.865	-0.229	0.006
-165.837	226.906	-0.036	-0.059
-164.823	800.000	-0.021	-0.070
-163.808	78.869	0.253	0.270
-162.793	592.512	0.036	0.088
-161.779	336.489	0.135	0.261
-160.764	46.050	0.091	0.084
-159.750	-159.685	-0.007	0.000
-158.735	-23.786	-0.175	0.105
-157.720	-6.821	0.131	0.089
-156.706	-106.860	0.402	-0.089
-155.691	-98.970	-0.168	0.043
-154.677	137.996	0.061	0.080
-153.662	348.882	0.207	0.407
-152.647	173.654	0.204	0.294
-151.633	-200.000	-0.040	-0.228
-150.618	800.000	-0.096	-0.311
-149.604	-37.061	0.099	0.053
-148.589	173.039	0.091	-0.132
-147.574	195.757	-0.141	0.214
-146.560	10.418	-0.293	0.222
-145.545	-153.535	-0.371	-0.026
-144.531	79.269	-0.143	0.153
-143.516	287.546	0.101	-0.183
-142.502	-66.794	0.162	-0.064
-141.487	-180.324	0.374	-0.008
-140.472	-45.363	-0.276	-0.137
-139.458	328.669	-0.054	0.104
-138.443	-51.466	0.202	-0.094
-137.429	241.507	-0.062	-0.103
-136.414	89.311	-0.252	0.280
-135.399	-8.013	0.088	0.059
-134.385	-81.561	-0.382	0.125
-133.370	-7.091	0.136	0.092
-132.356	12.946	-0.162	-0.125
-131.341	415.914	0.075	-0.159
-130.326	-102.400	0.303	-0.072
-129.312	337.644	-0.023	-0.044
-128.297	82.231	0.222	-0.240
-127.283	800.000	0.038	-0.122
-126.268	-86.906	-0.307	-0.093
-125.253	28.707	0.066	-0.056
-124.239	-91.488	0.281	0.080
-123.224	800.000	0.073	0.236
-122.210	11.117	-0.313	0.238
-121.195	78.811	-0.162	0.173
-120.180	149.296	0.239	0.323
-119.166	-184.448	-0.115	-0.002
-118.151	-144.951	-0.269	-0.024
-117.137	-200.000	-0.012	0.213
-116.122	-138.296	-0.327	-0.036
-115.107	457.645	-0.091	-0.201
-114.093	-200.000	0.050	0.240
-113.078	-200.000	0.001	0.192
-112.064	6.965	0.098	0.073
-111.049	-8.534	-0.286	-0.192
-110.034	293.204	0.025	-0.045
-109.020	2.110	0.222	0.160
-108.005	341.195	0.085	-0.165
-106.991	-160.465	0.018	0.001
-105.976	498.766	-0.052	0.120
-104.962	-56.741	0.435	0.192
-103.947	-52.441	-0.256	-0.118
-102.932	-200.000	0.025	-0.318
-101.918	-200.000	0.017	-0.165
-100.903	-25.203	-0.301	-0.178
-99.889	-50.764	-0.103	0.048
-98.874	800.000	-0.052	-0.199
-97.859	800.000	0.024	-0.068
-96.845	-200.000	0.006	-0.259
-95.830	800.000	-0.115	0.330
-94.816	-200.000	0.004	0.092
-93.801	-200.000	0.054	-0.249
-92.786	433.919	-0.060	0.131
-91.772	-183.127	-0.175	-0.003
-90.757	-200.000	0.027	0.160
-89.743	67.203	0.102	0.103
-88.728	151.032	-0.128	0.174
-87.713	-200.000	0.007	-0.138
-86.699	-200.000	0.178	-0.000
-85.684	-13.377	-0.062	-0.040
-84.670	-61.902	-0.317	0.132
-83.655	800.000	0.101	-0.301
-82.640	-200.000	0.077	0.427
-81.626	48.592	-0.082	-0.076
-80.611	-56.759	0.102	0.045
-79.597	64.250	0.086	-0.086
-78.582	258.225	0.076	-0.131
-77.567	8.182	-0.215	0.161
-76.553	185.440	0.138	0.204
-75.538	245.815	0.027	-0.045
-74.524	406.304	-0.051	0.107
-73.509	76.556	-0.256	0.270
-72.494	-200.000	-0.002	0.184
-71.480	541.009	-0.113	0.267
-70.465	800.000	0.078	-0.265
-69.451	800.000	-0.064	-0.251
-68.436	364.435	-0.098	0.197
-67.422	619.105	0.041	0.103
-66.407	-200.000	0.006	0.203
-65.392	-200.000	0.072	-0.364
-64.378	149.774	-0.022	0.030
-63.363	800.000	-0.040	-0.162
-62.349	140.321	-0.093	0.122
-61.334	6.085	-0.908	-0.669
-60.319	-56.310	0.249	-0.110
-59.305	264.987	-0.382	-0.662
-58.290	372.829	0.422	0.853
-57.276	406.222	0.684	1.436
-56.261	-200.000	86.498	495.880
-55.246	502.981	1406.732	3235.427
-54.232	178.740	2633.009	3827.574
-53.217	116.586	2247.821	2742.589
-52.203	47.877	1685.602	1565.996
-51.188	40.441	1413.485	1265.877
-50.173	37.242	1368.980	1206.140
-49.159	56.156	1411.041	1362.698
-48.144	60.551	1430.466	1409.092
-47.130	41.092	1388.551	1247.431
-46.115	37.310	1370.890	1208.054
-45.100	37.041	1366.086	1202.100
-44.086	37.062	1363.335	1199.765
-43.071	37.094	1360.636	1197.536
-42.057	37.106	1358.506	1195.691
-41.042	37.116	1356.850	1194.245
-40.027	37.062	1355.805	1192.950
-39.013	37.227	1353.247	1191.662
-37.998	37.150	1351.775	1189.845
-36.984	37.171	1349.555	1187.975
-35.969	37.145	1347.883	1186.295
-34.954	37.224	1345.798	1184.897
-33.940	37.211	1344.448	1183.579
-32.925	37.317	1342.734	1182.674
-31.911	37.258	1341.377	1181.070
-30.896	37.325	1340.268	1180.454
-29.881	37.425	1338.666	1179.603
-28.867	37.285	1337.672	1177.831
-27.852	37.285	1335.842	1176.173
-26.838	37.354	1334.691	1175.528
-25.823	37.320	1333.110	1173.884
-24.809	37.355	1331.753	1172.856
-23.794	37.307	1330.201	1171.151
-22.779	37.320	1328.834	1169.979
-21.765	37.327	1327.433	1168.747
-20.750	37.282	1326.112	1167.262
-19.736	37.203	1324.651	1165.459
-18.721	37.171	1323.286	1164.018
-17.706	37.221	1321.863	1163.019
-16.692	37.157	1321.238	1162.041
-15.677	37.120	1320.224	1160.883
-14.663	37.087	1318.887	1159.463
-13.648	37.126	1317.443	1158.378
-12.633	37.061	1316.786	1157.366
-11.619	37.210	1315.793	1157.340
-10.604	37.201	1314.378	1155.995
-9.590	37.227	1313.817	1155.609
-8.575	37.113	1312.767	1153.964
-7.560	37.186	1311.952	1153.634
-6.546	37.134	1311.594	1152.965
-5.531	37.171	1310.269	1151.975
-4.517	37.071	1309.575	1150.722
-3.502	37.036	1308.820	1149.809
-2.487	37.102	1307.445	1148.943
-1.473	37.288	1303.984	1146.954
-0.458	36.262	1289.429	1128.116
0.556	33.559	1269.496	1087.924
1.571	29.660	1273.730	1068.955
2.586	28.255	1287.815	1072.455
3.600	26.373	1275.319	1051.028
4.615	19.660	1197.570	950.086
5.629	9.511	1116.582	833.467
6.644	4.851	1093.907	792.790
7.659	4.555	1090.869	789.018
8.673	4.476	1090.512	788.287
9.688	4.699	1088.571	787.946
10.702	4.745	1087.549	787.368
11.717	10.482	1096.051	822.637
12.731	19.311	1108.851	877.301
13.746	21.480	1110.015	889.180
14.761	19.971	1107.636	879.538
15.775	18.938	1105.246	872.327
16.790	17.838	1103.557	865.338
17.804	16.983	1101.686	859.464
18.819	16.842	1100.629	857.853
19.834	16.525	1099.165	855.032
20.848	16.398	1098.756	853.995
21.863	16.233	1097.683	852.255
22.877	15.951	1097.187	850.368
23.892	15.970	1096.326	849.722
24.907	16.038	1095.155	849.083
25.921	16.001	1094.257	848.124
26.936	16.065	1092.919	847.337
27.950	16.035	1091.470	845.985
28.965	16.174	1090.205	845.629
29.980	16.259	1088.543	844.688
30.994	16.446	1087.368	844.636
32.009	16.267	1086.871	843.282
33.023	16.202	1085.819	842.066
34.038	16.240	1084.443	841.115
35.053	16.093	1083.730	839.755
36.067	15.996	1083.115	838.721
37.082	16.027	1082.145	838.050
38.096	16.262	1080.679	838.009
39.111	16.242	1080.356	837.585
40.126	16.051	1079.299	835.745
41.140	15.953	1077.271	833.614
42.155	15.735	1076.580	831.928
43.169	15.877	1075.096	831.410
44.184	15.776	1074.536	830.403
45.199	15.832	1073.298	829.648
46.213	15.895	1072.301	829.113
47.228	15.950	1071.227	828.481
48.242	16.178	1069.881	828.486
49.257	16.057	1069.077	827.197
50.271	16.109	1068.442	826.887
51.286	16.205	1067.128	826.270
52.301	16.154	1066.136	825.177
53.315	15.995	1065.544	823.867
54.330	15.975	1064.156	822.626
55.344	15.937	1063.464	821.833
56.359	15.883	1062.669	820.881
57.374	15.987	1061.623	820.506
58.388	15.703	1060.885	818.483
59.403	15.709	1060.327	818.008
60.417	15.838	1058.940	817.493
61.432	15.799	1057.972	816.482
62.447	15.747	1057.421	815.735
63.461	15.816	1056.542	815.321
64.476	15.910	1054.931	814.456
65.490	15.727	1054.462	813.139
66.505	15.797	1054.263	813.252
67.520	15.801	1053.378	812.518
68.534	15.821	1052.603	811.942
69.549	15.714	1051.991	810.882
70.563	15.762	1050.764	810.097
71.578	15.760	1049.703	809.199
72.593	15.651	1049.132	808.162
73.607	15.690	1048.121	807.499
74.622	15.597	1047.947	806.847
75.636	15.665	1047.141	806.480
76.651	15.692	1046.411	805.976
77.666	15.637	1046.002	805.327
78.680	15.679	1045.488	805.060
79.695	15.644	1044.909	804.376
80.709	15.828	1043.953	804.452
81.724	15.811	1043.103	803.641
82.739	15.984	1041.799	803.394
83.753	16.043	1041.479	803.353
84.768	16.288	1040.679	803.832
85.782	16.397	1039.767	803.578
86.797	16.195	1038.685	801.711
87.812	16.021	1038.340	800.548
88.826	16.128	1036.920	799.890
89.841	16.219	1035.924	799.479
90.855	16.213	1035.069	798.722
91.870	16.142	1034.709	798.037
92.884	16.162	1033.520	797.142
93.899	16.260	1032.198	796.516
94.914	16.401	1031.485	796.561
95.928	16.396	1030.845	795.971
96.943	16.282	1029.743	794.513
97.957	16.209	1028.623	793.235
98.972	16.202	1028.099	792.727
99.987	16.233	1027.257	792.154
101.001	16.109	1026.086	790.600
102.016	16.162	1025.343	790.207
103.030	16.196	1024.779	789.860
104.045	16.161	1023.912	788.961
105.060	16.096	1022.838	787.757
106.074	15.928	1021.829	786.126
107.089	15.895	1020.362	784.776
108.103	15.794	1019.885	783.869
109.118	15.705	1018.920	782.643
110.133	15.849	1018.143	782.648
111.147	15.859	1016.781	781.576
112.162	15.879	1015.895	780.920
113.176	16.077	1015.327	781.333
114.191	15.948	1014.699	780.180
115.206	15.919	1014.162	779.564
116.220	15.931	1013.141	778.767
117.235	15.791	1012.118	777.264
118.249	15.863	1011.239	776.852
119.264	15.949	1010.327	776.479
120.279	15.790	1009.931	775.375
121.293	15.789	1008.905	774.516
122.308	15.763	1007.876	773.534
123.322	15.821	1006.713	772.842
124.337	15.709	1005.791	771.552
125.352	15.798	1004.817	771.142
126.366	15.833	1003.764	770.427
127.381	15.740	1002.549	769.002
128.395	15.859	1002.094	769.128
129.410	15.846	1001.420	768.485
130.424	15.896	1000.040	767.586
131.439	15.827	999.656	766.906
132.454	15.969	998.607	766.682
133.468	16.000	997.651	766.019
134.483	15.951	997.105	765.310
135.497	16.064	996.019	764.923
136.512	15.998	995.269	763.981
137.527	16.059	994.407	763.526
138.541	15.970	993.435	762.309
139.556	16.121	992.974	762.572
140.570	16.257	992.228	762.544
141.585	16.332	991.596	762.331
142.600	16.342	990.766	761.670
143.614	16.441	989.626	761.175
144.629	16.385	989.287	760.594
145.643	16.357	987.762	759.228
146.658	16.120	986.999	757.509
147.673	16.172	986.130	757.008
148.687	16.097	984.794	755.581
149.702	16.035	983.972	754.605
150.716	15.986	983.205	753.731
151.731	15.991	982.839	753.406
152.746	16.006	981.935	752.713
153.760	16.171	980.820	752.529
154.775	16.097	980.849	752.154
155.789	16.375	979.741	752.478
156.804	16.296	979.231	751.665
157.819	16.257	978.359	750.756
158.833	16.332	978.069	750.800
159.848	16.453	976.918	750.389
160.862	16.459	975.967	749.620
161.877	16.163	974.816	747.355
162.892	16.087	973.845	746.210
163.906	16.060	972.785	745.210
164.921	16.095	972.012	744.711
165.935	16.146	971.175	744.226
166.950	16.125	970.652	743.666
167.964	16.290	969.279	743.278
168.979	16.193	968.089	741.871
169.994	16.162	967.482	741.203
171.008	16.263	967.019	741.229
172.023	16.344	966.132	740.836
173.037	16.410	965.609	740.658
174.052	16.439	964.334	739.744
175.067	16.132	964.433	738.408
176.081	16.129	963.438	737.570
177.096	16.265	962.717	737.548
178.110	16.342	962.048	737.305
179.125	16.265	961.839	736.745
180.140	16.236	961.327	736.158
181.154	16.307	961.321	736.402
182.169	16.490	960.041	736.150
183.183	16.573	959.436	735.984
184.198	16.495	958.661	734.986
185.213	16.478	958.074	734.393
186.227	16.602	957.200	734.198
187.242	16.663	956.589	733.930
188.256	16.712	956.141	733.732
189.271	16.684	955.158	732.791
190.286	16.306	954.816	730.832
191.300	16.227	953.428	729.359
192.315	16.188	952.430	728.363
193.329	16.167	952.649	728.378
194.344	16.251	951.873	728.081
195.359	16.460	951.115	728.336
196.373	16.418	950.697	727.774
197.388	16.607	950.808	728.608
198.402	16.777	949.866	728.551
199.417	16.833	948.944	728.020
200.432	16.889	948.335	727.731
201.446	16.865	948.201	727.461
202.461	16.988	947.696	727.534
203.475	16.942	946.718	726.523
204.490	16.879	945.814	725.496
205.504	16.767	944.943	724.284
206.519	16.675	944.616	723.578
207.534	16.773	943.704	723.234
208.548	16.715	943.059	722.425
209.563	16.721	942.417	721.897
210.577	16.796	941.556	721.494
211.592	16.922	941.049	721.575
212.607	17.020	939.859	721.016
213.621	16.913	939.151	719.957
214.636	16.925	938.747	719.631
215.650	16.930	937.705	718.789
216.665	17.032	937.324	718.870
217.680	17.127	936.249	718.381
218.694	17.144	936.096	718.274
219.709	17.113	935.508	717.627
220.723	17.164	934.469	716.980
221.738	17.057	934.083	716.170
222.753	17.004	933.513	715.448
223.767	17.120	932.845	715.361
224.782	17.186	932.394	715.229
225.796	17.108	931.887	714.450
226.811	17.127	931.045	713.822
227.826	17.071	929.989	712.713
228.840	17.120	929.162	712.223
229.855	17.038	928.491	711.299
230.869	17.077	927.537	710.669
231.884	16.927	927.307	709.804
232.899	16.973	926.204	709.087
233.913	16.981	925.735	708.698
234.928	16.843	925.073	707.551
235.942	16.880	924.462	707.177
236.957	16.969	923.825	706.999
237.972	16.946	923.292	706.433
238.986	17.074	922.607	706.379
240.001	16.924	922.060	705.272
241.015	17.054	921.085	705.004
242.030	17.169	920.481	704.959
243.045	17.177	919.861	704.453
244.059	17.189	919.386	704.076
245.074	17.243	918.448	703.521
246.088	17.280	917.943	703.224
247.103	17.308	917.302	702.787
248.117	17.357	917.025	702.714
249.132	17.512	916.457	702.857
250.147	17.743	915.477	702.996
251.161	17.715	915.162	702.576
252.176	17.644	914.884	702.007
253.190	17.738	913.920	701.596
254.205	17.733	913.389	701.102
255.220	17.822	912.365	700.620
256.234	17.762	912.270	700.239
257.249	17.684	911.583	699.330
258.263	17.710	910.600	698.619
259.278	17.744	909.971	698.217
260.293	17.899	909.259	698.240
261.307	17.851	908.727	697.576
262.322	17.924	907.953	697.216
263.336	17.818	907.531	696.400
264.351	17.894	906.378	695.763
265.366	17.925	906.001	695.537
266.380	17.894	905.254	694.776
267.395	17.927	904.436	694.220
268.409	17.858	903.862	693.440
269.424	17.929	902.750	692.812
270.439	17.909	902.077	692.155
271.453	17.691	901.925	691.094
272.468	17.842	901.435	691.269
273.482	17.845	900.668	690.632
274.497	17.841	899.885	689.953
275.512	17.813	899.199	689.251
276.526	17.873	898.678	689.032
277.541	17.890	898.347	688.790
278.555	18.055	898.019	689.140
279.570	17.939	897.495	688.211
280.585	18.040	896.448	687.753
281.599	17.988	895.554	686.797
282.614	17.955	895.269	686.387
283.628	18.002	894.203	685.696
284.643	18.009	893.810	685.364
285.657	17.883	893.366	684.454
286.672	18.131	892.693	684.876
287.687	17.883	892.258	683.487
288.701	18.044	890.992	683.099
289.716	17.976	891.228	682.947
290.730	18.064	890.033	682.325
291.745	18.154	889.249	682.020
292.760	18.133	889.045	681.720
293.774	18.163	888.690	681.506
294.789	18.186	887.708	680.786
295.803	18.097	886.915	679.765
296.818	18.042	886.315	679.024
297.833	18.168	885.256	678.654
298.847	18.218	884.706	678.372
299.862	18.168	884.292	677.793
300.876	18.264	883.728	677.683
301.891	18.334	883.033	677.365
302.906	18.405	882.503	677.181
303.920	18.457	882.179	677.078
304.935	18.537	881.936	677.146
305.949	18.392	881.079	675.857
306.964	18.320	880.237	674.867
307.979	18.448	879.671	674.878
308.993	18.459	879.462	674.699
310.008	18.510	878.496	674.102
311.022	18.344	878.177	673.146
312.037	18.361	877.179	672.386
313.052	18.392	876.411	671.861
314.066	18.296	876.030	671.131
315.081	18.239	875.711	670.605
316.095	18.219	874.557	669.583
317.110	18.222	874.497	669.489
318.125	18.226	873.850	668.951
319.139	18.271	873.229	668.592
320.154	18.259	872.955	668.277
321.168	18.454	872.041	668.280
322.183	18.418	871.590	667.731
323.197	18.477	871.286	667.670
324.212	18.515	870.416	667.095
325.227	18.493	870.051	666.669
326.241	18.440	869.366	665.879
327.256	18.482	868.871	665.603
328.270	18.373	868.311	664.694
329.285	18.438	867.575	664.323
330.300	18.380	867.118	663.689
331.314	18.401	866.429	663.182
332.329	18.658	865.997	663.791
333.343	18.592	865.888	663.393
334.358	18.624	865.510	663.166
335.373	18.639	864.816	662.635
336.387	18.641	864.347	662.224
337.402	18.610	864.478	662.146
338.416	18.888	863.695	662.559
339.431	18.898	863.339	662.265
340.446	18.962	863.132	662.294
341.460	18.882	862.627	661.544
342.475	18.998	862.270	661.657
343.489	19.094	861.867	661.659
344.504	19.043	861.473	661.101
345.519	19.060	860.858	660.634
346.533	19.009	860.570	660.161
347.548	19.026	859.521	659.363
348.562	18.907	858.681	658.205
349.577	18.824	858.319	657.552
350.592	18.832	857.653	657.011
351.606	18.855	857.155	656.661
352.621	18.894	856.200	656.021
353.635	18.801	855.664	655.197
354.650	18.838	855.333	655.025
355.665	18.953	854.601	654.844
356.679	19.010	853.473	654.141
357.694	18.994	852.940	653.613
358.708	18.911	852.555	652.945
359.723	18.931	851.795	652.380
360.738	19.143	851.080	652.579
361.752	19.218	850.502	652.363
362.767	19.091	850.064	651.488
363.781	19.129	849.809	651.378
364.796	19.395	849.066	651.759
365.810	19.344	849.019	651.471
366.825	19.294	848.670	650.955
367.840	19.415	848.341	651.104
368.854	19.249	847.530	649.796
369.869	19.279	847.204	649.602
370.883	19.273	846.466	648.956
371.898	19.477	845.946	649.267
372.913	19.442	845.636	648.840
373.927	19.312	845.300	648.038
374.942	19.525	844.763	648.367
375.956	19.404	844.378	647.562
376.971	19.391	844.139	647.272
377.986	19.624	843.140	647.319
379.000	19.653	843.136	647.369
380.015	19.701	842.361	646.897
381.029	19.747	841.452	646.313
382.044	19.472	841.461	645.234
383.059	19.698	840.902	645.594
384.073	19.547	840.194	644.430
385.088	19.451	839.459	643.450
386.102	19.421	838.933	642.880
387.117	19.550	838.256	642.784
388.132	19.553	837.302	642.005
389.146	19.638	837.173	642.166
390.161	19.652	836.995	642.027
391.175	19.607	836.212	641.200
392.190	19.441	835.767	640.188
393.205	19.514	834.921	639.753
394.219	19.494	834.875	639.588
395.234	19.578	834.207	639.329
396.248	19.515	833.735	638.678
397.263	19.377	833.235	637.727
398.278	19.431	833.118	637.784
399.292	19.417	832.581	637.264
400.307	19.363	832.191	636.709
401.321	19.372	831.604	636.235
402.336	19.556	830.960	636.366
403.350	19.579	830.621	636.135
404.365	19.691	830.318	636.260
405.380	19.862	830.066	636.638
406.394	19.817	829.305	635.834
407.409	19.924	828.846	635.816
408.423	19.894	828.314	635.242
409.438	19.991	828.189	635.448
410.453	19.830	827.947	634.615
411.467	20.016	827.356	634.789
412.482	20.129	826.819	634.731
413.496	20.093	826.480	634.285
414.511	20.154	826.181	634.220
415.526	20.117	825.604	633.587
416.540	20.045	825.129	632.906
417.555	20.214	824.341	632.859
418.569	20.049	824.301	632.170
419.584	20.146	823.831	632.110
420.599	20.063	823.543	631.530
421.613	152.747	1370.478	1780.394
422.628	133.086	1450.223	1780.537
