DTS Sentinel unit serial number:	SN413079Multiplexer serial number:	ORYXHardware model number:	OX4-SRSoftware version number:	ORYX F/W v4.00 Oryx Data Collector v3.7.2.0data status	okinstallation	princeton_trtdifferential loss correction	single-endedforward channel	channel 1reverse channel	N/Adate	2019/09/14time	15:02:35forward acquisition time	60.00reverse acquisition time	0.00gamma	496.2192k internal	0.2294k external	0.2294temperature offset calibration	1.0075default loss term (dB/km)	0.3790temperature slope calibration	1.0000multiplexer offset coefficient	1.0000multiplexer slope coefficient	1.0000fibre end	0.00T internal ref (°C)	39.06T ext. ref 1 (°C)	5.09T ext. ref 2 (°C)	34.92length (m)	temperature (°C)	Stokes	anti-Stokes-747.200	225.273	0.107	0.177
-746.185	-90.775	-0.206	0.061
-745.171	107.785	0.122	-0.149
-744.156	-200.000	0.010	-0.349
-743.142	410.326	-0.130	-0.281
-742.127	-106.708	-0.208	-0.047
-741.112	800.000	0.058	-0.212
-740.098	177.608	-0.148	0.221
-739.083	800.000	-0.070	-0.207
-738.069	-52.804	-0.211	0.099
-737.054	-200.000	-0.014	0.176
-736.039	-148.357	-0.157	-0.013
-735.025	93.959	0.287	0.333
-734.010	-150.089	-0.303	-0.024
-732.996	-12.991	0.334	0.222
-731.981	13.520	0.169	0.134
-730.966	800.000	-0.057	-0.245
-729.952	-8.766	0.063	-0.043
-728.937	467.291	-0.052	-0.120
-727.923	-171.616	-0.255	-0.009
-726.908	800.000	0.060	-0.170
-725.894	32.220	-0.271	-0.239
-724.879	-200.000	-0.012	0.105
-723.864	429.426	-0.130	-0.288
-722.850	282.429	0.095	-0.175
-721.835	-200.000	-0.198	-0.000
-720.821	293.255	0.231	0.431
-719.806	61.249	-0.093	-0.094
-718.791	-200.000	0.004	0.064
-717.777	115.839	0.159	0.198
-716.762	400.690	-0.056	-0.120
-715.748	62.327	0.161	-0.164
-714.733	147.095	-0.065	-0.089
-713.718	-200.000	-0.059	-0.385
-712.704	-200.000	-0.051	0.253
-711.689	58.788	-0.178	-0.179
-710.675	252.362	-0.081	-0.141
-709.660	220.504	0.212	-0.347
-708.645	440.107	0.087	-0.194
-707.631	-36.898	0.173	0.095
-706.616	202.241	-0.088	-0.139
-705.602	69.157	0.105	-0.111
-704.587	602.068	0.066	-0.169
-703.572	-90.099	-0.296	0.088
-702.558	-51.152	0.085	-0.041
-701.543	-39.017	0.216	-0.116
-700.529	-70.389	0.089	-0.034
-699.514	-10.737	0.279	0.189
-698.499	-132.368	-0.192	0.025
-697.485	-151.929	0.097	0.007
-696.470	-43.116	-0.146	-0.076
-695.456	-48.156	-0.339	-0.167
-694.441	-200.000	0.049	0.227
-693.426	69.404	-0.195	-0.205
-692.412	-49.550	0.243	-0.118
-691.397	51.646	-0.209	0.203
-690.383	800.000	-0.047	-0.182
-689.368	800.000	0.074	0.261
-688.354	-146.518	-0.078	0.007
-687.339	749.571	0.099	-0.271
-686.324	800.000	-0.096	-0.304
-685.310	800.000	0.019	0.074
-684.295	-62.120	0.241	0.103
-683.281	800.000	-0.072	0.292
-682.266	-157.618	-0.204	0.012
-681.251	161.369	-0.222	-0.316
-680.237	262.550	-0.053	-0.094
-679.222	48.619	-0.097	0.092
-678.208	800.000	0.095	-0.322
-677.193	-123.525	-0.185	0.030
-676.178	36.900	0.089	-0.080
-675.164	204.245	0.136	-0.215
-674.149	-23.592	-0.093	0.057
-673.135	-161.618	-0.142	-0.007
-672.120	168.406	0.072	0.104
-671.105	-17.150	0.373	0.240
-670.091	800.000	-0.037	0.136
-669.076	115.208	0.118	-0.147
-668.062	-56.365	-0.332	-0.151
-667.047	-200.000	-0.035	0.338
-666.032	568.889	-0.106	0.263
-665.018	-178.686	0.152	-0.004
-664.003	-29.654	0.229	-0.133
-662.989	36.265	0.146	-0.131
-661.974	647.980	0.194	-0.507
-660.959	-6.899	-0.188	-0.130
-659.945	-200.000	-0.003	0.356
-658.930	46.987	-0.144	-0.137
-657.916	-30.941	-0.261	0.150
-656.901	113.040	0.224	0.277
-655.886	-190.341	0.221	0.002
-654.872	222.395	-0.151	0.248
-653.857	300.577	0.127	-0.239
-652.843	276.758	0.182	0.329
-651.828	-0.097	-0.301	-0.219
-650.814	-200.000	0.008	-0.140
-649.799	20.776	0.103	-0.085
-648.784	196.793	0.048	0.075
-647.770	-200.000	0.017	0.263
-646.755	-47.742	0.215	0.106
-645.741	800.000	0.123	0.382
-644.726	450.190	-0.030	0.067
-643.711	800.000	-0.036	0.144
-642.697	-52.281	-0.288	0.136
-641.682	-97.088	0.269	-0.072
-640.668	-200.000	0.028	0.185
-639.653	-200.000	0.015	0.073
-638.638	11.316	-0.269	-0.210
-637.624	7.085	-0.161	-0.122
-636.609	-200.000	-0.010	0.150
-635.595	-3.339	-0.101	-0.071
-634.580	-108.313	-0.281	0.062
-633.565	-108.627	0.424	0.093
-632.551	-24.543	-0.074	-0.045
-631.536	-68.216	-0.135	0.053
-630.522	-200.000	-0.009	-0.125
-629.507	-28.085	-0.363	-0.214
-628.492	174.567	-0.091	-0.134
-627.478	800.000	-0.087	-0.312
-626.463	-200.000	0.018	-0.168
-625.449	-200.000	0.072	0.349
-624.434	800.000	0.027	-0.103
-623.419	74.110	0.154	-0.164
-622.405	800.000	-0.059	0.251
-621.390	18.936	0.084	-0.069
-620.376	-200.000	0.005	-0.311
-619.361	-200.000	-0.000	0.189
-618.346	800.000	0.121	0.361
-617.332	-77.665	0.182	0.064
-616.317	800.000	0.041	0.126
-615.303	-200.000	0.034	0.157
-614.288	26.628	0.374	-0.318
-613.273	-184.245	0.304	-0.005
-612.259	-200.000	0.014	0.324
-611.244	-200.000	-0.027	-0.243
-610.230	171.740	-0.239	-0.349
-609.215	800.000	0.029	0.130
-608.201	64.215	-0.089	0.092
-607.186	-144.513	-0.280	0.026
-606.171	-70.200	0.108	0.042
-605.157	-25.671	0.239	0.143
-604.142	215.945	0.066	-0.106
-603.128	88.895	-0.033	0.037
-602.113	-69.037	-0.223	-0.088
-601.098	-200.000	-0.037	0.194
-600.084	-125.364	-0.231	-0.036
-599.069	178.810	-0.094	-0.139
-598.055	800.000	0.039	0.133
-597.040	-200.000	-0.009	-0.248
-596.025	-44.632	0.163	0.083
-595.011	-72.873	-0.182	0.068
-593.996	22.018	-0.147	0.122
-592.982	-168.746	0.261	0.010
-591.967	-59.899	-0.152	0.066
-590.952	-26.571	0.052	-0.031
-589.938	140.193	0.136	0.182
-588.923	-81.481	0.063	0.021
-587.909	18.213	0.202	-0.164
-586.894	-127.041	-0.421	-0.063
-585.879	122.749	0.078	0.099
-584.865	333.570	0.022	0.043
-583.850	-102.069	0.347	0.085
-582.836	-22.586	-0.120	0.074
-581.821	500.119	-0.062	0.146
-580.806	244.800	-0.121	-0.207
-579.792	116.227	0.210	0.261
-578.777	-82.198	-0.177	0.059
-577.763	-200.000	0.016	-0.104
-576.748	-200.000	-0.059	-0.270
-575.733	14.564	0.235	-0.187
-574.719	800.000	-0.025	-0.093
-573.704	14.646	-0.082	0.065
-572.690	-188.697	-0.242	-0.003
-571.675	707.448	0.111	0.299
-570.661	476.067	-0.093	0.214
-569.646	65.898	-0.161	0.166
-568.631	146.586	0.039	0.053
-567.617	-164.636	-0.249	-0.011
-566.602	15.982	0.138	-0.110
-565.588	475.713	0.046	0.105
-564.573	99.231	-0.153	-0.179
-563.558	37.341	-0.217	-0.196
-562.544	-200.000	0.008	-0.052
-561.529	4.179	0.211	-0.157
-560.515	-200.000	0.005	-0.294
-559.500	219.593	0.141	-0.230
-558.485	800.000	-0.082	-0.315
-557.471	-55.659	-0.327	-0.149
-556.456	14.437	0.220	-0.174
-555.442	-104.808	0.318	0.074
-554.427	-45.593	-0.076	0.038
-553.412	-152.634	-0.217	-0.016
-552.398	-74.608	-0.217	-0.079
-551.383	400.763	-0.029	-0.061
-550.369	-39.444	0.108	0.058
-549.354	37.236	-0.148	-0.133
-548.339	-128.100	0.226	-0.033
-547.325	219.313	0.057	0.092
-546.310	-189.496	-0.156	-0.002
-545.296	-15.791	-0.274	-0.177
-544.281	-127.245	-0.270	0.040
-543.266	-122.568	-0.371	0.061
-542.252	800.000	0.034	-0.131
-541.237	-200.000	-0.021	-0.199
-540.223	-126.212	-0.097	-0.015
-539.208	14.583	0.316	-0.251
-538.193	395.936	-0.023	0.049
-537.179	-38.077	-0.323	0.174
-536.164	-77.929	-0.421	0.147
-535.150	-186.093	-0.060	-0.001
-534.135	800.000	0.061	-0.215
-533.121	-200.000	-0.027	-0.128
-532.106	-125.805	0.271	0.041
-531.091	208.841	0.079	-0.126
-530.077	-152.352	0.155	-0.011
-529.062	-95.625	0.311	0.084
-528.048	-114.213	0.490	0.096
-527.033	-59.034	-0.278	-0.122
-526.018	-124.436	-0.279	0.044
-525.004	65.271	0.138	-0.141
-523.989	280.733	0.254	-0.460
-522.975	116.599	0.050	0.062
-521.960	800.000	0.042	0.179
-520.945	-131.643	-0.158	0.021
-519.931	-200.000	0.039	-0.194
-518.916	-200.000	0.058	0.278
-517.902	7.040	-0.168	0.127
-516.887	92.353	-0.136	-0.155
-515.872	-139.628	0.101	-0.011
-514.858	-106.921	-0.233	-0.052
-513.843	7.905	-0.047	0.036
-512.829	-105.568	0.189	0.043
-511.814	1.005	0.143	-0.104
-510.799	22.741	0.094	-0.078
-509.785	-4.450	0.054	0.038
-508.770	-33.812	0.281	0.157
-507.756	306.045	0.120	0.226
-506.741	-56.681	0.281	-0.126
-505.726	403.352	-0.081	-0.173
-504.712	-181.383	-0.052	-0.001
-503.697	104.883	-0.162	-0.194
-502.683	544.820	0.130	0.314
-501.668	-137.961	-0.240	0.027
-500.653	800.000	0.060	0.210
-499.639	92.064	-0.079	0.090
-498.624	222.798	-0.055	-0.089
-497.610	-158.373	0.095	0.006
-496.595	-161.727	-0.086	0.004
-495.581	-117.699	0.384	-0.070
-494.566	-71.460	0.052	0.020
-493.551	-27.881	0.067	0.040
-492.537	-89.648	0.036	-0.011
-491.522	119.641	0.023	0.029
-490.508	-149.642	0.171	-0.014
-489.493	-133.921	-0.283	0.036
-488.478	-108.544	0.316	-0.069
-487.464	37.829	0.161	-0.145
-486.449	-27.340	0.070	-0.041
-485.435	-71.842	0.330	0.125
-484.420	353.617	-0.136	-0.273
-483.405	-19.220	0.151	-0.095
-482.391	247.129	0.064	-0.109
-481.376	-106.058	-0.257	-0.059
-480.362	122.126	-0.297	0.375
-479.347	32.046	0.206	-0.180
-478.332	75.411	0.186	-0.199
-477.318	-200.000	-0.035	-0.225
-476.303	290.281	0.242	-0.445
-475.289	-24.262	-0.092	0.055
-474.274	3.664	-0.181	0.134
-473.259	800.000	-0.090	0.388
-472.245	79.897	0.257	-0.280
-471.230	-145.840	-0.415	-0.037
-470.216	-26.116	-0.307	0.183
-469.201	108.389	-0.031	-0.038
-468.186	800.000	-0.038	0.111
-467.172	218.431	-0.099	-0.160
-466.157	-200.000	0.061	-0.327
-465.143	-200.000	-0.004	-0.198
-464.128	-68.166	-0.096	-0.038
-463.113	-200.000	0.223	-0.001
-462.099	24.171	0.220	-0.184
-461.084	-13.154	0.225	0.148
-460.070	694.652	-0.165	0.438
-459.055	195.130	0.021	0.032
-458.040	800.000	0.050	0.206
-457.026	-200.000	0.051	-0.302
-456.011	-54.599	-0.106	-0.048
-454.997	-107.267	0.333	0.074
-453.982	-200.000	-0.003	-0.199
-452.968	137.731	0.148	-0.196
-451.953	77.393	-0.419	-0.451
-450.938	-86.595	-0.074	0.023
-449.924	800.000	-0.063	0.185
-448.909	34.797	0.093	0.082
-447.895	545.811	0.153	-0.369
-446.880	208.939	-0.088	0.140
-445.865	-18.938	0.304	0.191
-444.851	39.247	0.093	0.084
-443.836	-200.000	-0.250	0.001
-442.822	79.930	-0.050	0.054
-441.807	-91.296	-0.278	0.080
-440.792	72.982	0.388	0.410
-439.778	309.297	-0.027	0.051
-438.763	-200.000	-0.002	0.073
-437.749	-160.393	0.369	-0.020
-436.734	-6.549	0.210	-0.145
-435.719	20.888	0.221	0.181
-434.705	-72.820	-0.302	-0.112
-433.690	203.125	0.070	0.110
-432.676	280.857	-0.069	-0.125
-431.661	-200.000	0.011	-0.283
-430.646	-101.805	-0.069	-0.017
-429.632	-84.121	0.138	0.044
-428.617	86.605	-0.163	-0.182
-427.603	-200.000	-0.013	0.224
-426.588	76.315	-0.161	0.173
-425.573	-164.719	-0.218	0.010
-424.559	262.908	-0.079	-0.138
-423.544	-133.154	0.096	-0.012
-422.530	-125.174	-0.278	0.043
-421.515	-72.007	-0.540	0.203
-420.500	800.000	-0.071	0.243
-419.486	-122.604	0.215	0.035
-418.471	-46.530	-0.023	0.011
-417.457	-44.970	-0.223	0.112
-416.442	-42.306	-0.065	0.033
-415.428	133.997	0.145	0.190
-414.413	-12.088	0.286	0.189
-413.398	3.227	-0.081	0.059
-412.384	43.498	0.113	0.104
-411.369	-200.000	-0.178	0.001
-410.355	-129.045	-0.326	0.046
-409.340	324.327	0.029	0.055
-408.325	71.559	-0.031	0.032
-407.311	-29.950	-0.106	-0.061
-406.296	800.000	0.088	-0.329
-405.282	-89.996	-0.267	0.079
-404.267	266.198	0.070	0.123
-403.252	81.372	0.344	0.375
-402.238	163.619	-0.189	0.269
-401.223	72.466	0.090	-0.095
-400.209	-89.663	0.221	0.065
-399.194	-136.166	0.152	-0.018
-398.179	-77.046	-0.218	-0.077
-397.165	103.164	0.162	0.192
-396.150	186.838	-0.066	-0.100
-395.136	-79.098	-0.277	0.095
-394.121	176.178	-0.041	-0.060
-393.106	265.031	0.115	-0.202
-392.092	-200.000	0.049	-0.316
-391.077	-95.495	-0.177	0.048
-390.063	-3.966	-0.141	0.098
-389.048	101.585	0.012	0.014
-388.033	42.758	0.034	0.031
-387.019	-109.893	0.324	-0.069
-386.004	531.024	-0.041	0.098
-384.990	800.000	-0.016	-0.052
-383.975	184.217	0.154	-0.230
-382.960	-144.748	0.213	-0.020
-381.946	-200.000	-0.017	0.284
-380.931	-200.000	-0.017	0.192
-379.917	-200.000	0.002	-0.054
-378.902	323.375	0.086	-0.166
-377.888	-14.440	-0.241	0.156
-376.873	-87.007	-0.253	-0.078
-375.858	132.577	0.048	-0.062
-374.844	167.226	0.061	-0.087
-373.829	131.120	0.048	-0.063
-372.815	-200.000	0.064	-0.293
-371.800	-78.725	-0.217	0.075
-370.785	-200.000	0.006	0.273
-369.771	151.883	0.098	0.134
-368.756	-88.003	-0.376	0.114
-367.742	-200.000	0.007	0.120
-366.727	-200.000	-0.004	-0.088
-365.712	-56.146	-0.382	0.171
-364.698	-200.000	0.022	-0.482
-363.683	800.000	0.036	0.131
-362.669	81.823	0.141	0.154
-361.654	-76.068	0.110	0.039
-360.639	800.000	0.050	-0.146
-359.625	-44.545	-0.182	-0.092
-358.610	-11.462	0.239	0.159
-357.596	-200.000	0.052	0.311
-356.581	512.658	-0.041	-0.095
-355.566	590.184	0.030	0.075
-354.552	249.136	0.045	0.077
-353.537	-144.688	-0.291	0.027
-352.523	381.988	0.060	0.124
-351.508	-105.135	0.314	0.072
-350.493	-73.938	0.307	-0.112
-349.479	-200.000	0.044	-0.329
-348.464	280.072	-0.080	-0.144
-347.450	-200.000	0.014	-0.116
-346.435	530.817	-0.009	-0.021
-345.420	-1.973	0.043	-0.030
-344.406	-107.834	0.095	-0.021
-343.391	53.424	0.140	0.135
-342.377	-200.000	-0.002	0.109
-341.362	-199.916	-0.224	0.001
-340.348	-200.000	0.069	0.343
-339.333	93.387	0.179	0.204
-338.318	-88.643	-0.338	0.101
-337.304	86.290	-0.127	0.140
-336.289	37.865	0.079	0.071
-335.275	-192.574	-0.089	0.001
-334.260	-200.000	-0.040	-0.230
-333.245	252.107	0.155	-0.265
-332.231	800.000	-0.044	-0.173
-331.216	185.615	0.056	0.084
-330.202	644.963	-0.179	0.459
-329.187	-200.000	0.016	-0.337
-328.172	-200.000	-0.101	-0.517
-327.158	-200.000	0.067	-0.377
-326.143	7.242	-0.144	0.108
-325.129	-47.061	0.294	-0.144
-324.114	81.770	-0.166	-0.180
-323.099	61.726	0.115	0.115
-322.085	15.110	0.229	0.180
-321.070	-108.292	-0.222	0.048
-320.056	14.066	0.081	-0.064
-319.041	-105.198	0.233	0.054
-318.026	-150.437	0.242	0.019
-317.012	-70.491	0.114	-0.044
-315.997	-200.000	-0.029	-0.177
-314.983	-82.155	-0.050	-0.017
-313.968	-144.534	-0.188	0.018
-312.953	-67.297	-0.201	0.080
-311.939	195.444	-0.173	-0.264
-310.924	-20.663	0.137	-0.085
-309.910	-123.241	-0.258	0.042
-308.895	-23.768	-0.138	-0.083
-307.880	355.270	0.032	-0.064
-306.866	81.142	-0.151	0.163
-305.851	179.317	-0.086	0.127
-304.837	199.746	0.108	-0.166
-303.822	-200.000	0.042	-0.189
-302.807	348.911	-0.081	-0.161
-301.793	409.783	0.143	-0.305
-300.778	80.748	-0.264	0.286
-299.764	-60.208	0.038	-0.016
-298.749	-44.375	-0.035	0.018
-297.735	-43.646	-0.312	0.158
-296.720	78.207	0.170	-0.182
-295.705	-79.990	0.056	-0.019
-294.691	201.325	0.110	0.170
-293.676	124.406	-0.136	-0.172
-292.662	154.837	-0.146	0.202
-291.647	304.199	0.021	-0.039
-290.632	-95.703	0.352	-0.095
-289.618	800.000	-0.041	-0.178
-288.603	-110.987	-0.243	0.050
-287.589	-200.000	-0.006	0.313
-286.574	754.889	-0.065	0.177
-285.559	511.867	-0.086	0.201
-284.545	-88.783	0.153	-0.046
-283.530	63.051	-0.087	0.087
-282.516	171.610	-0.110	0.159
-281.501	-17.716	0.025	-0.016
-280.486	-35.607	0.159	-0.087
-279.472	-21.305	-0.170	0.104
-278.457	40.061	0.114	0.103
-277.443	-37.938	-0.036	-0.019
-276.428	181.423	0.094	-0.139
-275.413	75.751	-0.157	0.166
-274.399	47.318	-0.173	-0.162
-273.384	-19.616	0.289	-0.179
-272.370	-172.069	0.271	-0.009
-271.355	217.146	0.057	0.091
-270.340	570.371	-0.097	-0.236
-269.326	-37.309	-0.074	0.040
-268.311	-59.507	0.143	0.062
-267.297	-134.955	-0.269	0.033
-266.282	-200.000	0.048	0.390
-265.267	-200.000	-0.054	0.260
-264.253	-155.815	-0.140	-0.009
-263.238	486.174	-0.128	0.293
-262.224	-200.000	-0.041	-0.506
-261.209	-200.000	0.013	0.187
-260.195	-34.000	-0.226	-0.125
-259.180	374.438	-0.044	-0.091
-258.165	-161.734	-0.161	-0.008
-257.151	-77.553	0.313	-0.109
-256.136	74.088	-0.098	0.103
-255.122	-7.692	-0.191	0.129
-254.107	-158.922	-0.180	-0.010
-253.092	800.000	0.062	-0.226
-252.078	124.402	0.053	-0.067
-251.063	-44.047	-0.273	-0.138
-250.049	-36.579	0.281	0.152
-249.034	125.726	0.061	-0.077
-248.019	391.212	0.093	-0.194
-247.005	496.648	0.032	-0.075
-245.990	800.000	-0.099	-0.411
-244.976	97.438	-0.181	-0.209
-243.961	-134.998	0.105	-0.013
-242.946	167.218	0.153	-0.218
-241.932	-33.257	-0.456	0.253
-240.917	44.692	0.220	-0.203
-239.903	58.297	-0.159	0.157
-238.888	-98.738	0.286	-0.073
-237.873	-200.000	-0.099	0.436
-236.859	332.109	-0.170	-0.328
-235.844	82.117	0.033	-0.035
-234.830	-16.376	0.262	0.166
-233.815	-200.000	0.039	-0.304
-232.800	19.688	-0.221	-0.178
-231.786	-167.227	0.214	-0.009
-230.771	17.606	0.060	-0.047
-229.757	800.000	-0.088	-0.302
-228.742	-200.000	0.014	-0.079
-227.727	-200.000	-0.036	-0.283
-226.713	740.317	-0.092	-0.248
-225.698	800.000	-0.008	0.025
-224.684	800.000	0.075	0.268
-223.669	343.780	-0.141	0.277
-222.655	21.078	0.069	-0.056
-221.640	21.250	0.204	0.166
-220.625	-200.000	-0.010	-0.204
-219.611	52.172	0.052	0.050
-218.596	-76.001	-0.133	0.047
-217.582	39.282	0.135	-0.121
-216.567	-31.549	0.040	-0.022
-215.552	617.434	-0.184	0.464
-214.538	-100.176	0.208	0.052
-213.523	-89.243	-0.327	0.097
-212.509	-200.000	0.018	0.178
-211.494	36.366	-0.158	0.139
-210.479	62.298	0.321	0.321
-209.465	540.922	0.076	-0.182
-208.450	-200.000	-0.005	-0.065
-207.436	436.239	0.066	-0.143
-206.421	302.767	-0.088	0.164
-205.406	800.000	-0.039	-0.162
-204.392	-123.822	-0.342	0.054
-203.377	-200.000	0.014	-0.185
-202.363	-115.320	0.370	0.070
-201.348	-96.639	0.192	-0.051
-200.333	-165.204	-0.067	-0.003
-199.319	800.000	-0.055	-0.236
-198.304	-200.000	-0.013	0.206
-197.290	-200.000	-0.095	-0.000
-196.275	539.517	-0.110	-0.261
-195.260	-65.394	-0.162	0.065
-194.246	-23.303	0.072	-0.044
-193.231	47.486	-0.063	-0.059
-192.217	-148.371	0.283	0.023
-191.202	-15.337	0.164	-0.105
-190.187	-13.789	0.219	0.142
-189.173	34.803	0.193	0.169
-188.158	-200.000	0.036	0.249
-187.144	-200.000	-0.022	-0.279
-186.129	35.914	0.033	0.029
-185.114	800.000	0.116	0.395
-184.100	142.637	-0.143	-0.190
-183.085	180.194	-0.129	0.189
-182.071	-0.826	0.163	0.116
-181.056	-92.426	0.463	0.130
-180.042	-200.000	0.042	-0.325
-179.027	-200.000	0.034	-0.186
-178.012	-200.000	-0.001	-0.099
-176.998	218.682	0.103	0.165
-175.983	-200.000	-0.036	-0.204
-174.969	328.463	0.122	0.235
-173.954	104.530	0.087	-0.103
-172.939	800.000	-0.048	0.201
-171.925	-129.559	-0.128	-0.018
-170.910	533.087	0.093	-0.219
-169.896	-109.849	-0.173	0.036
-168.881	425.469	0.060	0.129
-167.866	-133.922	0.274	-0.034
-166.852	125.125	-0.315	0.397
-165.837	438.440	0.120	0.262
-164.823	170.869	0.167	0.239
-163.808	-200.000	-0.016	0.416
-162.793	-80.831	-0.163	0.054
-161.779	238.546	0.065	0.108
-160.764	-74.706	0.254	0.091
-159.750	-200.000	0.015	0.179
-158.735	92.102	-0.177	-0.199
-157.720	-101.495	0.106	-0.026
-156.706	-109.352	-0.059	0.013
-155.691	152.916	-0.252	0.344
-154.677	-77.067	0.160	0.056
-153.662	3.567	0.212	-0.154
-152.647	-87.432	0.144	-0.044
-151.633	-82.208	-0.144	0.047
-150.618	20.959	0.098	0.080
-149.604	242.066	-0.181	-0.302
-148.589	719.809	0.064	-0.169
-147.574	-200.000	0.057	0.401
-146.560	800.000	0.054	0.228
-145.545	193.599	-0.084	0.127
-144.531	240.650	-0.094	0.156
-143.516	139.595	0.229	-0.302
-142.502	773.556	0.002	0.005
-141.487	-101.364	-0.252	-0.061
-140.472	-80.947	0.527	-0.175
-139.458	-86.377	-0.114	-0.035
-138.443	-126.378	-0.074	-0.011
-137.429	234.872	0.200	0.330
-136.414	-120.942	-0.298	-0.050
-135.399	-18.154	0.106	0.066
-134.385	800.000	-0.045	-0.170
-133.370	-18.683	-0.072	0.045
-132.356	115.492	0.020	-0.025
-131.341	2.416	0.087	-0.063
-130.326	800.000	-0.017	0.067
-129.312	-88.745	-0.172	-0.051
-128.297	118.437	-0.230	-0.284
-127.283	105.136	-0.150	0.177
-126.268	5.055	0.051	0.037
-125.253	-70.755	-0.312	0.118
-124.239	66.329	0.201	-0.204
-123.224	800.000	-0.053	-0.164
-122.210	-200.000	-0.109	0.000
-121.195	-79.404	0.267	0.090
-120.180	-200.000	0.034	-0.204
-119.166	-87.222	0.221	0.067
-118.151	4.397	0.147	-0.107
-117.137	-38.313	-0.191	-0.101
-116.122	25.288	-0.063	0.052
-115.107	88.046	0.284	0.314
-114.093	-69.041	-0.182	-0.070
-113.078	-23.389	0.175	0.105
-112.064	70.910	0.342	0.354
-111.049	-200.000	-0.003	-0.051
-110.034	446.260	0.025	-0.055
-109.020	-200.000	-0.001	-0.087
-108.005	-131.152	-0.073	-0.010
-106.991	-200.000	0.049	0.294
-105.976	202.046	-0.123	-0.190
-104.962	-107.587	0.157	0.034
-103.947	-46.097	-0.184	0.090
-102.932	362.710	-0.113	0.226
-101.918	-200.000	-0.011	-0.243
-100.903	-148.602	-0.223	-0.018
-99.889	384.275	-0.074	-0.152
-98.874	-200.000	0.024	0.113
-97.859	-200.000	-0.003	-0.156
-96.845	160.361	-0.087	0.121
-95.830	279.121	0.124	0.221
-94.816	91.336	0.161	0.180
-93.801	-6.136	0.090	-0.061
-92.786	-200.000	-0.009	0.195
-91.772	-70.888	-0.130	0.049
-90.757	-120.288	-0.128	0.022
-89.743	-200.000	0.009	-0.284
-88.728	227.408	-0.231	0.374
-87.713	208.683	-0.113	-0.177
-86.699	-31.341	-0.109	0.061
-85.684	692.223	0.036	-0.094
-84.670	-26.206	0.091	-0.053
-83.655	70.304	0.105	-0.108
-82.640	800.000	0.015	0.061
-81.626	-51.490	0.182	-0.085
-80.611	-138.647	-0.177	-0.019
-79.597	-200.000	-0.020	0.230
-78.582	-200.000	-0.060	0.403
-77.567	800.000	0.073	-0.228
-76.553	-42.376	0.128	0.065
-75.538	240.439	0.063	0.104
-74.524	-101.545	-0.122	0.030
-73.509	193.953	0.107	-0.162
-72.494	-200.000	-0.010	-0.091
-71.480	-103.488	-0.081	0.019
-70.465	658.632	0.077	0.196
-69.451	-17.030	0.249	0.157
-68.436	800.000	-0.022	0.071
-67.422	44.216	-0.183	0.167
-66.407	237.001	-0.075	0.125
-65.392	-27.993	0.350	-0.202
-64.378	94.951	0.234	-0.265
-63.363	-200.000	0.052	0.267
-62.349	-111.684	-0.071	-0.014
-61.334	43.325	-0.820	-0.746
-60.319	-26.939	0.277	0.161
-59.305	334.065	-0.296	-0.571
-58.290	186.837	0.618	0.917
-57.276	341.245	0.580	1.129
-56.261	-200.000	80.878	496.448
-55.246	555.172	1361.269	3261.918
-54.232	183.736	2588.454	3811.008
-53.217	120.526	2239.298	2769.230
-52.203	50.184	1691.771	1590.302
-51.188	42.546	1423.766	1289.534
-50.173	39.285	1378.934	1228.561
-49.159	57.022	1417.972	1375.808
-48.144	62.353	1436.804	1427.718
-47.130	42.930	1397.700	1268.148
-46.115	39.250	1380.497	1229.539
-45.100	38.889	1376.403	1223.596
-44.086	38.959	1373.451	1221.358
-43.071	38.806	1371.848	1218.935
-42.057	38.884	1368.807	1216.665
-41.042	38.816	1367.678	1215.189
-40.027	38.959	1366.081	1214.609
-39.013	38.997	1364.132	1213.061
-37.998	39.029	1361.955	1211.275
-36.984	39.063	1360.493	1210.137
-35.969	39.132	1358.312	1208.572
-34.954	39.120	1356.896	1207.193
-33.940	39.028	1355.679	1205.496
-32.925	39.164	1354.133	1204.910
-31.911	39.159	1352.768	1203.614
-30.896	39.142	1351.165	1202.037
-29.881	39.154	1348.984	1200.121
-28.867	39.080	1348.012	1198.760
-27.852	39.180	1346.696	1198.153
-26.838	39.122	1345.378	1196.576
-25.823	39.150	1343.961	1195.438
-24.809	39.079	1342.470	1193.636
-23.794	39.202	1340.824	1192.872
-22.779	39.220	1339.013	1191.324
-21.765	39.091	1338.167	1189.741
-20.750	39.198	1336.303	1188.681
-19.736	39.043	1335.304	1186.809
-18.721	39.047	1333.807	1185.456
-17.706	39.009	1333.111	1184.560
-16.692	39.021	1331.849	1183.466
-15.677	39.191	1330.713	1183.435
-14.663	39.044	1329.742	1181.636
-13.648	38.963	1328.674	1180.155
-12.633	38.888	1327.565	1178.674
-11.619	38.969	1326.701	1178.346
-10.604	39.078	1325.748	1178.109
-9.590	38.993	1324.519	1176.458
-8.575	38.978	1323.807	1175.688
-7.560	38.929	1323.191	1174.801
-6.546	39.003	1321.982	1174.126
-5.531	38.892	1321.513	1173.000
-4.517	38.913	1320.190	1171.903
-3.502	38.957	1319.104	1171.155
-2.487	39.007	1318.271	1170.669
-1.473	39.035	1314.038	1167.029
-0.458	37.786	1298.860	1146.161
0.556	34.350	1278.524	1101.629
1.571	30.126	1281.291	1079.383
2.586	28.577	1296.382	1082.867
3.600	26.696	1284.451	1061.796
4.615	19.938	1207.249	960.527
5.629	9.987	1126.099	844.129
6.644	5.242	1102.620	802.130
7.659	5.003	1099.893	798.853
8.673	5.083	1099.086	798.608
9.688	5.022	1097.717	797.228
10.702	5.251	1096.332	797.323
11.717	10.785	1104.285	831.418
12.731	19.255	1117.050	884.627
13.746	21.580	1118.384	897.539
14.761	19.888	1115.802	886.726
15.775	18.710	1113.579	878.853
16.790	17.671	1111.399	871.744
17.804	16.881	1109.933	866.480
18.819	16.634	1108.765	864.231
19.834	16.352	1107.498	861.727
20.848	16.271	1106.866	860.746
21.863	15.906	1106.208	858.299
22.877	15.790	1105.213	856.861
23.892	15.749	1104.207	855.793
24.907	15.803	1103.693	855.595
25.921	15.763	1102.656	854.514
26.936	15.813	1101.009	853.415
27.950	15.857	1099.797	852.624
28.965	15.999	1098.076	851.934
29.980	16.194	1096.273	851.441
30.994	16.058	1095.457	850.046
32.009	15.967	1095.207	849.318
33.023	16.020	1093.626	848.286
34.038	15.947	1092.179	846.721
35.053	15.922	1091.700	846.148
36.067	15.918	1090.632	845.225
37.082	15.916	1089.549	844.299
38.096	16.023	1088.821	844.197
39.111	15.942	1088.271	843.294
40.126	15.843	1087.126	841.837
41.140	15.805	1085.139	840.030
42.155	15.617	1084.187	838.284
43.169	15.702	1082.786	837.550
44.184	15.572	1082.391	836.522
45.199	15.591	1081.084	835.530
46.213	15.730	1080.183	835.451
47.228	15.771	1079.280	834.886
48.242	15.835	1078.145	834.251
49.257	15.869	1077.072	833.511
50.271	15.932	1076.292	833.149
51.286	16.012	1075.148	832.583
52.301	15.947	1074.310	831.541
53.315	15.812	1073.561	830.219
54.330	15.765	1072.253	828.905
55.344	15.794	1071.292	828.231
56.359	15.728	1070.380	827.130
57.374	15.671	1069.837	826.356
58.388	15.705	1068.433	825.367
59.403	15.617	1067.996	824.522
60.417	15.609	1067.232	823.821
61.432	15.537	1066.460	822.799
62.447	15.615	1065.376	822.272
63.461	15.495	1064.908	821.250
64.476	15.544	1063.681	820.473
65.490	15.579	1062.727	819.836
66.505	15.583	1062.598	819.681
67.520	15.616	1061.400	818.847
68.534	15.701	1060.438	818.444
69.549	15.627	1059.561	817.336
70.563	15.504	1058.647	815.959
71.578	15.453	1058.238	815.326
72.593	15.420	1057.369	814.424
73.607	15.495	1056.788	814.266
74.622	15.433	1056.119	813.378
75.636	15.554	1055.520	813.430
76.651	15.534	1054.460	812.446
77.666	15.468	1054.294	811.925
78.680	15.439	1053.573	811.162
79.695	15.578	1052.400	810.858
80.709	15.546	1052.436	810.658
81.724	15.650	1051.566	810.419
82.739	15.750	1050.846	810.271
83.753	15.880	1049.984	810.161
84.768	16.024	1049.354	810.294
85.782	16.066	1048.511	809.777
86.797	16.089	1047.346	808.917
87.812	15.856	1046.520	807.086
88.826	15.818	1045.484	806.034
89.841	16.010	1044.432	806.070
90.855	16.057	1043.506	805.511
91.870	16.094	1042.515	804.852
92.884	16.100	1042.110	804.497
93.899	16.110	1040.906	803.541
94.914	16.152	1040.155	803.092
95.928	16.235	1039.236	802.705
96.943	16.055	1038.342	801.091
97.957	15.933	1037.995	800.172
98.972	16.099	1036.391	799.652
99.987	16.050	1035.872	798.946
101.001	16.071	1034.478	797.900
102.016	16.000	1034.051	797.167
103.030	16.106	1033.177	796.924
104.045	16.113	1032.558	796.407
105.060	15.855	1031.677	794.439
106.074	15.838	1030.295	793.225
107.089	15.705	1028.987	791.523
108.103	15.658	1028.451	790.817
109.118	15.533	1027.648	789.545
110.133	15.604	1026.963	789.280
111.147	15.540	1025.587	787.851
112.162	15.705	1024.724	787.891
113.176	15.740	1024.296	787.661
114.191	15.739	1023.255	786.783
115.206	15.709	1022.493	785.986
116.220	15.711	1021.636	785.268
117.235	15.616	1021.095	784.338
118.249	15.776	1019.558	783.834
119.264	15.662	1019.231	782.984
120.279	15.602	1018.314	781.932
121.293	15.671	1017.408	781.486
122.308	15.461	1016.935	780.080
123.322	15.549	1015.324	779.184
124.337	15.527	1014.642	778.486
125.352	15.562	1013.652	777.823
126.366	15.625	1012.280	776.992
127.381	15.541	1011.352	775.822
128.395	15.653	1010.255	775.429
129.410	15.628	1009.582	774.727
130.424	15.682	1008.942	774.415
131.439	15.746	1007.763	773.739
132.454	15.872	1007.009	773.670
133.468	15.864	1006.443	773.133
134.483	15.900	1005.144	772.231
135.497	15.890	1004.602	771.699
136.512	15.816	1003.645	770.555
137.527	15.888	1002.640	770.047
138.541	15.841	1001.927	769.216
139.556	15.973	1001.017	769.051
140.570	16.003	1000.796	768.951
141.585	16.248	999.614	769.090
142.600	16.194	998.870	768.205
143.614	16.197	998.010	767.490
144.629	16.198	997.476	767.015
145.643	16.174	996.559	766.132
146.658	16.008	995.551	764.536
147.673	16.025	994.057	763.401
148.687	15.983	993.256	762.527
149.702	15.825	992.247	760.968
150.716	15.804	991.817	760.479
151.731	15.826	990.678	759.637
152.746	15.896	989.848	759.248
153.760	15.975	989.239	759.072
154.775	16.060	989.195	759.354
155.789	15.991	988.196	758.209
156.804	16.041	987.837	758.089
157.819	16.034	986.819	757.210
158.833	16.096	986.221	756.964
159.848	16.162	985.172	756.388
160.862	16.144	984.321	755.584
161.877	16.039	982.908	753.966
162.892	15.932	981.965	752.696
163.906	15.993	980.995	752.157
164.921	15.980	980.083	751.333
165.935	16.040	979.253	750.900
166.950	16.104	978.034	750.183
167.964	16.050	977.400	749.391
168.979	16.012	976.514	748.474
169.994	15.968	975.808	747.673
171.008	16.130	974.890	747.624
172.023	16.239	974.524	747.760
173.037	16.341	973.473	747.338
174.052	16.140	972.896	745.939
175.067	16.076	971.917	744.837
176.081	15.928	971.775	744.012
177.096	15.936	971.250	743.577
178.110	16.094	970.062	743.300
179.125	16.157	969.528	743.101
180.140	16.111	969.561	742.858
181.154	16.129	968.955	742.407
182.169	16.233	968.238	742.251
183.183	16.388	967.501	742.301
184.198	16.250	967.155	741.364
185.213	16.288	966.331	740.833
186.227	16.348	965.535	740.422
187.242	16.427	964.844	740.173
188.256	16.419	964.427	739.751
189.271	16.500	963.320	739.192
190.286	16.275	962.182	737.269
191.300	16.098	961.537	735.937
192.315	15.950	961.053	734.855
193.329	15.945	960.559	734.391
194.344	16.109	959.984	734.604
195.359	16.162	959.577	734.454
196.373	16.304	958.266	734.004
197.388	16.491	958.184	734.689
198.402	16.434	958.240	734.422
199.417	16.549	957.293	734.128
200.432	16.617	956.806	733.985
201.446	16.785	955.899	733.951
202.461	16.723	955.825	733.563
203.475	16.761	954.923	732.969
204.490	16.607	954.031	731.555
205.504	16.596	953.294	730.876
206.519	16.393	952.770	729.534
207.534	16.550	951.612	729.260
208.548	16.528	950.970	728.607
209.563	16.541	950.474	728.220
210.577	16.559	949.612	727.570
211.592	16.663	949.045	727.522
212.607	16.859	947.857	727.388
213.621	16.715	947.641	726.541
214.636	16.719	946.777	725.829
215.650	16.822	945.642	725.336
216.665	16.722	945.405	724.663
217.680	16.861	944.742	724.684
218.694	16.898	943.832	724.082
219.709	16.812	943.125	723.107
220.723	16.761	942.467	722.320
221.738	16.878	941.980	722.384
222.753	16.897	941.192	721.793
223.767	16.855	940.610	721.105
224.782	17.066	940.049	721.510
225.796	17.086	939.433	721.055
226.811	16.914	939.163	720.056
227.826	16.831	938.192	718.895
228.840	16.842	937.429	718.295
229.855	16.878	936.571	717.725
230.869	16.939	935.585	717.166
231.884	16.905	935.003	716.510
232.899	16.892	934.220	715.791
233.913	16.647	933.610	714.228
234.928	16.722	933.196	714.163
235.942	16.738	932.046	713.290
236.957	16.741	931.744	713.008
237.972	16.908	930.709	712.855
238.986	16.836	930.300	712.177
240.001	16.829	929.902	711.777
241.015	16.868	929.123	711.282
242.030	16.915	928.632	711.039
243.045	16.928	927.695	710.315
244.059	16.872	927.595	709.940
245.074	16.891	927.076	709.560
246.088	17.149	925.813	709.610
247.103	17.161	925.529	709.380
248.117	17.208	925.125	709.202
249.132	17.483	924.636	709.910
250.147	17.440	924.144	709.293
251.161	17.505	923.380	708.912
252.176	17.534	923.032	708.703
253.190	17.527	921.549	707.474
254.205	17.518	921.229	707.128
255.220	17.589	920.668	706.932
256.234	17.530	919.916	706.044
257.249	17.544	919.258	705.537
258.263	17.509	918.308	704.599
259.278	17.667	917.660	704.692
260.293	17.644	917.364	704.310
261.307	17.724	916.819	704.160
262.322	17.698	915.978	703.344
263.336	17.698	915.370	702.815
264.351	17.846	914.220	702.476
265.366	17.761	913.998	701.895
266.380	17.801	913.187	701.375
267.395	17.630	912.545	700.117
268.409	17.655	911.781	699.571
269.424	17.661	910.610	698.634
270.439	17.615	910.276	698.130
271.453	17.624	909.334	697.380
272.468	17.642	908.966	697.111
273.482	17.549	908.124	696.026
274.497	17.634	907.663	695.957
275.512	17.662	907.051	695.538
276.526	17.807	906.546	695.681
277.541	17.744	906.011	694.954
278.555	17.794	905.856	694.979
279.570	17.861	904.919	694.468
280.585	17.819	904.085	693.598
281.599	17.824	903.063	692.773
282.614	17.765	902.679	692.178
283.628	17.823	902.160	691.951
284.643	17.835	901.142	691.158
285.657	17.761	900.977	690.673
286.672	17.859	900.192	690.405
287.687	17.784	899.431	689.456
288.701	17.832	899.063	689.308
289.716	17.910	898.440	689.085
290.730	17.938	897.682	688.553
291.745	18.006	896.793	688.084
292.760	17.952	896.538	687.613
293.774	18.156	895.972	687.937
294.789	17.990	895.453	686.812
295.803	17.908	894.490	685.684
296.818	17.920	893.618	685.000
297.833	18.026	892.688	684.654
298.847	17.904	892.165	683.702
299.862	18.016	891.979	683.947
300.876	17.907	891.690	683.231
301.891	18.021	890.928	683.041
302.906	18.218	890.154	683.175
303.920	18.191	889.833	682.759
304.935	18.361	888.945	682.696
305.949	18.226	888.478	681.738
306.964	18.126	887.976	680.895
307.979	18.164	887.155	680.355
308.993	18.331	886.521	680.475
310.008	18.217	886.259	679.759
311.022	18.281	885.816	679.612
312.037	18.333	884.795	678.975
313.052	18.131	884.455	677.853
314.066	18.056	883.610	676.850
315.081	18.103	883.230	676.686
316.095	18.030	882.624	675.871
317.110	18.066	882.073	675.532
318.125	18.090	881.148	674.861
319.139	18.228	880.695	674.995
320.154	18.047	880.546	674.111
321.168	18.107	880.089	673.938
322.183	18.233	879.103	673.619
323.197	18.192	878.632	673.035
324.212	18.174	878.374	672.706
325.227	18.196	877.605	672.146
326.241	18.246	877.041	671.850
327.256	18.268	876.185	671.221
328.270	18.380	875.444	671.034
329.285	18.282	875.075	670.308
330.300	18.313	874.526	669.951
331.314	18.379	873.596	669.434
332.329	18.344	873.423	669.106
333.343	18.426	873.157	669.163
334.358	18.415	872.680	668.696
335.373	18.383	872.036	668.018
336.387	18.389	872.194	668.105
337.402	18.318	872.091	667.689
338.416	18.672	871.227	668.349
339.431	18.657	871.165	668.182
340.446	18.565	870.732	667.435
341.460	18.658	870.203	667.330
342.475	18.815	869.501	667.342
343.489	18.917	868.844	667.174
344.504	18.896	868.508	666.775
345.519	18.982	868.210	666.824
346.533	18.777	867.794	665.648
347.548	18.536	867.299	664.276
348.562	18.652	866.511	664.062
349.577	18.600	866.033	663.438
350.592	18.588	864.892	662.459
351.606	18.560	864.370	661.893
352.621	18.384	863.949	660.833
353.635	18.705	862.817	661.145
354.650	18.795	862.342	661.067
355.665	18.719	861.927	660.400
356.679	18.828	861.190	660.195
357.694	18.869	860.543	659.798
358.708	18.814	860.040	659.142
359.723	18.887	859.032	658.592
360.738	18.887	858.647	658.238
361.752	18.894	858.072	657.767
362.767	18.983	857.452	657.573
363.781	18.989	857.233	657.371
364.796	19.067	856.873	657.332
365.810	19.088	856.572	657.124
366.825	19.150	856.198	657.015
367.840	19.377	855.362	657.184
368.854	19.187	854.747	655.928
369.869	19.026	854.835	655.324
370.883	19.141	854.068	655.114
371.898	19.411	853.675	655.784
372.913	19.234	853.583	654.983
373.927	19.225	852.734	654.236
374.942	19.202	852.232	653.707
375.956	19.245	852.062	653.682
376.971	19.175	851.608	653.010
377.986	19.463	851.027	653.596
379.000	19.458	850.321	652.980
380.015	19.522	849.581	652.594
381.029	19.570	848.945	652.230
382.044	19.504	848.634	651.684
383.059	19.471	848.115	651.105
384.073	19.478	847.337	650.476
385.088	19.305	846.975	649.487
386.102	19.268	846.204	648.700
387.117	19.465	845.257	648.658
388.132	19.302	844.818	647.650
389.146	19.382	844.291	647.489
390.161	19.459	843.938	647.451
391.175	19.471	843.497	647.099
392.190	19.447	843.093	646.641
393.205	19.373	842.274	645.679
394.219	19.455	841.881	645.629
395.234	19.339	841.656	644.965
396.248	19.313	841.083	644.374
397.263	19.201	840.877	643.738
398.278	19.225	840.205	643.256
399.292	19.378	839.499	643.229
400.307	19.232	839.403	642.556
401.321	19.370	838.680	642.458
402.336	19.339	838.406	642.078
403.350	19.365	838.341	642.066
404.365	19.463	837.861	642.006
405.380	19.701	837.054	642.216
406.394	19.567	836.569	641.290
407.409	19.675	836.400	641.504
408.423	19.723	835.859	641.211
409.438	19.836	835.573	641.354
410.453	19.863	835.253	641.150
411.467	19.924	834.340	640.619
412.482	19.882	834.098	640.223
413.496	19.911	833.667	639.942
414.511	20.102	833.045	640.114
415.526	19.956	832.888	639.395
416.540	20.023	832.165	639.032
417.555	19.951	831.612	638.286
418.569	19.955	831.281	637.990
419.584	20.068	830.447	637.708
420.599	19.937	830.197	636.977
421.613	150.062	1365.794	1763.482
422.628	130.968	1443.845	1763.633
