DTS Sentinel unit serial number:	SN413079Multiplexer serial number:	ORYXHardware model number:	OX4-SRSoftware version number:	ORYX F/W v4.00 Oryx Data Collector v3.7.2.0data status	okinstallation	princeton_trtdifferential loss correction	single-endedforward channel	channel 1reverse channel	N/Adate	2019/09/12time	18:40:34forward acquisition time	15.00reverse acquisition time	0.00gamma	496.2192k internal	0.2318k external	0.2318temperature offset calibration	1.0109default loss term (dB/km)	0.3790temperature slope calibration	1.0000multiplexer offset coefficient	1.0000multiplexer slope coefficient	1.0000fibre end	0.00T internal ref (°C)	33.06T ext. ref 1 (°C)	2.96T ext. ref 2 (°C)	27.61length (m)	temperature (°C)	Stokes	anti-Stokes-747.200	155.561	0.096	-0.134
-746.185	-29.817	0.401	0.232
-745.171	-200.000	-0.066	-1.019
-744.156	-0.703	0.209	0.150
-743.142	800.000	0.133	-0.419
-742.127	78.330	0.879	0.950
-741.112	-74.701	-0.204	0.074
-740.098	-200.000	0.057	0.436
-739.083	-35.721	-0.498	-0.273
-738.069	-200.000	-0.207	-0.000
-737.054	-68.451	1.094	-0.429
-736.039	-100.474	-0.406	0.102
-735.025	73.071	-0.407	-0.431
-734.010	-20.295	0.979	-0.610
-732.996	49.114	0.348	0.331
-731.981	800.000	-0.148	-0.517
-730.966	800.000	0.127	0.454
-729.952	-122.952	-0.148	-0.024
-728.937	-63.699	0.249	0.103
-727.923	542.423	0.320	-0.771
-726.908	800.000	-0.173	-0.600
-725.894	126.424	0.256	-0.328
-724.879	-106.626	0.546	0.123
-723.864	139.426	-0.502	-0.669
-722.850	-29.913	-0.817	0.471
-721.835	92.777	0.628	0.717
-720.821	800.000	0.159	0.535
-719.806	-36.090	0.430	0.235
-718.791	800.000	0.182	0.590
-717.777	800.000	-0.129	0.384
-716.762	73.412	0.445	0.471
-715.748	-200.000	0.005	-0.572
-714.733	800.000	0.052	0.213
-713.718	634.736	-0.480	-1.232
-712.704	-125.513	0.569	0.087
-711.689	-47.578	0.397	-0.195
-710.675	-133.823	0.757	-0.095
-709.660	800.000	0.233	-0.922
-708.645	-95.885	0.697	-0.188
-707.631	-99.371	0.739	0.188
-706.616	800.000	0.153	0.498
-705.602	-49.120	-0.166	0.080
-704.587	143.749	-0.116	0.156
-703.572	526.254	-0.147	0.349
-702.558	13.968	-0.598	-0.470
-701.543	-105.955	0.437	-0.099
-700.529	800.000	0.274	1.179
-699.514	-150.171	-0.169	0.013
-698.499	-200.000	-0.061	0.274
-697.485	-25.481	1.106	0.660
-696.470	-200.000	-0.055	1.102
-695.456	-55.740	0.114	-0.051
-694.441	-200.000	0.054	0.585
-693.426	-16.877	-0.745	-0.476
-692.412	37.898	-0.445	0.400
-691.397	729.626	-0.239	-0.645
-690.383	-32.110	0.556	-0.314
-689.368	99.681	-0.123	0.143
-688.354	20.424	-0.170	-0.138
-687.339	214.342	-0.111	-0.178
-686.324	800.000	-0.242	1.069
-685.310	-58.364	-0.354	-0.155
-684.295	240.602	-0.371	-0.626
-683.281	106.458	-0.336	0.402
-682.266	51.346	-0.652	0.625
-681.251	12.723	-0.744	0.580
-680.237	310.042	-0.058	-0.110
-679.222	-102.491	0.322	-0.078
-678.208	262.971	0.186	-0.326
-677.193	125.359	-0.221	0.281
-676.178	-112.222	-0.403	-0.082
-675.164	-200.000	-0.043	-0.306
-674.149	-145.251	1.051	0.096
-673.135	800.000	0.272	-0.849
-672.120	351.261	-0.165	-0.331
-671.105	22.337	0.179	-0.148
-670.091	-135.306	-0.813	-0.098
-669.076	-104.709	0.381	-0.089
-668.062	287.782	0.186	0.339
-667.047	-200.000	0.045	0.347
-666.032	-27.384	-0.590	-0.347
-665.018	-200.000	0.142	0.670
-664.003	-97.768	0.871	-0.227
-662.989	-30.668	0.183	-0.105
-661.974	-81.695	0.223	-0.074
-660.959	800.000	0.159	-0.615
-659.945	74.477	-0.179	-0.190
-658.930	-200.000	-0.049	0.289
-657.916	209.272	-0.277	-0.438
-656.901	800.000	-0.070	-0.259
-655.886	-200.000	0.071	-0.541
-654.872	292.063	-0.062	0.114
-653.857	247.876	-0.388	-0.661
-652.843	-122.982	0.743	-0.121
-651.828	-132.134	0.413	0.054
-650.814	-167.711	-0.885	-0.035
-649.799	800.000	-0.081	-0.298
-648.784	-200.000	0.001	0.150
-647.770	104.277	0.120	-0.142
-646.755	-200.000	0.002	-0.573
-645.741	800.000	0.017	-0.065
-644.726	77.981	0.474	-0.509
-643.711	-142.751	-0.510	0.050
-642.697	-28.919	-0.041	0.024
-641.682	-200.000	-0.053	-0.503
-640.668	-142.880	-0.564	-0.055
-639.653	-103.147	-0.460	-0.110
-638.638	-96.816	0.030	0.008
-637.624	88.491	-0.142	0.159
-636.609	-21.085	-0.551	-0.340
-635.595	155.029	-0.117	0.162
-634.580	-81.732	0.538	-0.178
-633.565	348.644	-0.290	-0.576
-632.551	800.000	0.099	-0.343
-631.536	-158.610	-0.386	0.022
-630.522	203.763	0.236	0.367
-629.507	-200.000	-0.036	-0.359
-628.492	-82.606	-0.976	-0.319
-627.478	-131.447	-0.679	-0.090
-626.463	-49.193	-0.559	-0.269
-625.449	-200.000	0.049	-0.309
-624.434	9.864	0.355	-0.271
-623.419	-51.893	-0.460	-0.216
-622.405	81.718	-0.220	0.240
-621.390	157.507	0.567	0.791
-620.376	347.184	-0.283	-0.562
-619.361	-200.000	0.036	-0.301
-618.346	14.755	-0.427	0.336
-617.332	-66.535	-0.496	0.198
-616.317	-2.919	-0.635	0.447
-615.303	81.076	-0.297	0.323
-614.288	-200.000	0.091	0.615
-613.273	83.407	0.528	-0.579
-612.259	435.987	-0.498	-1.090
-611.244	70.857	0.296	0.309
-610.230	71.792	-0.502	-0.525
-609.215	715.967	0.207	0.553
-608.201	56.972	0.444	-0.436
-607.186	-119.072	0.483	0.085
-606.171	-47.734	-0.156	-0.076
-605.157	244.819	0.116	0.196
-604.142	800.000	0.069	0.207
-603.128	-46.950	0.217	0.107
-602.113	800.000	-0.278	-0.826
-601.098	-2.112	-0.178	-0.126
-600.084	800.000	-0.211	0.682
-599.069	-200.000	0.088	0.426
-598.055	-157.604	0.977	-0.059
-597.040	-51.612	0.231	0.108
-596.025	-63.758	0.355	-0.146
-595.011	800.000	-0.310	-1.111
-593.996	-16.220	0.326	0.209
-592.982	-99.063	-0.605	0.154
-591.967	-78.922	0.835	-0.286
-590.952	79.787	-0.534	-0.577
-589.938	26.169	-0.635	-0.533
-588.923	217.478	0.348	0.558
-587.909	155.153	-0.131	-0.181
-586.894	800.000	0.076	0.329
-585.879	800.000	-0.252	-0.959
-584.865	-200.000	-0.190	-0.862
-583.850	-89.627	0.502	0.148
-582.836	0.718	0.142	0.102
-581.821	33.282	0.120	-0.105
-580.806	-93.188	-0.432	0.121
-579.792	115.782	-0.361	0.444
-578.777	54.829	-0.333	0.323
-577.763	532.667	0.121	0.288
-576.748	-128.682	0.638	-0.091
-575.733	243.279	0.514	0.866
-574.719	-0.853	-0.414	0.295
-573.704	-200.000	0.005	-1.097
-572.690	-200.000	0.028	0.381
-571.675	-69.970	0.199	0.076
-570.661	-200.000	-0.010	0.734
-569.646	486.116	0.226	0.518
-568.631	-103.899	0.119	0.028
-567.617	69.876	-0.417	-0.432
-566.602	-44.393	-0.405	0.204
-565.588	54.343	-0.274	-0.265
-564.573	95.984	0.221	-0.254
-563.558	41.713	0.480	0.437
-562.544	-51.877	0.173	0.081
-561.529	-81.813	0.128	0.042
-560.515	34.834	0.308	-0.270
-559.500	51.194	0.688	-0.656
-558.485	-74.519	-0.208	0.075
-557.471	800.000	0.088	-0.280
-556.456	-200.000	-0.022	-0.314
-555.442	-132.658	0.535	-0.069
-554.427	73.148	-0.292	0.306
-553.412	-19.951	0.259	-0.161
-552.398	-148.097	-0.709	-0.059
-551.383	182.129	-0.231	0.342
-550.369	146.272	0.361	0.487
-549.354	-89.051	-0.367	-0.109
-548.339	-195.397	1.155	-0.009
-547.325	800.000	0.137	-0.454
-546.310	-148.804	-0.598	-0.049
-545.296	-124.230	0.140	0.022
-544.281	394.668	-0.277	0.580
-543.266	-1.430	0.432	-0.306
-542.252	-175.510	0.193	0.005
-541.237	361.051	0.436	0.877
-540.223	-199.154	-0.149	0.001
-539.208	611.108	0.429	-1.078
-538.193	43.634	-0.367	-0.337
-537.179	800.000	0.127	0.520
-536.164	800.000	-0.221	-0.679
-535.150	-13.884	0.286	-0.185
-534.135	107.622	-0.227	0.271
-533.121	-62.012	0.367	0.154
-532.106	-200.000	-0.001	0.183
-531.091	-77.710	-0.763	-0.265
-530.077	-200.000	0.007	0.624
-529.062	800.000	-0.069	0.293
-528.048	212.680	0.377	0.597
-527.033	109.163	0.541	0.649
-526.018	800.000	0.053	-0.165
-525.004	-6.196	-0.447	0.306
-523.989	98.192	-0.355	-0.410
-522.975	-20.775	0.267	-0.164
-521.960	293.504	0.274	0.503
-520.945	99.647	-0.434	-0.504
-519.931	157.670	-0.577	0.802
-518.916	586.742	0.237	-0.585
-517.902	-69.125	1.188	-0.459
-516.887	-16.594	0.260	0.165
-515.872	318.420	0.211	-0.401
-514.858	-45.747	0.122	-0.061
-513.843	190.513	0.117	0.176
-512.829	14.302	-0.302	-0.237
-511.814	-117.971	0.465	0.084
-510.799	-159.748	0.391	0.022
-509.785	16.741	-0.624	-0.495
-508.770	-122.248	-0.543	-0.089
-507.756	433.429	-0.117	0.256
-506.741	-141.716	-0.685	0.069
-505.726	-1.690	0.108	-0.076
-504.712	-94.698	-0.585	0.159
-503.697	-200.000	0.026	-0.625
-502.683	747.955	-0.214	0.578
-501.668	-43.890	-0.586	0.296
-500.653	25.505	0.519	-0.433
-499.639	-200.000	0.030	-0.476
-498.624	-45.942	0.026	0.013
-497.610	-55.142	0.202	0.091
-496.595	258.967	-0.190	-0.329
-495.581	-200.000	-0.116	0.744
-494.566	800.000	-0.190	-0.572
-493.551	800.000	-0.221	0.778
-492.537	-160.004	-0.488	0.027
-491.522	20.008	-0.439	0.355
-490.508	-138.996	-0.819	0.089
-489.493	-106.434	0.615	-0.138
-488.478	-51.674	0.462	0.216
-487.464	225.208	-0.430	0.697
-486.449	800.000	-0.251	0.754
-485.435	241.331	0.118	0.198
-484.420	59.756	0.037	0.037
-483.405	-176.321	-0.687	0.018
-482.391	800.000	-0.231	0.799
-481.376	-137.975	0.650	0.073
-480.362	420.617	0.047	-0.102
-479.347	-200.000	-0.072	-0.370
-478.332	121.128	-0.275	-0.343
-477.318	-39.936	-1.004	-0.525
-476.303	-116.053	-0.254	0.047
-475.289	-97.242	-0.167	0.044
-474.274	-52.162	0.457	-0.212
-473.259	475.667	0.134	0.303
-472.245	209.174	0.429	-0.672
-471.230	152.587	0.173	-0.237
-470.216	-200.000	-0.021	-0.476
-469.201	800.000	-0.089	0.367
-468.186	-148.041	-0.293	0.024
-467.172	320.427	-0.316	-0.601
-466.157	-90.755	-0.845	0.244
-465.143	-90.780	-0.174	-0.050
-464.128	-72.326	0.962	-0.357
-463.113	-200.000	-0.003	-0.199
-462.099	130.932	0.227	0.292
-461.084	-14.789	0.526	-0.338
-460.070	100.140	0.789	-0.916
-459.055	-200.000	-0.015	-0.274
-458.040	-77.924	0.842	0.291
-457.026	-65.990	-0.461	0.184
-456.011	-98.005	0.728	0.188
-454.997	800.000	0.106	0.436
-453.982	-200.000	-0.019	-0.930
-452.968	-197.081	-0.577	0.004
-451.953	-73.789	-0.096	-0.035
-450.938	452.311	0.087	0.193
-449.924	-7.117	0.070	0.047
-448.909	-49.434	-0.280	0.133
-447.895	-200.000	0.089	0.797
-446.880	-140.229	0.492	0.052
-445.865	-170.649	0.203	-0.007
-444.851	-200.000	0.086	0.859
-443.836	-128.232	-0.442	0.063
-442.822	-163.018	0.604	0.029
-441.807	-200.000	-0.144	-0.795
-440.792	0.961	-0.116	-0.083
-439.778	-59.837	-0.498	-0.213
-438.763	-200.000	-0.004	-0.504
-437.749	-36.458	-0.302	-0.163
-436.734	590.929	0.191	0.472
-435.719	97.390	-0.824	0.946
-434.705	187.812	0.088	-0.131
-433.690	-17.126	-0.352	-0.222
-432.676	-11.713	0.302	-0.198
-431.661	-27.192	-0.407	-0.237
-430.646	-74.169	-0.946	0.342
-429.632	800.000	0.117	0.442
-428.617	-122.435	0.462	0.075
-427.603	-150.353	0.157	-0.012
-426.588	366.142	0.303	0.610
-425.573	429.788	-0.211	0.456
-424.559	296.006	0.275	-0.503
-423.544	-9.417	0.268	-0.179
-422.530	-14.647	-0.219	-0.140
-421.515	195.289	-0.231	0.351
-420.500	40.500	0.898	0.808
-419.486	465.370	0.464	1.038
-418.471	39.316	-0.484	-0.433
-417.457	-108.234	-0.271	0.059
-416.442	-25.826	0.493	0.290
-415.428	352.719	-0.332	-0.658
-414.413	296.726	0.231	-0.423
-413.398	800.000	0.196	0.544
-412.384	-104.499	-0.491	0.113
-411.369	18.452	-0.114	-0.091
-410.355	600.077	0.101	-0.251
-409.340	-149.143	0.242	-0.019
-408.325	-139.178	0.254	0.027
-407.311	37.337	-0.667	-0.590
-406.296	77.137	-0.450	-0.478
-405.282	-200.000	0.137	0.776
-404.267	800.000	0.157	-0.478
-403.252	144.224	0.204	-0.272
-402.238	-61.829	-0.422	-0.176
-401.223	-167.187	0.360	0.015
-400.209	2.800	-0.513	-0.372
-399.194	-75.069	-0.645	-0.230
-398.179	-78.186	0.275	0.094
-397.165	114.848	-0.292	-0.356
-396.150	-40.947	-0.627	-0.324
-395.136	-25.182	-0.113	0.067
-394.121	257.134	0.205	0.351
-393.106	-170.961	0.267	0.009
-392.092	-152.598	0.750	-0.053
-391.077	800.000	-0.193	-0.819
-390.063	-2.097	0.628	-0.441
-389.048	110.932	0.071	0.085
-388.033	458.161	-0.164	-0.364
-387.019	-171.445	0.195	-0.006
-386.004	290.910	-0.332	-0.602
-384.990	22.804	-0.248	-0.203
-383.975	-31.312	0.167	-0.094
-382.960	45.620	0.189	-0.174
-381.946	307.008	0.360	-0.669
-380.931	-200.000	0.003	0.265
-379.917	-110.186	0.051	0.011
-378.902	-35.252	-0.107	0.058
-377.888	165.812	0.423	0.597
-376.873	75.460	0.191	0.201
-375.858	-98.771	0.954	-0.242
-374.844	90.690	0.525	0.586
-373.829	-61.573	1.202	-0.503
-372.815	109.247	-0.311	0.371
-371.800	-37.995	-0.993	-0.526
-370.785	-129.067	-0.337	0.047
-369.771	-200.000	-0.102	-0.534
-368.756	-91.586	-0.504	0.143
-367.742	-51.631	0.257	0.120
-366.727	-162.969	0.688	0.033
-365.712	93.660	0.328	0.371
-364.698	193.639	0.491	0.740
-363.683	-102.341	0.389	0.093
-362.669	-133.815	-0.588	0.073
-361.654	-95.979	0.791	-0.210
-360.639	275.427	0.300	-0.531
-359.625	45.111	-0.189	-0.174
-358.610	800.000	0.252	-0.696
-357.596	40.691	-0.748	0.672
-356.581	61.299	0.309	-0.306
-355.566	53.043	0.369	-0.352
-354.552	-141.013	0.531	0.054
-353.537	800.000	0.388	1.108
-352.523	-29.906	0.432	-0.245
-351.508	196.486	0.187	-0.284
-350.493	98.513	0.263	0.302
-349.479	84.933	0.023	0.025
-348.464	559.705	0.213	0.513
-347.450	800.000	-0.108	-0.307
-346.435	-31.900	0.264	-0.148
-345.420	-34.724	-0.058	-0.032
-344.406	-200.000	-0.092	0.424
-343.391	164.197	-0.215	-0.302
-342.377	-75.523	0.486	0.172
-341.362	-88.815	0.249	-0.074
-340.348	-16.266	-0.352	-0.223
-339.333	313.423	0.216	0.404
-338.318	395.792	0.272	-0.566
-337.304	-200.000	-0.109	-0.496
-336.289	-105.078	-1.111	0.253
-335.275	35.887	0.573	-0.502
-334.260	-129.344	1.134	-0.157
-333.245	154.709	-0.597	-0.816
-332.231	-160.770	0.217	0.011
-331.216	-200.000	0.043	-0.529
-330.202	-126.389	0.155	-0.023
-329.187	51.397	-0.802	-0.759
-328.172	22.913	0.710	-0.580
-327.158	681.339	-0.195	-0.506
-326.143	800.000	0.185	-0.794
-325.129	-153.945	0.566	0.038
-324.114	-65.600	-0.270	0.108
-323.099	170.493	0.269	-0.383
-322.085	800.000	0.077	-0.269
-321.070	-77.183	0.755	0.262
-320.056	385.002	0.034	-0.070
-319.041	-200.000	-0.039	0.417
-318.026	-73.611	-0.581	-0.211
-317.012	-200.000	0.075	-0.346
-315.997	-200.000	-0.066	-0.521
-314.983	-51.371	0.792	0.369
-313.968	-200.000	0.011	0.795
-312.953	95.639	0.239	0.271
-311.939	800.000	0.257	0.899
-310.924	-167.983	-1.098	-0.043
-309.910	-57.287	0.600	0.262
-308.895	109.284	-0.452	0.538
-307.880	40.380	-0.614	0.550
-306.866	-55.386	0.378	-0.169
-305.851	685.799	0.079	0.204
-304.837	-57.557	-0.062	0.027
-303.822	421.565	0.269	0.574
-302.807	160.598	0.112	-0.156
-301.793	-200.000	-0.041	-0.313
-300.778	-49.730	-0.336	0.159
-299.764	800.000	-0.295	1.111
-298.749	5.260	-0.699	0.512
-297.735	-64.066	-0.610	-0.248
-296.720	-96.196	0.643	0.170
-295.705	-62.502	-0.156	0.065
-294.691	-200.000	0.138	-0.721
-293.676	-77.747	0.913	-0.314
-292.662	800.000	-0.135	0.479
-291.647	18.531	0.501	0.398
-290.632	-135.960	0.493	0.058
-289.618	-116.281	0.156	0.029
-288.603	-161.372	0.771	0.040
-287.589	-200.000	-0.046	0.397
-286.574	155.712	-0.362	-0.496
-285.559	92.459	-0.489	-0.548
-284.545	90.835	-0.253	0.282
-283.530	-200.000	-0.121	0.542
-282.516	-122.026	-0.597	0.098
-281.501	-131.310	-0.525	0.069
-280.486	-200.000	-0.034	0.616
-279.472	-118.241	0.316	0.056
-278.457	-63.025	0.209	-0.086
-277.443	-73.320	-0.504	0.183
-276.428	-66.925	0.248	-0.097
-275.413	800.000	0.063	0.221
-274.399	-23.347	-0.096	-0.058
-273.384	313.075	0.295	0.550
-272.370	258.723	0.279	0.477
-271.355	-49.596	0.102	0.048
-270.340	-200.000	-0.013	-0.091
-269.326	-12.326	-0.999	0.649
-268.311	32.249	0.395	0.338
-267.297	-106.980	-0.393	0.086
-266.282	800.000	-0.190	0.572
-265.267	-19.162	-0.458	-0.283
-264.253	-21.244	0.501	-0.304
-263.238	800.000	0.171	-0.706
-262.224	-196.063	-0.886	0.006
-261.209	-26.553	-0.280	0.163
-260.195	1.836	0.395	0.283
-259.180	800.000	-0.143	-0.553
-258.165	800.000	0.133	-0.417
-257.151	320.237	-0.233	0.439
-256.136	219.098	-0.306	-0.486
-255.122	28.929	-0.344	-0.289
-254.107	-150.950	0.336	-0.025
-253.092	233.958	0.172	0.281
-252.078	-200.000	-0.105	0.987
-251.063	800.000	-0.097	0.381
-250.049	689.735	0.164	-0.426
-249.034	179.775	-0.422	0.614
-248.019	-200.000	-0.165	1.050
-247.005	-79.334	0.304	-0.102
-245.990	637.211	-0.143	0.361
-244.976	-114.646	-0.963	-0.183
-243.961	-124.773	-0.722	0.111
-242.946	-21.223	0.562	0.341
-241.932	-200.000	0.062	0.890
-240.917	-118.443	0.463	0.082
-239.903	-68.769	-0.094	0.036
-238.888	-124.442	0.303	-0.047
-237.873	-40.710	-0.878	-0.451
-236.859	-9.392	-0.021	0.014
-235.844	-25.234	-0.662	-0.389
-234.830	-29.070	0.268	-0.152
-233.815	211.726	0.078	-0.121
-232.800	171.768	-0.222	0.317
-231.786	-123.169	0.648	-0.103
-230.771	-200.000	-0.086	-0.391
-229.757	695.645	-0.099	-0.258
-228.742	-200.000	0.042	-0.471
-227.727	-200.000	-0.036	-0.316
-226.713	-200.000	0.188	-0.948
-225.698	-200.000	0.100	-0.644
-224.684	-200.000	0.112	0.563
-223.669	36.699	-0.320	-0.280
-222.655	364.253	0.391	-0.781
-221.640	-94.002	1.161	-0.316
-220.625	263.017	0.187	-0.321
-219.611	497.043	-0.222	-0.506
-218.596	-182.604	0.570	0.010
-217.582	800.000	-0.061	-0.262
-216.567	-64.487	-0.186	-0.075
-215.552	272.447	-0.149	-0.260
-214.538	12.487	-0.788	0.602
-213.523	-200.000	-0.042	-0.422
-212.509	-200.000	-0.048	-0.472
-211.494	-141.417	0.983	0.099
-210.479	-131.490	-0.486	0.063
-209.465	119.183	0.429	-0.526
-208.450	-6.583	-0.363	-0.245
-207.436	-0.298	-0.236	0.166
-206.421	-170.175	0.836	-0.029
-205.406	-156.420	-0.543	-0.034
-204.392	-61.322	-0.508	-0.212
-203.377	-59.838	0.342	0.145
-202.363	800.000	-0.150	-0.642
-201.348	-32.283	-0.685	0.379
-200.333	-200.000	0.020	0.569
-199.319	-154.508	0.578	-0.038
-198.304	-200.000	0.009	-0.585
-197.290	582.924	0.373	0.907
-196.275	295.569	0.117	0.212
-195.260	800.000	0.081	-0.232
-194.246	800.000	0.273	0.998
-193.231	328.336	-0.129	0.246
-192.217	-41.022	-1.043	0.534
-191.202	68.934	0.095	0.096
-190.187	62.780	0.340	0.337
-189.173	-200.000	0.106	0.473
-188.158	-200.000	-0.109	0.727
-187.144	800.000	0.259	0.829
-186.129	-200.000	-0.197	1.010
-185.114	124.008	-0.336	-0.417
-184.100	-164.828	0.791	0.035
-183.085	28.060	-0.069	-0.058
-182.071	87.975	0.447	0.491
-181.056	223.788	-0.234	0.374
-180.042	123.456	-0.415	0.514
-179.027	753.783	-0.244	0.653
-178.012	800.000	-0.023	-0.073
-176.998	309.775	-0.248	-0.460
-175.983	-89.343	-0.542	0.158
-174.969	108.944	-0.342	-0.405
-173.954	179.300	0.256	-0.371
-172.939	42.333	1.086	-0.977
-171.925	75.653	0.353	-0.369
-170.910	-10.308	0.641	0.421
-169.896	361.950	0.082	-0.163
-168.881	-40.725	-0.214	-0.109
-167.866	-89.174	-0.893	0.261
-166.852	-49.883	-0.372	-0.175
-165.837	97.714	-0.162	0.184
-164.823	-21.439	-0.749	0.452
-163.808	405.058	0.095	0.198
-162.793	-200.000	-0.050	0.389
-161.779	-124.939	0.359	0.055
-160.764	-70.715	-0.435	0.163
-159.750	-90.901	0.481	0.137
-158.735	-60.393	-0.502	0.211
-157.720	-200.000	0.012	0.166
-156.706	800.000	-0.150	0.539
-155.691	800.000	-0.210	0.639
-154.677	-0.471	0.181	0.127
-153.662	800.000	-0.164	-0.489
-152.647	-24.426	0.437	-0.258
-151.633	-76.994	0.413	-0.142
-150.618	-50.209	0.642	0.300
-149.604	-30.308	0.394	0.221
-148.589	-102.303	-0.502	-0.119
-147.574	-13.508	0.447	0.287
-146.560	-200.000	-0.005	-0.053
-145.545	-99.721	0.823	0.204
-144.531	-99.497	-0.523	-0.130
-143.516	-200.000	-0.010	0.881
-142.502	-94.752	0.744	0.200
-141.487	800.000	-0.113	0.396
-140.472	6.052	-0.141	0.104
-139.458	1.513	-0.098	-0.069
-138.443	322.211	-0.144	0.272
-137.429	800.000	-0.307	-0.937
-136.414	298.079	-0.402	0.730
-135.399	-200.000	0.008	-0.331
-134.385	-200.000	0.008	0.104
-133.370	170.314	0.707	-0.999
-132.356	19.135	-0.314	0.249
-131.341	215.602	0.212	0.332
-130.326	-116.583	-0.614	-0.112
-129.312	74.106	-0.572	-0.593
-128.297	-200.000	0.075	0.471
-127.283	-22.847	0.150	-0.089
-126.268	2.362	0.263	0.188
-125.253	490.772	-0.171	0.387
-124.239	800.000	0.080	0.281
-123.224	-176.526	-0.383	0.010
-122.210	-83.491	0.416	0.132
-121.195	-13.014	-0.268	0.172
-120.180	-62.158	0.522	-0.215
-119.166	-200.000	-0.019	0.390
-118.151	800.000	0.210	0.749
-117.137	322.203	0.322	-0.605
-116.122	104.415	-0.069	0.080
-115.107	800.000	-0.035	-0.112
-114.093	15.575	0.614	-0.476
-113.078	800.000	0.140	-0.563
-112.064	-98.491	-0.454	-0.114
-111.049	800.000	-0.149	0.625
-110.034	-200.000	0.019	-0.168
-109.020	-200.000	-0.001	-0.570
-108.005	-16.148	0.249	0.156
-106.991	-200.000	-0.033	0.704
-105.976	-62.174	0.996	0.410
-104.962	-87.953	-0.451	0.134
-103.947	20.019	0.390	-0.311
-102.932	-9.355	0.433	-0.285
-101.918	-200.000	-0.021	0.524
-100.903	-26.762	-0.618	0.357
-99.889	78.429	0.861	-0.908
-98.874	12.756	-0.492	0.375
-97.859	-60.496	0.444	0.186
-96.845	68.217	-0.561	0.567
-95.830	-127.554	-0.770	-0.110
-94.816	-61.271	0.328	0.136
-93.801	-47.603	0.636	0.304
-92.786	-200.000	0.020	0.315
-91.772	297.986	-0.049	0.089
-90.757	-29.901	-0.938	0.527
-89.743	-145.834	0.706	0.062
-88.728	3.674	0.325	-0.234
-87.713	-200.000	-0.014	0.340
-86.699	79.270	-0.599	-0.633
-85.684	-94.849	-0.729	-0.195
-84.670	800.000	0.280	-0.801
-83.655	-94.607	0.779	0.209
-82.640	59.740	-0.222	-0.216
-81.626	-151.073	-0.476	0.035
-80.611	-15.702	-0.267	0.168
-79.597	-7.500	0.488	-0.326
-78.582	-160.785	0.466	0.024
-77.567	31.142	0.190	0.161
-76.553	162.264	0.205	-0.283
-75.538	-123.368	0.557	-0.088
-74.524	642.406	-0.375	0.942
-73.509	63.821	0.360	0.356
-72.494	-57.983	0.583	0.251
-71.480	800.000	-0.093	0.370
-70.465	-85.779	-0.411	0.126
-69.451	116.121	-0.288	0.347
-68.436	-200.000	0.026	0.312
-67.422	-123.831	0.607	-0.094
-66.407	99.494	0.197	-0.225
-65.392	-160.418	1.064	0.056
-64.378	58.945	0.483	0.468
-63.363	17.547	0.855	0.670
-62.349	-190.312	1.148	-0.012
-61.334	-77.368	-0.891	-0.305
-60.319	131.973	0.573	0.727
-59.305	-200.000	-0.075	-1.696
-58.290	163.040	0.807	1.116
-57.276	-200.000	0.304	1.629
-56.261	-200.000	96.211	574.005
-55.246	640.532	1367.234	3428.247
-54.232	201.258	2531.465	3838.728
-53.217	117.393	2126.634	2575.985
-52.203	44.371	1595.985	1443.306
-51.188	36.539	1335.613	1160.992
-50.173	33.417	1294.467	1106.967
-49.159	56.636	1345.546	1289.495
-48.144	57.558	1361.874	1310.575
-47.130	36.562	1319.023	1146.526
-46.115	33.263	1301.612	1111.996
-45.100	32.868	1298.426	1106.918
-44.086	32.850	1295.393	1104.181
-43.071	32.522	1292.937	1100.125
-42.057	33.141	1289.837	1101.054
-41.042	32.918	1288.976	1098.974
-40.027	32.752	1287.037	1096.312
-39.013	32.946	1285.987	1096.505
-37.998	33.026	1283.918	1095.159
-36.984	33.169	1280.790	1093.272
-35.969	32.742	1280.353	1090.390
-34.954	33.066	1278.433	1090.582
-33.940	32.989	1277.038	1088.904
-32.925	33.297	1274.556	1088.518
-31.911	32.998	1275.053	1087.176
-30.896	33.198	1272.503	1086.108
-29.881	33.418	1270.175	1085.339
-28.867	33.287	1269.121	1083.648
-27.852	33.246	1267.903	1082.327
-26.838	33.259	1266.944	1081.540
-25.823	33.428	1264.928	1080.739
-24.809	33.154	1264.371	1078.657
-23.794	32.995	1263.060	1076.589
-22.779	33.383	1261.019	1077.018
-21.765	33.107	1261.236	1075.590
-20.750	33.113	1258.778	1073.486
-19.736	32.876	1259.068	1072.345
-18.721	32.826	1257.260	1070.478
-17.706	32.862	1256.294	1069.813
-16.692	33.285	1254.438	1070.589
-15.677	32.923	1254.361	1068.433
-14.663	33.071	1253.006	1068.072
-13.648	33.124	1251.097	1066.699
-12.633	32.823	1250.749	1064.661
-11.619	33.124	1250.263	1065.901
-10.604	32.793	1249.834	1063.629
-9.590	33.028	1247.428	1062.862
-8.575	33.087	1246.305	1062.194
-7.560	32.948	1246.802	1061.797
-6.546	32.957	1244.877	1060.165
-5.531	32.799	1245.092	1059.415
-4.517	33.100	1243.784	1059.949
-3.502	33.017	1242.747	1058.561
-2.487	32.689	1243.137	1057.008
-1.473	32.713	1238.562	1053.216
-0.458	31.500	1222.078	1032.463
0.556	28.943	1204.630	994.415
1.571	24.824	1211.685	977.698
2.586	23.945	1225.628	984.000
3.600	23.243	1214.101	970.814
4.615	17.259	1142.710	882.665
5.629	7.450	1067.842	776.940
6.644	3.494	1047.073	742.737
7.659	3.103	1044.236	738.783
8.673	2.649	1042.687	735.445
9.688	2.598	1041.184	734.075
10.702	3.275	1040.156	736.523
11.717	9.378	1048.862	771.986
12.731	19.284	1062.120	829.591
13.746	24.014	1068.445	857.306
14.761	25.016	1068.988	862.488
15.775	24.950	1067.950	861.261
16.790	24.841	1066.673	859.629
17.804	24.851	1065.882	858.965
18.819	24.689	1066.797	858.844
19.834	24.997	1066.817	860.266
20.848	24.625	1066.383	858.052
21.863	25.118	1065.054	859.272
22.877	24.694	1065.719	857.697
23.892	24.595	1064.334	856.033
24.907	24.752	1063.823	856.301
25.921	24.545	1061.993	853.761
26.936	24.405	1060.893	852.134
27.950	24.347	1060.083	851.128
28.965	24.411	1058.566	850.142
29.980	24.762	1056.663	850.208
30.994	24.645	1055.469	848.617
32.009	24.836	1053.737	848.054
33.023	24.802	1052.907	847.149
34.038	24.970	1052.545	847.577
35.053	24.812	1051.279	845.738
36.067	24.747	1051.175	845.269
37.082	24.455	1051.602	844.160
38.096	24.734	1050.773	844.735
39.111	24.915	1048.882	843.994
40.126	24.859	1047.973	842.924
41.140	24.552	1046.373	840.122
42.155	24.630	1045.427	839.651
43.169	24.507	1043.743	837.648
44.184	24.479	1043.078	836.909
45.199	24.317	1042.795	835.849
46.213	24.387	1041.917	835.398
47.228	24.843	1040.710	836.490
48.242	24.713	1040.563	835.691
49.257	24.834	1039.694	835.484
50.271	25.051	1038.273	835.281
51.286	24.576	1038.332	833.039
52.301	24.841	1037.302	833.371
53.315	24.742	1035.855	831.676
54.330	24.734	1036.236	831.873
55.344	25.055	1034.868	832.190
56.359	24.470	1035.515	829.916
57.374	24.409	1033.773	828.167
58.388	24.554	1033.260	828.355
59.403	24.514	1031.107	826.370
60.417	24.671	1031.065	826.987
61.432	24.482	1030.132	825.291
62.447	24.645	1030.605	826.353
63.461	24.706	1029.205	825.439
64.476	24.525	1027.626	823.267
65.490	24.485	1027.091	822.580
66.505	24.575	1025.996	822.044
67.520	24.671	1025.379	821.916
68.534	24.311	1025.189	820.039
69.549	24.159	1023.815	818.169
70.563	24.366	1022.231	817.778
71.578	23.947	1022.823	816.260
72.593	23.930	1021.475	815.031
73.607	24.365	1021.082	816.639
74.622	24.370	1019.998	815.722
75.636	24.347	1020.018	815.559
76.651	24.280	1019.550	814.808
77.666	24.139	1018.691	813.404
78.680	24.502	1017.229	813.821
79.695	24.631	1016.223	813.531
80.709	24.273	1016.369	811.945
81.724	24.660	1015.160	812.668
82.739	24.612	1014.091	811.521
83.753	24.833	1014.678	812.927
84.768	25.200	1013.749	813.774
85.782	25.100	1012.298	812.082
86.797	25.095	1012.227	811.935
87.812	25.263	1010.360	811.124
88.826	25.076	1010.164	810.049
89.841	25.073	1009.502	809.432
90.855	24.975	1008.485	808.105
91.870	25.106	1007.921	808.171
92.884	24.888	1007.059	806.426
93.899	24.829	1006.269	805.454
94.914	25.232	1004.829	806.044
95.928	24.969	1004.287	804.355
96.943	24.946	1002.603	802.831
97.957	24.982	1001.083	801.706
98.972	24.765	1000.119	799.894
99.987	25.175	999.028	800.782
101.001	25.035	998.713	799.832
102.016	25.127	997.721	799.380
103.030	25.057	998.057	799.266
104.045	24.955	997.096	797.967
105.060	25.012	996.126	797.374
106.074	24.663	996.302	795.894
107.089	24.862	995.085	795.734
108.103	24.501	994.439	793.542
109.118	24.665	991.870	792.148
110.133	24.609	991.116	791.228
111.147	24.645	989.500	790.030
112.162	24.129	989.955	788.039
113.176	24.688	988.669	789.416
114.191	24.468	987.757	787.645
115.206	24.623	987.559	788.101
116.220	24.658	985.594	786.620
117.235	24.611	984.687	785.617
118.249	24.241	984.566	783.828
119.264	24.459	983.430	783.809
120.279	24.607	982.972	784.026
121.293	24.771	981.027	783.124
122.308	24.484	981.005	781.778
123.322	24.386	980.794	781.114
124.337	24.373	978.406	779.086
125.352	23.999	979.248	778.054
126.366	24.108	977.438	777.021
127.381	24.557	976.864	778.454
128.395	24.636	976.617	778.531
129.410	24.778	975.603	778.273
130.424	24.717	974.842	777.332
131.439	25.247	973.400	778.414
132.454	24.888	972.304	775.911
133.468	25.030	971.283	775.642
134.483	25.178	970.827	775.848
135.497	24.890	970.737	774.462
136.512	24.822	969.873	773.412
137.527	25.023	969.350	773.793
138.541	25.149	968.626	773.690
139.556	24.993	967.611	772.142
140.570	24.908	967.127	771.319
141.585	25.533	965.784	772.869
142.600	25.434	965.011	771.757
143.614	25.532	964.127	771.400
144.629	25.723	963.652	771.771
145.643	25.505	962.569	769.902
146.658	24.716	962.219	766.175
147.673	25.197	960.438	766.747
148.687	25.020	959.616	765.265
149.702	25.063	958.043	764.125
150.716	24.838	956.812	762.118
151.731	25.149	956.360	763.017
152.746	25.150	956.178	762.808
153.760	25.144	955.548	762.213
154.775	25.330	954.282	761.924
155.789	25.432	954.567	762.515
156.804	25.024	953.339	759.740
157.819	25.637	952.196	761.355
158.833	25.047	952.861	759.321
159.848	25.188	952.031	759.190
160.862	25.030	950.750	757.432
161.877	25.429	948.740	757.445
162.892	25.228	947.991	755.935
163.906	25.318	946.767	755.273
164.921	24.968	946.787	753.748
165.935	25.121	945.642	753.412
166.950	25.204	944.518	752.800
167.964	25.117	944.056	751.999
168.979	25.094	943.153	751.115
169.994	25.111	941.592	749.877
171.008	25.162	941.751	750.151
172.023	25.648	940.833	751.385
173.037	25.254	940.162	749.136
174.052	25.622	938.477	749.262
175.067	25.242	937.501	746.833
176.081	24.991	937.757	745.929
177.096	25.078	936.812	745.472
178.110	24.999	935.437	743.984
179.125	24.634	935.779	742.673
180.140	24.759	935.614	742.995
181.154	24.754	935.754	743.019
182.169	25.610	934.241	745.301
183.183	25.063	934.101	742.857
184.198	25.113	933.192	742.274
185.213	25.321	932.579	742.584
186.227	25.209	931.415	741.129
187.242	25.313	931.865	741.851
188.256	25.460	930.843	741.578
189.271	25.742	929.151	741.323
190.286	25.310	928.305	738.808
191.300	24.969	928.009	737.103
192.315	24.040	926.988	732.406
193.329	24.359	925.312	732.326
194.344	24.694	926.170	734.318
195.359	25.270	925.613	736.175
196.373	25.181	925.425	735.597
197.388	25.460	925.294	736.570
198.402	25.540	924.279	736.026
199.417	25.671	922.461	735.047
200.432	25.115	923.232	733.320
201.446	25.270	922.235	733.100
202.461	25.267	921.770	732.650
203.475	24.804	920.331	729.556
204.490	23.980	919.823	725.730
205.504	24.666	919.153	727.930
206.519	24.995	918.940	729.038
207.534	24.976	919.287	729.170
208.548	25.242	918.316	729.415
209.563	25.370	916.656	728.553
210.577	25.203	916.340	727.561
211.592	25.248	917.373	728.501
212.607	25.788	916.108	729.619
213.621	25.725	914.874	728.315
214.636	25.821	913.796	727.782
215.650	25.587	912.609	725.829
216.665	25.562	913.086	726.042
217.680	25.829	911.048	725.432
218.694	25.304	911.560	723.662
219.709	25.101	910.100	721.620
220.723	25.444	910.131	722.959
221.738	25.513	909.519	722.690
222.753	25.335	908.316	720.952
223.767	25.331	908.170	720.759
224.782	25.536	908.235	721.570
225.796	25.284	907.339	719.783
226.811	25.410	905.357	718.651
227.826	24.966	904.764	716.342
228.840	25.179	903.958	716.490
229.855	25.086	903.452	715.656
230.869	25.002	902.574	714.563
231.884	25.020	902.949	714.868
232.899	25.225	902.695	715.420
233.913	25.195	902.147	714.801
234.928	25.337	900.921	714.331
235.942	24.950	901.240	712.982
236.957	24.804	900.889	712.061
237.972	25.137	899.716	712.393
238.986	25.109	898.808	711.499
240.001	24.987	898.393	710.624
241.015	25.233	898.633	711.728
242.030	25.332	897.239	710.953
243.045	25.461	897.330	711.472
244.059	25.442	896.607	710.760
245.074	25.474	895.258	709.756
246.088	25.352	894.962	708.977
247.103	25.729	893.897	709.557
248.117	25.943	895.168	711.348
249.132	26.137	894.914	711.848
250.147	26.212	894.172	711.490
251.161	26.176	893.428	710.694
252.176	26.194	892.591	710.037
253.190	26.240	891.654	709.409
254.205	26.439	891.767	710.214
255.220	26.129	890.603	708.010
256.234	26.069	890.357	707.517
257.249	25.948	888.975	705.882
258.263	25.865	888.230	704.902
259.278	25.950	887.985	704.979
260.293	25.992	887.092	704.371
261.307	26.118	886.450	704.290
262.322	26.408	886.442	705.354
263.336	25.760	885.114	701.713
264.351	25.103	883.387	697.725
265.366	25.015	883.444	697.364
266.380	25.866	884.380	701.355
267.395	25.726	883.057	699.701
268.409	25.845	882.546	699.694
269.424	26.209	881.551	700.256
270.439	25.817	881.878	698.931
271.453	26.160	880.173	698.847
272.468	26.047	879.877	698.116
273.482	26.129	880.168	698.600
274.497	26.041	878.434	696.822
275.512	25.814	878.014	695.550
276.526	26.201	878.031	696.999
277.541	26.061	877.596	696.050
278.555	26.065	876.729	695.317
279.570	26.302	875.866	695.484
280.585	26.294	874.330	694.173
281.599	25.929	874.427	692.783
282.614	25.725	873.093	690.883
283.628	25.487	873.426	690.172
284.643	25.902	872.482	690.956
285.657	25.614	872.013	689.421
286.672	25.594	870.874	688.380
287.687	26.208	870.534	690.401
288.701	26.019	870.663	689.718
289.716	25.705	869.821	687.789
290.730	26.036	868.596	688.023
291.745	25.523	869.001	686.324
292.760	25.794	868.290	686.739
293.774	26.335	867.633	688.216
294.789	26.356	867.433	688.077
295.803	26.256	867.443	687.642
296.818	26.226	865.752	686.130
297.833	26.103	865.232	685.191
298.847	25.811	864.393	683.355
299.862	26.018	864.588	684.236
300.876	26.511	863.973	685.558
301.891	26.328	863.568	684.483
302.906	26.249	862.402	683.200
303.920	26.373	862.642	683.797
304.935	26.349	861.924	683.078
305.949	26.613	860.739	683.071
306.964	26.217	859.718	680.711
307.979	26.069	859.853	680.199
308.993	26.238	859.531	680.521
310.008	26.212	858.497	679.543
311.022	26.325	858.528	679.934
312.037	26.326	856.872	678.564
313.052	25.460	857.720	675.923
314.066	25.598	855.421	674.566
315.081	25.613	854.691	673.990
316.095	25.945	854.117	674.718
317.110	26.057	854.808	675.624
318.125	25.531	853.000	672.167
319.139	24.889	852.496	669.315
320.154	25.185	851.390	669.490
321.168	25.617	851.798	671.366
322.183	25.522	852.355	671.390
323.197	25.535	851.318	670.561
324.212	26.190	850.332	672.165
325.227	26.435	849.783	672.583
326.241	26.017	848.905	670.277
327.256	25.527	850.169	669.390
328.270	25.570	848.516	668.191
329.285	25.396	847.796	666.917
330.300	25.451	847.804	667.069
331.314	25.646	847.438	667.446
332.329	25.894	847.326	668.218
333.343	26.426	845.806	668.929
334.358	26.053	845.709	667.411
335.373	26.127	845.606	667.546
336.387	26.559	845.731	669.182
337.402	26.402	845.338	668.234
338.416	26.681	845.338	669.204
339.431	26.890	844.842	669.523
340.446	26.579	844.917	668.374
341.460	26.538	843.755	667.246
342.475	26.763	843.311	667.666
343.489	26.964	842.125	667.404
344.504	27.042	842.084	667.602
345.519	26.957	842.015	667.175
346.533	26.785	842.199	666.628
347.548	26.718	841.083	665.441
348.562	26.804	839.920	664.778
349.577	26.722	839.647	664.203
350.592	26.788	838.381	663.384
351.606	26.550	838.537	662.577
352.621	26.375	836.941	660.616
353.635	26.165	837.294	660.069
354.650	25.937	836.210	658.326
355.665	25.770	834.948	656.666
356.679	25.988	834.312	656.899
357.694	25.950	834.418	656.786
358.708	26.142	833.400	656.626
359.723	26.195	832.797	656.284
360.738	26.037	832.746	655.613
361.752	25.840	832.953	655.001
362.767	26.901	831.812	657.894
363.781	26.897	831.712	657.744
364.796	27.153	829.538	656.891
365.810	27.073	829.903	656.833
366.825	26.639	829.732	655.070
367.840	26.683	828.031	653.829
368.854	26.365	828.597	653.068
369.869	26.174	828.351	652.128
370.883	26.464	827.754	652.646
371.898	26.588	827.696	652.991
372.913	26.692	826.828	652.624
373.927	27.014	824.963	652.251
374.942	26.761	825.523	651.725
375.956	26.531	825.577	650.884
376.971	27.063	824.236	651.677
377.986	26.470	824.850	649.974
379.000	26.868	823.678	650.422
380.015	26.952	823.345	650.401
381.029	26.772	822.158	648.765
382.044	27.086	822.125	649.803
383.059	27.306	821.311	649.887
384.073	26.821	820.542	647.491
385.088	26.700	819.478	646.163
386.102	26.461	819.513	645.279
387.117	26.378	819.160	644.648
388.132	26.163	818.075	642.972
389.146	26.495	817.544	643.681
390.161	26.581	818.480	644.668
391.175	26.570	818.274	644.408
392.190	26.503	815.937	642.274
393.205	25.795	815.897	639.671
394.219	25.070	814.518	635.960
395.234	24.960	814.558	635.546
396.248	25.847	814.398	638.511
397.263	26.131	814.406	639.466
398.278	26.307	813.612	639.411
399.292	26.145	812.981	638.283
400.307	26.258	811.580	637.528
401.321	26.073	811.564	636.803
402.336	26.435	810.887	637.492
403.350	26.782	810.989	638.740
404.365	26.902	811.303	639.354
405.380	27.021	810.315	638.937
406.394	26.847	810.377	638.319
407.409	27.130	809.911	638.890
408.423	27.056	809.867	638.538
409.438	27.113	808.667	637.735
410.453	27.163	807.744	637.125
411.467	27.001	807.653	636.431
412.482	27.342	807.553	637.489
413.496	26.738	807.654	635.396
414.511	26.927	806.727	635.271
415.526	27.054	806.317	635.338
416.540	27.103	805.676	634.948
417.555	27.439	805.956	636.285
418.569	26.899	804.569	633.249
419.584	27.284	804.039	634.120
420.599	26.588	804.846	632.271
421.613	159.720	1371.810	1792.970
422.628	138.757	1454.381	1793.005
