DTS Sentinel unit serial number:	SN413079Multiplexer serial number:	ORYXHardware model number:	OX4-SRSoftware version number:	ORYX F/W v4.00 Oryx Data Collector v3.7.2.0data status	okinstallation	princeton_trtdifferential loss correction	single-endedforward channel	channel 1reverse channel	N/Adate	2019/09/12time	19:23:34forward acquisition time	15.00reverse acquisition time	0.00gamma	496.2192k internal	0.2322k external	0.2322temperature offset calibration	1.0112default loss term (dB/km)	0.3790temperature slope calibration	1.0000multiplexer offset coefficient	1.0000multiplexer slope coefficient	1.0000fibre end	0.00T internal ref (°C)	32.37T ext. ref 1 (°C)	3.22T ext. ref 2 (°C)	26.89length (m)	temperature (°C)	Stokes	anti-Stokes-747.200	800.000	0.140	-0.488
-746.185	-71.822	0.441	0.166
-745.171	199.804	-0.063	0.098
-744.156	800.000	-0.102	0.394
-743.142	80.070	0.322	-0.350
-742.127	800.000	0.199	0.706
-741.112	-109.062	0.305	-0.066
-740.098	69.673	0.250	0.260
-739.083	-149.628	0.485	0.039
-738.069	800.000	-0.101	-0.430
-737.054	-52.220	0.598	-0.280
-736.039	-73.051	-1.084	0.402
-735.025	-96.151	0.493	0.132
-734.010	223.412	-0.279	0.455
-732.996	542.191	-0.104	-0.251
-731.981	119.059	0.494	0.617
-730.966	-200.000	0.126	-0.616
-729.952	-139.658	0.569	0.061
-728.937	-27.527	0.104	0.061
-727.923	-200.000	0.074	-0.469
-726.908	800.000	0.134	0.427
-725.894	173.406	-0.190	0.277
-724.879	84.215	0.584	0.644
-723.864	-59.497	0.428	-0.185
-722.850	75.882	0.883	-0.943
-721.835	-200.000	-0.205	1.326
-720.821	246.421	0.396	0.674
-719.806	-180.983	0.902	0.018
-718.791	315.544	0.367	0.698
-717.777	-200.000	-0.024	-0.213
-716.762	371.203	-0.333	0.682
-715.748	103.167	-0.008	-0.009
-714.733	26.963	0.444	0.376
-713.718	-41.233	0.682	0.355
-712.704	-175.671	-0.244	-0.007
-711.689	54.213	-0.447	0.434
-710.675	-36.681	1.089	-0.591
-709.660	800.000	0.116	-0.462
-708.645	608.812	0.293	-0.738
-707.631	-200.000	-0.006	-0.509
-706.616	800.000	-0.049	-0.149
-705.602	-102.138	0.342	0.083
-704.587	28.627	-0.328	0.280
-703.572	192.384	-0.253	-0.385
-702.558	-181.051	0.744	-0.015
-701.543	12.123	0.673	-0.522
-700.529	-163.421	-0.394	-0.019
-699.514	-95.424	-0.866	-0.235
-698.499	72.560	0.441	0.464
-697.485	658.893	-0.244	-0.633
-696.470	-144.157	-0.574	0.054
-695.456	15.969	0.961	-0.763
-694.441	-200.000	0.048	0.356
-693.426	47.907	-0.498	-0.469
-692.412	-53.690	-0.237	-0.109
-691.397	-142.066	-0.568	-0.057
-690.383	-93.289	-0.473	0.133
-689.368	800.000	-0.188	0.587
-688.354	-63.696	0.562	0.232
-687.339	-61.852	-0.676	-0.285
-686.324	37.673	0.699	0.626
-685.310	-89.395	-0.501	0.149
-684.295	92.286	-0.185	0.210
-683.281	27.302	-0.574	0.486
-682.266	14.771	0.308	0.242
-681.251	28.340	-0.390	-0.332
-680.237	286.888	0.357	0.651
-679.222	-200.000	0.083	-0.517
-678.208	-128.322	-0.344	0.049
-677.193	341.120	-0.522	-1.027
-676.178	-129.797	-0.201	0.028
-675.164	-55.874	0.491	0.221
-674.149	35.896	0.275	0.244
-673.135	2.311	-0.565	0.412
-672.120	-200.000	0.021	-0.149
-671.105	-165.037	-0.346	0.016
-670.091	275.056	0.183	-0.326
-669.076	155.416	-0.322	0.447
-668.062	-30.509	-0.448	0.256
-667.047	400.698	-0.164	0.346
-666.032	573.988	-0.244	-0.601
-665.018	-59.949	0.433	-0.187
-664.003	15.862	-0.423	0.336
-662.989	631.412	0.413	1.054
-661.974	503.356	-0.317	-0.738
-660.959	-164.779	0.177	-0.008
-659.945	29.617	0.400	-0.343
-658.930	-120.164	-0.235	0.040
-657.916	-200.000	0.004	-0.054
-656.901	-132.727	-0.214	-0.028
-655.886	-8.463	0.329	-0.223
-654.872	-66.453	0.845	0.338
-653.857	-200.000	-0.067	0.581
-652.843	566.465	0.157	0.385
-651.828	-65.198	0.641	0.260
-650.814	-200.000	0.185	-1.381
-649.799	-200.000	-0.104	-0.605
-648.784	-100.387	-0.888	-0.222
-647.770	-200.000	-0.001	-0.010
-646.755	-112.379	0.021	-0.004
-645.741	-79.401	-0.265	0.090
-644.726	16.044	0.350	-0.278
-643.711	-200.000	-0.061	0.347
-642.697	-49.619	0.728	0.348
-641.682	-106.778	0.329	-0.074
-640.668	-84.134	-0.348	-0.111
-639.653	113.493	-0.239	-0.292
-638.638	329.822	-0.294	0.570
-637.624	132.753	-0.478	-0.621
-636.609	57.963	-0.492	-0.484
-635.595	-76.023	-0.201	-0.072
-634.580	45.192	0.313	-0.290
-633.565	-142.290	0.548	0.055
-632.551	408.780	0.068	-0.144
-631.536	129.577	0.354	0.455
-630.522	-200.000	-0.002	-0.170
-629.507	647.966	0.346	-0.889
-628.492	-9.690	-0.834	0.559
-627.478	238.041	-0.411	0.687
-626.463	249.262	0.410	0.700
-625.449	-200.000	-0.020	0.100
-624.434	-125.822	0.270	-0.041
-623.419	-109.560	0.983	-0.209
-622.405	-174.168	-0.750	-0.022
-621.390	130.363	0.392	0.505
-620.376	448.974	0.277	-0.613
-619.361	-177.261	0.643	-0.016
-618.346	125.942	0.292	-0.371
-617.332	800.000	-0.083	-0.251
-616.317	-200.000	0.022	-0.792
-615.303	305.737	-0.439	0.821
-614.288	524.821	-0.252	-0.595
-613.273	-200.000	-0.007	0.031
-612.259	-132.860	0.486	-0.062
-611.244	-29.365	-0.429	-0.247
-610.230	-64.081	0.493	-0.202
-609.215	507.987	-0.246	0.573
-608.201	-138.220	0.858	-0.096
-607.186	-200.000	-0.017	-0.583
-606.171	-52.338	-0.790	0.367
-605.157	227.907	-0.284	0.464
-604.142	-26.185	-0.481	0.284
-603.128	21.694	0.388	-0.318
-602.113	-15.505	-0.621	-0.398
-601.098	30.172	0.677	0.581
-600.084	74.849	-0.195	-0.206
-599.069	34.747	-0.395	0.347
-598.055	-84.798	0.470	0.149
-597.040	-167.362	-0.535	-0.022
-596.025	-10.820	-0.633	-0.420
-595.011	149.375	0.147	0.200
-593.996	478.510	0.125	-0.284
-592.982	149.992	0.260	-0.354
-591.967	187.890	0.335	0.502
-590.952	-33.924	-0.517	0.286
-589.938	800.000	-0.187	0.666
-588.923	-45.973	0.297	-0.147
-587.909	39.465	0.170	-0.153
-586.894	-79.535	0.377	0.128
-585.879	40.815	-0.226	-0.205
-584.865	-90.256	1.090	-0.318
-583.850	-35.106	0.451	-0.247
-582.836	-94.792	-0.217	0.059
-581.821	-200.000	-0.114	-0.750
-580.806	-90.382	-0.831	-0.242
-579.792	-167.149	-0.219	0.009
-578.777	-55.454	0.298	0.134
-577.763	242.459	0.369	-0.620
-576.748	-21.775	0.494	0.302
-575.733	-25.991	-0.423	0.250
-574.719	-166.562	0.586	0.024
-573.704	-200.000	-0.010	0.050
-572.690	-138.926	0.697	0.076
-571.675	238.947	-0.303	0.505
-570.661	-18.854	0.162	0.101
-569.646	8.059	-0.453	-0.341
-568.631	-161.741	0.156	0.008
-567.617	-200.000	0.031	-0.247
-566.602	800.000	-0.114	0.365
-565.588	-200.000	0.004	0.230
-564.573	173.880	0.283	0.410
-563.558	3.676	-0.555	-0.406
-562.544	-34.481	0.770	-0.423
-561.529	-200.000	-0.121	0.567
-560.515	33.508	0.136	-0.118
-559.500	-21.552	0.582	-0.356
-558.485	-121.179	-0.623	0.105
-557.471	-200.000	-0.019	-0.619
-556.456	-200.000	0.152	-0.975
-555.442	222.395	-0.410	-0.661
-554.427	-42.539	-0.701	0.358
-553.412	6.909	0.469	0.350
-552.398	-200.000	0.037	-0.230
-551.383	-111.254	-0.312	0.064
-550.369	81.435	-0.344	0.373
-549.354	-89.586	-0.482	0.142
-548.339	760.309	-0.389	-1.056
-547.325	213.540	0.362	-0.573
-546.310	-87.793	0.143	0.043
-545.296	-200.000	-0.030	0.478
-544.281	-60.532	0.626	0.267
-543.266	-68.995	0.692	0.267
-542.252	-200.000	0.039	0.294
-541.237	-141.886	-0.326	0.033
-540.223	361.968	0.188	0.379
-539.208	9.138	-0.158	0.120
-538.193	-25.239	-0.526	0.312
-537.179	-200.000	-0.037	0.488
-536.164	-200.000	-0.083	0.556
-535.150	-97.314	-0.517	0.135
-534.135	800.000	-0.358	-0.995
-533.121	-200.000	-0.023	-0.470
-532.106	37.158	-0.649	0.576
-531.091	-32.396	-0.230	-0.129
-530.077	800.000	-0.175	0.492
-529.062	61.094	-0.442	0.439
-528.048	19.479	1.025	0.826
-527.033	-39.939	0.701	0.367
-526.018	-200.000	-0.031	0.575
-525.004	522.056	-0.079	-0.186
-523.989	-191.513	0.217	-0.002
-522.975	450.374	-0.201	0.445
-521.960	24.139	0.748	0.618
-520.945	125.824	-0.098	-0.124
-519.931	292.960	0.297	0.542
-518.916	124.952	-0.196	0.247
-517.902	-200.000	-0.024	-0.195
-516.887	30.691	0.267	0.229
-515.872	113.062	0.141	-0.171
-514.858	205.654	0.185	-0.288
-513.843	-123.625	-0.697	0.111
-512.829	800.000	-0.145	0.499
-511.814	214.432	-0.195	-0.310
-510.799	800.000	0.031	0.131
-509.785	-41.039	-0.317	0.164
-508.770	-99.597	0.890	-0.224
-507.756	-61.278	-0.276	0.117
-506.741	-44.013	0.221	0.111
-505.726	-72.292	-0.428	0.159
-504.712	-126.572	0.470	-0.070
-503.697	-40.005	-0.945	-0.493
-502.683	800.000	0.094	-0.353
-501.668	-200.000	0.014	-0.276
-500.653	-198.717	-0.742	0.004
-499.639	-73.701	-0.633	-0.231
-498.624	2.680	-0.201	0.146
-497.610	-59.162	0.999	-0.431
-496.595	-45.725	0.772	-0.382
-495.581	-200.000	0.067	-0.344
-494.566	-180.642	1.430	-0.029
-493.551	24.443	-0.667	0.552
-492.537	69.411	0.685	0.705
-491.522	-53.992	0.215	0.098
-490.508	-94.926	-0.091	0.025
-489.493	-117.533	-0.483	-0.087
-488.478	143.063	-0.241	-0.320
-487.464	800.000	-0.218	-0.675
-486.449	-29.818	-0.320	0.183
-485.435	-200.000	0.025	0.210
-484.420	-26.123	0.507	0.298
-483.405	-51.077	0.696	0.327
-482.391	300.077	0.141	0.260
-481.376	9.975	0.499	-0.379
-480.362	-62.375	-0.417	-0.174
-479.347	-72.640	0.639	-0.236
-478.332	-58.722	0.461	0.199
-477.318	236.104	-0.491	0.813
-476.303	800.000	-0.139	0.512
-475.289	-25.929	0.215	0.127
-474.274	800.000	-0.109	0.452
-473.259	155.721	-0.350	-0.483
-472.245	-200.000	-0.126	-1.151
-471.230	502.351	0.291	0.672
-470.216	-14.172	0.705	-0.454
-469.201	-70.309	-0.281	-0.106
-468.186	99.771	-0.507	0.586
-467.172	-200.000	0.089	-0.405
-466.157	76.990	-0.579	0.615
-465.143	-102.611	-1.370	0.327
-464.128	111.990	0.150	0.181
-463.113	272.927	-0.046	0.082
-462.099	7.456	0.106	0.079
-461.084	252.236	0.221	-0.376
-460.070	-200.000	-0.045	-0.730
-459.055	-76.050	-0.573	0.202
-458.040	-105.939	0.454	-0.102
-457.026	-47.541	-1.218	0.591
-456.011	156.898	0.154	-0.213
-454.997	-200.000	-0.091	-0.603
-453.982	-175.034	-0.161	0.004
-452.968	800.000	-0.124	0.444
-451.953	-148.523	0.776	-0.063
-450.938	-52.602	-0.860	-0.397
-449.924	226.022	-0.219	-0.355
-448.909	-18.754	-0.504	0.314
-447.895	389.325	0.144	-0.299
-446.880	-42.431	-0.175	-0.089
-445.865	-112.378	0.684	-0.137
-444.851	-200.000	-0.018	-0.187
-443.836	-200.000	-0.074	-0.771
-442.822	140.927	0.342	-0.451
-441.807	-200.000	-0.004	1.091
-440.792	17.149	0.533	-0.422
-439.778	19.616	0.414	0.332
-438.763	-72.949	-0.337	-0.124
-437.749	-40.098	-0.577	0.300
-436.734	-200.000	-0.003	0.144
-435.719	34.960	0.414	-0.361
-434.705	-200.000	-0.011	-0.174
-433.690	800.000	-0.384	-1.100
-432.676	225.205	-0.367	-0.594
-431.661	92.416	0.209	-0.235
-430.646	-200.000	-0.562	-0.002
-429.632	166.876	-0.473	0.670
-428.617	400.783	-0.202	0.424
-427.603	513.178	0.096	-0.224
-426.588	-200.000	-0.007	-0.178
-425.573	114.539	0.269	-0.327
-424.559	154.853	0.802	1.100
-423.544	-200.000	0.008	0.176
-422.530	-1.746	0.208	0.146
-421.515	800.000	-0.302	-0.999
-420.500	37.011	0.326	0.288
-419.486	-200.000	0.013	-0.127
-418.471	-152.709	0.806	-0.057
-417.457	-200.000	0.024	0.511
-416.442	-65.777	0.146	0.058
-415.428	10.434	-0.279	-0.212
-414.413	599.100	-0.092	0.229
-413.398	87.751	0.083	0.091
-412.384	255.021	0.140	-0.239
-411.369	-5.202	0.411	-0.282
-410.355	-200.000	0.050	0.597
-409.340	-93.661	0.315	0.087
-408.325	-200.000	-0.014	-0.132
-407.311	-200.000	-0.031	0.294
-406.296	273.089	0.158	0.278
-405.282	65.507	0.116	-0.117
-404.267	196.105	0.129	0.196
-403.252	445.419	0.339	0.743
-402.238	-49.403	-0.273	-0.130
-401.223	197.513	0.080	0.121
-400.209	-13.370	0.907	0.587
-399.194	-103.068	0.598	0.141
-398.179	160.126	0.612	0.851
-397.165	-200.000	0.012	-0.277
-396.150	-119.666	-0.386	0.066
-395.136	800.000	-0.119	0.388
-394.121	200.842	-0.277	-0.425
-393.106	800.000	0.196	-0.749
-392.092	129.663	0.012	0.015
-391.077	30.560	0.505	0.431
-390.063	463.476	0.112	0.250
-389.048	-114.955	-0.241	-0.046
-388.033	64.624	-0.181	-0.182
-387.019	11.726	0.298	0.228
-386.004	-200.000	0.011	0.319
-384.990	61.778	0.459	0.455
-383.975	6.574	0.155	-0.115
-382.960	19.279	0.378	-0.303
-381.946	77.901	0.444	-0.472
-380.931	121.880	-0.524	-0.651
-379.917	-200.000	-0.031	0.326
-378.902	-3.429	0.733	0.508
-377.888	-14.201	0.582	-0.374
-376.873	-124.303	-0.713	-0.111
-375.858	-111.506	-0.728	-0.148
-374.844	-200.000	0.002	0.503
-373.829	-118.657	0.113	-0.020
-372.815	-113.169	0.466	0.091
-371.800	95.357	0.527	0.598
-370.785	-72.308	-0.323	0.119
-369.771	-145.943	0.454	-0.040
-368.756	257.835	0.351	-0.602
-367.742	603.021	0.203	0.503
-366.727	-71.691	0.346	0.128
-365.712	-7.968	-0.699	0.470
-364.698	-105.159	0.320	0.073
-363.683	-45.125	0.886	-0.438
-362.669	-116.880	0.572	0.104
-361.654	654.287	0.144	-0.369
-360.639	800.000	-0.172	0.691
-359.625	-200.000	0.172	1.003
-358.610	46.950	0.650	-0.601
-357.596	520.769	0.232	-0.541
-356.581	800.000	0.051	-0.149
-355.566	800.000	-0.044	0.172
-354.552	3.305	-0.471	0.341
-353.537	47.728	-0.892	0.828
-352.523	182.098	0.268	-0.393
-351.508	800.000	0.034	-0.114
-350.493	-114.735	-0.623	-0.118
-349.479	659.010	-0.179	-0.457
-348.464	-200.000	0.080	0.598
-347.450	57.761	-0.697	-0.679
-346.435	79.781	-0.162	0.173
-345.420	725.654	0.263	0.699
-344.406	14.640	0.216	0.168
-343.391	-200.000	0.081	-0.611
-342.377	487.529	-0.320	0.725
-341.362	-85.445	0.503	0.156
-340.348	-12.161	0.135	0.088
-339.333	-79.920	0.425	-0.142
-338.318	-200.000	-0.058	0.508
-337.304	800.000	0.146	-0.468
-336.289	800.000	-0.125	0.518
-335.275	148.915	0.379	0.510
-334.260	282.148	0.082	-0.146
-333.245	-136.872	-0.559	0.064
-332.231	12.071	0.551	0.421
-331.216	646.561	0.236	0.599
-330.202	-120.634	-0.269	-0.045
-329.187	-10.609	-1.026	0.675
-328.172	-69.003	0.282	-0.108
-327.158	10.211	0.471	0.356
-326.143	-189.432	-0.126	0.001
-325.129	-89.209	-0.415	0.122
-324.114	-136.442	-0.331	-0.038
-323.099	408.323	0.127	0.268
-322.085	-79.721	0.632	-0.212
-321.070	-72.954	-0.241	0.088
-320.056	-23.612	0.434	0.259
-319.041	304.115	-0.246	-0.453
-318.026	7.434	-0.748	0.556
-317.012	698.494	-0.132	-0.346
-315.997	-25.147	-0.405	-0.238
-314.983	-200.000	0.107	0.575
-313.968	800.000	-0.155	0.641
-312.953	-14.407	-0.164	0.105
-311.939	189.850	-0.285	-0.425
-310.924	53.467	-0.444	-0.423
-309.910	-97.890	0.433	0.111
-308.895	43.129	0.420	-0.380
-307.880	-200.000	0.001	-0.100
-306.866	-112.322	-0.777	-0.155
-305.851	-158.962	0.623	0.035
-304.837	800.000	-0.106	-0.401
-303.822	-200.000	-0.035	-0.185
-302.807	-30.895	0.412	-0.231
-301.793	238.721	-0.043	0.070
-300.778	800.000	-0.138	0.381
-299.764	-109.606	-0.377	-0.079
-298.749	600.421	0.220	-0.541
-297.735	-75.268	-0.378	-0.134
-296.720	74.657	0.324	0.338
-295.705	28.898	0.606	0.510
-294.691	800.000	-0.071	0.307
-293.676	-132.738	-0.527	0.067
-292.662	-67.584	0.696	-0.271
-291.647	354.259	-0.441	-0.869
-290.632	-200.000	-0.002	-0.659
-289.618	-135.989	0.050	0.006
-288.603	-63.692	0.492	-0.200
-287.589	567.620	-0.204	-0.491
-286.574	39.188	-0.565	-0.502
-285.559	-153.462	-0.605	-0.042
-284.545	-200.000	0.006	-0.287
-283.530	-130.042	0.332	-0.045
-282.516	-116.782	-0.258	-0.047
-281.501	11.367	0.197	0.150
-280.486	-82.558	0.450	0.145
-279.472	800.000	-0.306	-0.868
-278.457	11.640	0.575	-0.438
-277.443	-200.000	0.062	-0.279
-276.428	-97.979	0.227	-0.058
-275.413	-24.595	0.927	0.547
-274.399	-165.259	-0.741	0.032
-273.384	-102.564	0.256	0.061
-272.370	12.391	-0.398	0.304
-271.355	-157.551	-0.646	-0.038
-270.340	-26.387	-0.064	-0.037
-269.326	16.576	-0.950	-0.744
-268.311	120.620	-0.076	0.093
-267.297	-50.610	0.414	0.193
-266.282	-73.217	-0.243	-0.088
-265.267	800.000	0.162	-0.450
-264.253	-165.624	-0.650	-0.028
-263.238	-60.864	1.092	-0.458
-262.224	-13.999	0.079	0.051
-261.209	92.988	-0.583	0.653
-260.195	-45.516	-0.331	-0.163
-259.180	-200.000	0.083	-0.732
-258.165	-37.887	0.421	-0.222
-257.151	-22.658	-0.334	0.200
-256.136	61.344	-0.163	0.160
-255.122	-200.000	-0.007	0.099
-254.107	-200.000	-0.082	0.907
-253.092	-54.968	-0.276	-0.123
-252.078	-8.166	0.269	-0.180
-251.063	161.084	0.281	0.389
-250.049	224.215	0.505	0.808
-249.034	-140.479	-0.161	0.017
-248.019	-85.227	-0.464	0.144
-247.005	-200.000	-0.068	0.531
-245.990	800.000	-0.091	0.315
-244.976	317.276	-0.109	0.204
-243.961	676.700	0.366	0.943
-242.946	-200.000	0.073	0.610
-241.932	-200.000	-0.093	-0.797
-240.917	-150.549	0.258	0.020
-239.903	-67.945	0.289	-0.112
-238.888	24.955	0.233	0.191
-237.873	763.605	-0.250	-0.672
-236.859	108.538	-0.340	-0.402
-235.844	673.999	-0.122	0.314
-234.830	800.000	-0.017	-0.068
-233.815	800.000	0.271	-0.888
-232.800	106.286	-0.205	0.240
-231.786	-200.000	-0.090	-0.570
-230.771	-113.148	0.731	-0.143
-229.757	316.424	-0.293	-0.548
-228.742	-200.000	-0.032	-0.997
-227.727	258.740	0.294	-0.501
-226.713	800.000	0.284	-0.808
-225.698	44.789	-0.573	-0.522
-224.684	-200.000	0.056	0.606
-223.669	734.177	-0.157	0.416
-222.655	-200.000	0.075	1.370
-221.640	-142.027	0.032	-0.003
-220.625	800.000	0.075	0.306
-219.611	14.197	-1.009	0.778
-218.596	-116.524	-0.375	-0.069
-217.582	-28.722	1.017	-0.579
-216.567	113.823	0.209	0.251
-215.552	-130.323	0.746	-0.100
-214.538	-147.684	-1.084	0.090
-213.523	227.035	-0.043	-0.069
-212.509	240.609	0.317	-0.524
-211.494	800.000	0.150	-0.486
-210.479	-11.651	-0.088	0.057
-209.465	800.000	0.297	-0.945
-208.450	-100.161	-0.856	-0.211
-207.436	28.735	0.278	-0.233
-206.421	-200.000	0.042	-0.382
-205.406	-200.000	0.002	-0.884
-204.392	-200.000	-0.071	0.547
-203.377	233.928	-0.147	0.239
-202.363	-200.000	-0.084	0.427
-201.348	-115.882	-0.234	-0.043
-200.333	163.226	-0.117	0.162
-199.319	-48.201	0.067	0.032
-198.304	55.806	-0.333	-0.319
-197.290	-3.364	0.622	-0.428
-196.275	15.108	1.102	-0.854
-195.260	-97.406	0.190	-0.049
-194.246	-157.275	0.513	-0.031
-193.231	658.033	0.164	-0.418
-192.217	-46.323	-0.447	-0.217
-191.202	127.340	-0.429	0.539
-190.187	-15.823	-0.537	0.338
-189.173	-68.264	-0.155	-0.060
-188.158	-121.899	-0.968	0.158
-187.144	-22.277	0.973	-0.583
-186.129	800.000	-0.094	-0.294
-185.114	324.883	-0.129	0.244
-184.100	37.390	-0.167	0.146
-183.085	11.559	0.248	0.188
-182.071	-178.708	0.823	-0.019
-181.056	-31.446	-0.305	-0.170
-180.042	-200.000	0.122	-0.822
-179.027	-130.336	-0.860	-0.115
-178.012	-21.967	-0.374	-0.224
-176.998	-51.160	-0.520	-0.241
-175.983	-200.000	-0.033	0.348
-174.969	149.928	0.424	-0.568
-173.954	74.479	0.063	0.065
-172.939	-53.539	-0.956	-0.432
-171.925	-119.503	-0.291	-0.050
-170.910	-102.906	-0.338	-0.079
-169.896	124.952	0.243	0.303
-168.881	800.000	0.221	0.924
-167.866	-200.000	0.089	0.460
-166.852	-33.727	-0.355	0.193
-165.837	800.000	0.105	-0.439
-164.823	-46.932	0.067	-0.033
-163.808	-13.361	-0.980	-0.628
-162.793	-200.000	0.046	-0.310
-161.779	79.668	-0.415	0.440
-160.764	188.946	-0.185	0.273
-159.750	-21.991	-0.395	0.237
-158.735	346.306	-0.306	0.594
-157.720	-20.779	-0.519	0.315
-156.706	-58.654	0.481	-0.206
-155.691	101.298	-0.336	0.387
-154.677	32.459	0.241	-0.206
-153.662	111.000	-0.492	0.585
-152.647	800.000	0.182	-0.501
-151.633	-164.683	-0.233	0.010
-150.618	-2.244	1.031	-0.714
-149.604	123.443	0.172	-0.213
-148.589	146.570	0.530	-0.703
-147.574	-200.000	-0.004	-0.068
-146.560	-46.951	0.355	-0.171
-145.545	43.579	-0.095	-0.086
-144.531	800.000	0.179	-0.550
-143.516	800.000	0.038	0.163
-142.502	-200.000	0.046	-0.385
-141.487	-200.000	0.010	-0.178
-140.472	-73.657	0.695	0.250
-139.458	108.692	-0.391	0.461
-138.443	800.000	0.132	-0.475
-137.429	800.000	-0.302	-1.251
-136.414	-27.358	0.875	0.502
-135.399	-82.941	-0.314	-0.100
-134.385	96.689	0.085	-0.097
-133.370	-154.305	0.835	-0.055
-132.356	-130.388	0.667	-0.089
-131.341	-200.000	-0.062	-0.344
-130.326	-200.000	-0.003	-0.133
-129.312	210.662	0.336	0.521
-128.297	14.542	-0.357	0.275
-127.283	-200.000	0.244	1.108
-126.268	173.660	-0.155	0.220
-125.253	95.524	-0.183	-0.205
-124.239	-110.842	-0.806	-0.164
-123.224	-62.275	0.170	-0.070
-122.210	-171.811	-0.375	0.012
-121.195	-200.000	-0.056	-0.551
-120.180	617.738	-0.180	0.445
-119.166	4.749	-0.303	0.219
-118.151	19.902	0.264	-0.210
-117.137	-32.156	-0.377	0.208
-116.122	35.620	-0.263	0.228
-115.107	-132.251	0.709	0.091
-114.093	187.824	0.157	0.231
-113.078	-68.482	0.470	-0.180
-112.064	-157.220	0.362	-0.022
-111.049	-169.069	0.444	-0.016
-110.034	119.359	0.479	-0.584
-109.020	6.606	-0.210	0.154
-108.005	747.246	-0.081	0.215
-106.991	-88.676	0.281	0.082
-105.976	-95.559	0.720	-0.190
-104.962	283.070	-0.132	0.234
-103.947	12.279	0.231	0.175
-102.932	6.148	0.664	-0.485
-101.918	-21.038	-0.451	0.272
-100.903	14.825	0.504	0.388
-99.889	-127.225	-0.354	-0.051
-98.874	-51.050	-1.104	-0.510
-97.859	-200.000	0.073	0.426
-96.845	-101.751	-0.362	-0.086
-95.830	-35.005	-0.243	-0.131
-94.816	-200.000	-0.120	0.610
-93.801	51.100	-0.250	0.234
-92.786	-1.725	-0.214	0.148
-91.772	50.994	0.316	-0.295
-90.757	-75.876	0.728	0.254
-89.743	24.902	0.065	-0.053
-88.728	15.890	-0.428	0.332
-87.713	-171.055	0.793	-0.027
-86.699	356.457	0.210	-0.411
-85.684	-150.523	0.316	0.024
-84.670	-200.000	0.171	0.797
-83.655	329.087	-0.070	0.132
-82.640	-103.134	-0.476	0.111
-81.626	66.692	0.489	-0.490
-80.611	-64.029	-0.704	-0.283
-79.597	800.000	-0.247	0.884
-78.582	-200.000	-0.030	-0.264
-77.567	293.150	0.070	0.127
-76.553	149.126	-0.363	0.484
-75.538	-46.413	-0.500	-0.242
-74.524	94.840	0.252	-0.282
-73.509	-188.832	-0.488	0.006
-72.494	62.472	0.128	-0.126
-71.480	5.390	0.224	-0.163
-70.465	208.884	-0.580	0.893
-69.451	-200.000	0.086	-0.577
-68.436	32.374	0.042	0.036
-67.422	-139.672	0.832	-0.087
-66.407	-99.699	-0.831	0.205
-65.392	-13.082	0.643	-0.411
-64.378	-89.347	0.277	-0.080
-63.363	163.065	0.025	0.034
-62.349	-200.000	0.098	0.819
-61.334	32.223	-0.864	-0.733
-60.319	-200.000	-0.010	0.126
-59.305	430.123	0.954	-2.032
-58.290	800.000	0.553	1.563
-57.276	775.018	0.736	1.976
-56.261	-200.000	95.485	598.583
-55.246	679.951	1352.281	3462.433
-54.232	205.111	2515.289	3840.549
-53.217	121.132	2119.846	2594.879
-52.203	44.736	1589.729	1438.014
-51.188	35.949	1331.636	1152.221
-50.173	33.068	1290.525	1099.867
-49.159	56.058	1340.964	1279.736
-48.144	56.696	1357.206	1298.968
-47.130	35.965	1315.526	1138.197
-46.115	32.500	1297.746	1102.521
-45.100	32.518	1291.704	1097.450
-44.086	32.152	1290.018	1093.842
-43.071	32.498	1287.063	1093.304
-42.057	32.019	1285.524	1089.175
-41.042	32.223	1283.839	1088.883
-40.027	32.362	1282.043	1088.125
-39.013	32.150	1280.223	1085.307
-37.998	32.310	1279.317	1085.425
-36.984	32.230	1277.380	1083.272
-35.969	32.262	1276.077	1082.311
-34.954	32.292	1274.413	1081.029
-33.940	32.158	1273.495	1079.437
-32.925	32.556	1270.387	1079.039
-31.911	32.422	1270.215	1078.082
-30.896	32.500	1268.415	1076.959
-29.881	32.573	1266.848	1076.002
-28.867	32.281	1266.113	1073.668
-27.852	32.555	1263.842	1073.261
-26.838	32.570	1262.102	1071.826
-25.823	32.298	1261.840	1070.018
-24.809	32.294	1259.660	1068.100
-23.794	32.531	1257.499	1067.572
-22.779	32.484	1257.395	1067.172
-21.765	32.475	1255.469	1065.448
-20.750	32.397	1254.730	1064.337
-19.736	32.658	1252.378	1063.773
-18.721	32.362	1252.094	1061.816
-17.706	32.409	1250.676	1060.838
-16.692	32.510	1250.156	1060.926
-15.677	32.538	1248.833	1059.915
-14.663	32.392	1247.826	1058.199
-13.648	32.393	1246.082	1056.682
-12.633	32.428	1245.969	1056.739
-11.619	32.404	1244.886	1055.645
-10.604	32.122	1245.022	1054.137
-9.590	32.475	1242.780	1054.175
-8.575	32.039	1243.359	1052.181
-7.560	32.263	1241.237	1051.597
-6.546	32.420	1240.184	1051.542
-5.531	32.252	1240.164	1050.543
-4.517	32.224	1239.753	1049.997
-3.502	32.386	1237.853	1049.251
-2.487	32.298	1237.084	1048.063
-1.473	32.014	1233.052	1043.028
-0.458	30.760	1217.843	1023.235
0.556	28.033	1200.241	984.119
1.571	24.299	1205.639	968.223
2.586	23.065	1219.932	972.829
3.600	22.578	1209.230	961.554
4.615	16.765	1137.572	874.566
5.629	7.768	1062.114	772.930
6.644	3.782	1042.588	739.608
7.659	3.042	1040.327	734.402
8.673	3.063	1039.034	733.524
9.688	2.997	1036.860	731.611
10.702	3.665	1035.387	733.683
11.717	9.115	1044.666	766.260
12.731	18.476	1057.164	820.369
13.746	23.507	1063.926	849.716
14.761	24.374	1063.318	853.302
15.775	24.218	1062.047	851.462
16.790	23.853	1061.726	849.385
17.804	23.846	1060.508	848.302
18.819	23.298	1060.165	845.341
19.834	23.513	1060.107	846.245
20.848	23.656	1058.660	845.694
21.863	23.066	1058.893	842.996
22.877	23.538	1057.263	843.866
23.892	23.291	1057.841	843.077
24.907	23.283	1055.991	841.491
25.921	23.301	1055.452	841.075
26.936	22.992	1053.133	837.688
27.950	23.048	1052.375	837.273
28.965	23.005	1051.918	836.632
29.980	23.538	1049.565	837.207
30.994	23.619	1048.718	836.835
32.009	23.425	1047.367	834.772
33.023	23.351	1046.594	833.733
34.038	23.358	1046.011	833.229
35.053	23.307	1044.647	831.830
36.067	23.137	1043.907	830.369
37.082	23.034	1043.756	829.691
38.096	23.291	1043.141	830.334
39.111	23.426	1042.348	830.263
40.126	23.055	1041.612	827.863
41.140	23.000	1039.566	825.910
42.155	22.705	1037.132	822.529
43.169	22.817	1036.699	822.630
44.184	22.815	1036.511	822.403
45.199	22.835	1034.353	820.708
46.213	22.855	1035.123	821.340
47.228	22.945	1034.941	821.541
48.242	23.621	1033.757	823.668
49.257	23.339	1033.226	821.864
50.271	23.421	1032.103	821.275
51.286	23.570	1031.233	821.204
52.301	23.326	1031.038	819.846
53.315	23.236	1029.700	818.294
54.330	23.448	1027.985	817.834
55.344	23.158	1027.075	815.702
56.359	23.149	1026.565	815.186
57.374	23.243	1026.350	815.374
58.388	23.031	1025.424	813.592
59.403	22.761	1024.566	811.598
60.417	22.931	1023.510	811.470
61.432	23.018	1022.871	811.289
62.447	22.953	1021.881	810.132
63.461	22.810	1020.802	808.552
64.476	22.536	1020.601	807.067
65.490	22.695	1018.910	806.384
66.505	22.591	1018.169	805.252
67.520	22.749	1017.905	805.694
68.534	22.409	1017.274	803.572
69.549	21.962	1017.096	801.319
70.563	22.152	1017.010	802.049
71.578	22.168	1013.961	799.647
72.593	21.912	1013.454	798.011
73.607	22.007	1012.023	797.246
74.622	22.300	1012.008	798.493
75.636	22.333	1011.212	797.945
76.651	22.443	1011.084	798.273
77.666	22.349	1009.764	796.732
78.680	22.256	1009.612	796.121
79.695	22.030	1008.929	794.491
80.709	22.666	1007.971	796.537
81.724	22.658	1008.047	796.492
82.739	22.750	1007.654	796.525
83.753	23.113	1007.803	798.213
84.768	23.477	1007.544	799.576
85.782	23.890	1006.132	800.247
86.797	23.902	1004.293	798.766
87.812	23.383	1003.626	795.837
88.826	23.837	1002.432	796.853
89.841	23.719	1001.990	795.905
90.855	23.936	1000.304	795.465
91.870	23.776	999.069	793.698
92.884	23.649	999.255	793.206
93.899	23.579	999.092	792.695
94.914	23.466	997.471	790.833
95.928	23.531	996.931	790.625
96.943	23.276	995.690	788.435
97.957	23.138	994.562	786.859
98.972	23.292	993.384	786.541
99.987	23.662	992.910	787.741
101.001	23.513	992.633	786.789
102.016	23.358	990.961	784.709
103.030	23.393	991.198	784.981
104.045	23.440	989.580	783.837
105.060	23.709	988.687	784.249
106.074	23.308	987.807	781.712
107.089	22.901	986.724	778.989
108.103	22.935	985.496	778.102
109.118	22.526	984.759	775.652
110.133	22.494	982.994	774.055
111.147	22.686	982.251	774.242
112.162	22.588	981.358	773.041
113.176	22.471	981.201	772.335
114.191	22.827	980.621	773.369
115.206	22.798	979.385	772.201
116.220	22.637	978.148	770.453
117.235	22.424	977.975	769.317
118.249	22.604	976.442	768.827
119.264	22.315	976.753	767.744
120.279	22.334	975.443	766.729
121.293	22.260	974.425	765.539
122.308	22.271	973.195	764.552
123.322	21.978	972.742	762.855
124.337	22.152	970.706	761.946
125.352	21.729	971.434	760.616
126.366	22.184	969.024	760.630
127.381	22.355	969.210	761.449
128.395	22.460	968.309	761.129
129.410	22.443	968.165	760.875
130.424	22.657	967.132	760.920
131.439	22.900	966.658	761.527
132.454	22.771	965.165	759.728
133.468	23.116	963.939	760.178
134.483	23.012	963.559	759.364
135.497	22.837	963.345	758.375
136.512	22.722	962.625	757.248
137.527	22.759	961.809	756.698
138.541	22.969	960.454	756.463
139.556	23.258	960.224	757.453
140.570	23.486	958.900	757.315
141.585	23.556	958.740	757.419
142.600	23.340	958.319	756.098
143.614	23.469	956.644	755.260
144.629	24.062	956.399	757.525
145.643	23.587	955.080	754.395
146.658	23.491	953.429	752.616
147.673	22.767	953.523	749.552
148.687	22.840	952.309	748.840
149.702	22.896	950.814	747.833
150.716	23.185	949.872	748.250
151.731	23.104	949.314	747.403
152.746	23.430	948.632	748.176
153.760	23.152	948.977	747.208
154.775	23.456	947.490	747.249
155.789	23.410	948.077	747.454
156.804	23.442	946.385	746.186
157.819	23.544	945.740	746.042
158.833	23.477	945.415	745.439
159.848	23.614	944.953	745.585
160.862	23.618	943.362	744.279
161.877	22.972	942.901	741.143
162.892	23.106	940.776	739.969
163.906	22.769	939.548	737.525
164.921	22.780	939.944	737.821
165.935	23.011	937.870	737.088
166.950	23.196	937.471	737.480
167.964	23.305	936.796	737.340
168.979	22.969	935.971	735.226
169.994	23.372	933.637	735.000
171.008	23.251	933.527	734.348
172.023	23.344	934.120	735.133
173.037	23.761	932.358	735.409
174.052	23.642	931.667	734.304
175.067	22.932	932.128	731.667
176.081	22.942	930.070	730.028
177.096	22.954	929.471	729.541
178.110	22.779	928.792	728.223
179.125	22.790	928.193	727.733
180.140	22.743	928.803	727.953
181.154	23.234	928.109	729.369
182.169	23.657	927.776	730.785
183.183	23.489	927.462	729.780
184.198	23.509	926.028	728.671
185.213	23.240	924.841	726.568
186.227	23.360	924.873	727.021
187.242	23.646	924.835	728.101
188.256	24.037	923.003	728.192
189.271	23.618	923.584	726.869
190.286	23.153	922.315	723.908
191.300	23.032	920.495	721.920
192.315	22.245	920.030	718.279
193.329	22.446	919.284	718.453
194.344	23.035	918.999	720.568
195.359	23.294	918.499	721.165
196.373	23.389	919.025	721.904
197.388	23.547	918.260	721.882
198.402	24.138	917.543	723.655
199.417	23.868	917.188	722.212
200.432	24.194	916.422	722.870
201.446	23.949	916.264	721.689
202.461	24.007	915.211	721.030
203.475	23.480	914.702	718.432
204.490	23.205	913.095	715.994
205.504	23.033	913.762	715.754
206.519	23.267	913.044	716.076
207.534	23.638	911.734	716.482
208.548	23.406	911.446	715.256
209.563	23.495	910.532	714.833
210.577	23.634	910.058	714.959
211.592	24.319	909.237	717.008
212.607	24.228	909.271	716.604
213.621	23.735	907.966	713.534
214.636	24.014	907.811	714.468
215.650	23.455	906.628	711.231
216.665	23.670	906.560	711.979
217.680	24.058	904.875	712.146
218.694	23.609	905.505	710.781
219.709	23.787	903.901	710.169
220.723	23.319	903.044	707.562
221.738	23.442	902.744	707.756
222.753	23.352	902.448	707.103
223.767	23.899	901.941	708.823
224.782	23.823	901.992	708.500
225.796	23.753	901.532	707.794
226.811	23.643	900.229	706.271
227.826	23.269	899.580	704.212
228.840	23.287	898.268	703.197
229.855	23.512	897.094	703.108
230.869	23.287	896.599	701.766
231.884	23.537	896.454	702.578
232.899	23.304	895.652	700.969
233.913	23.107	895.242	699.804
234.928	23.122	893.974	698.813
235.942	23.083	893.045	697.869
236.957	22.966	893.751	697.896
237.972	23.048	892.370	697.080
238.986	22.961	891.110	695.691
240.001	22.990	891.345	695.928
241.015	22.884	891.485	695.559
242.030	23.209	891.100	696.476
243.045	23.089	890.727	695.649
244.059	23.398	889.355	695.730
245.074	23.446	888.908	695.509
246.088	23.670	888.104	695.694
247.103	23.758	888.071	695.954
248.117	24.254	888.442	698.125
249.132	24.566	887.328	698.409
250.147	25.055	888.238	700.975
251.161	24.584	887.382	698.396
252.176	24.748	885.485	697.480
253.190	24.981	886.132	698.838
254.205	24.593	886.213	697.325
255.220	24.341	884.515	694.945
256.234	24.473	884.333	695.258
257.249	24.364	883.065	693.776
258.263	24.451	881.916	693.147
259.278	24.565	881.265	693.019
260.293	24.901	880.712	693.825
261.307	24.589	880.898	692.697
262.322	24.704	880.190	692.528
263.336	24.242	879.059	689.790
264.351	24.363	877.892	689.280
265.366	24.310	878.214	689.265
266.380	24.485	877.514	689.333
267.395	24.344	876.935	688.271
268.409	24.692	875.188	688.179
269.424	24.562	874.622	687.172
270.439	24.219	874.324	685.561
271.453	24.506	873.158	685.685
272.468	24.485	873.683	685.958
273.482	24.493	872.881	685.296
274.497	24.563	871.975	684.794
275.512	24.447	871.061	683.573
276.526	24.455	871.105	683.576
277.541	24.863	870.506	684.606
278.555	24.798	870.569	684.345
279.570	25.225	869.682	685.219
280.585	24.929	869.262	683.698
281.599	24.595	868.121	681.466
282.614	24.091	867.130	678.708
283.628	23.980	867.419	678.450
284.643	23.985	867.192	678.233
285.657	23.938	866.818	677.700
286.672	24.214	864.502	676.877
287.687	24.598	864.522	678.294
288.701	24.375	863.992	676.971
289.716	24.449	863.239	676.601
290.730	24.737	862.252	676.860
291.745	23.931	863.180	674.473
292.760	24.646	861.792	676.034
293.774	25.055	861.702	677.451
294.789	25.057	860.546	676.487
295.803	24.870	859.233	674.693
296.818	24.398	859.459	673.030
297.833	24.293	858.447	671.781
298.847	24.154	857.710	670.621
299.862	24.403	857.777	671.554
300.876	24.789	857.798	672.960
301.891	24.809	857.333	672.614
302.906	24.937	856.038	672.017
303.920	25.227	856.283	673.237
304.935	25.179	856.155	672.897
305.949	25.064	854.609	671.192
306.964	24.439	854.780	668.926
307.979	24.557	853.779	668.527
308.993	25.117	852.185	669.309
310.008	24.900	852.737	668.873
311.022	24.782	852.424	668.127
312.037	24.629	852.669	667.690
313.052	24.193	851.631	665.191
314.066	23.765	850.217	662.430
315.081	23.997	849.615	662.766
316.095	24.230	849.046	663.132
317.110	24.292	848.377	662.783
318.125	24.244	847.091	661.538
319.139	23.459	846.934	658.445
320.154	23.810	846.519	659.367
321.168	24.275	845.727	660.415
322.183	24.109	845.335	659.434
323.197	24.178	844.669	659.113
324.212	24.315	844.132	659.141
325.227	24.296	843.116	658.221
326.241	24.043	842.795	656.978
327.256	23.824	841.984	655.479
328.270	23.898	841.684	655.460
329.285	23.943	840.972	655.014
330.300	24.003	840.105	654.501
331.314	24.047	840.471	654.892
332.329	24.505	840.386	656.451
333.343	24.714	839.504	656.471
334.358	24.701	839.819	656.612
335.373	24.505	839.325	655.446
336.387	24.803	838.436	655.789
337.402	24.958	839.295	656.969
338.416	25.164	838.812	657.290
339.431	24.898	839.519	656.810
340.446	25.435	838.089	657.598
341.460	25.362	837.466	656.783
342.475	25.462	838.159	657.634
343.489	25.447	836.837	656.485
344.504	25.361	836.517	655.861
345.519	25.613	836.120	656.413
346.533	25.110	835.612	654.119
347.548	25.534	833.908	654.274
348.562	24.990	833.792	652.144
349.577	24.999	832.961	651.468
350.592	25.091	832.034	651.021
351.606	24.448	831.859	648.490
352.621	24.679	830.960	648.569
353.635	24.593	830.707	648.004
354.650	24.301	830.252	646.534
355.665	24.355	829.229	645.873
356.679	24.796	829.091	647.306
357.694	25.102	827.539	647.141
358.708	24.734	827.270	645.546
359.723	24.372	826.877	643.877
360.738	24.498	826.355	643.866
361.752	24.763	825.850	644.373
362.767	24.886	826.345	645.144
363.781	25.294	825.859	646.177
364.796	25.485	824.847	646.013
365.810	25.297	824.681	645.152
366.825	25.632	823.458	645.338
367.840	25.499	823.405	644.763
368.854	25.268	821.994	642.776
369.869	25.188	821.963	642.406
370.883	25.305	820.859	641.908
371.898	25.443	821.072	642.508
372.913	25.167	821.479	641.784
373.927	25.325	819.980	641.118
374.942	25.195	819.337	640.098
375.956	25.235	819.762	640.514
376.971	25.589	818.646	640.849
377.986	25.884	818.126	641.435
379.000	25.285	817.877	639.051
380.015	25.596	817.495	639.801
381.029	25.491	817.018	638.998
382.044	25.610	816.790	639.186
383.059	25.695	816.766	639.414
384.073	25.531	814.921	637.328
385.088	25.195	814.848	636.026
386.102	25.145	813.364	634.636
387.117	25.218	812.404	634.087
388.132	25.006	812.545	633.392
389.146	24.988	811.684	632.600
390.161	25.481	811.637	634.248
391.175	25.844	811.319	635.223
392.190	25.093	810.886	632.181
393.205	24.920	810.059	630.871
394.219	24.672	809.240	629.303
395.234	24.380	808.989	628.027
396.248	25.069	807.174	628.979
397.263	25.336	807.423	630.055
398.278	24.446	807.582	627.000
399.292	24.867	806.298	627.422
400.307	24.709	805.827	626.446
401.321	24.692	806.281	626.685
402.336	24.745	806.290	626.820
403.350	25.031	805.839	627.419
404.365	25.501	805.792	628.972
405.380	26.086	804.930	630.288
406.394	26.269	803.796	629.982
407.409	26.003	805.351	630.214
408.423	25.808	804.404	628.736
409.438	26.159	803.387	629.111
410.453	25.848	803.587	628.127
411.467	25.802	802.901	627.373
412.482	26.038	802.475	627.808
413.496	26.224	801.702	627.793
414.511	25.889	801.784	626.638
415.526	25.801	801.498	626.052
416.540	25.900	800.725	625.739
417.555	25.726	800.485	624.891
418.569	26.027	799.903	625.425
419.584	25.820	799.574	624.395
420.599	25.842	799.584	624.425
421.613	161.146	1369.782	1793.839
422.628	139.923	1452.768	1793.889
