DTS Sentinel unit serial number:	SN413079Multiplexer serial number:	ORYXHardware model number:	OX4-SRSoftware version number:	ORYX F/W v4.00 Oryx Data Collector v3.7.2.0data status	okinstallation	princeton_trtdifferential loss correction	single-endedforward channel	channel 1reverse channel	N/Adate	2019/09/16time	07:30:35forward acquisition time	60.00reverse acquisition time	0.00gamma	496.2192k internal	0.2330k external	0.2330temperature offset calibration	0.9981default loss term (dB/km)	0.3790temperature slope calibration	1.0000multiplexer offset coefficient	1.0000multiplexer slope coefficient	1.0000fibre end	0.00T internal ref (°C)	27.61T ext. ref 1 (°C)	11.62T ext. ref 2 (°C)	23.85length (m)	temperature (°C)	Stokes	anti-Stokes-747.200	219.996	-0.077	-0.124
-746.185	-200.000	-0.052	0.234
-745.171	140.225	-0.127	-0.169
-744.156	-200.000	0.001	0.045
-743.142	11.119	-0.157	0.121
-742.127	-200.000	0.017	0.385
-741.112	73.546	0.154	0.162
-740.098	677.827	-0.094	0.246
-739.083	-200.000	-0.039	0.309
-738.069	-7.942	0.197	-0.134
-737.054	179.400	0.122	-0.179
-736.039	-200.000	-0.047	-0.474
-735.025	-162.010	0.152	0.008
-734.010	116.795	-0.076	-0.094
-732.996	-18.265	-0.254	0.160
-731.981	-25.919	-0.016	-0.009
-730.966	-200.000	0.011	-0.142
-729.952	-78.000	0.173	-0.060
-728.937	-170.188	-0.517	-0.018
-727.923	-137.690	-0.060	-0.007
-726.908	-200.000	0.009	-0.093
-725.894	-47.768	0.281	-0.137
-724.879	-50.157	-0.159	0.076
-723.864	-200.000	0.028	0.351
-722.850	-200.000	-0.018	-0.312
-721.835	240.750	-0.073	0.123
-720.821	-75.051	-0.378	-0.136
-719.806	30.618	0.289	0.249
-718.791	-200.000	-0.031	0.217
-717.777	-200.000	-0.015	-0.334
-716.762	-110.785	-0.203	-0.042
-715.748	223.972	-0.098	-0.159
-714.733	357.585	-0.115	-0.231
-713.718	-70.710	-0.186	0.071
-712.704	166.275	0.301	0.428
-711.689	800.000	-0.131	0.378
-710.675	-200.000	-0.059	-0.311
-709.660	44.817	-0.221	-0.204
-708.645	1.461	0.117	0.084
-707.631	-136.176	0.274	-0.032
-706.616	-8.041	-0.245	-0.166
-705.602	-200.000	-0.007	0.039
-704.587	318.945	-0.041	0.077
-703.572	-200.000	-0.017	0.305
-702.558	-68.541	-0.409	-0.159
-701.543	225.277	0.123	0.200
-700.529	800.000	-0.091	-0.370
-699.514	385.562	-0.151	-0.313
-698.499	101.186	0.045	0.052
-697.485	-27.488	-0.144	-0.084
-696.470	-51.746	0.180	-0.084
-695.456	-200.000	-0.025	0.157
-694.441	86.716	0.155	-0.172
-693.426	128.710	-0.056	-0.072
-692.412	-200.000	0.009	-0.315
-691.397	-200.000	0.017	-0.366
-690.383	-27.274	0.084	-0.049
-689.368	-200.000	-0.013	-0.062
-688.354	-114.004	0.219	0.043
-687.339	800.000	0.001	-0.004
-686.324	271.784	-0.103	0.182
-685.310	800.000	0.067	0.185
-684.295	116.632	-0.188	-0.232
-683.281	-200.000	-0.051	-0.282
-682.266	54.925	-0.098	0.095
-681.251	248.625	0.149	-0.254
-680.237	52.754	-0.141	-0.135
-679.222	332.871	0.101	0.195
-678.208	620.600	0.045	0.113
-677.193	-10.597	-0.343	-0.228
-676.178	-187.330	0.317	-0.004
-675.164	793.063	-0.152	-0.419
-674.149	-200.000	-0.020	-0.261
-673.135	-132.019	-0.150	0.020
-672.120	-105.835	-0.121	-0.027
-671.105	167.567	0.199	0.283
-670.091	771.262	-0.090	0.245
-669.076	-106.018	0.185	-0.042
-668.062	-200.000	-0.023	-0.118
-667.047	-200.000	-0.019	-0.394
-666.032	517.120	-0.106	-0.249
-665.018	635.842	-0.062	-0.158
-664.003	52.007	0.134	0.129
-662.989	-144.471	-0.292	-0.027
-661.974	-200.000	-0.040	-0.444
-660.959	643.101	0.051	-0.130
-659.945	-23.043	-0.271	0.164
-658.930	-200.000	-0.010	-0.110
-657.916	115.102	-0.212	-0.260
-656.901	-10.878	-0.098	-0.065
-655.886	800.000	-0.005	-0.015
-654.872	-200.000	0.018	0.267
-653.857	-200.000	-0.021	-0.151
-652.843	267.409	0.185	-0.324
-651.828	-200.000	-0.011	0.308
-650.814	45.791	0.249	0.231
-649.799	788.979	0.100	0.276
-648.784	351.539	0.154	-0.307
-647.770	800.000	-0.037	0.142
-646.755	-40.570	0.114	0.059
-645.741	-158.546	0.036	0.002
-644.726	-19.230	0.139	-0.086
-643.711	-162.474	-0.320	-0.016
-642.697	585.394	-0.007	-0.017
-641.682	-200.000	0.003	-0.038
-640.668	-107.093	0.334	-0.074
-639.653	-81.943	0.174	-0.057
-638.638	-115.646	-0.315	-0.059
-637.624	21.901	-0.232	-0.189
-636.609	-124.004	-0.209	0.033
-635.595	2.083	-0.162	0.118
-634.580	2.460	0.238	-0.173
-633.565	-200.000	0.078	-0.463
-632.551	239.826	-0.175	-0.292
-631.536	361.919	-0.083	-0.167
-630.522	9.140	0.277	0.210
-629.507	800.000	-0.058	0.172
-628.492	-142.502	0.246	0.024
-627.478	19.765	-0.168	-0.136
-626.463	-12.592	0.126	-0.083
-625.449	136.618	-0.251	0.328
-624.434	-99.276	-0.299	0.076
-623.419	800.000	-0.017	-0.050
-622.405	-169.773	0.505	-0.018
-621.390	-200.000	-0.017	-0.135
-620.376	-200.000	-0.002	-0.249
-619.361	-110.174	-0.265	0.055
-618.346	527.703	-0.040	0.095
-617.332	-200.000	0.004	0.245
-616.317	-116.978	0.156	-0.028
-615.303	112.439	-0.317	-0.384
-614.288	-96.109	-0.164	-0.044
-613.273	-200.000	0.020	-0.126
-612.259	191.914	0.124	-0.188
-611.244	-78.682	0.058	0.020
-610.230	89.047	0.128	-0.143
-609.215	-77.726	-0.322	-0.112
-608.201	800.000	0.058	-0.216
-607.186	13.729	-0.219	-0.170
-606.171	-200.000	-0.021	-0.216
-605.157	107.960	0.031	-0.038
-604.142	-122.632	-0.364	-0.059
-603.128	70.124	0.071	0.073
-602.113	163.529	0.110	-0.155
-601.098	800.000	0.056	0.229
-600.084	-13.084	-0.301	0.196
-599.069	-101.681	-0.270	-0.066
-598.055	93.344	-0.114	0.129
-597.040	26.877	-0.031	0.026
-596.025	-36.901	-0.360	0.193
-595.011	800.000	-0.081	0.260
-593.996	-37.775	0.260	0.138
-592.982	-149.611	-0.214	0.017
-591.967	82.633	-0.105	0.115
-590.952	636.320	0.084	0.213
-589.938	9.461	0.234	-0.177
-588.923	532.448	0.106	-0.252
-587.909	-200.000	0.008	-0.339
-586.894	-55.472	-0.072	-0.032
-585.879	-23.462	0.102	0.061
-584.865	403.485	-0.110	0.231
-583.850	-137.178	-0.275	-0.031
-582.836	800.000	-0.072	-0.274
-581.821	20.783	-0.232	0.188
-580.806	-133.021	-0.169	-0.022
-579.792	800.000	0.041	-0.148
-578.777	-100.819	-0.269	0.066
-577.763	182.613	-0.155	0.229
-576.748	264.679	0.101	-0.176
-575.733	226.265	0.319	-0.518
-574.719	-158.325	-0.194	0.011
-573.704	-137.764	-0.192	0.022
-572.690	57.970	0.198	0.194
-571.675	-200.000	0.007	0.313
-570.661	-136.167	0.118	-0.014
-569.646	-9.550	0.053	-0.036
-568.631	496.307	0.100	0.230
-567.617	800.000	-0.078	-0.217
-566.602	-69.062	-0.178	-0.069
-565.588	796.254	-0.046	-0.126
-564.573	-121.160	0.449	0.075
-563.558	800.000	0.068	0.274
-562.544	44.185	0.256	0.234
-561.529	-200.000	0.004	-0.235
-560.515	-200.000	0.060	-0.398
-559.500	-27.970	0.178	0.103
-558.485	-158.989	-0.157	0.009
-557.471	266.392	-0.141	0.246
-556.456	18.542	0.284	-0.227
-555.442	15.115	-0.283	-0.222
-554.427	-53.521	-0.264	-0.121
-553.412	-22.070	0.374	0.227
-552.398	800.000	0.048	-0.140
-551.383	-180.368	0.243	0.005
-550.369	116.458	0.212	0.259
-549.354	-74.504	0.113	-0.041
-548.339	800.000	0.013	0.037
-547.325	-140.678	0.325	0.034
-546.310	-48.474	-0.104	0.050
-545.296	120.608	-0.093	0.116
-544.281	137.494	-0.065	-0.085
-543.266	-200.000	-0.007	-0.275
-542.252	274.128	0.087	-0.153
-541.237	-110.679	-0.216	-0.045
-540.223	-76.847	-0.105	0.037
-539.208	-112.151	0.365	0.073
-538.193	-200.000	0.016	0.079
-537.179	-145.830	0.349	-0.031
-536.164	237.567	-0.135	0.223
-535.150	-179.975	0.398	0.008
-534.135	74.942	0.112	0.118
-533.121	-200.000	-0.032	-0.152
-532.106	212.889	-0.111	-0.175
-531.091	-20.823	-0.238	0.146
-530.077	-129.757	0.333	-0.046
-529.062	-200.000	-0.035	0.276
-528.048	-25.218	0.052	0.031
-527.033	326.977	-0.023	0.044
-526.018	80.918	0.253	0.272
-525.004	33.853	0.366	0.318
-523.989	-166.625	0.304	0.013
-522.975	800.000	-0.147	0.453
-521.960	-183.070	0.336	0.006
-520.945	-158.880	-0.094	0.005
-519.931	-200.000	-0.004	-0.124
-518.916	-200.000	-0.050	0.334
-517.902	503.425	-0.135	-0.311
-516.887	-200.000	-0.011	-0.363
-515.872	800.000	0.078	0.326
-514.858	-3.388	-0.061	0.043
-513.843	694.702	-0.068	-0.177
-512.829	-144.196	-0.417	-0.039
-511.814	-148.709	-0.359	-0.029
-510.799	-24.506	0.185	-0.110
-509.785	65.197	-0.086	-0.087
-508.770	-116.894	-0.189	0.034
-507.756	-77.401	0.382	0.132
-506.741	509.528	0.170	0.394
-505.726	-105.393	0.121	-0.027
-504.712	-200.000	-0.027	0.335
-503.697	800.000	0.119	0.330
-502.683	800.000	-0.057	-0.227
-501.668	-69.059	0.195	-0.075
-500.653	-112.639	-0.159	0.031
-499.639	-73.838	0.067	0.024
-498.624	97.070	0.272	0.311
-497.610	-14.954	0.378	0.241
-496.595	37.365	0.205	-0.181
-495.581	-200.000	0.451	0.000
-494.566	800.000	-0.117	0.378
-493.551	-46.330	-0.111	0.054
-492.537	67.761	0.181	-0.185
-491.522	800.000	0.050	0.165
-490.508	-200.000	-0.070	-0.366
-489.493	340.542	0.079	0.154
-488.478	-113.928	-0.252	0.049
-487.464	80.462	0.194	0.209
-486.449	-47.743	0.047	0.023
-485.435	-27.704	-0.079	-0.045
-484.420	800.000	0.026	0.091
-483.405	94.050	0.173	0.196
-482.391	270.489	-0.044	-0.077
-481.376	-77.005	-0.084	-0.029
-480.362	-69.020	-0.179	0.069
-479.347	-76.191	0.202	0.071
-478.332	46.586	-0.218	-0.201
-477.318	800.000	0.051	-0.189
-476.303	308.426	0.011	-0.021
-475.289	152.846	0.097	-0.132
-474.274	471.470	0.028	-0.062
-473.259	295.407	-0.184	-0.336
-472.245	443.496	-0.071	-0.156
-471.230	274.812	0.091	-0.161
-470.216	-114.332	-0.137	-0.026
-469.201	70.722	0.149	-0.154
-468.186	194.538	0.056	0.084
-467.172	-200.000	0.023	0.103
-466.157	-200.000	0.031	0.244
-465.143	-0.568	0.302	-0.213
-464.128	-193.078	0.068	0.001
-463.113	-105.762	0.182	-0.041
-462.099	26.178	-0.124	0.103
-461.084	-90.574	-0.283	-0.081
-460.070	-130.833	-0.092	0.012
-459.055	-83.615	-0.184	-0.058
-458.040	503.706	0.082	0.189
-457.026	186.539	-0.159	-0.235
-456.011	381.846	0.048	-0.097
-454.997	319.325	-0.144	-0.272
-453.982	-27.281	0.138	0.080
-452.968	187.255	-0.153	-0.227
-451.953	-46.107	-0.206	0.101
-450.938	97.415	0.188	-0.215
-449.924	-140.907	0.241	-0.025
-448.909	10.391	0.199	0.151
-447.895	-24.306	-0.109	0.064
-446.880	125.267	-0.144	0.181
-445.865	-5.068	0.013	0.009
-444.851	269.861	-0.053	-0.092
-443.836	-160.763	-0.239	-0.013
-442.822	-50.042	0.414	0.195
-441.807	-161.749	-0.302	0.015
-440.792	-200.000	0.014	-0.163
-439.778	800.000	0.053	-0.219
-438.763	58.164	-0.271	0.264
-437.749	7.484	0.215	0.160
-436.734	180.037	-0.018	-0.026
-435.719	-91.321	-0.106	0.030
-434.705	135.973	0.208	0.270
-433.690	530.191	-0.130	-0.306
-432.676	-67.616	-0.174	-0.068
-431.661	-23.237	0.337	0.202
-430.646	4.748	0.121	0.088
-429.632	-200.000	0.038	-0.192
-428.617	-92.583	0.180	0.050
-427.603	26.753	-0.210	-0.175
-426.588	-116.969	-0.249	0.045
-425.573	-119.914	0.307	-0.053
-424.559	-56.237	-0.100	0.044
-423.544	800.000	0.029	-0.099
-422.530	-10.270	0.153	0.101
-421.515	1.501	0.267	-0.191
-420.500	166.812	-0.024	0.034
-419.486	161.125	-0.232	0.322
-418.471	-94.009	0.234	-0.064
-417.457	-123.378	-0.209	-0.033
-416.442	800.000	0.101	0.302
-415.428	463.238	-0.027	0.059
-414.413	-42.887	-0.265	-0.134
-413.398	291.434	-0.052	0.094
-412.384	800.000	0.057	-0.234
-411.369	-193.199	-0.221	0.002
-410.355	563.586	-0.125	-0.301
-409.340	-200.000	0.034	-0.218
-408.325	1.043	-0.445	-0.317
-407.311	-137.205	0.169	0.019
-406.296	-133.250	-0.280	-0.035
-405.282	47.876	0.228	0.211
-404.267	-169.942	0.112	-0.004
-403.252	-116.507	-0.251	0.046
-402.238	-114.124	0.202	0.039
-401.223	-200.000	-0.057	-0.332
-400.209	34.887	-0.222	-0.193
-399.194	800.000	0.090	0.256
-398.179	766.731	0.148	-0.399
-397.165	-119.552	-0.177	-0.030
-396.150	91.669	0.141	0.158
-395.136	542.815	-0.106	-0.252
-394.121	652.567	-0.064	-0.164
-393.106	-118.352	-0.067	-0.012
-392.092	-38.162	-0.076	0.040
-391.077	-200.000	-0.050	-0.374
-390.063	520.545	0.123	0.285
-389.048	-200.000	0.000	-0.311
-388.033	-200.000	0.072	-0.337
-387.019	-34.897	-0.138	0.075
-386.004	-65.004	0.162	0.065
-384.990	48.991	0.124	-0.116
-383.975	-200.000	0.042	0.255
-382.960	-41.647	-0.363	-0.185
-381.946	5.948	0.275	0.202
-380.931	-181.015	0.060	0.001
-379.917	-164.673	-0.026	-0.001
-378.902	800.000	-0.035	-0.100
-377.888	-45.662	-0.228	0.112
-376.873	23.829	0.226	-0.184
-375.858	-187.493	0.213	0.003
-374.844	-136.162	-0.098	-0.011
-373.829	-200.000	0.051	0.331
-372.815	800.000	0.067	0.246
-371.800	54.647	-0.295	-0.283
-370.785	-6.960	-0.172	-0.116
-369.771	414.682	0.089	0.189
-368.756	752.403	0.100	0.268
-367.742	-200.000	0.013	0.478
-366.727	127.615	0.133	0.168
-365.712	800.000	-0.009	-0.031
-364.698	157.244	0.163	0.224
-363.683	85.079	-0.176	0.191
-362.669	227.839	-0.164	0.264
-361.654	-66.601	0.293	-0.115
-360.639	86.289	-0.054	0.059
-359.625	-66.887	-0.256	-0.100
-358.610	-21.805	-0.244	-0.148
-357.596	-125.461	0.078	-0.012
-356.581	-81.873	-0.220	0.072
-355.566	-200.000	0.045	0.308
-354.552	-130.823	0.211	-0.028
-353.537	800.000	-0.099	0.277
-352.523	-200.000	0.005	-0.058
-351.508	142.849	-0.223	0.294
-350.493	-116.537	-0.194	0.035
-349.479	-34.529	0.316	-0.172
-348.464	-196.934	-0.182	-0.001
-347.450	-118.618	0.114	-0.020
-346.435	-31.630	0.171	-0.095
-345.420	-18.057	0.077	0.048
-344.406	191.333	0.068	0.101
-343.391	16.994	0.064	0.050
-342.377	94.213	-0.085	-0.096
-341.362	142.426	-0.287	-0.377
-340.348	-35.821	-0.109	0.059
-339.333	47.801	0.192	-0.178
-338.318	800.000	0.048	-0.143
-337.304	71.441	-0.134	-0.138
-336.289	-79.829	0.345	-0.115
-335.275	-73.605	-0.367	-0.132
-334.260	742.559	-0.059	-0.157
-333.245	85.681	0.037	-0.040
-332.231	283.363	-0.010	0.017
-331.216	-200.000	0.005	-0.167
-330.202	300.122	-0.057	-0.104
-329.187	75.579	0.191	0.199
-328.172	229.423	0.047	0.077
-327.158	-200.000	-0.003	0.060
-326.143	428.262	0.007	0.015
-325.129	-84.553	-0.357	0.112
-324.114	363.431	0.083	0.165
-323.099	-114.411	0.263	0.050
-322.085	159.592	0.177	0.243
-321.070	92.682	0.151	-0.169
-320.056	99.568	0.271	-0.310
-319.041	800.000	-0.083	-0.338
-318.026	800.000	-0.110	0.328
-317.012	-107.695	-0.195	0.042
-315.997	361.772	0.170	-0.338
-314.983	19.672	-0.022	-0.018
-313.968	297.132	-0.249	-0.452
-312.953	-0.438	0.273	0.192
-311.939	5.164	-0.084	-0.061
-310.924	189.452	-0.073	0.108
-309.910	-25.439	0.310	0.181
-308.895	-74.174	-0.448	0.161
-307.880	-200.000	-0.043	0.225
-306.866	-41.983	-0.120	0.061
-305.851	104.972	-0.151	0.176
-304.837	-200.000	0.015	-0.100
-303.822	107.499	0.216	0.254
-302.807	-200.000	0.075	0.347
-301.793	412.555	0.164	0.345
-300.778	-89.519	-0.108	0.031
-299.764	800.000	-0.126	-0.474
-298.749	-95.009	0.165	-0.044
-297.735	-119.592	0.405	0.069
-296.720	-200.000	-0.004	0.087
-295.705	-200.000	0.062	-0.531
-294.691	49.459	0.341	0.318
-293.676	800.000	0.039	-0.167
-292.662	280.309	0.099	0.175
-291.647	800.000	-0.064	0.256
-290.632	-200.000	-0.037	-0.281
-289.618	-66.595	-0.205	-0.080
-288.603	-200.000	0.003	0.287
-287.589	16.648	0.024	0.019
-286.574	80.375	0.289	-0.308
-285.559	800.000	0.078	0.222
-284.545	288.879	-0.033	0.059
-283.530	150.540	-0.127	-0.170
-282.516	-27.469	-0.258	-0.148
-281.501	-33.204	-0.056	0.031
-280.486	-44.712	-0.136	0.067
-279.472	-131.936	-0.247	0.032
-278.457	800.000	-0.084	0.233
-277.443	-118.084	0.194	0.034
-276.428	-190.980	-0.186	-0.002
-275.413	263.614	-0.103	0.178
-274.399	-58.030	0.252	0.108
-273.384	-200.000	-0.021	0.190
-272.370	800.000	0.123	0.406
-271.355	-1.558	-0.068	-0.047
-270.340	-61.455	0.067	-0.028
-269.326	-134.864	-0.398	0.048
-268.311	-73.231	-0.214	0.077
-267.297	203.637	-0.070	0.107
-266.282	800.000	-0.059	-0.197
-265.267	800.000	-0.150	-0.421
-264.253	-3.079	0.066	0.045
-263.238	-200.000	-0.037	0.234
-262.224	-200.000	0.013	0.131
-261.209	-2.855	-0.198	0.137
-260.195	182.854	0.076	0.110
-259.180	-167.701	0.113	-0.004
-258.165	800.000	-0.046	-0.156
-257.151	98.291	-0.194	0.220
-256.136	-200.000	0.016	0.178
-255.122	-2.887	0.156	0.108
-254.107	-200.000	0.007	-0.115
-253.092	108.491	-0.197	0.232
-252.078	-105.418	-0.114	-0.026
-251.063	33.572	0.118	0.101
-250.049	44.896	0.087	-0.079
-249.034	12.767	-0.100	0.076
-248.019	-19.356	-0.150	-0.092
-247.005	-200.000	-0.003	-0.198
-245.990	-103.829	-0.228	0.053
-244.976	800.000	-0.032	-0.127
-243.961	-1.069	0.145	0.101
-242.946	-89.537	0.423	-0.123
-241.932	-54.437	-0.136	-0.061
-240.917	800.000	0.028	-0.105
-239.903	-36.219	-0.146	0.078
-238.888	583.821	-0.077	-0.187
-237.873	-91.963	0.310	-0.087
-236.859	-33.929	0.302	0.164
-235.844	-200.000	0.015	0.115
-234.830	57.466	-0.116	0.112
-233.815	-159.087	-0.144	0.008
-232.800	-37.351	-0.163	-0.086
-231.786	-200.000	0.039	-0.397
-230.771	252.811	-0.216	-0.364
-229.757	64.084	-0.080	0.079
-228.742	-108.855	0.303	0.064
-227.727	166.735	0.274	0.384
-226.713	789.908	-0.026	0.072
-225.698	-68.806	0.167	0.064
-224.684	-84.244	-0.148	0.046
-223.669	-200.000	-0.033	-0.197
-222.655	-41.038	-0.153	0.078
-221.640	37.833	-0.136	0.119
-220.625	44.551	0.125	-0.113
-219.611	800.000	0.044	-0.141
-218.596	800.000	-0.069	-0.263
-217.582	-81.908	0.133	0.043
-216.567	-200.000	0.063	0.342
-215.552	800.000	0.094	0.258
-214.538	-132.230	-0.356	0.045
-213.523	-80.267	-0.138	0.046
-212.509	314.807	-0.116	0.216
-211.494	800.000	0.143	0.395
-210.479	19.644	-0.166	-0.132
-209.465	187.901	-0.119	-0.176
-208.450	483.356	0.069	-0.155
-207.436	-90.177	-0.364	0.104
-206.421	476.481	0.108	0.241
-205.406	-78.657	-0.182	-0.061
-204.392	69.303	0.150	0.152
-203.377	203.427	0.058	0.088
-202.363	-177.273	-0.018	-0.000
-201.348	-16.578	0.198	0.124
-200.333	800.000	-0.057	-0.190
-199.319	-200.000	-0.042	-0.395
-198.304	-89.784	0.133	0.038
-197.290	-9.702	0.160	0.105
-196.275	-200.000	-0.084	0.444
-195.260	50.860	-0.152	-0.142
-194.246	63.618	-0.252	-0.249
-193.231	266.271	-0.021	-0.036
-192.217	-13.713	0.122	-0.078
-191.202	-2.703	-0.334	-0.230
-190.187	-200.000	0.009	-0.241
-189.173	501.293	-0.049	0.111
-188.158	800.000	0.128	-0.445
-187.144	205.930	0.192	-0.294
-186.129	147.142	0.064	-0.085
-185.114	90.769	-0.110	-0.121
-184.100	93.461	0.149	0.166
-183.085	611.891	0.093	-0.230
-182.071	-191.688	-0.379	-0.004
-181.056	-200.000	-0.034	-0.167
-180.042	-179.569	0.111	0.002
-179.027	404.730	0.045	-0.094
-178.012	-89.066	0.161	-0.047
-176.998	108.016	-0.294	0.345
-175.983	800.000	0.200	0.582
-174.969	-200.000	0.009	0.318
-173.954	-128.364	0.325	0.046
-172.939	-200.000	0.017	-0.361
-171.925	-101.325	-0.216	0.052
-170.910	-200.000	0.012	-0.128
-169.896	119.984	-0.157	0.192
-168.881	41.231	0.155	-0.138
-167.866	-16.642	0.486	0.303
-166.852	800.000	0.029	-0.081
-165.837	-36.458	-0.049	0.026
-164.823	-86.234	-0.085	0.026
-163.808	-26.578	-0.037	0.021
-162.793	-145.755	0.124	0.011
-161.779	19.211	-0.317	-0.250
-160.764	-29.848	-0.130	0.073
-159.750	-47.004	0.219	0.105
-158.735	6.762	-0.072	-0.053
-157.720	197.967	0.090	-0.136
-156.706	-200.000	0.001	-0.241
-155.691	-76.934	0.109	-0.038
-154.677	227.646	-0.037	-0.059
-153.662	338.295	-0.061	0.118
-152.647	132.181	0.207	-0.263
-151.633	-2.963	-0.082	-0.056
-150.618	-200.000	-0.020	0.208
-149.604	-149.313	0.110	0.009
-148.589	-20.086	-0.302	-0.183
-147.574	-77.444	0.135	-0.046
-146.560	-200.000	0.001	0.052
-145.545	30.951	-0.069	-0.058
-144.531	800.000	-0.006	0.016
-143.516	-1.186	0.055	0.038
-142.502	39.051	-0.127	-0.111
-141.487	-200.000	0.020	-0.199
-140.472	9.371	0.116	-0.087
-139.458	-61.158	0.154	-0.064
-138.443	-200.000	0.046	-0.202
-137.429	-200.000	-0.009	0.151
-136.414	-11.776	0.182	0.117
-135.399	-57.689	-0.074	-0.032
-134.385	115.265	0.141	0.169
-133.370	800.000	-0.044	0.146
-132.356	221.217	0.053	0.084
-131.341	626.385	-0.050	0.124
-130.326	50.312	-0.123	-0.114
-129.312	168.088	0.199	0.279
-128.297	26.750	-0.253	0.209
-127.283	-161.426	0.108	0.006
-126.268	-75.442	-0.201	-0.070
-125.253	-113.970	-0.427	0.081
-124.239	-200.000	-0.003	0.201
-123.224	800.000	0.144	-0.430
-122.210	-199.754	-0.210	0.001
-121.195	-88.007	0.318	0.094
-120.180	59.617	-0.048	0.046
-119.166	800.000	-0.067	0.207
-118.151	344.718	0.173	-0.334
-117.137	-200.000	0.018	-0.127
-116.122	119.751	-0.156	0.190
-115.107	57.771	-0.130	-0.125
-114.093	-156.620	0.292	-0.018
-113.078	-200.000	-0.061	-0.628
-112.064	57.181	0.092	-0.088
-111.049	13.338	-0.113	0.086
-110.034	-80.617	0.419	-0.137
-109.020	-200.000	0.024	-0.290
-108.005	-143.648	-0.436	0.041
-106.991	20.360	0.161	0.128
-105.976	61.422	-0.007	-0.007
-104.962	396.265	0.146	-0.300
-103.947	103.288	0.120	-0.138
-102.932	800.000	-0.080	0.271
-101.918	-27.504	-0.199	-0.114
-100.903	66.734	-0.196	-0.196
-99.889	-19.163	0.258	0.157
-98.874	-81.109	-0.037	-0.012
-97.859	800.000	-0.089	0.280
-96.845	-57.863	-0.073	0.031
-95.830	-200.000	-0.034	-0.319
-94.816	-144.361	0.180	-0.016
-93.801	-107.758	-0.132	-0.028
-92.786	-68.592	0.288	0.109
-91.772	10.412	-0.127	-0.095
-90.757	382.693	-0.038	-0.076
-89.743	-149.453	-0.175	-0.014
-88.728	-28.634	-0.396	0.224
-87.713	140.177	0.044	0.057
-86.699	-200.000	0.010	-0.395
-85.684	-200.000	-0.014	0.148
-84.670	-200.000	-0.006	-0.317
-83.655	197.177	-0.253	-0.378
-82.640	60.312	-0.305	-0.296
-81.626	-200.000	0.016	0.188
-80.611	800.000	-0.019	-0.070
-79.597	-166.603	-0.175	0.007
-78.582	-200.000	0.004	-0.098
-77.567	103.573	-0.061	0.070
-76.553	5.690	-0.123	-0.089
-75.538	-141.418	-0.412	0.041
-74.524	84.527	0.177	0.190
-73.509	-200.000	-0.024	0.104
-72.494	381.554	-0.029	0.057
-71.480	547.121	0.107	0.251
-70.465	791.992	-0.048	-0.130
-69.451	-37.699	0.282	0.147
-68.436	-18.879	0.200	-0.122
-67.422	-113.534	-0.126	0.024
-66.407	-36.968	0.416	-0.219
-65.392	242.515	-0.089	-0.147
-64.378	324.329	0.077	0.144
-63.363	106.481	-0.191	-0.222
-62.349	6.190	0.281	-0.204
-61.334	133.069	-0.712	-0.901
-60.319	540.130	0.156	0.364
-59.305	-200.000	-0.071	-1.084
-58.290	470.472	0.625	1.377
-57.276	800.000	0.463	1.783
-56.261	-200.000	111.987	630.647
-55.246	463.966	1508.666	3304.364
-54.232	146.450	2677.834	3523.923
-53.217	104.540	2160.458	2493.341
-52.203	39.022	1607.769	1408.273
-51.188	30.841	1353.515	1135.876
-50.173	28.052	1314.815	1086.805
-49.159	54.385	1370.646	1293.354
-48.144	53.791	1385.423	1303.654
-47.130	31.200	1340.979	1127.345
-46.115	27.791	1323.065	1091.890
-45.100	27.616	1317.924	1086.562
-44.086	27.504	1315.747	1084.058
-43.071	27.434	1313.706	1081.914
-42.057	27.451	1311.477	1080.137
-41.042	27.483	1309.579	1078.720
-40.027	27.336	1309.003	1077.336
-39.013	27.480	1306.500	1076.080
-37.998	27.529	1304.570	1074.739
-36.984	27.517	1303.239	1073.531
-35.969	27.578	1301.211	1072.172
-34.954	27.536	1299.784	1070.712
-33.940	27.650	1298.391	1070.191
-32.925	27.677	1297.050	1069.201
-31.911	27.563	1295.520	1067.225
-30.896	27.676	1294.048	1066.633
-29.881	27.786	1292.016	1065.558
-28.867	27.843	1290.734	1064.794
-27.852	27.796	1289.360	1063.344
-26.838	27.725	1288.015	1061.775
-25.823	27.689	1287.408	1061.028
-24.809	27.774	1285.405	1059.827
-23.794	27.734	1284.525	1058.825
-22.779	27.652	1282.609	1056.729
-21.765	27.553	1282.431	1055.965
-20.750	27.783	1280.072	1055.313
-19.736	27.583	1279.249	1053.436
-18.721	27.583	1278.045	1052.404
-17.706	27.595	1276.913	1051.498
-16.692	27.477	1276.038	1050.056
-15.677	27.633	1274.398	1049.564
-14.663	27.587	1273.532	1048.546
-13.648	27.621	1272.190	1047.592
-12.633	27.487	1271.875	1046.522
-11.619	27.628	1270.439	1046.111
-10.604	27.504	1270.005	1044.999
-9.590	27.645	1268.774	1044.750
-8.575	27.402	1268.182	1042.830
-7.560	27.503	1267.100	1042.476
-6.546	27.506	1266.078	1041.612
-5.531	27.658	1264.475	1041.121
-4.517	27.679	1263.722	1040.577
-3.502	27.563	1263.266	1039.503
-2.487	27.639	1262.572	1039.322
-1.473	27.594	1258.638	1035.787
-0.458	26.356	1244.053	1016.784
0.556	22.052	1227.793	982.926
1.571	18.734	1235.562	970.336
2.586	18.097	1250.615	978.430
3.600	18.052	1240.328	970.036
4.615	16.641	1173.287	909.943
5.629	13.282	1106.656	841.130
6.644	11.750	1089.516	820.354
7.659	11.644	1087.729	818.402
8.673	11.549	1086.354	816.821
9.688	11.557	1084.604	815.473
10.702	11.793	1082.828	815.242
11.717	13.968	1084.578	827.332
12.731	16.745	1088.706	844.269
13.746	18.063	1089.459	851.344
14.761	17.694	1088.699	848.841
15.775	16.785	1086.403	842.458
16.790	15.670	1084.406	835.294
17.804	14.951	1082.713	830.350
18.819	14.490	1081.404	826.987
19.834	14.170	1080.920	824.958
20.848	13.953	1079.708	822.883
21.863	13.756	1078.702	821.069
22.877	13.502	1078.486	819.577
23.892	13.708	1077.240	819.573
24.907	13.649	1076.417	818.585
25.921	13.647	1075.572	817.861
26.936	13.613	1074.444	816.761
27.950	13.773	1072.657	816.116
28.965	13.712	1071.891	815.164
29.980	13.845	1069.697	814.077
30.994	13.852	1068.908	813.438
32.009	13.949	1067.057	812.431
33.023	13.768	1066.471	811.029
34.038	13.801	1065.529	810.400
35.053	13.655	1064.431	808.784
36.067	13.786	1063.609	808.726
37.082	13.698	1062.642	807.489
38.096	13.826	1061.974	807.533
39.111	13.798	1061.274	806.792
40.126	13.732	1060.061	805.481
41.140	13.532	1058.782	803.468
42.155	13.559	1057.736	802.734
43.169	13.558	1056.412	801.650
44.184	13.578	1055.491	800.977
45.199	13.535	1054.842	800.208
46.213	13.640	1053.194	799.395
47.228	13.667	1052.190	798.690
48.242	13.689	1051.322	798.066
49.257	13.761	1050.513	797.726
50.271	13.721	1049.713	796.860
51.286	13.728	1048.764	796.103
52.301	13.775	1047.677	795.432
53.315	13.583	1046.846	793.811
54.330	13.657	1045.464	793.043
55.344	13.684	1044.265	792.195
56.359	13.779	1043.358	791.892
57.374	13.503	1042.810	790.087
58.388	13.506	1042.123	789.510
59.403	13.525	1041.206	788.837
60.417	13.529	1040.260	788.068
61.432	13.490	1039.772	787.445
62.447	13.404	1038.924	786.327
63.461	13.386	1038.322	785.714
64.476	13.453	1037.134	785.064
65.490	13.450	1036.262	784.321
66.505	13.555	1035.384	784.080
67.520	13.501	1034.964	783.440
68.534	13.430	1034.233	782.482
69.549	13.417	1033.809	782.031
70.563	13.494	1032.429	781.278
71.578	13.444	1031.882	780.563
72.593	13.398	1031.349	779.871
73.607	13.329	1030.612	778.918
74.622	13.451	1029.837	778.841
75.636	13.390	1029.040	777.881
76.651	13.402	1028.384	777.371
77.666	13.403	1027.913	776.952
78.680	13.447	1027.028	776.421
79.695	13.380	1026.678	775.775
80.709	13.339	1026.501	775.379
81.724	13.482	1025.625	775.319
82.739	13.568	1024.223	774.591
83.753	13.641	1023.637	774.424
84.768	13.849	1022.331	774.334
85.782	13.856	1021.707	773.828
86.797	13.766	1020.874	772.707
87.812	13.622	1019.875	771.216
88.826	13.633	1019.193	770.681
89.841	13.797	1017.886	770.388
90.855	13.801	1016.955	769.632
91.870	13.772	1016.251	768.897
92.884	13.829	1015.201	768.298
93.899	13.863	1014.380	767.766
94.914	13.874	1013.759	767.280
95.928	13.855	1012.842	766.431
96.943	13.802	1012.148	765.591
97.957	13.716	1011.057	764.303
98.972	13.780	1010.132	763.829
99.987	13.648	1010.014	763.064
101.001	13.820	1008.488	762.636
102.016	13.717	1007.712	761.509
103.030	13.847	1006.620	761.215
104.045	13.846	1005.846	760.557
105.060	13.821	1005.254	759.926
106.074	13.649	1004.514	758.512
107.089	13.599	1003.095	757.147
108.103	13.436	1002.215	755.669
109.118	13.563	1001.104	755.346
110.133	13.537	1000.331	754.576
111.147	13.626	999.207	754.065
112.162	13.755	998.537	754.079
113.176	13.647	997.619	752.830
114.191	13.700	997.304	752.766
115.206	13.855	996.133	752.521
116.220	13.751	995.446	751.464
117.235	13.701	994.187	750.222
118.249	13.633	993.541	749.357
119.264	13.565	993.473	748.933
120.279	13.720	992.242	748.636
121.293	13.603	991.490	747.477
122.308	13.529	990.314	746.189
123.322	13.568	989.423	745.628
124.337	13.501	988.993	744.936
125.352	13.601	986.906	743.750
126.366	13.568	986.451	743.192
127.381	13.675	984.939	742.466
128.395	13.651	984.326	741.829
129.410	13.608	983.263	740.774
130.424	13.701	982.574	740.605
131.439	13.651	981.910	739.815
132.454	13.668	981.163	739.261
133.468	13.640	980.387	738.485
134.483	13.721	979.581	738.174
135.497	13.687	978.670	737.274
136.512	13.748	977.703	736.750
137.527	13.785	976.913	736.255
138.541	13.721	976.590	735.661
139.556	13.708	975.748	734.904
140.570	13.856	975.154	735.047
141.585	13.960	974.085	734.636
142.600	13.822	973.639	733.622
143.614	13.861	972.874	733.154
144.629	13.980	971.906	732.885
145.643	13.940	970.591	731.652
146.658	13.766	969.766	730.198
147.673	13.837	968.558	729.536
148.687	13.821	967.894	728.904
149.702	13.689	967.221	727.755
150.716	13.682	966.506	727.121
151.731	13.847	965.411	726.955
152.746	13.900	964.732	726.612
153.760	13.967	964.110	726.371
154.775	13.884	963.558	725.530
155.789	13.975	962.837	725.320
156.804	13.842	962.472	724.396
157.819	14.105	961.191	724.518
158.833	13.907	961.196	723.594
159.848	14.100	960.106	723.550
160.862	14.150	958.762	722.689
161.877	13.985	957.456	720.925
162.892	13.855	957.235	720.131
163.906	13.823	956.119	719.090
164.921	13.885	955.296	718.674
165.935	13.928	955.004	718.579
166.950	13.941	953.652	717.553
167.964	14.069	952.557	717.218
168.979	14.013	951.696	716.266
169.994	14.002	950.984	715.619
171.008	14.058	950.291	715.272
172.023	14.054	949.758	714.793
173.037	14.126	949.185	714.609
174.052	14.082	948.536	713.866
175.067	13.835	948.424	712.661
176.081	13.935	947.082	712.017
177.096	13.919	946.802	711.675
178.110	14.032	946.380	711.776
179.125	14.115	945.297	711.253
180.140	14.058	945.046	710.758
181.154	14.130	944.393	710.512
182.169	14.179	944.125	710.460
183.183	14.230	943.257	709.960
184.198	14.162	942.655	709.152
185.213	14.137	941.631	708.213
186.227	14.183	941.211	708.032
187.242	14.244	940.524	707.712
188.256	14.330	939.936	707.570
189.271	14.263	939.147	706.630
190.286	14.176	937.981	705.320
191.300	14.072	937.586	704.522
192.315	13.960	937.069	703.597
193.329	14.011	936.656	703.442
194.344	14.136	935.714	703.198
195.359	14.207	935.029	702.921
196.373	14.140	934.813	702.416
197.388	14.315	934.564	702.902
198.402	14.463	933.720	702.832
199.417	14.348	933.404	702.048
200.432	14.606	932.506	702.393
201.446	14.620	932.061	702.058
202.461	14.622	931.401	701.505
203.475	14.592	930.691	700.785
204.490	14.418	930.138	699.574
205.504	14.529	929.005	699.127
206.519	14.480	928.407	698.408
207.534	14.563	927.321	697.877
208.548	14.509	927.075	697.403
209.563	14.524	926.355	696.864
210.577	14.507	926.101	696.541
211.592	14.694	924.943	696.385
212.607	14.783	924.243	696.171
213.621	14.656	923.739	695.200
214.636	14.779	922.829	694.962
215.650	14.715	922.063	694.061
216.665	14.808	921.329	693.831
217.680	14.752	920.675	693.047
218.694	14.701	920.206	692.418
219.709	14.673	919.762	691.910
220.723	14.630	918.807	690.950
221.738	14.667	918.299	690.660
222.753	14.690	917.708	690.251
223.767	14.768	917.052	690.017
224.782	14.862	916.432	689.880
225.796	14.897	915.878	689.546
226.811	14.936	915.044	689.017
227.826	14.982	914.162	688.479
228.840	14.897	913.513	687.581
229.855	14.805	913.084	686.821
230.869	14.970	911.885	686.534
231.884	14.781	911.447	685.368
232.899	14.759	910.585	684.571
233.913	14.664	910.589	684.123
234.928	14.660	909.575	683.284
235.942	14.763	908.480	682.820
236.957	14.803	908.320	682.804
237.972	14.899	907.292	682.365
238.986	14.911	906.432	681.704
240.001	14.870	906.059	681.195
241.015	14.959	905.788	681.294
242.030	14.901	904.886	680.320
243.045	15.006	904.551	680.437
244.059	14.968	903.757	679.625
245.074	15.038	903.258	679.471
246.088	14.944	902.808	678.694
247.103	15.055	901.766	678.297
248.117	15.041	901.402	677.907
249.132	15.254	900.699	678.180
250.147	15.266	900.240	677.824
251.161	15.371	899.269	677.458
252.176	15.192	899.276	676.681
253.190	15.362	898.382	676.635
254.205	15.245	897.916	675.753
255.220	15.344	897.130	675.501
256.234	15.321	896.221	674.663
257.249	15.373	895.901	674.572
258.263	15.460	894.763	674.005
259.278	15.367	894.457	673.339
260.293	15.422	893.567	672.830
261.307	15.529	892.781	672.608
262.322	15.502	892.615	672.314
263.336	15.518	892.109	671.937
264.351	15.533	891.080	671.162
265.366	15.609	890.000	670.595
266.380	15.647	889.578	670.369
267.395	15.671	888.983	669.957
268.409	15.607	888.379	669.186
269.424	15.627	887.473	668.527
270.439	15.609	886.552	667.700
271.453	15.532	886.115	667.005
272.468	15.508	885.728	666.561
273.482	15.515	885.167	666.109
274.497	15.571	884.267	665.592
275.512	15.591	883.834	665.290
276.526	15.602	883.646	665.133
277.541	15.647	883.093	664.835
278.555	15.670	882.319	664.282
279.570	15.723	881.561	663.863
280.585	15.662	880.757	662.960
281.599	15.687	880.177	662.562
282.614	15.801	879.212	662.226
283.628	15.778	878.697	661.687
284.643	15.788	878.305	661.373
285.657	15.678	877.573	660.332
286.672	15.702	877.228	660.108
287.687	15.857	876.359	660.003
288.701	15.692	875.992	659.021
289.716	15.848	874.824	658.695
290.730	15.971	874.267	658.698
291.745	16.130	873.233	658.484
292.760	15.836	873.525	657.496
293.774	15.921	872.647	657.108
294.789	15.822	872.161	656.298
295.803	15.906	870.966	655.670
296.818	15.847	870.939	655.361
297.833	15.889	870.210	654.918
298.847	15.903	869.359	654.275
299.862	15.914	869.104	654.066
300.876	15.908	868.523	653.549
301.891	16.090	867.525	653.445
302.906	16.089	867.071	653.040
303.920	16.264	866.666	653.354
304.935	16.177	865.852	652.349
305.949	16.215	865.213	651.956
306.964	16.266	864.366	651.454
307.979	16.218	864.156	651.054
308.993	16.177	863.903	650.651
310.008	16.228	863.276	650.314
311.022	16.264	862.426	649.758
312.037	16.118	861.933	648.767
313.052	16.137	861.552	648.494
314.066	16.097	860.635	647.593
315.081	16.183	859.649	647.123
316.095	16.111	859.282	646.515
317.110	15.992	859.326	646.036
318.125	16.114	858.652	645.938
319.139	16.129	858.151	645.559
320.154	16.218	857.714	645.515
321.168	16.097	857.251	644.647
322.183	16.198	856.628	644.508
323.197	16.208	856.326	644.260
324.212	16.287	855.323	643.749
325.227	16.417	854.466	643.545
326.241	16.453	853.783	643.110
327.256	16.268	853.518	642.148
328.270	16.319	853.105	641.976
329.285	16.295	852.017	641.010
330.300	16.173	851.755	640.294
331.314	16.355	851.011	640.368
332.329	16.288	850.998	640.045
333.343	16.384	850.697	640.126
334.358	16.271	850.205	639.271
335.373	16.329	849.775	639.114
336.387	16.299	849.174	638.490
337.402	16.503	849.017	639.087
338.416	16.577	848.696	639.069
339.431	16.593	848.278	638.758
340.446	16.597	847.819	638.371
341.460	16.610	847.366	638.022
342.475	16.594	846.882	637.541
343.489	16.699	846.470	637.569
344.504	16.683	846.526	637.493
345.519	16.641	845.662	636.629
346.533	16.642	845.325	636.324
347.548	16.573	844.924	635.707
348.562	16.572	844.180	635.087
349.577	16.707	843.255	634.841
350.592	16.566	842.547	633.723
351.606	16.635	841.734	633.315
352.621	16.805	840.913	633.276
353.635	16.820	840.601	633.042
354.650	16.801	839.889	632.378
355.665	16.815	839.495	632.078
356.679	16.799	838.648	631.324
357.694	16.745	838.229	630.750
358.708	16.846	837.521	630.540
359.723	16.868	836.989	630.165
360.738	16.716	837.028	629.573
361.752	16.854	835.945	629.212
362.767	16.956	835.253	629.017
363.781	17.005	834.627	628.671
364.796	16.955	834.442	628.291
365.810	17.170	834.096	628.772
366.825	17.039	833.708	627.936
367.840	17.012	833.458	627.594
368.854	17.111	832.819	627.423
369.869	16.921	832.085	626.112
370.883	17.116	831.685	626.477
371.898	17.181	831.279	626.355
372.913	17.182	831.199	626.242
373.927	17.222	830.403	625.736
374.942	17.166	830.183	625.308
375.956	17.147	829.640	624.773
376.971	17.273	829.165	624.824
377.986	17.306	828.709	624.545
379.000	17.348	828.363	624.384
380.015	17.360	827.383	623.635
381.029	17.368	826.717	623.108
382.044	17.240	826.614	622.504
383.059	17.335	825.861	622.230
384.073	17.424	825.323	622.094
385.088	17.252	824.779	621.000
386.102	17.237	824.497	620.679
387.117	17.304	823.534	620.143
388.132	17.371	822.663	619.678
389.146	17.317	822.181	619.062
390.161	17.419	821.890	619.159
391.175	17.363	821.809	618.839
392.190	17.312	821.316	618.229
393.205	17.299	820.762	617.712
394.219	17.288	820.006	617.046
395.234	17.377	819.864	617.210
396.248	17.507	818.843	616.855
397.263	17.302	819.139	616.282
398.278	17.295	818.690	615.862
399.292	17.419	818.152	615.852
400.307	17.309	817.829	615.156
401.321	17.387	816.905	614.688
402.336	17.471	816.398	614.555
403.350	17.496	816.023	614.313
404.365	17.594	815.430	614.162
405.380	17.573	815.122	613.802
406.394	17.554	814.729	613.384
407.409	17.637	814.333	613.327
408.423	17.625	814.319	613.221
409.438	17.716	813.900	613.180
410.453	17.647	813.136	612.302
411.467	17.744	812.696	612.264
412.482	17.831	812.292	612.216
413.496	17.739	811.974	611.593
414.511	17.796	811.835	611.638
415.526	17.871	811.364	611.498
416.540	17.894	810.725	611.045
417.555	17.924	810.139	610.656
418.569	17.819	809.873	610.027
419.584	17.929	809.580	610.146
420.599	17.903	808.708	609.343
421.613	111.260	1295.015	1476.132
422.628	96.067	1365.855	1476.208
