DTS Sentinel unit serial number:	SN413079Multiplexer serial number:	ORYXHardware model number:	OX4-SRSoftware version number:	ORYX F/W v4.00 Oryx Data Collector v3.7.2.0data status	okinstallation	princeton_trtdifferential loss correction	single-endedforward channel	channel 1reverse channel	N/Adate	2019/09/15time	11:30:35forward acquisition time	60.00reverse acquisition time	0.00gamma	496.2192k internal	0.2308k external	0.2308temperature offset calibration	0.9986default loss term (dB/km)	0.3790temperature slope calibration	1.0000multiplexer offset coefficient	1.0000multiplexer slope coefficient	1.0000fibre end	0.00T internal ref (°C)	34.31T ext. ref 1 (°C)	5.01T ext. ref 2 (°C)	29.89length (m)	temperature (°C)	Stokes	anti-Stokes-747.200	154.863	-0.087	0.122
-746.185	-147.771	-0.286	0.024
-745.171	390.476	0.119	0.252
-744.156	-138.740	0.088	0.010
-743.142	-200.000	0.004	-0.150
-742.127	-60.463	-0.141	0.061
-741.112	-121.389	0.080	0.014
-740.098	-200.000	-0.008	0.325
-739.083	85.720	-0.152	0.170
-738.069	-111.104	-0.196	0.041
-737.054	-71.495	-0.210	0.080
-736.039	80.558	-0.133	-0.146
-735.025	800.000	0.093	0.361
-734.010	-200.000	0.022	-0.142
-732.996	-39.436	-0.157	-0.084
-731.981	120.570	-0.260	-0.328
-730.966	460.167	0.132	-0.298
-729.952	-96.172	-0.177	-0.048
-728.937	439.878	-0.044	-0.098
-727.923	-56.300	-0.113	-0.051
-726.908	-200.000	-0.102	-0.505
-725.894	531.860	0.181	-0.434
-724.879	-165.359	-0.174	0.008
-723.864	464.529	-0.152	0.345
-722.850	-62.352	0.304	0.129
-721.835	-200.000	0.043	-0.273
-720.821	38.089	0.116	-0.105
-719.806	-17.724	0.062	-0.040
-718.791	-8.096	0.317	-0.217
-717.777	391.474	0.099	0.210
-716.762	-200.000	-0.016	-0.253
-715.748	129.535	-0.095	0.123
-714.733	-23.360	0.190	0.116
-713.718	298.205	0.116	-0.217
-712.704	670.628	0.065	-0.172
-711.689	-145.524	0.186	-0.017
-710.675	772.738	0.062	-0.172
-709.660	-146.493	0.048	0.004
-708.645	-100.767	0.133	-0.033
-707.631	-91.315	-0.401	-0.116
-706.616	-200.000	0.019	-0.109
-705.602	197.953	-0.074	-0.115
-704.587	6.234	0.122	-0.092
-703.572	-5.696	-0.226	-0.157
-702.558	192.069	0.049	0.076
-701.543	58.684	-0.055	0.055
-700.529	-200.000	-0.067	-0.359
-699.514	35.874	-0.210	0.188
-698.499	43.191	0.116	-0.107
-697.485	97.484	0.055	-0.064
-696.470	-88.219	-0.107	-0.033
-695.456	29.943	0.280	-0.242
-694.441	-139.806	0.180	-0.019
-693.426	-200.000	-0.018	-0.231
-692.412	-44.347	-0.292	-0.148
-691.397	-200.000	-0.015	-0.348
-690.383	-34.157	0.233	-0.130
-689.368	94.272	-0.296	0.341
-688.354	-23.544	-0.178	-0.108
-687.339	-1.665	-0.242	-0.173
-686.324	83.426	0.213	0.235
-685.310	-104.194	0.239	0.056
-684.295	-117.756	-0.237	0.043
-683.281	172.561	0.111	-0.162
-682.266	39.267	0.044	0.040
-681.251	-90.447	-0.374	0.110
-680.237	-155.604	-0.125	0.008
-679.222	-100.403	-0.361	0.091
-678.208	-200.000	-0.116	0.561
-677.193	22.736	0.214	-0.178
-676.178	-46.612	-0.202	0.100
-675.164	429.017	-0.171	0.374
-674.149	139.202	-0.095	-0.127
-673.135	268.236	-0.082	0.146
-672.120	49.835	0.168	0.160
-671.105	-17.454	0.352	0.224
-670.091	673.350	0.095	-0.249
-669.076	222.022	0.049	-0.080
-668.062	56.017	-0.142	-0.139
-667.047	-39.953	0.051	0.027
-666.032	-200.000	0.029	-0.220
-665.018	500.714	-0.070	0.164
-664.003	70.046	-0.075	-0.079
-662.989	-187.677	-0.242	0.003
-661.974	-200.000	-0.005	-0.244
-660.959	9.649	0.195	-0.150
-659.945	-200.000	0.021	-0.310
-658.930	240.298	0.239	-0.403
-657.916	130.599	-0.186	-0.241
-656.901	-120.532	-0.389	0.067
-655.886	-93.800	0.183	0.051
-654.872	-30.387	0.141	-0.081
-653.857	22.455	0.218	-0.181
-652.843	66.522	0.235	-0.242
-651.828	1.625	0.046	-0.033
-650.814	87.801	-0.083	-0.093
-649.799	380.858	-0.028	-0.058
-648.784	-166.983	-0.101	-0.004
-647.770	-13.016	0.212	0.139
-646.755	-200.000	-0.007	0.034
-645.741	-200.000	-0.030	-0.182
-644.726	-200.000	-0.009	-0.068
-643.711	-200.000	-0.019	-0.124
-642.697	-200.000	-0.005	-0.207
-641.682	167.639	-0.182	-0.262
-640.668	-194.800	-0.173	-0.001
-639.653	-166.093	-0.286	-0.012
-638.638	54.230	-0.174	0.170
-637.624	80.150	-0.074	-0.080
-636.609	-200.000	-0.016	0.158
-635.595	-135.259	0.143	0.017
-634.580	218.986	0.055	0.089
-633.565	15.782	0.139	-0.111
-632.551	-66.665	0.057	-0.023
-631.536	-200.000	0.005	0.358
-630.522	220.006	-0.149	0.241
-629.507	0.500	0.347	0.251
-628.492	718.189	0.061	-0.163
-627.478	-83.046	0.013	0.004
-626.463	18.870	-0.240	0.194
-625.449	-31.719	-0.400	-0.227
-624.434	34.457	0.255	-0.226
-623.419	-108.191	-0.332	-0.073
-622.405	558.745	0.092	-0.223
-621.390	-115.954	0.379	0.072
-620.376	-200.000	-0.014	0.229
-619.361	-40.440	0.221	0.116
-618.346	-53.964	-0.199	-0.092
-617.332	111.972	-0.064	-0.079
-616.317	50.735	-0.071	0.068
-615.303	515.190	-0.098	0.231
-614.288	-192.940	0.100	-0.001
-613.273	-113.498	-0.326	0.065
-612.259	-84.740	-0.217	-0.069
-611.244	481.471	0.042	-0.096
-610.230	-43.564	-0.060	-0.031
-609.215	5.175	0.123	-0.092
-608.201	-200.000	-0.011	-0.147
-607.186	182.329	-0.059	0.088
-606.171	-82.044	-0.445	0.147
-605.157	139.761	-0.172	-0.229
-604.142	-149.752	0.145	0.012
-603.128	-53.823	-0.118	-0.054
-602.113	-132.311	0.362	0.047
-601.098	-54.732	0.234	-0.107
-600.084	800.000	0.069	0.199
-599.069	563.334	0.055	0.135
-598.055	-200.000	-0.029	0.287
-597.040	-27.161	0.149	-0.088
-596.025	-104.850	-0.440	0.102
-595.011	326.913	-0.069	-0.134
-593.996	-86.357	0.378	0.118
-592.982	-35.351	-0.215	-0.118
-591.967	78.380	0.064	-0.069
-590.952	-151.983	0.161	-0.012
-589.938	-200.000	-0.021	-0.286
-588.923	642.472	-0.102	0.263
-587.909	-200.000	0.024	0.372
-586.894	314.488	0.105	-0.199
-585.879	-32.287	0.154	-0.087
-584.865	51.137	0.125	0.120
-583.850	529.683	0.020	-0.047
-582.836	-122.971	-0.160	-0.026
-581.821	-117.553	0.247	0.045
-580.806	101.587	0.051	-0.060
-579.792	-76.026	-0.147	0.052
-578.777	39.607	-0.288	0.261
-577.763	424.783	-0.116	-0.251
-576.748	-57.542	0.309	-0.137
-575.733	405.567	-0.127	-0.270
-574.719	-200.000	0.004	0.334
-573.704	-74.444	0.185	0.067
-572.690	-135.376	-0.222	-0.027
-571.675	-200.000	0.063	0.393
-570.661	-37.125	0.253	0.137
-569.646	21.902	0.100	-0.082
-568.631	86.672	-0.048	-0.054
-567.617	-103.940	-0.298	0.070
-566.602	43.859	0.061	0.057
-565.588	-31.711	0.135	0.076
-564.573	800.000	-0.100	-0.307
-563.558	-200.000	0.044	-0.318
-562.544	-128.228	0.149	0.022
-561.529	520.802	0.044	-0.104
-560.515	82.216	0.139	-0.152
-559.500	-6.472	-0.153	0.105
-558.485	-104.284	-0.264	0.062
-557.471	-200.000	-0.006	-0.141
-556.456	92.588	0.057	0.064
-555.442	800.000	0.152	-0.458
-554.427	364.886	0.086	-0.175
-553.412	-200.000	-0.006	-0.034
-552.398	69.501	-0.090	0.093
-551.383	-200.000	0.042	0.242
-550.369	-139.770	-0.262	-0.028
-549.354	155.926	-0.111	-0.154
-548.339	137.492	0.112	0.148
-547.325	87.435	-0.127	-0.141
-546.310	-77.048	0.038	-0.013
-545.296	-200.000	0.006	-0.392
-544.281	800.000	-0.052	0.164
-543.266	251.554	-0.165	0.284
-542.252	-200.000	0.016	0.144
-541.237	184.090	-0.127	0.190
-540.223	-75.398	0.122	-0.044
-539.208	-125.462	0.068	0.010
-538.193	-12.192	-0.106	-0.070
-537.179	800.000	0.095	-0.279
-536.164	800.000	-0.066	0.208
-535.150	800.000	-0.028	-0.082
-534.135	91.706	-0.184	-0.209
-533.121	-200.000	0.027	0.202
-532.106	-200.000	0.026	0.187
-531.091	561.613	0.059	-0.143
-530.077	-52.920	-0.209	0.097
-529.062	-51.681	-0.187	-0.088
-528.048	-81.549	0.221	-0.073
-527.033	52.424	-0.132	-0.127
-526.018	-149.335	0.362	-0.029
-525.004	2.359	-0.155	-0.113
-523.989	800.000	-0.097	0.277
-522.975	-127.285	0.207	-0.030
-521.960	-70.594	0.110	0.042
-520.945	-200.000	-0.004	-0.096
-519.931	-35.770	-0.149	-0.081
-518.916	-39.352	-0.107	-0.057
-517.902	800.000	-0.081	0.236
-516.887	-82.396	0.188	-0.062
-515.872	-200.000	-0.005	-0.222
-514.858	243.742	-0.051	-0.087
-513.843	703.971	0.049	0.131
-512.829	-200.000	0.030	0.227
-511.814	769.241	0.097	0.266
-510.799	-98.171	-0.130	0.034
-509.785	549.053	0.097	-0.234
-508.770	-70.233	-0.136	0.052
-507.756	29.154	0.009	0.008
-506.741	-200.000	0.004	0.151
-505.726	387.097	-0.138	-0.288
-504.712	-44.699	0.182	0.091
-503.697	102.306	0.195	0.230
-502.683	-96.329	0.192	-0.051
-501.668	-110.412	0.125	0.026
-500.653	-51.089	0.262	0.124
-499.639	-114.124	0.051	-0.010
-498.624	-105.849	0.124	-0.028
-497.610	-105.788	-0.244	-0.055
-496.595	777.313	0.021	-0.057
-495.581	-33.943	0.269	0.149
-494.566	-133.853	0.088	0.011
-493.551	59.136	0.278	-0.276
-492.537	240.987	-0.097	0.164
-491.522	-118.099	0.217	0.039
-490.508	-72.413	0.199	0.074
-489.493	-27.678	0.238	-0.139
-488.478	-44.968	0.177	0.089
-487.464	310.091	-0.039	-0.073
-486.449	-200.000	-0.006	-0.166
-485.435	785.446	0.040	0.110
-484.420	206.953	0.138	0.216
-483.405	147.608	-0.044	-0.060
-482.391	-71.493	0.037	0.014
-481.376	-200.000	-0.045	0.299
-480.362	502.384	-0.132	-0.306
-479.347	21.756	-0.176	-0.144
-478.332	-200.000	0.036	0.292
-477.318	800.000	-0.035	-0.115
-476.303	8.169	-0.134	0.101
-475.289	432.049	0.063	0.137
-474.274	-13.731	0.057	-0.037
-473.259	-200.000	-0.012	0.299
-472.245	23.410	-0.208	0.172
-471.230	-200.000	0.092	-0.406
-470.216	-120.113	0.208	-0.036
-469.201	-200.000	0.009	-0.183
-468.186	-174.166	-0.325	-0.010
-467.172	-162.727	-0.413	0.020
-466.157	-137.862	-0.330	0.037
-465.143	800.000	0.045	-0.178
-464.128	505.562	-0.085	0.198
-463.113	-62.862	-0.224	-0.093
-462.099	194.379	-0.253	-0.386
-461.084	776.213	0.116	0.318
-460.070	-67.269	-0.099	0.039
-459.055	800.000	-0.164	-0.503
-458.040	-131.572	0.095	0.013
-457.026	-75.641	0.098	0.035
-456.011	13.826	-0.136	0.106
-454.997	34.547	0.260	0.229
-453.982	-200.000	-0.023	0.150
-452.968	70.698	-0.219	-0.228
-451.953	516.091	0.113	-0.265
-450.938	120.335	0.126	0.157
-449.924	-110.257	0.393	0.082
-448.909	143.313	-0.205	0.274
-447.895	72.709	0.250	0.262
-446.880	-200.000	0.088	-0.426
-445.865	219.513	0.100	0.161
-444.851	-40.909	0.209	-0.109
-443.836	332.340	0.066	-0.127
-442.822	-64.294	-0.358	0.147
-441.807	-118.387	0.279	-0.050
-440.792	102.937	0.275	-0.324
-439.778	-175.651	0.105	-0.003
-438.763	247.503	0.208	0.353
-437.749	-4.034	0.270	-0.188
-436.734	-79.180	0.113	0.039
-435.719	-164.886	-0.172	-0.008
-434.705	45.049	0.048	0.044
-433.690	-200.000	-0.011	-0.179
-432.676	800.000	0.010	0.037
-431.661	13.940	-0.326	0.254
-430.646	-174.488	-0.027	0.001
-429.632	-82.132	-0.216	0.071
-428.617	-101.753	-0.133	-0.032
-427.603	800.000	-0.094	0.389
-426.588	-133.033	-0.148	0.019
-425.573	11.755	-0.096	-0.074
-424.559	-200.000	0.057	0.266
-423.544	208.852	0.094	0.147
-422.530	-200.000	0.000	0.085
-421.515	15.971	-0.041	0.032
-420.500	-200.000	0.002	-0.031
-419.486	34.382	-0.101	-0.089
-418.471	-167.075	-0.334	0.014
-417.457	-200.000	0.001	-0.075
-416.442	57.598	-0.275	0.270
-415.428	17.724	0.150	0.120
-414.413	18.845	-0.089	0.071
-413.398	-200.000	0.047	0.325
-412.384	375.210	-0.170	0.349
-411.369	-162.065	0.195	-0.010
-410.355	-142.471	0.040	-0.004
-409.340	-129.402	-0.354	-0.049
-408.325	-151.375	-0.121	-0.009
-407.311	77.416	0.209	0.223
-406.296	401.261	0.051	-0.107
-405.282	11.969	0.073	0.056
-404.267	292.287	0.112	0.205
-403.252	-200.000	0.061	-0.387
-402.238	270.549	-0.062	-0.109
-401.223	-114.587	-0.180	-0.035
-400.209	-86.690	-0.235	-0.072
-399.194	-116.674	-0.203	0.037
-398.179	-127.435	-0.102	-0.015
-397.165	40.418	0.172	-0.155
-396.150	8.582	-0.086	-0.065
-395.136	92.114	0.198	0.224
-394.121	90.385	0.307	0.345
-393.106	-123.915	-0.163	0.026
-392.092	-172.720	-0.363	-0.011
-391.077	-77.061	0.110	0.039
-390.063	-16.333	-0.232	0.148
-389.048	-200.000	0.008	-0.149
-388.033	-127.436	0.301	-0.044
-387.019	-200.000	0.026	0.429
-386.004	-52.696	0.321	0.148
-384.990	-156.668	-0.390	-0.024
-383.975	-200.000	-0.064	0.458
-382.960	-200.000	0.251	0.000
-381.946	-200.000	-0.000	0.193
-380.931	-200.000	-0.003	0.056
-379.917	-76.337	0.142	0.050
-378.902	7.357	-0.281	-0.211
-377.888	161.915	-0.202	0.284
-376.873	-200.000	-0.023	-0.143
-375.858	-200.000	0.035	0.262
-374.844	-72.105	0.355	-0.132
-373.829	129.577	-0.107	0.137
-372.815	-70.018	-0.400	0.152
-371.800	118.735	0.056	0.069
-370.785	-91.175	-0.229	0.066
-369.771	54.874	-0.286	-0.277
-368.756	-82.984	0.159	-0.051
-367.742	-141.830	-0.399	-0.040
-366.727	-49.453	0.315	-0.150
-365.712	316.437	-0.029	-0.055
-364.698	800.000	0.028	-0.077
-363.683	-200.000	-0.007	-0.141
-362.669	524.998	0.042	0.100
-361.654	212.094	-0.089	0.140
-360.639	41.094	0.093	0.085
-359.625	123.565	-0.237	-0.297
-358.610	202.473	0.076	-0.117
-357.596	448.631	-0.137	0.302
-356.581	412.537	0.008	-0.018
-355.566	445.417	-0.029	-0.063
-354.552	800.000	-0.027	-0.082
-353.537	800.000	0.016	-0.066
-352.523	-124.006	-0.121	-0.019
-351.508	-135.629	0.137	-0.016
-350.493	800.000	-0.044	-0.166
-349.479	-146.237	-0.023	-0.002
-348.464	-50.224	0.284	-0.135
-347.450	-81.330	-0.316	0.104
-346.435	220.688	-0.172	-0.276
-345.420	396.243	-0.105	-0.220
-344.406	-14.750	-0.034	0.022
-343.391	219.450	-0.124	-0.199
-342.377	-200.000	-0.009	-0.153
-341.362	73.750	-0.156	-0.163
-340.348	-147.933	-0.326	-0.027
-339.333	695.950	0.135	-0.356
-338.318	-200.000	-0.012	-0.145
-337.304	156.849	0.048	-0.066
-336.289	39.601	0.249	-0.223
-335.275	-109.668	0.321	0.068
-334.260	800.000	0.025	0.085
-333.245	-200.000	0.002	-0.170
-332.231	-138.039	-0.168	-0.019
-331.216	33.862	0.212	0.185
-330.202	-19.395	0.200	0.124
-329.187	-200.000	-0.012	0.347
-328.172	-166.378	0.328	0.014
-327.158	46.481	-0.121	-0.112
-326.143	800.000	-0.008	0.031
-325.129	-162.154	-0.029	-0.001
-324.114	363.886	0.116	-0.234
-323.099	-178.103	0.214	0.005
-322.085	800.000	-0.046	0.152
-321.070	-14.177	-0.212	0.137
-320.056	-200.000	0.035	-0.197
-319.041	800.000	0.026	-0.110
-318.026	129.844	-0.099	-0.127
-317.012	21.301	-0.385	-0.313
-315.997	800.000	-0.084	-0.343
-314.983	-141.077	0.138	0.014
-313.968	196.678	-0.126	-0.191
-312.953	78.844	-0.287	0.307
-311.939	149.991	0.082	-0.111
-310.924	600.783	0.119	-0.295
-309.910	-80.553	0.202	-0.067
-308.895	-126.615	0.151	-0.022
-307.880	-200.000	-0.058	0.511
-306.866	439.016	0.062	0.135
-305.851	-200.000	-0.076	-0.368
-304.837	-6.674	-0.108	-0.073
-303.822	-93.175	-0.167	-0.046
-302.807	223.692	0.137	-0.221
-301.793	-200.000	-0.023	-0.235
-300.778	-12.097	-0.276	-0.180
-299.764	50.509	0.148	0.140
-298.749	-171.590	0.206	-0.007
-297.735	74.945	0.122	0.128
-296.720	-102.193	-0.397	0.095
-295.705	161.500	0.130	0.181
-294.691	800.000	0.054	-0.153
-293.676	188.378	-0.131	-0.195
-292.662	758.584	-0.080	-0.217
-291.647	-200.000	-0.046	-0.244
-290.632	-75.186	0.053	0.019
-289.618	10.859	0.103	0.078
-288.603	-200.000	0.013	-0.147
-287.589	-200.000	-0.014	-0.173
-286.574	292.484	0.191	-0.348
-285.559	98.942	0.191	0.220
-284.545	-94.476	0.174	-0.047
-283.530	306.888	-0.201	-0.375
-282.516	-177.511	-0.031	0.001
-281.501	-200.000	0.002	0.022
-280.486	-132.667	-0.273	0.035
-279.472	-200.000	0.060	0.272
-278.457	-26.572	0.232	0.135
-277.443	800.000	-0.127	0.432
-276.428	-68.205	-0.050	0.019
-275.413	532.015	0.101	0.239
-274.399	-86.254	0.230	-0.071
-273.384	800.000	0.049	0.149
-272.370	-63.907	-0.091	-0.037
-271.355	-65.203	-0.141	0.057
-270.340	-132.447	-0.226	-0.029
-269.326	-61.207	0.177	-0.075
-268.311	18.289	0.172	-0.137
-267.297	-11.399	-0.284	0.186
-266.282	15.368	-0.116	0.091
-265.267	-183.321	-0.282	-0.005
-264.253	152.197	-0.175	-0.239
-263.238	-141.533	-0.153	-0.015
-262.224	-60.074	-0.112	0.048
-261.209	-142.925	-0.394	-0.038
-260.195	439.996	-0.149	0.324
-259.180	9.157	0.133	-0.100
-258.165	486.903	-0.065	-0.148
-257.151	468.346	-0.042	-0.094
-256.136	335.698	0.087	0.168
-255.122	240.010	-0.157	0.261
-254.107	-145.459	-0.387	-0.035
-253.092	294.054	-0.123	0.225
-252.078	292.065	-0.004	-0.008
-251.063	800.000	-0.072	-0.207
-250.049	25.475	0.094	-0.078
-249.034	223.145	-0.156	-0.251
-248.019	714.056	0.045	-0.120
-247.005	-16.457	0.258	0.163
-245.990	168.034	0.222	-0.315
-244.976	-86.406	0.225	0.069
-243.961	-73.703	-0.224	0.081
-242.946	-200.000	0.023	-0.113
-241.932	800.000	0.032	-0.122
-240.917	71.020	-0.153	0.158
-239.903	82.105	0.101	0.109
-238.888	-200.000	-0.015	-0.131
-237.873	-39.367	0.115	-0.060
-236.859	800.000	-0.034	-0.101
-235.844	-200.000	-0.013	-0.274
-234.830	144.094	0.123	0.164
-233.815	133.750	0.215	0.277
-232.800	-200.000	-0.054	0.368
-231.786	1.019	0.128	-0.092
-230.771	800.000	0.074	-0.292
-229.757	155.196	-0.097	-0.133
-228.742	-20.620	0.093	-0.057
-227.727	-96.010	0.357	0.095
-226.713	800.000	-0.073	0.315
-225.698	446.341	0.050	0.109
-224.684	24.219	0.228	-0.188
-223.669	-104.449	-0.123	0.028
-222.655	136.300	-0.054	0.070
-221.640	715.707	0.114	-0.302
-220.625	-200.000	0.027	-0.131
-219.611	54.322	0.160	-0.154
-218.596	39.618	-0.175	0.156
-217.582	800.000	0.019	0.060
-216.567	258.856	-0.169	0.291
-215.552	32.964	0.178	0.154
-214.538	-112.201	0.279	-0.056
-213.523	-132.661	-0.023	-0.003
-212.509	-200.000	0.009	-0.059
-211.494	-200.000	0.001	-0.208
-210.479	800.000	0.053	-0.150
-209.465	-128.729	0.247	-0.035
-208.450	47.039	0.417	0.386
-207.436	-66.340	0.339	0.134
-206.421	800.000	0.039	-0.156
-205.406	-25.487	-0.115	0.068
-204.392	93.240	0.180	-0.202
-203.377	-16.247	0.196	0.124
-202.363	-117.053	-0.289	-0.053
-201.348	70.394	0.129	0.133
-200.333	-200.000	0.032	-0.161
-199.319	178.658	-0.210	0.305
-198.304	-48.318	0.422	-0.202
-197.290	-77.828	-0.263	-0.090
-196.275	16.046	-0.150	-0.117
-195.260	-84.233	0.079	0.025
-194.246	-200.000	0.000	0.154
-193.231	800.000	-0.039	-0.136
-192.217	-93.180	-0.116	-0.032
-191.202	304.457	0.148	0.273
-190.187	-200.000	-0.009	-0.338
-189.173	-55.357	-0.234	-0.105
-188.158	266.892	-0.101	-0.176
-187.144	46.092	0.269	-0.248
-186.129	24.733	0.103	0.085
-185.114	1.405	0.038	0.027
-184.100	-25.760	-0.221	-0.130
-183.085	-111.623	0.159	-0.032
-182.071	178.471	0.236	0.343
-181.056	628.750	0.105	0.263
-180.042	103.425	-0.044	0.052
-179.027	89.089	0.132	-0.146
-178.012	-130.705	0.343	-0.046
-176.998	-200.000	-0.020	-0.108
-175.983	12.250	0.208	0.159
-174.969	-85.204	-0.027	0.008
-173.954	748.269	-0.058	0.155
-172.939	242.675	0.177	0.295
-171.925	224.880	-0.106	0.171
-170.910	181.178	-0.143	-0.209
-169.896	30.099	0.205	-0.173
-168.881	110.756	0.184	-0.220
-167.866	800.000	-0.097	-0.288
-166.852	-145.434	0.174	-0.016
-165.837	800.000	-0.061	-0.211
-164.823	800.000	0.024	-0.089
-163.808	-3.431	-0.130	0.090
-162.793	-200.000	0.039	-0.331
-161.779	-200.000	-0.020	0.241
-160.764	57.259	0.177	0.171
-159.750	43.378	0.166	0.151
-158.735	-75.795	-0.264	0.093
-157.720	87.806	-0.175	-0.193
-156.706	-106.108	0.045	0.010
-155.691	-200.000	-0.015	0.380
-154.677	800.000	0.073	0.234
-153.662	-200.000	-0.040	0.299
-152.647	72.479	0.225	0.233
-151.633	-200.000	0.009	-0.052
-150.618	-101.651	-0.381	0.092
-149.604	-14.790	-0.261	0.166
-148.589	-200.000	-0.023	-0.302
-147.574	-32.700	-0.313	-0.173
-146.560	800.000	0.068	-0.226
-145.545	-200.000	0.033	-0.206
-144.531	776.063	0.071	0.192
-143.516	-200.000	0.051	0.251
-142.502	-55.676	-0.251	-0.112
-141.487	1.921	-0.083	0.060
-140.472	-115.144	0.214	-0.040
-139.458	-6.061	0.243	0.165
-138.443	51.149	-0.144	0.135
-137.429	-200.000	0.001	0.052
-136.414	15.005	-0.379	0.294
-135.399	-138.936	-0.083	-0.009
-134.385	800.000	-0.073	0.219
-133.370	657.222	0.039	-0.098
-132.356	168.588	0.160	0.227
-131.341	800.000	-0.002	-0.006
-130.326	457.022	-0.059	0.130
-129.312	-74.271	-0.253	0.091
-128.297	-26.527	-0.184	-0.107
-127.283	-139.470	0.412	0.044
-126.268	-90.573	0.203	-0.058
-125.253	-94.341	0.108	0.029
-124.239	29.241	0.115	-0.097
-123.224	433.544	0.096	0.207
-122.210	800.000	0.065	0.186
-121.195	-134.167	0.114	0.014
-120.180	-24.094	0.462	0.274
-119.166	198.132	-0.028	-0.042
-118.151	800.000	-0.045	-0.125
-117.137	-47.854	-0.210	-0.101
-116.122	-200.000	-0.064	0.431
-115.107	61.247	0.295	0.291
-114.093	-200.000	-0.048	-0.231
-113.078	-2.601	0.237	-0.164
-112.064	-200.000	0.012	-0.300
-111.049	-200.000	-0.032	0.162
-110.034	-52.613	-0.273	-0.125
-109.020	33.680	-0.116	0.100
-108.005	-200.000	-0.032	0.235
-106.991	-113.706	-0.246	-0.048
-105.976	10.661	-0.430	-0.325
-104.962	-137.262	-0.098	-0.011
-103.947	269.795	0.118	0.206
-102.932	196.336	0.098	-0.148
-101.918	-113.369	0.255	0.050
-100.903	-200.000	0.016	0.135
-99.889	-200.000	-0.089	0.437
-98.874	304.457	-0.076	-0.139
-97.859	677.708	0.034	-0.087
-96.845	-87.517	0.251	0.075
-95.830	-166.232	0.145	-0.006
-94.816	557.252	0.022	0.053
-93.801	-145.092	0.064	0.006
-92.786	-200.000	-0.048	-0.252
-91.772	-10.310	-0.063	0.041
-90.757	-200.000	-0.077	0.335
-89.743	2.249	0.097	0.070
-88.728	-144.493	-0.034	0.003
-87.713	249.264	0.043	0.072
-86.699	411.808	-0.035	0.075
-85.684	129.289	0.109	-0.138
-84.670	-200.000	-0.051	-0.346
-83.655	5.146	-0.112	-0.082
-82.640	-162.913	0.154	0.007
-81.626	-180.498	-0.238	-0.005
-80.611	-83.439	-0.094	0.030
-79.597	-129.944	0.131	0.018
-78.582	-84.838	0.262	-0.082
-77.567	-200.000	0.023	0.211
-76.553	-200.000	0.043	0.253
-75.538	800.000	-0.093	-0.320
-74.524	0.179	0.132	-0.093
-73.509	295.211	0.056	0.101
-72.494	-66.586	-0.312	0.123
-71.480	-92.810	-0.167	-0.046
-70.465	-23.220	0.207	-0.123
-69.451	123.940	-0.093	-0.115
-68.436	-127.541	-0.308	-0.044
-67.422	-57.595	-0.235	0.102
-66.407	535.504	-0.011	-0.025
-65.392	191.372	0.243	0.362
-64.378	397.176	-0.104	-0.215
-63.363	-57.585	0.264	-0.114
-62.349	78.762	0.084	-0.089
-61.334	51.029	-0.688	-0.645
-60.319	800.000	-0.102	0.379
-59.305	660.277	-0.340	-0.865
-58.290	287.401	0.637	1.140
-57.276	586.064	0.628	1.529
-56.261	-200.000	97.523	569.723
-55.246	624.743	1397.091	3485.338
-54.232	186.371	2605.857	3836.966
-53.217	120.280	2182.106	2679.872
-52.203	46.084	1632.356	1495.287
-51.188	37.695	1366.815	1200.563
-50.173	34.476	1324.076	1143.709
-49.159	55.882	1372.507	1316.667
-48.144	59.954	1390.717	1358.907
-47.130	38.073	1345.081	1183.577
-46.115	34.470	1327.088	1146.092
-45.100	34.264	1322.731	1141.048
-44.086	34.206	1320.508	1138.739
-43.071	34.218	1317.888	1136.505
-42.057	34.147	1315.946	1134.366
-41.042	34.196	1314.511	1133.373
-40.027	34.206	1312.960	1132.051
-39.013	34.196	1310.617	1129.926
-37.998	34.283	1308.635	1128.687
-36.984	34.172	1307.820	1127.287
-35.969	34.235	1305.813	1125.885
-34.954	34.321	1303.355	1124.224
-33.940	34.349	1302.481	1123.595
-32.925	34.490	1300.877	1122.997
-31.911	34.382	1299.891	1121.465
-30.896	34.358	1298.295	1119.902
-29.881	34.339	1296.962	1118.597
-28.867	34.482	1295.223	1117.892
-27.852	34.343	1294.058	1116.024
-26.838	34.466	1292.367	1115.243
-25.823	34.378	1290.922	1113.434
-24.809	34.455	1289.731	1112.816
-23.794	34.380	1288.838	1111.560
-22.779	34.418	1287.461	1110.555
-21.765	34.421	1285.887	1109.171
-20.750	34.387	1284.608	1107.821
-19.736	34.279	1283.232	1105.965
-18.721	34.250	1282.186	1104.854
-17.706	34.262	1281.093	1103.939
-16.692	34.271	1279.810	1102.836
-15.677	34.217	1278.705	1101.530
-14.663	34.351	1277.670	1101.368
-13.648	34.284	1276.119	1099.604
-12.633	34.345	1274.883	1098.846
-11.619	34.256	1275.010	1098.396
-10.604	34.264	1273.854	1097.407
-9.590	34.306	1272.858	1096.742
-8.575	34.146	1272.270	1095.275
-7.560	34.239	1271.026	1094.694
-6.546	34.237	1270.614	1094.283
-5.531	34.290	1268.799	1092.984
-4.517	34.219	1268.323	1092.118
-3.502	34.128	1268.070	1091.339
-2.487	34.252	1266.339	1090.513
-1.473	34.201	1262.383	1086.776
-0.458	32.869	1247.756	1066.617
0.556	28.185	1229.346	1027.691
1.571	24.153	1234.790	1009.357
2.586	23.103	1250.278	1015.900
3.600	22.445	1239.232	1003.092
4.615	17.217	1167.762	917.014
5.629	9.034	1091.650	815.726
6.644	5.275	1070.811	781.313
7.659	4.956	1068.486	777.955
8.673	4.925	1066.869	776.552
9.688	4.885	1065.600	775.363
10.702	5.108	1064.135	775.339
11.717	10.249	1070.941	805.878
12.731	17.238	1081.725	848.958
13.746	19.232	1082.771	859.661
14.761	18.060	1080.650	852.060
15.775	17.038	1078.743	845.396
16.790	15.759	1077.009	837.596
17.804	15.090	1075.152	832.750
18.819	14.811	1073.651	830.130
19.834	14.526	1073.130	828.239
20.848	14.290	1072.112	826.206
21.863	14.113	1070.684	824.156
22.877	13.941	1070.416	823.028
23.892	14.012	1069.328	822.466
24.907	13.909	1069.048	821.669
25.921	13.962	1067.623	820.763
26.936	13.953	1066.655	819.904
27.950	14.026	1065.104	818.998
28.965	14.135	1063.632	818.330
29.980	14.133	1062.266	817.197
30.994	14.232	1060.932	816.584
32.009	14.172	1059.917	815.437
33.023	14.273	1058.958	815.122
34.038	14.161	1057.934	813.711
35.053	14.047	1057.011	812.372
36.067	14.125	1055.966	811.877
37.082	14.150	1054.900	811.110
38.096	14.154	1054.524	810.769
39.111	14.149	1053.559	809.930
40.126	14.089	1052.390	808.671
41.140	13.904	1051.023	806.650
42.155	13.831	1049.564	805.102
43.169	13.865	1048.785	804.600
44.184	13.822	1047.763	803.536
45.199	13.861	1046.588	802.752
46.213	14.003	1045.496	802.530
47.228	13.943	1044.996	801.786
48.242	14.023	1043.717	801.120
49.257	14.110	1042.618	800.620
50.271	13.940	1041.658	798.996
51.286	14.065	1041.056	799.065
52.301	13.935	1040.362	797.837
53.315	14.112	1037.880	796.713
54.330	13.996	1037.616	795.885
55.344	13.937	1036.602	794.750
56.359	14.045	1035.701	794.506
57.374	13.971	1034.880	793.456
58.388	13.823	1033.775	791.833
59.403	13.908	1033.066	791.623
60.417	13.827	1032.438	790.683
61.432	13.773	1031.864	789.917
62.447	13.783	1030.836	789.110
63.461	13.819	1029.546	788.224
64.476	13.705	1029.217	787.362
65.490	13.853	1027.890	786.976
66.505	13.861	1027.362	786.540
67.520	13.877	1026.564	785.935
68.534	14.033	1025.970	786.150
69.549	13.980	1024.888	785.001
70.563	13.703	1024.619	783.419
71.578	13.712	1023.808	782.768
72.593	13.749	1022.700	782.029
73.607	13.690	1022.195	781.296
74.622	13.634	1021.688	780.573
75.636	13.745	1020.725	780.291
76.651	13.660	1020.210	779.429
77.666	13.744	1019.129	778.930
78.680	13.716	1018.859	778.522
79.695	13.776	1018.062	778.127
80.709	13.828	1017.703	778.028
81.724	13.886	1017.084	777.758
82.739	13.933	1016.151	777.192
83.753	14.054	1015.275	777.022
84.768	14.234	1014.836	777.456
85.782	14.173	1013.684	776.222
86.797	14.173	1012.931	775.575
87.812	14.187	1011.846	774.742
88.826	14.080	1011.118	773.619
89.841	14.046	1010.228	772.712
90.855	14.235	1009.029	772.604
91.870	14.161	1008.131	771.504
92.884	14.207	1007.435	771.115
93.899	14.221	1006.395	770.315
94.914	14.324	1005.727	770.214
95.928	14.267	1004.715	769.108
96.943	14.281	1003.813	768.410
97.957	14.081	1003.353	767.068
98.972	14.170	1002.075	766.433
99.987	14.160	1001.087	765.563
101.001	14.246	1000.196	765.212
102.016	14.084	998.977	763.468
103.030	14.211	998.182	763.374
104.045	14.157	997.815	762.778
105.060	14.017	997.285	761.663
106.074	13.985	996.102	760.548
107.089	13.817	995.534	759.278
108.103	13.940	994.115	758.691
109.118	13.920	993.262	757.883
110.133	13.851	992.354	756.808
111.147	13.912	991.591	756.435
112.162	13.899	990.464	755.450
113.176	14.015	989.613	755.262
114.191	14.032	989.260	755.001
115.206	13.953	988.461	753.965
116.220	14.019	987.677	753.603
117.235	13.969	986.538	752.439
118.249	13.869	986.036	751.538
119.264	13.929	984.987	750.943
120.279	13.933	984.305	750.374
121.293	13.883	983.405	749.397
122.308	13.887	982.422	748.599
123.322	13.809	981.420	747.420
124.337	13.869	980.531	746.944
125.352	13.946	979.416	746.375
126.366	13.935	978.052	745.221
127.381	14.013	976.822	744.566
128.395	13.847	976.462	743.482
129.410	13.994	975.609	743.427
130.424	14.006	974.730	742.743
131.439	14.043	974.010	742.296
132.454	14.051	973.678	742.012
133.468	14.109	972.495	741.302
134.483	14.112	971.481	740.476
135.497	14.113	970.906	739.979
136.512	14.137	969.610	739.031
137.527	14.079	969.139	738.348
138.541	14.025	968.537	737.584
139.556	14.104	967.823	737.328
140.570	14.190	967.009	737.023
141.585	14.193	966.214	736.366
142.600	14.239	964.958	735.548
143.614	14.380	964.355	735.643
144.629	14.494	963.449	735.389
145.643	14.328	962.854	734.141
146.658	14.167	961.798	732.561
147.673	14.242	960.703	731.993
148.687	14.023	960.191	730.572
149.702	14.054	959.311	729.977
150.716	14.088	958.312	729.300
151.731	14.050	957.630	728.551
152.746	14.040	957.225	728.133
153.760	14.224	956.787	728.541
154.775	14.273	956.140	728.199
155.789	14.185	955.385	727.176
156.804	14.188	954.532	726.473
157.819	14.247	954.498	726.645
158.833	14.292	953.487	726.004
159.848	14.386	952.504	725.602
160.862	14.488	951.489	725.210
161.877	14.325	950.369	723.581
162.892	14.170	949.649	722.297
163.906	14.284	948.281	721.688
164.921	14.215	947.985	721.098
165.935	14.264	946.747	720.305
166.950	14.320	945.884	719.825
167.964	14.323	945.402	719.410
168.979	14.235	944.661	718.401
169.994	14.268	943.519	717.612
171.008	14.227	942.905	716.907
172.023	14.416	942.174	717.100
173.037	14.397	941.642	716.548
174.052	14.480	940.350	715.858
175.067	14.395	940.072	715.218
176.081	14.366	939.407	714.524
177.096	14.263	938.908	713.639
178.110	14.317	938.044	713.151
179.125	14.369	937.857	713.171
180.140	14.492	937.475	713.341
181.154	14.435	936.893	712.591
182.169	14.573	936.400	712.747
183.183	14.408	935.947	711.631
184.198	14.506	935.162	711.391
185.213	14.549	934.134	710.727
186.227	14.674	933.203	710.488
187.242	14.566	933.330	710.065
188.256	14.790	932.272	710.148
189.271	14.685	931.338	708.927
190.286	14.438	930.851	707.448
191.300	14.360	929.987	706.395
192.315	14.205	929.375	705.213
193.329	14.254	928.509	704.702
194.344	14.512	927.890	705.259
195.359	14.596	927.329	705.127
196.373	14.606	926.931	704.803
197.388	14.649	927.030	704.998
198.402	14.731	926.010	704.506
199.417	14.920	924.829	704.342
200.432	14.876	924.452	703.804
201.446	14.942	924.301	703.906
202.461	15.041	923.894	703.950
203.475	14.926	923.473	703.085
204.490	14.789	922.521	701.721
205.504	14.790	921.847	701.153
206.519	14.873	920.812	700.649
207.534	14.708	920.463	699.628
208.548	14.775	919.988	699.487
209.563	14.914	919.128	699.353
210.577	14.879	918.463	698.642
211.592	15.001	917.361	698.250
212.607	15.053	916.547	697.785
213.621	14.987	916.271	697.237
214.636	14.910	915.731	696.446
215.650	15.086	914.582	696.241
216.665	15.081	913.979	695.700
217.680	15.117	913.417	695.358
218.694	15.123	912.847	694.891
219.709	15.060	912.173	694.051
220.723	15.088	911.540	693.626
221.738	15.163	910.443	693.040
222.753	15.008	910.422	692.321
223.767	15.141	909.805	692.343
224.782	15.234	908.939	692.004
225.796	15.241	908.511	691.645
226.811	15.079	908.048	690.564
227.826	15.170	906.886	689.993
228.840	15.154	906.316	689.433
229.855	15.172	905.392	688.742
230.869	15.063	904.712	687.716
231.884	15.125	904.079	687.432
232.899	15.066	903.306	686.541
233.913	14.944	902.607	685.447
234.928	15.028	901.796	685.114
235.942	15.025	901.517	684.829
236.957	15.001	901.041	684.308
237.972	14.980	900.550	683.791
238.986	15.230	899.586	684.017
240.001	15.100	899.169	683.113
241.015	15.204	898.533	682.990
242.030	15.222	897.778	682.431
243.045	15.162	897.298	681.759
244.059	15.266	896.554	681.558
245.074	15.246	895.951	680.956
246.088	15.313	895.478	680.812
247.103	15.301	894.745	680.145
248.117	15.410	894.568	680.393
249.132	15.450	893.966	680.037
250.147	15.695	892.989	680.226
251.161	15.710	892.369	679.752
252.176	15.542	891.958	678.698
253.190	15.660	891.239	678.568
254.205	15.823	890.289	678.443
255.220	15.780	889.586	677.672
256.234	15.611	889.521	676.883
257.249	15.875	888.311	676.964
258.263	15.731	887.727	675.881
259.278	15.756	886.935	675.321
260.293	15.910	886.538	675.574
261.307	16.051	885.968	675.645
262.322	16.001	885.188	674.790
263.336	15.861	884.793	673.871
264.351	15.966	883.882	673.537
265.366	16.017	883.234	673.185
266.380	15.985	882.615	672.526
267.395	15.945	882.007	671.846
268.409	15.876	881.117	670.834
269.424	16.089	880.315	671.010
270.439	15.838	880.068	669.765
271.453	16.053	878.835	669.621
272.468	15.894	878.618	668.767
273.482	15.892	878.256	668.422
274.497	15.851	877.490	667.618
275.512	15.941	876.739	667.343
276.526	15.929	876.471	667.031
277.541	15.988	875.784	666.684
278.555	16.042	875.603	666.700
279.570	16.193	874.611	666.482
280.585	16.193	873.452	665.541
281.599	15.972	872.991	664.259
282.614	16.016	872.329	663.871
283.628	16.093	871.688	663.627
284.643	15.985	871.377	662.908
285.657	16.038	870.705	662.547
286.672	16.026	870.272	662.111
287.687	16.080	869.632	661.777
288.701	16.089	868.857	661.166
289.716	16.130	868.547	661.030
290.730	16.131	867.948	660.520
291.745	16.197	867.489	660.371
292.760	16.204	866.733	659.765
293.774	16.247	866.188	659.456
294.789	16.216	865.685	658.897
295.803	16.140	864.729	657.813
296.818	16.195	863.943	657.372
297.833	16.258	863.328	657.091
298.847	16.229	862.728	656.462
299.862	16.349	862.216	656.482
300.876	16.287	861.579	655.698
301.891	16.480	860.667	655.693
302.906	16.414	860.086	654.938
303.920	16.682	859.941	655.807
304.935	16.506	859.401	654.655
305.949	16.595	858.607	654.340
306.964	16.389	858.459	653.373
307.979	16.466	857.661	653.002
308.993	16.522	857.016	652.673
310.008	16.635	856.318	652.517
311.022	16.474	855.968	651.571
312.037	16.474	855.491	651.151
313.052	16.432	854.752	650.370
314.066	16.486	854.017	649.959
315.081	16.334	853.438	648.878
316.095	16.469	852.747	648.816
317.110	16.435	852.419	648.375
318.125	16.486	851.696	647.966
319.139	16.369	851.319	647.173
320.154	16.310	851.471	647.003
321.168	16.324	850.634	646.364
322.183	16.433	850.067	646.294
323.197	16.499	849.346	645.941
324.212	16.578	848.363	645.438
325.227	16.528	847.961	644.885
326.241	16.535	847.488	644.495
327.256	16.552	847.092	644.199
328.270	16.614	846.400	643.851
329.285	16.682	845.601	643.449
330.300	16.502	844.980	642.235
331.314	16.439	844.710	641.733
332.329	16.594	844.455	642.071
333.343	16.730	843.727	641.974
334.358	16.651	843.335	641.321
335.373	16.685	843.137	641.242
336.387	16.634	843.082	640.948
337.402	16.941	842.546	641.647
338.416	16.882	842.165	641.078
339.431	16.862	841.809	640.673
340.446	17.057	841.061	640.785
341.460	16.853	841.125	640.005
342.475	16.949	841.054	640.258
343.489	16.976	840.364	639.779
344.504	17.130	839.559	639.690
345.519	17.024	839.228	638.980
346.533	17.030	838.631	638.492
347.548	17.004	838.094	637.928
348.562	16.944	837.614	637.283
349.577	16.999	836.790	636.804
350.592	16.905	836.248	635.984
351.606	16.986	834.967	635.259
352.621	16.917	834.856	634.857
353.635	16.906	834.506	634.494
354.650	16.987	833.538	634.003
355.665	16.977	833.303	633.732
356.679	17.126	832.358	633.515
357.694	17.061	831.935	632.894
358.708	17.102	831.435	632.611
359.723	17.071	831.053	632.148
360.738	17.132	830.113	631.604
361.752	17.181	829.284	631.098
362.767	17.201	829.172	631.033
363.781	17.204	828.423	630.417
364.796	17.383	828.333	630.956
365.810	17.387	827.914	630.599
366.825	17.278	827.412	629.756
367.840	17.362	826.545	629.351
368.854	17.494	826.163	629.493
369.869	17.463	826.001	629.198
370.883	17.394	825.542	628.536
371.898	17.318	824.930	627.734
372.913	17.572	824.520	628.307
373.927	17.524	823.933	627.625
374.942	17.483	823.488	627.079
375.956	17.478	823.375	626.921
376.971	17.724	822.436	627.056
377.986	17.676	822.251	626.683
379.000	17.762	821.866	626.647
380.015	17.724	821.122	625.886
381.029	17.724	820.650	625.471
382.044	17.706	820.133	624.956
383.059	17.805	819.533	624.805
384.073	17.606	819.067	623.666
385.088	17.581	818.508	623.096
386.102	17.556	817.927	622.506
387.117	17.488	817.115	621.584
388.132	17.603	816.538	621.511
389.146	17.711	816.108	621.521
390.161	17.843	815.648	621.598
391.175	17.783	815.420	621.151
392.190	17.764	814.695	620.473
393.205	17.664	814.243	619.712
394.219	17.805	813.692	619.750
395.234	17.709	813.595	619.270
396.248	17.484	813.206	618.105
397.263	17.613	812.474	617.961
398.278	17.650	812.283	617.895
399.292	17.607	811.984	617.456
400.307	17.702	811.297	617.225
401.321	17.761	810.547	616.811
402.336	17.654	810.515	616.347
403.350	17.687	810.332	616.271
404.365	17.795	809.661	616.097
405.380	17.788	809.013	615.524
406.394	18.038	808.310	615.838
407.409	18.061	808.189	615.772
408.423	18.045	807.753	615.327
409.438	18.091	807.370	615.148
410.453	18.172	806.867	615.002
411.467	18.022	806.640	614.235
412.482	18.200	806.011	614.340
413.496	18.255	805.985	614.464
414.511	17.992	806.020	613.490
415.526	18.025	805.374	613.065
416.540	18.098	804.776	612.817
417.555	18.147	803.959	612.314
418.569	18.138	803.717	612.043
419.584	18.219	802.985	611.724
420.599	18.097	802.810	611.099
421.613	153.279	1370.030	1789.607
422.628	132.886	1452.688	1789.699
