DTS Sentinel unit serial number:	SN413079Multiplexer serial number:	ORYXHardware model number:	OX4-SRSoftware version number:	ORYX F/W v4.00 Oryx Data Collector v3.7.2.0data status	okinstallation	princeton_trtdifferential loss correction	single-endedforward channel	channel 1reverse channel	N/Adate	2019/09/17time	20:46:35forward acquisition time	60.00reverse acquisition time	0.00gamma	496.2192k internal	0.2332k external	0.2332temperature offset calibration	0.9980default loss term (dB/km)	0.3790temperature slope calibration	1.0000multiplexer offset coefficient	1.0000multiplexer slope coefficient	1.0000fibre end	0.00T internal ref (°C)	29.48T ext. ref 1 (°C)	0.21T ext. ref 2 (°C)	20.78length (m)	temperature (°C)	Stokes	anti-Stokes-747.200	18.346	0.301	-0.242
-746.185	44.126	-0.249	0.230
-745.171	308.305	0.063	-0.118
-744.156	800.000	0.077	0.268
-743.142	-200.000	0.103	0.495
-742.127	27.955	-0.204	-0.173
-741.112	800.000	-0.130	0.384
-740.098	422.963	0.071	-0.153
-739.083	-12.072	-0.182	-0.120
-738.069	-200.000	0.057	0.372
-737.054	440.825	0.161	0.355
-736.039	-200.000	-0.013	0.344
-735.025	-10.195	-0.137	0.091
-734.010	190.806	0.076	-0.115
-732.996	57.981	-0.109	-0.108
-731.981	-2.169	-0.087	-0.062
-730.966	-200.000	0.018	-0.115
-729.952	22.934	-0.147	-0.122
-728.937	67.316	-0.234	-0.240
-727.923	127.042	-0.149	0.190
-726.908	777.570	-0.029	0.080
-725.894	489.617	0.066	-0.152
-724.879	-54.314	-0.298	-0.136
-723.864	430.667	-0.151	-0.330
-722.850	-178.019	0.151	0.004
-721.835	800.000	0.017	0.057
-720.821	-131.396	0.068	0.009
-719.806	574.024	0.086	-0.210
-718.791	-6.969	0.337	-0.230
-717.777	-200.000	0.005	-0.219
-716.762	-50.210	0.120	0.057
-715.748	83.441	-0.159	-0.174
-714.733	-47.001	-0.132	0.065
-713.718	-193.208	-0.321	-0.003
-712.704	153.142	-0.115	0.158
-711.689	-59.631	-0.282	0.121
-710.675	244.006	-0.213	0.358
-709.660	425.978	-0.131	-0.283
-708.645	-200.000	0.036	-0.172
-707.631	-73.335	-0.108	-0.040
-706.616	335.979	-0.074	-0.144
-705.602	-200.000	-0.053	-0.251
-704.587	13.213	0.030	-0.023
-703.572	-200.000	-0.016	0.281
-702.558	800.000	-0.064	0.241
-701.543	185.938	-0.099	0.148
-700.529	-102.716	-0.202	0.048
-699.514	124.992	-0.211	-0.266
-698.499	-171.907	0.133	0.004
-697.485	-200.000	-0.076	-0.472
-696.470	-107.196	-0.079	-0.017
-695.456	-22.849	-0.326	-0.198
-694.441	-200.000	0.027	-0.275
-693.426	-99.081	0.053	-0.014
-692.412	800.000	-0.026	0.085
-691.397	-176.987	-0.177	-0.004
-690.383	800.000	-0.083	0.300
-689.368	-200.000	0.026	-0.216
-688.354	800.000	-0.041	0.172
-687.339	-32.898	0.090	0.050
-686.324	250.467	-0.075	0.128
-685.310	-200.000	0.261	0.001
-684.295	-171.733	0.345	-0.011
-683.281	285.349	-0.119	-0.215
-682.266	-64.434	0.431	-0.176
-681.251	305.960	0.101	0.188
-680.237	-200.000	0.036	0.284
-679.222	263.977	-0.089	0.156
-678.208	24.153	-0.245	0.203
-677.193	164.714	0.193	0.273
-676.178	-5.235	-0.115	-0.080
-675.164	-200.000	-0.009	-0.098
-674.149	-109.576	0.077	0.016
-673.135	69.456	0.230	0.238
-672.120	-200.000	-0.003	-0.110
-671.105	99.906	0.205	0.238
-670.091	621.275	0.077	-0.193
-669.076	-39.966	-0.269	-0.141
-668.062	353.940	0.068	-0.135
-667.047	-200.000	0.015	0.214
-666.032	-18.394	-0.344	-0.216
-665.018	-200.000	0.021	-0.160
-664.003	-187.271	-0.047	0.001
-662.989	-159.961	-0.204	-0.011
-661.974	-23.733	0.123	-0.074
-660.959	800.000	-0.022	-0.071
-659.945	225.555	0.023	-0.037
-658.930	-9.927	0.186	-0.124
-657.916	-200.000	0.004	-0.119
-656.901	800.000	0.041	-0.165
-655.886	140.022	-0.166	0.219
-654.872	-112.456	-0.327	-0.065
-653.857	240.871	0.125	0.210
-652.843	-96.556	-0.292	-0.077
-651.828	173.261	-0.244	-0.353
-650.814	-5.057	-0.090	-0.062
-649.799	-104.069	-0.322	0.075
-648.784	620.469	0.209	0.528
-647.770	149.906	-0.291	-0.396
-646.755	32.696	0.118	-0.102
-645.741	-8.832	-0.179	0.120
-644.726	-67.176	-0.125	0.049
-643.711	-39.865	-0.157	0.082
-642.697	9.705	-0.164	-0.125
-641.682	-113.553	0.295	0.058
-640.668	-45.137	-0.287	0.143
-639.653	-200.000	0.020	0.182
-638.638	-200.000	-0.004	-0.143
-637.624	202.414	0.147	0.228
-636.609	-178.287	0.214	0.005
-635.595	-200.000	0.016	-0.257
-634.580	48.049	0.127	-0.119
-633.565	800.000	-0.050	0.202
-632.551	-200.000	0.014	0.146
-631.536	-71.283	-0.146	0.055
-630.522	-104.199	0.407	0.095
-629.507	49.760	0.184	-0.174
-628.492	-96.773	-0.211	0.055
-627.478	94.526	-0.148	-0.168
-626.463	-59.531	-0.217	-0.094
-625.449	436.857	0.054	0.118
-624.434	800.000	-0.123	-0.442
-623.419	-200.000	0.022	0.151
-622.405	23.654	-0.160	0.132
-621.390	-55.262	0.177	0.080
-620.376	-200.000	0.025	-0.443
-619.361	-200.000	-0.026	0.154
-618.346	-200.000	0.018	-0.135
-617.332	800.000	0.090	0.307
-616.317	-200.000	-0.013	0.129
-615.303	800.000	0.043	0.167
-614.288	187.309	0.068	-0.101
-613.273	800.000	-0.078	-0.252
-612.259	-77.358	-0.518	-0.180
-611.244	19.761	-0.147	0.119
-610.230	-140.763	-0.128	0.013
-609.215	-200.000	-0.011	-0.070
-608.201	143.523	-0.185	0.247
-607.186	-56.537	0.276	-0.123
-606.171	-34.407	-0.102	-0.056
-605.157	683.037	0.124	0.323
-604.142	85.771	0.265	0.292
-603.128	800.000	-0.042	-0.120
-602.113	-98.676	0.262	-0.067
-601.098	-137.140	0.247	-0.028
-600.084	-152.911	-0.252	-0.018
-599.069	-200.000	0.004	0.184
-598.055	445.329	0.135	-0.298
-597.040	192.923	-0.144	-0.218
-596.025	61.325	0.242	-0.241
-595.011	149.451	0.055	-0.075
-593.996	-82.406	0.318	0.103
-592.982	-98.649	-0.266	-0.068
-591.967	-79.134	-0.308	-0.105
-590.952	110.882	-0.139	0.168
-589.938	-200.000	-0.082	-0.402
-588.923	94.346	-0.114	0.130
-587.909	22.069	0.246	-0.201
-586.894	-95.473	0.174	0.047
-585.879	800.000	-0.071	0.237
-584.865	-200.000	-0.051	0.367
-583.850	17.147	0.194	-0.154
-582.836	62.157	0.079	-0.079
-581.821	-141.618	-0.235	-0.024
-580.806	-28.979	-0.245	0.141
-579.792	302.756	0.031	0.058
-578.777	121.713	-0.183	0.228
-577.763	-89.629	0.113	-0.033
-576.748	151.944	-0.330	-0.449
-575.733	614.698	0.107	-0.268
-574.719	-200.000	0.031	-0.271
-573.704	-200.000	-0.022	0.286
-572.690	-144.714	0.048	-0.004
-571.675	-200.000	0.003	0.081
-570.661	100.005	0.163	-0.188
-569.646	73.097	-0.255	-0.267
-568.631	-124.172	-0.381	0.060
-567.617	88.731	-0.342	-0.381
-566.602	-85.022	-0.125	0.039
-565.588	351.382	0.101	-0.199
-564.573	-162.927	-0.091	-0.004
-563.558	-63.691	-0.114	-0.047
-562.544	-17.863	-0.215	-0.135
-561.529	-45.748	0.083	0.041
-560.515	167.557	-0.068	0.096
-559.500	-52.771	0.224	-0.103
-558.485	-1.478	-0.232	0.164
-557.471	-81.567	0.157	-0.052
-556.456	-49.842	-0.620	0.294
-555.442	-12.897	0.198	0.128
-554.427	-77.951	-0.156	0.054
-553.412	-200.000	0.003	0.135
-552.398	-106.176	-0.163	-0.037
-551.383	483.861	-0.049	-0.111
-550.369	25.920	0.304	0.253
-549.354	-45.854	0.256	0.126
-548.339	0.499	-0.187	-0.133
-547.325	-21.920	0.137	-0.083
-546.310	-21.207	-0.076	0.047
-545.296	-145.209	0.263	-0.024
-544.281	634.494	0.092	-0.233
-543.266	-0.299	0.113	-0.080
-542.252	-37.095	-0.161	0.086
-541.237	-200.000	-0.053	0.319
-540.223	-134.836	0.138	0.017
-539.208	428.924	-0.057	-0.123
-538.193	344.713	0.112	0.219
-537.179	800.000	0.051	-0.218
-536.164	-139.063	0.079	-0.009
-535.150	151.677	0.187	-0.254
-534.135	28.382	0.292	0.246
-533.121	-59.876	0.198	0.084
-532.106	-27.076	0.279	-0.162
-531.091	-200.000	0.041	-0.332
-530.077	-66.181	-0.313	-0.125
-529.062	145.270	0.172	-0.230
-528.048	-128.145	-0.275	0.039
-527.033	95.807	-0.196	0.223
-526.018	49.371	0.167	-0.157
-525.004	81.343	0.064	-0.069
-523.989	-136.181	-0.133	-0.016
-522.975	800.000	0.082	0.297
-521.960	-177.981	0.054	-0.001
-520.945	-200.000	-0.055	0.284
-519.931	-113.409	0.180	-0.035
-518.916	780.323	0.057	0.155
-517.902	-64.340	0.127	-0.052
-516.887	98.812	-0.173	-0.199
-515.872	122.591	-0.162	-0.202
-514.858	800.000	0.029	0.097
-513.843	-73.323	-0.262	-0.096
-512.829	-43.901	-0.230	-0.115
-511.814	253.054	0.125	-0.212
-510.799	-200.000	-0.030	-0.356
-509.785	-170.511	-0.159	0.006
-508.770	517.668	-0.046	0.107
-507.756	-73.101	0.259	-0.095
-506.741	199.532	-0.093	-0.141
-505.726	-200.000	-0.001	-0.583
-504.712	136.413	-0.221	-0.288
-503.697	433.576	0.183	-0.396
-502.683	57.108	0.124	-0.121
-501.668	-12.950	0.373	-0.242
-500.653	11.591	0.215	0.164
-499.639	-140.754	0.235	-0.024
-498.624	101.591	-0.071	0.082
-497.610	800.000	0.057	0.221
-496.595	123.704	-0.139	0.174
-495.581	-93.624	-0.275	-0.076
-494.566	-64.743	0.169	-0.068
-493.551	434.817	0.074	-0.160
-492.537	-119.249	-0.181	0.031
-491.522	-56.292	0.059	0.026
-490.508	-200.000	0.014	-0.136
-489.493	800.000	0.071	-0.218
-488.478	-54.128	0.131	-0.059
-487.464	-200.000	0.041	-0.227
-486.449	314.559	-0.222	0.416
-485.435	191.924	-0.131	0.196
-484.420	80.341	-0.139	-0.149
-483.405	353.110	-0.127	0.251
-482.391	-6.357	-0.270	0.184
-481.376	20.788	0.103	-0.083
-480.362	-52.404	-0.387	0.178
-479.347	-122.763	-0.171	0.027
-478.332	102.092	0.100	-0.116
-477.318	-200.000	-0.051	-0.316
-476.303	19.421	-0.190	-0.152
-475.289	13.882	0.310	0.240
-474.274	800.000	0.024	0.077
-473.259	187.105	-0.185	-0.275
-472.245	-145.720	-0.164	-0.015
-471.230	-63.939	0.234	0.095
-470.216	-53.035	-0.118	-0.054
-469.201	-156.318	0.027	0.002
-468.186	-63.285	-0.110	0.045
-467.172	-122.488	-0.128	-0.021
-466.157	-200.000	0.151	0.000
-465.143	145.812	-0.143	-0.191
-464.128	279.157	0.142	0.252
-463.113	800.000	0.057	0.217
-462.099	-36.347	-0.108	0.058
-461.084	792.086	0.056	-0.152
-460.070	145.168	0.122	-0.163
-459.055	-200.000	-0.016	-0.264
-458.040	-46.444	0.292	-0.142
-457.026	-187.879	0.152	0.002
-456.011	-9.242	-0.197	0.131
-454.997	696.390	-0.092	-0.242
-453.982	800.000	0.037	-0.112
-452.968	-146.553	-0.185	-0.016
-451.953	14.541	0.169	0.131
-450.938	-56.738	0.049	-0.022
-449.924	-200.000	-0.183	-0.001
-448.909	-5.380	-0.184	-0.126
-447.895	800.000	-0.090	-0.386
-446.880	-85.948	0.239	0.074
-445.865	536.918	-0.056	0.133
-444.851	-116.335	0.228	0.042
-443.836	-63.631	-0.152	-0.062
-442.822	-89.417	0.280	0.082
-441.807	-28.799	-0.260	-0.149
-440.792	-1.849	-0.368	0.258
-439.778	-89.273	-0.260	0.076
-438.763	-200.000	-0.067	-0.376
-437.749	266.048	0.153	0.266
-436.734	-100.779	-0.300	0.073
-435.719	-71.056	-0.148	0.055
-434.705	334.570	-0.082	0.159
-433.690	427.106	-0.094	0.203
-432.676	84.341	0.115	0.125
-431.661	22.846	0.034	0.028
-430.646	-200.000	-0.001	0.107
-429.632	800.000	0.077	0.320
-428.617	156.448	0.061	-0.084
-427.603	-37.017	0.201	0.107
-426.588	800.000	-0.093	-0.375
-425.573	28.767	-0.026	-0.022
-424.559	20.332	0.344	0.276
-423.544	-56.388	0.324	0.143
-422.530	-200.000	0.004	-0.064
-421.515	37.721	0.251	0.221
-420.500	197.817	-0.128	0.194
-419.486	81.498	-0.075	-0.081
-418.471	104.330	0.236	0.276
-417.457	-200.000	0.074	0.405
-416.442	-200.000	0.006	-0.058
-415.428	-200.000	0.016	0.185
-414.413	-61.135	-0.129	-0.054
-413.398	-200.000	0.023	-0.108
-412.384	-12.713	-0.062	0.040
-411.369	800.000	-0.096	-0.271
-410.355	75.880	-0.189	-0.199
-409.340	135.072	-0.300	0.387
-408.325	-149.338	-0.138	0.011
-407.311	743.446	0.114	-0.305
-406.296	-174.460	0.285	-0.008
-405.282	-200.000	-0.038	-0.195
-404.267	-70.301	-0.099	-0.037
-403.252	471.253	0.190	-0.424
-402.238	138.902	-0.091	0.119
-401.223	15.612	-0.124	0.097
-400.209	-200.000	0.011	0.082
-399.194	-84.575	0.369	0.116
-398.179	-7.437	0.174	-0.117
-397.165	171.720	0.131	-0.187
-396.150	-63.501	0.248	0.101
-395.136	14.128	-0.118	-0.091
-394.121	20.390	-0.309	0.248
-393.106	-40.063	0.230	-0.119
-392.092	-75.189	-0.140	-0.050
-391.077	-186.079	0.120	0.002
-390.063	3.038	0.067	0.048
-389.048	56.009	-0.301	-0.290
-388.033	6.453	-0.209	0.154
-387.019	-200.000	-0.049	0.284
-386.004	800.000	-0.079	0.228
-384.990	-200.000	0.032	0.183
-383.975	-200.000	0.026	-0.123
-382.960	800.000	0.031	0.106
-381.946	-200.000	-0.013	0.265
-380.931	149.466	-0.159	0.214
-379.917	78.710	-0.048	-0.051
-378.902	190.280	0.116	0.172
-377.888	50.374	0.152	0.142
-376.873	356.692	-0.121	0.240
-375.858	800.000	-0.031	-0.130
-374.844	800.000	0.068	0.235
-373.829	93.486	0.032	-0.036
-372.815	326.782	-0.020	-0.039
-371.800	16.694	-0.135	0.106
-370.785	67.009	0.018	0.018
-369.771	-32.118	-0.050	-0.028
-368.756	-19.144	-0.083	-0.051
-367.742	-101.978	-0.263	0.063
-366.727	-200.000	-0.028	0.280
-365.712	-200.000	0.064	-0.286
-364.698	800.000	-0.079	-0.222
-363.683	331.432	-0.133	-0.254
-362.669	231.391	0.095	0.155
-361.654	166.021	0.138	0.194
-360.639	-31.941	0.090	0.050
-359.625	800.000	-0.064	-0.187
-358.610	115.495	0.073	0.088
-357.596	-122.401	-0.188	0.030
-356.581	225.070	-0.250	-0.401
-355.566	-158.011	-0.255	0.015
-354.552	303.583	0.133	-0.244
-353.537	800.000	0.093	0.297
-352.523	-48.496	-0.160	0.076
-351.508	-0.985	-0.181	-0.127
-350.493	238.882	0.207	0.341
-349.479	434.858	0.087	-0.188
-348.464	800.000	0.075	0.288
-347.450	-109.665	0.259	0.054
-346.435	-200.000	0.061	0.300
-345.420	455.090	-0.101	-0.221
-344.406	800.000	-0.106	0.351
-343.391	-92.576	0.180	-0.050
-342.377	-13.780	-0.298	0.191
-341.362	800.000	0.057	-0.241
-340.348	-57.967	0.157	0.068
-339.333	-105.603	0.204	-0.046
-338.318	-94.331	-0.345	-0.093
-337.304	155.522	-0.237	0.324
-336.289	22.850	-0.052	0.042
-335.275	38.454	-0.401	-0.354
-334.260	-14.324	-0.389	0.248
-333.245	-200.000	-0.022	0.327
-332.231	-200.000	-0.002	0.184
-331.216	-100.277	0.143	0.035
-330.202	97.874	0.142	-0.161
-329.187	-200.000	0.004	-0.259
-328.172	800.000	0.087	-0.265
-327.158	-152.875	0.188	-0.013
-326.143	91.530	-0.168	0.187
-325.129	-21.583	-0.122	-0.074
-324.114	111.191	-0.110	0.132
-323.099	800.000	-0.069	0.219
-322.085	-200.000	0.045	-0.230
-321.070	140.799	0.078	0.102
-320.056	-200.000	-0.019	0.220
-319.041	-200.000	-0.056	0.573
-318.026	-21.085	-0.213	-0.129
-317.012	77.958	0.141	0.148
-315.997	-200.000	0.097	0.455
-314.983	-200.000	-0.012	0.187
-313.968	-81.479	-0.096	0.031
-312.953	-65.525	0.319	0.127
-311.939	-130.226	-0.100	0.013
-310.924	-200.000	-0.020	-0.140
-309.910	-15.753	0.043	-0.027
-308.895	-19.410	0.131	0.080
-307.880	-200.000	-0.081	0.419
-306.866	-42.623	0.111	-0.056
-305.851	71.377	0.264	0.271
-304.837	545.186	0.011	-0.026
-303.822	232.511	0.091	-0.148
-302.807	184.198	-0.082	-0.120
-301.793	56.608	-0.312	-0.300
-300.778	219.992	-0.030	-0.047
-299.764	800.000	-0.048	0.168
-298.749	-66.481	-0.292	-0.115
-297.735	-2.047	0.228	-0.159
-296.720	77.278	-0.190	-0.200
-295.705	12.181	0.201	-0.153
-294.691	-25.307	0.257	0.150
-293.676	223.492	0.067	-0.107
-292.662	5.714	0.181	0.132
-291.647	110.270	0.203	-0.240
-290.632	78.852	0.171	-0.181
-289.618	-62.453	0.087	0.036
-288.603	-165.609	0.257	0.011
-287.589	-21.483	-0.342	-0.206
-286.574	107.884	0.061	-0.071
-285.559	-200.000	0.006	-0.608
-284.545	-200.000	-0.002	-0.047
-283.530	-11.972	-0.345	-0.224
-282.516	46.721	0.424	0.389
-281.501	-116.820	0.119	0.021
-280.486	24.804	-0.123	-0.101
-279.472	800.000	0.051	-0.150
-278.457	-55.509	-0.278	-0.123
-277.443	-200.000	0.005	-0.190
-276.428	414.864	-0.101	-0.212
-275.413	-39.115	0.099	-0.051
-274.399	18.687	0.290	-0.229
-273.384	-120.315	-0.063	0.011
-272.370	-113.236	0.331	-0.064
-271.355	152.719	-0.038	0.051
-270.340	-141.734	0.127	-0.013
-269.326	-2.656	-0.149	-0.103
-268.311	-78.121	0.153	-0.052
-267.297	-142.175	0.246	-0.024
-266.282	800.000	-0.076	0.233
-265.267	-95.266	-0.149	0.040
-264.253	1.525	-0.258	0.183
-263.238	-127.901	-0.365	0.052
-262.224	-92.324	0.240	-0.067
-261.209	25.489	-0.117	-0.096
-260.195	383.426	-0.081	0.166
-259.180	800.000	-0.070	0.221
-258.165	-200.000	0.060	0.296
-257.151	-200.000	-0.036	0.261
-256.136	-200.000	-0.031	-0.211
-255.122	278.090	0.244	-0.428
-254.107	800.000	-0.084	0.323
-253.092	37.767	0.191	0.168
-252.078	-200.000	-0.020	-0.322
-251.063	539.328	-0.058	0.136
-250.049	-19.478	0.076	0.046
-249.034	-62.579	0.299	0.123
-248.019	-118.652	0.369	-0.064
-247.005	617.543	0.065	0.161
-245.990	52.091	0.180	-0.169
-244.976	800.000	0.036	0.137
-243.961	800.000	-0.028	0.077
-242.946	25.804	-0.319	0.262
-241.932	117.768	-0.282	0.343
-240.917	516.626	-0.089	-0.205
-239.903	81.277	0.115	0.123
-238.888	-65.321	0.379	-0.151
-237.873	-200.000	-0.012	-0.116
-236.859	-113.679	0.085	0.016
-235.844	151.460	-0.102	-0.137
-234.830	800.000	-0.064	-0.226
-233.815	96.957	-0.152	-0.172
-232.800	188.438	-0.038	-0.057
-231.786	33.265	0.153	-0.131
-230.771	472.863	-0.047	0.105
-229.757	-132.516	-0.248	0.032
-228.742	-200.000	0.020	-0.228
-227.727	21.651	0.236	-0.190
-226.713	-200.000	-0.009	0.104
-225.698	193.314	0.049	-0.073
-224.684	74.032	0.125	0.130
-223.669	94.908	0.103	-0.116
-222.655	-200.000	-0.003	-0.054
-221.640	153.314	0.057	0.078
-220.625	15.538	0.344	0.266
-219.611	174.096	0.110	-0.157
-218.596	-200.000	-0.027	0.139
-217.582	-134.434	-0.609	-0.074
-216.567	-59.580	0.296	-0.125
-215.552	-161.390	0.062	0.003
-214.538	238.305	0.091	-0.149
-213.523	199.599	0.186	-0.280
-212.509	-19.106	0.217	0.133
-211.494	-200.000	0.013	0.143
-210.479	-200.000	0.009	-0.183
-209.465	-68.077	0.148	0.057
-208.450	-151.577	-0.152	0.011
-207.436	-200.000	-0.002	-0.040
-206.421	211.284	-0.039	0.060
-205.406	800.000	0.068	-0.219
-204.392	-122.556	-0.253	-0.041
-203.377	-160.694	-0.147	-0.008
-202.363	-128.469	-0.218	-0.030
-201.348	-200.000	-0.077	0.363
-200.333	-106.740	0.035	-0.008
-199.319	497.852	-0.057	0.129
-198.304	800.000	0.059	-0.229
-197.290	-26.998	-0.158	0.091
-196.275	480.363	0.070	0.156
-195.260	49.131	0.315	-0.291
-194.246	249.504	-0.117	-0.195
-193.231	800.000	0.078	0.283
-192.217	87.081	-0.250	-0.272
-191.202	46.857	0.142	-0.130
-190.187	-39.301	0.083	-0.043
-189.173	183.095	0.058	-0.084
-188.158	800.000	0.089	-0.275
-187.144	-181.109	0.111	-0.002
-186.129	-146.687	0.185	-0.016
-185.114	-61.644	-0.040	0.017
-184.100	86.594	0.269	-0.292
-183.085	11.431	0.243	0.183
-182.071	-200.000	-0.015	0.329
-181.056	134.790	0.161	0.206
-180.042	269.941	0.128	0.221
-179.027	-139.855	-0.169	-0.018
-178.012	48.645	0.214	0.198
-176.998	-44.530	0.222	-0.109
-175.983	313.821	0.088	0.163
-174.969	-49.067	-0.072	0.034
-173.954	-104.110	0.380	0.087
-172.939	-121.118	-0.180	0.030
-171.925	-69.275	-0.214	-0.081
-170.910	800.000	0.107	0.312
-169.896	-33.354	-0.348	0.190
-168.881	347.732	-0.040	0.077
-167.866	-60.093	-0.065	0.027
-166.852	-52.763	0.236	-0.107
-165.837	147.528	-0.168	-0.222
-164.823	-120.325	-0.099	0.017
-163.808	-200.000	-0.043	0.233
-162.793	322.744	-0.095	0.178
-161.779	-200.000	0.002	-0.122
-160.764	-200.000	0.013	0.396
-159.750	25.949	-0.070	-0.057
-158.735	-75.001	0.171	-0.060
-157.720	-92.128	0.205	-0.057
-156.706	-60.098	-0.434	-0.182
-155.691	81.547	0.166	0.177
-154.677	-115.440	0.362	0.067
-153.662	13.851	0.193	0.147
-152.647	-86.087	0.125	-0.038
-151.633	800.000	-0.026	-0.081
-150.618	287.205	-0.074	0.132
-149.604	-200.000	-0.011	0.212
-148.589	-200.000	-0.000	-0.391
-147.574	-37.388	-0.087	0.046
-146.560	154.217	0.164	-0.221
-145.545	-151.915	-0.339	-0.024
-144.531	-200.000	0.020	0.295
-143.516	-200.000	0.035	0.280
-142.502	-200.000	0.014	0.520
-141.487	-47.420	-0.428	-0.204
-140.472	-200.000	-0.015	-0.368
-139.458	8.995	0.334	0.248
-138.443	376.684	-0.128	0.256
-137.429	800.000	-0.079	0.271
-136.414	-96.441	-0.250	0.065
-135.399	640.299	-0.036	0.090
-134.385	50.178	-0.092	0.085
-133.370	572.689	0.070	0.166
-132.356	112.598	0.187	-0.223
-131.341	-9.912	0.367	0.240
-130.326	739.416	-0.072	-0.189
-129.312	-59.687	-0.123	0.052
-128.297	-55.029	-0.176	-0.078
-127.283	120.976	-0.226	0.276
-126.268	-50.079	-0.138	-0.064
-125.253	609.807	-0.043	-0.105
-124.239	-43.308	0.177	-0.088
-123.224	-160.118	0.180	0.010
-122.210	-4.818	-0.138	0.094
-121.195	-14.097	0.124	0.078
-120.180	-32.505	0.129	-0.071
-119.166	-11.057	-0.064	0.042
-118.151	-164.622	-0.166	-0.007
-117.137	-200.000	-0.110	0.520
-116.122	-97.016	0.188	0.048
-115.107	800.000	0.016	-0.050
-114.093	67.430	0.047	-0.047
-113.078	184.907	-0.109	-0.159
-112.064	741.784	0.063	0.166
-111.049	-200.000	0.020	-0.165
-110.034	-200.000	-0.014	-0.131
-109.020	-72.665	0.223	0.081
-108.005	5.904	0.195	-0.142
-106.991	-108.735	-0.062	-0.013
-105.976	-200.000	-0.112	0.484
-104.962	139.871	-0.117	0.151
-103.947	626.375	0.067	-0.165
-102.932	-80.646	0.313	-0.102
-101.918	-34.038	-0.368	0.198
-100.903	1.152	0.170	-0.120
-99.889	-170.002	-0.084	-0.003
-98.874	800.000	-0.056	0.228
-97.859	57.614	0.090	0.086
-96.845	-100.110	0.132	0.032
-95.830	-200.000	-0.003	0.123
-94.816	-200.000	-0.083	0.543
-93.801	-121.496	0.199	0.032
-92.786	17.264	-0.377	0.294
-91.772	296.632	0.118	-0.212
-90.757	-147.122	0.259	-0.022
-89.743	237.043	0.069	0.112
-88.728	55.589	-0.350	-0.332
-87.713	482.666	0.076	-0.170
-86.699	152.448	-0.170	0.227
-85.684	680.086	0.080	0.204
-84.670	-200.000	0.028	0.369
-83.655	-117.179	-0.249	-0.044
-82.640	-74.945	0.175	-0.062
-81.626	800.000	0.056	0.220
-80.611	-50.066	-0.201	0.093
-79.597	29.621	-0.122	0.102
-78.582	144.429	-0.104	-0.136
-77.567	-144.245	0.141	-0.013
-76.553	216.778	0.148	0.232
-75.538	-51.234	0.090	0.041
-74.524	10.730	0.230	0.172
-73.509	-71.676	0.220	0.081
-72.494	654.361	0.122	0.306
-71.480	607.891	-0.112	0.274
-70.465	262.680	-0.129	-0.219
-69.451	-87.801	0.256	-0.075
-68.436	800.000	0.035	0.097
-67.422	67.791	0.019	0.019
-66.407	219.026	-0.125	-0.196
-65.392	150.871	0.142	0.189
-64.378	-200.000	-0.008	0.334
-63.363	150.625	0.184	-0.246
-62.349	-200.000	-0.013	-0.073
-61.334	100.300	-1.140	-1.296
-60.319	1.867	0.337	0.238
-59.305	399.792	-0.468	-0.960
-58.290	292.773	0.784	1.400
-57.276	308.975	0.654	1.196
-56.261	-200.000	108.887	656.729
-55.246	504.998	1474.720	3344.911
-54.232	151.829	2637.297	3521.001
-53.217	109.026	2137.573	2503.901
-52.203	41.130	1598.825	1414.686
-51.188	32.894	1347.445	1142.615
-50.173	29.985	1307.966	1091.965
-49.159	57.735	1362.052	1304.403
-48.144	58.802	1376.592	1324.647
-47.130	33.226	1334.000	1133.020
-46.115	29.717	1316.219	1097.093
-45.100	29.409	1311.372	1091.191
-44.086	29.489	1308.874	1089.536
-43.071	29.311	1306.849	1086.761
-42.057	29.279	1304.775	1084.801
-41.042	29.375	1303.017	1083.861
-40.027	29.407	1301.246	1082.534
-39.013	29.392	1299.672	1081.095
-37.998	29.372	1297.547	1079.170
-36.984	29.412	1296.058	1078.117
-35.969	29.483	1294.266	1077.000
-34.954	29.466	1292.936	1075.752
-33.940	29.460	1291.399	1074.393
-32.925	29.528	1290.020	1073.602
-31.911	29.569	1288.508	1072.539
-30.896	29.616	1286.973	1071.490
-29.881	29.579	1285.967	1070.396
-28.867	29.668	1284.713	1069.824
-27.852	29.555	1283.437	1068.068
-26.838	29.515	1282.060	1066.650
-25.823	29.623	1280.202	1065.681
-24.809	29.513	1279.525	1064.443
-23.794	29.566	1277.770	1063.244
-22.779	29.591	1276.123	1061.975
-21.765	29.544	1275.441	1061.095
-20.750	29.553	1273.878	1059.805
-19.736	29.502	1272.808	1058.580
-18.721	29.389	1271.273	1056.613
-17.706	29.359	1270.557	1055.806
-16.692	29.500	1268.973	1055.257
-15.677	29.419	1268.501	1054.358
-14.663	29.539	1266.954	1053.715
-13.648	29.365	1266.333	1052.163
-12.633	29.440	1265.126	1051.547
-11.619	29.430	1264.288	1050.751
-10.604	29.465	1263.507	1050.262
-9.590	29.441	1262.448	1049.202
-8.575	29.405	1261.621	1048.267
-7.560	29.556	1260.243	1047.938
-6.546	29.413	1259.653	1046.593
-5.531	29.476	1258.968	1046.343
-4.517	29.380	1258.486	1045.354
-3.502	29.317	1257.644	1044.260
-2.487	29.286	1256.382	1042.991
-1.473	29.328	1251.227	1038.906
-0.458	27.087	1235.814	1013.584
0.556	20.908	1216.798	967.301
1.571	16.299	1221.177	944.965
2.586	14.997	1235.650	948.698
3.600	14.898	1223.361	938.623
4.615	11.018	1152.962	863.970
5.629	3.872	1080.253	773.761
6.644	0.463	1061.369	743.393
7.659	0.176	1058.943	740.216
8.673	0.076	1057.983	738.988
9.688	0.126	1056.827	738.360
10.702	0.212	1054.984	737.430
11.717	4.574	1059.603	762.010
12.731	11.966	1069.607	805.603
13.746	16.388	1074.565	831.069
14.761	16.964	1075.116	834.251
15.775	16.130	1073.414	828.761
16.790	15.056	1071.271	821.767
17.804	14.201	1070.156	816.641
18.819	14.006	1068.703	814.507
19.834	13.761	1068.110	812.781
20.848	13.479	1067.056	810.527
21.863	13.221	1065.930	808.339
22.877	13.210	1065.168	807.633
23.892	13.015	1065.014	806.494
24.907	13.097	1063.634	805.779
25.921	13.104	1063.446	805.597
26.936	13.241	1062.073	805.155
27.950	13.228	1060.988	804.197
28.965	13.381	1059.576	803.799
29.980	13.403	1058.389	802.933
30.994	13.437	1057.244	802.162
32.009	13.460	1056.535	801.664
33.023	13.326	1055.916	800.470
34.038	13.266	1054.651	799.151
35.053	13.165	1054.310	798.338
36.067	13.196	1053.313	797.657
37.082	13.347	1052.024	797.343
38.096	13.351	1051.413	796.826
39.111	13.288	1050.685	795.902
40.126	13.226	1049.315	794.494
41.140	13.118	1048.542	793.322
42.155	13.175	1047.318	792.597
43.169	13.095	1046.413	791.460
44.184	12.976	1045.493	790.124
45.199	13.132	1044.191	789.816
46.213	12.992	1043.529	788.578
47.228	13.078	1042.255	787.954
48.242	13.082	1040.971	786.931
49.257	13.155	1040.027	786.497
50.271	13.182	1039.670	786.287
51.286	13.207	1038.604	785.528
52.301	13.211	1037.366	784.540
53.315	13.144	1036.630	783.599
54.330	13.096	1035.440	782.403
55.344	13.196	1034.492	782.088
56.359	13.119	1033.876	781.189
57.374	13.084	1032.618	780.007
58.388	13.034	1031.564	778.904
59.403	13.141	1030.749	778.723
60.417	13.074	1030.059	777.817
61.432	13.041	1029.496	777.169
62.447	13.044	1028.546	776.399
63.461	13.019	1027.821	775.664
64.476	13.037	1027.052	775.098
65.490	13.032	1026.207	774.371
66.505	13.081	1025.128	773.719
67.520	13.060	1024.509	773.084
68.534	13.023	1024.114	772.543
69.549	13.088	1023.142	772.048
70.563	13.077	1022.476	771.423
71.578	12.966	1021.628	770.195
72.593	12.937	1021.308	769.755
73.607	12.851	1020.606	768.753
74.622	12.903	1019.877	768.378
75.636	13.008	1019.016	768.152
76.651	12.978	1018.421	767.497
77.666	13.027	1017.454	766.926
78.680	13.001	1016.787	766.234
79.695	12.996	1016.201	765.702
80.709	13.072	1015.580	765.517
81.724	13.188	1014.699	765.324
82.739	13.036	1014.422	764.345
83.753	13.178	1013.630	764.338
84.768	13.297	1012.462	763.940
85.782	13.320	1011.518	763.267
86.797	13.235	1010.646	762.145
87.812	13.239	1010.126	761.709
88.826	13.157	1008.896	760.335
89.841	13.168	1008.035	759.669
90.855	13.230	1007.276	759.314
91.870	13.185	1006.476	758.436
92.884	13.332	1005.048	757.967
93.899	13.419	1004.335	757.761
94.914	13.396	1003.611	757.041
95.928	13.468	1002.865	756.743
96.943	13.279	1002.233	755.333
97.957	13.225	1001.464	754.443
98.972	13.135	1000.545	753.272
99.987	13.218	999.589	752.863
101.001	13.198	998.838	752.139
102.016	13.379	997.388	751.806
103.030	13.389	996.736	751.291
104.045	13.361	995.932	750.495
105.060	13.277	994.922	749.287
106.074	13.208	993.964	748.185
107.089	13.147	993.222	747.284
108.103	13.099	992.038	746.111
109.118	13.251	990.863	745.848
110.133	13.121	990.503	744.923
111.147	13.106	989.734	744.211
112.162	13.258	988.744	744.087
113.176	13.274	988.151	743.644
114.191	13.220	987.409	742.777
115.206	13.172	986.889	742.107
116.220	13.207	985.867	741.428
117.235	13.364	984.406	740.967
118.249	13.181	984.275	739.985
119.264	13.156	983.241	739.028
120.279	13.153	982.315	738.253
121.293	13.290	981.518	738.204
122.308	13.229	980.504	737.102
123.322	13.087	979.945	735.986
124.337	13.147	978.887	735.390
125.352	13.168	977.714	734.539
126.366	13.162	976.603	733.613
127.381	13.207	975.672	733.050
128.395	13.189	974.547	732.059
129.410	13.125	974.186	731.440
130.424	13.174	973.230	730.875
131.439	13.344	971.775	730.465
132.454	13.360	970.945	729.848
133.468	13.225	970.467	728.831
134.483	13.289	969.764	728.516
135.497	13.253	968.844	727.605
136.512	13.295	967.931	727.038
137.527	13.179	967.330	726.015
138.541	13.345	966.453	726.020
139.556	13.382	965.712	725.560
140.570	13.285	965.041	724.567
141.585	13.330	964.397	724.217
142.600	13.512	963.116	723.988
143.614	13.490	962.029	723.010
144.629	13.405	961.926	722.497
145.643	13.524	960.691	722.023
146.658	13.411	959.817	720.812
147.673	13.171	958.837	718.965
148.687	13.447	957.942	719.433
149.702	13.319	956.944	718.062
150.716	13.368	956.431	717.828
151.731	13.330	955.745	717.084
152.746	13.328	955.287	716.669
153.760	13.348	954.519	716.114
154.775	13.407	953.921	715.861
155.789	13.617	953.220	716.178
156.804	13.489	951.971	714.622
157.819	13.442	951.829	714.250
158.833	13.579	950.921	714.096
159.848	13.601	950.002	713.438
160.862	13.607	949.408	712.957
161.877	13.454	948.299	711.401
162.892	13.458	947.158	710.498
163.906	13.473	946.187	709.773
164.921	13.451	945.836	709.352
165.935	13.491	944.599	708.534
166.950	13.429	943.952	707.720
167.964	13.542	942.786	707.265
168.979	13.580	941.999	706.773
169.994	13.573	941.081	705.992
171.008	13.689	940.525	706.007
172.023	13.614	939.981	705.218
173.037	13.562	939.358	704.469
174.052	13.607	938.541	703.982
175.067	13.567	938.153	703.459
176.081	13.562	937.504	702.888
177.096	13.415	937.116	701.914
178.110	13.516	936.364	701.716
179.125	13.602	935.600	701.448
180.140	13.609	935.198	701.113
181.154	13.669	934.689	700.921
182.169	13.681	934.261	700.589
183.183	13.629	933.802	699.963
184.198	13.741	932.658	699.516
185.213	13.927	931.489	699.363
186.227	13.858	930.964	698.615
187.242	13.987	930.510	698.753
188.256	13.756	930.535	697.739
189.271	13.791	929.342	696.930
190.286	13.767	928.206	695.916
191.300	13.679	928.031	695.353
192.315	13.603	927.521	694.592
193.329	13.624	926.514	693.865
194.344	13.749	925.880	693.851
195.359	13.876	924.908	693.591
196.373	13.781	924.910	693.136
197.388	13.952	924.592	693.552
198.402	14.108	923.587	693.384
199.417	13.922	923.310	692.341
200.432	14.073	922.678	692.435
201.446	14.021	922.179	691.784
202.461	13.979	921.788	691.251
203.475	13.997	921.253	690.866
204.490	14.006	920.404	690.205
205.504	14.112	919.427	689.850
206.519	14.043	918.704	688.964
207.534	14.014	918.203	688.407
208.548	13.995	917.369	687.642
209.563	14.020	916.745	687.214
210.577	14.176	915.863	687.138
211.592	14.245	915.498	687.088
212.607	14.123	914.673	685.905
213.621	14.153	914.230	685.637
214.636	14.252	913.124	685.153
215.650	14.168	912.908	684.584
216.665	14.161	912.016	683.825
217.680	14.275	911.109	683.556
218.694	14.179	910.935	682.968
219.709	14.166	909.822	682.022
220.723	14.302	909.120	681.989
221.738	14.248	908.910	681.553
222.753	14.250	908.494	681.189
223.767	14.371	907.700	681.026
224.782	14.406	906.571	680.262
225.796	14.505	906.114	680.262
226.811	14.497	905.330	679.580
227.826	14.370	904.698	678.532
228.840	14.367	904.413	678.244
229.855	14.311	903.558	677.314
230.869	14.363	902.522	676.690
231.884	14.331	902.110	676.192
232.899	14.285	901.161	675.233
233.913	14.312	900.465	674.761
234.928	14.397	899.611	674.407
235.942	14.431	899.300	674.253
236.957	14.471	898.762	673.949
237.972	14.424	898.151	673.243
238.986	14.455	897.331	672.691
240.001	14.301	897.192	671.907
241.015	14.420	896.491	671.804
242.030	14.473	895.627	671.308
243.045	14.473	895.118	670.867
244.059	14.518	894.413	670.461
245.074	14.612	893.930	670.418
246.088	14.531	893.401	669.638
247.103	14.596	892.474	669.145
248.117	14.709	891.918	669.120
249.132	14.792	891.056	668.748
250.147	14.829	890.564	668.465
251.161	14.750	890.107	667.749
252.176	14.736	889.582	667.239
253.190	14.903	888.477	667.019
254.205	14.820	888.394	666.564
255.220	14.888	887.529	666.127
256.234	14.999	886.504	665.741
257.249	14.813	885.999	664.565
258.263	14.934	885.463	664.583
259.278	14.918	884.528	663.762
260.293	14.939	884.118	663.476
261.307	14.883	883.680	662.869
262.322	15.089	882.967	663.088
263.336	15.139	882.184	662.641
264.351	15.029	881.579	661.695
265.366	15.136	880.626	661.341
266.380	15.065	880.513	660.917
267.395	15.083	879.840	660.426
268.409	15.102	879.112	659.895
269.424	15.214	878.009	659.451
270.439	14.965	877.596	658.101
271.453	15.021	877.025	657.835
272.468	15.090	876.371	657.558
273.482	15.083	875.872	657.099
274.497	15.079	875.560	656.789
275.512	15.095	875.084	656.439
276.526	15.243	874.114	656.231
277.541	15.212	873.828	655.836
278.555	15.344	872.822	655.541
279.570	15.223	872.816	655.006
280.585	15.404	871.383	654.578
281.599	15.293	871.156	653.917
282.614	15.302	870.041	653.057
283.628	15.334	869.591	652.786
284.643	15.321	869.104	652.312
285.657	15.325	868.545	651.850
286.672	15.341	867.719	651.232
287.687	15.384	867.550	651.218
288.701	15.353	866.685	650.391
289.716	15.457	866.144	650.331
290.730	15.455	865.529	649.803
291.745	15.408	865.079	649.225
292.760	15.467	864.318	648.826
293.774	15.612	863.771	648.917
294.789	15.528	863.163	648.078
295.803	15.357	862.504	646.865
296.818	15.419	861.734	646.470
297.833	15.442	861.347	646.212
298.847	15.408	861.076	645.819
299.862	15.562	859.974	645.527
300.876	15.512	859.581	644.985
301.891	15.641	858.690	644.753
302.906	15.595	858.515	644.387
303.920	15.613	857.979	643.999
304.935	15.793	857.011	643.902
305.949	15.733	856.463	643.207
306.964	15.674	855.590	642.269
307.979	15.615	855.706	642.071
308.993	15.818	854.474	641.865
310.008	15.814	853.836	641.314
311.022	15.826	853.581	641.113
312.037	15.658	853.308	640.210
313.052	15.626	852.865	639.700
314.066	15.611	852.316	639.172
315.081	15.743	851.283	638.844
316.095	15.802	850.512	638.432
317.110	15.773	850.316	638.119
318.125	15.851	849.820	637.985
319.139	15.802	849.586	637.568
320.154	15.832	848.870	637.088
321.168	15.832	848.252	636.570
322.183	15.745	848.043	636.026
323.197	15.838	847.435	635.867
324.212	15.875	846.664	635.369
325.227	15.928	845.751	634.828
326.241	15.900	845.333	634.352
327.256	15.749	845.311	633.712
328.270	15.944	844.166	633.530
329.285	15.740	843.677	632.339
330.300	15.990	842.936	632.667
331.314	15.910	842.760	632.179
332.329	15.849	842.533	631.722
333.343	15.997	841.949	631.786
334.358	16.039	841.387	631.467
335.373	16.023	841.235	631.234
336.387	15.969	840.834	630.675
337.402	16.120	840.303	630.787
338.416	16.007	840.123	630.174
339.431	16.012	839.781	629.879
340.446	16.097	839.046	629.590
341.460	16.141	839.066	629.714
342.475	16.301	838.301	629.681
343.489	16.168	838.007	628.906
344.504	16.290	837.422	628.869
345.519	16.148	837.070	628.018
346.533	16.317	836.524	628.185
347.548	16.207	835.961	627.297
348.562	16.187	835.503	626.822
349.577	16.184	834.556	626.044
350.592	16.171	834.276	625.732
351.606	16.243	833.434	625.311
352.621	16.322	832.741	625.027
353.635	16.285	832.188	624.421
354.650	16.263	831.443	623.725
355.665	16.361	830.924	623.644
356.679	16.370	830.704	623.455
357.694	16.278	829.752	622.347
358.708	16.293	829.277	621.991
359.723	16.523	828.400	622.124
360.738	16.421	827.982	621.383
361.752	16.449	827.190	620.835
362.767	16.472	826.585	620.412
363.781	16.552	826.192	620.356
364.796	16.522	825.943	620.002
365.810	16.562	825.329	619.631
366.825	16.490	825.417	619.381
367.840	16.748	824.449	619.542
368.854	16.709	823.679	618.768
369.869	16.640	823.703	618.477
370.883	16.637	823.398	618.185
371.898	16.665	823.138	618.036
372.913	16.857	822.523	618.219
373.927	16.761	821.787	617.262
374.942	16.770	821.372	616.930
375.956	16.732	820.962	616.428
376.971	16.822	820.528	616.376
377.986	16.835	819.748	615.782
379.000	16.892	819.550	615.784
380.015	16.852	819.048	615.206
381.029	16.838	818.499	614.690
382.044	16.901	817.895	614.411
383.059	16.910	817.577	614.151
384.073	16.937	816.868	613.659
385.088	16.955	816.365	613.292
386.102	17.029	815.825	613.100
387.117	16.929	814.959	612.034
388.132	16.874	814.562	611.485
389.146	17.015	814.001	611.517
390.161	16.913	814.174	611.225
391.175	16.937	813.366	610.653
392.190	16.946	812.536	610.008
393.205	16.933	812.376	609.785
394.219	16.817	812.359	609.302
395.234	16.852	811.711	608.889
396.248	16.945	810.780	608.471
397.263	17.151	810.138	608.673
398.278	16.964	809.816	607.706
399.292	16.984	809.869	607.763
400.307	17.021	809.414	607.499
401.321	17.051	808.851	607.130
402.336	17.043	808.562	606.832
403.350	17.139	807.709	606.483
404.365	17.104	807.543	606.178
405.380	17.340	806.603	606.262
406.394	17.225	806.510	605.726
407.409	17.174	806.317	605.348
408.423	17.308	805.436	605.107
409.438	17.264	805.282	604.782
410.453	17.333	805.096	604.835
411.467	17.352	804.221	604.192
412.482	17.505	803.672	604.270
413.496	17.476	803.401	603.908
414.511	17.394	803.349	603.524
415.526	17.486	803.154	603.651
416.540	17.344	802.449	602.565
417.555	17.454	801.646	602.297
418.569	17.431	801.446	602.012
419.584	17.648	800.778	602.226
420.599	17.404	800.371	601.004
421.613	110.917	1294.495	1473.123
422.628	95.523	1366.451	1473.208
