DTS Sentinel unit serial number:	SN413079Multiplexer serial number:	ORYXHardware model number:	OX4-SRSoftware version number:	ORYX F/W v4.00 Oryx Data Collector v3.7.2.0data status	okinstallation	princeton_trtdifferential loss correction	single-endedforward channel	channel 1reverse channel	N/Adate	2019/09/14time	05:46:35forward acquisition time	60.00reverse acquisition time	0.00gamma	496.2192k internal	0.2334k external	0.2334temperature offset calibration	1.0081default loss term (dB/km)	0.3790temperature slope calibration	1.0000multiplexer offset coefficient	1.0000multiplexer slope coefficient	1.0000fibre end	0.00T internal ref (°C)	26.92T ext. ref 1 (°C)	3.40T ext. ref 2 (°C)	21.59length (m)	temperature (°C)	Stokes	anti-Stokes-747.200	-87.272	-0.478	-0.146
-746.185	178.384	-0.092	0.136
-745.171	800.000	0.038	0.116
-744.156	-200.000	-0.003	0.166
-743.142	-147.933	-0.382	-0.032
-742.127	-200.000	-0.036	0.197
-741.112	-200.000	-0.084	0.531
-740.098	800.000	-0.065	0.258
-739.083	-200.000	0.021	0.101
-738.069	-11.728	-0.316	0.208
-737.054	580.291	-0.034	-0.084
-736.039	-68.574	-0.470	-0.183
-735.025	-200.000	0.035	0.211
-734.010	-105.558	-0.303	-0.069
-732.996	-200.000	-0.007	-0.267
-731.981	-44.002	-0.110	-0.055
-730.966	72.277	-0.223	-0.233
-729.952	-31.378	-0.141	-0.080
-728.937	-89.216	-0.042	0.012
-727.923	60.633	0.224	-0.223
-726.908	-200.000	-0.020	-0.151
-725.894	57.565	-0.230	-0.226
-724.879	-21.584	-0.131	-0.080
-723.864	-200.000	0.050	-0.548
-722.850	-9.570	-0.149	0.100
-721.835	-98.860	-0.216	-0.055
-720.821	800.000	-0.073	-0.204
-719.806	-21.196	0.190	-0.117
-718.791	277.090	0.080	-0.143
-717.777	363.282	0.077	-0.156
-716.762	311.740	0.216	-0.407
-715.748	-200.000	-0.021	-0.187
-714.733	800.000	0.056	-0.180
-713.718	-200.000	-0.018	-0.414
-712.704	10.332	-0.128	-0.098
-711.689	-200.000	-0.068	0.315
-710.675	55.683	-0.223	-0.217
-709.660	258.347	0.250	-0.433
-708.645	533.087	0.050	0.119
-707.631	-63.274	-0.194	0.080
-706.616	102.661	-0.066	-0.077
-705.602	800.000	0.059	-0.204
-704.587	-200.000	0.026	-0.142
-703.572	102.235	-0.195	-0.229
-702.558	-200.000	-0.032	-0.184
-701.543	-12.435	-0.098	-0.065
-700.529	-195.195	-0.187	-0.001
-699.514	-120.084	-0.300	-0.052
-698.499	131.660	-0.262	-0.338
-697.485	-146.954	-0.087	0.007
-696.470	800.000	0.094	0.309
-695.456	-77.345	-0.436	0.152
-694.441	11.303	0.143	-0.110
-693.426	-200.000	0.049	-0.227
-692.412	102.045	0.065	-0.076
-691.397	-85.499	0.225	-0.070
-690.383	-200.000	0.001	-0.382
-689.368	530.474	-0.082	0.195
-688.354	-200.000	0.053	0.253
-687.339	-33.173	-0.189	-0.105
-686.324	-171.764	0.368	-0.012
-685.310	-200.000	-0.005	0.083
-684.295	146.702	0.099	-0.134
-683.281	-128.935	0.128	-0.018
-682.266	-82.054	-0.294	0.096
-681.251	93.596	0.158	0.180
-680.237	-100.657	-0.125	0.031
-679.222	-38.493	0.147	-0.078
-678.208	-87.218	-0.133	0.040
-677.193	-43.384	0.150	0.076
-676.178	402.164	0.094	0.198
-675.164	800.000	-0.056	0.155
-674.149	-200.000	0.003	-0.081
-673.135	800.000	0.030	-0.113
-672.120	-52.047	-0.124	-0.058
-671.105	-0.529	-0.409	0.291
-670.091	209.618	0.043	-0.068
-669.076	800.000	0.069	-0.257
-668.062	-108.059	-0.297	-0.065
-667.047	-109.210	0.351	-0.075
-666.032	-45.837	-0.138	-0.068
-665.018	617.673	-0.079	0.198
-664.003	-200.000	-0.099	0.498
-662.989	-2.211	0.256	0.180
-661.974	-200.000	-0.017	0.176
-660.959	753.611	0.086	0.234
-659.945	57.884	-0.084	-0.082
-658.930	-200.000	0.015	-0.377
-657.916	394.349	-0.108	-0.225
-656.901	-17.307	-0.557	0.351
-655.886	800.000	0.067	0.188
-654.872	-22.735	0.212	0.128
-653.857	-133.991	0.086	-0.011
-652.843	800.000	0.066	0.207
-651.828	-57.346	-0.228	0.100
-650.814	-200.000	-0.054	-0.381
-649.799	-107.457	0.241	-0.053
-648.784	-122.029	-0.446	0.073
-647.770	-72.239	-0.293	0.109
-646.755	-128.926	0.047	0.007
-645.741	42.705	0.210	-0.192
-644.726	-0.922	-0.111	0.078
-643.711	800.000	-0.073	-0.309
-642.697	18.343	-0.282	-0.225
-641.682	-21.453	0.123	0.075
-640.668	-200.000	0.001	-0.238
-639.653	-200.000	-0.021	-0.146
-638.638	-169.109	-0.115	-0.004
-637.624	134.035	-0.118	-0.153
-636.609	158.988	0.080	-0.111
-635.595	-159.610	0.178	0.010
-634.580	151.180	-0.059	0.080
-633.565	85.121	-0.251	0.275
-632.551	-200.000	-0.013	-0.203
-631.536	292.262	-0.063	-0.114
-630.522	-39.289	0.251	0.132
-629.507	-200.000	-0.026	0.221
-628.492	-200.000	-0.010	0.162
-627.478	39.280	-0.240	-0.215
-626.463	-200.000	0.008	-0.147
-625.449	-12.155	0.136	-0.089
-624.434	-57.545	0.203	0.089
-623.419	800.000	0.041	-0.114
-622.405	-200.000	-0.014	0.189
-621.390	-49.766	0.282	0.134
-620.376	-23.513	0.020	-0.012
-619.361	214.442	0.042	0.066
-618.346	-178.047	-0.333	0.008
-617.332	32.645	0.111	-0.096
-616.317	97.490	0.153	0.176
-615.303	-78.129	-0.377	0.130
-614.288	21.446	0.489	0.398
-613.273	-49.867	-0.184	0.088
-612.259	-163.993	0.315	-0.015
-611.244	-112.450	0.167	0.033
-610.230	-45.974	-0.051	-0.025
-609.215	179.011	-0.076	0.111
-608.201	-89.355	0.134	0.039
-607.186	-161.316	0.062	-0.003
-606.171	-193.730	0.433	-0.004
-605.157	67.739	-0.163	0.167
-604.142	54.365	-0.167	0.161
-603.128	-64.550	-0.123	0.050
-602.113	-90.746	-0.200	0.058
-601.098	800.000	-0.042	-0.134
-600.084	800.000	-0.055	-0.232
-599.069	-58.423	-0.213	0.093
-598.055	-200.000	0.011	-0.117
-597.040	612.329	0.103	0.258
-596.025	158.772	0.145	-0.201
-595.011	-143.679	-0.146	-0.014
-593.996	95.288	0.315	-0.358
-592.982	-171.635	0.124	-0.004
-591.967	800.000	-0.067	-0.210
-590.952	6.019	0.224	-0.166
-589.938	-200.000	0.009	-0.169
-588.923	60.304	-0.168	-0.166
-587.909	800.000	0.087	-0.277
-586.894	187.227	0.263	-0.392
-585.879	346.903	-0.111	0.218
-584.865	411.636	-0.068	-0.145
-583.850	145.219	-0.114	0.152
-582.836	-60.491	0.181	-0.077
-581.821	-174.111	-0.220	0.006
-580.806	52.094	0.157	-0.149
-579.792	345.866	0.092	-0.181
-578.777	394.803	-0.130	0.270
-577.763	-95.715	0.118	-0.032
-576.748	-186.956	-0.145	-0.002
-575.733	141.092	0.115	0.151
-574.719	-37.298	0.036	0.019
-573.704	-78.207	0.113	-0.039
-572.690	-147.552	-0.250	-0.021
-571.675	-143.048	-0.219	0.021
-570.661	-200.000	-0.054	-0.382
-569.646	-200.000	-0.023	-0.273
-568.631	-128.634	-0.085	-0.012
-567.617	95.256	0.178	0.202
-566.602	-96.954	0.250	-0.065
-565.588	-119.567	0.299	-0.052
-564.573	-91.419	0.317	-0.090
-563.558	800.000	-0.071	0.201
-562.544	-200.000	-0.012	-0.095
-561.529	40.691	-0.375	-0.338
-560.515	-9.348	0.191	-0.127
-559.500	-200.000	-0.004	0.042
-558.485	-1.684	0.289	-0.203
-557.471	-60.356	-0.157	-0.067
-556.456	-64.378	-0.377	0.153
-555.442	-200.000	-0.082	-0.537
-554.427	20.794	-0.113	0.091
-553.412	-43.361	-0.373	0.188
-552.398	12.727	0.196	0.151
-551.383	-200.000	0.014	0.139
-550.369	236.989	-0.189	-0.313
-549.354	-74.488	-0.176	0.063
-548.339	800.000	0.046	-0.172
-547.325	800.000	-0.111	-0.452
-546.310	-145.944	-0.335	-0.030
-545.296	-124.790	-0.199	-0.031
-544.281	-200.000	-0.010	0.144
-543.266	-200.000	0.064	0.323
-542.252	-200.000	0.017	-0.151
-541.237	800.000	-0.070	-0.207
-540.223	56.987	-0.297	-0.288
-539.208	-20.547	0.309	-0.189
-538.193	-24.060	-0.117	-0.070
-537.179	-200.000	-0.031	0.146
-536.164	-59.138	0.290	-0.124
-535.150	57.097	-0.096	0.093
-534.135	106.568	0.059	-0.070
-533.121	-200.000	-0.015	0.091
-532.106	-14.337	-0.149	0.095
-531.091	-15.472	0.266	-0.170
-530.077	-200.000	0.061	-0.302
-529.062	-70.013	-0.251	0.095
-528.048	97.452	0.210	-0.241
-527.033	-72.941	-0.140	-0.051
-526.018	-62.888	0.228	-0.094
-525.004	504.693	0.128	-0.296
-523.989	44.633	0.179	0.164
-522.975	-46.697	0.176	-0.086
-521.960	-63.779	-0.147	0.060
-520.945	88.656	0.137	0.152
-519.931	-37.776	0.151	0.080
-518.916	52.414	0.033	-0.032
-517.902	325.886	0.173	-0.329
-516.887	-200.000	0.043	-0.209
-515.872	588.844	0.183	0.448
-514.858	183.123	0.082	-0.121
-513.843	558.883	0.242	-0.582
-512.829	-121.461	-0.119	-0.020
-511.814	-200.000	-0.141	0.001
-510.799	-112.965	0.383	-0.076
-509.785	225.467	-0.012	-0.020
-508.770	-200.000	-0.017	0.197
-507.756	-112.694	0.109	0.022
-506.741	-164.105	-0.155	0.007
-505.726	47.344	0.096	-0.089
-504.712	63.047	0.166	-0.165
-503.697	102.268	0.203	-0.237
-502.683	360.266	0.073	0.145
-501.668	105.825	-0.086	0.101
-500.653	128.643	-0.124	0.158
-499.639	-112.456	-0.032	0.006
-498.624	34.478	0.123	-0.107
-497.610	-103.447	0.285	0.067
-496.595	83.391	0.050	0.054
-495.581	-61.604	-0.132	0.055
-494.566	-186.987	-0.132	0.002
-493.551	-51.457	0.090	-0.042
-492.537	-96.099	-0.273	0.072
-491.522	15.828	0.168	0.132
-490.508	726.818	0.102	-0.271
-489.493	-176.949	-0.122	-0.003
-488.478	-156.639	-0.156	-0.010
-487.464	23.697	0.040	0.033
-486.449	-200.000	-0.022	-0.099
-485.435	96.386	0.118	0.134
-484.420	148.161	0.128	-0.172
-483.405	522.981	0.120	-0.280
-482.391	-5.077	0.096	0.066
-481.376	-21.363	0.065	-0.039
-480.362	800.000	-0.093	-0.332
-479.347	444.167	0.031	-0.069
-478.332	800.000	-0.043	0.144
-477.318	45.092	-0.052	0.047
-476.303	-200.000	0.001	0.069
-475.289	558.141	-0.043	0.104
-474.274	-20.593	0.051	0.031
-473.259	330.251	-0.081	-0.155
-472.245	800.000	0.044	0.153
-471.230	-142.816	0.156	0.015
-470.216	37.665	-0.060	-0.053
-469.201	-200.000	0.003	-0.024
-468.186	-116.231	0.080	-0.015
-467.172	485.780	-0.106	0.240
-466.157	46.591	0.060	-0.055
-465.143	-72.878	0.199	-0.073
-464.128	-17.276	0.293	0.183
-463.113	36.912	-0.173	0.152
-462.099	457.435	-0.029	-0.063
-461.084	-133.363	-0.155	0.019
-460.070	800.000	0.050	0.195
-459.055	-130.819	-0.174	0.023
-458.040	-71.971	0.353	-0.131
-457.026	-163.431	0.294	-0.014
-456.011	-112.403	0.315	-0.063
-454.997	136.493	-0.105	0.137
-453.982	-200.000	0.083	0.404
-452.968	542.269	-0.065	0.155
-451.953	-5.909	-0.329	-0.224
-450.938	40.378	-0.163	0.146
-449.924	133.380	-0.055	-0.070
-448.909	-136.860	-0.023	-0.003
-447.895	-200.000	0.025	0.125
-446.880	43.919	-0.251	-0.229
-445.865	-200.000	0.007	0.460
-444.851	-200.000	-0.030	0.267
-443.836	105.257	0.291	-0.341
-442.822	192.450	0.163	-0.244
-441.807	-200.000	0.001	0.041
-440.792	69.591	-0.205	-0.209
-439.778	-200.000	0.011	0.105
-438.763	45.312	0.209	-0.191
-437.749	229.952	0.182	0.295
-436.734	132.237	0.036	-0.046
-435.719	34.105	0.120	0.104
-434.705	20.415	0.228	0.183
-433.690	-61.990	0.214	-0.089
-432.676	-69.688	-0.094	-0.036
-431.661	-24.812	-0.136	0.080
-430.646	-58.828	-0.213	-0.092
-429.632	58.669	-0.089	0.087
-428.617	-0.010	-0.358	-0.253
-427.603	-101.939	-0.124	-0.030
-426.588	-78.001	-0.062	-0.021
-425.573	-99.555	0.205	-0.051
-424.559	111.357	0.112	0.135
-423.544	24.100	-0.051	-0.041
-422.530	184.218	-0.178	0.262
-421.515	800.000	0.055	-0.204
-420.500	119.980	0.049	-0.060
-419.486	7.223	-0.173	-0.128
-418.471	147.583	0.277	-0.370
-417.457	800.000	0.026	0.076
-416.442	-185.816	0.185	0.003
-415.428	-92.285	0.145	0.041
-414.413	300.063	-0.242	-0.442
-413.398	-110.008	-0.230	0.048
-412.384	-87.205	0.211	0.064
-411.369	-200.000	0.013	-0.514
-410.355	715.220	0.082	0.215
-409.340	-145.694	-0.105	-0.009
-408.325	666.464	0.175	-0.449
-407.311	800.000	-0.035	0.136
-406.296	800.000	0.093	-0.342
-405.282	-200.000	-0.036	0.201
-404.267	216.277	-0.154	0.243
-403.252	-61.479	0.211	0.088
-402.238	800.000	-0.190	-0.601
-401.223	250.717	0.165	-0.278
-400.209	-200.000	0.011	-0.181
-399.194	800.000	-0.028	0.108
-398.179	8.029	-0.158	-0.117
-397.165	697.816	-0.150	0.392
-396.150	24.364	-0.158	-0.130
-395.136	97.945	0.150	-0.171
-394.121	-75.346	-0.255	-0.090
-393.106	195.237	-0.085	0.128
-392.092	35.112	0.093	-0.080
-391.077	162.198	0.140	0.194
-390.063	92.171	-0.252	-0.281
-389.048	-200.000	0.000	-0.355
-388.033	-57.797	-0.145	0.063
-387.019	-200.000	0.043	0.309
-386.004	-93.100	0.161	0.044
-384.990	-11.277	-0.245	-0.160
-383.975	-11.688	0.155	-0.101
-382.960	-200.000	-0.060	0.327
-381.946	800.000	0.118	0.365
-380.931	-73.479	0.137	-0.049
-379.917	-200.000	0.018	-0.276
-378.902	-2.121	-0.326	-0.227
-377.888	675.297	0.090	0.232
-376.873	649.008	-0.169	-0.429
-375.858	-157.727	-0.092	0.005
-374.844	-87.029	0.123	-0.037
-373.829	200.350	0.139	0.212
-372.815	-141.110	-0.275	0.028
-371.800	-92.828	0.204	-0.057
-370.785	483.858	-0.116	-0.260
-369.771	-200.000	-0.058	-0.253
-368.756	-29.919	0.196	-0.111
-367.742	-92.391	0.141	-0.039
-366.727	-151.207	0.085	0.006
-365.712	452.105	0.036	0.078
-364.698	44.712	-0.091	-0.083
-363.683	800.000	0.044	0.145
-362.669	5.566	0.221	-0.162
-361.654	-200.000	0.014	0.095
-360.639	375.176	0.091	-0.184
-359.625	-200.000	0.005	0.351
-358.610	156.239	0.269	0.368
-357.596	184.005	0.080	-0.117
-356.581	149.984	-0.217	-0.292
-355.566	-80.250	-0.096	0.032
-354.552	334.436	-0.015	0.028
-353.537	-200.000	-0.001	0.124
-352.523	800.000	-0.047	-0.146
-351.508	-11.189	-0.107	0.070
-350.493	-200.000	-0.064	-0.300
-349.479	141.690	0.131	0.172
-348.464	-18.720	-0.061	0.038
-347.450	201.221	0.081	0.123
-346.435	125.603	0.107	0.134
-345.420	800.000	-0.211	0.599
-344.406	-133.788	0.112	0.014
-343.391	-130.419	-0.212	0.028
-342.377	-100.291	0.135	0.033
-341.362	109.196	-0.077	0.091
-340.348	-145.948	0.304	0.027
-339.333	-38.453	-0.151	0.079
-338.318	55.524	0.203	0.194
-337.304	-200.000	-0.051	0.301
-336.289	-124.522	0.339	-0.052
-335.275	152.338	-0.120	0.162
-334.260	437.492	-0.038	-0.083
-333.245	-117.116	0.093	-0.017
-332.231	-102.208	0.103	-0.024
-331.216	69.287	-0.347	-0.353
-330.202	283.934	0.085	0.150
-329.187	56.767	-0.076	-0.073
-328.172	57.565	0.073	0.071
-327.158	-37.084	0.185	0.098
-326.143	-115.607	-0.213	-0.040
-325.129	-87.195	0.183	0.055
-324.114	445.672	-0.144	-0.313
-323.099	-7.908	0.252	-0.168
-322.085	-200.000	-0.056	0.284
-321.070	-86.208	-0.035	0.011
-320.056	672.095	0.052	0.132
-319.041	-200.000	0.010	0.080
-318.026	-73.778	-0.105	0.038
-317.012	800.000	0.027	0.117
-315.997	-102.218	0.179	0.042
-314.983	106.097	-0.210	0.246
-313.968	-200.000	0.039	0.196
-312.953	800.000	-0.083	0.319
-311.939	58.393	-0.214	0.207
-310.924	-55.882	-0.443	0.195
-309.910	-71.002	0.051	-0.019
-308.895	-97.025	-0.234	0.061
-307.880	-67.075	-0.395	0.154
-306.866	-18.318	0.429	0.265
-305.851	-50.708	0.284	0.132
-304.837	-126.887	-0.167	-0.024
-303.822	-84.711	0.150	-0.047
-302.807	-91.639	-0.104	0.029
-301.793	-43.358	-0.111	-0.056
-300.778	-53.052	0.224	0.102
-299.764	-133.987	-0.029	0.004
-298.749	-144.442	0.283	0.026
-297.735	-200.000	-0.012	-0.117
-296.720	-190.343	0.227	-0.002
-295.705	-48.931	-0.080	0.038
-294.691	-199.826	-0.074	0.000
-293.676	51.955	0.217	-0.204
-292.662	-24.889	-0.090	0.053
-291.647	-200.000	0.015	-0.111
-290.632	336.962	-0.048	-0.093
-289.618	-117.699	-0.324	-0.058
-288.603	158.684	0.114	0.157
-287.589	-76.806	-0.105	-0.036
-286.574	-15.701	0.242	0.152
-285.559	-200.000	-0.056	0.444
-284.545	-200.000	0.033	0.168
-283.530	68.712	0.078	-0.080
-282.516	477.990	-0.089	-0.199
-281.501	135.438	0.295	-0.379
-280.486	498.482	0.089	-0.203
-279.472	-200.000	-0.069	0.368
-278.457	-35.949	-0.159	-0.085
-277.443	-200.000	-0.003	0.207
-276.428	652.247	0.064	0.162
-275.413	-119.060	0.305	0.053
-274.399	525.531	-0.050	0.117
-273.384	-54.817	-0.400	0.178
-272.370	-200.000	-0.031	-0.317
-271.355	-82.437	-0.214	0.069
-270.340	273.432	0.082	-0.143
-269.326	134.900	0.124	0.159
-268.311	-67.572	-0.120	-0.047
-267.297	-102.429	-0.447	0.106
-266.282	214.855	-0.211	0.330
-265.267	800.000	-0.080	0.256
-264.253	800.000	-0.057	-0.237
-263.238	-95.390	0.114	0.030
-262.224	-200.000	-0.028	-0.134
-261.209	-76.058	0.078	0.027
-260.195	-200.000	0.010	0.131
-259.180	800.000	-0.026	0.092
-258.165	-104.507	0.245	0.056
-257.151	800.000	-0.042	-0.153
-256.136	-148.152	-0.343	0.028
-255.122	-91.217	-0.500	-0.141
-254.107	-12.206	0.273	0.176
-253.092	-146.457	-0.336	-0.029
-252.078	-16.027	-0.137	0.086
-251.063	-66.721	0.258	0.101
-250.049	-38.437	-0.156	0.081
-249.034	-17.564	-0.206	-0.128
-248.019	132.234	0.080	0.102
-247.005	-51.081	-0.072	-0.034
-245.990	-189.101	-0.258	0.003
-244.976	90.051	0.141	0.155
-243.961	-200.000	0.021	0.224
-242.946	-65.957	-0.209	-0.082
-241.932	800.000	0.020	0.069
-240.917	-50.737	-0.299	0.139
-239.903	11.283	0.204	-0.154
-238.888	-200.000	-0.002	0.146
-237.873	-39.279	-0.194	0.100
-236.859	467.309	-0.240	0.530
-235.844	-114.684	0.178	-0.033
-234.830	37.688	0.169	0.148
-233.815	750.390	-0.134	-0.357
-232.800	-45.142	-0.144	-0.070
-231.786	800.000	0.055	-0.220
-230.771	23.866	-0.168	0.137
-229.757	251.590	0.168	0.281
-228.742	113.737	-0.110	0.132
-227.727	-115.267	-0.272	-0.051
-226.713	-200.000	0.062	0.330
-225.698	-97.514	0.526	-0.135
-224.684	533.068	-0.054	-0.126
-223.669	251.806	-0.128	0.215
-222.655	-200.000	-0.017	0.093
-221.640	800.000	0.063	-0.203
-220.625	14.934	0.419	-0.323
-219.611	-200.000	-0.005	0.130
-218.596	-106.019	-0.325	-0.072
-217.582	397.737	0.049	0.101
-216.567	232.879	-0.107	0.173
-215.552	-11.864	0.314	-0.203
-214.538	800.000	0.038	-0.134
-213.523	-68.322	-0.021	-0.008
-212.509	-133.480	0.138	0.017
-211.494	238.036	0.123	0.200
-210.479	-191.868	-0.335	-0.003
-209.465	25.273	-0.109	-0.089
-208.450	220.804	-0.171	0.270
-207.436	-9.803	-0.059	0.039
-206.421	800.000	0.044	-0.188
-205.406	21.588	-0.122	-0.097
-204.392	-17.932	0.112	-0.069
-203.377	119.290	-0.096	-0.117
-202.363	800.000	0.103	-0.284
-201.348	-67.887	0.219	-0.084
-200.333	543.176	0.231	0.542
-199.319	114.930	-0.011	0.013
-198.304	-197.908	-0.472	-0.003
-197.290	-97.104	0.140	-0.036
-196.275	209.306	0.059	-0.092
-195.260	-200.000	0.042	0.264
-194.246	476.661	-0.028	0.063
-193.231	15.889	-0.147	0.114
-192.217	800.000	-0.028	0.098
-191.202	-157.022	-0.261	-0.016
-190.187	-6.378	-0.080	-0.053
-189.173	-32.932	0.094	-0.051
-188.158	800.000	-0.048	0.141
-187.144	-149.876	-0.182	0.014
-186.129	-147.488	-0.099	0.008
-185.114	-132.404	-0.347	0.044
-184.100	199.630	0.158	-0.239
-183.085	46.023	-0.162	0.148
-182.071	24.748	-0.287	0.233
-181.056	-21.545	0.106	-0.064
-180.042	87.395	-0.367	-0.400
-179.027	218.813	0.084	0.132
-178.012	-57.080	0.250	-0.108
-176.998	-200.000	-0.009	0.089
-175.983	-189.172	0.118	0.001
-174.969	177.489	0.124	-0.178
-173.954	156.238	0.164	0.222
-172.939	-35.644	-0.187	0.100
-171.925	303.858	-0.073	0.133
-170.910	-133.963	-0.066	-0.008
-169.896	74.335	0.218	-0.225
-168.881	91.675	-0.116	0.128
-167.866	484.110	0.094	-0.211
-166.852	173.260	-0.228	0.323
-165.837	-200.000	0.036	0.170
-164.823	14.688	0.150	0.115
-163.808	277.068	0.115	-0.201
-162.793	-155.601	0.281	-0.018
-161.779	-1.447	-0.158	-0.110
-160.764	-3.593	-0.157	0.108
-159.750	52.951	0.164	0.155
-158.735	-87.925	-0.240	0.071
-157.720	-130.353	0.256	-0.034
-156.706	-98.117	0.154	0.039
-155.691	-10.871	-0.152	-0.098
-154.677	264.784	0.217	0.370
-153.662	439.220	0.063	0.136
-152.647	-200.000	0.086	0.409
-151.633	-141.193	0.249	-0.025
-150.618	800.000	-0.059	0.194
-149.604	307.252	0.109	0.199
-148.589	410.462	-0.030	0.062
-147.574	-200.000	-0.008	0.095
-146.560	7.202	0.137	-0.101
-145.545	-56.116	0.323	-0.141
-144.531	-21.299	-0.302	-0.181
-143.516	-31.346	-0.191	0.105
-142.502	800.000	0.055	-0.175
-141.487	-19.936	-0.199	-0.120
-140.472	4.944	0.292	0.211
-139.458	46.292	0.125	-0.114
-138.443	73.776	0.097	0.100
-137.429	180.861	0.175	0.252
-136.414	-55.452	-0.158	0.070
-135.399	642.914	0.093	-0.234
-134.385	67.739	-0.189	0.189
-133.370	800.000	-0.070	0.282
-132.356	800.000	-0.098	0.333
-131.341	510.378	0.196	0.447
-130.326	235.903	-0.075	0.121
-129.312	288.770	-0.076	0.136
-128.297	-16.811	-0.164	0.101
-127.283	720.160	0.121	0.316
-126.268	-31.844	0.206	0.113
-125.253	-84.991	-0.284	0.087
-124.239	800.000	-0.037	0.105
-123.224	800.000	-0.070	0.229
-122.210	-200.000	-0.031	0.161
-121.195	58.075	-0.049	0.047
-120.180	-200.000	-0.038	-0.279
-119.166	-126.622	0.263	-0.038
-118.151	-200.000	0.010	0.278
-117.137	-71.716	0.036	-0.013
-116.122	-127.255	-0.149	0.021
-115.107	65.038	-0.160	0.158
-114.093	48.084	0.071	-0.065
-113.078	-30.959	0.180	-0.100
-112.064	800.000	-0.146	-0.404
-111.049	-139.927	-0.050	-0.005
-110.034	-40.420	-0.122	-0.062
-109.020	800.000	-0.055	0.185
-108.005	800.000	-0.087	0.248
-106.991	-145.895	-0.070	-0.006
-105.976	-72.448	0.187	-0.068
-104.962	-74.407	0.360	-0.127
-103.947	800.000	-0.058	0.208
-102.932	800.000	0.122	0.439
-101.918	800.000	-0.069	0.196
-100.903	-115.273	0.389	0.072
-99.889	-200.000	0.004	0.025
-98.874	-6.759	0.205	0.136
-97.859	-200.000	-0.035	0.173
-96.845	-200.000	0.008	0.145
-95.830	-113.613	-0.059	-0.011
-94.816	24.144	-0.174	-0.141
-93.801	800.000	-0.118	0.330
-92.786	-200.000	-0.004	-0.096
-91.772	800.000	0.059	-0.245
-90.757	104.879	0.190	-0.220
-89.743	56.238	0.357	0.339
-88.728	-9.093	0.162	-0.106
-87.713	-13.950	0.093	0.059
-86.699	-200.000	0.010	-0.143
-85.684	-17.764	-0.232	-0.143
-84.670	-20.703	-0.190	0.114
-83.655	-18.803	0.154	-0.094
-82.640	-92.819	0.250	-0.069
-81.626	-79.028	-0.150	-0.050
-80.611	304.136	-0.063	0.114
-79.597	800.000	-0.043	0.121
-78.582	-200.000	0.040	-0.602
-77.567	-200.000	-0.044	0.370
-76.553	-130.548	0.461	0.061
-75.538	-136.707	0.291	-0.033
-74.524	-200.000	0.040	0.307
-73.509	-39.604	0.376	-0.193
-72.494	-200.000	-0.085	0.482
-71.480	-110.416	0.178	0.036
-70.465	-82.934	0.147	0.047
-69.451	90.317	-0.214	-0.234
-68.436	-48.160	-0.401	-0.190
-67.422	-200.000	-0.040	0.201
-66.407	-109.754	0.212	0.044
-65.392	-179.271	0.277	-0.006
-64.378	-200.000	-0.003	0.185
-63.363	117.073	0.215	0.258
-62.349	-104.518	0.329	0.074
-61.334	96.587	-1.248	-1.398
-60.319	192.701	0.461	0.681
-59.305	301.432	-0.620	-1.120
-58.290	574.292	0.631	1.507
-57.276	285.188	0.715	1.261
-56.261	-200.000	116.125	660.636
-55.246	526.713	1533.677	3535.797
-54.232	175.664	2707.353	3841.869
-53.217	108.655	2161.683	2526.388
-52.203	38.806	1598.646	1396.572
-51.188	30.218	1341.917	1120.628
-50.173	27.332	1304.245	1072.151
-49.159	55.418	1361.811	1289.147
-48.144	53.143	1375.559	1288.470
-47.130	30.462	1330.014	1111.977
-46.115	27.003	1312.634	1076.925
-45.100	26.846	1307.362	1071.628
-44.086	26.775	1304.776	1069.048
-43.071	26.629	1302.720	1066.460
-42.057	26.707	1300.245	1064.849
-41.042	26.836	1298.360	1064.024
-40.027	26.769	1297.345	1062.756
-39.013	26.695	1295.313	1060.615
-37.998	26.797	1293.673	1059.826
-36.984	26.906	1291.424	1058.576
-35.969	27.022	1289.745	1057.836
-34.954	26.875	1288.520	1055.931
-33.940	26.885	1287.156	1054.830
-32.925	26.995	1285.177	1053.808
-31.911	26.869	1284.258	1052.278
-30.896	26.992	1282.878	1051.820
-29.881	27.150	1280.676	1050.888
-28.867	27.148	1279.146	1049.577
-27.852	27.044	1278.448	1048.362
-26.838	27.153	1276.654	1047.482
-25.823	26.985	1275.976	1045.914
-24.809	26.948	1274.452	1044.407
-23.794	26.963	1272.786	1043.089
-22.779	26.967	1271.153	1041.734
-21.765	27.006	1270.086	1041.039
-20.750	27.036	1268.833	1040.143
-19.736	26.838	1268.469	1038.669
-18.721	26.905	1267.175	1037.956
-17.706	26.796	1265.799	1036.160
-16.692	26.907	1264.571	1035.752
-15.677	26.839	1263.509	1034.453
-14.663	26.861	1262.276	1033.523
-13.648	26.914	1260.981	1032.725
-12.633	26.809	1260.518	1031.710
-11.619	26.919	1259.295	1031.294
-10.604	26.903	1258.657	1030.638
-9.590	26.739	1258.056	1029.176
-8.575	26.907	1256.847	1029.093
-7.560	26.896	1255.705	1028.058
-6.546	26.925	1254.951	1027.566
-5.531	26.974	1253.575	1026.675
-4.517	26.837	1253.160	1025.517
-3.502	26.922	1252.221	1025.189
-2.487	26.982	1251.023	1024.509
-1.473	26.865	1246.832	1020.378
-0.458	25.265	1232.494	999.697
0.556	22.086	1214.816	961.580
1.571	18.530	1220.529	946.424
2.586	17.607	1235.320	952.650
3.600	17.077	1223.584	940.576
4.615	12.832	1152.048	863.320
5.629	6.363	1080.413	777.697
6.644	3.554	1063.007	751.435
7.659	3.295	1060.422	748.285
8.673	3.284	1059.449	747.479
9.688	3.457	1058.284	747.431
10.702	3.529	1056.117	746.183
11.717	7.262	1060.831	767.553
12.731	14.375	1071.196	809.664
13.746	18.845	1076.779	835.599
14.761	19.588	1077.260	839.513
15.775	18.768	1075.254	833.894
16.790	17.717	1073.359	827.258
17.804	16.987	1071.781	822.429
18.819	16.711	1070.728	820.213
19.834	16.501	1070.284	818.780
20.848	16.407	1069.322	817.517
21.863	16.173	1068.343	815.566
22.877	16.096	1067.467	814.452
23.892	16.011	1067.149	813.727
24.907	16.056	1066.110	813.083
25.921	16.005	1065.239	812.098
26.936	16.073	1063.859	811.301
27.950	16.089	1062.467	810.247
28.965	16.132	1061.252	809.454
29.980	16.261	1059.615	808.751
30.994	16.341	1058.571	808.269
32.009	16.471	1057.384	807.908
33.023	16.239	1056.136	805.777
34.038	16.150	1055.541	804.828
35.053	16.141	1054.478	803.902
36.067	16.124	1053.478	802.989
37.082	16.028	1053.049	802.136
38.096	16.317	1051.874	802.543
39.111	16.272	1051.276	801.801
40.126	16.247	1049.764	800.459
41.140	15.933	1048.539	797.967
42.155	15.832	1047.245	796.432
43.169	15.831	1046.138	795.515
44.184	15.874	1045.062	794.831
45.199	15.909	1044.514	794.508
46.213	16.071	1043.090	794.117
47.228	16.131	1042.499	793.878
48.242	16.253	1041.244	793.427
49.257	16.061	1040.329	791.757
50.271	16.211	1039.412	791.696
51.286	16.078	1039.168	790.813
52.301	16.275	1037.847	790.661
53.315	15.937	1037.367	788.645
54.330	15.925	1035.711	787.259
55.344	15.834	1035.074	786.280
56.359	15.900	1034.172	785.835
57.374	15.831	1033.254	784.747
58.388	15.854	1032.163	783.955
59.403	15.878	1031.396	783.415
60.417	15.869	1030.529	782.642
61.432	15.799	1029.814	781.706
62.447	15.903	1028.756	781.317
63.461	15.781	1027.945	780.068
64.476	15.711	1026.981	778.940
65.490	15.691	1026.440	778.370
66.505	15.776	1025.517	777.995
67.520	15.757	1024.869	777.348
68.534	15.735	1024.078	776.576
69.549	15.776	1023.107	775.961
70.563	15.729	1022.401	775.137
71.578	15.535	1021.646	773.606
72.593	15.582	1020.485	772.871
73.607	15.569	1020.031	772.401
74.622	15.563	1019.515	771.915
75.636	15.633	1018.555	771.442
76.651	15.605	1018.136	770.928
77.666	15.591	1017.810	770.549
78.680	15.700	1016.784	770.202
79.695	15.730	1016.282	769.890
80.709	15.802	1015.749	769.748
81.724	15.870	1014.926	769.368
82.739	15.915	1014.422	769.124
83.753	16.054	1013.482	768.974
84.768	16.245	1012.859	769.306
85.782	16.427	1011.573	769.088
86.797	16.166	1011.252	767.588
87.812	16.151	1010.103	766.583
88.826	16.215	1009.019	765.980
89.841	16.170	1008.038	764.966
90.855	16.361	1007.032	765.001
91.870	16.335	1006.405	764.337
92.884	16.266	1005.486	763.259
93.899	16.284	1004.464	762.498
94.914	16.421	1003.907	762.624
95.928	16.442	1002.831	761.835
96.943	16.322	1002.084	760.660
97.957	16.251	1001.187	759.594
98.972	16.433	999.989	759.434
99.987	16.366	999.419	758.635
101.001	16.300	998.459	757.541
102.016	16.269	997.841	756.864
103.030	16.281	997.141	756.322
104.045	16.273	996.392	755.651
105.060	16.176	995.171	754.226
106.074	16.045	993.712	752.469
107.089	15.863	993.160	751.172
108.103	15.866	992.412	750.552
109.118	15.866	991.391	749.712
110.133	15.798	990.430	748.619
111.147	15.770	989.293	747.566
112.162	15.829	989.173	747.671
113.176	15.935	987.809	747.047
114.191	15.945	987.682	746.930
115.206	16.045	986.618	746.501
116.220	15.979	985.704	745.453
117.235	15.849	984.928	744.222
118.249	15.906	983.993	743.705
119.264	15.833	983.380	742.851
120.279	15.843	982.651	742.281
121.293	15.822	981.588	741.317
122.308	15.656	980.934	740.027
123.322	15.744	979.220	739.054
124.337	15.743	978.780	738.655
125.352	15.701	977.992	737.809
126.366	15.718	976.324	736.563
127.381	15.683	975.373	735.627
128.395	15.694	974.590	735.019
129.410	15.782	973.357	734.407
130.424	15.891	973.222	734.717
131.439	15.892	972.056	733.774
132.454	15.840	971.737	733.243
133.468	15.978	970.498	732.842
134.483	15.966	969.653	732.089
135.497	15.926	968.850	731.244
136.512	16.045	967.845	730.938
137.527	15.907	967.333	729.886
138.541	15.914	966.436	729.175
139.556	16.002	965.762	728.983
140.570	16.189	965.290	729.372
141.585	16.279	964.384	729.012
142.600	16.289	963.878	728.605
143.614	16.396	962.930	728.287
144.629	16.442	961.807	727.571
145.643	16.375	961.243	726.793
146.658	16.084	960.217	724.701
147.673	16.137	959.478	724.305
148.687	16.096	958.333	723.202
149.702	16.031	957.226	722.023
150.716	16.055	956.395	721.437
151.731	16.043	955.835	720.901
152.746	16.092	955.170	720.544
153.760	16.141	954.254	719.999
154.775	16.111	954.319	719.853
155.789	16.290	953.011	719.568
156.804	16.271	952.617	719.124
157.819	16.272	951.759	718.420
158.833	16.373	951.487	718.580
159.848	16.662	950.175	718.753
160.862	16.442	949.390	717.161
161.877	16.183	948.070	715.003
162.892	16.093	947.189	713.896
163.906	16.131	946.293	713.316
164.921	16.187	945.480	712.880
165.935	16.200	944.665	712.256
166.950	16.245	943.802	711.731
167.964	16.169	943.130	710.842
168.979	16.108	942.135	709.770
169.994	16.259	941.000	709.489
171.008	16.397	940.219	709.417
172.023	16.475	939.719	709.304
173.037	16.481	939.356	708.993
174.052	16.437	938.979	708.461
175.067	16.172	938.357	706.818
176.081	16.130	937.075	705.612
177.096	16.088	936.875	705.225
178.110	16.277	935.918	705.232
179.125	16.102	935.411	704.058
180.140	16.302	934.899	704.445
181.154	16.402	934.281	704.333
182.169	16.541	934.117	704.727
183.183	16.594	933.410	704.352
184.198	16.558	932.489	703.446
185.213	16.488	932.349	702.984
186.227	16.578	931.160	702.401
187.242	16.571	930.897	702.109
188.256	16.619	930.144	701.679
189.271	16.573	929.515	700.952
190.286	16.401	928.091	699.106
191.300	16.162	927.524	697.627
192.315	16.191	926.341	696.795
193.329	16.084	926.478	696.397
194.344	16.360	925.459	696.706
195.359	16.451	925.338	696.930
196.373	16.506	924.876	696.745
197.388	16.590	924.497	696.744
198.402	16.832	924.261	697.502
199.417	16.893	923.266	696.941
200.432	16.931	922.538	696.483
201.446	16.852	922.718	696.236
202.461	17.007	921.759	696.087
203.475	16.946	921.021	695.218
204.490	16.693	920.218	693.512
205.504	16.714	919.021	692.634
206.519	16.699	918.916	692.432
207.534	16.643	918.441	691.785
208.548	16.711	917.697	691.441
209.563	16.620	916.946	690.443
210.577	16.824	915.971	690.480
211.592	16.858	915.627	690.297
212.607	17.009	914.564	690.048
213.621	16.880	914.114	689.123
214.636	16.987	913.145	688.766
215.650	16.931	912.321	687.855
216.665	17.011	912.180	688.015
217.680	17.069	911.666	687.800
218.694	17.162	910.793	687.459
219.709	16.992	910.542	686.521
220.723	17.023	909.771	686.002
221.738	17.005	908.811	685.146
222.753	17.076	908.199	684.908
223.767	17.152	907.839	684.885
224.782	17.277	906.975	684.673
225.796	17.316	906.405	684.339
226.811	17.110	905.972	683.126
227.826	17.018	904.978	681.945
228.840	16.918	904.280	680.958
229.855	16.964	903.651	680.607
230.869	16.982	903.001	680.130
231.884	17.050	902.149	679.700
232.899	16.912	901.112	678.309
233.913	16.920	900.553	677.860
234.928	16.787	900.014	676.863
235.942	16.948	899.528	677.080
236.957	16.832	898.966	676.134
237.972	16.982	898.429	676.270
238.986	16.948	897.859	675.645
240.001	17.054	897.156	675.476
241.015	16.971	896.356	674.484
242.030	17.037	895.803	674.270
243.045	17.026	895.718	674.102
244.059	17.023	895.056	673.533
245.074	17.082	894.254	673.104
246.088	17.205	893.362	672.861
247.103	17.430	892.561	673.088
248.117	17.463	892.521	673.131
249.132	17.635	892.323	673.599
250.147	17.684	891.471	673.091
251.161	17.670	890.811	672.478
252.176	17.855	889.988	672.527
253.190	17.867	889.808	672.378
254.205	17.622	889.417	671.060
255.220	17.887	888.631	671.449
256.234	17.832	887.532	670.342
257.249	17.795	886.815	669.597
258.263	17.767	886.280	669.023
259.278	17.686	885.839	668.315
260.293	17.814	885.457	668.468
261.307	17.850	884.448	667.787
262.322	17.951	883.653	667.522
263.336	17.976	883.177	667.202
264.351	18.048	882.376	666.819
265.366	17.943	881.910	665.998
266.380	17.985	881.118	665.504
267.395	17.872	880.692	664.683
268.409	17.855	879.931	663.986
269.424	17.758	879.226	663.017
270.439	17.851	878.472	662.751
271.453	17.878	877.654	662.180
272.468	17.629	877.461	661.009
273.482	17.863	876.352	661.022
274.497	17.739	876.239	660.400
275.512	17.834	875.488	660.143
276.526	17.855	874.977	659.778
277.541	17.866	874.697	659.553
278.555	18.035	873.897	659.543
279.570	18.168	873.115	659.406
280.585	18.221	872.270	658.914
281.599	18.086	871.384	657.669
282.614	18.021	870.710	656.853
283.628	17.944	870.517	656.353
284.643	17.986	869.887	655.979
285.657	17.914	869.445	655.311
286.672	18.014	868.799	655.151
287.687	17.921	868.073	654.188
288.701	18.135	867.333	654.394
289.716	18.222	867.109	654.498
290.730	18.032	866.413	653.189
291.745	18.111	865.652	652.861
292.760	18.303	865.079	653.100
293.774	18.309	864.567	652.681
294.789	18.282	864.028	652.114
295.803	18.074	863.204	650.643
296.818	18.137	862.637	650.395
297.833	18.095	861.995	649.695
298.847	18.152	861.194	649.249
299.862	18.205	860.820	649.112
300.876	18.222	860.510	648.887
301.891	18.354	859.760	648.762
302.906	18.368	859.424	648.504
303.920	18.494	858.933	648.552
304.935	18.539	858.139	648.067
305.949	18.590	857.247	647.529
306.964	18.403	856.680	646.338
307.979	18.393	856.401	646.031
308.993	18.527	855.713	645.961
310.008	18.654	855.205	645.996
311.022	18.433	854.798	644.802
312.037	18.370	853.948	643.867
313.052	18.335	853.071	643.016
314.066	18.347	852.191	642.343
315.081	18.227	852.074	641.746
316.095	18.103	851.722	640.961
317.110	18.174	851.109	640.708
318.125	18.394	850.216	640.803
319.139	18.185	850.516	640.190
320.154	18.177	849.828	639.584
321.168	18.375	849.088	639.711
322.183	18.582	848.050	639.644
323.197	18.341	848.222	638.818
324.212	18.418	847.414	638.442
325.227	18.424	847.052	638.132
326.241	18.485	846.216	637.676
327.256	18.307	845.539	636.446
328.270	18.289	845.157	636.037
329.285	18.301	844.740	635.711
330.300	18.397	843.677	635.211
331.314	18.405	843.353	634.938
332.329	18.448	843.500	635.153
333.343	18.588	842.837	635.116
334.358	18.661	842.026	634.720
335.373	18.609	841.528	634.095
336.387	18.741	841.307	634.361
337.402	18.803	841.157	634.421
338.416	18.895	840.754	634.399
339.431	18.793	840.718	633.940
340.446	18.995	840.078	634.145
341.460	18.786	839.778	633.092
342.475	19.039	839.207	633.539
343.489	19.103	838.624	633.278
344.504	18.984	838.719	632.855
345.519	19.237	838.104	633.265
346.533	18.919	837.455	631.552
347.548	18.810	836.847	630.636
348.562	18.864	836.092	630.208
349.577	18.873	835.354	629.631
350.592	18.742	834.938	628.781
351.606	18.805	834.072	628.305
352.621	18.811	833.457	627.806
353.635	18.749	833.520	627.572
354.650	18.908	832.485	627.319
355.665	18.834	832.071	626.679
356.679	18.823	831.350	626.043
357.694	18.820	830.829	625.582
358.708	18.897	830.258	625.378
359.723	19.002	829.192	624.903
360.738	19.034	828.792	624.661
361.752	19.061	828.625	624.576
362.767	19.255	827.609	624.460
363.781	19.237	827.458	624.227
364.796	19.269	826.852	623.829
365.810	19.478	826.188	624.029
366.825	19.339	826.523	623.722
367.840	19.440	825.482	623.249
368.854	19.256	825.126	622.258
369.869	19.298	824.475	621.864
370.883	19.275	824.019	621.383
371.898	19.468	823.862	621.904
372.913	19.433	823.501	621.450
373.927	19.312	823.045	620.616
374.942	19.224	822.854	620.102
375.956	19.480	822.339	620.578
376.971	19.622	821.696	620.548
377.986	19.747	821.181	620.555
379.000	19.659	820.638	619.774
380.015	19.497	820.361	618.928
381.029	19.501	819.605	618.318
382.044	19.715	819.218	618.737
383.059	19.549	818.270	617.373
384.073	19.606	817.538	616.968
385.088	19.424	817.376	616.142
386.102	19.561	816.435	615.866
387.117	19.398	816.263	615.100
388.132	19.451	815.301	614.510
389.146	19.510	815.056	614.483
390.161	19.595	814.809	614.543
391.175	19.681	814.350	614.450
392.190	19.664	813.198	613.466
393.205	19.663	812.868	613.157
394.219	19.513	812.641	612.399
395.234	19.533	812.095	612.004
396.248	19.393	812.064	611.431
397.263	19.285	811.481	610.557
398.278	19.309	811.003	610.228
399.292	19.533	810.246	610.397
400.307	19.261	810.409	609.501
401.321	19.467	809.709	609.650
402.336	19.622	809.049	609.646
403.350	19.630	808.680	609.342
404.365	19.676	808.153	609.054
405.380	19.867	807.788	609.399
406.394	19.669	807.791	608.650
407.409	19.923	807.019	608.906
408.423	19.876	807.094	608.745
409.438	20.098	806.383	608.934
410.453	20.064	806.047	608.506
411.467	20.105	805.589	608.250
412.482	20.046	805.316	607.784
413.496	20.184	804.885	607.890
414.511	20.081	804.395	607.103
415.526	20.177	803.561	606.757
416.540	20.018	803.605	606.181
417.555	20.197	802.882	606.208
418.569	20.109	802.793	605.780
419.584	20.043	802.136	605.000
420.599	20.186	801.480	604.949
421.613	161.578	1372.688	1796.000
422.628	140.303	1455.907	1796.062
