DTS Sentinel unit serial number:	SN413079Multiplexer serial number:	ORYXHardware model number:	OX4-SRSoftware version number:	ORYX F/W v4.00 Oryx Data Collector v3.7.2.0data status	okinstallation	princeton_trtdifferential loss correction	single-endedforward channel	channel 1reverse channel	N/Adate	2019/09/13time	11:06:35forward acquisition time	60.00reverse acquisition time	0.00gamma	496.2192k internal	0.2318k external	0.2318temperature offset calibration	1.0160default loss term (dB/km)	0.3790temperature slope calibration	1.0000multiplexer offset coefficient	1.0000multiplexer slope coefficient	1.0000fibre end	0.00T internal ref (°C)	32.00T ext. ref 1 (°C)	4.66T ext. ref 2 (°C)	29.31length (m)	temperature (°C)	Stokes	anti-Stokes-747.200	-49.608	0.132	0.064
-746.185	50.579	0.152	0.146
-745.171	-74.120	-0.078	-0.028
-744.156	-200.000	-0.064	0.348
-743.142	64.143	0.151	-0.153
-742.127	-200.000	-0.305	-0.001
-741.112	-136.466	0.184	-0.022
-740.098	439.345	-0.229	0.507
-739.083	575.808	0.042	-0.105
-738.069	154.987	0.227	0.316
-737.054	-0.003	-0.289	0.208
-736.039	-116.934	-0.211	-0.039
-735.025	-169.819	0.300	0.011
-734.010	-200.000	0.012	-0.124
-732.996	-156.252	-0.190	-0.012
-731.981	-164.091	-0.062	0.003
-730.966	-58.487	-0.014	-0.006
-729.952	-125.806	-0.122	0.019
-728.937	64.261	-0.266	0.270
-727.923	96.888	0.121	-0.141
-726.908	800.000	-0.054	-0.170
-725.894	38.576	-0.374	-0.338
-724.879	85.430	0.013	-0.014
-723.864	-136.693	0.231	0.027
-722.850	386.812	-0.126	-0.262
-721.835	-154.251	-0.250	0.017
-720.821	-47.003	0.206	0.102
-719.806	-87.837	-0.265	0.081
-718.791	-53.712	0.201	-0.093
-717.777	33.370	0.099	-0.087
-716.762	105.820	-0.050	-0.060
-715.748	143.832	-0.156	-0.211
-714.733	7.873	-0.220	-0.167
-713.718	95.705	-0.156	0.180
-712.704	800.000	-0.037	0.159
-711.689	-74.961	0.290	-0.105
-710.675	-200.000	-0.018	-0.136
-709.660	-200.000	0.055	0.248
-708.645	-155.975	-0.254	0.016
-707.631	423.714	-0.164	-0.356
-706.616	-90.227	0.223	-0.065
-705.602	17.917	-0.292	-0.235
-704.587	-22.103	0.174	-0.107
-703.572	59.681	0.123	0.122
-702.558	-2.542	0.168	-0.119
-701.543	-66.224	-0.176	0.071
-700.529	506.063	0.067	0.157
-699.514	-200.000	0.020	0.127
-698.499	216.907	-0.033	-0.052
-697.485	-141.845	-0.322	-0.033
-696.470	-117.434	0.081	-0.015
-695.456	-7.077	0.167	-0.114
-694.441	-47.774	0.185	-0.090
-693.426	-103.406	-0.282	-0.067
-692.412	-30.126	-0.183	-0.105
-691.397	95.097	0.120	-0.138
-690.383	47.878	-0.221	-0.209
-689.368	-144.652	-0.148	0.014
-688.354	764.530	0.059	0.163
-687.339	203.587	-0.110	0.172
-686.324	-200.000	-0.009	0.121
-685.310	229.451	-0.097	-0.161
-684.295	-78.020	0.052	-0.018
-683.281	-36.326	-0.178	-0.097
-682.266	-200.000	-0.003	0.130
-681.251	-200.000	0.028	-0.151
-680.237	223.492	0.081	0.131
-679.222	-200.000	0.001	-0.025
-678.208	-33.358	-0.054	0.030
-677.193	800.000	0.066	0.265
-676.178	-56.631	-0.312	0.140
-675.164	-150.163	0.308	-0.024
-674.149	-200.000	0.020	-0.356
-673.135	-115.241	0.154	0.029
-672.120	-0.777	-0.426	-0.305
-671.105	-176.724	0.085	0.002
-670.091	800.000	0.025	0.076
-669.076	12.181	0.221	-0.171
-668.062	249.224	-0.194	-0.332
-667.047	136.406	0.181	0.239
-666.032	76.626	-0.067	0.072
-665.018	-19.724	0.165	0.103
-664.003	-200.000	0.042	-0.242
-662.989	169.064	-0.088	-0.127
-661.974	-200.000	-0.014	-0.572
-660.959	-52.589	-0.242	-0.113
-659.945	-200.000	-0.004	-0.085
-658.930	713.796	0.076	-0.203
-657.916	-28.276	0.069	-0.040
-656.901	56.369	0.157	-0.154
-655.886	-50.589	0.371	-0.176
-654.872	-200.000	-0.012	0.117
-653.857	145.686	-0.134	0.181
-652.843	-142.089	0.150	-0.015
-651.828	22.176	-0.177	-0.146
-650.814	-200.000	-0.009	-0.239
-649.799	-24.254	-0.168	-0.101
-648.784	-13.642	-0.374	-0.244
-647.770	-178.173	-0.283	-0.007
-646.755	-200.000	-0.012	-0.090
-645.741	-200.000	-0.060	0.352
-644.726	-62.444	0.220	0.092
-643.711	-96.593	-0.340	-0.090
-642.697	-45.937	-0.065	0.032
-641.682	-25.170	0.029	-0.017
-640.668	-76.667	0.212	-0.075
-639.653	81.030	0.063	-0.069
-638.638	-34.917	0.303	-0.167
-637.624	-62.829	0.445	0.186
-636.609	704.971	0.027	-0.071
-635.595	-200.000	0.009	-0.182
-634.580	10.045	0.262	-0.201
-633.565	-200.000	0.002	0.052
-632.551	529.925	-0.111	-0.264
-631.536	-35.133	-0.324	0.178
-630.522	-102.899	0.223	-0.053
-629.507	-117.777	-0.089	0.016
-628.492	-200.000	-0.010	-0.283
-627.478	800.000	-0.013	-0.048
-626.463	137.704	-0.217	0.287
-625.449	48.038	-0.032	0.030
-624.434	-166.508	-0.140	0.006
-623.419	-164.811	0.139	-0.006
-622.405	8.014	-0.078	0.059
-621.390	94.081	-0.165	-0.188
-620.376	800.000	-0.049	0.148
-619.361	-79.909	-0.057	0.019
-618.346	155.530	0.101	0.140
-617.332	438.180	-0.071	0.157
-616.317	800.000	-0.068	0.251
-615.303	216.153	-0.042	0.068
-614.288	-50.378	0.439	-0.209
-613.273	-7.969	0.129	-0.088
-612.259	123.983	-0.296	0.375
-611.244	25.022	-0.059	-0.049
-610.230	-94.099	-0.310	0.085
-609.215	-200.000	0.050	-0.355
-608.201	-16.286	-0.167	0.107
-607.186	-200.000	0.084	0.369
-606.171	40.400	0.096	0.087
-605.157	9.546	-0.195	0.148
-604.142	158.558	-0.051	-0.072
-603.128	-87.345	0.195	-0.059
-602.113	800.000	-0.147	-0.520
-601.098	-200.000	0.002	0.424
-600.084	48.369	-0.142	-0.134
-599.069	26.115	0.109	-0.092
-598.055	69.872	0.079	-0.082
-597.040	71.947	-0.176	-0.184
-596.025	-107.513	-0.165	-0.036
-595.011	108.766	-0.155	0.187
-593.996	-101.738	0.202	-0.049
-592.982	-200.000	0.018	-0.174
-591.967	35.030	0.087	-0.077
-590.952	-2.793	-0.245	-0.172
-589.938	172.472	-0.105	-0.152
-588.923	72.828	0.088	0.093
-587.909	-43.036	-0.064	0.032
-586.894	-160.890	-0.332	0.018
-585.879	94.956	0.170	-0.195
-584.865	615.353	0.111	0.280
-583.850	-60.948	0.131	-0.056
-582.836	83.535	0.137	0.150
-581.821	412.152	0.058	-0.123
-580.806	-61.595	-0.019	-0.008
-579.792	50.810	-0.045	-0.043
-578.777	353.596	-0.057	0.115
-577.763	345.402	0.162	-0.319
-576.748	593.977	-0.051	-0.127
-575.733	87.810	0.262	-0.292
-574.719	-78.153	-0.299	-0.103
-573.704	-20.349	-0.166	0.103
-572.690	605.361	0.124	0.310
-571.675	262.023	0.147	-0.256
-570.661	-200.000	-0.060	0.323
-569.646	-115.413	0.129	-0.024
-568.631	-161.215	0.342	-0.018
-567.617	-200.000	0.022	-0.468
-566.602	-200.000	-0.007	-0.182
-565.588	-200.000	0.029	-0.221
-564.573	-200.000	0.019	0.367
-563.558	-119.983	0.126	0.022
-562.544	800.000	0.015	-0.059
-561.529	-25.428	-0.234	0.139
-560.515	-18.836	-0.087	0.054
-559.500	203.385	0.168	-0.261
-558.485	-111.124	0.114	0.023
-557.471	-200.000	0.058	0.395
-556.456	800.000	0.018	-0.079
-555.442	-100.570	0.287	0.071
-554.427	-200.000	-0.007	-0.178
-553.412	594.641	-0.193	-0.479
-552.398	9.829	0.206	-0.157
-551.383	74.744	0.160	0.169
-550.369	-35.597	0.200	-0.109
-549.354	62.841	0.352	0.354
-548.339	-200.000	-0.014	-0.147
-547.325	249.268	-0.054	0.092
-546.310	-139.769	0.117	0.012
-545.296	-148.617	0.201	0.016
-544.281	-155.469	0.404	-0.026
-543.266	-30.191	-0.140	0.080
-542.252	-200.000	-0.032	0.303
-541.237	-200.000	0.019	0.225
-540.223	345.312	0.102	-0.201
-539.208	115.638	-0.149	0.183
-538.193	627.329	0.058	-0.147
-537.179	16.638	-0.206	0.164
-536.164	128.749	-0.190	-0.243
-535.150	87.500	0.087	-0.097
-534.135	-97.840	0.283	-0.073
-533.121	-18.007	0.061	0.038
-532.106	206.152	-0.146	0.228
-531.091	155.245	-0.123	-0.170
-530.077	-200.000	0.038	-0.214
-529.062	-124.035	0.209	0.033
-528.048	-132.454	0.067	0.009
-527.033	-115.896	-0.230	-0.043
-526.018	-200.000	-0.019	-0.236
-525.004	154.801	-0.060	-0.083
-523.989	-136.242	0.553	-0.065
-522.975	17.085	-0.250	-0.199
-521.960	-200.000	0.011	-0.115
-520.945	-89.357	-0.271	0.080
-519.931	108.141	0.264	-0.316
-518.916	-98.877	-0.219	0.056
-517.902	-110.860	-0.270	-0.056
-516.887	-30.065	-0.281	0.160
-515.872	-109.164	-0.183	0.039
-514.858	-132.517	0.194	-0.025
-513.843	697.805	-0.119	0.314
-512.829	-200.000	0.000	0.148
-511.814	-110.913	-0.350	0.072
-510.799	-136.587	0.281	0.033
-509.785	13.612	0.146	0.113
-508.770	-200.000	-0.029	0.391
-507.756	140.123	0.042	0.056
-506.741	-200.000	0.081	-0.423
-505.726	222.182	0.028	0.045
-504.712	160.324	-0.041	0.058
-503.697	86.381	0.274	0.303
-502.683	-89.094	-0.206	0.061
-501.668	800.000	0.057	-0.208
-500.653	-22.796	0.329	-0.199
-499.639	-89.031	0.227	-0.067
-498.624	800.000	-0.087	-0.274
-497.610	-100.793	0.051	-0.013
-496.595	-184.650	-0.132	-0.002
-495.581	-76.342	0.219	0.077
-494.566	45.264	-0.100	0.092
-493.551	-200.000	0.046	-0.314
-492.537	-24.959	0.480	0.285
-491.522	800.000	-0.006	0.017
-490.508	-0.173	0.074	0.053
-489.493	24.614	0.192	0.160
-488.478	-82.904	0.145	0.047
-487.464	-160.532	0.098	-0.005
-486.449	49.299	0.114	0.108
-485.435	-200.000	-0.006	0.155
-484.420	11.312	0.327	-0.251
-483.405	654.578	0.186	0.477
-482.391	-13.964	0.242	0.157
-481.376	-107.625	-0.285	0.062
-480.362	-200.000	0.009	0.136
-479.347	77.686	-0.142	0.151
-478.332	275.758	0.071	-0.126
-477.318	-149.809	0.275	0.022
-476.303	-161.972	-0.084	0.004
-475.289	-73.134	-0.044	-0.016
-474.274	84.353	0.176	0.192
-473.259	-113.248	0.134	0.026
-472.245	-42.540	-0.129	0.066
-471.230	41.654	0.272	0.246
-470.216	-40.583	0.161	0.084
-469.201	522.017	-0.086	-0.201
-468.186	-22.185	0.325	-0.198
-467.172	-81.455	-0.040	-0.013
-466.157	-68.738	-0.186	0.072
-465.143	108.016	-0.205	-0.245
-464.128	-56.633	0.161	-0.071
-463.113	746.981	0.059	-0.158
-462.099	20.546	-0.408	0.330
-461.084	-200.000	0.031	0.309
-460.070	-40.001	-0.409	-0.214
-459.055	13.557	0.209	-0.162
-458.040	-200.000	0.009	0.061
-457.026	117.529	0.239	-0.295
-456.011	-149.641	0.193	-0.015
-454.997	-120.984	0.105	-0.018
-453.982	87.772	-0.316	0.350
-452.968	-12.805	0.171	0.112
-451.953	-33.186	0.032	-0.018
-450.938	-138.732	0.260	-0.028
-449.924	32.595	-0.216	0.187
-448.909	-200.000	-0.005	-0.059
-447.895	-93.847	-0.281	0.077
-446.880	621.901	-0.030	-0.075
-445.865	800.000	-0.030	-0.120
-444.851	17.474	0.359	-0.285
-443.836	342.874	0.135	0.264
-442.822	-52.544	-0.105	-0.048
-441.807	-200.000	0.021	0.154
-440.792	-50.166	-0.193	-0.092
-439.778	-21.494	-0.088	0.053
-438.763	75.640	-0.279	0.295
-437.749	-177.529	0.363	0.009
-436.734	599.826	-0.081	0.202
-435.719	510.532	-0.122	-0.283
-434.705	-166.494	-0.222	-0.009
-433.690	800.000	0.082	0.263
-432.676	-200.000	0.035	0.240
-431.661	-200.000	0.000	0.099
-430.646	800.000	-0.043	0.144
-429.632	800.000	0.104	0.310
-428.617	800.000	-0.059	0.235
-427.603	112.461	-0.125	0.151
-426.588	-183.052	0.139	0.002
-425.573	-125.218	0.221	0.034
-424.559	-180.935	-0.268	-0.005
-423.544	800.000	0.018	-0.059
-422.530	566.408	-0.115	-0.279
-421.515	-200.000	-0.014	0.306
-420.500	-200.000	0.027	-0.253
-419.486	800.000	-0.074	-0.321
-418.471	800.000	0.093	-0.356
-417.457	800.000	-0.093	0.303
-416.442	-103.121	0.140	0.033
-415.428	-40.197	0.193	-0.101
-414.413	-3.162	-0.110	0.077
-413.398	452.094	0.040	0.088
-412.384	-200.000	0.007	-0.207
-411.369	-143.810	-0.101	-0.010
-410.355	-62.050	0.050	-0.021
-409.340	53.039	0.104	-0.100
-408.325	-200.000	-0.055	-0.264
-407.311	485.762	-0.158	-0.360
-406.296	800.000	0.053	0.205
-405.282	-92.716	-0.334	-0.093
-404.267	487.368	-0.089	0.203
-403.252	800.000	-0.053	0.206
-402.238	106.464	-0.085	0.101
-401.223	-200.000	-0.004	-0.087
-400.209	25.825	0.267	0.222
-399.194	-200.000	-0.008	-0.141
-398.179	232.072	-0.045	0.073
-397.165	-130.743	0.214	-0.029
-396.150	-200.000	-0.044	0.229
-395.136	-200.000	-0.011	0.127
-394.121	-115.670	0.177	-0.033
-393.106	-200.000	-0.031	-0.284
-392.092	35.300	0.016	0.014
-391.077	800.000	0.085	-0.363
-390.063	800.000	0.062	-0.224
-389.048	13.347	0.172	-0.133
-388.033	-131.363	0.101	0.013
-387.019	-187.775	-0.515	-0.007
-386.004	385.918	0.109	-0.225
-384.990	-200.000	-0.007	0.096
-383.975	119.758	0.164	-0.203
-382.960	-15.748	-0.178	0.113
-381.946	-50.068	0.282	0.133
-380.931	800.000	-0.109	0.367
-379.917	49.116	-0.155	0.145
-378.902	-97.287	-0.180	0.047
-377.888	9.060	-0.230	-0.173
-376.873	202.326	-0.101	0.155
-375.858	800.000	0.017	0.072
-374.844	-92.936	0.200	0.056
-373.829	-200.000	-0.095	-0.445
-372.815	135.929	0.116	0.151
-371.800	64.802	-0.167	-0.168
-370.785	4.294	0.246	0.179
-369.771	-143.625	-0.178	-0.017
-368.756	-121.316	-0.390	0.065
-367.742	148.815	-0.103	-0.139
-366.727	800.000	0.027	0.092
-365.712	-33.017	-0.182	-0.101
-364.698	-22.335	-0.197	0.119
-363.683	-38.321	-0.105	-0.055
-362.669	-200.000	0.055	0.258
-361.654	-200.000	0.023	0.177
-360.639	263.369	-0.121	0.210
-359.625	217.466	0.073	-0.116
-358.610	-68.618	-0.232	-0.090
-357.596	54.014	0.029	0.028
-356.581	532.855	0.071	0.169
-355.566	-10.683	-0.157	-0.103
-354.552	167.074	-0.082	0.116
-353.537	800.000	-0.024	-0.092
-352.523	800.000	0.014	-0.045
-351.508	-20.127	0.078	0.048
-350.493	79.557	-0.076	-0.082
-349.479	451.190	0.121	0.267
-348.464	-200.000	0.003	-0.102
-347.450	-86.989	0.202	0.061
-346.435	-200.000	-0.054	-0.374
-345.420	800.000	0.049	-0.161
-344.406	-76.456	-0.133	-0.047
-343.391	12.720	0.201	-0.155
-342.377	-59.727	-0.018	0.008
-341.362	800.000	-0.072	0.211
-340.348	117.539	0.138	0.169
-339.333	-200.000	0.010	0.110
-338.318	188.425	-0.103	0.153
-337.304	-151.596	-0.030	0.002
-336.289	308.690	-0.053	0.098
-335.275	174.607	0.129	-0.185
-334.260	-61.424	0.208	0.087
-333.245	61.563	0.147	0.146
-332.231	-103.367	-0.252	0.059
-331.216	-112.297	-0.116	0.023
-330.202	800.000	-0.028	0.085
-329.187	447.014	0.134	0.294
-328.172	-63.687	-0.202	0.083
-327.158	489.256	0.120	0.274
-326.143	227.872	-0.031	-0.051
-325.129	441.141	0.041	-0.089
-324.114	-200.000	-0.062	0.284
-323.099	-25.848	-0.218	-0.128
-322.085	-142.900	-0.256	-0.025
-321.070	800.000	-0.046	0.175
-320.056	-200.000	0.000	0.161
-319.041	38.418	-0.117	-0.103
-318.026	139.414	0.057	0.075
-317.012	-200.000	0.021	0.235
-315.997	165.865	0.225	0.317
-314.983	-40.473	0.308	0.159
-313.968	186.594	-0.128	0.190
-312.953	-4.744	-0.316	-0.217
-311.939	186.067	0.198	-0.292
-310.924	-11.275	0.016	0.011
-309.910	29.882	0.053	-0.045
-308.895	-200.000	0.046	0.315
-307.880	45.110	0.194	-0.178
-306.866	-200.000	-0.077	-0.511
-305.851	-200.000	-0.069	-0.355
-304.837	96.231	0.101	0.115
-303.822	800.000	-0.026	0.104
-302.807	109.843	-0.138	-0.165
-301.793	-200.000	0.014	0.107
-300.778	-200.000	-0.033	0.300
-299.764	145.251	-0.141	0.188
-298.749	209.354	0.199	0.310
-297.735	800.000	0.058	0.238
-296.720	202.241	0.089	0.136
-295.705	-161.523	0.118	0.006
-294.691	-111.699	0.086	0.017
-293.676	35.404	0.171	-0.149
-292.662	-3.131	-0.238	-0.165
-291.647	44.150	0.055	0.050
-290.632	726.517	0.081	-0.216
-289.618	60.206	-0.249	-0.244
-288.603	304.622	0.211	-0.390
-287.589	454.485	0.086	-0.190
-286.574	-200.000	0.022	-0.252
-285.559	188.775	-0.206	0.307
-284.545	-37.553	0.053	0.028
-283.530	133.783	-0.106	0.137
-282.516	-200.000	0.019	0.133
-281.501	135.663	0.198	0.256
-280.486	652.817	0.049	-0.124
-279.472	-122.206	0.087	-0.014
-278.457	-200.000	0.020	0.091
-277.443	-200.000	0.002	-0.046
-276.428	39.456	-0.254	-0.226
-275.413	-27.880	0.276	-0.159
-274.399	251.214	-0.187	0.317
-273.384	-87.549	0.145	0.043
-272.370	-200.000	0.029	0.284
-271.355	55.424	-0.188	0.181
-270.340	94.596	-0.170	0.192
-269.326	-145.748	0.123	-0.011
-268.311	-200.000	0.064	-0.292
-267.297	267.606	0.066	0.114
-266.282	-200.000	0.023	-0.257
-265.267	124.293	0.134	-0.168
-264.253	-46.092	-0.095	0.047
-263.238	-200.000	-0.005	0.029
-262.224	-17.628	0.248	0.155
-261.209	407.171	0.052	0.108
-260.195	42.031	-0.205	-0.185
-259.180	-110.364	0.281	-0.058
-258.165	-31.512	-0.281	-0.157
-257.151	447.423	0.037	-0.080
-256.136	1.751	0.270	0.193
-255.122	-119.776	-0.273	-0.047
-254.107	-35.716	-0.229	-0.123
-253.092	-80.932	-0.217	0.072
-252.078	333.520	-0.074	-0.141
-251.063	280.980	0.096	0.170
-250.049	-87.798	-0.088	0.026
-249.034	442.537	0.068	-0.148
-248.019	-86.864	0.253	-0.077
-247.005	-200.000	-0.033	0.257
-245.990	-200.000	0.032	0.188
-244.976	700.591	0.072	0.188
-243.961	-200.000	0.011	-0.154
-242.946	-6.836	0.077	0.052
-241.932	-18.658	0.072	-0.044
-240.917	458.450	0.117	0.259
-239.903	250.619	-0.095	0.160
-238.888	38.879	0.132	-0.117
-237.873	79.422	-0.137	-0.146
-236.859	29.822	-0.120	-0.101
-235.844	-200.000	0.008	0.225
-234.830	-84.446	0.113	0.035
-233.815	-200.000	0.012	0.053
-232.800	-25.927	0.131	0.076
-231.786	190.130	0.081	-0.120
-230.771	447.041	0.178	-0.388
-229.757	376.592	-0.067	-0.135
-228.742	31.980	0.144	-0.123
-227.727	-56.241	-0.337	0.149
-226.713	-17.228	-0.115	-0.072
-225.698	-200.000	-0.080	0.529
-224.684	-200.000	0.025	0.200
-223.669	800.000	-0.041	-0.177
-222.655	-39.446	0.203	0.106
-221.640	800.000	0.013	-0.049
-220.625	554.435	0.062	0.148
-219.611	222.910	0.137	0.219
-218.596	800.000	-0.089	-0.273
-217.582	-200.000	-0.036	-0.260
-216.567	8.028	-0.069	-0.051
-215.552	165.683	-0.044	-0.061
-214.538	800.000	-0.086	-0.298
-213.523	9.015	-0.082	-0.062
-212.509	131.959	0.099	-0.126
-211.494	-126.478	-0.134	0.020
-210.479	-11.782	0.203	0.132
-209.465	232.448	0.172	0.281
-208.450	-200.000	0.002	0.030
-207.436	-185.234	-0.122	0.002
-206.421	-140.183	0.109	-0.011
-205.406	-200.000	-0.031	0.267
-204.392	168.798	-0.052	-0.074
-203.377	800.000	-0.079	-0.262
-202.363	-35.375	0.039	-0.021
-201.348	800.000	-0.008	0.025
-200.333	-200.000	-0.022	0.107
-199.319	68.184	0.202	-0.205
-198.304	-49.763	-0.350	-0.165
-197.290	136.424	0.147	0.190
-196.275	-103.624	0.067	0.016
-195.260	318.010	-0.059	-0.111
-194.246	-121.035	0.183	-0.030
-193.231	-78.688	-0.514	0.174
-192.217	-200.000	-0.040	-0.212
-191.202	-200.000	0.210	0.000
-190.187	2.934	-0.053	0.038
-189.173	-23.004	0.092	-0.055
-188.158	-124.599	-0.061	0.009
-187.144	-160.621	-0.295	0.016
-186.129	800.000	-0.038	-0.133
-185.114	-93.284	-0.338	0.093
-184.100	-27.655	-0.024	-0.014
-183.085	407.240	-0.051	0.106
-182.071	-200.000	-0.062	-0.303
-181.056	-200.000	-0.015	0.086
-180.042	-200.000	0.013	-0.315
-179.027	-200.000	-0.050	-0.238
-178.012	171.759	-0.069	-0.097
-176.998	-126.041	-0.162	0.024
-175.983	-200.000	-0.025	-0.324
-174.969	800.000	-0.047	-0.166
-173.954	603.950	-0.059	-0.145
-172.939	-110.974	0.256	-0.052
-171.925	-163.998	-0.235	0.011
-170.910	-29.952	-0.175	-0.098
-169.896	170.976	-0.338	-0.479
-168.881	54.705	-0.149	-0.142
-167.866	800.000	-0.042	-0.143
-166.852	69.124	-0.144	0.146
-165.837	134.034	-0.044	-0.056
-164.823	214.773	0.086	-0.134
-163.808	-74.111	0.327	-0.117
-162.793	-45.158	-0.307	-0.151
-161.779	800.000	-0.041	0.140
-160.764	221.116	0.107	-0.170
-159.750	-56.473	0.074	0.032
-158.735	800.000	-0.068	0.276
-157.720	-18.814	0.117	-0.072
-156.706	208.009	0.208	-0.322
-155.691	63.810	-0.304	0.302
-154.677	736.173	0.089	0.236
-153.662	-95.566	0.184	0.049
-152.647	-30.133	-0.067	-0.038
-151.633	-152.986	-0.369	-0.026
-150.618	113.634	0.160	0.192
-149.604	-45.913	-0.112	0.055
-148.589	-73.723	-0.262	-0.094
-147.574	-67.622	-0.134	0.052
-146.560	-51.726	0.262	-0.121
-145.545	-200.000	0.004	0.118
-144.531	-73.677	0.283	-0.102
-143.516	-20.907	-0.124	-0.075
-142.502	26.706	0.181	0.150
-141.487	800.000	0.097	0.407
-140.472	-200.000	-0.013	0.102
-139.458	582.316	-0.076	0.183
-138.443	-23.858	0.181	0.107
-137.429	-25.244	-0.098	-0.057
-136.414	297.181	0.228	-0.413
-135.399	-85.058	0.614	0.190
-134.385	-127.542	-0.185	-0.026
-133.370	4.162	-0.259	0.187
-132.356	-200.000	0.042	-0.204
-131.341	176.843	0.011	-0.016
-130.326	-9.022	-0.077	0.051
-129.312	56.236	-0.136	0.130
-128.297	800.000	-0.055	0.181
-127.283	61.723	0.233	-0.229
-126.268	-93.158	0.413	0.114
-125.253	14.408	-0.121	-0.093
-124.239	-115.886	0.358	-0.066
-123.224	34.238	0.219	0.189
-122.210	-24.411	0.061	0.036
-121.195	15.400	-0.308	-0.239
-120.180	-148.413	0.419	0.034
-119.166	45.320	0.224	0.204
-118.151	-64.276	-0.392	-0.158
-117.137	-83.972	0.324	-0.102
-116.122	-120.150	-0.076	0.013
-115.107	-63.454	-0.305	-0.124
-114.093	10.469	0.106	-0.079
-113.078	800.000	0.041	-0.122
-112.064	-104.762	-0.209	-0.047
-111.049	-200.000	0.018	-0.184
-110.034	31.113	0.131	0.111
-109.020	26.926	0.313	0.259
-108.005	59.914	-0.105	-0.102
-106.991	235.850	0.102	0.166
-105.976	-19.072	-0.234	0.144
-104.962	-78.111	0.273	0.093
-103.947	174.763	-0.182	0.260
-102.932	24.945	0.154	-0.126
-101.918	-200.000	0.000	-0.051
-100.903	60.723	0.262	0.256
-99.889	-23.537	-0.077	0.045
-98.874	800.000	0.053	0.190
-97.859	-38.936	0.149	0.078
-96.845	-200.000	-0.027	0.236
-95.830	335.379	-0.083	0.158
-94.816	474.597	-0.116	0.258
-93.801	-17.009	-0.137	-0.085
-92.786	-49.728	0.198	-0.093
-91.772	-51.218	0.202	0.093
-90.757	-46.154	0.108	0.053
-89.743	-200.000	-0.059	-0.407
-88.728	-189.030	0.409	0.005
-87.713	-14.226	0.184	0.117
-86.699	-21.179	-0.258	0.155
-85.684	43.547	0.367	-0.331
-84.670	91.739	0.082	-0.091
-83.655	-56.797	-0.224	0.097
-82.640	-200.000	-0.013	-0.347
-81.626	30.189	-0.456	-0.384
-80.611	-31.690	-0.243	0.134
-79.597	-111.002	0.105	-0.021
-78.582	133.603	0.143	-0.182
-77.567	322.365	-0.077	0.145
-76.553	-73.423	0.362	-0.130
-75.538	-63.520	0.214	0.087
-74.524	51.905	0.199	0.187
-73.509	-132.879	0.178	-0.022
-72.494	-200.000	0.013	0.199
-71.480	92.393	-0.086	0.096
-70.465	35.242	0.029	-0.025
-69.451	80.099	0.106	0.112
-68.436	-112.938	-0.279	0.054
-67.422	267.747	0.079	-0.136
-66.407	166.304	0.124	0.173
-65.392	-9.345	-0.124	0.082
-64.378	-200.000	-0.020	-0.290
-63.363	-165.153	-0.294	-0.013
-62.349	9.761	-0.287	0.215
-61.334	-58.628	-1.086	-0.464
-60.319	-97.447	0.395	0.101
-59.305	708.208	-0.382	-0.994
-58.290	308.488	0.686	1.261
-57.276	-200.000	0.290	1.500
-56.261	-200.000	96.381	581.978
-55.246	618.219	1406.521	3478.977
-54.232	190.299	2597.249	3842.084
-53.217	119.800	2171.683	2650.980
-52.203	44.170	1622.913	1466.142
-51.188	35.565	1357.390	1173.918
-50.173	32.254	1315.687	1118.149
-49.159	54.691	1362.592	1294.167
-48.144	56.554	1378.601	1320.564
-47.130	35.768	1337.797	1158.014
-46.115	32.245	1320.386	1121.910
-45.100	31.961	1315.664	1116.165
-44.086	31.973	1313.213	1114.113
-43.071	31.972	1310.897	1112.096
-42.057	31.848	1308.980	1109.696
-41.042	32.003	1306.738	1108.664
-40.027	31.921	1305.322	1106.939
-39.013	31.777	1303.670	1104.645
-37.998	31.944	1301.601	1103.831
-36.984	31.988	1299.662	1102.398
-35.969	32.041	1298.190	1101.421
-34.954	31.986	1296.689	1099.780
-33.940	32.081	1295.027	1098.884
-32.925	32.091	1293.567	1097.659
-31.911	32.084	1291.781	1096.057
-30.896	32.104	1290.747	1095.254
-29.881	32.108	1289.133	1093.862
-28.867	32.195	1287.737	1093.143
-27.852	32.105	1286.411	1091.447
-26.838	32.121	1285.003	1090.307
-25.823	32.098	1283.496	1088.849
-24.809	32.158	1282.411	1088.236
-23.794	32.124	1280.823	1086.644
-22.779	32.215	1279.084	1085.652
-21.765	32.134	1277.999	1084.223
-20.750	32.018	1276.958	1082.627
-19.736	31.879	1275.996	1080.969
-18.721	32.000	1274.394	1080.262
-17.706	31.878	1273.429	1078.703
-16.692	31.914	1271.914	1077.581
-15.677	31.940	1270.718	1076.674
-14.663	31.982	1269.492	1075.834
-13.648	31.891	1269.047	1074.895
-12.633	32.066	1267.818	1074.813
-11.619	31.863	1266.925	1072.852
-10.604	31.908	1265.977	1072.258
-9.590	31.842	1264.945	1070.970
-8.575	31.954	1264.042	1070.799
-7.560	31.899	1263.146	1069.688
-6.546	31.963	1262.091	1069.115
-5.531	31.883	1261.382	1068.014
-4.517	31.831	1260.646	1067.051
-3.502	31.939	1259.586	1066.730
-2.487	31.911	1258.889	1065.934
-1.473	32.057	1254.432	1062.944
-0.458	30.899	1239.751	1043.978
0.556	29.370	1222.564	1006.470
1.571	25.548	1227.795	989.695
2.586	24.197	1242.122	993.627
3.600	22.929	1228.957	976.009
4.615	17.088	1156.729	888.100
5.629	8.803	1081.827	789.825
6.644	4.892	1062.383	756.598
7.659	4.668	1059.560	753.436
8.673	4.544	1057.613	751.384
9.688	4.527	1056.563	750.492
10.702	4.953	1055.122	751.454
11.717	10.429	1063.250	783.720
12.731	18.642	1074.655	832.045
13.746	21.960	1078.138	850.780
14.761	22.034	1077.621	850.656
15.775	21.209	1075.728	845.094
16.790	20.108	1074.121	838.435
17.804	19.558	1072.329	834.303
18.819	19.308	1071.348	832.260
19.834	19.087	1070.679	830.601
20.848	19.053	1070.211	830.000
21.863	18.888	1068.839	828.066
22.877	18.673	1068.308	826.547
23.892	18.721	1067.355	825.969
24.907	18.551	1066.981	824.788
25.921	18.645	1065.707	824.181
26.936	18.622	1064.549	823.105
27.950	18.764	1063.042	822.545
28.965	18.841	1061.324	821.512
29.980	18.861	1060.432	820.843
30.994	19.112	1059.190	821.007
32.009	19.089	1058.347	820.173
33.023	18.866	1057.688	818.527
34.038	18.875	1056.150	817.305
35.053	18.800	1055.129	816.088
36.067	18.747	1054.372	815.177
37.082	18.813	1053.536	814.774
38.096	18.900	1053.154	814.816
39.111	18.996	1052.068	814.360
40.126	18.687	1050.987	811.988
41.140	18.512	1049.288	809.781
42.155	18.315	1048.347	808.053
43.169	18.286	1046.867	806.703
44.184	18.214	1046.284	805.844
45.199	18.233	1045.218	805.039
46.213	18.551	1044.167	805.652
47.228	18.764	1043.144	805.790
48.242	18.822	1042.539	805.523
49.257	18.818	1041.188	804.390
50.271	18.813	1040.753	803.959
51.286	18.867	1040.145	803.673
52.301	18.793	1038.424	801.924
53.315	18.630	1037.639	800.488
54.330	18.478	1036.630	798.930
55.344	18.500	1035.856	798.364
56.359	18.620	1034.674	797.943
57.374	18.535	1033.797	796.802
58.388	18.305	1033.174	795.181
59.403	18.399	1032.193	794.791
60.417	18.231	1031.282	793.241
61.432	18.265	1030.824	792.977
62.447	18.139	1029.775	791.518
63.461	18.096	1029.010	790.658
64.476	18.116	1027.996	789.903
65.490	18.047	1027.171	788.879
66.505	18.209	1026.602	789.120
67.520	18.184	1026.233	788.651
68.534	18.172	1025.501	787.964
69.549	18.109	1024.419	786.775
70.563	18.059	1023.554	785.811
71.578	17.921	1022.994	784.675
72.593	17.975	1021.627	783.806
73.607	17.819	1021.514	782.933
74.622	17.823	1021.076	782.549
75.636	17.889	1019.964	781.930
76.651	17.957	1019.027	781.452
77.666	18.008	1018.661	781.338
78.680	18.170	1017.594	781.189
79.695	18.256	1017.095	781.129
80.709	18.251	1016.787	780.802
81.724	18.304	1015.918	780.304
82.739	18.362	1015.762	780.379
83.753	18.724	1015.094	781.445
84.768	18.975	1014.226	781.852
85.782	19.149	1013.175	781.762
86.797	19.116	1012.271	780.847
87.812	18.865	1011.615	779.134
88.826	18.970	1010.408	778.609
89.841	18.981	1009.260	777.706
90.855	19.014	1008.798	777.429
91.870	18.964	1008.615	776.995
92.884	18.970	1007.338	775.971
93.899	18.906	1006.582	775.029
94.914	19.212	1005.424	775.445
95.928	19.030	1005.242	774.416
96.943	18.872	1004.279	772.899
97.957	18.841	1003.026	771.727
98.972	18.942	1001.955	771.287
99.987	18.996	1001.034	770.751
101.001	18.838	1000.384	769.473
102.016	18.809	999.353	768.485
103.030	18.922	998.646	768.378
104.045	19.004	997.875	768.085
105.060	18.799	996.966	766.399
106.074	18.484	995.484	763.790
107.089	18.284	994.560	762.125
108.103	18.269	993.729	761.351
109.118	18.256	992.577	760.344
110.133	18.113	991.641	758.924
111.147	18.163	990.603	758.284
112.162	18.272	989.942	758.196
113.176	18.423	989.626	758.555
114.191	18.460	988.789	758.009
115.206	18.356	988.125	756.972
116.220	18.406	987.073	756.320
117.235	18.419	986.053	755.529
118.249	18.293	985.243	754.288
119.264	18.199	984.736	753.422
120.279	18.193	983.839	752.642
121.293	18.058	983.262	751.538
122.308	18.083	982.157	750.735
123.322	17.958	980.692	749.003
124.337	18.089	979.500	748.599
125.352	18.034	978.751	747.721
126.366	17.987	977.844	746.756
127.381	17.998	976.794	745.938
128.395	18.085	976.082	745.706
129.410	18.174	975.117	745.289
130.424	18.272	974.550	745.219
131.439	18.209	974.187	744.600
132.454	18.431	972.626	744.307
133.468	18.424	972.330	743.985
134.483	18.512	971.184	743.421
135.497	18.559	970.541	743.067
136.512	18.414	969.746	741.764
137.527	18.432	968.913	741.139
138.541	18.436	968.631	740.875
139.556	18.591	967.579	740.677
140.570	18.721	966.882	740.637
141.585	18.880	966.132	740.683
142.600	18.965	965.351	740.385
143.614	18.947	965.122	740.065
144.629	19.110	963.899	739.763
145.643	18.911	963.087	738.222
146.658	18.863	961.601	736.809
147.673	18.612	960.804	735.057
148.687	18.502	960.222	734.078
149.702	18.369	959.117	732.596
150.716	18.405	958.807	732.450
151.731	18.476	957.913	732.006
152.746	18.593	956.948	731.704
153.760	18.628	956.025	731.082
154.775	18.753	955.926	731.475
155.789	18.695	955.640	730.946
156.804	18.660	954.817	730.100
157.819	18.821	954.038	730.127
158.833	18.837	953.677	729.850
159.848	19.065	952.637	729.959
160.862	18.902	951.277	728.162
161.877	18.674	949.899	726.080
162.892	18.462	949.096	724.502
163.906	18.386	948.221	723.449
164.921	18.531	947.423	723.389
165.935	18.603	946.360	722.818
166.950	18.707	945.527	722.557
167.964	18.699	944.277	721.501
168.979	18.539	943.537	720.201
169.994	18.646	942.471	719.775
171.008	18.612	942.165	719.334
172.023	18.892	941.597	720.008
173.037	18.968	941.415	720.124
174.052	18.935	940.158	718.962
175.067	18.544	939.394	716.679
176.081	18.466	938.903	715.913
177.096	18.567	938.147	715.698
178.110	18.556	937.458	715.062
179.125	18.594	937.002	714.811
180.140	18.578	936.808	714.531
181.154	18.792	936.729	715.298
182.169	18.935	936.085	715.340
183.183	19.069	935.363	715.279
184.198	18.923	934.682	714.093
185.213	18.944	934.134	713.694
186.227	19.082	933.409	713.651
187.242	19.026	933.078	713.101
188.256	19.266	931.804	713.059
189.271	19.379	930.953	712.813
190.286	18.975	930.092	710.420
191.300	18.472	928.739	707.251
192.315	18.392	928.287	706.512
193.329	18.436	928.228	706.589
194.344	18.634	927.004	706.408
195.359	18.725	926.895	706.637
196.373	18.812	926.385	706.546
197.388	19.151	925.872	707.485
198.402	19.244	925.460	707.489
199.417	19.359	925.426	707.870
200.432	19.472	924.485	707.550
201.446	19.521	924.035	707.344
202.461	19.667	923.620	707.563
203.475	19.497	923.126	706.428
204.490	19.405	921.432	704.693
205.504	19.145	921.007	703.243
206.519	19.150	920.175	702.567
207.534	18.958	919.615	701.291
208.548	19.168	919.152	701.733
209.563	19.063	918.234	700.545
210.577	19.084	918.157	700.506
211.592	19.559	916.872	701.395
212.607	19.557	916.403	700.967
213.621	19.294	915.880	699.439
214.636	19.254	915.275	698.750
215.650	19.400	914.586	698.755
216.665	19.471	914.036	698.560
217.680	19.610	913.263	698.469
218.694	19.541	912.373	697.451
219.709	19.502	912.232	697.123
220.723	19.458	911.519	696.337
221.738	19.413	910.616	695.406
222.753	19.442	910.212	695.152
223.767	19.518	909.731	695.029
224.782	19.604	909.640	695.243
225.796	19.571	908.600	694.254
226.811	19.479	908.020	693.381
227.826	19.441	906.888	692.305
228.840	19.429	906.335	691.770
229.855	19.450	905.387	691.071
230.869	19.474	904.452	690.391
231.884	19.448	904.107	689.963
232.899	19.380	902.956	688.753
233.913	19.232	902.277	687.583
234.928	19.355	901.538	687.447
235.942	19.108	901.466	686.347
236.957	19.111	900.953	685.911
237.972	18.985	900.873	685.286
238.986	19.262	899.308	685.136
240.001	19.227	898.928	684.648
241.015	19.251	898.429	684.303
242.030	19.338	897.885	684.174
243.045	19.392	897.432	683.979
244.059	19.537	896.468	683.758
245.074	19.525	896.013	683.304
246.088	19.571	895.464	683.006
247.103	19.735	895.017	683.255
248.117	19.969	894.824	683.972
249.132	20.121	894.467	684.237
250.147	20.428	893.906	684.957
251.161	20.379	893.274	684.221
252.176	20.462	892.637	684.001
253.190	20.428	891.883	683.228
254.205	20.511	891.035	682.842
255.220	20.432	890.920	682.385
256.234	20.277	890.371	681.295
257.249	20.330	889.424	680.719
258.263	20.377	888.599	680.212
259.278	20.409	887.641	679.544
260.293	20.613	887.150	679.903
261.307	20.652	886.756	679.694
262.322	20.501	886.361	678.743
263.336	20.540	885.666	678.301
264.351	20.651	884.741	677.965
265.366	20.424	884.624	676.930
266.380	20.529	883.965	676.777
267.395	20.344	882.783	675.090
268.409	20.421	881.539	674.380
269.424	20.446	881.069	674.057
270.439	20.226	880.427	672.655
271.453	20.205	879.431	671.753
272.468	20.279	879.049	671.688
273.482	20.287	878.563	671.286
274.497	20.239	877.997	670.610
275.512	20.230	877.947	670.478
276.526	20.189	877.346	669.801
277.541	20.391	876.539	669.905
278.555	20.503	876.308	670.099
279.570	20.707	875.836	670.467
280.585	20.576	875.033	669.287
281.599	20.573	873.959	668.398
282.614	20.345	873.214	666.891
283.628	20.348	872.624	666.392
284.643	20.514	871.887	666.406
285.657	20.351	871.490	665.421
286.672	20.326	870.989	664.883
287.687	20.505	870.067	664.806
288.701	20.477	869.607	664.290
289.716	20.394	869.149	663.565
290.730	20.515	868.714	663.636
291.745	20.470	868.136	662.961
292.760	20.657	867.412	663.062
293.774	20.754	866.708	662.837
294.789	20.678	866.131	662.045
295.803	20.434	865.656	660.696
296.818	20.529	864.202	659.891
297.833	20.667	863.518	659.834
298.847	20.573	863.114	659.111
299.862	20.515	862.909	658.676
300.876	20.656	862.747	659.028
301.891	20.739	862.258	658.910
302.906	20.811	862.031	658.951
303.920	20.939	861.617	659.060
304.935	21.131	860.561	658.920
305.949	21.163	859.863	658.447
306.964	20.920	859.158	656.932
307.979	20.950	858.680	656.623
308.993	20.938	858.483	656.368
310.008	20.958	857.540	655.664
311.022	20.896	856.922	654.898
312.037	20.708	856.342	653.691
313.052	20.606	855.349	652.494
314.066	20.465	854.673	651.394
315.081	20.645	854.057	651.537
316.095	20.474	853.891	650.715
317.110	20.518	853.152	650.258
318.125	20.609	852.498	650.041
319.139	20.602	852.191	649.725
320.154	20.527	851.917	649.177
321.168	20.624	851.440	649.117
322.183	20.773	850.706	649.057
323.197	20.687	850.535	648.549
324.212	20.891	849.633	648.564
325.227	20.780	848.962	647.583
326.241	20.699	848.434	646.820
327.256	20.534	847.901	645.744
328.270	20.542	847.316	645.270
329.285	20.562	846.703	644.823
330.300	20.586	845.838	644.195
331.314	20.656	845.764	644.339
332.329	20.802	845.618	644.714
333.343	20.919	844.963	644.587
334.358	20.905	844.863	644.403
335.373	21.053	844.081	644.297
336.387	20.979	843.851	643.790
337.402	21.082	844.030	644.252
338.416	21.234	843.411	644.283
339.431	21.305	843.216	644.337
340.446	21.391	842.786	644.268
341.460	21.427	842.347	644.009
342.475	21.405	841.926	643.548
343.489	21.519	841.562	643.633
344.504	21.640	841.082	643.655
345.519	21.723	840.391	643.373
346.533	21.763	839.604	642.861
347.548	21.274	839.452	640.895
348.562	21.014	838.795	639.381
349.577	21.077	837.842	638.831
350.592	20.981	837.238	637.962
351.606	21.189	836.465	638.078
352.621	21.124	835.706	637.204
353.635	21.083	835.484	636.828
354.650	21.188	834.952	636.751
355.665	21.326	833.986	636.459
356.679	21.370	833.601	636.268
357.694	21.308	833.033	635.554
358.708	21.221	832.422	634.714
359.723	21.245	831.784	634.259
360.738	21.326	831.244	634.085
361.752	21.449	830.789	634.129
362.767	21.518	830.213	633.882
363.781	21.608	830.335	634.247
364.796	21.809	829.722	634.449
365.810	22.013	829.091	634.647
366.825	21.932	828.545	633.880
367.840	21.862	828.296	633.383
368.854	21.702	827.582	632.204
369.869	21.634	827.334	631.711
370.883	21.608	826.736	631.104
371.898	22.010	826.300	632.166
372.913	21.886	826.009	631.440
373.927	21.824	825.497	630.768
374.942	21.763	825.254	630.308
375.956	21.820	824.786	630.099
376.971	22.228	823.803	630.757
377.986	22.253	823.727	630.732
379.000	22.181	823.328	630.114
380.015	22.064	822.968	629.363
381.029	22.012	822.362	628.656
382.044	22.114	821.608	628.390
383.059	22.219	820.740	628.048
384.073	21.896	820.632	626.756
385.088	21.884	819.725	625.964
386.102	21.642	818.578	624.171
387.117	21.623	818.237	623.787
388.132	21.675	817.641	623.463
389.146	21.737	817.367	623.420
390.161	22.042	816.849	624.052
391.175	22.129	816.406	623.967
392.190	21.876	815.859	622.597
393.205	21.759	815.343	621.733
394.219	21.810	814.657	621.335
395.234	21.700	814.171	620.519
396.248	21.752	814.040	620.551
397.263	21.591	813.550	619.552
398.278	21.604	812.741	618.927
399.292	21.576	812.607	618.671
400.307	21.577	812.058	618.202
401.321	21.592	811.652	617.890
402.336	21.736	811.152	617.964
403.350	21.862	810.778	618.066
404.365	21.993	811.000	618.645
405.380	22.180	810.135	618.587
406.394	22.235	809.586	618.308
407.409	22.376	809.164	618.425
408.423	22.248	809.384	618.088
409.438	22.428	808.666	618.119
410.453	22.448	807.943	617.580
411.467	22.448	808.207	617.729
412.482	22.517	807.343	617.254
413.496	22.718	807.095	617.714
414.511	22.593	806.554	616.807
415.526	22.438	806.697	616.322
416.540	22.380	805.912	615.465
417.555	22.579	805.155	615.525
418.569	22.590	804.985	615.379
419.584	22.569	804.369	614.782
420.599	22.669	803.943	614.750
421.613	162.621	1369.651	1794.777
422.628	141.402	1452.070	1794.884
