DTS Sentinel unit serial number:	SN413079Multiplexer serial number:	ORYXHardware model number:	OX4-SRSoftware version number:	ORYX F/W v4.00 Oryx Data Collector v3.7.2.0data status	okinstallation	princeton_trtdifferential loss correction	single-endedforward channel	channel 1reverse channel	N/Adate	2019/09/17time	09:38:36forward acquisition time	60.00reverse acquisition time	0.00gamma	496.2192k internal	0.2323k external	0.2323temperature offset calibration	0.9959default loss term (dB/km)	0.3790temperature slope calibration	1.0000multiplexer offset coefficient	1.0000multiplexer slope coefficient	1.0000fibre end	0.00T internal ref (°C)	29.19T ext. ref 1 (°C)	0.15T ext. ref 2 (°C)	25.42length (m)	temperature (°C)	Stokes	anti-Stokes-747.200	-14.405	0.223	-0.145
-746.185	380.853	0.025	0.051
-745.171	-26.721	-0.136	-0.080
-744.156	-134.030	-0.419	0.052
-743.142	-44.884	-0.295	0.148
-742.127	-70.595	-0.304	-0.116
-741.112	549.485	-0.034	-0.082
-740.098	-99.222	-0.406	0.103
-739.083	154.907	0.122	0.169
-738.069	800.000	-0.067	0.287
-737.054	50.867	-0.152	-0.146
-736.039	-78.850	-0.159	-0.055
-735.025	800.000	0.025	-0.082
-734.010	116.110	-0.338	0.418
-732.996	-200.000	0.070	-0.372
-731.981	132.489	0.119	-0.155
-730.966	800.000	0.053	0.212
-729.952	-11.672	-0.274	-0.182
-728.937	800.000	-0.123	-0.383
-727.923	-21.878	-0.173	-0.106
-726.908	-87.662	0.345	-0.105
-725.894	196.804	0.053	-0.082
-724.879	-8.807	0.147	0.100
-723.864	-200.000	0.029	0.337
-722.850	-172.901	0.091	-0.003
-721.835	800.000	-0.070	-0.295
-720.821	284.028	-0.153	0.277
-719.806	800.000	0.052	-0.157
-718.791	-20.545	0.236	-0.146
-717.777	11.338	-0.150	0.116
-716.762	174.757	-0.251	-0.366
-715.748	-200.000	-0.072	0.420
-714.733	85.566	-0.143	0.158
-713.718	-200.000	-0.023	0.194
-712.704	-200.000	0.015	-0.199
-711.689	60.172	0.136	-0.136
-710.675	0.404	0.226	0.163
-709.660	130.437	-0.142	0.184
-708.645	529.125	0.022	0.053
-707.631	-11.619	-0.217	-0.144
-706.616	-30.852	-0.224	-0.127
-705.602	-200.000	0.319	-0.001
-704.587	-104.157	-0.245	-0.057
-703.572	206.313	-0.119	-0.186
-702.558	25.523	-0.285	-0.239
-701.543	-35.588	0.156	0.085
-700.529	172.965	-0.184	-0.267
-699.514	70.319	-0.184	-0.192
-698.499	-83.627	-0.226	-0.073
-697.485	-90.095	-0.104	0.030
-696.470	-200.000	0.027	-0.314
-695.456	458.299	0.085	-0.190
-694.441	87.571	-0.108	-0.121
-693.426	453.046	-0.113	-0.252
-692.412	10.425	-0.207	-0.159
-691.397	157.689	0.182	-0.254
-690.383	120.257	0.051	0.064
-689.368	-133.726	0.218	-0.027
-688.354	-200.000	-0.023	-0.141
-687.339	-177.111	-0.460	0.012
-686.324	261.732	-0.140	0.244
-685.310	-150.097	0.150	-0.012
-684.295	221.437	0.143	0.231
-683.281	167.385	0.135	0.193
-682.266	27.839	-0.208	0.177
-681.251	-155.604	0.160	-0.010
-680.237	-200.000	-0.002	0.251
-679.222	67.132	-0.176	0.181
-678.208	-68.330	0.203	-0.079
-677.193	593.082	-0.052	0.129
-676.178	800.000	0.084	-0.325
-675.164	-125.432	0.419	-0.064
-674.149	-128.811	-0.168	-0.024
-673.135	489.291	-0.082	0.188
-672.120	-200.000	0.016	0.326
-671.105	-200.000	-0.005	0.059
-670.091	-200.000	0.017	0.167
-669.076	-200.000	0.070	-0.490
-668.062	685.575	-0.163	-0.430
-667.047	710.777	0.029	-0.076
-666.032	-72.048	-0.046	0.017
-665.018	99.470	0.051	0.059
-664.003	800.000	-0.135	-0.488
-662.989	800.000	-0.035	-0.117
-661.974	192.773	0.145	0.220
-660.959	-101.615	-0.445	0.109
-659.945	-200.000	0.006	0.087
-658.930	-66.825	-0.094	-0.037
-657.916	166.775	0.151	-0.215
-656.901	-200.000	0.017	0.115
-655.886	-122.137	0.316	0.052
-654.872	-162.697	-0.213	-0.011
-653.857	-200.000	-0.001	-0.133
-652.843	103.090	0.009	-0.011
-651.828	329.564	0.083	0.161
-650.814	800.000	-0.086	-0.291
-649.799	149.743	-0.093	0.127
-648.784	-147.714	-0.245	0.021
-647.770	105.350	0.185	-0.220
-646.755	-114.624	-0.182	0.035
-645.741	800.000	-0.084	0.323
-644.726	-145.779	0.231	0.021
-643.711	223.250	0.066	0.107
-642.697	631.134	-0.083	0.211
-641.682	-86.660	-0.147	0.045
-640.668	-72.813	-0.298	-0.110
-639.653	-78.860	0.326	-0.112
-638.638	-100.498	0.255	0.063
-637.624	-61.659	-0.228	-0.096
-636.609	115.929	-0.091	-0.112
-635.595	18.202	0.284	-0.228
-634.580	414.916	-0.142	0.303
-633.565	124.740	-0.242	0.306
-632.551	-72.672	0.211	-0.078
-631.536	3.443	-0.197	-0.144
-630.522	-55.177	-0.267	0.121
-629.507	-70.425	0.108	-0.041
-628.492	-91.149	0.395	0.114
-627.478	30.721	-0.166	-0.142
-626.463	24.880	0.201	-0.167
-625.449	132.313	-0.261	-0.338
-624.434	-47.318	0.150	-0.073
-623.419	145.137	0.137	0.185
-622.405	800.000	0.027	-0.076
-621.390	416.185	0.112	-0.240
-620.376	278.618	-0.057	0.102
-619.361	-38.674	0.291	-0.154
-618.346	-42.093	0.266	-0.137
-617.332	-154.283	-0.095	-0.006
-616.317	379.020	0.054	-0.112
-615.303	800.000	0.010	0.030
-614.288	548.825	0.020	0.049
-613.273	-41.612	-0.203	-0.105
-612.259	800.000	0.006	-0.018
-611.244	-200.000	0.004	0.251
-610.230	-200.000	0.053	0.299
-609.215	-84.337	-0.129	0.041
-608.201	566.393	-0.127	0.310
-607.186	-93.296	-0.200	0.056
-606.171	-200.000	-0.034	-0.228
-605.157	40.508	-0.071	-0.064
-604.142	-18.535	-0.069	0.043
-603.128	450.639	0.015	0.033
-602.113	-200.000	0.010	0.197
-601.098	-200.000	0.012	-0.161
-600.084	-200.000	0.048	0.300
-599.069	-200.000	0.003	0.035
-598.055	-33.770	0.288	-0.159
-597.040	-106.488	-0.160	0.036
-596.025	800.000	-0.044	-0.163
-595.011	39.846	-0.166	-0.150
-593.996	-29.532	0.105	0.060
-592.982	-84.213	-0.076	-0.024
-591.967	190.437	0.116	0.176
-590.952	-117.349	-0.160	0.029
-589.938	-85.041	0.283	-0.089
-588.923	286.230	-0.036	0.066
-587.909	-97.491	0.236	0.061
-586.894	129.373	-0.169	-0.216
-585.879	-97.389	-0.298	-0.078
-584.865	-200.000	-0.016	0.208
-583.850	772.169	0.153	0.418
-582.836	-32.613	0.288	-0.161
-581.821	-103.952	0.022	0.005
-580.806	-17.837	0.097	-0.061
-579.792	-133.673	-0.133	0.017
-578.777	800.000	0.024	-0.090
-577.763	-200.000	0.018	0.198
-576.748	-8.119	-0.283	-0.192
-575.733	51.000	-0.104	0.099
-574.719	-200.000	0.003	0.065
-573.704	30.902	0.156	-0.134
-572.690	-17.961	0.243	-0.153
-571.675	-134.397	-0.053	0.007
-570.661	800.000	-0.057	0.223
-569.646	-190.209	0.162	0.002
-568.631	80.348	-0.228	0.246
-567.617	71.006	0.074	-0.076
-566.602	-14.644	0.097	-0.062
-565.588	800.000	0.062	-0.221
-564.573	220.899	-0.106	-0.170
-563.558	11.684	0.141	-0.109
-562.544	-200.000	0.028	-0.244
-561.529	451.953	0.083	0.184
-560.515	31.428	-0.136	-0.117
-559.500	-200.000	0.002	-0.049
-558.485	-67.636	-0.240	-0.094
-557.471	157.569	0.047	-0.065
-556.456	52.029	-0.168	0.160
-555.442	-200.000	0.065	0.298
-554.427	-124.432	-0.148	-0.023
-553.412	-200.000	0.053	-0.257
-552.398	-11.287	0.343	-0.227
-551.383	800.000	0.065	-0.248
-550.369	4.803	-0.145	0.107
-549.354	80.736	-0.156	-0.169
-548.339	-200.000	-0.062	-0.348
-547.325	150.321	-0.159	0.217
-546.310	53.203	-0.284	0.273
-545.296	74.876	-0.096	-0.101
-544.281	-80.782	0.133	-0.044
-543.266	-121.081	0.225	-0.038
-542.252	-41.495	-0.273	-0.140
-541.237	-170.446	-0.123	-0.004
-540.223	457.728	-0.033	0.073
-539.208	-200.000	-0.019	-0.130
-538.193	-146.889	-0.149	0.013
-537.179	-114.764	0.150	-0.029
-536.164	-4.991	-0.244	-0.169
-535.150	-200.000	0.020	-0.106
-534.135	-200.000	0.014	-0.076
-533.121	-173.755	-0.289	-0.009
-532.106	108.433	0.254	-0.304
-531.091	-85.688	0.259	0.080
-530.077	131.851	0.059	-0.076
-529.062	-114.812	0.053	-0.010
-528.048	-123.702	-0.359	-0.057
-527.033	-100.679	-0.315	-0.078
-526.018	35.982	-0.098	0.086
-525.004	-79.595	-0.283	0.096
-523.989	-70.371	0.255	-0.097
-522.975	800.000	-0.109	-0.326
-521.960	-186.269	0.448	0.007
-520.945	-123.958	0.055	-0.009
-519.931	250.035	-0.196	0.332
-518.916	-84.094	0.139	-0.044
-517.902	494.750	-0.027	0.062
-516.887	-9.921	-0.240	0.160
-515.872	215.831	-0.128	0.203
-514.858	-200.000	-0.088	0.447
-513.843	37.600	-0.262	-0.233
-512.829	-200.000	0.043	0.343
-511.814	-200.000	-0.005	-0.111
-510.799	-200.000	0.038	0.259
-509.785	63.021	-0.150	0.150
-508.770	376.681	-0.150	-0.306
-507.756	-24.844	-0.229	-0.136
-506.741	800.000	-0.032	0.140
-505.726	-75.767	-0.056	0.020
-504.712	-72.745	-0.150	0.055
-503.697	-123.776	0.313	-0.049
-502.683	343.097	0.083	0.163
-501.668	348.128	0.070	0.138
-500.653	-131.493	-0.107	-0.014
-499.639	-200.000	0.063	0.378
-498.624	333.296	-0.093	0.180
-497.610	-200.000	-0.009	0.039
-496.595	16.663	-0.271	0.214
-495.581	77.775	0.078	-0.083
-494.566	47.081	-0.165	-0.154
-493.551	-150.456	0.187	0.014
-492.537	-94.345	0.130	-0.036
-491.522	-105.864	-0.291	0.066
-490.508	-55.872	-0.291	0.130
-489.493	-200.000	-0.024	-0.190
-488.478	34.363	-0.216	-0.188
-487.464	-56.209	-0.060	-0.027
-486.449	180.054	0.198	0.291
-485.435	-200.000	-0.088	-0.400
-484.420	465.330	-0.043	-0.095
-483.405	708.216	0.047	0.124
-482.391	-165.606	0.188	-0.008
-481.376	-173.989	-0.173	-0.005
-480.362	-174.747	-0.183	-0.005
-479.347	-200.000	-0.020	-0.190
-478.332	-65.659	-0.074	0.030
-477.318	498.552	-0.127	0.292
-476.303	-200.000	0.015	-0.128
-475.289	371.893	-0.109	0.221
-474.274	-93.931	0.172	-0.047
-473.259	18.308	0.196	-0.156
-472.245	464.855	-0.186	0.415
-471.230	29.744	-0.142	0.121
-470.216	239.417	-0.157	-0.261
-469.201	154.018	-0.208	0.285
-468.186	135.542	0.275	0.358
-467.172	-53.957	-0.222	-0.101
-466.157	-200.000	0.012	0.131
-465.143	111.828	0.320	0.386
-464.128	-17.773	-0.293	0.184
-463.113	83.065	-0.020	0.022
-462.099	-128.849	-0.178	0.025
-461.084	800.000	-0.098	0.358
-460.070	-153.312	0.471	-0.033
-459.055	101.851	0.184	0.215
-458.040	487.338	-0.130	-0.295
-457.026	108.016	-0.041	-0.049
-456.011	800.000	0.038	0.133
-454.997	62.720	0.024	0.024
-453.982	-200.000	-0.013	-0.105
-452.968	171.967	0.105	0.151
-451.953	57.619	0.089	0.087
-450.938	41.424	-0.257	-0.232
-449.924	502.115	-0.064	-0.148
-448.909	-200.000	0.038	0.197
-447.895	27.587	-0.122	0.102
-446.880	0.434	-0.196	0.140
-445.865	-129.767	-0.295	0.041
-444.851	-200.000	-0.011	-0.106
-443.836	-96.266	0.086	0.023
-442.822	-200.000	-0.036	0.212
-441.807	-200.000	-0.002	0.210
-440.792	-200.000	-0.046	0.636
-439.778	113.449	0.318	-0.385
-438.763	-33.424	-0.198	0.109
-437.749	-30.286	0.192	0.109
-436.734	-69.917	-0.085	0.032
-435.719	-200.000	-0.007	-0.069
-434.705	34.845	-0.018	0.015
-433.690	-11.424	0.313	0.205
-432.676	8.518	-0.415	0.312
-431.661	-135.897	-0.386	-0.045
-430.646	-132.369	-0.032	0.004
-429.632	-100.271	-0.245	0.061
-428.617	-200.000	-0.052	0.240
-427.603	-79.927	-0.095	-0.032
-426.588	161.646	0.017	0.023
-425.573	114.820	-0.103	-0.126
-424.559	800.000	-0.058	0.218
-423.544	-200.000	0.028	0.464
-422.530	213.899	-0.125	0.197
-421.515	-200.000	0.006	-0.092
-420.500	8.325	0.146	-0.110
-419.486	461.118	0.191	-0.425
-418.471	322.633	-0.038	-0.072
-417.457	-200.000	0.019	0.152
-416.442	-67.222	0.028	0.011
-415.428	800.000	0.185	-0.517
-414.413	77.134	0.123	-0.130
-413.398	-147.260	0.282	0.024
-412.384	-200.000	-0.044	0.293
-411.369	-82.614	-0.222	-0.072
-410.355	-22.742	-0.141	-0.085
-409.340	-136.025	0.101	-0.012
-408.325	-66.996	-0.316	0.124
-407.311	-129.815	-0.259	-0.035
-406.296	-136.788	0.194	-0.022
-405.282	255.645	0.168	-0.287
-404.267	240.877	0.036	0.060
-403.252	297.011	0.048	0.089
-402.238	-119.614	-0.121	0.021
-401.223	800.000	-0.116	0.335
-400.209	-200.000	-0.002	-0.340
-399.194	-30.932	0.164	0.092
-398.179	-200.000	0.010	0.049
-397.165	-50.163	0.210	-0.099
-396.150	800.000	-0.112	-0.467
-395.136	18.236	0.260	-0.207
-394.121	800.000	0.029	0.113
-393.106	501.261	-0.021	-0.048
-392.092	494.825	0.030	0.068
-391.077	-200.000	-0.002	0.060
-390.063	800.000	0.156	0.538
-389.048	-9.145	0.435	-0.290
-388.033	-200.000	-0.012	0.288
-387.019	800.000	0.172	0.514
-386.004	-116.522	-0.132	-0.024
-384.990	-48.282	0.132	0.064
-383.975	-108.304	0.182	0.039
-382.960	-139.841	-0.365	0.038
-381.946	800.000	0.101	-0.337
-380.931	800.000	-0.117	-0.324
-379.917	-11.241	0.196	0.129
-378.902	-200.000	0.061	0.315
-377.888	-33.448	0.157	-0.086
-376.873	601.158	0.104	0.256
-375.858	-200.000	-0.001	-0.060
-374.844	-138.001	-0.234	0.026
-373.829	-107.967	0.071	0.015
-372.815	43.829	-0.315	0.287
-371.800	29.559	0.206	-0.174
-370.785	-9.934	-0.196	-0.130
-369.771	800.000	-0.063	-0.195
-368.756	120.289	0.045	-0.056
-367.742	76.839	0.322	0.340
-366.727	800.000	0.076	-0.324
-365.712	-158.238	-0.191	0.011
-364.698	247.963	-0.159	-0.268
-363.683	800.000	0.070	-0.270
-362.669	800.000	-0.058	0.233
-361.654	228.504	0.119	0.193
-360.639	-141.221	0.129	-0.013
-359.625	683.937	-0.055	0.142
-358.610	542.348	0.128	-0.304
-357.596	-200.000	0.055	0.356
-356.581	32.530	0.244	-0.209
-355.566	800.000	-0.086	-0.277
-354.552	167.480	-0.033	0.046
-353.537	800.000	-0.056	-0.173
-352.523	593.691	0.088	-0.217
-351.508	-200.000	0.037	-0.167
-350.493	-75.180	0.175	0.062
-349.479	83.773	-0.155	-0.168
-348.464	-200.000	0.051	0.464
-347.450	39.087	-0.107	0.095
-346.435	785.696	0.054	-0.146
-345.420	-200.000	0.014	-0.385
-344.406	-200.000	0.008	-0.208
-343.391	-61.433	0.175	0.073
-342.377	60.612	0.141	0.139
-341.362	225.057	-0.269	0.433
-340.348	-200.000	-0.065	0.364
-339.333	-84.875	-0.071	0.022
-338.318	-14.784	-0.123	-0.078
-337.304	-94.850	-0.042	-0.011
-336.289	53.813	0.230	0.220
-335.275	-200.000	0.018	0.127
-334.260	-200.000	0.020	-0.396
-333.245	-28.769	0.046	-0.026
-332.231	23.773	0.141	0.116
-331.216	49.436	0.228	-0.213
-330.202	146.114	-0.339	-0.451
-329.187	39.778	-0.132	0.117
-328.172	276.983	-0.020	-0.035
-327.158	777.957	0.022	0.058
-326.143	-5.225	-0.256	0.175
-325.129	103.589	0.152	-0.177
-324.114	-41.848	-0.244	0.124
-323.099	153.596	-0.116	0.158
-322.085	-48.014	-0.209	-0.100
-321.070	-104.791	-0.228	-0.052
-320.056	-200.000	0.007	0.374
-319.041	308.474	-0.116	0.215
-318.026	800.000	0.150	-0.449
-317.012	-155.595	0.497	0.032
-315.997	-109.766	-0.235	0.049
-314.983	56.061	-0.244	-0.235
-313.968	38.176	-0.071	-0.063
-312.953	32.332	-0.320	0.274
-311.939	-92.890	0.284	-0.079
-310.924	71.154	0.092	-0.094
-309.910	-40.328	-0.185	-0.095
-308.895	-124.252	-0.148	0.023
-307.880	6.476	-0.132	-0.097
-306.866	-32.276	0.471	-0.261
-305.851	800.000	-0.177	-0.529
-304.837	-128.647	-0.036	0.005
-303.822	311.521	0.045	0.084
-302.807	63.608	0.035	-0.035
-301.793	268.609	0.178	-0.309
-300.778	-142.525	-0.261	-0.025
-299.764	-54.127	-0.110	0.050
-298.749	-67.365	-0.038	-0.015
-297.735	-151.609	-0.071	0.005
-296.720	348.001	-0.050	0.099
-295.705	-103.475	0.197	-0.046
-294.691	-160.476	-0.087	-0.005
-293.676	13.000	0.276	-0.212
-292.662	-85.188	-0.319	-0.099
-291.647	521.724	0.089	-0.206
-290.632	800.000	-0.103	-0.328
-289.618	52.194	0.263	0.249
-288.603	345.800	0.048	0.094
-287.589	359.878	-0.046	0.091
-286.574	320.486	0.058	0.109
-285.559	59.860	0.133	-0.131
-284.545	-33.305	0.225	-0.124
-283.530	69.303	0.231	0.236
-282.516	154.682	0.028	-0.038
-281.501	781.594	-0.043	0.117
-280.486	160.971	-0.112	-0.155
-279.472	-200.000	0.035	-0.236
-278.457	172.239	0.110	-0.157
-277.443	-72.454	-0.144	0.053
-276.428	42.408	0.085	0.076
-275.413	-200.000	0.043	-0.264
-274.399	-44.764	0.212	0.105
-273.384	7.705	-0.219	0.163
-272.370	-84.689	0.174	-0.054
-271.355	160.423	0.220	-0.304
-270.340	228.482	-0.167	0.270
-269.326	15.196	-0.107	0.083
-268.311	491.996	0.112	-0.253
-267.297	111.752	-0.225	-0.269
-266.282	-124.925	0.193	-0.029
-265.267	84.184	-0.257	0.278
-264.253	186.341	0.183	0.270
-263.238	11.888	0.378	-0.288
-262.224	12.629	0.225	-0.172
-261.209	800.000	0.077	-0.213
-260.195	247.691	0.118	-0.197
-259.180	-200.000	-0.003	-0.068
-258.165	-93.634	0.228	0.062
-257.151	3.287	0.143	0.103
-256.136	-200.000	0.011	-0.100
-255.122	41.743	0.205	0.184
-254.107	181.119	0.230	0.334
-253.092	-46.751	-0.253	-0.123
-252.078	-200.000	0.003	-0.290
-251.063	-61.849	0.195	-0.081
-250.049	699.424	-0.038	0.099
-249.034	-200.000	0.022	-0.222
-248.019	361.124	-0.045	-0.089
-247.005	-67.064	-0.219	0.085
-245.990	-85.302	0.288	0.089
-244.976	-200.000	-0.095	0.430
-243.961	367.086	-0.074	-0.149
-242.946	2.405	-0.200	0.143
-241.932	36.509	0.097	-0.085
-240.917	-182.671	-0.223	0.004
-239.903	-67.128	0.169	0.066
-238.888	163.927	0.165	0.229
-237.873	-51.198	0.388	0.180
-236.859	80.263	-0.211	0.225
-235.844	800.000	0.033	-0.125
-234.830	800.000	-0.090	0.388
-233.815	800.000	0.070	-0.267
-232.800	-1.911	-0.261	-0.182
-231.786	663.048	0.101	-0.257
-230.771	175.984	-0.180	-0.259
-229.757	82.505	-0.020	-0.022
-228.742	-200.000	-0.014	-0.224
-227.727	84.260	-0.126	-0.136
-226.713	-122.923	0.201	-0.032
-225.698	800.000	0.062	-0.195
-224.684	422.307	0.135	-0.287
-223.669	129.533	0.114	-0.144
-222.655	-110.015	-0.226	-0.047
-221.640	-47.997	0.367	-0.176
-220.625	125.275	-0.149	0.186
-219.611	-101.896	-0.119	-0.029
-218.596	-17.556	0.074	0.046
-217.582	115.174	-0.150	-0.181
-216.567	147.112	-0.162	0.215
-215.552	15.915	-0.257	-0.200
-214.538	-45.059	-0.171	0.084
-213.523	99.805	-0.081	0.093
-212.509	128.791	0.184	0.232
-211.494	-179.101	0.501	0.011
-210.479	60.404	-0.402	-0.394
-209.465	-41.893	0.114	0.058
-208.450	-117.507	0.385	-0.069
-207.436	-102.166	0.160	-0.038
-206.421	-200.000	-0.015	-0.156
-205.406	800.000	-0.064	-0.196
-204.392	800.000	-0.045	-0.170
-203.377	-101.099	0.132	0.032
-202.363	-200.000	-0.008	-0.045
-201.348	-200.000	0.041	-0.249
-200.333	29.389	0.271	-0.227
-199.319	-93.330	0.434	0.119
-198.304	17.167	-0.052	-0.041
-197.290	-200.000	0.040	-0.298
-196.275	222.850	-0.125	0.199
-195.260	-63.912	0.327	0.132
-194.246	-200.000	0.009	0.467
-193.231	-200.000	-0.034	0.220
-192.217	-110.709	0.073	-0.015
-191.202	243.973	-0.086	0.143
-190.187	-200.000	-0.005	-0.170
-189.173	171.659	0.219	0.311
-188.158	154.522	-0.134	0.182
-187.144	-181.438	-0.068	0.001
-186.129	278.871	0.169	-0.298
-185.114	-200.000	-0.030	-0.244
-184.100	-49.384	-0.292	0.138
-183.085	800.000	-0.080	0.281
-182.071	136.612	0.056	0.072
-181.056	-56.560	0.104	0.046
-180.042	-91.417	0.133	-0.038
-179.027	241.562	0.033	0.054
-178.012	-53.558	-0.108	-0.049
-176.998	53.348	-0.142	0.134
-175.983	-102.209	-0.201	0.048
-174.969	107.517	0.053	-0.062
-173.954	731.368	0.077	-0.204
-172.939	153.977	0.121	0.163
-171.925	-98.030	0.429	0.109
-170.910	16.000	-0.335	0.260
-169.896	759.007	0.069	-0.185
-168.881	-200.000	-0.005	-0.147
-167.866	-69.965	-0.051	0.019
-166.852	-200.000	0.035	0.169
-165.837	800.000	0.051	0.186
-164.823	17.670	0.207	0.162
-163.808	-64.807	-0.018	-0.007
-162.793	-58.573	0.253	0.108
-161.779	43.271	-0.247	0.223
-160.764	480.396	0.127	-0.284
-159.750	15.480	0.194	-0.150
-158.735	21.659	0.114	-0.091
-157.720	-148.044	0.230	0.019
-156.706	-106.566	0.333	-0.073
-155.691	-200.000	0.015	-0.109
-154.677	-61.651	-0.144	-0.059
-153.662	-142.050	-0.144	0.014
-152.647	-101.989	-0.257	0.061
-151.633	643.520	0.019	-0.048
-150.618	197.943	-0.212	0.320
-149.604	133.937	-0.097	-0.123
-148.589	472.888	-0.102	-0.227
-147.574	26.633	-0.256	0.211
-146.560	800.000	0.096	0.265
-145.545	-98.663	-0.239	0.060
-144.531	-200.000	0.022	0.179
-143.516	119.626	-0.069	0.085
-142.502	72.890	-0.080	-0.083
-141.487	-200.000	-0.039	0.326
-140.472	-59.559	0.103	-0.044
-139.458	83.476	-0.168	0.181
-138.443	800.000	0.107	0.294
-137.429	-30.136	0.138	0.077
-136.414	103.269	-0.326	-0.377
-135.399	-23.562	0.312	-0.185
-134.385	800.000	-0.129	0.430
-133.370	135.996	0.044	0.056
-132.356	-21.499	-0.121	0.073
-131.341	22.355	0.069	0.056
-130.326	-79.091	0.075	0.025
-129.312	-8.800	-0.122	-0.081
-128.297	-200.000	0.080	0.355
-127.283	90.549	-0.147	0.162
-126.268	32.041	0.036	0.030
-125.253	800.000	0.085	0.301
-124.239	-66.469	-0.310	-0.121
-123.224	800.000	0.051	-0.157
-122.210	-108.906	0.162	-0.034
-121.195	-200.000	0.007	0.148
-120.180	121.134	-0.110	-0.135
-119.166	-200.000	0.025	0.202
-118.151	-146.637	-0.183	-0.016
-117.137	-131.304	0.130	0.017
-116.122	35.497	-0.164	-0.142
-115.107	800.000	0.011	-0.031
-114.093	45.604	0.112	-0.102
-113.078	-119.622	0.186	-0.032
-112.064	2.994	0.207	-0.148
-111.049	800.000	0.052	0.199
-110.034	567.754	0.142	0.340
-109.020	-28.210	0.127	-0.072
-108.005	194.474	-0.059	0.088
-106.991	230.589	-0.052	-0.084
-105.976	800.000	-0.059	-0.251
-104.962	-57.453	-0.213	-0.092
-103.947	355.448	0.089	0.174
-102.932	98.678	0.165	0.188
-101.918	-26.364	0.192	0.111
-100.903	-200.000	-0.002	0.095
-99.889	280.908	-0.202	0.356
-98.874	442.298	0.165	0.355
-97.859	-139.083	-0.230	-0.025
-96.845	55.954	0.279	-0.267
-95.830	134.063	-0.085	-0.109
-94.816	-72.127	-0.123	0.045
-93.801	298.083	0.208	-0.376
-92.786	610.757	0.119	-0.293
-91.772	497.014	0.117	-0.266
-90.757	12.774	0.271	0.206
-89.743	-97.125	0.184	0.047
-88.728	298.966	0.088	-0.159
-87.713	-200.000	-0.026	-0.158
-86.699	-200.000	0.057	-0.252
-85.684	-97.968	-0.057	-0.015
-84.670	-200.000	-0.055	-0.262
-83.655	139.943	0.302	0.391
-82.640	-200.000	-0.031	-0.140
-81.626	471.849	0.009	0.019
-80.611	245.099	-0.062	0.103
-79.597	-77.567	-0.459	-0.157
-78.582	-127.212	0.372	0.053
-77.567	-200.000	0.036	0.435
-76.553	800.000	0.073	0.281
-75.538	-69.349	0.257	0.097
-74.524	79.542	0.143	0.151
-73.509	800.000	-0.040	0.146
-72.494	86.892	0.139	-0.151
-71.480	-200.000	-0.102	0.439
-70.465	781.496	0.084	0.226
-69.451	-65.950	0.097	-0.038
-68.436	-32.662	-0.214	-0.117
-67.422	-136.025	-0.085	-0.010
-66.407	800.000	-0.065	0.199
-65.392	-113.399	-0.104	-0.020
-64.378	-94.801	0.241	-0.064
-63.363	-200.000	0.023	-0.122
-62.349	-91.073	-0.482	0.136
-61.334	-30.434	-1.259	-0.702
-60.319	278.487	0.510	0.893
-59.305	800.000	-0.468	-1.274
-58.290	76.033	0.775	0.806
-57.276	371.645	0.722	1.440
-56.261	-200.000	106.899	583.220
-55.246	442.682	1480.601	3187.960
-54.232	145.460	2672.418	3517.270
-53.217	105.839	2169.284	2522.206
-52.203	40.673	1612.602	1428.550
-51.188	32.685	1350.183	1147.649
-50.173	29.513	1309.373	1094.153
-49.159	53.797	1361.873	1285.344
-48.144	53.854	1378.037	1300.890
-47.130	32.822	1333.188	1133.844
-46.115	29.378	1315.767	1098.516
-45.100	29.277	1310.613	1093.572
-44.086	29.124	1308.297	1090.688
-43.071	29.065	1306.235	1088.574
-42.057	28.995	1303.845	1086.129
-41.042	29.115	1302.172	1085.398
-40.027	29.037	1300.982	1083.902
-39.013	29.146	1298.609	1082.523
-37.998	29.029	1296.838	1080.316
-36.984	29.165	1295.005	1079.546
-35.969	29.211	1292.980	1078.085
-34.954	29.124	1292.074	1076.779
-33.940	29.194	1290.291	1075.659
-32.925	29.262	1289.099	1075.020
-31.911	29.270	1287.985	1074.091
-30.896	29.353	1286.325	1073.147
-29.881	29.287	1285.080	1071.683
-28.867	29.326	1283.701	1070.716
-27.852	29.300	1282.078	1069.170
-26.838	29.344	1280.631	1068.177
-25.823	29.381	1279.018	1067.002
-24.809	29.182	1278.064	1065.014
-23.794	29.241	1276.850	1064.301
-22.779	29.283	1275.047	1062.998
-21.765	29.174	1274.209	1061.629
-20.750	29.321	1272.383	1060.911
-19.736	29.230	1271.360	1059.494
-18.721	29.267	1269.945	1058.485
-17.706	29.221	1268.872	1057.286
-16.692	29.057	1268.393	1055.901
-15.677	29.107	1266.878	1054.886
-14.663	29.090	1265.938	1053.964
-13.648	29.089	1264.747	1052.924
-12.633	29.181	1263.515	1052.383
-11.619	29.086	1263.263	1051.586
-10.604	29.126	1262.233	1050.917
-9.590	29.173	1261.116	1050.213
-8.575	29.106	1260.236	1049.056
-7.560	29.099	1259.355	1048.242
-6.546	29.115	1258.620	1047.682
-5.531	29.058	1257.600	1046.465
-4.517	29.199	1256.641	1046.429
-3.502	29.129	1255.706	1045.209
-2.487	29.140	1254.891	1044.553
-1.473	29.102	1250.832	1040.917
-0.458	28.009	1236.015	1022.436
0.556	23.001	1219.984	987.010
1.571	19.509	1226.469	972.529
2.586	18.678	1241.468	979.594
3.600	18.436	1230.207	969.256
4.615	13.533	1156.499	884.967
5.629	4.658	1080.460	782.237
6.644	0.421	1060.913	747.058
7.659	0.192	1058.310	744.027
8.673	0.048	1057.282	742.531
9.688	-0.059	1056.334	741.268
10.702	0.268	1054.087	741.235
11.717	5.466	1061.052	771.763
12.731	13.679	1071.791	820.288
13.746	17.259	1075.467	840.768
14.761	16.983	1074.646	838.689
15.775	15.930	1072.928	832.076
16.790	14.861	1071.055	825.273
17.804	14.292	1069.273	821.024
18.819	13.959	1067.743	818.136
19.834	13.638	1067.245	816.101
20.848	13.392	1066.530	814.271
21.863	13.173	1065.297	812.183
22.877	12.999	1064.758	810.844
23.892	13.075	1063.624	810.284
24.907	13.163	1062.495	809.781
25.921	13.087	1062.125	809.057
26.936	13.099	1061.605	808.644
27.950	13.159	1060.780	808.238
28.965	13.171	1059.601	807.331
29.980	13.194	1058.302	806.382
30.994	13.245	1057.520	805.961
32.009	13.384	1056.124	805.504
33.023	13.204	1055.796	804.308
34.038	13.146	1054.682	803.104
35.053	13.265	1053.629	802.807
36.067	13.247	1052.828	802.042
37.082	13.304	1052.139	801.720
38.096	13.170	1051.538	800.544
39.111	13.396	1050.161	800.517
40.126	13.143	1049.420	798.656
41.140	13.025	1047.852	796.823
42.155	13.135	1047.136	796.743
43.169	13.136	1045.770	795.635
44.184	12.934	1045.306	794.241
45.199	12.852	1044.299	793.009
46.213	12.968	1043.057	792.553
47.228	13.130	1041.725	792.246
48.242	13.157	1040.761	791.572
49.257	13.168	1039.767	790.801
50.271	13.179	1039.207	790.359
51.286	13.279	1038.230	790.023
52.301	13.209	1036.828	788.552
53.315	13.243	1035.993	788.009
54.330	13.103	1035.155	786.635
55.344	13.037	1034.552	785.794
56.359	13.074	1033.489	785.093
57.374	13.085	1032.759	784.518
58.388	13.018	1031.609	783.260
59.403	13.072	1031.040	783.014
60.417	12.897	1030.699	781.856
61.432	12.954	1029.783	781.362
62.447	12.913	1028.852	780.391
63.461	12.854	1027.882	779.308
64.476	12.916	1026.593	778.555
65.490	13.031	1025.675	778.332
66.505	12.958	1025.428	777.733
67.520	13.044	1024.629	777.462
68.534	13.061	1024.118	777.088
69.549	12.991	1022.926	775.785
70.563	12.962	1022.418	775.196
71.578	12.896	1021.897	774.420
72.593	13.012	1020.729	774.011
73.607	12.978	1020.384	773.523
74.622	12.835	1019.618	772.200
75.636	12.937	1018.515	771.776
76.651	12.802	1018.223	770.856
77.666	12.942	1017.853	771.160
78.680	13.045	1016.824	770.794
79.695	12.871	1016.560	769.714
80.709	13.014	1015.669	769.636
81.724	13.071	1015.012	769.338
82.739	13.070	1014.103	768.574
83.753	13.155	1013.446	768.407
84.768	13.231	1012.286	767.812
85.782	13.161	1011.721	766.989
86.797	13.194	1010.562	766.198
87.812	13.096	1009.968	765.225
88.826	13.158	1008.768	764.532
89.841	13.113	1008.005	763.679
90.855	13.252	1007.288	763.710
91.870	13.295	1006.139	762.973
92.884	13.273	1005.622	762.408
93.899	13.199	1004.532	761.174
94.914	13.389	1003.666	761.324
95.928	13.333	1002.829	760.368
96.943	13.174	1002.243	759.124
97.957	13.238	1000.951	758.370
98.972	13.246	1000.621	758.090
99.987	13.316	999.311	757.351
101.001	13.292	998.355	756.450
102.016	13.300	997.675	755.906
103.030	13.302	996.587	755.025
104.045	13.347	996.230	754.892
105.060	13.297	994.993	753.659
106.074	13.266	993.839	752.578
107.089	13.164	992.877	751.318
108.103	13.153	991.684	750.300
109.118	13.055	991.399	749.571
110.133	12.962	990.537	748.434
111.147	13.077	989.963	748.453
112.162	13.118	988.931	747.792
113.176	13.099	988.257	747.131
114.191	13.329	987.004	747.158
115.206	13.106	986.470	745.681
116.220	13.129	985.990	745.355
117.235	13.175	985.000	744.748
118.249	13.156	983.976	743.822
119.264	13.116	983.202	742.993
120.279	13.108	982.420	742.298
121.293	13.175	981.300	741.688
122.308	13.046	980.895	740.735
123.322	13.151	979.719	740.257
124.337	13.101	978.616	739.132
125.352	13.042	977.934	738.288
126.366	13.159	976.664	737.785
127.381	13.052	975.547	736.399
128.395	13.080	975.123	736.139
129.410	13.058	974.344	735.386
130.424	13.153	973.186	734.872
131.439	13.206	972.244	734.331
132.454	13.288	971.677	734.203
133.468	13.220	971.242	733.507
134.483	13.221	970.347	732.770
135.497	13.124	969.309	731.492
136.512	13.283	968.045	731.176
137.527	13.207	967.544	730.397
138.541	13.200	966.907	729.819
139.556	13.229	966.187	729.342
140.570	13.264	965.071	728.589
141.585	13.267	964.857	728.374
142.600	13.303	963.476	727.426
143.614	13.411	962.702	727.251
144.629	13.210	962.485	726.141
145.643	13.426	960.900	725.828
146.658	13.379	960.013	724.888
147.673	13.265	959.077	723.617
148.687	13.341	958.103	723.153
149.702	13.402	957.198	722.673
150.716	13.229	957.231	721.877
151.731	13.247	956.055	721.006
152.746	13.220	955.717	720.568
153.760	13.291	955.168	720.401
154.775	13.388	954.339	720.133
155.789	13.328	953.635	719.279
156.804	13.405	952.894	718.990
157.819	13.441	952.403	718.711
158.833	13.464	951.321	717.930
159.848	13.389	950.975	717.280
160.862	13.559	949.534	716.866
161.877	13.469	948.618	715.725
162.892	13.430	948.074	715.081
163.906	13.368	946.993	713.935
164.921	13.380	946.046	713.208
165.935	13.447	945.383	712.934
166.950	13.452	944.491	712.220
167.964	13.404	943.929	711.529
168.979	13.496	942.478	710.766
169.994	13.443	941.957	710.084
171.008	13.460	941.562	709.794
172.023	13.720	939.833	709.543
173.037	13.517	940.059	708.782
174.052	13.507	939.311	708.112
175.067	13.508	938.669	707.567
176.081	13.474	937.890	706.771
177.096	13.452	937.513	706.335
178.110	13.490	936.822	705.913
179.125	13.503	936.311	705.521
180.140	13.523	935.961	705.277
181.154	13.528	935.242	704.694
182.169	13.748	934.853	705.274
183.183	13.763	933.479	704.240
184.198	13.636	933.239	703.460
185.213	13.812	932.239	703.390
186.227	13.795	931.794	702.917
187.242	13.745	931.065	702.096
188.256	13.887	930.318	702.070
189.271	13.699	930.161	701.093
190.286	13.647	929.151	700.052
191.300	13.395	928.504	698.437
192.315	13.542	927.950	698.580
193.329	13.632	927.131	698.281
194.344	13.623	926.589	697.772
195.359	13.663	925.718	697.224
196.373	13.812	925.152	697.359
197.388	13.793	925.243	697.289
198.402	13.847	924.933	697.219
199.417	13.965	923.854	696.839
200.432	14.050	923.241	696.671
201.446	13.911	923.230	696.021
202.461	14.109	922.219	696.025
203.475	14.060	921.945	695.551
204.490	13.984	921.006	694.465
205.504	13.994	920.089	693.753
206.519	13.965	919.394	693.046
207.534	13.898	918.850	692.295
208.548	14.019	918.206	692.251
209.563	13.956	917.497	691.396
210.577	13.970	917.029	691.040
211.592	14.023	916.234	690.601
212.607	14.076	915.534	690.232
213.621	14.036	914.712	689.386
214.636	14.036	914.043	688.820
215.650	14.189	913.009	688.611
216.665	14.118	912.564	687.923
217.680	14.342	911.515	687.995
218.694	14.323	911.013	687.478
219.709	14.354	910.451	687.120
220.723	14.145	909.991	685.851
221.738	14.198	908.898	685.184
222.753	14.171	908.415	684.649
223.767	14.201	907.657	684.138
224.782	14.371	907.266	684.481
225.796	14.422	906.672	684.183
226.811	14.365	905.998	683.380
227.826	14.426	905.082	682.881
228.840	14.240	904.789	681.835
229.855	14.330	903.326	681.043
230.869	14.220	902.807	680.140
231.884	14.204	902.414	679.720
232.899	14.244	901.768	679.337
233.913	14.287	901.239	679.053
234.928	14.204	899.955	677.688
235.942	14.353	899.272	677.719
236.957	14.411	899.182	677.828
237.972	14.208	898.961	676.776
238.986	14.237	898.330	676.359
240.001	14.376	897.333	676.112
241.015	14.396	896.565	675.555
242.030	14.377	896.406	675.296
243.045	14.493	895.414	674.961
244.059	14.439	894.732	674.166
245.074	14.411	894.634	673.920
246.088	14.421	893.512	673.056
247.103	14.462	892.965	672.749
248.117	14.545	892.533	672.700
249.132	14.652	892.134	672.772
250.147	14.689	891.064	672.052
251.161	14.737	890.699	671.912
252.176	14.702	890.053	671.223
253.190	14.698	889.353	670.620
254.205	14.785	888.717	670.430
255.220	14.694	888.180	669.603
256.234	14.788	887.528	669.427
257.249	14.953	886.576	669.309
258.263	14.738	885.896	667.879
259.278	14.886	885.188	667.878
260.293	14.903	884.658	667.485
261.307	14.979	884.132	667.333
262.322	14.966	883.600	666.822
263.336	14.946	882.897	666.149
264.351	14.971	881.967	665.489
265.366	15.039	881.101	665.047
266.380	15.112	880.692	664.970
267.395	15.026	880.288	664.265
268.409	14.940	879.521	663.284
269.424	15.089	878.389	662.963
270.439	15.071	877.700	662.314
271.453	15.042	877.301	661.841
272.468	15.033	877.034	661.544
273.482	14.894	876.379	660.444
274.497	15.133	875.546	660.700
275.512	15.165	874.924	660.298
276.526	15.098	874.762	659.853
277.541	15.164	874.461	659.829
278.555	15.259	873.397	659.341
279.570	15.122	873.217	658.609
280.585	15.196	872.298	658.146
281.599	15.211	871.043	657.202
282.614	15.193	870.719	656.829
283.628	15.277	870.354	656.823
284.643	15.089	869.883	655.673
285.657	15.207	869.265	655.611
286.672	15.219	868.608	655.105
287.687	15.381	867.725	655.011
288.701	15.300	867.255	654.285
289.716	15.250	866.578	653.520
290.730	15.388	865.810	653.421
291.745	15.389	865.661	653.256
292.760	15.279	864.946	652.230
293.774	15.621	864.175	652.918
294.789	15.425	863.385	651.504
295.803	15.420	862.826	651.004
296.818	15.404	862.020	650.276
297.833	15.332	861.548	649.585
298.847	15.394	860.974	649.336
299.862	15.443	860.465	649.084
300.876	15.482	860.098	648.901
301.891	15.539	859.378	648.519
302.906	15.628	858.631	648.241
303.920	15.634	857.996	647.726
304.935	15.689	857.498	647.507
305.949	15.676	856.840	646.903
306.964	15.649	856.495	646.478
307.979	15.672	855.786	645.978
308.993	15.753	855.325	645.882
310.008	15.662	854.777	645.063
311.022	15.666	854.163	644.558
312.037	15.649	853.630	644.033
313.052	15.609	853.256	643.539
314.066	15.574	852.767	642.982
315.081	15.566	852.224	642.485
316.095	15.715	851.224	642.241
317.110	15.706	850.732	641.780
318.125	15.699	850.330	641.392
319.139	15.692	849.745	640.869
320.154	15.616	849.446	640.296
321.168	15.658	849.166	640.188
322.183	15.693	848.732	639.937
323.197	15.742	847.740	639.320
324.212	15.771	847.414	639.126
325.227	15.725	846.682	638.346
326.241	15.888	845.642	638.123
327.256	15.785	845.553	637.607
328.270	15.795	844.778	637.006
329.285	15.824	844.045	636.504
330.300	15.802	843.804	636.183
331.314	15.910	842.984	635.916
332.329	15.892	842.441	635.383
333.343	15.895	842.395	635.304
334.358	16.008	841.931	635.323
335.373	15.851	841.437	634.302
336.387	15.921	840.970	634.160
337.402	15.835	841.482	634.164
338.416	15.992	840.737	634.136
339.431	16.085	840.222	634.041
340.446	15.973	839.713	633.181
341.460	16.067	839.435	633.269
342.475	16.055	839.151	632.956
343.489	16.179	838.245	632.679
344.504	16.262	838.134	632.852
345.519	16.218	837.526	632.169
346.533	16.211	836.784	631.529
347.548	16.113	836.622	630.983
348.562	16.163	835.590	630.336
349.577	16.115	835.388	629.948
350.592	16.096	834.739	629.333
351.606	16.129	833.900	628.768
352.621	16.222	833.241	628.561
353.635	16.100	833.096	627.941
354.650	16.296	831.841	627.670
355.665	16.288	831.670	627.457
356.679	16.257	831.104	626.859
357.694	16.400	830.417	626.816
358.708	16.347	829.513	625.880
359.723	16.355	828.803	625.320
360.738	16.364	828.581	625.128
361.752	16.443	828.155	625.047
362.767	16.350	827.116	623.862
363.781	16.343	826.925	623.636
364.796	16.516	826.165	623.647
365.810	16.521	826.031	623.511
366.825	16.466	825.868	623.127
367.840	16.602	825.327	623.165
368.854	16.596	824.797	622.687
369.869	16.507	824.319	621.943
370.883	16.537	823.799	621.606
371.898	16.571	823.508	621.457
372.913	16.569	823.004	621.017
373.927	16.626	822.612	620.874
374.942	16.643	822.048	620.454
375.956	16.736	821.790	620.547
376.971	16.747	821.263	620.135
377.986	16.726	820.770	619.630
379.000	16.737	820.491	619.405
380.015	16.875	820.026	619.504
381.029	16.818	819.040	618.497
382.044	16.753	818.460	617.767
383.059	16.907	817.600	617.624
384.073	16.818	817.520	617.185
385.088	16.795	816.891	616.569
386.102	16.886	815.961	616.144
387.117	16.876	815.686	615.848
388.132	16.828	815.054	615.140
389.146	16.768	814.630	614.548
390.161	16.922	813.934	614.526
391.175	16.829	813.841	614.066
392.190	16.869	813.233	613.696
393.205	16.891	812.725	613.340
394.219	16.972	812.211	613.192
395.234	16.872	812.012	612.624
396.248	16.847	811.634	612.196
397.263	16.834	811.047	611.652
398.278	16.885	810.678	611.501
399.292	17.005	810.026	611.387
400.307	16.996	809.525	610.924
401.321	16.916	809.487	610.552
402.336	16.930	808.841	610.064
403.350	17.068	808.047	609.907
404.365	16.984	808.129	609.611
405.380	17.002	807.961	609.497
406.394	17.103	806.863	608.975
407.409	17.075	806.748	608.735
408.423	17.161	806.283	608.639
409.438	17.222	805.727	608.383
410.453	17.232	806.016	608.584
411.467	17.346	804.668	607.917
412.482	17.297	804.380	607.473
413.496	17.364	804.139	607.477
414.511	17.409	803.767	607.303
415.526	17.270	803.559	606.596
416.540	17.236	803.005	606.001
417.555	17.283	802.535	605.763
418.569	17.242	802.364	605.433
419.584	17.336	802.009	605.447
420.599	17.286	801.000	604.451
421.613	108.995	1292.393	1469.452
422.628	93.796	1363.997	1469.529
