DTS Sentinel unit serial number:	SN413079Multiplexer serial number:	ORYXHardware model number:	OX4-SRSoftware version number:	ORYX F/W v4.00 Oryx Data Collector v3.7.2.0data status	okinstallation	princeton_trtdifferential loss correction	single-endedforward channel	channel 1reverse channel	N/Adate	2019/09/14time	21:22:35forward acquisition time	60.00reverse acquisition time	0.00gamma	496.2192k internal	0.2318k external	0.2318temperature offset calibration	1.0013default loss term (dB/km)	0.3790temperature slope calibration	1.0000multiplexer offset coefficient	1.0000multiplexer slope coefficient	1.0000fibre end	0.00T internal ref (°C)	32.94T ext. ref 1 (°C)	4.78T ext. ref 2 (°C)	27.73length (m)	temperature (°C)	Stokes	anti-Stokes-747.200	-200.000	0.041	-0.315
-746.185	-27.024	-0.111	-0.066
-745.171	-110.039	-0.255	-0.054
-744.156	-200.000	-0.048	0.293
-743.142	-200.000	-0.011	0.243
-742.127	79.503	0.120	0.130
-741.112	-176.362	0.312	-0.008
-740.098	-86.283	-0.265	0.082
-739.083	800.000	0.049	-0.167
-738.069	109.882	0.104	0.127
-737.054	264.172	0.201	0.353
-736.039	27.634	-0.180	0.153
-735.025	-117.884	0.291	0.053
-734.010	-27.701	0.389	-0.228
-732.996	-8.469	-0.097	0.066
-731.981	-173.517	-0.063	-0.002
-730.966	277.298	-0.124	-0.224
-729.952	-135.605	0.078	-0.009
-728.937	372.671	-0.111	0.228
-727.923	595.893	-0.060	-0.149
-726.908	-81.150	-0.316	0.106
-725.894	-59.112	-0.504	-0.220
-724.879	90.965	-0.054	-0.062
-723.864	89.815	-0.063	0.071
-722.850	513.614	0.075	-0.177
-721.835	-54.772	-0.162	-0.074
-720.821	107.304	0.131	-0.158
-719.806	255.907	-0.288	-0.499
-718.791	-200.000	0.004	0.145
-717.777	139.584	0.063	0.084
-716.762	-200.000	0.022	-0.132
-715.748	504.197	0.120	-0.282
-714.733	-73.593	-0.174	-0.064
-713.718	131.257	-0.167	0.217
-712.704	-174.856	-0.093	0.003
-711.689	286.516	-0.117	-0.214
-710.675	-153.009	0.218	0.016
-709.660	200.848	0.192	-0.299
-708.645	800.000	0.062	-0.260
-707.631	-200.000	-0.016	0.251
-706.616	-200.000	-0.002	0.078
-705.602	133.134	-0.177	0.231
-704.587	64.015	0.201	0.204
-703.572	-141.446	0.392	-0.040
-702.558	275.985	0.066	-0.118
-701.543	81.061	0.046	-0.050
-700.529	195.962	0.097	-0.148
-699.514	610.428	0.105	-0.265
-698.499	-150.931	0.298	-0.023
-697.485	800.000	-0.086	-0.252
-696.470	-70.125	0.068	0.026
-695.456	91.566	0.202	0.230
-694.441	645.386	-0.090	-0.231
-693.426	375.145	0.186	-0.383
-692.412	108.197	0.103	-0.124
-691.397	-200.000	-0.031	-0.298
-690.383	-200.000	-0.012	0.214
-689.368	16.165	0.141	-0.112
-688.354	-145.341	0.251	-0.023
-687.339	-107.602	-0.261	-0.058
-686.324	-200.000	0.001	0.056
-685.310	-200.000	0.009	-0.132
-684.295	71.172	0.204	-0.214
-683.281	79.977	-0.101	0.110
-682.266	19.130	-0.386	-0.312
-681.251	528.145	-0.068	-0.161
-680.237	244.508	-0.120	-0.203
-679.222	283.444	-0.032	-0.058
-678.208	136.300	-0.259	-0.340
-677.193	-173.280	0.004	-0.000
-676.178	12.488	-0.087	-0.068
-675.164	57.948	-0.264	-0.261
-674.149	800.000	0.063	-0.257
-673.135	-146.625	-0.336	0.029
-672.120	-122.398	0.281	-0.046
-671.105	-66.570	-0.165	0.066
-670.091	-78.425	0.303	0.105
-669.076	-54.681	-0.223	-0.102
-668.062	800.000	-0.064	0.215
-667.047	172.164	-0.126	0.183
-666.032	11.875	-0.207	0.160
-665.018	-200.000	0.017	-0.235
-664.003	255.496	0.093	0.161
-662.989	-145.661	0.159	-0.014
-661.974	800.000	-0.035	0.110
-660.959	151.986	-0.058	-0.080
-659.945	96.402	-0.090	-0.103
-658.930	-92.440	-0.368	-0.104
-657.916	133.924	-0.174	-0.227
-656.901	-64.060	-0.229	-0.094
-655.886	-114.533	-0.122	-0.024
-654.872	612.971	-0.039	0.098
-653.857	800.000	-0.065	0.183
-652.843	-200.000	-0.019	0.201
-651.828	19.516	0.153	0.124
-650.814	292.984	0.137	0.252
-649.799	-200.000	-0.008	0.241
-648.784	171.013	-0.093	0.134
-647.770	80.402	-0.086	0.093
-646.755	-44.164	-0.243	0.123
-645.741	-97.587	0.051	0.013
-644.726	-156.896	-0.322	0.020
-643.711	-200.000	-0.013	-0.252
-642.697	-134.737	0.239	-0.029
-641.682	-31.735	0.174	0.099
-640.668	-200.000	0.034	-0.190
-639.653	-200.000	0.019	-0.140
-638.638	758.812	-0.091	-0.247
-637.624	800.000	0.056	0.157
-636.609	67.857	-0.067	-0.069
-635.595	-37.696	-0.120	0.064
-634.580	-166.295	-0.104	-0.004
-633.565	422.283	0.024	-0.053
-632.551	-200.000	0.063	0.302
-631.536	-88.454	-0.340	-0.102
-630.522	497.753	0.029	0.067
-629.507	-200.000	-0.044	-0.230
-628.492	-200.000	-0.003	0.082
-627.478	-139.478	-0.268	-0.029
-626.463	800.000	0.015	0.045
-625.449	-100.331	0.291	-0.073
-624.434	-200.000	0.021	-0.141
-623.419	-200.000	-0.017	-0.113
-622.405	10.807	-0.212	0.163
-621.390	-26.000	-0.160	0.095
-620.376	-143.013	0.131	-0.013
-619.361	800.000	-0.067	-0.217
-618.346	-200.000	-0.060	-0.328
-617.332	-200.000	-0.010	-0.145
-616.317	-14.595	-0.097	0.063
-615.303	-200.000	-0.011	0.278
-614.288	-86.752	-0.079	0.024
-613.273	-200.000	-0.042	0.567
-612.259	-49.613	0.308	0.148
-611.244	-200.000	0.002	0.090
-610.230	-86.198	-0.068	0.021
-609.215	26.181	-0.262	0.220
-608.201	-97.199	0.341	0.090
-607.186	-42.467	-0.125	0.064
-606.171	438.608	0.114	0.250
-605.157	-65.193	0.179	0.073
-604.142	-200.000	0.063	-0.369
-603.128	220.454	0.161	-0.259
-602.113	-30.366	-0.143	-0.082
-601.098	-200.000	-0.027	-0.137
-600.084	110.373	0.117	0.142
-599.069	-26.703	0.242	-0.142
-598.055	112.169	-0.073	-0.089
-597.040	26.829	-0.120	-0.101
-596.025	800.000	0.119	-0.423
-595.011	-108.656	-0.070	-0.015
-593.996	-131.454	0.491	0.065
-592.982	-51.905	-0.108	-0.051
-591.967	-38.987	0.170	-0.090
-590.952	-2.550	0.208	-0.146
-589.938	222.853	-0.119	-0.192
-588.923	66.270	0.255	0.260
-587.909	-200.000	-0.028	0.328
-586.894	-19.157	0.044	-0.028
-585.879	58.371	0.007	0.007
-584.865	-113.197	-0.150	-0.030
-583.850	616.716	0.127	0.320
-582.836	-200.000	0.012	-0.159
-581.821	95.553	-0.116	-0.133
-580.806	37.506	-0.152	-0.136
-579.792	-115.351	-0.170	0.032
-578.777	578.204	-0.111	-0.273
-577.763	64.132	0.144	0.146
-576.748	220.972	-0.204	0.328
-575.733	-200.000	0.008	0.131
-574.719	-102.765	-0.169	0.040
-573.704	-19.581	0.103	0.064
-572.690	-200.000	0.015	0.085
-571.675	-200.000	-0.024	-0.427
-570.661	-200.000	0.016	-0.114
-569.646	-37.641	-0.122	-0.065
-568.631	-200.000	-0.004	0.378
-567.617	800.000	-0.028	0.109
-566.602	56.893	-0.248	-0.243
-565.588	80.650	0.093	-0.101
-564.573	-200.000	-0.005	-0.226
-563.558	-81.924	0.206	-0.068
-562.544	87.020	-0.230	0.255
-561.529	-8.191	0.074	0.050
-560.515	-71.912	-0.154	0.057
-559.500	-84.800	0.256	0.081
-558.485	-113.516	0.046	0.009
-557.471	49.268	-0.166	0.157
-556.456	-59.823	0.103	0.044
-555.442	4.686	-0.165	-0.122
-554.427	311.327	0.105	0.198
-553.412	-200.000	0.015	-0.113
-552.398	453.592	-0.107	-0.238
-551.383	28.115	-0.153	0.130
-550.369	-200.000	0.010	0.157
-549.354	-0.736	-0.325	-0.232
-548.339	116.336	0.088	-0.109
-547.325	-147.301	-0.261	0.022
-546.310	167.786	0.157	0.225
-545.296	-200.000	0.044	0.257
-544.281	-53.523	-0.100	0.046
-543.266	30.624	0.126	-0.108
-542.252	330.204	0.128	0.247
-541.237	-163.285	-0.098	-0.005
-540.223	800.000	0.139	0.466
-539.208	-200.000	-0.013	0.166
-538.193	-56.165	0.288	-0.129
-537.179	-49.833	0.123	0.059
-536.164	-45.519	0.196	0.097
-535.150	-142.696	0.139	-0.014
-534.135	-95.562	-0.316	0.085
-533.121	389.312	-0.106	0.221
-532.106	189.470	-0.184	-0.277
-531.091	-151.000	0.302	-0.023
-530.077	770.488	-0.047	0.129
-529.062	-147.688	-0.190	-0.016
-528.048	-23.686	0.178	0.107
-527.033	800.000	0.040	-0.165
-526.018	800.000	-0.069	-0.243
-525.004	800.000	0.019	-0.077
-523.989	141.352	0.103	-0.136
-522.975	-175.086	0.473	-0.013
-521.960	-200.000	0.046	-0.266
-520.945	800.000	-0.029	-0.110
-519.931	-96.865	-0.275	-0.072
-518.916	-139.014	-0.434	0.047
-517.902	514.320	-0.115	-0.268
-516.887	-144.390	-0.292	0.027
-515.872	-21.126	-0.173	0.106
-514.858	-62.160	-0.090	-0.038
-513.843	-200.000	-0.016	0.146
-512.829	149.270	0.146	0.199
-511.814	199.787	-0.109	0.167
-510.799	-35.323	-0.188	0.103
-509.785	349.638	0.109	-0.217
-508.770	130.997	-0.163	0.210
-507.756	71.957	0.274	-0.285
-506.741	-160.044	-0.092	-0.005
-505.726	-200.000	0.006	0.108
-504.712	81.601	0.121	-0.131
-503.697	632.583	0.076	-0.193
-502.683	800.000	-0.026	-0.107
-501.668	6.647	-0.178	-0.133
-500.653	336.830	0.184	-0.359
-499.639	-200.000	0.025	0.158
-498.624	-37.611	0.347	-0.185
-497.610	-200.000	-0.030	0.339
-496.595	-29.884	-0.189	-0.108
-495.581	-200.000	-0.013	0.313
-494.566	-75.336	-0.122	-0.044
-493.551	325.833	-0.064	0.123
-492.537	-23.629	-0.019	-0.012
-491.522	256.123	0.074	-0.128
-490.508	-200.000	0.013	0.128
-489.493	689.313	-0.052	0.137
-488.478	-154.942	0.177	-0.012
-487.464	800.000	-0.077	-0.246
-486.449	444.161	0.056	-0.122
-485.435	-128.460	0.263	-0.037
-484.420	-200.000	-0.005	-0.390
-483.405	-28.955	0.287	-0.165
-482.391	76.158	0.153	-0.162
-481.376	-30.211	-0.103	-0.059
-480.362	-78.349	-0.262	0.090
-479.347	37.367	-0.131	-0.116
-478.332	26.106	0.115	0.096
-477.318	-200.000	-0.031	0.269
-476.303	-200.000	0.016	0.219
-475.289	-200.000	0.016	-0.114
-474.274	38.164	-0.151	-0.134
-473.259	-107.004	-0.346	0.077
-472.245	-157.929	0.174	0.010
-471.230	800.000	0.093	0.291
-470.216	800.000	0.091	-0.352
-469.201	-89.120	-0.170	0.050
-468.186	800.000	-0.020	-0.066
-467.172	-200.000	-0.098	0.430
-466.157	57.625	0.184	0.180
-465.143	-149.825	0.071	0.006
-464.128	-46.849	-0.034	0.017
-463.113	467.671	0.118	0.264
-462.099	-200.000	0.038	-0.264
-461.084	-131.983	0.196	-0.026
-460.070	124.564	-0.100	0.125
-459.055	-114.816	0.119	-0.023
-458.040	800.000	0.037	-0.163
-457.026	-66.541	0.103	-0.041
-456.011	48.883	-0.174	-0.163
-454.997	-200.000	-0.034	0.156
-453.982	377.336	-0.129	-0.263
-452.968	25.649	0.084	-0.070
-451.953	-130.720	-0.328	0.044
-450.938	-121.148	-0.179	0.030
-449.924	-188.374	0.140	-0.002
-448.909	800.000	0.067	0.245
-447.895	800.000	-0.129	0.387
-446.880	-121.290	0.231	-0.039
-445.865	111.470	-0.166	0.201
-444.851	-186.258	-0.222	0.003
-443.836	-200.000	0.004	0.211
-442.822	187.208	0.059	0.088
-441.807	456.499	0.084	-0.186
-440.792	-89.757	-0.212	-0.062
-439.778	32.708	-0.115	-0.099
-438.763	-74.409	0.058	0.021
-437.749	-120.749	0.216	0.037
-436.734	-92.491	-0.033	-0.009
-435.719	34.657	0.120	0.105
-434.705	106.117	-0.071	0.085
-433.690	141.947	-0.095	-0.126
-432.676	84.213	-0.186	-0.203
-431.661	-91.164	0.060	0.017
-430.646	38.836	0.232	-0.207
-429.632	47.524	0.091	0.085
-428.617	-31.290	-0.190	-0.107
-427.603	-88.912	0.261	-0.077
-426.588	17.543	0.164	-0.131
-425.573	-43.913	0.133	-0.067
-424.559	153.821	-0.218	0.298
-423.544	800.000	-0.035	0.130
-422.530	-32.530	0.228	-0.127
-421.515	-200.000	0.092	0.468
-420.500	156.471	-0.236	-0.326
-419.486	32.989	-0.338	-0.293
-418.471	-84.718	0.409	-0.129
-417.457	-61.715	-0.333	0.139
-416.442	-143.467	-0.334	0.032
-415.428	26.315	-0.189	0.158
-414.413	-138.214	-0.107	0.012
-413.398	450.300	-0.107	0.237
-412.384	42.417	-0.036	-0.032
-411.369	80.246	-0.085	-0.091
-410.355	-157.656	0.170	-0.010
-409.340	7.356	0.138	-0.103
-408.325	800.000	0.143	-0.467
-407.311	-130.802	-0.205	-0.027
-406.296	-200.000	0.001	0.309
-405.282	-40.440	-0.285	0.148
-404.267	156.516	0.091	0.125
-403.252	-86.162	-0.169	-0.052
-402.238	-200.000	0.019	0.124
-401.223	-200.000	0.004	-0.069
-400.209	-92.988	-0.095	-0.026
-399.194	384.076	-0.044	-0.090
-398.179	-20.619	0.190	-0.117
-397.165	-200.000	0.023	-0.393
-396.150	-200.000	0.001	-0.145
-395.136	-200.000	0.006	0.205
-394.121	90.214	-0.324	0.361
-393.106	674.941	-0.079	-0.206
-392.092	581.331	-0.047	0.115
-391.077	-200.000	-0.040	-0.249
-390.063	292.589	0.160	-0.292
-389.048	645.577	-0.044	0.112
-388.033	-131.946	-0.183	-0.024
-387.019	65.041	0.226	0.228
-386.004	-200.000	0.029	0.138
-384.990	47.369	0.147	0.137
-383.975	56.104	-0.168	0.163
-382.960	3.677	0.352	0.256
-381.946	-104.383	0.039	0.009
-380.931	365.532	-0.140	-0.281
-379.917	206.753	0.135	0.210
-378.902	-26.437	-0.178	-0.104
-377.888	800.000	-0.103	0.343
-376.873	331.681	0.191	0.368
-375.858	202.853	0.226	-0.349
-374.844	235.028	0.158	-0.260
-373.829	-52.292	-0.246	-0.114
-372.815	-159.388	-0.272	0.015
-371.800	6.301	-0.156	-0.115
-370.785	91.408	-0.137	-0.153
-369.771	-130.953	0.320	-0.043
-368.756	-200.000	-0.016	-0.230
-367.742	114.300	-0.137	-0.166
-366.727	31.270	-0.125	0.107
-365.712	193.593	-0.091	0.137
-364.698	-35.974	0.168	0.090
-363.683	800.000	-0.153	-0.502
-362.669	343.302	-0.081	-0.158
-361.654	-7.777	-0.050	0.034
-360.639	429.966	0.072	0.154
-359.625	-31.467	0.264	0.148
-358.610	-20.767	0.045	0.027
-357.596	-44.134	0.189	-0.094
-356.581	-200.000	-0.010	0.097
-355.566	-13.948	-0.311	-0.200
-354.552	-200.000	0.051	-0.312
-353.537	-127.046	-0.086	-0.013
-352.523	-31.940	0.061	0.034
-351.508	-200.000	0.015	0.241
-350.493	-74.854	0.063	-0.022
-349.479	675.057	0.051	-0.131
-348.464	-70.906	-0.094	-0.035
-347.450	-92.490	-0.173	0.048
-346.435	-118.510	0.054	0.010
-345.420	-200.000	-0.202	0.001
-344.406	55.410	-0.101	-0.097
-343.391	-200.000	0.000	-0.107
-342.377	-200.000	-0.021	-0.138
-341.362	45.817	-0.101	0.093
-340.348	146.394	0.098	-0.131
-339.333	-200.000	-0.055	0.256
-338.318	800.000	0.050	0.156
-337.304	-200.000	0.015	0.339
-336.289	-200.000	-0.006	-0.035
-335.275	800.000	0.079	0.283
-334.260	-130.493	-0.076	-0.010
-333.245	-76.255	-0.305	0.107
-332.231	65.537	-0.183	0.185
-331.216	88.041	-0.080	0.089
-330.202	-200.000	0.018	0.088
-329.187	563.335	0.025	0.061
-328.172	-200.000	-0.040	-0.184
-327.158	-26.451	-0.120	0.070
-326.143	-21.530	0.070	-0.042
-325.129	-48.949	-0.234	0.112
-324.114	69.029	0.041	0.042
-323.099	-100.479	-0.330	0.081
-322.085	278.670	0.248	-0.440
-321.070	568.341	-0.129	-0.313
-320.056	164.192	-0.156	-0.218
-319.041	-200.000	0.017	0.096
-318.026	800.000	-0.143	0.500
-317.012	-30.877	-0.185	0.104
-315.997	71.681	-0.168	-0.174
-314.983	800.000	-0.074	-0.309
-313.968	800.000	0.036	-0.124
-312.953	31.842	0.117	-0.100
-311.939	-109.497	-0.148	0.031
-310.924	51.526	0.203	-0.192
-309.910	33.794	0.052	-0.045
-308.895	-14.876	0.301	-0.192
-307.880	-87.907	-0.426	0.128
-306.866	-72.896	0.252	-0.092
-305.851	-117.981	0.103	0.018
-304.837	-1.516	0.129	-0.090
-303.822	526.157	-0.071	-0.166
-302.807	-143.405	0.288	0.027
-301.793	-19.358	-0.153	0.094
-300.778	-200.000	0.011	-0.239
-299.764	234.170	-0.124	-0.203
-298.749	112.374	-0.244	-0.294
-297.735	800.000	0.030	0.107
-296.720	124.494	-0.119	-0.149
-295.705	-1.499	0.094	0.066
-294.691	42.703	0.048	-0.043
-293.676	-68.378	-0.320	0.124
-292.662	-200.000	-0.035	0.166
-291.647	189.793	0.111	-0.166
-290.632	-200.000	0.029	0.365
-289.618	5.114	0.185	0.135
-288.603	96.697	-0.198	-0.226
-287.589	-200.000	0.006	-0.086
-286.574	375.822	0.060	0.122
-285.559	-85.287	-0.178	0.055
-284.545	-22.863	-0.137	-0.082
-283.530	-1.484	-0.146	0.102
-282.516	42.542	0.279	0.253
-281.501	-200.000	-0.466	-0.002
-280.486	-200.000	-0.048	0.313
-279.472	-200.000	-0.006	0.160
-278.457	326.034	-0.053	0.100
-277.443	-59.702	0.219	0.093
-276.428	-82.386	-0.107	-0.034
-275.413	-27.444	0.182	-0.105
-274.399	800.000	0.041	0.164
-273.384	-200.000	-0.025	0.288
-272.370	-153.187	0.255	-0.018
-271.355	139.347	-0.097	0.126
-270.340	37.749	0.089	-0.078
-269.326	100.245	0.262	0.302
-268.311	-200.000	0.011	0.194
-267.297	-89.662	0.091	0.026
-266.282	-61.994	0.179	-0.074
-265.267	389.418	0.152	-0.312
-264.253	-65.299	-0.138	-0.055
-263.238	91.035	-0.154	0.171
-262.224	-26.067	-0.169	0.099
-261.209	-184.383	-0.093	0.002
-260.195	352.877	0.082	0.161
-259.180	-200.000	0.023	-0.196
-258.165	-142.467	0.190	0.019
-257.151	223.477	-0.027	0.043
-256.136	5.356	-0.136	0.100
-255.122	-12.042	-0.263	-0.171
-254.107	-200.000	-0.085	0.451
-253.092	-44.636	0.226	0.112
-252.078	-200.000	-0.083	-0.442
-251.063	-139.751	0.470	0.050
-250.049	-22.811	-0.080	-0.048
-249.034	-41.468	-0.259	-0.132
-248.019	573.105	0.131	0.318
-247.005	609.020	-0.032	0.078
-245.990	482.967	-0.108	-0.245
-244.976	-84.793	0.156	-0.049
-243.961	-151.801	-0.223	-0.016
-242.946	-200.000	-0.041	-0.185
-241.932	-186.548	-0.113	0.002
-240.917	-163.279	0.034	-0.002
-239.903	42.723	0.173	0.156
-238.888	12.277	0.308	-0.236
-237.873	-200.000	0.152	-0.708
-236.859	-200.000	-0.009	-0.288
-235.844	366.642	-0.094	-0.188
-234.830	800.000	0.051	0.159
-233.815	-200.000	0.083	0.434
-232.800	77.821	0.235	0.248
-231.786	-128.214	-0.230	0.033
-230.771	-200.000	-0.025	-0.142
-229.757	800.000	-0.051	-0.184
-228.742	358.002	-0.077	-0.152
-227.727	131.354	0.102	0.130
-226.713	77.817	0.102	-0.108
-225.698	-91.329	0.188	0.053
-224.684	159.471	0.187	0.258
-223.669	-200.000	-0.009	-0.064
-222.655	43.027	-0.079	0.072
-221.640	800.000	0.018	-0.055
-220.625	461.010	-0.139	0.306
-219.611	-75.848	0.305	0.107
-218.596	0.258	-0.227	-0.161
-217.582	464.361	-0.138	-0.305
-216.567	-113.125	-0.154	0.030
-215.552	154.637	0.080	0.109
-214.538	-200.000	-0.003	0.194
-213.523	117.073	0.030	0.036
-212.509	181.256	0.156	0.228
-211.494	-200.000	-0.029	-0.292
-210.479	268.079	-0.103	-0.179
-209.465	-40.018	-0.248	0.128
-208.450	234.748	0.104	0.170
-207.436	12.032	0.204	0.156
-206.421	-200.000	0.013	-0.380
-205.406	-154.793	0.125	-0.008
-204.392	233.973	0.134	0.219
-203.377	800.000	0.042	-0.143
-202.363	-79.936	0.427	0.142
-201.348	-94.238	0.349	0.095
-200.333	144.495	-0.078	-0.103
-199.319	-57.170	0.173	-0.075
-198.304	77.407	-0.054	-0.057
-197.290	-200.000	0.007	-0.262
-196.275	-200.000	0.003	-0.016
-195.260	112.596	0.097	-0.116
-194.246	107.297	-0.210	0.247
-193.231	-118.596	0.166	-0.029
-192.217	-1.360	0.207	0.145
-191.202	-82.224	0.134	-0.043
-190.187	310.425	-0.187	0.347
-189.173	-200.000	0.076	0.338
-188.158	-140.042	-0.513	-0.054
-187.144	-90.363	-0.194	-0.056
-186.129	-4.068	0.279	-0.191
-185.114	106.573	0.316	-0.371
-184.100	-21.958	0.184	0.111
-183.085	-53.826	0.259	0.117
-182.071	72.202	-0.061	-0.063
-181.056	-148.146	0.158	-0.013
-180.042	-200.000	-0.028	-0.385
-179.027	-2.385	0.249	-0.173
-178.012	-181.111	0.099	0.002
-176.998	-200.000	-0.013	-0.165
-175.983	337.365	0.091	-0.176
-174.969	190.508	0.195	-0.289
-173.954	-200.000	-0.029	0.200
-172.939	-129.720	0.301	0.041
-171.925	800.000	-0.050	0.188
-170.910	193.169	0.110	0.164
-169.896	-137.796	-0.055	-0.006
-168.881	-200.000	-0.015	-0.169
-167.866	800.000	-0.032	0.091
-166.852	-107.198	0.140	-0.030
-165.837	-67.383	0.142	0.055
-164.823	82.928	0.102	0.109
-163.808	-104.960	0.227	0.052
-162.793	54.861	-0.264	0.252
-161.779	-51.976	0.224	0.103
-160.764	347.133	0.125	-0.244
-159.750	19.996	0.121	-0.096
-158.735	294.850	-0.095	0.171
-157.720	-65.174	-0.215	0.086
-156.706	-200.000	0.058	-0.345
-155.691	-120.824	0.411	0.069
-154.677	657.968	-0.030	-0.077
-153.662	-140.122	0.360	-0.037
-152.647	-57.552	-0.275	0.119
-151.633	-200.000	-0.041	0.390
-150.618	-200.000	0.007	-0.052
-149.604	800.000	-0.141	-0.412
-148.589	800.000	0.023	-0.091
-147.574	-56.635	-0.200	0.088
-146.560	-200.000	-0.055	0.480
-145.545	-22.089	-0.288	0.173
-144.531	1.158	0.192	0.136
-143.516	-68.191	-0.166	0.064
-142.502	-200.000	0.023	-0.099
-141.487	477.315	-0.175	0.391
-140.472	-155.588	-0.316	-0.020
-139.458	-25.137	-0.267	0.156
-138.443	145.347	-0.129	-0.171
-137.429	173.171	-0.035	-0.050
-136.414	-66.378	0.270	0.106
-135.399	-192.553	0.288	-0.003
-134.385	-51.294	-0.242	-0.112
-133.370	-179.505	0.358	0.008
-132.356	-182.354	0.192	0.004
-131.341	494.259	-0.106	0.240
-130.326	359.472	-0.181	0.358
-129.312	-75.352	0.025	0.009
-128.297	-200.000	0.029	0.285
-127.283	-85.142	0.168	-0.052
-126.268	-86.030	-0.187	0.057
-125.253	51.292	-0.231	0.217
-124.239	115.545	0.088	0.106
-123.224	-8.887	0.166	0.110
-122.210	-200.000	-0.002	0.283
-121.195	-34.689	-0.139	0.075
-120.180	-32.243	-0.317	-0.175
-119.166	-200.000	0.003	0.034
-118.151	33.735	0.186	-0.159
-117.137	83.784	-0.094	0.101
-116.122	-79.921	-0.160	0.053
-115.107	800.000	-0.051	0.153
-114.093	-200.000	-0.008	-0.119
-113.078	-200.000	-0.018	-0.234
-112.064	12.641	-0.244	0.186
-111.049	-149.255	-0.392	0.031
-110.034	-99.716	-0.088	-0.022
-109.020	81.197	0.288	0.307
-108.005	13.479	0.271	0.207
-106.991	-200.000	0.056	-0.404
-105.976	-200.000	-0.029	0.129
-104.962	-200.000	0.016	-0.184
-103.947	81.449	0.012	-0.013
-102.932	-200.000	0.069	-0.407
-101.918	624.208	-0.080	0.198
-100.903	-200.000	0.054	0.333
-99.889	734.341	0.035	0.092
-98.874	800.000	-0.113	-0.434
-97.859	-72.422	0.177	-0.065
-96.845	-46.563	0.034	0.017
-95.830	-101.736	0.228	0.054
-94.816	-86.262	0.266	-0.081
-93.801	511.107	-0.033	-0.075
-92.786	96.595	-0.029	-0.033
-91.772	-68.691	-0.277	-0.106
-90.757	-200.000	0.119	0.545
-89.743	-21.931	0.279	-0.167
-88.728	-200.000	-0.017	-0.123
-87.713	-14.836	-0.030	0.019
-86.699	715.180	0.052	-0.135
-85.684	800.000	-0.121	0.350
-84.670	-112.281	0.150	-0.030
-83.655	-105.719	0.288	0.064
-82.640	-67.381	0.245	-0.095
-81.626	-110.386	-0.214	-0.044
-80.611	-99.289	-0.182	0.045
-79.597	-113.310	0.082	0.016
-78.582	208.411	-0.130	0.200
-77.567	165.149	0.142	0.198
-76.553	235.359	0.146	-0.237
-75.538	-200.000	-0.030	0.205
-74.524	800.000	0.073	-0.233
-73.509	-113.657	0.134	-0.026
-72.494	-68.255	-0.182	-0.070
-71.480	-15.550	0.200	-0.126
-70.465	-42.784	0.131	-0.065
-69.451	-200.000	0.022	-0.199
-68.436	-70.185	-0.212	-0.079
-67.422	-21.847	0.257	0.154
-66.407	-159.065	0.165	-0.009
-65.392	60.090	0.200	0.195
-64.378	11.852	-0.112	0.085
-63.363	102.544	0.196	-0.226
-62.349	32.897	-0.163	-0.139
-61.334	106.027	-0.830	-0.969
-60.319	-135.811	0.368	-0.043
-59.305	574.911	-0.435	-1.045
-58.290	352.856	0.616	1.204
-57.276	485.794	0.523	1.173
-56.261	-200.000	95.195	569.747
-55.246	644.742	1378.526	3465.206
-54.232	197.798	2551.668	3839.767
-53.217	119.484	2144.331	2615.067
-52.203	44.546	1607.815	1455.267
-51.188	36.410	1345.610	1168.911
-50.173	33.212	1303.219	1113.253
-49.159	55.058	1349.223	1283.703
-48.144	57.344	1366.531	1313.786
-47.130	36.523	1325.901	1152.281
-46.115	33.072	1308.577	1116.825
-45.100	32.910	1303.645	1111.617
-44.086	32.768	1301.511	1108.921
-43.071	32.764	1299.176	1106.864
-42.057	32.669	1297.423	1104.771
-41.042	32.852	1295.248	1103.946
-40.027	32.792	1293.902	1102.401
-39.013	32.830	1291.870	1100.851
-37.998	32.866	1289.981	1099.408
-36.984	32.939	1288.652	1098.652
-35.969	32.852	1286.867	1096.586
-34.954	32.976	1284.831	1095.524
-33.940	32.983	1283.455	1094.348
-32.925	33.040	1282.145	1093.519
-31.911	33.045	1280.629	1092.209
-30.896	33.056	1279.046	1090.884
-29.881	33.034	1277.783	1089.636
-28.867	33.111	1276.381	1088.837
-27.852	33.106	1274.991	1087.583
-26.838	33.068	1273.671	1086.191
-25.823	33.011	1272.587	1084.897
-24.809	33.045	1270.932	1083.638
-23.794	33.059	1269.254	1082.244
-22.779	33.066	1268.380	1081.496
-21.765	33.023	1267.240	1080.238
-20.750	33.061	1265.857	1079.231
-19.736	32.949	1265.130	1077.927
-18.721	32.904	1263.604	1076.333
-17.706	32.887	1262.503	1075.253
-16.692	32.852	1261.544	1074.196
-15.677	32.949	1260.311	1073.655
-14.663	32.885	1258.767	1071.931
-13.648	32.863	1258.014	1071.122
-12.633	32.910	1257.097	1070.566
-11.619	32.819	1256.309	1069.338
-10.604	32.702	1255.842	1068.233
-9.590	32.786	1254.796	1067.777
-8.575	32.847	1253.101	1066.639
-7.560	32.916	1252.743	1066.682
-6.546	32.882	1252.019	1065.832
-5.531	32.773	1251.319	1064.579
-4.517	32.868	1250.676	1064.522
-3.502	32.962	1249.185	1063.741
-2.487	32.776	1248.721	1062.256
-1.473	32.891	1244.332	1059.128
-0.458	31.420	1229.262	1038.097
0.556	27.039	1212.209	999.799
1.571	23.345	1216.948	983.163
2.586	22.323	1231.817	989.343
3.600	21.755	1220.803	977.241
4.615	16.496	1149.623	892.495
5.629	8.586	1075.426	795.614
6.644	5.002	1055.797	763.497
7.659	4.743	1053.515	760.516
8.673	4.644	1052.383	759.145
9.688	4.752	1051.377	758.882
10.702	4.949	1049.019	758.072
11.717	9.356	1055.528	784.235
12.731	16.751	1065.569	827.901
13.746	19.431	1068.337	843.091
14.761	18.521	1066.848	837.404
15.775	17.557	1064.782	831.002
16.790	16.440	1062.878	824.000
17.804	15.670	1061.049	818.762
18.819	15.359	1060.054	816.408
19.834	15.084	1059.142	814.297
20.848	14.938	1058.129	812.736
21.863	14.729	1057.385	811.078
22.877	14.526	1056.697	809.495
23.892	14.584	1055.856	809.057
24.907	14.584	1055.240	808.513
25.921	14.581	1053.829	807.347
26.936	14.623	1052.736	806.641
27.950	14.536	1052.143	805.696
28.965	14.828	1049.849	805.276
29.980	14.847	1048.125	803.973
30.994	14.823	1047.200	803.077
32.009	14.820	1046.608	802.537
33.023	14.971	1045.289	802.180
34.038	14.874	1044.272	800.861
35.053	14.760	1043.596	799.729
36.067	14.552	1042.893	798.124
37.082	14.743	1041.968	798.257
38.096	14.756	1041.135	797.613
39.111	14.872	1040.312	797.462
40.126	14.806	1038.873	795.978
41.140	14.464	1038.254	793.804
42.155	14.390	1036.837	792.299
43.169	14.405	1035.694	791.424
44.184	14.458	1034.782	790.912
45.199	14.476	1033.497	789.945
46.213	14.615	1032.578	789.829
47.228	14.676	1031.453	789.186
48.242	14.698	1030.311	788.345
49.257	14.617	1029.842	787.536
50.271	14.741	1029.123	787.501
51.286	14.756	1027.994	786.639
52.301	14.761	1026.866	785.728
53.315	14.661	1025.602	784.221
54.330	14.617	1024.942	783.442
55.344	14.618	1023.768	782.481
56.359	14.664	1023.151	782.152
57.374	14.485	1022.098	780.442
58.388	14.468	1021.413	779.772
59.403	14.414	1020.745	778.938
60.417	14.482	1019.619	778.330
61.432	14.396	1019.340	777.647
62.447	14.245	1018.644	776.344
63.461	14.343	1017.424	775.801
64.476	14.368	1016.775	775.352
65.490	14.238	1015.976	774.072
66.505	14.374	1015.354	774.162
67.520	14.436	1014.573	773.787
68.534	14.483	1013.908	773.427
69.549	14.379	1013.222	772.354
70.563	14.459	1012.350	771.993
71.578	14.353	1011.077	770.462
72.593	14.241	1010.649	769.548
73.607	14.292	1010.079	769.283
74.622	14.262	1009.614	768.721
75.636	14.254	1009.008	768.156
76.651	14.243	1008.118	767.359
77.666	14.302	1007.326	766.959
78.680	14.399	1006.796	766.933
79.695	14.399	1005.919	766.198
80.709	14.494	1005.330	766.118
81.724	14.430	1004.871	765.406
82.739	14.722	1004.015	766.029
83.753	14.644	1003.396	765.132
84.768	14.816	1002.363	765.060
85.782	14.918	1001.739	764.983
86.797	14.805	1000.697	763.607
87.812	14.689	999.920	762.413
88.826	14.593	999.075	761.266
89.841	14.784	997.973	761.228
90.855	14.853	997.163	760.857
91.870	14.876	996.540	760.418
92.884	14.905	995.554	759.730
93.899	14.879	994.818	758.984
94.914	15.072	993.745	758.972
95.928	14.895	992.733	757.331
96.943	14.876	991.800	756.468
97.957	14.825	991.408	755.872
98.972	14.812	990.839	755.312
99.987	14.986	989.065	754.676
101.001	14.732	988.835	753.288
102.016	14.738	988.090	752.680
103.030	14.805	987.237	752.269
104.045	14.833	986.589	751.832
105.060	14.667	985.542	750.221
106.074	14.542	984.528	748.821
107.089	14.581	983.176	747.904
108.103	14.466	982.669	746.936
109.118	14.428	981.821	746.056
110.133	14.546	980.651	745.628
111.147	14.331	980.311	744.342
112.162	14.578	979.404	744.691
113.176	14.640	978.782	744.427
114.191	14.551	978.186	743.512
115.206	14.513	977.533	742.782
116.220	14.442	976.617	741.706
117.235	14.591	975.370	741.354
118.249	14.431	974.418	739.855
119.264	14.449	974.268	739.754
120.279	14.500	973.110	739.034
121.293	14.472	971.941	737.960
122.308	14.416	971.301	737.159
123.322	14.470	970.407	736.656
124.337	14.420	969.493	735.673
125.352	14.434	968.742	735.101
126.366	14.471	967.682	734.394
127.381	14.475	966.574	733.506
128.395	14.453	965.683	732.671
129.410	14.545	964.454	732.075
130.424	14.743	963.385	732.066
131.439	14.617	963.262	731.357
132.454	14.620	962.630	730.825
133.468	14.606	961.946	730.179
134.483	14.681	961.186	729.867
135.497	14.699	960.326	729.229
136.512	14.690	959.261	728.317
137.527	14.727	958.538	727.865
138.541	14.662	957.701	726.882
139.556	14.668	956.833	726.182
140.570	14.906	956.118	726.612
141.585	14.934	955.474	726.180
142.600	14.870	954.529	725.118
143.614	14.963	953.686	724.817
144.629	15.047	952.866	724.494
145.643	14.925	952.382	723.533
146.658	14.811	951.059	721.972
147.673	14.825	950.342	721.423
148.687	14.720	949.136	719.992
149.702	14.620	948.458	718.985
150.716	14.572	947.804	718.218
151.731	14.761	946.829	718.228
152.746	14.777	946.292	717.823
153.760	14.734	945.915	717.291
154.775	14.833	945.200	717.112
155.789	14.914	944.618	716.953
156.804	14.810	943.789	715.814
157.819	15.015	942.949	715.991
158.833	15.108	942.246	715.792
159.848	15.170	941.867	715.707
160.862	14.974	940.834	714.022
161.877	14.860	939.682	712.598
162.892	14.655	939.264	711.343
163.906	14.673	937.977	710.382
164.921	14.864	937.008	710.399
165.935	14.817	936.365	709.650
166.950	14.756	935.470	708.649
167.964	14.942	934.529	708.660
168.979	14.884	933.277	707.405
169.994	14.898	932.397	706.734
171.008	14.855	932.037	706.218
172.023	15.153	931.086	706.691
173.037	15.026	930.696	705.797
174.052	14.961	929.999	704.933
175.067	14.959	929.070	704.157
176.081	14.862	928.654	703.373
177.096	14.805	928.237	702.754
178.110	14.879	927.795	702.668
179.125	14.971	926.674	702.141
180.140	15.009	926.445	702.068
181.154	15.000	926.057	701.672
182.169	15.072	925.409	701.422
183.183	15.041	925.068	700.971
184.198	15.272	923.646	700.796
185.213	15.064	923.302	699.603
186.227	15.262	922.671	699.893
187.242	15.156	922.391	699.174
188.256	15.199	921.631	698.715
189.271	15.187	920.878	698.033
190.286	14.956	920.258	696.538
191.300	14.830	919.227	695.175
192.315	14.808	918.978	694.833
193.329	14.727	918.360	693.966
194.344	15.024	917.434	694.438
195.359	15.228	916.604	694.593
196.373	15.081	916.278	693.676
197.388	15.221	915.800	693.831
198.402	15.309	915.642	694.015
199.417	15.286	914.983	693.359
200.432	15.429	914.423	693.464
201.446	15.500	913.942	693.334
202.461	15.395	913.912	692.814
203.475	15.485	912.938	692.385
204.490	15.418	911.483	690.946
205.504	15.291	910.824	689.861
206.519	15.417	910.098	689.770
207.534	15.261	909.394	688.534
208.548	15.390	909.279	688.914
209.563	15.429	907.764	687.868
210.577	15.503	907.369	687.810
211.592	15.454	907.032	687.294
212.607	15.657	905.936	687.233
213.621	15.473	905.289	685.928
214.636	15.669	904.319	685.931
215.650	15.595	903.957	685.294
216.665	15.626	903.098	684.709
217.680	15.620	902.671	684.302
218.694	15.641	902.274	684.024
219.709	15.600	901.515	683.221
220.723	15.609	900.940	682.765
221.738	15.574	900.103	681.926
222.753	15.616	899.505	681.581
223.767	15.685	898.866	681.317
224.782	15.802	898.533	681.479
225.796	15.891	897.731	681.171
226.811	15.720	897.471	680.220
227.826	15.662	896.454	679.158
228.840	15.692	895.493	678.490
229.855	15.717	894.819	678.019
230.869	15.663	894.208	677.279
231.884	15.657	893.444	676.617
232.899	15.638	893.094	676.214
233.913	15.635	892.081	675.376
234.928	15.598	891.668	674.857
235.942	15.476	891.200	673.951
236.957	15.555	890.371	673.580
237.972	15.592	889.675	673.144
238.986	15.624	889.209	672.858
240.001	15.746	888.147	672.485
241.015	15.797	887.930	672.465
242.030	15.821	887.145	671.908
243.045	15.727	886.734	671.160
244.059	15.706	886.311	670.699
245.074	15.742	885.783	670.381
246.088	15.877	884.985	670.256
247.103	15.906	884.619	670.035
248.117	16.094	883.765	670.076
249.132	16.239	883.764	670.593
250.147	16.195	882.746	669.587
251.161	16.153	882.646	669.285
252.176	16.262	881.238	668.588
253.190	16.292	880.456	668.054
254.205	16.466	879.913	668.271
255.220	16.389	879.641	667.703
256.234	16.340	879.093	667.032
257.249	16.360	878.125	666.319
258.263	16.490	877.615	666.386
259.278	16.436	876.994	665.641
260.293	16.304	876.636	664.794
261.307	16.450	875.957	664.794
262.322	16.475	875.277	664.317
263.336	16.551	874.542	663.996
264.351	16.365	873.951	662.762
265.366	16.449	873.325	662.555
266.380	16.516	872.975	662.494
267.395	16.435	872.142	661.486
268.409	16.416	871.496	660.863
269.424	16.402	870.447	659.955
270.439	16.533	869.793	659.914
271.453	16.493	869.086	659.161
272.468	16.516	868.227	658.540
273.482	16.541	867.692	658.177
274.497	16.384	867.595	657.432
275.512	16.432	867.389	657.404
276.526	16.504	866.438	656.906
277.541	16.628	865.915	656.933
278.555	16.536	865.550	656.238
279.570	16.740	864.888	656.469
280.585	16.670	864.082	655.531
281.599	16.708	863.383	655.089
282.614	16.545	862.918	654.046
283.628	16.554	862.374	653.611
284.643	16.571	861.824	653.204
285.657	16.686	860.710	652.745
286.672	16.589	860.390	652.071
287.687	16.722	859.499	651.848
288.701	16.780	859.097	651.709
289.716	16.845	858.412	651.382
290.730	16.753	857.864	650.556
291.745	16.782	857.499	650.332
292.760	16.720	857.165	649.784
293.774	16.976	856.421	650.143
294.789	16.767	855.631	648.684
295.803	16.867	854.679	648.290
296.818	16.861	854.155	647.811
297.833	16.735	853.476	646.758
298.847	16.793	853.047	646.598
299.862	16.932	852.374	646.562
300.876	17.020	851.653	646.291
301.891	16.932	851.807	646.015
302.906	16.922	851.190	645.452
303.920	16.987	850.799	645.344
304.935	17.092	850.132	645.182
305.949	17.150	849.761	645.063
306.964	17.045	848.619	643.742
307.979	17.055	848.587	643.697
308.993	17.148	847.750	643.357
310.008	17.250	846.978	643.103
311.022	16.878	846.647	641.386
312.037	16.941	845.978	641.061
313.052	17.012	845.132	640.633
314.066	16.856	844.784	639.723
315.081	16.916	844.267	639.500
316.095	17.115	843.350	639.498
317.110	16.928	842.902	638.399
318.125	17.014	842.720	638.529
319.139	17.018	842.159	638.062
320.154	16.912	841.580	637.166
321.168	16.995	841.218	637.149
322.183	17.259	840.425	637.483
323.197	17.047	840.127	636.407
324.212	17.117	839.377	636.041
325.227	17.179	839.119	636.023
326.241	17.016	838.585	634.953
327.256	17.014	837.650	634.180
328.270	17.039	837.416	634.039
329.285	16.939	836.808	633.151
330.300	17.203	835.575	633.146
331.314	17.130	835.276	632.593
332.329	17.127	835.459	632.664
333.343	17.221	834.634	632.332
334.358	17.229	834.471	632.182
335.373	17.136	834.187	631.563
336.387	17.240	833.787	631.595
337.402	17.312	833.608	631.670
338.416	17.477	833.286	631.981
339.431	17.626	832.765	632.083
340.446	17.526	832.224	631.248
341.460	17.644	831.782	631.290
342.475	17.596	831.450	630.807
343.489	17.680	831.156	630.840
344.504	17.820	830.637	630.906
345.519	17.640	830.558	630.124
346.533	17.649	829.807	629.534
347.548	17.711	828.815	628.954
348.562	17.500	828.519	627.895
349.577	17.397	827.971	627.043
350.592	17.486	827.074	626.638
351.606	17.538	826.403	626.267
352.621	17.547	825.580	625.617
353.635	17.551	825.278	625.351
354.650	17.539	824.666	624.787
355.665	17.589	824.416	624.724
356.679	17.478	823.802	623.796
357.694	17.638	822.929	623.667
358.708	17.514	822.616	622.920
359.723	17.515	821.822	622.269
360.738	17.616	820.975	621.940
361.752	17.797	820.415	622.120
362.767	17.861	820.048	622.023
363.781	17.897	819.482	621.667
364.796	17.959	818.965	621.445
365.810	17.971	819.121	621.552
366.825	18.035	818.919	621.579
367.840	18.140	817.829	621.076
368.854	17.972	817.522	620.181
369.869	17.986	817.036	619.807
370.883	17.966	816.555	619.313
371.898	17.977	816.505	619.259
372.913	17.945	816.021	618.723
373.927	18.008	815.451	618.466
374.942	18.116	814.841	618.337
375.956	18.150	814.312	618.005
376.971	18.214	813.969	617.921
377.986	18.129	813.845	617.465
379.000	18.198	813.179	617.154
380.015	18.214	812.366	616.541
381.029	18.160	812.228	616.187
382.044	18.278	811.470	615.981
383.059	18.266	810.858	615.419
384.073	18.212	810.342	614.777
385.088	18.103	809.892	613.991
386.102	18.092	809.211	613.382
387.117	18.209	808.498	613.207
388.132	18.026	808.202	612.273
389.146	18.230	807.554	612.457
390.161	18.126	807.331	611.862
391.175	18.281	806.590	611.799
392.190	18.198	806.150	611.114
393.205	18.189	805.347	610.421
394.219	18.058	805.289	609.855
395.234	18.265	804.835	610.196
396.248	18.077	804.465	609.190
397.263	18.172	803.933	609.074
398.278	18.131	803.358	608.437
399.292	18.278	803.099	608.710
400.307	18.060	802.834	607.678
401.321	18.159	802.249	607.534
402.336	18.092	801.570	606.729
403.350	18.098	801.259	606.463
404.365	18.312	800.902	606.897
405.380	18.409	800.497	606.881
406.394	18.353	799.900	606.176
407.409	18.576	799.574	606.665
408.423	18.549	799.270	606.282
409.438	18.596	798.989	606.182
410.453	18.619	798.614	605.925
411.467	18.615	798.172	605.523
412.482	18.766	797.538	605.521
413.496	18.739	797.236	605.144
414.511	18.674	796.963	604.653
415.526	18.686	796.345	604.171
416.540	18.715	795.848	603.845
417.555	18.779	795.325	603.619
418.569	18.675	794.939	602.909
419.584	18.646	794.938	602.751
420.599	18.774	794.218	602.603
421.613	156.300	1371.224	1792.944
422.628	135.312	1455.302	1793.033
