DTS Sentinel unit serial number:	SN413079Multiplexer serial number:	ORYXHardware model number:	OX4-SRSoftware version number:	ORYX F/W v4.00 Oryx Data Collector v3.7.2.0data status	okinstallation	princeton_trtdifferential loss correction	single-endedforward channel	channel 1reverse channel	N/Adate	2019/09/16time	18:30:35forward acquisition time	60.00reverse acquisition time	0.00gamma	496.2192k internal	0.2306k external	0.2306temperature offset calibration	1.0007default loss term (dB/km)	0.3790temperature slope calibration	1.0000multiplexer offset coefficient	1.0000multiplexer slope coefficient	1.0000fibre end	0.00T internal ref (°C)	36.62T ext. ref 1 (°C)	18.77T ext. ref 2 (°C)	30.73length (m)	temperature (°C)	Stokes	anti-Stokes-747.200	499.150	0.049	0.114
-746.185	142.170	-0.274	0.370
-745.171	204.099	0.112	-0.176
-744.156	800.000	0.078	0.326
-743.142	35.225	0.180	-0.160
-742.127	-200.000	0.063	0.293
-741.112	800.000	0.060	0.218
-740.098	107.283	-0.135	0.163
-739.083	84.789	0.143	0.159
-738.069	56.225	-0.038	0.038
-737.054	-68.815	0.236	0.093
-736.039	-200.000	0.008	0.122
-735.025	49.113	0.223	0.213
-734.010	-123.562	-0.272	-0.044
-732.996	313.021	-0.156	0.298
-731.981	-63.900	0.151	0.063
-730.966	800.000	-0.085	0.348
-729.952	800.000	-0.087	-0.259
-728.937	24.488	0.039	-0.033
-727.923	360.050	-0.213	-0.434
-726.908	58.431	-0.118	-0.118
-725.894	-17.245	-0.276	0.177
-724.879	773.584	-0.079	-0.219
-723.864	-200.000	-0.024	-0.508
-722.850	-154.147	0.644	-0.044
-721.835	230.831	-0.064	0.106
-720.821	-200.000	0.038	0.198
-719.806	36.284	0.081	0.072
-718.791	-94.429	0.377	-0.104
-717.777	763.495	0.045	-0.123
-716.762	800.000	-0.037	-0.131
-715.748	800.000	-0.026	-0.107
-714.733	-122.384	0.297	0.049
-713.718	-22.236	-0.074	-0.046
-712.704	372.348	0.088	-0.181
-711.689	-12.599	-0.041	0.027
-710.675	-130.806	0.438	0.060
-709.660	-200.000	-0.007	0.164
-708.645	800.000	0.071	-0.242
-707.631	-200.000	0.037	-0.419
-706.616	-27.631	-0.205	-0.121
-705.602	-200.000	0.005	0.174
-704.587	504.313	-0.157	0.370
-703.572	-120.399	-0.125	0.022
-702.558	800.000	0.029	0.110
-701.543	182.187	-0.072	0.108
-700.529	157.642	-0.093	0.131
-699.514	-200.000	-0.063	-0.514
-698.499	372.545	0.039	-0.081
-697.485	62.305	0.045	-0.046
-696.470	461.988	-0.063	-0.142
-695.456	-136.749	-0.134	0.016
-694.441	48.960	0.222	0.211
-693.426	-1.448	-0.136	0.098
-692.412	-200.000	0.017	0.186
-691.397	800.000	-0.047	-0.160
-690.383	-74.928	-0.197	-0.072
-689.368	-21.532	0.137	0.085
-688.354	-200.000	0.002	0.204
-687.339	6.944	0.139	0.105
-686.324	-170.848	-0.256	0.009
-685.310	800.000	-0.084	0.277
-684.295	-34.359	-0.167	-0.093
-683.281	-45.747	-0.125	-0.063
-682.266	-131.635	-0.256	0.034
-681.251	-39.521	-0.129	0.069
-680.237	-200.000	0.019	-0.104
-679.222	-31.060	0.163	-0.093
-678.208	-37.857	0.114	-0.061
-677.193	-200.000	-0.016	-0.144
-676.178	-84.314	-0.318	-0.102
-675.164	-171.034	0.228	-0.008
-674.149	273.890	0.138	0.247
-673.135	207.367	-0.145	-0.229
-672.120	-11.660	-0.091	0.061
-671.105	-53.911	-0.173	0.080
-670.091	-200.000	0.009	0.218
-669.076	582.203	-0.104	0.258
-668.062	-79.800	0.255	0.087
-667.047	-11.543	0.197	0.131
-666.032	-12.472	0.185	-0.123
-665.018	483.627	0.040	0.092
-664.003	339.760	0.152	-0.302
-662.989	800.000	0.038	0.147
-661.974	-200.000	0.037	0.243
-660.959	15.552	-0.196	-0.156
-659.945	-24.249	-0.255	0.154
-658.930	82.162	-0.234	-0.258
-657.916	-115.783	0.268	-0.051
-656.901	-14.811	-0.212	0.138
-655.886	-200.000	-0.353	-0.001
-654.872	800.000	-0.085	0.280
-653.857	-200.000	0.008	-0.234
-652.843	-183.182	0.224	-0.004
-651.828	800.000	0.086	-0.333
-650.814	-166.779	-0.490	0.020
-649.799	58.548	0.120	-0.120
-648.784	-15.137	0.236	0.153
-647.770	800.000	-0.020	0.088
-646.755	445.235	-0.049	0.109
-645.741	-197.452	-0.238	0.002
-644.726	800.000	0.052	0.175
-643.711	580.513	-0.097	0.240
-642.697	-200.000	-0.002	-0.101
-641.682	-70.913	-0.083	0.032
-640.668	-52.384	0.375	-0.176
-639.653	230.601	-0.206	0.342
-638.638	266.699	0.155	0.274
-637.624	-104.509	-0.174	-0.041
-636.609	272.235	-0.230	0.411
-635.595	-137.725	-0.189	0.022
-634.580	-36.169	-0.093	-0.051
-633.565	-200.000	0.008	-0.231
-632.551	112.137	-0.224	-0.274
-631.536	-200.000	-0.015	0.147
-630.522	429.020	0.054	-0.119
-629.507	-150.373	-0.125	-0.010
-628.492	187.092	0.182	0.275
-627.478	129.291	0.334	-0.432
-626.463	-96.528	0.350	-0.094
-625.449	-112.759	0.223	-0.045
-624.434	-200.000	0.003	-0.133
-623.419	800.000	-0.031	0.116
-622.405	800.000	0.105	0.381
-621.390	800.000	0.131	0.478
-620.376	15.496	-0.160	-0.127
-619.361	254.425	0.131	-0.227
-618.346	800.000	0.146	-0.416
-617.332	156.580	0.034	0.047
-616.317	800.000	0.081	-0.251
-615.303	-63.948	0.135	0.056
-614.288	-200.000	0.008	-0.230
-613.273	-184.945	-0.370	-0.006
-612.259	-35.578	-0.283	-0.155
-611.244	250.411	-0.060	-0.102
-610.230	96.478	0.147	0.170
-609.215	-200.000	0.037	0.230
-608.201	320.577	0.041	-0.079
-607.186	165.029	-0.095	-0.135
-606.171	263.704	-0.160	-0.281
-605.157	-74.417	-0.228	0.083
-604.142	41.323	0.207	0.190
-603.128	50.549	0.173	-0.166
-602.113	-180.832	0.253	0.005
-601.098	446.204	-0.066	0.148
-600.084	-200.000	0.003	0.264
-599.069	-16.802	0.087	0.056
-598.055	-150.490	0.300	0.023
-597.040	-39.079	-0.041	-0.022
-596.025	-188.656	-0.320	-0.004
-595.011	800.000	0.038	-0.119
-593.996	521.120	0.023	0.055
-592.982	-200.000	-0.047	-0.268
-591.967	177.784	0.143	-0.211
-590.952	20.147	0.186	-0.151
-589.938	-51.984	-0.196	-0.092
-588.923	-200.000	0.029	-0.169
-587.909	-200.000	-0.032	-0.411
-586.894	-200.000	0.019	0.249
-585.879	-54.714	0.037	0.017
-584.865	525.419	0.058	-0.138
-583.850	-91.387	-0.183	-0.053
-582.836	-200.000	0.038	-0.211
-581.821	-6.908	-0.224	-0.154
-580.806	-59.859	0.344	0.149
-579.792	-60.410	0.406	0.174
-578.777	-188.040	-0.070	0.001
-577.763	-200.000	0.005	0.190
-576.748	-75.420	0.323	-0.116
-575.733	88.458	-0.176	0.198
-574.719	-33.893	-0.283	0.157
-573.704	68.269	-0.257	0.266
-572.690	-121.379	-0.363	0.061
-571.675	368.928	-0.147	0.300
-570.661	-193.521	-0.207	0.002
-569.646	-110.765	-0.280	-0.058
-568.631	226.891	0.078	-0.128
-567.617	35.703	-0.226	-0.201
-566.602	-114.616	-0.107	0.021
-565.588	-200.000	0.036	0.485
-564.573	-52.358	0.254	0.119
-563.558	108.417	0.204	-0.246
-562.544	-89.876	-0.152	-0.045
-561.529	-64.547	-0.257	-0.105
-560.515	-149.868	-0.443	-0.035
-559.500	-121.509	0.208	0.035
-558.485	-93.841	-0.175	-0.049
-557.471	-102.793	-0.339	0.081
-556.456	-76.483	-0.194	0.069
-555.442	676.276	-0.105	0.274
-554.427	-200.000	-0.013	-0.094
-553.412	-67.300	-0.141	-0.056
-552.398	-88.441	0.279	-0.084
-551.383	63.408	-0.126	-0.127
-550.369	-103.907	0.308	-0.073
-549.354	-166.044	-0.028	0.001
-548.339	-84.785	-0.437	0.139
-547.325	-200.000	-0.042	-0.266
-546.310	16.520	0.069	-0.055
-545.296	192.921	0.178	-0.272
-544.281	469.888	0.118	-0.267
-543.266	123.791	-0.190	-0.241
-542.252	5.734	-0.174	-0.130
-541.237	-46.835	0.241	0.119
-540.223	-51.913	0.182	-0.086
-539.208	-21.202	0.116	-0.072
-538.193	-81.345	0.123	0.041
-537.179	-47.884	-0.233	0.114
-536.164	-117.687	-0.159	0.029
-535.150	8.446	-0.154	-0.117
-534.135	-117.727	0.297	-0.054
-533.121	800.000	0.028	0.095
-532.106	163.083	-0.198	-0.281
-531.091	-73.476	-0.171	-0.063
-530.077	14.265	-0.151	-0.119
-529.062	111.873	0.087	0.106
-528.048	504.469	-0.081	0.189
-527.033	-68.468	0.196	0.077
-526.018	-30.535	-0.134	-0.077
-525.004	243.693	-0.135	0.229
-523.989	-42.845	0.181	0.093
-522.975	-63.156	-0.239	0.100
-521.960	-108.536	0.355	0.077
-520.945	-42.373	0.061	-0.032
-519.931	-75.665	0.094	0.034
-518.916	-31.283	-0.279	-0.159
-517.902	-1.675	0.106	0.075
-516.887	-95.790	-0.069	0.019
-515.872	202.696	0.095	0.148
-514.858	-31.050	-0.345	0.197
-513.843	-6.014	0.104	-0.071
-512.829	-109.969	0.227	-0.048
-511.814	416.465	-0.022	0.047
-510.799	-32.805	0.325	-0.182
-509.785	-39.269	0.243	-0.128
-508.770	-200.000	0.057	-0.322
-507.756	-200.000	0.048	-0.256
-506.741	-200.000	0.080	-0.430
-505.726	457.808	-0.193	0.431
-504.712	142.636	-0.056	-0.075
-503.697	288.875	0.109	0.199
-502.683	-86.188	-0.076	0.024
-501.668	-7.494	-0.329	0.224
-500.653	-200.000	0.065	0.306
-499.639	800.000	0.034	-0.147
-498.624	-107.546	-0.200	-0.044
-497.610	-67.722	-0.138	-0.055
-496.595	16.033	-0.162	0.128
-495.581	104.319	-0.243	0.288
-494.566	-200.000	0.016	-0.185
-493.551	66.481	-0.210	-0.215
-492.537	152.876	-0.149	0.205
-491.522	113.749	0.089	-0.109
-490.508	456.977	0.094	-0.209
-489.493	-128.821	-0.349	-0.050
-488.478	-200.000	0.027	-0.207
-487.464	-200.000	0.024	0.135
-486.449	-84.177	0.131	-0.042
-485.435	-200.000	-0.041	-0.197
-484.420	-78.011	0.218	-0.075
-483.405	377.068	0.076	0.156
-482.391	800.000	0.022	0.096
-481.376	10.244	-0.239	0.183
-480.362	20.973	-0.090	0.073
-479.347	-119.701	0.194	-0.034
-478.332	4.376	-0.226	0.167
-477.318	777.533	0.189	0.519
-476.303	-146.629	0.280	0.024
-475.289	-145.626	0.393	-0.035
-474.274	-32.644	0.288	0.161
-473.259	-103.652	-0.134	-0.032
-472.245	59.888	0.141	0.141
-471.230	298.955	0.074	-0.136
-470.216	-183.069	0.283	0.005
-469.201	-92.397	0.070	0.020
-468.186	-173.802	0.124	0.004
-467.172	580.434	0.034	0.084
-466.157	-200.000	-0.028	0.202
-465.143	642.763	0.065	0.168
-464.128	-200.000	0.021	-0.204
-463.113	-200.000	0.042	0.219
-462.099	-105.211	0.069	0.016
-461.084	206.462	0.130	-0.204
-460.070	-126.526	0.098	0.015
-459.055	351.793	-0.179	-0.356
-458.040	330.686	0.178	-0.345
-457.026	800.000	0.071	-0.309
-456.011	36.261	0.042	-0.037
-454.997	-97.256	0.172	0.045
-453.982	-34.592	0.294	-0.162
-452.968	32.451	-0.048	-0.041
-451.953	-15.770	-0.134	-0.086
-450.938	800.000	-0.017	-0.051
-449.924	800.000	-0.030	0.088
-448.909	332.373	-0.127	0.246
-447.895	249.802	-0.102	-0.174
-446.880	-200.000	-0.008	0.086
-445.865	-124.321	-0.314	-0.049
-444.851	0.983	-0.194	-0.140
-443.836	-64.322	0.191	0.078
-442.822	667.386	0.033	-0.087
-441.807	-165.540	0.285	0.012
-440.792	-44.461	-0.056	0.028
-439.778	-12.341	-0.157	-0.103
-438.763	-200.000	-0.002	0.446
-437.749	362.924	-0.045	0.091
-436.734	-108.999	0.447	-0.096
-435.719	-138.699	-0.321	0.035
-434.705	5.000	-0.185	0.136
-433.690	-200.000	-0.020	-0.138
-432.676	-200.000	-0.011	-0.077
-431.661	385.768	-0.064	0.133
-430.646	-99.250	0.248	-0.063
-429.632	198.432	0.083	0.127
-428.617	-200.000	-0.058	-0.292
-427.603	18.876	0.334	0.269
-426.588	-200.000	-0.008	-0.098
-425.573	-15.102	-0.107	0.069
-424.559	-75.260	0.109	-0.039
-423.544	169.729	-0.072	-0.104
-422.530	800.000	-0.046	0.166
-421.515	55.891	-0.352	-0.343
-420.500	288.905	-0.087	0.159
-419.486	-111.607	-0.185	-0.038
-418.471	-152.146	-0.450	-0.033
-417.457	429.152	0.094	0.204
-416.442	-200.000	0.022	0.100
-415.428	681.674	0.093	-0.244
-414.413	-200.000	0.014	0.114
-413.398	574.866	0.073	0.178
-412.384	91.220	0.023	0.026
-411.369	33.789	-0.340	0.297
-410.355	363.452	-0.091	-0.184
-409.340	-140.561	-0.201	0.021
-408.325	27.342	-0.160	-0.135
-407.311	-114.785	-0.311	-0.060
-406.296	800.000	0.078	-0.285
-405.282	800.000	-0.041	0.135
-404.267	-29.497	-0.233	0.134
-403.252	-149.857	-0.312	0.024
-402.238	349.879	0.088	0.174
-401.223	800.000	0.070	0.244
-400.209	-109.207	-0.285	0.061
-399.194	75.408	0.098	0.104
-398.179	82.947	-0.115	0.126
-397.165	53.601	0.176	0.169
-396.150	-138.191	-0.239	0.027
-395.136	780.865	-0.038	-0.104
-394.121	-52.436	0.070	0.033
-393.106	-151.270	0.236	0.018
-392.092	800.000	-0.090	0.393
-391.077	90.995	0.389	0.437
-390.063	52.006	0.140	0.134
-389.048	393.820	-0.260	0.542
-388.033	800.000	0.144	0.424
-387.019	-200.000	-0.031	-0.166
-386.004	-35.246	-0.248	-0.136
-384.990	-200.000	-0.026	-0.292
-383.975	226.172	0.114	0.186
-382.960	800.000	-0.059	0.222
-381.946	-200.000	0.007	-0.187
-380.931	719.734	0.029	0.076
-379.917	533.843	0.086	-0.205
-378.902	-49.733	0.073	-0.035
-377.888	-110.546	-0.289	-0.060
-376.873	82.526	0.015	-0.017
-375.858	224.136	-0.013	-0.021
-374.844	-19.154	0.155	-0.097
-373.829	284.771	-0.050	-0.089
-372.815	-41.131	-0.312	-0.161
-371.800	203.820	-0.200	-0.311
-370.785	-34.536	-0.059	0.032
-369.771	-63.498	-0.084	0.035
-368.756	-58.661	0.082	0.036
-367.742	-55.654	0.300	0.134
-366.727	800.000	-0.128	0.371
-365.712	-200.000	0.015	-0.177
-364.698	-200.000	0.006	-0.125
-363.683	-148.827	0.345	-0.028
-362.669	-8.553	-0.044	0.030
-361.654	-200.000	0.025	0.290
-360.639	-200.000	-0.063	0.356
-359.625	-69.849	-0.176	0.067
-358.610	4.570	-0.119	-0.088
-357.596	-121.692	-0.516	-0.086
-356.581	-20.667	0.291	-0.179
-355.566	800.000	0.070	0.241
-354.552	-21.925	-0.494	-0.301
-353.537	568.291	0.173	0.421
-352.523	-85.881	0.032	-0.010
-351.508	228.425	0.192	-0.314
-350.493	-200.000	-0.015	-0.132
-349.479	196.653	-0.049	0.074
-348.464	28.778	0.050	0.042
-347.450	419.431	0.107	0.230
-346.435	800.000	0.052	0.179
-345.420	-101.640	0.271	-0.066
-344.406	-200.000	0.015	-0.244
-343.391	800.000	-0.055	-0.213
-342.377	-88.291	-0.100	-0.030
-341.362	396.127	-0.047	-0.099
-340.348	104.617	0.179	-0.212
-339.333	2.501	0.215	0.156
-338.318	63.739	-0.330	-0.332
-337.304	49.741	0.145	-0.137
-336.289	-77.968	0.376	-0.130
-335.275	-12.542	0.111	0.072
-334.260	-200.000	0.025	0.507
-333.245	-200.000	0.028	0.434
-332.231	-42.745	0.388	0.198
-331.216	800.000	0.021	-0.084
-330.202	-147.637	-0.265	0.022
-329.187	-143.165	-0.065	0.006
-328.172	-37.785	-0.284	0.151
-327.158	-200.000	-0.005	0.136
-326.143	-200.000	0.025	-0.164
-325.129	-32.552	0.169	0.094
-324.114	-200.000	-0.056	0.333
-323.099	-68.651	0.381	-0.148
-322.085	-97.277	-0.300	-0.078
-321.070	228.880	-0.108	-0.175
-320.056	-81.813	-0.216	-0.071
-319.041	-51.858	0.094	0.044
-318.026	111.404	0.094	-0.114
-317.012	-91.384	-0.143	-0.041
-315.997	-22.939	-0.248	-0.149
-314.983	-200.000	-0.064	-0.572
-313.968	20.349	-0.142	-0.115
-312.953	-109.544	-0.205	0.043
-311.939	21.795	-0.218	-0.178
-310.924	-200.000	0.030	-0.155
-309.910	800.000	-0.063	-0.191
-308.895	56.994	0.060	-0.058
-307.880	-69.493	0.112	0.043
-306.866	46.733	0.054	0.050
-305.851	-200.000	0.012	0.073
-304.837	-200.000	0.012	0.377
-303.822	-200.000	-0.023	-0.129
-302.807	383.103	0.133	-0.273
-301.793	-200.000	0.039	0.602
-300.778	-200.000	0.043	0.255
-299.764	407.353	0.051	0.107
-298.749	800.000	0.045	-0.139
-297.735	90.348	0.173	0.194
-296.720	-129.498	0.062	-0.009
-295.705	-74.865	-0.127	-0.045
-294.691	-34.078	-0.154	-0.085
-293.676	-75.631	-0.048	0.017
-292.662	-78.972	0.173	-0.059
-291.647	-19.655	0.184	0.114
-290.632	-116.882	0.294	0.054
-289.618	423.275	0.147	-0.316
-288.603	-200.000	0.008	-0.133
-287.589	-200.000	0.013	0.223
-286.574	275.760	-0.158	0.280
-285.559	800.000	0.031	-0.088
-284.545	-111.016	-0.169	-0.035
-283.530	695.519	-0.104	-0.274
-282.516	-59.504	-0.380	0.163
-281.501	88.886	0.140	0.155
-280.486	-54.461	0.259	-0.117
-279.472	638.469	-0.116	-0.294
-278.457	800.000	0.080	-0.256
-277.443	-200.000	-0.082	-0.390
-276.428	-200.000	0.027	-0.313
-275.413	426.680	-0.087	-0.186
-274.399	-126.907	-0.213	-0.031
-273.384	462.375	0.137	0.305
-272.370	131.864	0.134	0.173
-271.355	-136.961	0.146	-0.017
-270.340	283.772	-0.002	-0.004
-269.326	800.000	0.015	-0.061
-268.311	28.660	0.206	0.174
-267.297	79.543	0.121	0.130
-266.282	-200.000	-0.079	-0.356
-265.267	-47.693	-0.123	0.059
-264.253	205.433	-0.089	0.138
-263.238	751.621	-0.149	-0.402
-262.224	466.234	0.197	-0.440
-261.209	-157.334	0.207	-0.012
-260.195	-27.651	-0.135	-0.078
-259.180	-200.000	-0.015	-0.079
-258.165	-200.000	0.027	-0.498
-257.151	-21.924	0.116	-0.070
-256.136	269.352	0.208	-0.364
-255.122	145.866	0.229	-0.307
-254.107	71.660	-0.193	0.201
-253.092	521.771	-0.038	0.090
-252.078	-22.535	-0.425	0.257
-251.063	800.000	-0.127	0.504
-250.049	-200.000	-0.050	0.410
-249.034	23.014	0.185	-0.152
-248.019	171.191	-0.333	-0.477
-247.005	29.191	-0.146	0.124
-245.990	-88.181	0.206	-0.062
-244.976	-200.000	0.018	-0.299
-243.961	-200.000	-0.003	0.046
-242.946	-117.340	0.106	-0.019
-241.932	800.000	0.028	0.087
-240.917	-200.000	-0.080	0.411
-239.903	-89.468	-0.191	0.056
-238.888	-7.379	-0.206	0.139
-237.873	10.206	0.177	0.135
-236.859	-121.096	-0.025	-0.004
-235.844	-149.422	0.082	-0.007
-234.830	514.249	0.063	0.147
-233.815	800.000	0.040	-0.123
-232.800	-102.681	-0.117	-0.028
-231.786	-155.607	0.121	0.008
-230.771	264.664	0.102	0.177
-229.757	286.694	0.080	0.144
-228.742	-134.670	0.130	0.016
-227.727	260.268	0.273	0.471
-226.713	108.831	0.225	-0.268
-225.698	-200.000	-0.052	0.246
-224.684	800.000	-0.023	-0.071
-223.669	-124.778	-0.317	0.049
-222.655	140.068	0.120	-0.158
-221.640	-95.172	0.124	-0.033
-220.625	-102.593	0.358	0.085
-219.611	-200.000	-0.068	0.444
-218.596	-71.279	0.149	-0.056
-217.582	663.568	0.076	-0.196
-216.567	134.746	0.239	0.309
-215.552	268.085	-0.118	0.205
-214.538	278.264	0.062	-0.110
-213.523	160.818	0.103	-0.144
-212.509	133.414	0.112	0.144
-211.494	34.945	0.159	0.138
-210.479	-125.347	0.311	-0.047
-209.465	-200.000	-0.001	0.365
-208.450	-85.496	0.264	0.082
-207.436	-56.503	0.332	-0.147
-206.421	-152.800	-0.126	-0.009
-205.406	447.894	0.148	-0.325
-204.392	-200.000	-0.032	-0.153
-203.377	-66.576	-0.159	-0.063
-202.363	141.591	0.088	-0.116
-201.348	51.283	0.101	-0.095
-200.333	-200.000	-0.031	0.247
-199.319	-14.321	0.098	0.063
-198.304	-200.000	0.007	0.206
-197.290	333.514	-0.085	0.164
-196.275	22.986	0.115	-0.094
-195.260	-200.000	-0.014	0.117
-194.246	800.000	-0.087	-0.255
-193.231	248.692	0.185	-0.311
-192.217	-77.692	0.200	-0.069
-191.202	58.559	0.060	-0.058
-190.187	800.000	-0.073	0.295
-189.173	349.185	-0.092	0.182
-188.158	39.701	0.054	-0.048
-187.144	-157.945	-0.094	0.006
-186.129	-1.163	0.203	0.143
-185.114	-200.000	-0.033	-0.226
-184.100	206.391	-0.163	-0.252
-183.085	-200.000	-0.024	0.214
-182.071	15.799	0.212	-0.166
-181.056	2.003	0.208	-0.149
-180.042	84.641	-0.049	-0.054
-179.027	58.101	0.177	-0.173
-178.012	-24.319	-0.209	0.124
-176.998	-37.866	-0.039	0.021
-175.983	800.000	0.040	-0.134
-174.969	-121.399	0.246	-0.041
-173.954	279.819	-0.081	0.144
-172.939	350.304	-0.101	0.199
-171.925	-85.190	-0.351	-0.109
-170.910	-197.742	-0.199	0.001
-169.896	800.000	-0.034	-0.116
-168.881	-200.000	-0.027	-0.254
-167.866	-200.000	-0.003	0.208
-166.852	800.000	0.023	-0.079
-165.837	-51.954	0.132	-0.061
-164.823	585.858	-0.081	0.198
-163.808	-200.000	0.020	-0.283
-162.793	800.000	0.088	-0.326
-161.779	-4.681	-0.279	-0.192
-160.764	53.157	-0.176	0.168
-159.750	-55.140	-0.238	-0.107
-158.735	10.007	0.139	0.105
-157.720	289.541	-0.209	0.376
-156.706	800.000	-0.009	0.038
-155.691	-128.021	0.295	0.042
-154.677	-200.000	0.017	-0.172
-153.662	37.254	0.282	0.248
-152.647	207.055	-0.182	-0.282
-151.633	264.699	-0.060	-0.104
-150.618	262.646	-0.225	0.389
-149.604	-200.000	0.004	0.366
-148.589	-174.236	0.139	0.004
-147.574	-187.492	0.234	-0.003
-146.560	250.841	0.031	0.053
-145.545	-200.000	0.016	-0.281
-144.531	558.422	0.145	-0.347
-143.516	800.000	0.096	-0.385
-142.502	-33.993	0.386	-0.211
-141.487	73.070	-0.104	0.108
-140.472	-200.000	0.003	0.130
-139.458	-62.412	0.171	-0.071
-138.443	430.343	0.075	0.162
-137.429	-137.618	0.167	0.019
-136.414	-77.361	-0.082	-0.028
-135.399	13.445	0.075	0.058
-134.385	800.000	0.071	0.231
-133.370	84.750	-0.103	0.112
-132.356	41.694	0.227	-0.204
-131.341	333.551	-0.081	-0.156
-130.326	-128.497	-0.215	0.030
-129.312	-13.605	0.125	0.080
-128.297	242.111	0.267	0.444
-127.283	-48.174	0.121	0.058
-126.268	298.847	0.099	-0.181
-125.253	30.928	0.226	-0.192
-124.239	165.272	0.335	0.470
-123.224	-142.951	0.167	0.016
-122.210	-137.143	0.047	0.005
-121.195	-156.180	0.304	0.019
-120.180	45.805	0.217	-0.199
-119.166	-200.000	-0.053	-0.262
-118.151	595.038	-0.031	0.077
-117.137	367.065	-0.108	-0.216
-116.122	-173.817	0.222	0.007
-115.107	-200.000	0.093	0.522
-114.093	-200.000	-0.003	0.025
-113.078	-62.533	0.119	-0.049
-112.064	800.000	0.102	-0.357
-111.049	-161.487	-0.270	-0.014
-110.034	-51.077	-0.259	0.121
-109.020	-143.137	0.312	0.030
-108.005	-49.930	-0.092	-0.043
-106.991	598.973	0.080	0.197
-105.976	60.548	0.222	0.218
-104.962	-200.000	0.010	0.048
-103.947	-107.181	-0.120	-0.026
-102.932	7.511	-0.054	-0.040
-101.918	707.794	0.137	0.360
-100.903	13.284	0.199	-0.153
-99.889	4.096	0.283	0.205
-98.874	-124.890	-0.039	-0.006
-97.859	-68.997	-0.149	0.057
-96.845	272.148	-0.163	0.286
-95.830	10.706	-0.206	0.156
-94.816	431.194	-0.007	0.014
-93.801	299.328	-0.062	-0.112
-92.786	-44.155	0.060	-0.030
-91.772	170.757	-0.219	0.311
-90.757	172.844	-0.116	0.166
-89.743	-127.053	-0.129	-0.019
-88.728	-1.900	-0.278	-0.194
-87.713	158.849	0.090	0.124
-86.699	800.000	0.008	0.032
-85.684	800.000	-0.083	0.249
-84.670	151.236	-0.130	0.175
-83.655	-8.536	-0.174	0.116
-82.640	624.074	0.052	-0.130
-81.626	-200.000	0.057	0.329
-80.611	-120.713	0.130	0.022
-79.597	800.000	0.154	0.543
-78.582	-143.926	0.348	0.032
-77.567	-30.466	0.061	-0.034
-76.553	-13.977	0.233	0.149
-75.538	-200.000	-0.001	0.367
-74.524	-200.000	-0.042	-0.407
-73.509	630.916	0.048	0.121
-72.494	25.752	-0.072	-0.060
-71.480	87.443	0.112	-0.123
-70.465	9.129	0.128	0.096
-69.451	155.748	-0.037	0.050
-68.436	-200.000	0.005	0.084
-67.422	650.562	0.088	-0.224
-66.407	800.000	0.031	0.133
-65.392	-148.410	0.027	-0.002
-64.378	-158.710	-0.295	0.017
-63.363	800.000	0.103	0.304
-62.349	800.000	0.074	0.310
-61.334	104.731	-0.760	-0.887
-60.319	9.863	0.296	0.223
-59.305	-200.000	-0.130	-0.690
-58.290	123.783	0.812	1.009
-57.276	800.000	0.447	1.438
-56.261	-200.000	91.990	538.260
-55.246	508.557	1386.667	3188.989
-54.232	150.735	2584.505	3477.934
-53.217	115.705	2188.815	2650.550
-52.203	48.150	1642.155	1520.546
-51.188	40.043	1377.133	1225.129
-50.173	36.809	1333.689	1166.982
-49.159	57.336	1380.071	1333.761
-48.144	61.628	1399.376	1378.648
-47.130	40.463	1354.938	1207.751
-46.115	36.742	1337.009	1169.300
-45.100	36.564	1332.401	1164.152
-44.086	36.486	1329.427	1161.038
-43.071	36.472	1327.202	1158.965
-42.057	36.402	1325.607	1157.103
-41.042	36.595	1323.623	1156.479
-40.027	36.450	1322.014	1154.160
-39.013	36.576	1319.933	1153.053
-37.998	36.580	1317.810	1151.175
-36.984	36.604	1316.707	1150.312
-35.969	36.571	1315.135	1148.693
-34.954	36.648	1312.959	1147.204
-33.940	36.717	1311.156	1145.994
-32.925	36.701	1310.315	1145.119
-31.911	36.737	1308.547	1143.742
-30.896	36.779	1307.217	1142.777
-29.881	36.687	1306.042	1141.164
-28.867	36.658	1304.618	1139.706
-27.852	36.812	1302.749	1138.930
-26.838	36.752	1301.570	1137.504
-25.823	36.743	1300.085	1136.108
-24.809	36.701	1298.511	1134.441
-23.794	36.674	1297.455	1133.313
-22.779	36.728	1296.118	1132.421
-21.765	36.662	1294.700	1130.749
-20.750	36.533	1293.936	1129.281
-19.736	36.485	1292.357	1127.582
-18.721	36.683	1290.653	1127.205
-17.706	36.676	1289.563	1126.163
-16.692	36.683	1288.617	1125.336
-15.677	36.463	1287.948	1123.424
-14.663	36.576	1286.151	1122.472
-13.648	36.507	1285.354	1121.331
-12.633	36.641	1283.688	1120.611
-11.619	36.521	1283.120	1119.376
-10.604	36.603	1282.745	1119.478
-9.590	36.602	1281.711	1118.525
-8.575	36.576	1280.907	1117.630
-7.560	36.490	1280.330	1116.583
-6.546	36.613	1278.950	1116.046
-5.531	36.511	1278.000	1114.581
-4.517	36.553	1276.852	1113.778
-3.502	36.501	1276.402	1113.042
-2.487	36.528	1275.309	1112.201
-1.473	36.502	1271.324	1108.535
-0.458	34.802	1255.291	1084.871
0.556	29.777	1235.892	1040.800
1.571	25.431	1240.136	1019.676
2.586	24.261	1255.309	1025.340
3.600	23.837	1246.041	1015.255
4.615	22.904	1181.043	957.156
5.629	20.440	1113.256	889.539
6.644	18.774	1095.150	866.596
7.659	18.770	1092.766	864.613
8.673	18.762	1091.234	863.284
9.688	18.773	1090.216	862.458
10.702	18.765	1087.921	860.526
11.717	20.031	1088.292	867.086
12.731	21.184	1089.128	873.445
13.746	20.252	1086.671	866.744
14.761	18.512	1083.570	855.516
15.775	17.267	1081.541	847.635
16.790	16.207	1079.494	840.680
17.804	15.405	1077.590	835.132
18.819	14.851	1076.624	831.550
19.834	14.545	1075.544	829.124
20.848	14.361	1074.558	827.377
21.863	14.062	1073.783	825.222
22.877	13.815	1073.101	823.399
23.892	13.800	1072.473	822.773
24.907	13.975	1071.286	822.652
25.921	13.908	1070.620	821.737
26.936	13.935	1069.424	820.881
27.950	14.037	1067.637	819.938
28.965	14.027	1066.441	818.901
29.980	14.116	1065.223	818.331
30.994	14.192	1063.680	817.445
32.009	14.082	1062.822	816.176
33.023	14.150	1061.687	815.561
34.038	14.102	1060.088	814.028
35.053	14.110	1059.807	813.780
36.067	14.059	1058.806	812.689
37.082	14.056	1057.740	811.784
38.096	13.999	1057.609	811.336
39.111	14.087	1056.640	810.948
40.126	13.971	1055.468	809.411
41.140	13.870	1053.879	807.629
42.155	13.947	1052.358	806.766
43.169	13.840	1051.412	805.450
44.184	13.913	1050.444	804.992
45.199	13.904	1049.571	804.207
46.213	13.833	1048.055	802.633
47.228	13.948	1047.239	802.492
48.242	13.937	1046.047	801.456
49.257	13.883	1045.228	800.497
50.271	14.046	1043.788	800.105
51.286	14.048	1043.304	799.676
52.301	13.951	1042.272	798.348
53.315	13.926	1041.526	797.584
54.330	13.955	1039.876	796.389
55.344	13.874	1039.299	795.490
56.359	13.860	1038.666	794.868
57.374	13.977	1037.560	794.511
58.388	13.839	1037.000	793.353
59.403	13.808	1035.889	792.285
60.417	13.827	1035.199	791.779
61.432	13.728	1034.511	790.709
62.447	13.729	1033.795	790.097
63.461	13.789	1032.734	789.499
64.476	13.800	1032.010	788.931
65.490	13.706	1030.942	787.596
66.505	13.810	1030.069	787.353
67.520	13.999	1029.269	787.568
68.534	13.871	1028.827	786.552
69.549	13.786	1028.357	785.725
70.563	13.832	1027.485	785.206
71.578	13.769	1026.339	783.961
72.593	13.704	1025.979	783.309
73.607	13.734	1024.782	782.466
74.622	13.784	1024.361	782.314
75.636	13.771	1023.560	781.570
76.651	13.640	1022.700	780.229
77.666	13.667	1022.175	779.886
78.680	13.593	1021.897	779.259
79.695	13.806	1021.090	779.575
80.709	13.838	1020.387	779.120
81.724	13.803	1019.728	778.384
82.739	13.949	1018.780	778.275
83.753	13.993	1018.355	778.086
84.768	14.211	1016.628	777.717
85.782	14.181	1016.081	777.089
86.797	13.999	1015.463	775.699
87.812	13.940	1014.437	774.572
88.826	14.122	1013.268	774.457
89.841	14.164	1012.367	773.894
90.855	14.035	1011.873	772.848
91.870	13.974	1010.979	771.815
92.884	14.097	1009.878	771.478
93.899	14.091	1009.169	770.841
94.914	14.281	1008.367	771.040
95.928	14.103	1007.790	769.703
96.943	14.115	1006.591	768.778
97.957	14.001	1006.176	767.864
98.972	14.188	1005.046	767.797
99.987	14.121	1003.959	766.592
101.001	14.102	1003.210	765.863
102.016	14.076	1002.650	765.248
103.030	14.170	1001.414	764.671
104.045	14.201	1000.899	764.350
105.060	14.070	1000.118	763.087
106.074	13.965	999.034	761.707
107.089	13.924	997.765	760.487
108.103	13.911	996.917	759.714
109.118	13.791	996.259	758.598
110.133	13.954	995.149	758.430
111.147	13.865	994.462	757.433
112.162	13.915	993.721	757.030
113.176	14.033	992.620	756.660
114.191	14.039	991.834	756.020
115.206	13.991	991.019	755.115
116.220	13.950	990.546	754.501
117.235	13.990	989.487	753.812
118.249	13.997	988.686	753.164
119.264	13.923	987.838	752.118
120.279	13.910	986.985	751.341
121.293	13.908	986.375	750.804
122.308	13.920	985.394	750.045
123.322	13.876	984.181	748.857
124.337	13.754	983.734	747.898
125.352	13.868	982.411	747.340
126.366	13.837	981.095	746.132
127.381	13.941	980.642	746.192
128.395	13.967	979.664	745.495
129.410	13.990	978.526	744.669
130.424	13.860	978.094	743.691
131.439	13.953	977.046	743.246
132.454	13.999	976.653	743.085
133.468	13.959	975.527	741.983
134.483	14.167	974.585	742.130
135.497	14.194	973.552	741.397
136.512	14.051	972.795	740.119
137.527	13.975	971.943	739.068
138.541	14.068	971.470	739.057
139.556	14.090	970.486	738.341
140.570	14.199	969.754	738.201
141.585	14.276	968.591	737.591
142.600	14.220	968.179	736.963
143.614	14.288	967.373	736.588
144.629	14.251	966.434	735.645
145.643	14.244	965.637	734.942
146.658	14.157	964.599	733.704
147.673	14.187	963.619	733.022
148.687	14.093	962.485	731.683
149.702	14.147	961.457	731.074
150.716	14.188	960.926	730.787
151.731	14.096	960.476	729.973
152.746	14.117	959.418	729.196
153.760	14.061	959.000	728.570
154.775	14.256	958.271	728.807
155.789	14.289	957.837	728.555
156.804	14.125	957.280	727.350
157.819	14.417	955.984	727.574
158.833	14.270	955.932	726.830
159.848	14.432	954.554	726.423
160.862	14.270	953.967	725.210
161.877	14.276	953.074	724.494
162.892	14.175	951.982	723.160
163.906	14.122	951.303	722.350
164.921	14.196	950.573	722.052
165.935	14.253	949.598	721.494
166.950	14.233	948.361	720.405
167.964	14.245	947.888	720.030
168.979	14.160	947.082	718.989
169.994	14.366	946.040	719.025
171.008	14.274	945.262	717.972
172.023	14.461	944.344	718.016
173.037	14.350	943.862	717.110
174.052	14.487	942.917	716.916
175.067	14.309	942.311	715.629
176.081	14.297	941.784	715.115
177.096	14.315	941.398	714.832
178.110	14.281	941.036	714.349
179.125	14.392	940.101	714.051
180.140	14.351	939.654	713.472
181.154	14.308	939.441	713.065
182.169	14.553	938.269	713.161
183.183	14.490	938.061	712.668
184.198	14.559	937.205	712.248
185.213	14.678	936.001	711.780
186.227	14.672	935.664	711.437
187.242	14.607	934.952	710.553
188.256	14.615	934.611	710.267
189.271	14.515	934.091	709.383
190.286	14.501	932.610	708.137
191.300	14.349	932.044	707.000
192.315	14.262	931.796	706.377
193.329	14.302	931.092	705.951
194.344	14.430	930.470	705.959
195.359	14.524	929.688	705.703
196.373	14.718	929.049	705.975
197.388	14.589	929.057	705.374
198.402	14.518	928.512	704.597
199.417	14.696	927.728	704.689
200.432	14.706	927.464	704.470
201.446	14.854	926.512	704.307
202.461	14.821	926.220	703.883
203.475	14.838	925.392	703.266
204.490	14.919	924.344	702.746
205.504	14.841	923.658	701.837
206.519	14.734	922.877	700.732
207.534	14.742	922.496	700.412
208.548	14.794	921.829	700.064
209.563	14.861	921.079	699.712
210.577	14.931	919.988	699.114
211.592	14.916	919.401	698.545
212.607	14.966	918.700	698.157
213.621	14.969	917.798	697.422
214.636	15.040	917.095	697.121
215.650	14.948	916.751	696.415
216.665	14.994	915.983	695.961
217.680	14.999	915.579	695.617
218.694	14.915	914.584	694.450
219.709	15.110	913.878	694.658
220.723	15.082	913.554	694.235
221.738	14.949	913.009	693.209
222.753	15.037	912.220	692.913
223.767	15.088	911.602	692.593
224.782	15.151	911.109	692.417
225.796	15.290	910.690	692.613
226.811	15.248	909.503	691.474
227.826	15.106	908.935	690.398
228.840	15.261	908.272	690.471
229.855	15.158	907.610	689.482
230.869	15.056	906.593	688.228
231.884	15.120	906.091	688.051
232.899	15.221	905.133	687.677
233.913	15.119	904.582	686.780
234.928	15.032	904.156	686.037
235.942	15.087	903.558	685.747
236.957	15.229	902.496	685.464
237.972	15.099	902.264	684.697
238.986	15.175	901.608	684.447
240.001	15.210	901.019	684.081
241.015	15.262	900.196	683.609
242.030	15.125	900.171	682.971
243.045	15.132	899.462	682.402
244.059	15.294	898.460	682.241
245.074	15.332	897.886	681.896
246.088	15.299	897.376	681.318
247.103	15.307	897.092	681.071
248.117	15.389	896.143	680.623
249.132	15.463	895.569	680.429
250.147	15.582	894.917	680.353
251.161	15.544	894.556	679.865
252.176	15.531	893.707	679.110
253.190	15.596	892.830	678.644
254.205	15.548	892.737	678.318
255.220	15.582	891.713	677.618
256.234	15.725	890.865	677.490
257.249	15.670	890.572	676.985
258.263	15.641	889.709	676.154
259.278	15.791	888.714	675.940
260.293	15.654	888.545	675.201
261.307	15.714	887.683	674.730
262.322	15.832	887.213	674.783
263.336	15.951	886.251	674.468
264.351	15.886	885.724	673.748
265.366	15.899	885.347	673.455
266.380	15.798	884.632	672.447
267.395	15.819	884.039	672.020
268.409	15.769	883.153	671.089
269.424	15.758	882.506	670.493
270.439	15.819	881.880	670.201
271.453	15.838	880.853	669.435
272.468	15.839	880.574	669.170
273.482	15.880	879.871	668.740
274.497	15.933	879.283	668.445
275.512	15.932	878.823	668.030
276.526	15.822	878.603	667.368
277.541	15.843	878.010	666.942
278.555	15.998	876.985	666.718
279.570	16.000	876.608	666.379
280.585	16.062	875.404	665.651
281.599	15.955	874.833	664.735
282.614	15.950	874.318	664.264
283.628	16.029	873.581	663.960
284.643	16.040	872.908	663.431
285.657	16.018	872.727	663.150
286.672	16.029	871.502	662.204
287.687	16.060	870.988	661.873
288.701	16.092	870.614	661.658
289.716	16.153	870.301	661.601
290.730	16.133	869.638	660.960
291.745	16.102	868.959	660.261
292.760	16.302	868.041	660.289
293.774	16.219	867.954	659.839
294.789	16.254	867.145	659.304
295.803	16.132	866.470	658.257
296.818	16.102	865.569	657.395
297.833	16.132	865.048	657.061
298.847	16.170	864.470	656.710
299.862	16.457	863.858	657.304
300.876	16.323	863.420	656.391
301.891	16.335	862.976	656.043
302.906	16.432	862.079	655.679
303.920	16.504	861.573	655.514
304.935	16.410	861.163	654.782
305.949	16.401	860.634	654.284
306.964	16.377	860.119	653.744
307.979	16.352	859.732	653.296
308.993	16.418	859.082	652.998
310.008	16.392	858.410	652.327
311.022	16.475	857.688	652.043
312.037	16.488	857.224	651.682
313.052	16.491	856.257	650.901
314.066	16.488	855.730	650.433
315.081	16.470	855.522	650.146
316.095	16.480	854.730	649.527
317.110	16.445	853.804	648.631
318.125	16.493	853.602	648.604
319.139	16.583	853.111	648.516
320.154	16.474	852.941	647.915
321.168	16.567	852.004	647.499
322.183	16.587	851.554	647.179
323.197	16.538	851.251	646.702
324.212	16.607	850.445	646.296
325.227	16.533	850.113	645.704
326.241	16.596	849.722	645.589
327.256	16.662	848.867	645.135
328.270	16.561	848.287	644.255
329.285	16.621	847.576	643.886
330.300	16.521	846.985	642.997
331.314	16.545	846.620	642.756
332.329	16.568	846.088	642.384
333.343	16.733	845.664	642.628
334.358	16.661	845.276	642.006
335.373	16.747	844.955	642.032
336.387	16.684	844.736	641.567
337.402	16.719	844.529	641.489
338.416	16.849	843.818	641.382
339.431	16.889	843.420	641.173
340.446	16.853	843.024	640.681
341.460	16.964	842.881	640.933
342.475	17.014	842.376	640.680
343.489	17.004	841.806	640.153
344.504	17.025	841.278	639.775
345.519	17.135	840.963	639.894
346.533	17.184	840.258	639.486
347.548	16.961	839.780	638.226
348.562	16.937	839.218	637.650
349.577	16.918	838.875	637.262
350.592	16.901	838.213	636.641
351.606	17.008	836.800	635.912
352.621	17.045	836.471	635.743
353.635	17.020	836.050	635.275
354.650	17.081	835.329	634.899
355.665	17.139	835.006	634.813
356.679	17.058	834.223	633.861
357.694	17.095	833.647	633.506
358.708	17.030	832.880	632.622
359.723	17.065	832.547	632.443
360.738	16.918	832.473	631.786
361.752	17.065	831.351	631.424
362.767	17.235	830.677	631.489
363.781	17.286	829.938	631.060
364.796	17.440	829.557	631.287
365.810	17.328	829.147	630.502
366.825	17.272	829.250	630.319
367.840	17.355	828.413	629.932
368.854	17.390	827.946	629.653
369.869	17.391	827.557	629.306
370.883	17.391	826.980	628.811
371.898	17.380	826.941	628.685
372.913	17.493	826.255	628.524
373.927	17.547	825.770	628.298
374.942	17.444	825.420	627.595
375.956	17.500	824.913	627.361
376.971	17.597	824.417	627.288
377.986	17.512	824.293	626.824
379.000	17.672	823.473	626.734
380.015	17.553	823.151	625.993
381.029	17.630	822.385	625.638
382.044	17.600	822.079	625.243
383.059	17.571	821.761	624.837
384.073	17.654	820.942	624.463
385.088	17.621	820.172	623.702
386.102	17.758	819.397	623.558
387.117	17.572	819.124	622.614
388.132	17.593	818.260	621.981
389.146	17.709	817.885	622.064
390.161	17.542	817.952	621.449
391.175	17.728	817.400	621.655
392.190	17.648	816.255	620.436
393.205	17.853	816.097	621.008
394.219	17.723	815.718	620.192
395.234	17.690	815.365	619.748
396.248	17.558	815.151	619.050
397.263	17.680	814.474	618.925
398.278	17.723	813.961	618.637
399.292	17.638	813.629	618.021
400.307	17.529	813.414	617.408
401.321	17.604	812.624	617.027
402.336	17.775	812.331	617.366
403.350	17.745	811.962	616.923
404.365	17.794	811.163	616.439
405.380	17.836	810.586	616.099
406.394	17.880	810.202	615.909
407.409	18.000	809.717	615.918
408.423	18.046	809.579	615.926
409.438	18.069	809.224	615.685
410.453	17.989	808.790	615.010
411.467	18.145	808.333	615.171
412.482	18.127	807.676	614.554
413.496	18.173	807.383	614.440
414.511	18.228	807.224	614.463
415.526	18.157	806.799	613.829
416.540	18.239	805.918	613.398
417.555	18.287	805.630	613.298
418.569	18.074	805.051	612.039
419.584	18.192	804.627	612.087
420.599	18.202	804.426	611.914
421.613	102.741	1281.672	1429.876
422.628	88.321	1351.198	1429.979
