DTS Sentinel unit serial number:	SN413079Multiplexer serial number:	ORYXHardware model number:	OX4-SRSoftware version number:	ORYX F/W v4.00 Oryx Data Collector v3.7.2.0data status	okinstallation	princeton_trtdifferential loss correction	single-endedforward channel	channel 1reverse channel	N/Adate	2019/09/14time	21:30:35forward acquisition time	60.00reverse acquisition time	0.00gamma	496.2192k internal	0.2318k external	0.2318temperature offset calibration	1.0014default loss term (dB/km)	0.3790temperature slope calibration	1.0000multiplexer offset coefficient	1.0000multiplexer slope coefficient	1.0000fibre end	0.00T internal ref (°C)	32.87T ext. ref 1 (°C)	4.76T ext. ref 2 (°C)	27.75length (m)	temperature (°C)	Stokes	anti-Stokes-747.200	-92.847	-0.503	0.142
-746.185	-12.523	-0.189	0.125
-745.171	282.141	-0.158	0.287
-744.156	-47.670	-0.348	0.171
-743.142	48.577	0.149	-0.142
-742.127	377.523	-0.127	0.263
-741.112	339.244	-0.021	-0.041
-740.098	-44.101	0.058	-0.029
-739.083	-127.984	-0.109	-0.016
-738.069	32.951	0.049	-0.043
-737.054	-199.316	-0.363	-0.002
-736.039	-51.460	-0.216	-0.102
-735.025	-200.000	0.024	0.290
-734.010	-200.000	0.020	-0.348
-732.996	-178.073	0.235	0.006
-731.981	-8.991	-0.154	-0.104
-730.966	-200.000	0.049	0.308
-729.952	438.554	-0.046	0.102
-728.937	-23.655	-0.176	-0.107
-727.923	-55.390	0.059	-0.027
-726.908	-49.015	0.212	0.103
-725.894	131.462	-0.073	-0.095
-724.879	156.252	-0.054	-0.075
-723.864	213.075	-0.005	0.007
-722.850	-99.589	-0.193	0.049
-721.835	800.000	0.084	-0.258
-720.821	-200.000	-0.000	-0.256
-719.806	763.680	0.098	-0.268
-718.791	22.749	-0.250	-0.207
-717.777	-24.562	-0.175	-0.105
-716.762	-112.034	0.170	0.035
-715.748	-95.635	0.331	0.090
-714.733	-200.000	-0.015	-0.105
-713.718	46.359	0.122	0.115
-712.704	-101.043	-0.159	0.039
-711.689	-200.000	-0.038	-0.279
-710.675	-16.893	-0.367	-0.235
-709.660	48.283	-0.184	-0.174
-708.645	800.000	0.073	-0.225
-707.631	-150.106	-0.389	-0.031
-706.616	-200.000	0.011	-0.095
-705.602	-65.041	0.250	-0.102
-704.587	-117.124	0.005	-0.001
-703.572	66.188	-0.412	-0.423
-702.558	-29.580	-0.199	0.115
-701.543	109.100	0.206	0.249
-700.529	770.402	0.008	-0.021
-699.514	800.000	0.081	0.229
-698.499	800.000	0.053	-0.181
-697.485	273.191	-0.194	-0.347
-696.470	-38.616	-0.334	0.178
-695.456	295.725	-0.082	0.151
-694.441	800.000	0.081	-0.329
-693.426	-181.170	-0.086	-0.002
-692.412	78.053	-0.230	-0.248
-691.397	-94.389	-0.219	0.060
-690.383	800.000	-0.034	0.112
-689.368	-147.423	0.249	-0.021
-688.354	-28.570	0.216	0.125
-687.339	328.929	0.075	0.145
-686.324	-94.972	0.109	0.030
-685.310	-147.010	0.157	-0.014
-684.295	547.904	-0.096	-0.232
-683.281	-200.000	0.025	-0.246
-682.266	45.886	0.191	0.178
-681.251	-200.000	-0.019	0.196
-680.237	90.007	0.052	-0.059
-679.222	-105.625	0.075	0.017
-678.208	233.021	-0.173	0.287
-677.193	-200.000	-0.035	0.214
-676.178	-65.435	0.181	0.073
-675.164	78.360	0.107	0.115
-674.149	800.000	-0.045	0.187
-673.135	-200.000	0.009	-0.113
-672.120	-85.999	-0.208	-0.065
-671.105	800.000	0.047	-0.170
-670.091	-35.633	0.213	-0.117
-669.076	24.774	0.132	0.110
-668.062	-146.340	-0.435	-0.038
-667.047	-84.188	0.111	0.036
-666.032	141.667	-0.271	0.362
-665.018	-116.266	0.043	-0.008
-664.003	-61.105	0.275	-0.117
-662.989	442.968	0.150	-0.332
-661.974	-200.000	-0.074	-0.425
-660.959	-200.000	-0.001	-0.035
-659.945	215.604	0.076	-0.121
-658.930	800.000	0.028	0.091
-657.916	-126.855	0.212	0.032
-656.901	800.000	0.063	0.198
-655.886	371.825	-0.025	-0.052
-654.872	-200.000	0.023	0.171
-653.857	-64.443	-0.223	0.091
-652.843	800.000	-0.014	0.051
-651.828	-80.391	0.178	-0.060
-650.814	518.145	0.239	0.565
-649.799	30.788	0.285	0.246
-648.784	614.749	0.143	0.362
-647.770	-120.013	0.065	0.011
-646.755	-46.181	-0.069	-0.034
-645.741	616.990	0.062	0.157
-644.726	-185.795	-0.204	-0.003
-643.711	253.606	-0.137	-0.236
-642.697	253.864	0.052	0.090
-641.682	191.714	0.106	0.161
-640.668	-200.000	-0.013	0.100
-639.653	-118.831	0.375	-0.066
-638.638	800.000	0.031	0.126
-637.624	-120.011	-0.232	0.040
-636.609	752.277	-0.027	0.073
-635.595	590.130	-0.105	-0.260
-634.580	-200.000	0.008	-0.149
-633.565	39.838	-0.224	0.202
-632.551	800.000	0.059	0.191
-631.536	-8.120	-0.449	0.305
-630.522	-20.123	-0.101	-0.063
-629.507	800.000	-0.059	0.197
-628.492	-200.000	-0.002	-0.272
-627.478	87.552	-0.257	-0.287
-626.463	-200.000	-0.044	-0.292
-625.449	-146.649	0.287	0.025
-624.434	75.979	-0.113	-0.120
-623.419	-200.000	-0.065	-0.402
-622.405	-38.570	0.226	-0.120
-621.390	69.513	-0.340	-0.352
-620.376	264.072	-0.127	-0.222
-619.361	800.000	0.047	-0.176
-618.346	-200.000	0.002	-0.063
-617.332	-200.000	-0.240	-0.000
-616.317	293.008	0.026	0.048
-615.303	608.763	-0.105	-0.263
-614.288	-8.889	-0.223	-0.150
-613.273	-200.000	-0.013	0.335
-612.259	95.594	-0.196	0.225
-611.244	367.968	-0.034	0.069
-610.230	-99.206	0.371	-0.094
-609.215	610.322	-0.076	0.191
-608.201	-200.000	0.004	-0.031
-607.186	-36.720	-0.227	0.123
-606.171	213.126	-0.068	0.108
-605.157	125.385	-0.098	-0.124
-604.142	21.229	-0.099	-0.081
-603.128	-200.000	0.015	-0.317
-602.113	-6.967	-0.214	-0.146
-601.098	129.049	-0.318	-0.408
-600.084	7.951	0.103	0.077
-599.069	87.985	-0.107	0.120
-598.055	-9.336	-0.084	-0.056
-597.040	304.589	0.107	0.199
-596.025	-200.000	0.068	-0.455
-595.011	10.461	0.116	-0.089
-593.996	17.186	-0.229	-0.182
-592.982	70.542	0.202	-0.210
-591.967	-80.005	-0.242	-0.082
-590.952	69.212	0.146	-0.151
-589.938	-82.477	-0.496	-0.162
-588.923	800.000	-0.081	0.248
-587.909	800.000	-0.061	-0.172
-586.894	89.814	0.105	0.118
-585.879	312.960	0.158	0.298
-584.865	-88.231	-0.350	0.105
-583.850	257.843	-0.146	-0.253
-582.836	8.503	0.507	-0.383
-581.821	-73.979	-0.388	0.142
-580.806	-157.877	0.344	0.020
-579.792	-200.000	0.026	-0.205
-578.777	-75.465	0.062	0.022
-577.763	-169.804	0.339	-0.012
-576.748	-200.000	0.029	0.175
-575.733	-200.000	0.018	-0.239
-574.719	-200.000	-0.019	0.111
-573.704	75.857	-0.256	0.272
-572.690	-154.190	-0.559	0.038
-571.675	-124.303	-0.118	-0.018
-570.661	-200.000	0.011	0.222
-569.646	-134.687	-0.140	-0.017
-568.631	-95.014	-0.185	-0.050
-567.617	-200.000	0.004	0.141
-566.602	-200.000	-0.020	-0.120
-565.588	-200.000	-0.019	-0.112
-564.573	-34.585	-0.095	-0.052
-563.558	111.021	0.153	0.185
-562.544	270.175	0.104	-0.184
-561.529	309.107	0.158	-0.297
-560.515	29.928	0.013	0.012
-559.500	584.624	-0.083	-0.205
-558.485	-159.437	-0.260	-0.015
-557.471	-200.000	0.051	0.264
-556.456	159.602	-0.087	0.122
-555.442	435.066	0.095	0.207
-554.427	-89.048	0.239	-0.071
-553.412	-121.497	-0.386	-0.064
-552.398	800.000	-0.119	0.486
-551.383	112.778	-0.156	0.189
-550.369	-161.658	0.286	-0.015
-549.354	-76.355	-0.064	-0.023
-548.339	119.072	-0.121	-0.151
-547.325	656.972	-0.114	-0.295
-546.310	185.478	-0.154	-0.229
-545.296	800.000	0.044	0.123
-544.281	-70.044	-0.039	0.015
-543.266	-167.778	-0.264	-0.010
-542.252	371.611	-0.164	0.335
-541.237	800.000	0.061	0.225
-540.223	594.552	-0.018	0.046
-539.208	-144.043	0.360	-0.034
-538.193	-200.000	-0.032	-0.190
-537.179	79.424	0.082	-0.089
-536.164	-105.930	-0.319	-0.072
-535.150	-31.089	0.181	0.102
-534.135	233.186	-0.096	0.159
-533.121	-102.531	-0.271	-0.065
-532.106	-136.259	-0.432	-0.051
-531.091	-76.742	-0.163	0.057
-530.077	662.411	-0.116	-0.301
-529.062	13.457	0.098	-0.076
-528.048	-200.000	-0.014	0.154
-527.033	-151.038	0.203	0.015
-526.018	135.413	-0.050	0.065
-525.004	169.955	-0.074	0.106
-523.989	375.010	-0.077	-0.157
-522.975	-120.440	0.451	-0.077
-521.960	-96.672	0.139	-0.037
-520.945	800.000	-0.068	-0.286
-519.931	-54.684	0.261	-0.119
-518.916	107.657	0.156	-0.187
-517.902	161.432	-0.090	0.127
-516.887	116.457	0.060	0.073
-515.872	-200.000	0.046	0.212
-514.858	53.762	0.135	-0.130
-513.843	-200.000	-0.005	0.402
-512.829	135.767	0.199	0.260
-511.814	-200.000	-0.027	-0.147
-510.799	-102.966	-0.201	-0.048
-509.785	-104.627	0.215	-0.050
-508.770	39.619	0.305	-0.274
-507.756	344.418	0.158	-0.311
-506.741	-37.164	-0.172	0.092
-505.726	-144.595	-0.255	0.024
-504.712	-200.000	0.056	0.270
-503.697	359.509	-0.086	0.173
-502.683	-115.825	-0.176	-0.033
-501.668	-200.000	-0.010	-0.153
-500.653	-96.839	0.390	-0.103
-499.639	-200.000	-0.041	0.190
-498.624	132.012	0.104	-0.135
-497.610	800.000	0.056	0.183
-496.595	601.967	-0.105	0.262
-495.581	800.000	-0.040	-0.130
-494.566	-86.716	-0.117	0.036
-493.551	93.750	0.217	0.246
-492.537	-45.388	0.293	-0.145
-491.522	-200.000	-0.041	-0.391
-490.508	69.722	-0.117	-0.121
-489.493	-200.000	-0.043	0.287
-488.478	-135.625	0.344	-0.041
-487.464	-200.000	-0.000	-0.358
-486.449	189.346	0.053	-0.080
-485.435	-163.239	-0.253	-0.012
-484.420	64.907	0.098	-0.099
-483.405	-200.000	0.038	-0.239
-482.391	236.686	-0.135	0.224
-481.376	241.989	0.072	-0.121
-480.362	204.079	-0.146	-0.227
-479.347	68.779	-0.063	-0.065
-478.332	-31.263	-0.328	-0.185
-477.318	-126.282	-0.372	0.056
-476.303	-20.615	0.319	-0.196
-475.289	273.006	0.137	0.243
-474.274	75.719	-0.074	-0.078
-473.259	800.000	-0.166	-0.567
-472.245	-112.058	0.253	0.051
-471.230	-54.826	0.303	0.137
-470.216	-26.406	-0.072	0.042
-469.201	5.418	-0.142	-0.105
-468.186	73.540	0.146	-0.153
-467.172	800.000	-0.024	-0.088
-466.157	800.000	-0.024	0.079
-465.143	800.000	-0.070	-0.300
-464.128	800.000	-0.056	0.169
-463.113	-60.274	0.377	-0.161
-462.099	-114.093	-0.186	0.036
-461.084	-58.894	-0.161	0.070
-460.070	800.000	-0.018	0.058
-459.055	38.512	0.198	0.177
-458.040	-200.000	-0.028	-0.212
-457.026	800.000	0.051	0.199
-456.011	232.750	-0.102	0.168
-454.997	-131.185	0.311	-0.041
-453.982	-118.947	-0.148	-0.026
-452.968	130.553	0.097	0.124
-451.953	-179.390	-0.513	0.011
-450.938	87.626	-0.263	-0.291
-449.924	-72.591	-0.294	-0.108
-448.909	-200.000	-0.082	-0.391
-447.895	102.726	0.099	-0.116
-446.880	-200.000	-0.045	0.207
-445.865	35.990	0.282	0.249
-444.851	-200.000	0.024	-0.166
-443.836	305.920	-0.104	-0.194
-442.822	-82.525	0.057	0.019
-441.807	-115.149	0.286	-0.054
-440.792	-111.775	-0.535	0.108
-439.778	-200.000	0.014	0.262
-438.763	-200.000	0.002	0.083
-437.749	-20.984	0.333	-0.204
-436.734	704.959	-0.029	-0.077
-435.719	800.000	0.034	0.127
-434.705	-114.598	-0.454	-0.087
-433.690	-53.053	-0.207	-0.095
-432.676	503.174	-0.105	-0.243
-431.661	-70.861	-0.453	0.171
-430.646	-39.235	0.273	-0.143
-429.632	13.804	-0.158	0.123
-428.617	-200.000	0.016	-0.309
-427.603	-35.473	-0.176	0.095
-426.588	-97.425	0.414	-0.108
-425.573	-142.048	0.327	0.033
-424.559	155.770	-0.075	-0.103
-423.544	-113.584	0.074	0.014
-422.530	-26.231	-0.380	0.223
-421.515	-132.747	0.156	0.020
-420.500	-43.168	0.119	0.060
-419.486	-200.000	-0.006	0.194
-418.471	32.641	-0.123	0.107
-417.457	474.585	0.169	0.381
-416.442	-120.832	0.104	-0.018
-415.428	800.000	0.003	-0.009
-414.413	800.000	-0.086	0.258
-413.398	800.000	0.054	0.175
-412.384	171.533	0.190	0.273
-411.369	-33.815	0.203	-0.112
-410.355	-147.962	-0.168	0.014
-409.340	-200.000	-0.043	-0.406
-408.325	-200.000	0.018	-0.210
-407.311	-200.000	0.014	0.149
-406.296	784.584	-0.051	0.141
-405.282	28.349	0.124	0.105
-404.267	-200.000	0.066	0.373
-403.252	-40.095	-0.119	0.062
-402.238	167.315	-0.075	-0.107
-401.223	-200.000	-0.015	-0.234
-400.209	65.928	0.154	-0.156
-399.194	180.236	-0.094	0.137
-398.179	96.128	-0.072	0.083
-397.165	-73.890	0.258	0.094
-396.150	-200.000	-0.010	-0.086
-395.136	285.830	0.164	-0.295
-394.121	106.964	0.300	0.355
-393.106	-137.000	-0.139	0.016
-392.092	-200.000	-0.009	0.088
-391.077	-200.000	-0.040	0.303
-390.063	231.385	0.198	0.324
-389.048	-83.232	0.145	0.047
-388.033	-144.133	0.270	0.025
-387.019	-115.661	-0.059	0.011
-386.004	44.000	-0.445	-0.407
-384.990	144.413	-0.084	0.111
-383.975	-86.382	0.217	0.066
-382.960	219.668	0.085	-0.136
-381.946	-144.624	-0.147	0.013
-380.931	-112.420	-0.075	0.015
-379.917	800.000	0.061	-0.181
-378.902	-62.715	0.140	-0.058
-377.888	-155.624	-0.139	-0.009
-376.873	328.603	-0.105	-0.201
-375.858	-85.767	-0.081	0.025
-374.844	-200.000	-0.021	0.322
-373.829	-139.034	-0.213	-0.023
-372.815	-200.000	-0.042	0.321
-371.800	449.094	0.111	-0.245
-370.785	442.580	0.081	0.177
-369.771	-64.370	-0.053	-0.022
-368.756	35.546	0.235	0.206
-367.742	29.482	-0.125	0.106
-366.727	210.758	-0.188	-0.294
-365.712	-105.634	0.106	-0.024
-364.698	-200.000	0.089	0.450
-363.683	454.571	-0.092	0.204
-362.669	-200.000	-0.001	-0.202
-361.654	-8.438	-0.135	0.091
-360.639	-200.000	0.060	0.311
-359.625	-184.711	-0.103	-0.002
-358.610	596.044	-0.137	-0.338
-357.596	800.000	-0.039	0.126
-356.581	-200.000	0.009	-0.198
-355.566	-136.480	0.203	-0.023
-354.552	800.000	-0.084	0.240
-353.537	-108.844	0.350	0.075
-352.523	-39.291	-0.267	-0.140
-351.508	-42.431	0.437	0.222
-350.493	-122.267	-0.170	0.028
-349.479	35.754	0.031	-0.027
-348.464	35.229	0.094	0.082
-347.450	-54.643	-0.086	0.039
-346.435	93.888	-0.079	-0.089
-345.420	331.040	0.087	-0.168
-344.406	800.000	0.068	0.208
-343.391	182.267	0.304	-0.447
-342.377	-99.686	0.080	-0.020
-341.362	-200.000	-0.002	0.151
-340.348	-200.000	-0.030	-0.268
-339.333	295.137	-0.107	-0.195
-338.318	-200.000	0.016	0.208
-337.304	99.967	-0.216	-0.250
-336.289	-52.547	-0.048	-0.022
-335.275	203.591	0.290	-0.447
-334.260	-107.496	-0.112	0.024
-333.245	136.940	0.095	-0.124
-332.231	-25.353	-0.166	0.098
-331.216	531.216	0.096	-0.227
-330.202	-200.000	-0.040	0.278
-329.187	-146.301	-0.116	-0.010
-328.172	-69.050	0.222	-0.085
-327.158	-41.080	0.308	0.158
-326.143	-88.861	0.184	-0.054
-325.129	592.881	0.060	-0.149
-324.114	-200.000	-0.046	0.277
-323.099	-13.629	-0.121	0.078
-322.085	252.831	0.114	-0.194
-321.070	-98.030	0.059	-0.015
-320.056	800.000	-0.014	-0.059
-319.041	-200.000	0.015	-0.173
-318.026	800.000	0.118	0.334
-317.012	-85.050	0.056	0.017
-315.997	-69.367	0.293	0.112
-314.983	-200.000	0.003	0.133
-313.968	-200.000	0.058	0.300
-312.953	-200.000	-0.052	0.348
-311.939	350.101	0.080	0.157
-310.924	120.673	0.189	-0.233
-309.910	-29.239	-0.227	-0.129
-308.895	15.506	-0.166	0.130
-307.880	-50.730	0.198	-0.093
-306.866	520.788	0.233	0.544
-305.851	-200.000	0.128	-0.599
-304.837	800.000	0.069	-0.254
-303.822	-200.000	-0.006	-0.234
-302.807	83.651	-0.117	-0.127
-301.793	-133.758	-0.256	-0.032
-300.778	-47.050	-0.357	-0.173
-299.764	-29.205	0.142	-0.081
-298.749	-121.878	-0.185	0.030
-297.735	605.765	-0.189	0.469
-296.720	800.000	-0.081	0.275
-295.705	-200.000	-0.009	-0.305
-294.691	247.172	0.167	-0.280
-293.676	800.000	-0.026	0.092
-292.662	800.000	-0.120	0.501
-291.647	70.645	0.070	-0.072
-290.632	20.684	-0.260	-0.209
-289.618	800.000	0.080	0.293
-288.603	-60.482	-0.105	0.044
-287.589	206.882	0.224	0.348
-286.574	-200.000	0.009	0.180
-285.559	40.137	-0.091	-0.081
-284.545	-200.000	0.001	-0.031
-283.530	324.098	0.132	0.250
-282.516	173.186	0.151	-0.216
-281.501	-2.223	0.224	-0.156
-280.486	-76.116	0.438	0.154
-279.472	800.000	0.083	-0.253
-278.457	-97.333	0.321	-0.083
-277.443	800.000	-0.029	0.108
-276.428	-200.000	0.030	0.226
-275.413	-1.040	0.210	-0.148
-274.399	800.000	-0.077	0.262
-273.384	58.061	-0.108	0.105
-272.370	119.830	0.188	-0.231
-271.355	72.554	0.050	0.052
-270.340	174.784	-0.205	-0.294
-269.326	178.861	0.057	-0.083
-268.311	800.000	-0.109	-0.317
-267.297	-28.431	0.145	-0.083
-266.282	-130.720	-0.138	-0.018
-265.267	800.000	0.013	-0.051
-264.253	-168.139	0.173	-0.007
-263.238	-86.101	-0.290	0.089
-262.224	-131.532	0.081	-0.011
-261.209	-200.000	-0.048	0.368
-260.195	516.328	-0.064	0.149
-259.180	-59.592	-0.182	0.077
-258.165	-200.000	-0.027	0.393
-257.151	12.997	-0.112	0.086
-256.136	211.518	-0.023	0.037
-255.122	800.000	0.025	-0.086
-254.107	284.706	-0.125	0.223
-253.092	548.473	-0.118	0.281
-252.078	-129.287	0.370	0.051
-251.063	129.334	-0.214	-0.272
-250.049	-200.000	0.051	0.270
-249.034	-51.482	0.230	0.107
-248.019	-71.362	0.345	0.128
-247.005	-152.788	-0.231	-0.016
-245.990	-200.000	-0.053	0.378
-244.976	674.272	-0.077	0.197
-243.961	-187.148	0.198	-0.003
-242.946	243.144	-0.048	0.079
-241.932	-200.000	-0.040	0.251
-240.917	156.556	0.072	-0.099
-239.903	20.946	0.149	-0.120
-238.888	800.000	-0.039	-0.135
-237.873	-200.000	0.024	0.218
-236.859	800.000	0.062	-0.198
-235.844	-121.236	-0.303	-0.050
-234.830	-144.058	0.097	-0.009
-233.815	684.353	0.039	-0.100
-232.800	560.906	0.145	-0.348
-231.786	29.486	-0.141	0.119
-230.771	-11.529	0.281	0.184
-229.757	28.404	-0.149	-0.125
-228.742	800.000	-0.100	0.275
-227.727	800.000	0.038	-0.124
-226.713	800.000	0.015	0.063
-225.698	186.131	0.014	-0.021
-224.684	-101.119	-0.197	-0.048
-223.669	266.725	-0.192	-0.333
-222.655	-200.000	-0.039	0.307
-221.640	-84.433	-0.212	-0.066
-220.625	149.117	0.372	0.500
-219.611	7.893	-0.201	-0.149
-218.596	-37.653	0.164	0.087
-217.582	14.172	-0.137	0.106
-216.567	281.601	0.175	-0.311
-215.552	-200.000	-0.026	0.255
-214.538	34.510	-0.021	-0.018
-213.523	-151.848	-0.235	-0.017
-212.509	-83.028	0.284	0.091
-211.494	-45.165	0.341	-0.168
-210.479	-135.660	0.272	0.032
-209.465	-197.969	0.400	0.002
-208.450	-200.000	-0.049	-0.539
-207.436	-200.000	-0.011	0.136
-206.421	-20.796	-0.191	0.116
-205.406	-102.414	-0.126	-0.030
-204.392	37.590	-0.169	0.149
-203.377	686.897	0.115	-0.297
-202.363	-98.703	-0.369	-0.093
-201.348	278.615	-0.068	0.120
-200.333	-66.402	-0.120	-0.047
-199.319	8.081	0.095	-0.071
-198.304	103.150	0.340	-0.395
-197.290	-49.505	0.159	0.075
-196.275	-84.698	-0.124	0.039
-195.260	-46.859	0.162	0.078
-194.246	-53.426	0.076	0.034
-193.231	-200.000	-0.007	0.107
-192.217	44.433	-0.043	-0.039
-191.202	31.188	0.395	0.336
-190.187	-187.434	0.227	0.003
-189.173	-200.000	-0.004	-0.360
-188.158	751.393	0.067	0.179
-187.144	-200.000	-0.048	0.274
-186.129	610.100	0.097	-0.240
-185.114	-200.000	0.021	0.119
-184.100	316.207	-0.034	-0.064
-183.085	412.058	0.111	-0.234
-182.071	92.744	0.138	0.154
-181.056	93.456	0.231	0.259
-180.042	-43.343	-0.092	0.046
-179.027	468.794	0.063	-0.141
-178.012	-30.154	-0.132	-0.074
-176.998	9.909	0.197	-0.148
-175.983	77.735	-0.037	0.039
-174.969	-30.441	-0.237	-0.133
-173.954	75.090	-0.216	-0.226
-172.939	-200.000	0.041	0.237
-171.925	-17.858	-0.168	0.104
-170.910	33.578	0.226	0.194
-169.896	-200.000	0.007	-0.510
-168.881	-78.212	-0.160	0.054
-167.866	92.688	0.205	0.229
-166.852	-134.620	0.159	0.019
-165.837	-200.000	0.008	0.252
-164.823	-151.169	0.262	-0.019
-163.808	51.201	0.156	-0.147
-162.793	-25.232	0.130	0.076
-161.779	-144.542	-0.109	0.010
-160.764	26.016	0.370	0.305
-159.750	200.543	-0.057	-0.087
-158.735	16.817	-0.171	-0.134
-157.720	-9.236	-0.195	0.129
-156.706	43.569	-0.142	0.128
-155.691	119.680	-0.017	0.021
-154.677	-131.179	-0.251	-0.033
-153.662	253.849	0.105	-0.178
-152.647	-83.071	0.253	0.081
-151.633	-85.488	-0.198	-0.061
-150.618	21.509	0.234	-0.188
-149.604	-41.702	-0.132	0.067
-148.589	-200.000	-0.027	-0.123
-147.574	250.678	0.042	0.071
-146.560	-100.763	-0.079	-0.019
-145.545	-200.000	-0.007	-0.384
-144.531	300.964	0.079	0.144
-143.516	302.976	-0.127	-0.232
-142.502	148.941	0.148	-0.198
-141.487	505.044	-0.130	-0.297
-140.472	-200.000	0.024	-0.112
-139.458	-97.289	-0.156	0.040
-138.443	-200.000	-0.075	-0.429
-137.429	-200.000	-0.004	0.108
-136.414	251.387	-0.112	-0.188
-135.399	-200.000	-0.018	-0.178
-134.385	-132.005	-0.142	0.018
-133.370	66.123	-0.073	0.073
-132.356	-2.264	-0.146	-0.101
-131.341	78.779	-0.062	-0.066
-130.326	22.521	-0.261	-0.211
-129.312	-200.000	0.008	-0.146
-128.297	-200.000	0.026	0.283
-127.283	-200.000	0.024	0.452
-126.268	424.193	-0.031	-0.066
-125.253	668.397	0.033	-0.085
-124.239	109.052	-0.142	0.168
-123.224	82.249	0.200	0.214
-122.210	94.271	-0.205	0.230
-121.195	254.002	0.154	-0.261
-120.180	123.784	-0.055	0.068
-119.166	108.251	0.149	0.176
-118.151	4.961	0.183	0.133
-117.137	-200.000	0.381	-0.001
-116.122	-45.938	0.277	-0.135
-115.107	800.000	0.008	0.030
-114.093	-200.000	-0.004	-0.060
-113.078	-200.000	-0.031	0.150
-112.064	800.000	-0.062	0.208
-111.049	98.215	-0.160	0.181
-110.034	-57.367	-0.170	-0.074
-109.020	-84.364	0.059	-0.018
-108.005	-116.279	0.329	-0.060
-106.991	-200.000	-0.043	-0.273
-105.976	800.000	0.101	0.283
-104.962	-200.000	-0.009	0.165
-103.947	415.511	-0.090	-0.189
-102.932	-143.339	0.094	-0.009
-101.918	33.556	-0.260	-0.223
-100.903	-50.335	-0.118	-0.055
-99.889	-200.000	0.007	0.137
-98.874	-37.629	-0.027	-0.014
-97.859	604.239	0.099	-0.244
-96.845	225.647	0.132	0.210
-95.830	-109.925	-0.229	-0.047
-94.816	-200.000	-0.021	0.113
-93.801	800.000	0.143	-0.416
-92.786	1.048	-0.085	-0.060
-91.772	14.875	-0.204	-0.158
-90.757	-131.101	0.065	0.009
-89.743	800.000	0.034	-0.138
-88.728	-59.213	0.304	-0.129
-87.713	-107.704	-0.212	0.046
-86.699	-200.000	0.001	-0.162
-85.684	106.846	0.271	-0.317
-84.670	29.485	0.148	0.124
-83.655	-33.952	-0.083	-0.045
-82.640	-123.855	-0.206	-0.032
-81.626	-45.348	-0.098	0.048
-80.611	-12.239	-0.086	-0.056
-79.597	-92.422	0.170	-0.047
-78.582	64.879	-0.147	0.146
-77.567	800.000	0.046	-0.139
-76.553	-136.190	0.341	0.039
-75.538	-169.201	0.296	0.011
-74.524	-110.791	0.120	-0.024
-73.509	800.000	0.078	0.266
-72.494	800.000	0.071	-0.221
-71.480	679.005	0.135	0.345
-70.465	-52.246	0.238	0.109
-69.451	-137.250	-0.139	0.016
-68.436	-105.959	0.195	0.043
-67.422	-200.000	-0.006	-0.302
-66.407	-47.839	-0.120	-0.057
-65.392	800.000	0.008	0.034
-64.378	201.848	0.155	-0.236
-63.363	271.419	-0.125	0.217
-62.349	800.000	0.050	-0.162
-61.334	70.012	-0.742	-0.755
-60.319	8.447	0.631	0.468
-59.305	800.000	-0.359	-1.169
-58.290	121.334	0.756	0.927
-57.276	322.289	0.771	1.446
-56.261	-200.000	96.048	573.562
-55.246	648.182	1378.942	3473.523
-54.232	198.059	2550.196	3840.085
-53.217	119.954	2142.377	2616.842
-52.203	44.622	1606.497	1454.732
-51.188	36.389	1344.991	1168.333
-50.173	33.188	1302.731	1112.783
-49.159	55.300	1348.945	1284.972
-48.144	57.593	1366.339	1315.193
-47.130	36.463	1325.631	1151.777
-46.115	33.010	1308.031	1116.079
-45.100	32.876	1303.310	1111.218
-44.086	32.792	1300.963	1108.682
-43.071	32.777	1298.302	1106.281
-42.057	32.820	1296.126	1104.632
-41.042	32.715	1294.790	1102.839
-40.027	32.763	1293.594	1102.055
-39.013	32.759	1291.437	1100.150
-37.998	32.792	1289.753	1098.868
-36.984	32.741	1288.239	1097.232
-35.969	32.894	1286.259	1096.395
-34.954	32.860	1284.289	1094.474
-33.940	32.959	1283.015	1093.916
-32.925	33.128	1281.319	1093.409
-31.911	32.934	1280.168	1091.259
-30.896	32.941	1278.744	1090.044
-29.881	32.901	1277.677	1088.860
-28.867	32.882	1276.136	1087.396
-27.852	32.971	1274.837	1086.756
-26.838	33.019	1272.760	1085.216
-25.823	32.983	1271.791	1084.142
-24.809	32.968	1270.546	1082.950
-23.794	32.885	1269.465	1081.509
-22.779	32.932	1267.949	1080.448
-21.765	33.096	1266.137	1079.794
-20.750	32.845	1265.795	1078.026
-19.736	32.835	1264.414	1076.754
-18.721	32.946	1263.271	1076.370
-17.706	32.876	1261.939	1074.791
-16.692	32.811	1261.025	1073.603
-15.677	32.794	1260.075	1072.654
-14.663	32.886	1258.606	1071.884
-13.648	32.860	1257.614	1070.846
-12.633	32.886	1256.819	1070.275
-11.619	32.904	1255.574	1069.277
-10.604	32.914	1254.761	1068.596
-9.590	32.774	1254.411	1067.464
-8.575	32.759	1252.915	1066.065
-7.560	32.668	1252.446	1065.105
-6.546	32.763	1251.498	1064.795
-5.531	32.828	1250.205	1064.020
-4.517	32.741	1249.565	1062.943
-3.502	32.804	1248.778	1062.589
-2.487	32.734	1248.077	1061.552
-1.473	32.791	1243.805	1058.196
-0.458	31.335	1228.769	1037.288
0.556	27.110	1211.151	999.340
1.571	23.317	1216.255	982.473
2.586	22.421	1230.907	989.188
3.600	21.714	1219.887	976.307
4.615	16.599	1148.715	892.354
5.629	8.534	1074.960	795.032
6.644	4.873	1055.689	762.809
7.659	4.696	1053.140	760.034
8.673	4.731	1052.012	759.322
9.688	4.760	1050.757	758.494
10.702	4.972	1048.855	758.082
11.717	9.294	1055.459	783.899
12.731	16.691	1065.673	827.710
13.746	19.425	1068.146	842.937
14.761	18.543	1066.708	837.419
15.775	17.454	1064.706	830.464
16.790	16.483	1062.227	823.727
17.804	15.689	1060.999	818.839
18.819	15.415	1059.343	816.152
19.834	15.062	1058.742	813.901
20.848	14.842	1057.984	812.178
21.863	14.704	1056.719	810.468
22.877	14.639	1056.240	809.713
23.892	14.743	1055.515	809.591
24.907	14.507	1055.143	808.086
25.921	14.641	1053.881	807.697
26.936	14.552	1052.829	806.392
27.950	14.695	1051.119	805.701
28.965	14.755	1049.715	804.842
29.980	14.723	1048.701	803.841
30.994	14.909	1047.111	803.442
32.009	14.977	1046.190	802.989
33.023	14.856	1045.046	801.465
34.038	14.816	1044.152	800.515
35.053	14.596	1043.549	798.928
36.067	14.696	1042.248	798.337
37.082	14.690	1041.886	797.962
38.096	14.865	1040.848	797.932
39.111	14.759	1040.351	796.973
40.126	14.735	1038.765	795.575
41.140	14.496	1037.766	793.602
42.155	14.397	1036.855	792.366
43.169	14.282	1035.848	790.977
44.184	14.393	1034.499	790.408
45.199	14.471	1033.461	789.913
46.213	14.558	1032.108	789.218
47.228	14.672	1031.426	789.165
48.242	14.773	1030.630	788.966
49.257	14.621	1029.419	787.253
50.271	14.803	1028.752	787.529
51.286	14.819	1027.725	786.751
52.301	14.700	1026.956	785.530
53.315	14.571	1026.037	784.150
54.330	14.623	1024.699	783.302
55.344	14.500	1024.033	782.149
56.359	14.668	1023.017	782.090
57.374	14.607	1021.821	780.821
58.388	14.479	1021.150	779.644
59.403	14.355	1020.896	778.798
60.417	14.461	1020.053	778.582
61.432	14.402	1019.149	777.548
62.447	14.466	1017.893	776.821
63.461	14.297	1017.280	775.496
64.476	14.286	1016.427	774.725
65.490	14.441	1015.357	774.563
66.505	14.403	1015.065	774.094
67.520	14.368	1014.380	773.340
68.534	14.381	1013.501	772.663
69.549	14.535	1012.518	772.559
70.563	14.375	1011.673	771.105
71.578	14.365	1010.938	770.431
72.593	14.308	1010.144	769.492
73.607	14.187	1009.976	768.741
74.622	14.239	1009.350	768.436
75.636	14.366	1008.480	768.288
76.651	14.242	1008.040	767.314
77.666	14.231	1007.481	766.770
78.680	14.333	1006.492	766.422
79.695	14.307	1006.159	765.979
80.709	14.349	1005.454	765.565
81.724	14.601	1004.095	765.623
82.739	14.431	1004.065	764.750
83.753	14.730	1003.196	765.393
84.768	14.815	1002.174	764.931
85.782	14.842	1001.297	764.318
86.797	14.689	1000.683	763.082
87.812	14.688	999.537	762.139
88.826	14.634	998.627	761.132
89.841	14.697	998.089	760.938
90.855	14.797	997.234	760.678
91.870	14.825	995.846	759.676
92.884	14.777	995.370	759.028
93.899	14.911	994.438	758.860
94.914	14.954	993.694	758.418
95.928	14.849	993.356	757.619
96.943	14.769	992.271	756.363
97.957	14.776	991.530	755.760
98.972	14.805	990.031	754.683
99.987	14.870	989.390	754.422
101.001	14.788	988.693	753.451
102.016	14.820	987.847	752.886
103.030	14.750	987.235	752.036
104.045	14.944	986.091	751.970
105.060	14.799	984.996	750.419
106.074	14.538	984.369	748.705
107.089	14.402	983.517	747.381
108.103	14.369	982.279	746.226
109.118	14.507	981.134	745.908
110.133	14.485	980.241	745.064
111.147	14.524	979.702	744.760
112.162	14.513	978.933	744.062
113.176	14.521	977.856	743.215
114.191	14.558	977.755	743.237
115.206	14.500	977.037	742.364
116.220	14.546	976.042	741.749
117.235	14.544	974.851	740.770
118.249	14.587	973.903	740.174
119.264	14.534	973.381	739.479
120.279	14.528	972.340	738.594
121.293	14.471	971.548	737.674
122.308	14.444	971.075	737.132
123.322	14.470	969.966	736.339
124.337	14.355	969.010	735.039
125.352	14.481	967.666	734.509
126.366	14.577	966.741	734.167
127.381	14.386	966.649	733.193
128.395	14.492	964.836	732.216
129.410	14.567	964.431	732.173
130.424	14.497	964.301	731.703
131.439	14.664	963.017	731.398
132.454	14.632	962.206	730.576
133.468	14.614	961.090	729.584
134.483	14.757	960.130	729.416
135.497	14.728	959.381	728.654
136.512	14.734	958.835	728.203
137.527	14.579	958.395	727.130
138.541	14.678	957.443	726.773
139.556	14.725	956.960	726.547
140.570	14.730	956.188	725.919
141.585	14.955	955.147	726.040
142.600	14.840	954.087	724.672
143.614	15.008	953.499	724.888
144.629	14.956	952.923	724.161
145.643	14.929	951.796	723.123
146.658	14.804	950.745	721.723
147.673	14.733	949.826	720.656
148.687	14.927	948.349	720.304
149.702	14.712	947.623	718.763
150.716	14.645	947.706	718.478
151.731	14.703	946.627	717.843
152.746	14.661	946.422	717.442
153.760	14.630	945.844	716.809
154.775	14.881	944.984	717.170
155.789	14.785	944.398	716.251
156.804	14.867	943.432	715.807
157.819	14.950	942.580	715.450
158.833	15.031	942.285	715.513
159.848	15.076	941.530	715.068
160.862	14.992	940.655	713.981
161.877	14.749	939.723	712.174
162.892	14.728	938.894	711.391
163.906	14.757	938.118	710.866
164.921	14.828	936.778	710.089
165.935	14.836	936.051	709.510
166.950	14.837	935.386	708.946
167.964	14.879	934.644	708.498
168.979	14.774	934.035	707.530
169.994	14.798	932.966	706.759
171.008	14.860	932.044	706.259
172.023	14.999	931.237	706.173
173.037	15.046	930.906	706.056
174.052	14.975	930.114	705.096
175.067	14.949	929.191	704.224
176.081	14.864	928.327	703.150
177.096	14.858	928.232	702.991
178.110	14.917	927.233	702.417
179.125	14.807	926.954	701.685
180.140	14.958	926.020	701.548
181.154	15.161	925.654	702.058
182.169	15.077	925.494	701.525
183.183	15.092	924.727	700.943
184.198	15.188	923.975	700.713
185.213	15.198	922.976	699.936
186.227	15.238	922.807	699.911
187.242	15.138	921.917	698.759
188.256	15.448	921.044	699.328
189.271	15.242	920.596	698.068
190.286	15.117	919.573	696.708
191.300	14.943	918.628	695.206
192.315	14.859	918.006	694.327
193.329	14.820	917.938	694.051
194.344	14.822	917.209	693.447
195.359	15.064	916.966	694.208
196.373	15.262	915.759	694.050
197.388	15.292	915.772	694.123
198.402	15.472	915.029	694.241
199.417	15.463	914.297	693.588
200.432	15.479	914.098	693.444
201.446	15.560	913.414	693.199
202.461	15.554	912.942	692.751
203.475	15.644	912.349	692.611
204.490	15.381	911.422	690.763
205.504	15.316	910.482	689.723
206.519	15.279	909.923	689.087
207.534	15.404	909.030	688.864
208.548	15.368	908.710	688.412
209.563	15.409	908.061	688.026
210.577	15.478	907.408	687.754
211.592	15.540	906.861	687.535
212.607	15.530	905.987	686.768
213.621	15.585	905.033	686.210
214.636	15.592	904.297	685.621
215.650	15.501	904.143	685.070
216.665	15.558	903.079	684.437
217.680	15.595	902.560	684.133
218.694	15.689	902.111	684.113
219.709	15.634	901.295	683.212
220.723	15.639	900.816	682.809
221.738	15.604	900.033	682.013
222.753	15.617	899.364	681.496
223.767	15.654	898.856	681.201
224.782	15.756	897.901	680.831
225.796	15.851	897.752	681.041
226.811	15.722	897.333	680.142
227.826	15.695	896.307	679.195
228.840	15.683	895.102	678.173
229.855	15.562	894.772	677.375
230.869	15.657	893.704	676.891
231.884	15.712	893.243	676.703
232.899	15.715	892.483	676.081
233.913	15.785	891.721	675.725
234.928	15.716	890.981	674.824
235.942	15.593	890.787	674.124
236.957	15.678	890.298	674.037
237.972	15.494	889.762	672.835
238.986	15.650	889.159	672.943
240.001	15.624	888.619	672.370
241.015	15.631	887.704	671.647
242.030	15.781	887.131	671.754
243.045	15.899	886.529	671.709
244.059	15.830	885.915	670.909
245.074	15.785	885.694	670.504
246.088	15.784	884.907	669.842
247.103	16.035	884.004	670.099
248.117	16.101	883.795	670.142
249.132	16.210	883.191	670.060
250.147	16.233	882.914	669.880
251.161	16.326	881.947	669.456
252.176	16.273	881.614	668.934
253.190	16.376	880.799	668.667
254.205	16.303	880.116	667.800
255.220	16.392	879.507	667.630
256.234	16.365	878.964	667.051
257.249	16.411	878.050	666.479
258.263	16.368	877.448	665.795
259.278	16.355	876.936	665.297
260.293	16.454	876.404	665.225
261.307	16.515	875.424	664.660
262.322	16.476	875.105	664.206
263.336	16.659	873.861	663.922
264.351	16.622	873.295	663.288
265.366	16.469	873.385	662.696
266.380	16.471	872.555	662.015
267.395	16.537	871.688	661.557
268.409	16.422	870.736	660.329
269.424	16.512	869.881	659.971
270.439	16.458	869.795	659.636
271.453	16.458	868.911	658.909
272.468	16.341	868.489	658.077
273.482	16.437	867.442	657.597
274.497	16.380	867.244	657.168
275.512	16.430	866.885	657.032
276.526	16.435	866.299	656.548
277.541	16.428	865.792	656.080
278.555	16.582	865.150	656.133
279.570	16.786	864.314	656.229
280.585	16.835	863.415	655.681
281.599	16.601	862.726	654.195
282.614	16.622	862.564	654.094
283.628	16.651	861.888	653.635
284.643	16.662	861.284	653.163
285.657	16.545	861.211	652.598
286.672	16.671	859.808	651.962
287.687	16.647	859.377	651.485
288.701	16.804	858.916	651.682
289.716	16.881	858.285	651.441
290.730	16.760	857.593	650.395
291.745	16.624	857.390	649.659
292.760	16.870	856.116	649.581
293.774	16.963	855.761	649.610
294.789	16.800	855.528	648.749
295.803	16.819	854.558	648.031
296.818	16.824	853.774	647.397
297.833	16.881	853.038	646.998
298.847	16.725	852.513	645.949
299.862	16.695	852.248	645.579
300.876	16.916	851.996	646.170
301.891	16.936	851.538	645.841
302.906	16.781	851.086	644.852
303.920	16.909	850.421	644.778
304.935	17.022	850.006	644.837
305.949	17.079	849.172	644.362
306.964	17.010	848.410	643.466
307.979	17.007	847.709	642.866
308.993	17.095	847.451	642.946
310.008	17.127	846.883	642.581
311.022	17.134	846.079	641.940
312.037	17.154	845.360	641.412
313.052	16.955	844.792	640.175
314.066	16.844	844.563	639.525
315.081	16.817	844.091	639.009
316.095	17.006	842.984	638.825
317.110	16.969	842.571	638.318
318.125	17.083	842.011	638.268
319.139	17.049	841.731	637.871
320.154	16.958	841.429	637.242
321.168	17.176	840.617	637.388
322.183	17.093	840.218	636.720
323.197	17.133	839.783	636.483
324.212	17.109	839.172	635.872
325.227	17.258	838.258	635.682
326.241	17.116	837.937	634.853
327.256	17.069	837.598	634.362
328.270	17.088	836.737	633.726
329.285	16.999	836.574	633.212
330.300	17.003	835.546	632.393
331.314	17.090	835.122	632.342
332.329	17.203	835.023	632.631
333.343	17.277	834.486	632.445
334.358	17.116	834.364	631.696
335.373	17.247	833.765	631.676
336.387	17.394	833.110	631.667
337.402	17.339	833.105	631.403
338.416	17.233	833.259	631.070
339.431	17.367	832.422	630.878
340.446	17.531	831.872	631.013
341.460	17.625	831.346	630.906
342.475	17.514	831.182	630.317
343.489	17.705	830.334	630.322
344.504	17.692	830.284	630.180
345.519	17.581	830.171	629.629
346.533	17.710	829.455	629.508
347.548	17.637	828.527	628.477
348.562	17.553	827.896	627.634
349.577	17.580	827.225	627.169
350.592	17.316	826.805	625.823
351.606	17.404	826.296	625.707
352.621	17.399	825.501	625.029
353.635	17.538	824.797	624.953
354.650	17.647	824.014	624.704
355.665	17.631	824.004	624.583
356.679	17.584	823.329	623.844
357.694	17.613	822.417	623.205
358.708	17.717	821.962	623.185
359.723	17.633	821.145	622.201
360.738	17.692	820.823	622.120
361.752	17.678	820.346	621.651
362.767	17.675	819.758	621.139
363.781	17.735	819.469	621.083
364.796	17.927	818.753	621.183
365.810	17.891	818.514	620.818
366.825	17.954	818.217	620.765
367.840	17.978	817.478	620.236
368.854	17.864	816.804	619.257
369.869	17.904	816.614	619.205
370.883	17.907	816.538	619.102
371.898	18.006	816.121	619.091
372.913	17.924	815.629	618.364
373.927	17.999	814.713	617.890
374.942	17.817	814.954	617.359
375.956	17.996	814.217	617.393
376.971	18.084	814.027	617.509
377.986	18.339	812.667	617.345
379.000	18.355	812.371	617.122
380.015	18.015	812.645	616.051
381.029	18.187	811.636	615.849
382.044	18.263	810.972	615.566
383.059	18.267	810.331	615.037
384.073	18.117	809.445	613.772
385.088	18.053	809.258	613.348
386.102	18.088	808.616	612.932
387.117	18.204	807.922	612.768
388.132	18.202	807.080	612.066
389.146	18.306	806.467	611.920
390.161	18.320	806.377	611.848
391.175	18.409	805.933	611.773
392.190	18.235	805.507	610.775
393.205	18.198	805.009	610.212
394.219	18.107	804.862	609.721
395.234	18.232	804.659	609.960
396.248	18.102	804.139	609.048
397.263	18.034	803.375	608.175
398.278	18.102	803.185	608.219
399.292	18.226	802.635	608.189
400.307	18.170	802.199	607.607
401.321	18.094	801.990	607.123
402.336	18.218	801.449	607.100
403.350	18.271	800.739	606.696
404.365	18.332	800.485	606.668
405.380	18.451	799.841	606.546
406.394	18.479	799.247	606.140
407.409	18.555	799.071	606.222
408.423	18.555	798.748	605.926
409.438	18.600	798.223	605.630
410.453	18.501	798.389	605.354
411.467	18.604	797.773	605.196
412.482	18.680	797.344	605.085
413.496	18.866	796.713	605.210
414.511	18.640	796.754	604.391
415.526	18.659	796.291	604.051
416.540	18.711	795.462	603.554
417.555	18.776	795.011	603.385
418.569	18.744	794.744	603.016
419.584	18.681	794.309	602.412
420.599	18.756	794.095	602.459
421.613	156.436	1370.786	1793.074
422.628	135.444	1454.819	1793.189
