DTS Sentinel unit serial number:	SN413079Multiplexer serial number:	ORYXHardware model number:	OX4-SRSoftware version number:	ORYX F/W v4.00 Oryx Data Collector v3.7.2.0data status	okinstallation	princeton_trtdifferential loss correction	single-endedforward channel	channel 1reverse channel	N/Adate	2019/09/19time	10:34:35forward acquisition time	60.00reverse acquisition time	0.00gamma	496.2192k internal	0.2339k external	0.2339temperature offset calibration	1.0008default loss term (dB/km)	0.3790temperature slope calibration	1.0000multiplexer offset coefficient	1.0000multiplexer slope coefficient	1.0000fibre end	0.00T internal ref (°C)	24.44T ext. ref 1 (°C)	0.72T ext. ref 2 (°C)	19.96length (m)	temperature (°C)	Stokes	anti-Stokes-747.200	-200.000	-0.002	-0.286
-746.185	-55.855	-0.177	0.079
-745.171	800.000	0.048	0.138
-744.156	-81.060	-0.242	0.080
-743.142	217.261	-0.179	0.286
-742.127	294.816	-0.234	0.429
-741.112	-1.693	-0.278	-0.196
-740.098	-94.000	-0.295	-0.081
-739.083	-85.052	0.226	-0.071
-738.069	-200.000	-0.009	0.190
-737.054	-56.860	0.042	0.019
-736.039	800.000	-0.093	0.358
-735.025	-11.661	-0.057	0.038
-734.010	-55.961	-0.267	0.120
-732.996	-200.000	-0.025	0.199
-731.981	-110.183	0.189	0.040
-730.966	110.883	-0.129	0.156
-729.952	-154.062	-0.278	-0.019
-728.937	-73.679	-0.053	0.019
-727.923	37.564	-0.113	-0.101
-726.908	-200.000	-0.005	-0.316
-725.894	101.907	-0.147	-0.172
-724.879	90.669	-0.442	-0.497
-723.864	800.000	-0.007	0.022
-722.850	380.863	0.096	-0.198
-721.835	207.948	0.036	-0.056
-720.821	-200.000	0.006	0.129
-719.806	-109.157	-0.108	0.023
-718.791	133.160	0.050	-0.065
-717.777	800.000	-0.116	-0.365
-716.762	49.002	0.084	0.079
-715.748	57.975	-0.254	-0.249
-714.733	33.734	0.044	0.039
-713.718	800.000	0.118	-0.403
-712.704	-96.981	-0.202	0.053
-711.689	-91.422	-0.046	-0.013
-710.675	61.093	-0.118	0.117
-709.660	111.264	-0.166	-0.201
-708.645	800.000	-0.032	-0.133
-707.631	-200.000	-0.024	-0.232
-706.616	429.733	0.062	0.133
-705.602	800.000	0.040	0.121
-704.587	10.654	-0.079	0.061
-703.572	-200.000	0.006	-0.151
-702.558	800.000	0.091	0.379
-701.543	800.000	-0.086	-0.358
-700.529	-151.530	-0.214	-0.016
-699.514	-17.021	-0.126	0.079
-698.499	555.204	0.161	0.388
-697.485	120.018	0.217	-0.269
-696.470	-200.000	0.006	-0.092
-695.456	306.364	0.021	0.040
-694.441	318.975	-0.108	0.205
-693.426	5.666	0.302	0.223
-692.412	501.306	0.198	-0.457
-691.397	-200.000	0.005	-0.293
-690.383	547.097	-0.117	-0.279
-689.368	10.161	-0.088	-0.067
-688.354	525.960	0.064	0.150
-687.339	310.411	-0.119	-0.224
-686.324	98.437	-0.073	-0.084
-685.310	-200.000	0.002	0.276
-684.295	-157.093	-0.400	0.024
-683.281	-41.976	-0.082	0.042
-682.266	800.000	-0.068	0.194
-681.251	-104.865	-0.270	0.062
-680.237	-62.659	-0.158	0.066
-679.222	-200.000	-0.026	-0.145
-678.208	800.000	-0.091	-0.366
-677.193	547.367	0.022	-0.053
-676.178	93.393	-0.149	0.169
-675.164	-116.913	-0.214	0.039
-674.149	-79.276	0.154	-0.052
-673.135	504.528	0.226	0.523
-672.120	436.201	0.092	0.200
-671.105	722.759	0.136	-0.363
-670.091	-200.000	0.013	-0.189
-669.076	-17.613	0.118	-0.074
-668.062	65.417	0.298	-0.302
-667.047	-200.000	0.009	0.077
-666.032	-2.419	-0.130	0.091
-665.018	-200.000	-0.018	0.109
-664.003	-83.732	0.053	-0.017
-662.989	364.653	-0.161	-0.325
-661.974	-200.000	0.043	-0.242
-660.959	-51.798	0.248	0.116
-659.945	-113.819	-0.248	-0.048
-658.930	26.258	0.223	-0.186
-657.916	800.000	0.036	-0.142
-656.901	-86.053	-0.235	0.073
-655.886	-151.293	-0.144	0.011
-654.872	103.345	-0.088	-0.103
-653.857	-66.829	0.211	0.083
-652.843	-96.492	-0.276	0.073
-651.828	183.792	-0.168	-0.249
-650.814	236.661	0.106	-0.175
-649.799	72.196	-0.155	0.162
-648.784	-82.207	-0.384	0.125
-647.770	-200.000	0.034	-0.323
-646.755	-45.675	0.233	-0.115
-645.741	-61.669	-0.154	-0.065
-644.726	228.201	0.196	0.319
-643.711	-200.000	-0.016	0.158
-642.697	247.362	0.107	-0.181
-641.682	219.967	-0.031	-0.050
-640.668	-37.438	0.151	-0.081
-639.653	-65.291	-0.470	-0.189
-638.638	-35.811	0.025	-0.014
-637.624	-65.560	-0.129	-0.052
-636.609	-200.000	0.053	0.391
-635.595	-111.362	0.357	-0.073
-634.580	122.609	-0.173	0.216
-633.565	444.975	0.188	0.413
-632.551	-200.000	0.008	-0.067
-631.536	57.141	-0.233	-0.227
-630.522	390.483	-0.148	-0.307
-629.507	7.974	-0.192	-0.144
-628.492	587.805	0.087	0.215
-627.478	162.755	0.036	0.051
-626.463	129.422	-0.095	-0.121
-625.449	69.887	0.175	-0.180
-624.434	-70.636	-0.205	0.077
-623.419	-132.872	-0.035	0.004
-622.405	64.210	0.164	-0.165
-621.390	437.233	0.080	0.175
-620.376	800.000	0.031	0.132
-619.361	-30.297	0.205	0.116
-618.346	-200.000	0.034	-0.315
-617.332	80.559	-0.107	-0.115
-616.317	-131.365	-0.145	0.019
-615.303	154.347	-0.278	0.381
-614.288	-200.000	0.019	-0.144
-613.273	-89.498	0.101	0.030
-612.259	49.660	0.321	-0.302
-611.244	209.066	-0.142	-0.223
-610.230	-200.000	-0.004	0.113
-609.215	-4.674	0.102	0.070
-608.201	287.131	0.141	0.254
-607.186	60.961	0.245	0.243
-606.171	265.744	-0.063	-0.109
-605.157	-118.652	0.146	0.026
-604.142	800.000	-0.101	-0.296
-603.128	-200.000	0.005	-0.172
-602.113	-200.000	-0.013	0.080
-601.098	579.981	-0.094	-0.229
-600.084	422.867	0.093	-0.199
-599.069	800.000	-0.032	0.098
-598.055	69.808	-0.066	-0.068
-597.040	25.261	-0.229	0.189
-596.025	-116.411	-0.308	0.057
-595.011	-200.000	-0.008	-0.117
-593.996	-63.742	0.237	0.097
-592.982	3.313	0.066	0.048
-591.967	30.104	-0.031	0.027
-590.952	800.000	0.046	0.187
-589.938	462.249	-0.012	-0.027
-588.923	216.422	-0.024	-0.038
-587.909	-75.356	-0.153	-0.055
-586.894	152.933	-0.215	-0.293
-585.879	1.669	-0.040	-0.029
-584.865	550.423	0.095	0.228
-583.850	800.000	-0.088	-0.377
-582.836	-200.000	0.039	-0.192
-581.821	800.000	0.062	-0.175
-580.806	52.931	0.108	-0.103
-579.792	103.827	0.087	0.102
-578.777	49.173	-0.116	-0.109
-577.763	800.000	-0.086	0.293
-576.748	65.895	0.263	0.265
-575.733	-47.182	0.057	-0.028
-574.719	75.063	-0.067	0.071
-573.704	-164.301	0.216	-0.010
-572.690	150.413	0.124	0.168
-571.675	-200.000	-0.006	-0.231
-570.661	-200.000	-0.037	0.276
-569.646	-30.620	0.077	0.044
-568.631	170.141	-0.176	0.252
-567.617	-200.000	-0.019	0.330
-566.602	-200.000	0.052	-0.343
-565.588	-86.927	0.290	-0.088
-564.573	800.000	-0.074	-0.221
-563.558	34.527	-0.171	0.148
-562.544	-158.671	-0.112	0.006
-561.529	-200.000	0.018	0.262
-560.515	52.861	0.196	-0.187
-559.500	11.498	0.130	-0.099
-558.485	236.629	-0.142	-0.234
-557.471	-130.848	0.174	0.023
-556.456	-200.000	0.037	-0.170
-555.442	393.359	-0.155	-0.321
-554.427	-83.762	-0.349	-0.111
-553.412	-39.081	-0.056	0.029
-552.398	-200.000	0.014	-0.127
-551.383	800.000	0.040	0.133
-550.369	-10.425	-0.236	-0.156
-549.354	350.756	0.037	-0.072
-548.339	273.578	0.051	0.090
-547.325	800.000	0.047	0.172
-546.310	29.781	0.173	-0.147
-545.296	92.614	0.174	-0.195
-544.281	800.000	-0.071	-0.256
-543.266	-200.000	-0.015	0.154
-542.252	-200.000	-0.014	0.150
-541.237	35.458	-0.134	0.117
-540.223	-97.243	0.166	0.043
-539.208	-200.000	-0.039	0.172
-538.193	259.530	-0.163	0.280
-537.179	74.056	-0.256	0.268
-536.164	-131.809	0.261	-0.034
-535.150	-180.720	0.347	-0.007
-534.135	-6.974	-0.046	-0.031
-533.121	-10.562	-0.158	-0.104
-532.106	-36.334	-0.243	0.130
-531.091	154.791	0.074	-0.101
-530.077	-42.176	-0.130	0.066
-529.062	-200.000	0.008	0.186
-528.048	-200.000	-0.068	0.314
-527.033	-67.672	0.202	-0.079
-526.018	239.409	0.093	-0.154
-525.004	-64.553	0.063	0.026
-523.989	47.684	-0.073	0.067
-522.975	-110.452	0.105	-0.022
-521.960	79.249	0.260	0.278
-520.945	800.000	-0.070	0.192
-519.931	265.323	0.155	-0.269
-518.916	647.832	-0.054	-0.136
-517.902	800.000	0.036	0.152
-516.887	800.000	0.052	-0.184
-515.872	-62.810	-0.044	0.018
-514.858	423.156	0.047	-0.101
-513.843	-200.000	-0.031	0.241
-512.829	3.409	0.094	0.068
-511.814	710.553	-0.059	0.156
-510.799	48.695	0.128	0.119
-509.785	-15.352	-0.303	-0.193
-508.770	-129.533	0.123	0.017
-507.756	15.777	-0.090	-0.070
-506.741	-62.389	-0.316	-0.131
-505.726	-15.824	0.264	-0.167
-504.712	-200.000	0.021	0.174
-503.697	-51.132	-0.072	0.033
-502.683	-66.646	-0.259	0.102
-501.668	-9.288	0.175	0.116
-500.653	-75.059	0.158	0.056
-499.639	2.705	-0.247	-0.178
-498.624	52.573	-0.033	-0.031
-497.610	800.000	0.110	-0.340
-496.595	100.107	0.111	0.128
-495.581	-61.931	-0.488	-0.203
-494.566	312.307	0.062	-0.116
-493.551	147.631	0.293	0.392
-492.537	154.737	0.055	0.075
-491.522	62.032	-0.141	0.140
-490.508	-111.457	0.173	0.035
-489.493	35.372	-0.148	0.129
-488.478	-131.716	0.127	-0.017
-487.464	792.466	-0.163	0.446
-486.449	-114.714	-0.346	-0.066
-485.435	151.047	0.077	-0.104
-484.420	-58.236	-0.320	0.138
-483.405	-33.394	-0.190	0.104
-482.391	355.752	0.054	-0.107
-481.376	800.000	-0.114	-0.408
-480.362	-200.000	0.026	-0.208
-479.347	362.900	0.095	0.190
-478.332	104.532	0.134	-0.156
-477.318	27.069	0.171	-0.143
-476.303	-52.130	0.183	0.084
-475.289	-108.852	0.101	0.021
-474.274	69.356	-0.198	-0.202
-473.259	160.941	-0.080	0.111
-472.245	-86.647	-0.250	-0.076
-471.230	8.842	0.092	0.069
-470.216	353.934	0.178	0.350
-469.201	-38.775	-0.095	0.050
-468.186	146.247	-0.074	-0.099
-467.172	189.348	-0.034	0.050
-466.157	-97.510	-0.089	0.023
-465.143	-85.132	-0.251	0.078
-464.128	221.685	-0.113	0.181
-463.113	-200.000	0.005	-0.090
-462.099	-200.000	-0.019	0.206
-461.084	107.729	0.124	-0.146
-460.070	12.189	-0.315	-0.240
-459.055	416.391	0.066	0.140
-458.040	-111.600	0.055	-0.011
-457.026	-121.994	0.614	-0.100
-456.011	115.116	0.225	0.272
-454.997	241.839	-0.231	0.383
-453.982	397.347	0.082	-0.170
-452.968	-200.000	-0.026	0.169
-451.953	214.149	0.070	-0.110
-450.938	-67.688	0.180	0.070
-449.924	195.231	0.091	0.137
-448.909	535.656	0.070	-0.165
-447.895	800.000	-0.059	-0.200
-446.880	-120.592	0.002	-0.000
-445.865	-200.000	-0.055	0.251
-444.851	67.336	0.162	0.164
-443.836	40.849	0.022	-0.020
-442.822	-64.408	-0.366	0.148
-441.807	-2.933	0.216	-0.150
-440.792	118.661	0.193	-0.237
-439.778	200.345	-0.213	0.324
-438.763	-199.501	-0.167	-0.001
-437.749	-30.671	-0.232	-0.130
-436.734	-76.644	-0.267	0.093
-435.719	-6.823	0.131	0.088
-434.705	331.124	-0.097	0.185
-433.690	237.879	-0.115	0.188
-432.676	67.699	0.254	0.257
-431.661	420.220	0.137	-0.291
-430.646	-45.157	0.220	-0.108
-429.632	-200.000	-0.015	0.089
-428.617	192.859	0.226	0.338
-427.603	127.457	0.189	-0.238
-426.588	-200.000	-0.016	-0.129
-425.573	-200.000	-0.036	-0.433
-424.559	800.000	-0.051	0.144
-423.544	298.232	0.074	0.136
-422.530	-162.871	-0.344	-0.017
-421.515	-151.163	0.225	-0.017
-420.500	-189.759	0.187	0.002
-419.486	-16.705	-0.221	-0.139
-418.471	-47.812	-0.239	-0.115
-417.457	-65.709	-0.225	-0.089
-416.442	800.000	-0.009	-0.029
-415.428	294.027	-0.165	0.299
-414.413	-64.167	-0.264	-0.106
-413.398	-21.143	0.327	-0.198
-412.384	800.000	0.026	0.083
-411.369	-151.437	-0.253	0.019
-410.355	-42.016	0.267	-0.135
-409.340	-65.246	-0.228	-0.091
-408.325	-75.210	0.300	0.106
-407.311	800.000	-0.072	0.270
-406.296	61.456	-0.069	0.068
-405.282	-163.214	0.292	0.014
-404.267	-200.000	-0.163	0.000
-403.252	800.000	-0.047	-0.142
-402.238	800.000	-0.032	0.095
-401.223	200.185	-0.218	-0.331
-400.209	28.505	0.162	0.135
-399.194	651.282	-0.018	-0.045
-398.179	-200.000	0.013	-0.356
-397.165	38.125	0.195	-0.171
-396.150	-167.204	0.206	-0.008
-395.136	-71.189	0.150	-0.056
-394.121	144.688	0.065	0.086
-393.106	-31.127	-0.261	0.146
-392.092	73.385	0.182	0.189
-391.077	-200.000	0.019	-0.162
-390.063	119.090	-0.374	-0.458
-389.048	418.535	-0.132	0.279
-388.033	15.128	0.058	0.045
-387.019	168.906	-0.032	0.046
-386.004	-69.489	-0.261	-0.099
-384.990	-200.000	0.031	-0.201
-383.975	-12.585	0.329	0.212
-382.960	59.713	-0.102	0.099
-381.946	574.357	-0.020	0.049
-380.931	189.166	0.105	-0.155
-379.917	-116.841	-0.053	0.010
-378.902	574.417	0.157	0.379
-377.888	-85.364	0.497	-0.153
-376.873	-29.746	0.164	-0.093
-375.858	-200.000	0.030	0.420
-374.844	-51.091	0.135	-0.063
-373.829	35.632	0.113	0.098
-372.815	-162.764	-0.256	-0.012
-371.800	-80.418	0.222	0.073
-370.785	-38.641	-0.091	-0.048
-369.771	-174.443	-0.173	0.005
-368.756	80.191	-0.097	0.103
-367.742	-200.000	0.171	0.001
-366.727	800.000	-0.058	0.245
-365.712	-200.000	-0.011	0.127
-364.698	-78.900	0.264	-0.089
-363.683	-200.000	0.073	-0.569
-362.669	800.000	-0.057	-0.183
-361.654	-17.294	0.079	0.049
-360.639	89.137	-0.229	0.252
-359.625	423.585	0.154	-0.327
-358.610	461.226	-0.153	-0.338
-357.596	458.743	0.088	-0.194
-356.581	-200.000	-0.015	-0.090
-355.566	-10.552	0.051	-0.033
-354.552	-62.165	-0.146	0.060
-353.537	-123.528	0.098	0.015
-352.523	142.728	-0.182	-0.240
-351.508	521.330	0.123	0.285
-350.493	-14.166	0.048	-0.030
-349.479	-42.777	-0.411	0.206
-348.464	-29.960	0.189	-0.106
-347.450	326.676	0.064	-0.121
-346.435	168.673	-0.080	0.113
-345.420	-38.685	0.320	-0.167
-344.406	11.897	-0.376	-0.286
-343.391	310.982	-0.067	-0.123
-342.377	150.626	-0.076	-0.102
-341.362	-125.563	-0.307	-0.046
-340.348	800.000	0.040	0.126
-339.333	55.665	0.094	0.089
-338.318	77.130	0.233	0.245
-337.304	-34.788	-0.490	0.264
-336.289	642.356	-0.104	0.261
-335.275	-19.880	-0.308	-0.188
-334.260	-46.822	-0.365	0.176
-333.245	334.703	0.047	0.090
-332.231	-200.000	0.026	0.264
-331.216	-200.000	0.015	-0.294
-330.202	800.000	-0.110	0.379
-329.187	494.766	0.040	0.091
-328.172	7.683	0.160	-0.118
-327.158	401.557	-0.049	-0.101
-326.143	288.997	0.312	0.559
-325.129	-75.107	0.119	0.042
-324.114	-200.000	0.003	-0.029
-323.099	-87.359	0.304	-0.091
-322.085	6.254	0.238	0.175
-321.070	717.550	0.166	-0.434
-320.056	-91.383	-0.078	0.022
-319.041	-85.283	0.129	0.040
-318.026	182.252	-0.048	0.070
-317.012	160.715	-0.228	0.314
-315.997	-46.187	-0.272	0.132
-314.983	381.656	0.141	-0.286
-313.968	18.011	-0.172	-0.136
-312.953	800.000	-0.025	-0.103
-311.939	238.131	0.147	-0.240
-310.924	-200.000	0.021	0.235
-309.910	-200.000	0.054	-0.503
-308.895	-30.987	-0.116	0.065
-307.880	128.292	-0.072	-0.091
-306.866	-200.000	-0.047	0.349
-305.851	-82.801	0.408	-0.130
-304.837	195.216	0.102	-0.153
-303.822	-178.907	-0.043	0.001
-302.807	-67.202	-0.192	-0.074
-301.793	129.397	-0.248	-0.312
-300.778	713.747	-0.089	0.232
-299.764	-106.803	0.147	0.032
-298.749	146.032	-0.208	-0.275
-297.735	99.949	0.126	-0.143
-296.720	155.948	-0.054	0.073
-295.705	30.622	-0.105	0.088
-294.691	800.000	-0.056	0.154
-293.676	800.000	0.124	0.398
-292.662	-157.271	0.287	0.017
-291.647	142.449	0.133	0.175
-290.632	-78.824	-0.097	0.033
-289.618	13.400	-0.090	-0.068
-288.603	-200.000	-0.018	-0.423
-287.589	-43.541	-0.114	0.057
-286.574	179.983	0.137	-0.198
-285.559	81.094	-0.125	-0.133
-284.545	-99.019	0.084	-0.021
-283.530	-105.034	-0.334	-0.075
-282.516	-200.000	0.002	-0.244
-281.501	-87.519	0.347	0.103
-280.486	-42.503	-0.111	-0.056
-279.472	-186.172	-0.192	-0.003
-278.457	584.325	-0.048	-0.115
-277.443	-200.000	0.001	-0.298
-276.428	54.252	0.185	-0.175
-275.413	-200.000	0.023	-0.237
-274.399	-200.000	-0.069	0.299
-273.384	-200.000	0.011	-0.361
-272.370	494.011	0.169	-0.381
-271.355	-125.036	0.306	-0.046
-270.340	197.503	0.214	-0.322
-269.326	445.740	-0.071	-0.154
-268.311	97.996	0.175	0.198
-267.297	159.954	0.122	-0.168
-266.282	-139.206	-0.158	0.017
-265.267	-103.513	0.326	-0.075
-264.253	800.000	0.045	-0.169
-263.238	28.214	-0.077	-0.064
-262.224	-124.173	-0.229	-0.035
-261.209	581.091	0.089	0.214
-260.195	-1.976	0.077	0.053
-259.180	63.755	-0.284	-0.280
-258.165	-78.381	-0.177	-0.060
-257.151	-108.529	-0.164	0.035
-256.136	-108.094	0.221	0.047
-255.122	66.263	0.144	-0.144
-254.107	89.324	-0.108	-0.118
-253.092	595.220	0.095	-0.231
-252.078	800.000	0.074	0.246
-251.063	679.707	-0.172	0.440
-250.049	-92.530	-0.141	0.039
-249.034	388.027	-0.078	0.158
-248.019	24.071	-0.148	0.120
-247.005	120.605	-0.039	0.048
-245.990	-71.553	-0.177	-0.065
-244.976	-163.658	-0.111	-0.005
-243.961	-47.868	0.135	0.064
-242.946	-200.000	-0.010	-0.090
-241.932	-200.000	0.166	0.000
-240.917	-200.000	-0.011	0.049
-239.903	783.406	-0.109	0.293
-238.888	250.542	-0.176	0.295
-237.873	-200.000	-0.023	-0.164
-236.859	-104.958	0.319	0.072
-235.844	38.897	-0.117	-0.103
-234.830	-200.000	0.023	-0.141
-233.815	101.494	-0.229	-0.263
-232.800	-80.677	-0.258	0.084
-231.786	35.033	-0.075	-0.065
-230.771	-34.895	-0.251	-0.134
-229.757	-41.990	0.212	-0.107
-228.742	-200.000	0.042	0.289
-227.727	87.361	-0.157	0.171
-226.713	-108.208	-0.088	0.019
-225.698	121.232	-0.230	0.281
-224.684	35.130	-0.090	0.078
-223.669	-200.000	-0.041	0.207
-222.655	48.042	0.058	0.053
-221.640	80.860	0.085	0.091
-220.625	16.572	-0.220	-0.171
-219.611	144.216	0.192	-0.252
-218.596	43.441	0.316	0.284
-217.582	-96.344	-0.327	0.085
-216.567	414.631	0.063	0.132
-215.552	37.165	0.195	-0.170
-214.538	-25.458	0.202	-0.117
-213.523	-180.814	0.121	0.002
-212.509	220.792	-0.065	-0.103
-211.494	800.000	-0.071	-0.266
-210.479	-88.757	-0.173	0.050
-209.465	-177.381	-0.320	0.008
-208.450	800.000	0.051	0.218
-207.436	612.327	0.174	0.428
-206.421	-60.869	-0.050	0.021
-205.406	-32.715	0.163	0.089
-204.392	118.922	0.245	0.298
-203.377	77.525	-0.067	-0.070
-202.363	192.000	-0.192	-0.285
-201.348	800.000	0.100	-0.314
-200.333	-200.000	-0.009	0.214
-199.319	-92.320	-0.299	0.083
-198.304	-200.000	-0.031	0.187
-197.290	-61.164	0.157	-0.065
-196.275	-28.426	-0.124	0.070
-195.260	-104.973	0.099	-0.022
-194.246	-142.833	0.288	0.028
-193.231	-155.760	0.192	0.012
-192.217	406.688	0.161	-0.334
-191.202	-142.181	0.302	-0.029
-190.187	45.269	-0.334	-0.303
-189.173	-99.118	-0.208	0.052
-188.158	-200.000	0.040	-0.190
-187.144	173.787	0.070	0.099
-186.129	-200.000	-0.003	-0.282
-185.114	800.000	0.065	0.234
-184.100	76.023	-0.092	-0.095
-183.085	-12.155	-0.123	-0.079
-182.071	796.459	0.049	-0.134
-181.056	-39.901	0.223	-0.114
-180.042	-73.548	0.297	0.106
-179.027	-46.815	-0.074	0.036
-178.012	-157.105	0.289	0.017
-176.998	800.000	-0.086	-0.359
-175.983	-119.155	0.227	-0.039
-174.969	-0.117	0.226	0.158
-173.954	800.000	0.055	0.189
-172.939	-22.918	-0.265	0.157
-171.925	-200.000	0.013	0.228
-170.910	800.000	-0.081	0.270
-169.896	-18.498	0.193	0.118
-168.881	362.216	0.099	-0.196
-167.866	143.368	-0.190	0.248
-166.852	37.180	0.123	0.107
-165.837	63.712	-0.123	-0.121
-164.823	-200.000	-0.041	-0.286
-163.808	139.008	0.161	0.207
-162.793	296.786	0.086	0.154
-161.779	-156.698	-0.175	0.011
-160.764	171.433	-0.033	-0.046
-159.750	220.681	-0.116	0.183
-158.735	118.297	0.267	0.323
-157.720	-200.000	-0.022	0.153
-156.706	-101.887	-0.086	-0.020
-155.691	-174.427	0.392	0.011
-154.677	-200.000	0.020	-0.199
-153.662	-15.010	-0.157	-0.099
-152.647	-200.000	0.032	0.249
-151.633	-200.000	-0.006	-0.124
-150.618	-200.000	-0.021	0.167
-149.604	191.524	0.103	-0.152
-148.589	-75.661	0.144	-0.050
-147.574	119.531	-0.163	0.198
-146.560	-200.000	0.026	0.306
-145.545	-200.000	-0.004	0.115
-144.531	6.439	-0.240	0.175
-143.516	-94.976	0.340	0.090
-142.502	-45.253	0.211	0.103
-141.487	-18.120	-0.356	-0.218
-140.472	800.000	-0.051	0.161
-139.458	-200.000	0.149	-0.001
-138.443	0.367	-0.159	0.111
-137.429	-200.000	0.026	-0.354
-136.414	47.279	-0.309	-0.282
-135.399	403.765	-0.040	0.082
-134.385	-147.609	0.043	-0.004
-133.370	-200.000	0.038	0.316
-132.356	-62.678	-0.208	0.084
-131.341	800.000	0.075	-0.247
-130.326	-109.992	-0.289	0.059
-129.312	596.327	-0.028	0.069
-128.297	17.049	0.091	0.071
-127.283	-15.175	0.393	-0.246
-126.268	51.874	0.181	-0.169
-125.253	42.999	-0.051	0.045
-124.239	-129.681	-0.138	0.019
-123.224	-88.739	-0.300	0.087
-122.210	-92.124	0.098	0.027
-121.195	-200.000	0.029	0.296
-120.180	-200.000	-0.005	-0.193
-119.166	-200.000	0.060	0.285
-118.151	-81.267	0.245	0.079
-117.137	-159.352	-0.221	0.012
-116.122	120.874	0.112	0.137
-115.107	82.310	0.169	-0.180
-114.093	-200.000	0.091	0.473
-113.078	-106.307	-0.189	-0.041
-112.064	213.275	0.056	0.086
-111.049	-146.099	-0.340	-0.029
-110.034	-29.954	0.226	-0.126
-109.020	-29.239	0.116	0.065
-108.005	-200.000	-0.023	0.474
-106.991	-171.861	-0.285	0.009
-105.976	-200.000	0.053	-0.381
-104.962	-84.104	0.192	-0.060
-103.947	-200.000	0.083	-0.521
-102.932	800.000	0.028	0.109
-101.918	770.270	0.098	0.262
-100.903	800.000	0.039	-0.110
-99.889	-80.827	-0.213	-0.069
-98.874	1.879	-0.138	0.098
-97.859	-200.000	-0.029	0.216
-96.845	800.000	-0.026	0.097
-95.830	73.694	-0.139	-0.143
-94.816	-58.388	-0.289	-0.123
-93.801	105.301	0.163	0.188
-92.786	-200.000	-0.026	0.150
-91.772	115.713	0.129	0.154
-90.757	-88.245	-0.267	-0.078
-89.743	226.385	0.062	-0.098
-88.728	-115.058	0.453	0.084
-87.713	106.313	-0.051	0.059
-86.699	-71.944	0.106	0.039
-85.684	18.506	0.089	0.069
-84.670	-48.040	0.192	-0.091
-83.655	83.825	0.165	-0.176
-82.640	-163.879	-0.161	0.007
-81.626	-114.096	-0.286	-0.054
-80.611	-81.979	0.277	0.089
-79.597	-139.723	-0.227	-0.024
-78.582	-151.941	-0.308	0.022
-77.567	-132.666	0.486	-0.061
-76.553	474.142	0.132	0.292
-75.538	-200.000	-0.020	-0.280
-74.524	-110.236	-0.351	-0.071
-73.509	23.748	-0.104	0.084
-72.494	-143.467	-0.193	0.018
-71.480	-200.000	0.032	-0.197
-70.465	-78.579	0.034	-0.012
-69.451	233.261	-0.101	0.163
-68.436	46.331	-0.133	0.120
-67.422	-200.000	-0.019	-0.093
-66.407	441.661	0.130	0.279
-65.392	47.307	0.113	0.102
-64.378	800.000	-0.064	-0.261
-63.363	-200.000	-0.024	0.108
-62.349	-10.334	-0.153	-0.099
-61.334	82.743	-0.922	-0.978
-60.319	49.592	0.600	0.552
-59.305	-200.000	-0.266	-1.295
-58.290	381.926	0.698	1.400
-57.276	244.684	0.927	1.521
-56.261	-200.000	121.773	620.408
-55.246	383.446	1577.868	3170.754
-54.232	139.390	2749.659	3533.324
-53.217	95.450	2186.160	2433.868
-52.203	36.154	1613.451	1387.615
-51.188	27.651	1355.451	1114.001
-50.173	25.001	1317.554	1067.049
-49.159	50.464	1383.560	1277.228
-48.144	48.634	1396.604	1278.029
-47.130	27.765	1345.289	1106.162
-46.115	24.577	1326.261	1071.387
-45.100	24.552	1321.072	1067.006
-44.086	24.381	1319.148	1064.385
-43.071	24.267	1317.182	1062.082
-42.057	24.252	1314.984	1060.174
-41.042	24.305	1312.995	1058.845
-40.027	24.381	1311.087	1057.715
-39.013	24.310	1309.420	1055.907
-37.998	24.361	1307.582	1054.688
-36.984	24.362	1305.974	1053.354
-35.969	24.365	1304.607	1052.228
-34.954	24.456	1302.496	1051.015
-33.940	24.416	1301.520	1049.955
-32.925	24.457	1299.913	1048.856
-31.911	24.476	1298.397	1047.704
-30.896	24.529	1296.891	1046.755
-29.881	24.556	1295.782	1045.975
-28.867	24.613	1294.438	1045.187
-27.852	24.541	1292.915	1043.490
-26.838	24.421	1291.958	1041.977
-25.823	24.529	1290.225	1041.168
-24.809	24.685	1288.239	1040.435
-23.794	24.482	1287.286	1038.443
-22.779	24.563	1285.850	1037.713
-21.765	24.632	1284.473	1036.961
-20.750	24.577	1283.070	1035.469
-19.736	24.334	1282.711	1033.727
-18.721	24.360	1281.731	1033.049
-17.706	24.413	1279.879	1031.821
-16.692	24.513	1279.009	1031.654
-15.677	24.443	1277.724	1030.175
-14.663	24.338	1277.198	1029.107
-13.648	24.425	1275.614	1028.288
-12.633	24.328	1274.811	1027.044
-11.619	24.415	1273.648	1026.562
-10.604	24.413	1272.674	1025.727
-9.590	24.358	1271.924	1024.764
-8.575	24.263	1270.929	1023.377
-7.560	24.373	1270.107	1023.306
-6.546	24.411	1268.919	1022.530
-5.531	24.372	1268.492	1021.917
-4.517	24.359	1267.582	1021.068
-3.502	24.395	1266.619	1020.462
-2.487	24.396	1265.906	1019.851
-1.473	24.326	1261.762	1016.074
-0.458	23.196	1246.152	997.103
0.556	18.716	1230.829	960.485
1.571	15.260	1238.543	946.930
2.586	14.470	1253.908	954.071
3.600	14.377	1241.861	944.293
4.615	10.779	1168.872	869.490
5.629	4.003	1095.787	780.962
6.644	0.959	1078.199	753.230
7.659	0.595	1076.677	750.292
8.673	0.592	1075.640	749.488
9.688	0.726	1074.194	749.078
10.702	0.860	1071.775	747.991
11.717	4.950	1077.030	771.875
12.731	11.922	1086.249	813.137
13.746	16.120	1091.592	837.966
14.761	17.142	1092.176	843.419
15.775	16.410	1090.834	838.675
16.790	15.490	1088.471	832.228
17.804	14.834	1087.071	827.836
18.819	14.331	1086.542	824.866
19.834	14.298	1084.882	823.370
20.848	13.931	1084.123	820.910
21.863	13.738	1083.154	819.151
22.877	13.561	1082.625	817.805
23.892	13.525	1081.393	816.621
24.907	13.592	1080.883	816.495
25.921	13.645	1080.152	816.134
26.936	13.618	1079.153	815.173
27.950	13.642	1078.209	814.507
28.965	13.631	1077.110	813.547
29.980	13.656	1075.509	812.391
30.994	13.769	1074.698	812.261
32.009	13.795	1073.728	811.580
33.023	13.771	1072.622	810.555
34.038	13.676	1071.753	809.366
35.053	13.650	1071.010	808.604
36.067	13.757	1069.841	808.174
37.082	13.694	1069.202	807.309
38.096	13.726	1068.364	806.761
39.111	13.723	1067.746	806.208
40.126	13.631	1066.276	804.581
41.140	13.513	1065.039	803.004
42.155	13.461	1064.294	802.120
43.169	13.482	1062.971	801.153
44.184	13.609	1061.577	800.645
45.199	13.520	1061.053	799.750
46.213	13.653	1059.815	799.390
47.228	13.694	1058.741	798.707
48.242	13.558	1058.141	797.525
49.257	13.608	1056.444	796.416
50.271	13.766	1055.666	796.521
51.286	13.715	1054.956	795.667
52.301	13.736	1054.100	795.051
53.315	13.541	1053.595	793.666
54.330	13.684	1051.922	793.022
55.344	13.693	1050.873	792.202
56.359	13.639	1050.280	791.429
57.374	13.486	1049.383	789.950
58.388	13.600	1048.028	789.407
59.403	13.509	1047.479	788.490
60.417	13.611	1046.637	788.268
61.432	13.496	1045.866	787.075
62.447	13.388	1044.910	785.769
63.461	13.432	1044.381	785.513
64.476	13.445	1043.519	784.857
65.490	13.504	1042.885	784.591
66.505	13.435	1041.868	783.430
67.520	13.543	1041.536	783.619
68.534	13.514	1040.555	782.675
69.549	13.555	1039.926	782.329
70.563	13.469	1039.076	781.215
71.578	13.544	1038.085	780.755
72.593	13.456	1037.674	779.960
73.607	13.573	1036.566	779.611
74.622	13.483	1036.271	778.894
75.636	13.547	1035.283	778.381
76.651	13.429	1034.628	777.267
77.666	13.479	1033.898	776.887
78.680	13.405	1033.566	776.221
79.695	13.511	1032.767	776.049
80.709	13.549	1031.933	775.532
81.724	13.558	1031.400	775.105
82.739	13.612	1030.748	774.800
83.753	13.710	1029.900	774.551
84.768	13.676	1029.146	773.754
85.782	13.815	1027.484	773.083
86.797	13.641	1027.164	771.967
87.812	13.591	1026.133	770.891
88.826	13.498	1025.828	770.162
89.841	13.744	1023.852	769.748
90.855	13.736	1022.994	768.999
91.870	13.765	1022.205	768.475
92.884	13.693	1021.261	767.361
93.899	13.758	1020.407	766.952
94.914	13.735	1019.861	766.369
95.928	13.812	1018.468	765.610
96.943	13.808	1018.048	765.206
97.957	13.822	1016.950	764.379
98.972	13.663	1016.348	763.127
99.987	13.735	1015.405	762.680
101.001	13.848	1013.970	762.057
102.016	13.748	1013.543	761.209
103.030	13.778	1012.889	760.786
104.045	13.736	1011.642	759.590
105.060	13.688	1011.186	758.961
106.074	13.698	1010.392	758.346
107.089	13.750	1008.958	757.438
108.103	13.551	1008.452	756.084
109.118	13.680	1007.253	755.708
110.133	13.655	1006.393	754.877
111.147	13.661	1005.716	754.334
112.162	13.612	1004.892	753.424
113.176	13.689	1003.942	752.993
114.191	13.755	1003.272	752.724
115.206	13.695	1002.183	751.570
116.220	13.682	1001.435	750.883
117.235	13.671	1000.513	750.078
118.249	13.874	999.426	750.112
119.264	13.745	998.874	749.050
120.279	13.743	998.254	748.507
121.293	13.689	997.409	747.566
122.308	13.624	996.360	746.423
123.322	13.657	995.479	745.843
124.337	13.640	994.623	745.058
125.352	13.589	993.173	743.677
126.366	13.667	991.906	743.014
127.381	13.679	990.934	742.272
128.395	13.539	990.073	740.935
129.410	13.727	988.931	740.857
130.424	13.687	988.092	739.984
131.439	13.705	987.265	739.377
132.454	13.778	986.538	739.095
133.468	13.887	985.735	738.912
134.483	13.695	985.162	737.563
135.497	13.859	984.051	737.397
136.512	13.768	982.914	736.072
137.527	13.802	982.189	735.617
138.541	13.812	981.730	735.252
139.556	13.728	980.975	734.248
140.570	13.812	980.688	734.344
141.585	13.856	979.427	733.527
142.600	13.884	978.424	732.837
143.614	13.919	977.445	732.189
144.629	13.875	976.994	731.594
145.643	13.812	976.412	730.816
146.658	13.775	975.265	729.731
147.673	13.775	974.177	728.852
148.687	13.785	973.549	728.363
149.702	13.896	972.389	727.915
150.716	13.888	971.696	727.297
151.731	13.904	970.958	726.751
152.746	13.902	970.432	726.286
153.760	13.907	969.866	725.819
154.775	14.011	968.810	725.420
155.789	14.010	968.727	725.287
156.804	13.908	967.898	724.159
157.819	13.945	967.252	723.771
158.833	14.031	966.625	723.612
159.848	14.062	965.611	722.923
160.862	14.023	964.317	721.723
161.877	13.940	964.034	721.087
162.892	13.994	962.729	720.283
163.906	13.991	961.905	719.589
164.921	13.963	961.489	719.090
165.935	13.986	960.167	718.139
166.950	14.123	959.237	717.969
167.964	13.988	958.853	717.040
168.979	14.067	957.614	716.389
169.994	13.989	956.852	715.418
171.008	14.068	955.978	715.042
172.023	14.104	955.353	714.668
173.037	14.123	954.577	714.105
174.052	14.030	954.394	713.504
175.067	14.045	953.311	712.695
176.081	14.240	952.618	712.952
177.096	14.234	952.056	712.440
178.110	14.181	951.500	711.735
179.125	14.096	950.877	710.844
180.140	14.141	950.767	710.889
181.154	14.283	949.954	710.824
182.169	14.354	949.110	710.433
183.183	14.232	948.799	709.617
184.198	14.346	947.867	709.343
185.213	14.232	947.267	708.348
186.227	14.273	946.765	708.085
187.242	14.312	946.267	707.812
188.256	14.450	945.145	707.499
189.271	14.327	944.581	706.493
190.286	14.327	943.749	705.805
191.300	14.215	943.432	705.030
192.315	14.244	942.703	704.549
193.329	14.251	941.935	703.940
194.344	14.335	941.319	703.772
195.359	14.393	939.962	702.940
196.373	14.425	940.013	703.053
197.388	14.384	939.573	702.488
198.402	14.506	938.632	702.235
199.417	14.537	938.386	702.120
200.432	14.462	937.640	701.185
201.446	14.540	937.248	701.157
202.461	14.643	936.517	700.980
203.475	14.604	936.039	700.399
204.490	14.556	935.068	699.410
205.504	14.573	934.415	698.928
206.519	14.632	933.732	698.602
207.534	14.644	932.853	697.934
208.548	14.616	932.139	697.219
209.563	14.438	931.873	696.216
210.577	14.569	931.005	696.054
211.592	14.715	929.944	695.808
212.607	14.810	929.149	695.545
213.621	14.689	928.970	694.846
214.636	14.638	928.037	693.873
215.650	14.814	927.115	693.855
216.665	14.825	926.208	693.159
217.680	14.822	925.858	692.826
218.694	14.931	924.932	692.522
219.709	14.782	924.564	691.571
220.723	14.815	923.888	691.138
221.738	14.919	922.947	690.801
222.753	14.800	922.427	689.861
223.767	14.908	921.445	689.510
224.782	14.857	921.162	689.029
225.796	14.918	920.442	688.678
226.811	14.818	919.996	687.874
227.826	14.835	919.306	687.368
228.840	14.888	918.201	686.696
229.855	14.911	917.729	686.379
230.869	14.922	916.998	685.815
231.884	14.916	916.171	685.114
232.899	14.957	915.562	684.762
233.913	15.000	914.553	684.126
234.928	14.831	914.384	683.247
235.942	14.864	913.578	682.720
236.957	14.901	913.389	682.668
237.972	14.856	912.695	681.906
238.986	14.978	911.773	681.652
240.001	14.808	911.453	680.661
241.015	14.990	910.556	680.672
242.030	14.978	909.945	680.107
243.045	15.069	909.173	679.838
244.059	14.980	908.705	679.069
245.074	15.061	907.711	678.594
246.088	15.157	907.130	678.486
247.103	15.151	906.491	677.927
248.117	15.102	906.138	677.403
249.132	15.242	905.188	677.198
250.147	15.312	904.740	677.087
251.161	15.318	903.699	676.271
252.176	15.322	903.071	675.757
253.190	15.358	902.617	675.504
254.205	15.446	901.789	675.179
255.220	15.346	901.663	674.620
256.234	15.337	900.658	673.775
257.249	15.507	900.031	673.928
258.263	15.340	899.106	672.506
259.278	15.545	898.118	672.530
260.293	15.538	897.718	672.140
261.307	15.409	897.654	671.515
262.322	15.653	896.945	671.901
263.336	15.508	896.225	670.723
264.351	15.530	895.104	669.914
265.366	15.650	894.391	669.798
266.380	15.620	894.100	669.404
267.395	15.695	893.416	669.131
268.409	15.560	892.591	667.915
269.424	15.628	891.568	667.360
270.439	15.767	891.010	667.438
271.453	15.588	890.728	666.455
272.468	15.572	890.279	665.997
273.482	15.673	889.568	665.806
274.497	15.566	888.841	664.779
275.512	15.655	888.203	664.597
276.526	15.675	887.866	664.365
277.541	15.731	887.208	664.036
278.555	15.825	886.661	663.936
279.570	15.842	886.068	663.503
280.585	15.812	885.366	662.801
281.599	15.836	884.177	661.944
282.614	15.795	883.938	661.545
283.628	15.760	883.320	660.888
284.643	15.936	882.374	660.810
285.657	15.911	881.810	660.232
286.672	15.938	881.024	659.692
287.687	15.953	880.778	659.506
288.701	15.892	880.241	658.808
289.716	15.994	879.571	658.649
290.730	15.905	878.834	657.688
291.745	15.987	878.187	657.469
292.760	15.983	877.518	656.893
293.774	16.000	877.126	656.608
294.789	16.099	876.371	656.370
295.803	15.945	875.827	655.305
296.818	16.025	874.884	654.852
297.833	15.984	874.420	654.289
298.847	16.032	873.678	653.863
299.862	16.156	873.080	653.837
300.876	16.141	872.767	653.487
301.891	16.122	871.683	652.545
302.906	16.196	871.398	652.556
303.920	16.176	870.636	651.853
304.935	16.207	870.164	651.562
305.949	16.184	869.599	650.990
306.964	16.061	869.183	650.147
307.979	16.262	868.377	650.263
308.993	16.336	867.410	649.766
310.008	16.317	867.314	649.563
311.022	16.327	866.342	648.815
312.037	16.417	865.809	648.705
313.052	16.236	865.776	647.927
314.066	16.384	864.607	647.564
315.081	16.235	864.221	646.644
316.095	16.337	863.589	646.507
317.110	16.167	863.104	645.436
318.125	16.177	862.682	645.100
319.139	16.393	862.062	645.406
320.154	16.295	861.998	644.926
321.168	16.235	861.496	644.264
322.183	16.494	860.240	644.254
323.197	16.350	860.223	643.637
324.212	16.368	859.941	643.438
325.227	16.449	858.778	642.818
326.241	16.423	858.164	642.202
327.256	16.379	857.603	641.559
328.270	16.456	857.216	641.507
329.285	16.550	856.204	641.049
330.300	16.483	855.914	640.519
331.314	16.487	855.280	640.006
332.329	16.511	854.871	639.732
333.343	16.622	854.529	639.839
334.358	16.455	854.459	639.100
335.373	16.635	853.668	639.132
336.387	16.472	853.565	638.380
337.402	16.643	852.954	638.512
338.416	16.711	852.551	638.412
339.431	16.626	852.109	637.702
340.446	16.734	851.690	637.739
341.460	16.658	851.476	637.238
342.475	16.727	851.240	637.263
343.489	16.816	850.692	637.133
344.504	16.887	850.194	636.969
345.519	16.831	849.729	636.355
346.533	16.948	848.766	636.015
347.548	16.762	848.294	634.910
348.562	16.719	848.290	634.689
349.577	16.836	847.311	634.337
350.592	16.753	847.164	633.862
351.606	16.777	846.019	633.038
352.621	16.813	845.575	632.784
353.635	16.911	844.642	632.396
354.650	16.993	844.056	632.205
355.665	16.900	843.643	631.496
356.679	16.727	843.225	630.484
357.694	16.853	842.686	630.492
358.708	17.004	841.701	630.259
359.723	17.000	841.132	629.764
360.738	17.046	840.281	629.242
361.752	16.946	840.139	628.709
362.767	17.032	839.435	628.446
363.781	17.135	838.988	628.435
364.796	17.184	838.143	627.927
365.810	17.247	837.945	627.958
366.825	17.060	837.774	627.082
367.840	17.192	837.231	627.106
368.854	17.188	836.897	626.786
369.869	17.099	836.206	625.886
370.883	17.092	835.925	625.593
371.898	17.262	835.381	625.758
372.913	17.275	835.090	625.534
373.927	17.233	834.139	624.612
374.942	17.194	833.856	624.198
375.956	17.257	833.511	624.118
376.971	17.381	833.315	624.372
377.986	17.460	832.524	624.012
379.000	17.485	832.032	623.680
380.015	17.387	831.505	622.870
381.029	17.527	830.665	622.698
382.044	17.455	830.490	622.250
383.059	17.538	829.800	621.980
384.073	17.489	829.318	621.387
385.088	17.535	828.472	620.864
386.102	17.436	828.095	620.166
387.117	17.433	827.672	619.783
388.132	17.586	826.961	619.752
389.146	17.525	826.318	618.993
390.161	17.522	825.888	618.607
391.175	17.583	825.560	618.526
392.190	17.519	824.747	617.630
393.205	17.549	824.541	617.530
394.219	17.546	824.229	617.231
395.234	17.503	823.587	616.541
396.248	17.414	823.630	616.198
397.263	17.525	822.800	615.924
398.278	17.574	822.869	616.098
399.292	17.558	822.154	615.451
400.307	17.557	821.429	614.848
401.321	17.490	821.182	614.369
402.336	17.606	820.574	614.277
403.350	17.631	820.417	614.195
404.365	17.615	819.894	613.692
405.380	17.708	819.083	613.365
406.394	17.840	818.457	613.315
407.409	17.853	818.103	613.044
408.423	17.707	818.065	612.437
409.438	17.874	817.616	612.644
410.453	17.876	816.966	612.111
411.467	17.931	816.409	611.837
412.482	17.866	816.076	611.301
413.496	18.051	815.524	611.496
414.511	18.085	815.396	611.466
415.526	18.033	815.085	610.994
416.540	17.979	814.850	610.571
417.555	17.884	814.466	609.889
418.569	17.978	813.876	609.727
419.584	18.073	813.209	609.512
420.599	18.054	812.751	609.050
421.613	114.425	1298.370	1486.169
422.628	99.050	1369.071	1486.237
