DTS Sentinel unit serial number:	SN413079Multiplexer serial number:	ORYXHardware model number:	OX4-SRSoftware version number:	ORYX F/W v4.00 Oryx Data Collector v3.7.2.0data status	okinstallation	princeton_trtdifferential loss correction	single-endedforward channel	channel 1reverse channel	N/Adate	2019/09/13time	00:14:35forward acquisition time	60.00reverse acquisition time	0.00gamma	496.2192k internal	0.2328k external	0.2328temperature offset calibration	1.0147default loss term (dB/km)	0.3790temperature slope calibration	1.0000multiplexer offset coefficient	1.0000multiplexer slope coefficient	1.0000fibre end	0.00T internal ref (°C)	28.55T ext. ref 1 (°C)	3.76T ext. ref 2 (°C)	23.15length (m)	temperature (°C)	Stokes	anti-Stokes-747.200	-200.000	-0.063	-0.305
-746.185	-127.243	-0.535	0.079
-745.171	-190.823	-0.277	0.003
-744.156	800.000	0.063	0.253
-743.142	-200.000	0.036	0.171
-742.127	-200.000	-0.033	0.230
-741.112	6.712	0.192	0.144
-740.098	-113.977	-0.237	0.046
-739.083	22.789	-0.188	0.155
-738.069	-120.899	-0.231	0.039
-737.054	63.956	0.256	0.259
-736.039	616.676	-0.045	0.115
-735.025	-41.381	0.352	0.183
-734.010	-200.000	0.016	0.166
-732.996	-69.768	-0.184	-0.071
-731.981	-17.348	0.257	-0.163
-730.966	61.017	-0.150	0.150
-729.952	117.888	0.098	-0.121
-728.937	-124.842	-0.095	0.015
-727.923	-40.121	-0.266	-0.140
-726.908	-200.000	-0.020	0.133
-725.894	739.058	0.139	-0.377
-724.879	27.208	0.094	0.080
-723.864	-200.000	0.017	0.117
-722.850	392.359	0.106	0.222
-721.835	-11.874	-0.414	0.274
-720.821	-31.922	-0.352	0.198
-719.806	-200.000	-0.068	-0.306
-718.791	-200.000	0.040	-0.272
-717.777	-180.814	0.172	0.004
-716.762	14.444	0.114	0.090
-715.748	-15.527	-0.123	-0.079
-714.733	507.221	0.040	0.093
-713.718	284.035	-0.131	-0.238
-712.704	800.000	0.062	0.261
-711.689	13.521	0.339	0.264
-710.675	-200.000	0.040	0.366
-709.660	-137.697	0.207	-0.023
-708.645	-200.000	0.024	0.121
-707.631	-200.000	0.196	-0.000
-706.616	-171.886	-0.058	0.002
-705.602	-12.916	0.082	0.054
-704.587	-200.000	0.082	-0.390
-703.572	-18.898	0.352	-0.220
-702.558	40.523	-0.080	0.072
-701.543	26.499	0.218	-0.183
-700.529	82.343	0.143	0.156
-699.514	157.351	0.190	0.265
-698.499	-200.000	-0.009	-0.144
-697.485	-3.400	0.281	0.197
-696.470	-200.000	-0.002	0.287
-695.456	-200.000	0.027	0.325
-694.441	421.786	0.057	-0.123
-693.426	-150.942	-0.177	-0.013
-692.412	338.621	-0.121	-0.238
-691.397	-69.077	0.061	-0.024
-690.383	-200.000	0.004	-0.140
-689.368	-199.888	-0.169	0.001
-688.354	-73.707	-0.234	-0.086
-687.339	165.974	-0.083	0.118
-686.324	-200.000	0.015	-0.213
-685.310	-75.986	0.212	-0.075
-684.295	274.206	0.117	-0.207
-683.281	-200.000	-0.020	-0.141
-682.266	311.221	-0.059	0.110
-681.251	-51.326	-0.112	-0.052
-680.237	-119.659	0.398	-0.069
-679.222	125.801	0.076	-0.096
-678.208	-98.520	0.226	-0.058
-677.193	-165.243	-0.264	0.012
-676.178	-200.000	-0.063	-0.425
-675.164	386.287	-0.081	-0.169
-674.149	68.087	-0.078	-0.080
-673.135	-200.000	0.055	-0.458
-672.120	800.000	-0.078	-0.237
-671.105	15.059	-0.024	-0.019
-670.091	28.473	0.066	0.056
-669.076	-10.595	-0.285	0.189
-668.062	-138.312	-0.486	0.054
-667.047	83.802	0.242	-0.265
-666.032	-200.000	-0.031	-0.316
-665.018	-169.319	0.178	-0.007
-664.003	23.410	0.231	-0.191
-662.989	800.000	0.051	-0.182
-661.974	-180.873	0.155	-0.003
-660.959	-200.000	0.027	-0.409
-659.945	800.000	0.042	-0.126
-658.930	-53.876	-0.029	-0.013
-657.916	131.158	0.079	-0.102
-656.901	428.441	0.156	-0.338
-655.886	347.604	0.180	-0.356
-654.872	-36.342	-0.228	-0.123
-653.857	297.509	-0.141	-0.261
-652.843	800.000	-0.065	-0.274
-651.828	-96.312	0.121	0.032
-650.814	533.602	0.134	-0.318
-649.799	800.000	0.036	-0.116
-648.784	800.000	-0.009	0.036
-647.770	21.524	0.106	-0.086
-646.755	-130.726	-0.170	-0.023
-645.741	-200.000	0.003	0.367
-644.726	-67.442	-0.196	0.077
-643.711	800.000	0.069	0.197
-642.697	-200.000	-0.026	-0.358
-641.682	-78.224	0.261	-0.090
-640.668	-200.000	-0.045	-0.339
-639.653	800.000	0.064	-0.185
-638.638	-200.000	-0.004	0.350
-637.624	-181.554	-0.192	-0.004
-636.609	800.000	-0.039	0.119
-635.595	-102.325	0.126	0.030
-634.580	82.277	0.229	0.249
-633.565	-187.848	-0.263	-0.003
-632.551	-200.000	0.001	0.287
-631.536	-151.418	-0.065	0.005
-630.522	-200.000	-0.063	0.300
-629.507	800.000	0.131	-0.384
-628.492	-104.164	0.190	0.044
-627.478	75.498	0.152	0.161
-626.463	682.052	-0.108	0.282
-625.449	673.867	0.033	0.085
-624.434	51.956	-0.145	-0.139
-623.419	-15.031	0.083	-0.053
-622.405	147.427	-0.165	-0.223
-621.390	149.196	-0.024	0.033
-620.376	800.000	0.092	-0.352
-619.361	-48.503	-0.348	-0.168
-618.346	-78.465	-0.333	0.114
-617.332	-93.983	0.152	0.042
-616.317	210.387	0.207	0.326
-615.303	52.571	-0.497	-0.476
-614.288	-1.824	0.176	0.124
-613.273	-139.086	0.119	0.013
-612.259	-7.241	-0.140	-0.095
-611.244	18.565	0.111	-0.089
-610.230	-138.046	-0.293	-0.033
-609.215	-164.013	0.371	-0.017
-608.201	-67.751	-0.252	0.099
-607.186	-111.554	-0.341	-0.069
-606.171	-200.000	0.011	0.069
-605.157	-78.778	0.324	0.111
-604.142	-182.964	-0.097	0.002
-603.128	-200.000	0.030	-0.212
-602.113	800.000	0.006	0.024
-601.098	36.819	0.110	-0.097
-600.084	419.505	-0.063	0.135
-599.069	-84.395	-0.287	-0.091
-598.055	800.000	0.034	0.112
-597.040	-200.000	0.001	0.348
-596.025	800.000	-0.065	0.192
-595.011	800.000	0.099	-0.277
-593.996	118.212	-0.123	0.152
-592.982	-30.177	0.240	-0.137
-591.967	-164.490	0.219	-0.010
-590.952	800.000	0.056	0.238
-589.938	792.602	-0.082	0.227
-588.923	-115.946	-0.114	-0.021
-587.909	-200.000	-0.018	0.183
-586.894	-200.000	-0.006	0.418
-585.879	-74.794	0.131	0.047
-584.865	-124.794	0.135	-0.021
-583.850	-149.033	-0.068	0.005
-582.836	-200.000	0.015	-0.248
-581.821	-12.486	-0.177	0.116
-580.806	-31.208	-0.262	0.148
-579.792	-200.000	-0.008	0.077
-578.777	72.580	0.242	0.253
-577.763	-77.019	0.219	-0.076
-576.748	-121.647	0.227	0.038
-575.733	10.242	0.135	0.102
-574.719	307.006	-0.063	0.118
-573.704	-12.559	-0.157	-0.102
-572.690	122.227	0.145	0.181
-571.675	-44.677	0.119	0.060
-570.661	-116.000	-0.178	0.033
-569.646	-200.000	-0.003	-0.222
-568.631	-45.412	-0.137	-0.068
-567.617	37.922	0.225	-0.200
-566.602	170.282	0.117	-0.167
-565.588	-154.351	0.197	-0.013
-564.573	109.546	0.111	0.133
-563.558	800.000	-0.065	-0.195
-562.544	-184.230	-0.250	0.004
-561.529	-64.565	-0.218	-0.089
-560.515	92.648	-0.116	-0.131
-559.500	189.240	0.062	0.093
-558.485	-74.579	-0.194	0.070
-557.471	-114.398	-0.423	-0.081
-556.456	15.180	0.210	0.164
-555.442	22.404	-0.151	-0.123
-554.427	-200.000	-0.042	0.189
-553.412	14.346	0.122	-0.095
-552.398	-0.345	-0.098	-0.069
-551.383	0.137	-0.248	0.177
-550.369	-89.354	-0.136	-0.040
-549.354	432.682	0.168	0.364
-548.339	-1.385	-0.212	0.149
-547.325	77.552	-0.099	-0.106
-546.310	-185.738	0.111	-0.002
-545.296	318.548	-0.111	-0.210
-544.281	-38.674	0.115	0.061
-543.266	-133.685	0.178	-0.022
-542.252	10.269	-0.179	-0.136
-541.237	-200.000	0.018	-0.142
-540.223	800.000	-0.098	0.279
-539.208	-200.000	0.009	-0.203
-538.193	-59.853	0.077	0.033
-537.179	-128.973	0.395	0.055
-536.164	191.808	0.095	-0.143
-535.150	-56.451	0.228	-0.101
-534.135	81.737	0.201	-0.217
-533.121	-67.620	0.435	-0.170
-532.106	-17.039	0.109	0.069
-531.091	-116.619	0.458	0.084
-530.077	-134.436	0.319	0.039
-529.062	-59.697	0.345	-0.148
-528.048	-200.000	-0.028	-0.210
-527.033	145.701	-0.183	0.245
-526.018	67.572	-0.050	-0.051
-525.004	-17.366	-0.230	-0.145
-523.989	93.100	0.109	0.123
-522.975	63.369	-0.127	0.127
-521.960	-42.190	-0.162	-0.082
-520.945	-200.000	0.035	-0.167
-519.931	7.955	-0.207	0.155
-518.916	800.000	-0.013	-0.052
-517.902	-0.308	-0.050	-0.036
-516.887	-200.000	-0.008	0.039
-515.872	69.370	-0.073	0.075
-514.858	89.979	-0.042	0.047
-513.843	170.486	0.318	-0.455
-512.829	-150.432	-0.095	-0.007
-511.814	4.599	0.309	-0.227
-510.799	800.000	0.058	0.195
-509.785	111.756	0.371	-0.447
-508.770	80.654	0.080	0.086
-507.756	-106.457	0.170	-0.038
-506.741	393.432	-0.085	0.176
-505.726	-200.000	-0.060	-0.425
-504.712	-62.139	0.303	-0.126
-503.697	-200.000	0.035	-0.192
-502.683	234.274	-0.171	-0.281
-501.668	-135.347	-0.222	-0.026
-500.653	-113.073	0.065	-0.013
-499.639	523.630	0.087	-0.205
-498.624	-139.351	-0.583	-0.062
-497.610	-200.000	0.023	0.187
-496.595	374.434	-0.074	-0.150
-495.581	54.592	-0.106	-0.102
-494.566	-200.000	-0.040	-0.299
-493.551	-82.600	-0.228	-0.074
-492.537	182.417	0.038	-0.056
-491.522	-66.834	0.200	-0.079
-490.508	-34.723	0.076	0.042
-489.493	-25.227	0.243	0.144
-488.478	213.359	0.044	0.069
-487.464	14.017	0.277	-0.215
-486.449	187.903	-0.110	-0.164
-485.435	-114.984	-0.220	-0.042
-484.420	-200.000	0.056	-0.287
-483.405	-200.000	0.013	-0.251
-482.391	63.576	0.188	-0.188
-481.376	-169.695	0.235	-0.008
-480.362	-200.000	0.017	0.211
-479.347	-157.020	-0.274	-0.017
-478.332	204.831	-0.113	0.175
-477.318	-92.348	-0.233	-0.065
-476.303	-200.000	0.030	-0.197
-475.289	131.707	0.084	-0.108
-474.274	189.753	0.083	-0.124
-473.259	-122.491	-0.276	-0.045
-472.245	-200.000	-0.054	0.295
-471.230	-143.507	-0.330	-0.031
-470.216	-58.736	-0.476	0.206
-469.201	800.000	0.096	-0.336
-468.186	-48.003	-0.296	-0.143
-467.172	-22.238	-0.217	0.131
-466.157	800.000	-0.065	-0.269
-465.143	-200.000	0.016	-0.237
-464.128	-56.909	-0.273	0.120
-463.113	-105.165	-0.249	0.057
-462.099	-73.095	0.205	0.075
-461.084	74.447	-0.218	0.228
-460.070	215.363	0.161	-0.255
-459.055	174.886	-0.065	0.093
-458.040	-75.653	0.085	0.030
-457.026	800.000	0.037	0.106
-456.011	-200.000	-0.026	0.176
-454.997	-200.000	0.011	0.189
-453.982	127.291	-0.097	-0.122
-452.968	533.880	0.094	-0.223
-451.953	800.000	0.063	-0.244
-450.938	101.812	0.242	-0.282
-449.924	-200.000	0.036	-0.209
-448.909	-166.867	-0.229	-0.009
-447.895	545.760	-0.134	-0.318
-446.880	715.096	0.155	-0.410
-445.865	-31.994	-0.278	0.155
-444.851	-200.000	-0.006	-0.094
-443.836	-200.000	-0.016	-0.165
-442.822	-65.844	-0.096	0.038
-441.807	800.000	-0.073	-0.316
-440.792	50.488	-0.044	-0.041
-439.778	-178.492	0.176	-0.004
-438.763	188.149	-0.179	0.267
-437.749	-137.656	-0.342	0.038
-436.734	76.114	0.202	0.213
-435.719	-99.845	-0.115	-0.029
-434.705	56.897	0.116	-0.113
-433.690	-57.169	0.336	-0.147
-432.676	-56.531	-0.132	-0.058
-431.661	-56.139	0.102	-0.045
-430.646	-109.273	-0.242	-0.051
-429.632	-62.473	0.329	-0.136
-428.617	52.172	0.158	-0.150
-427.603	-179.524	0.179	-0.004
-426.588	-22.261	-0.480	0.290
-425.573	36.410	0.288	-0.252
-424.559	-106.166	-0.193	-0.043
-423.544	-200.000	-0.005	0.047
-422.530	-133.474	-0.200	-0.025
-421.515	-102.291	-0.401	-0.096
-420.500	-117.523	0.362	0.065
-419.486	241.662	-0.164	-0.273
-418.471	-145.846	-0.250	0.022
-417.457	-10.286	0.197	0.130
-416.442	-73.979	-0.200	0.072
-415.428	-41.911	0.392	-0.200
-414.413	-132.099	0.307	-0.040
-413.398	657.281	0.135	0.345
-412.384	-47.517	0.249	0.120
-411.369	48.466	-0.042	0.039
-410.355	-200.000	-0.058	-0.415
-409.340	-67.075	-0.209	-0.082
-408.325	31.502	-0.220	-0.188
-407.311	-200.000	0.033	0.289
-406.296	-130.735	-0.335	-0.045
-405.282	504.727	-0.106	-0.243
-404.267	113.112	-0.084	-0.102
-403.252	374.304	0.162	-0.328
-402.238	-158.086	0.214	-0.013
-401.223	800.000	0.069	-0.268
-400.209	148.535	-0.127	0.170
-399.194	-94.853	-0.233	0.063
-398.179	-100.502	0.102	-0.025
-397.165	-41.578	-0.137	0.070
-396.150	-99.381	-0.240	-0.060
-395.136	800.000	-0.079	0.263
-394.121	306.353	0.178	0.329
-393.106	-200.000	-0.058	0.425
-392.092	-116.316	-0.161	-0.030
-391.077	135.227	-0.100	-0.130
-390.063	-101.482	-0.263	-0.064
-389.048	-46.075	-0.262	-0.128
-388.033	-200.000	0.024	0.288
-387.019	370.173	-0.117	0.235
-386.004	-200.000	-0.015	-0.105
-384.990	-114.869	-0.404	0.076
-383.975	-79.687	-0.231	-0.077
-382.960	-32.221	-0.307	-0.170
-381.946	13.298	0.107	0.082
-380.931	800.000	-0.063	0.204
-379.917	24.712	0.146	-0.120
-378.902	162.476	0.133	0.185
-377.888	306.443	-0.037	0.068
-376.873	-15.788	0.206	0.130
-375.858	-155.403	-0.174	-0.011
-374.844	-8.613	-0.251	0.167
-373.829	-88.009	0.129	0.038
-372.815	-99.735	0.125	0.031
-371.800	-56.878	0.392	-0.172
-370.785	-164.562	0.288	-0.013
-369.771	-149.709	-0.236	0.018
-368.756	800.000	0.064	-0.264
-367.742	498.705	-0.100	-0.228
-366.727	32.181	-0.063	0.054
-365.712	-110.219	0.126	0.026
-364.698	223.257	0.090	-0.144
-363.683	-5.940	-0.182	-0.124
-362.669	317.502	-0.075	-0.142
-361.654	-200.000	-0.009	-0.070
-360.639	-24.228	0.293	-0.174
-359.625	800.000	0.068	0.201
-358.610	-39.874	0.222	-0.115
-357.596	249.552	0.212	0.356
-356.581	-54.727	0.346	-0.155
-355.566	132.524	-0.048	0.061
-354.552	800.000	-0.051	-0.142
-353.537	-200.000	0.053	0.243
-352.523	647.893	0.043	-0.109
-351.508	106.715	0.208	-0.245
-350.493	800.000	-0.049	0.161
-349.479	38.025	-0.183	-0.162
-348.464	82.212	0.264	0.284
-347.450	161.887	0.164	-0.228
-346.435	-102.349	0.120	0.028
-345.420	104.071	0.028	-0.033
-344.406	-200.000	0.027	-0.221
-343.391	-13.980	-0.360	-0.230
-342.377	181.888	-0.254	0.372
-341.362	-110.742	-0.167	-0.034
-340.348	-5.821	0.216	-0.146
-339.333	-117.399	-0.372	-0.067
-338.318	-143.373	0.198	0.019
-337.304	-200.000	0.017	0.432
-336.289	-200.000	0.503	-0.001
-335.275	-48.965	0.107	0.051
-334.260	-200.000	-0.125	0.001
-333.245	125.597	-0.094	-0.117
-332.231	-200.000	0.016	-0.102
-331.216	-86.542	-0.139	0.042
-330.202	800.000	-0.071	0.272
-329.187	76.477	0.255	0.268
-328.172	-60.019	0.055	0.023
-327.158	-200.000	-0.040	-0.206
-326.143	98.972	0.114	-0.131
-325.129	-200.000	0.017	-0.079
-324.114	121.182	0.163	0.201
-323.099	-86.355	-0.262	0.080
-322.085	-200.000	0.001	-0.167
-321.070	-110.547	0.103	0.021
-320.056	564.099	-0.135	-0.324
-319.041	800.000	-0.164	0.580
-318.026	92.207	0.047	0.053
-317.012	-37.869	0.087	-0.046
-315.997	800.000	-0.062	0.257
-314.983	-90.720	-0.124	-0.036
-313.968	142.690	-0.096	-0.127
-312.953	66.181	-0.125	-0.125
-311.939	-102.569	-0.434	-0.103
-310.924	800.000	-0.062	-0.206
-309.910	203.582	0.047	0.073
-308.895	-160.190	0.070	-0.004
-307.880	-6.581	-0.089	-0.060
-306.866	-39.554	0.127	0.066
-305.851	800.000	-0.017	0.050
-304.837	104.986	-0.062	-0.072
-303.822	55.689	0.126	0.120
-302.807	82.828	-0.310	0.333
-301.793	-200.000	-0.032	-0.304
-300.778	1.014	0.209	-0.149
-299.764	363.405	-0.031	-0.061
-298.749	-200.000	-0.027	0.147
-297.735	-49.076	-0.155	0.074
-296.720	58.865	-0.214	0.208
-295.705	800.000	-0.049	-0.183
-294.691	-151.088	-0.125	0.009
-293.676	127.439	-0.295	-0.371
-292.662	8.603	0.218	0.162
-291.647	-46.383	0.251	-0.122
-290.632	162.949	0.151	0.210
-289.618	-156.063	0.154	0.010
-288.603	-122.771	0.133	-0.021
-287.589	800.000	-0.071	0.300
-286.574	800.000	-0.098	0.380
-285.559	-200.000	-0.036	0.205
-284.545	-13.812	0.130	-0.083
-283.530	800.000	-0.088	0.300
-282.516	42.012	0.048	0.043
-281.501	-75.077	-0.279	-0.099
-280.486	-200.000	-0.042	-0.297
-279.472	800.000	0.100	-0.276
-278.457	-148.650	0.212	0.017
-277.443	14.175	0.206	-0.159
-276.428	109.648	0.214	0.254
-275.413	800.000	0.068	0.218
-274.399	-55.334	0.231	-0.103
-273.384	25.064	-0.226	-0.185
-272.370	800.000	-0.049	0.176
-271.355	-25.895	-0.192	0.112
-270.340	239.713	-0.080	-0.132
-269.326	-118.824	-0.157	0.027
-268.311	-200.000	-0.000	0.049
-267.297	25.414	-0.286	0.235
-266.282	84.975	0.186	-0.202
-265.267	122.862	0.124	-0.154
-264.253	16.429	-0.147	0.115
-263.238	-84.050	-0.439	0.138
-262.224	-168.048	-0.043	-0.002
-261.209	-7.612	-0.151	0.101
-260.195	-109.049	0.385	0.081
-259.180	800.000	-0.037	-0.157
-258.165	5.258	0.168	0.123
-257.151	121.870	-0.132	0.163
-256.136	800.000	0.044	0.132
-255.122	-99.584	-0.270	0.067
-254.107	-105.570	0.108	-0.024
-253.092	-103.233	0.150	-0.035
-252.078	149.814	0.178	0.238
-251.063	-200.000	-0.033	0.267
-250.049	-92.899	0.074	0.020
-249.034	-34.384	-0.211	0.115
-248.019	-164.222	0.216	-0.010
-247.005	-74.186	0.065	-0.023
-245.990	-34.408	0.436	0.236
-244.976	148.087	0.226	0.301
-243.961	152.736	-0.147	0.199
-242.946	800.000	-0.034	0.132
-241.932	-149.325	0.328	0.026
-240.917	-65.031	0.092	-0.037
-239.903	119.816	0.240	0.293
-238.888	42.007	-0.039	0.035
-237.873	242.605	0.155	0.257
-236.859	338.160	0.090	-0.174
-235.844	800.000	0.074	0.299
-234.830	109.749	-0.287	0.339
-233.815	-200.000	0.004	0.127
-232.800	91.408	0.119	-0.132
-231.786	508.155	0.146	-0.335
-230.771	181.397	0.014	0.020
-229.757	23.665	-0.033	-0.027
-228.742	39.395	0.131	-0.115
-227.727	71.040	0.104	-0.107
-226.713	55.333	0.111	-0.106
-225.698	-126.468	0.124	-0.018
-224.684	800.000	-0.133	0.384
-223.669	92.803	-0.080	0.089
-222.655	510.124	0.096	0.220
-221.640	7.129	-0.172	0.126
-220.625	-64.910	0.083	-0.033
-219.611	-135.246	0.156	-0.018
-218.596	-39.301	0.289	-0.150
-217.582	256.476	-0.140	-0.237
-216.567	-200.000	-0.042	-0.230
-215.552	217.256	0.177	0.279
-214.538	-85.606	-0.232	-0.071
-213.523	-200.000	0.085	0.409
-212.509	-68.176	0.250	-0.096
-211.494	-55.545	-0.231	0.102
-210.479	19.985	0.128	-0.102
-209.465	-136.186	0.075	-0.009
-208.450	800.000	0.049	0.209
-207.436	157.129	-0.115	0.157
-206.421	-54.277	0.273	0.122
-205.406	605.429	0.053	-0.131
-204.392	-124.426	-0.081	-0.013
-203.377	748.520	0.073	0.194
-202.363	-104.479	-0.246	-0.056
-201.348	-66.474	-0.211	-0.083
-200.333	-200.000	0.068	-0.404
-199.319	13.573	-0.331	-0.253
-198.304	-78.213	0.105	-0.036
-197.290	-134.672	-0.113	-0.014
-196.275	800.000	-0.022	-0.085
-195.260	800.000	0.042	-0.136
-194.246	-29.158	0.437	0.247
-193.231	789.505	-0.011	-0.030
-192.217	800.000	0.041	0.141
-191.202	-200.000	0.001	0.064
-190.187	40.452	-0.173	-0.154
-189.173	800.000	-0.069	0.217
-188.158	-200.000	-0.014	-0.083
-187.144	-85.020	-0.321	0.099
-186.129	-155.460	0.475	0.030
-185.114	-123.940	0.409	-0.063
-184.100	-33.986	0.192	0.104
-183.085	-127.448	-0.445	-0.064
-182.071	94.272	0.140	0.156
-181.056	-108.360	-0.138	-0.029
-180.042	-26.195	-0.258	0.149
-179.027	302.162	0.111	0.203
-178.012	-174.601	-0.377	-0.011
-176.998	107.069	-0.024	-0.028
-175.983	-141.495	0.288	-0.029
-174.969	-119.459	0.223	0.038
-173.954	-140.409	-0.104	0.011
-172.939	-200.000	0.026	-0.153
-171.925	123.190	-0.119	0.148
-170.910	-38.600	-0.370	-0.193
-169.896	510.223	-0.054	0.124
-168.881	-200.000	0.032	0.216
-167.866	-166.283	0.394	-0.016
-166.852	143.075	-0.033	-0.044
-165.837	506.881	0.051	-0.116
-164.823	-200.000	-0.025	0.200
-163.808	265.486	0.031	0.053
-162.793	-109.211	-0.116	0.024
-161.779	800.000	0.210	0.575
-160.764	800.000	0.005	-0.020
-159.750	-200.000	-0.020	0.422
-158.735	7.548	0.193	-0.142
-157.720	-100.556	0.196	-0.048
-156.706	-7.180	0.122	-0.082
-155.691	51.527	-0.234	-0.219
-154.677	0.679	0.207	-0.145
-153.662	360.611	-0.093	0.183
-152.647	-98.298	-0.308	-0.078
-151.633	-29.050	0.441	-0.249
-150.618	51.455	0.100	-0.094
-149.604	129.019	0.167	0.209
-148.589	178.095	-0.050	0.072
-147.574	-49.761	-0.108	0.050
-146.560	-119.706	0.227	-0.039
-145.545	218.122	0.098	-0.154
-144.531	-200.000	-0.014	-0.075
-143.516	800.000	0.146	-0.454
-142.502	-200.000	0.055	-0.274
-141.487	94.964	0.242	-0.271
-140.472	160.795	0.170	-0.234
-139.458	306.666	-0.105	0.193
-138.443	-69.790	0.060	0.023
-137.429	-200.000	-0.053	0.271
-136.414	-32.085	0.312	-0.172
-135.399	-158.250	0.281	0.016
-134.385	125.377	0.139	-0.172
-133.370	-6.553	-0.174	-0.117
-132.356	-84.280	0.148	0.046
-131.341	8.694	0.288	0.213
-130.326	-200.000	-0.012	0.313
-129.312	-200.000	0.007	0.129
-128.297	-200.000	-0.006	-0.130
-127.283	10.484	-0.293	-0.219
-126.268	-52.452	-0.178	-0.081
-125.253	68.910	0.130	0.131
-124.239	477.563	-0.077	-0.171
-123.224	-82.559	0.280	0.089
-122.210	568.417	0.059	-0.142
-121.195	-200.000	-0.018	0.134
-120.180	-118.880	-0.219	0.038
-119.166	-22.580	0.216	0.128
-118.151	108.494	0.102	-0.120
-117.137	-75.741	-0.246	0.086
-116.122	-6.628	-0.145	0.097
-115.107	343.078	0.081	-0.155
-114.093	127.931	-0.057	0.072
-113.078	315.369	0.034	0.064
-112.064	-200.000	-0.035	-0.173
-111.049	106.146	-0.077	0.090
-110.034	184.754	-0.091	0.132
-109.020	-23.368	0.167	-0.099
-108.005	-67.151	-0.221	-0.085
-106.991	-133.080	-0.240	-0.030
-105.976	-99.719	0.324	-0.080
-104.962	800.000	0.043	-0.139
-103.947	26.896	-0.162	-0.133
-102.932	80.521	0.167	0.177
-101.918	69.775	0.062	-0.063
-100.903	457.889	0.069	0.150
-99.889	800.000	0.011	-0.043
-98.874	88.448	0.181	-0.198
-97.859	-9.659	0.154	0.101
-96.845	49.862	0.349	0.323
-95.830	313.201	0.183	-0.339
-94.816	182.618	0.213	-0.308
-93.801	186.492	0.165	-0.242
-92.786	800.000	-0.032	0.118
-91.772	450.221	0.181	-0.392
-90.757	-31.944	-0.147	0.081
-89.743	-200.000	-0.043	0.210
-88.728	-200.000	0.015	0.085
-87.713	-200.000	0.004	-0.185
-86.699	25.344	0.193	0.158
-85.684	2.470	-0.213	-0.152
-84.670	331.139	-0.115	-0.218
-83.655	89.839	-0.135	0.148
-82.640	-144.315	0.166	-0.015
-81.626	613.851	-0.102	0.251
-80.611	800.000	0.041	0.156
-79.597	-200.000	0.041	0.229
-78.582	-200.000	-0.018	-0.128
-77.567	-127.331	0.187	-0.027
-76.553	800.000	0.067	-0.203
-75.538	-32.026	-0.151	-0.083
-74.524	55.975	0.125	0.119
-73.509	85.228	-0.245	-0.264
-72.494	-64.033	-0.280	-0.112
-71.480	148.380	0.051	-0.068
-70.465	-148.684	0.216	-0.017
-69.451	120.544	0.120	-0.146
-68.436	-6.509	0.231	0.155
-67.422	-115.908	0.101	-0.018
-66.407	-81.613	-0.119	-0.038
-65.392	14.210	-0.248	-0.190
-64.378	558.483	0.079	0.188
-63.363	-200.000	-0.018	0.102
-62.349	-47.334	0.048	0.023
-61.334	125.370	-0.924	-1.143
-60.319	7.843	0.770	0.566
-59.305	259.855	-0.630	-1.068
-58.290	283.989	0.699	1.233
-57.276	-200.000	0.322	1.687
-56.261	-200.000	111.854	633.815
-55.246	519.296	1521.099	3494.974
-54.232	177.080	2692.304	3843.148
-53.217	110.285	2151.305	2534.334
-52.203	40.170	1596.982	1408.224
-51.188	32.109	1341.263	1134.240
-50.173	29.017	1302.208	1083.003
-49.159	54.283	1358.565	1282.471
-48.144	54.281	1373.007	1296.037
-47.130	32.117	1327.671	1122.615
-46.115	28.646	1310.454	1087.495
-45.100	28.507	1305.571	1082.576
-44.086	28.504	1302.833	1080.247
-43.071	28.370	1300.667	1077.621
-42.057	28.413	1298.314	1075.876
-41.042	28.420	1296.836	1074.654
-40.027	28.393	1295.460	1073.314
-39.013	28.465	1293.592	1072.141
-37.998	28.453	1291.834	1070.575
-36.984	28.521	1289.896	1069.321
-35.969	28.511	1287.923	1067.585
-34.954	28.608	1286.227	1066.702
-33.940	28.549	1284.804	1065.133
-32.925	28.561	1283.702	1064.249
-31.911	28.630	1282.423	1063.544
-30.896	28.641	1280.986	1062.377
-29.881	28.730	1279.317	1061.462
-28.867	28.671	1277.750	1059.782
-27.852	28.705	1276.960	1059.281
-26.838	28.814	1275.148	1058.362
-25.823	28.675	1274.265	1056.786
-24.809	28.641	1272.951	1055.463
-23.794	28.548	1272.063	1054.146
-22.779	28.616	1270.128	1052.891
-21.765	28.537	1269.103	1051.547
-20.750	28.599	1267.887	1050.852
-19.736	28.586	1266.320	1049.440
-18.721	28.491	1265.251	1047.970
-17.706	28.471	1264.213	1046.952
-16.692	28.563	1263.220	1046.616
-15.677	28.503	1261.859	1045.104
-14.663	28.514	1260.829	1044.269
-13.648	28.405	1260.007	1042.929
-12.633	28.469	1259.146	1042.540
-11.619	28.507	1258.014	1041.776
-10.604	28.473	1257.420	1041.050
-9.590	28.467	1256.325	1040.068
-8.575	28.464	1255.350	1039.202
-7.560	28.461	1254.602	1038.523
-6.546	28.482	1253.370	1037.586
-5.531	28.486	1252.679	1036.991
-4.517	28.501	1252.330	1036.747
-3.502	28.484	1251.252	1035.718
-2.487	28.432	1250.101	1034.428
-1.473	28.499	1245.729	1031.146
-0.458	26.854	1230.753	1009.561
0.556	24.860	1213.366	971.536
1.571	20.968	1218.866	954.585
2.586	20.028	1233.234	960.543
3.600	19.682	1221.420	949.360
4.615	15.125	1150.221	870.312
5.629	7.407	1077.741	777.685
6.644	4.061	1059.166	748.073
7.659	3.814	1056.660	745.046
8.673	3.566	1054.909	742.553
9.688	3.599	1054.118	742.088
10.702	3.917	1052.221	742.211
11.717	8.835	1058.213	770.055
12.731	17.193	1070.333	819.271
13.746	22.068	1076.402	847.427
14.761	23.041	1077.119	852.612
15.775	22.290	1075.806	847.880
16.790	21.405	1074.116	842.214
17.804	21.003	1072.635	839.040
18.819	20.830	1071.801	837.483
19.834	20.777	1071.694	837.069
20.848	20.767	1071.192	836.558
21.863	20.767	1069.711	835.328
22.877	20.445	1069.292	833.381
23.892	20.390	1068.567	832.479
24.907	20.393	1067.666	831.717
25.921	20.446	1066.298	830.829
26.936	20.308	1065.317	829.334
27.950	20.357	1064.140	828.579
28.965	20.550	1062.353	828.032
29.980	20.638	1061.291	827.549
30.994	20.663	1060.444	826.935
32.009	20.801	1059.535	826.807
33.023	20.637	1058.684	825.294
34.038	20.607	1057.163	823.893
35.053	20.360	1056.798	822.366
36.067	20.416	1055.593	821.620
37.082	20.424	1055.123	821.221
38.096	20.667	1053.911	821.352
39.111	20.745	1053.496	821.321
40.126	20.272	1052.233	818.036
41.140	20.106	1050.518	815.848
42.155	19.949	1049.025	813.879
43.169	19.801	1048.065	812.368
44.184	19.836	1047.377	811.925
45.199	19.913	1046.541	811.569
46.213	20.040	1045.962	811.641
47.228	20.412	1045.753	813.148
48.242	20.446	1044.655	812.383
49.257	20.415	1043.288	811.102
50.271	20.660	1042.584	811.629
51.286	20.654	1042.208	811.237
52.301	20.623	1040.546	809.723
53.315	20.388	1039.742	807.934
54.330	20.116	1038.909	805.949
55.344	20.196	1037.718	805.326
56.359	20.167	1037.076	804.624
57.374	20.051	1036.485	803.554
58.388	19.856	1035.663	801.945
59.403	19.831	1034.367	800.752
60.417	19.821	1033.933	800.298
61.432	19.748	1033.283	799.390
62.447	19.765	1032.109	798.490
63.461	19.695	1031.099	797.312
64.476	19.613	1030.257	796.215
65.490	19.500	1029.724	795.212
66.505	19.687	1028.618	795.148
67.520	19.699	1028.376	794.943
68.534	19.706	1027.337	794.102
69.549	19.437	1026.911	792.470
70.563	19.466	1025.397	791.362
71.578	19.191	1025.122	789.822
72.593	19.068	1024.505	788.708
73.607	19.112	1023.741	788.256
74.622	19.403	1022.661	788.682
75.636	19.331	1022.271	787.983
76.651	19.275	1021.770	787.273
77.666	19.454	1020.937	787.378
78.680	19.480	1020.192	786.852
79.695	19.515	1019.551	786.447
80.709	19.713	1019.521	787.259
81.724	19.905	1018.795	787.500
82.739	19.929	1018.196	787.078
83.753	20.310	1017.928	788.530
84.768	20.725	1017.202	789.784
85.782	20.951	1016.926	790.524
86.797	20.883	1015.769	789.247
87.812	20.671	1014.758	787.431
88.826	20.722	1013.680	786.758
89.841	20.858	1012.768	786.595
90.855	20.920	1011.940	786.162
91.870	20.933	1011.125	785.517
92.884	20.788	1010.653	784.426
93.899	20.721	1009.426	783.104
94.914	20.889	1008.397	782.992
95.928	20.684	1007.950	781.654
96.943	20.725	1006.240	780.443
97.957	20.493	1005.938	779.100
98.972	20.662	1004.525	778.690
99.987	20.612	1004.225	778.168
101.001	20.607	1003.404	777.440
102.016	20.611	1001.968	776.278
103.030	20.734	1001.529	776.417
104.045	20.674	1001.006	775.673
105.060	20.503	1000.078	774.127
106.074	20.212	998.249	771.348
107.089	20.005	997.351	769.664
108.103	19.778	996.184	767.687
109.118	19.732	995.430	766.836
110.133	19.648	994.181	765.434
111.147	19.508	993.470	764.196
112.162	19.651	992.826	764.268
113.176	19.778	992.503	764.512
114.191	19.828	991.698	764.048
115.206	19.777	990.772	763.038
116.220	19.807	989.931	762.455
117.235	19.716	989.225	761.446
118.249	19.540	988.341	759.922
119.264	19.606	987.338	759.374
120.279	19.367	986.518	757.627
121.293	19.403	985.592	757.007
122.308	19.364	984.233	755.726
123.322	19.237	983.557	754.584
124.337	19.151	982.674	753.461
125.352	19.228	981.251	752.639
126.366	19.265	980.147	751.888
127.381	19.399	979.243	751.715
128.395	19.254	978.923	750.770
129.410	19.379	978.208	750.697
130.424	19.593	977.427	750.963
131.439	19.762	976.832	751.175
132.454	19.767	976.025	750.509
133.468	19.817	975.050	749.910
134.483	19.775	974.233	749.033
135.497	19.958	973.731	749.371
136.512	19.875	972.316	747.857
137.527	19.862	971.885	747.405
138.541	19.846	971.119	746.683
139.556	20.040	970.165	746.716
140.570	20.276	969.969	747.516
141.585	20.670	968.982	748.385
142.600	20.461	968.726	747.224
143.614	20.629	968.081	747.380
144.629	20.818	966.988	747.284
145.643	20.597	965.940	745.460
146.658	20.262	964.627	742.944
147.673	20.163	963.511	741.596
148.687	19.845	963.160	739.902
149.702	19.957	961.343	738.920
150.716	19.844	960.545	737.759
151.731	20.102	959.642	738.096
152.746	20.004	959.529	737.527
153.760	20.270	958.858	738.077
154.775	20.229	958.457	737.531
155.789	20.267	957.914	737.209
156.804	20.291	956.986	736.530
157.819	20.384	956.387	736.401
158.833	20.526	956.156	736.757
159.848	20.758	955.195	736.936
160.862	20.464	953.671	734.453
161.877	20.073	952.209	731.611
162.892	19.947	950.920	730.023
163.906	19.923	949.811	729.005
164.921	19.840	949.341	728.231
165.935	20.044	948.538	728.411
166.950	20.135	947.604	728.012
167.964	20.224	946.385	727.382
168.979	19.957	945.637	725.626
169.994	19.938	944.778	724.820
171.008	20.063	944.189	724.827
172.023	20.430	943.556	725.813
173.037	20.594	943.110	726.092
174.052	20.399	942.203	724.515
175.067	19.962	941.152	721.820
176.081	19.730	940.147	720.018
177.096	19.637	940.065	719.506
178.110	19.900	939.247	719.908
179.125	19.820	939.083	719.389
180.140	19.983	938.733	719.733
181.154	20.347	938.444	720.959
182.169	20.533	937.861	721.222
183.183	20.392	937.581	720.356
184.198	20.452	936.435	719.660
185.213	20.509	935.785	719.333
186.227	20.563	935.023	718.907
187.242	20.569	934.865	718.748
188.256	20.818	934.050	719.087
189.271	20.728	933.577	718.284
190.286	20.390	932.251	715.808
191.300	19.727	930.863	711.949
192.315	19.760	929.970	711.339
193.329	19.684	929.693	710.751
194.344	19.862	929.587	711.339
195.359	20.159	928.705	711.823
196.373	20.236	928.638	712.024
197.388	20.387	928.327	712.341
198.402	20.816	927.962	713.757
199.417	20.822	927.696	713.516
200.432	20.995	927.407	713.936
201.446	21.080	926.792	713.748
202.461	21.221	926.119	713.741
203.475	20.840	925.750	711.839
204.490	20.522	924.326	709.382
205.504	20.369	923.771	708.272
206.519	20.453	922.711	707.738
207.534	20.438	922.125	707.164
208.548	20.483	921.340	706.684
209.563	20.541	920.478	706.196
210.577	20.519	920.356	705.951
211.592	20.679	920.223	706.435
212.607	20.969	919.352	706.878
213.621	20.844	918.322	705.520
214.636	20.801	917.738	704.834
215.650	20.870	916.869	704.382
216.665	20.881	916.610	704.166
217.680	21.006	916.208	704.300
218.694	21.036	915.301	703.663
219.709	20.961	914.523	702.699
220.723	20.912	913.677	701.789
221.738	20.837	912.578	700.581
222.753	20.794	912.048	699.941
223.767	20.933	911.942	700.355
224.782	21.043	911.655	700.514
225.796	21.191	911.232	700.721
226.811	21.053	909.744	698.961
227.826	20.715	909.162	697.101
228.840	20.672	908.413	696.292
229.855	20.715	907.493	695.699
230.869	20.510	906.999	694.437
231.884	20.535	906.172	693.841
232.899	20.611	905.211	693.347
233.913	20.337	904.863	691.927
234.928	20.391	903.924	691.362
235.942	20.184	903.578	690.215
236.957	20.327	902.726	690.071
237.972	20.226	902.676	689.571
238.986	20.299	901.505	688.902
240.001	20.352	901.165	688.794
241.015	20.405	900.768	688.639
242.030	20.617	900.370	689.116
243.045	20.598	899.607	688.395
244.059	20.595	899.246	688.047
245.074	20.740	898.392	687.904
246.088	20.887	897.943	688.079
247.103	21.094	897.705	688.652
248.117	21.362	897.429	689.438
249.132	21.653	897.294	690.420
250.147	21.837	897.301	691.091
251.161	21.995	896.369	690.936
252.176	22.038	895.941	690.710
253.190	22.106	895.321	690.442
254.205	22.108	894.523	689.772
255.220	21.937	893.940	688.590
256.234	21.850	893.345	687.730
257.249	21.805	892.489	686.832
258.263	21.747	891.598	685.858
259.278	21.817	891.088	685.682
260.293	21.825	891.366	685.864
261.307	22.011	890.159	685.601
262.322	21.976	889.778	685.113
263.336	21.978	889.049	684.499
264.351	22.040	887.845	683.752
265.366	22.076	887.708	683.725
266.380	21.897	887.180	682.561
267.395	21.939	885.958	681.725
268.409	21.821	884.992	680.463
269.424	21.747	884.810	679.976
270.439	21.720	883.696	678.956
271.453	21.763	882.633	678.243
272.468	21.491	882.459	677.000
273.482	21.498	882.071	676.669
274.497	21.655	881.101	676.471
275.512	21.563	881.043	676.012
276.526	21.602	880.144	675.410
277.541	21.697	880.551	676.031
278.555	22.021	879.383	676.321
279.570	22.229	879.088	676.838
280.585	22.087	878.232	675.570
281.599	21.815	877.208	673.678
282.614	21.650	876.462	672.414
283.628	21.484	876.101	671.438
284.643	21.596	875.473	671.330
285.657	21.595	874.726	670.691
286.672	21.621	874.411	670.489
287.687	21.725	873.514	670.144
288.701	21.737	873.114	669.821
289.716	21.766	872.225	669.192
290.730	21.845	871.691	669.021
291.745	21.943	871.285	669.026
292.760	22.087	870.772	669.120
293.774	22.263	870.711	669.684
294.789	22.083	869.654	668.128
295.803	21.774	868.830	666.262
296.818	21.618	868.035	665.002
297.833	21.714	867.453	664.861
298.847	21.776	866.409	664.238
299.862	21.770	865.972	663.819
300.876	21.888	866.283	664.447
301.891	22.281	865.491	665.266
302.906	22.251	865.509	665.108
303.920	22.425	865.101	665.396
304.935	22.547	864.576	665.394
305.949	22.264	863.843	663.701
306.964	22.253	862.906	662.881
307.979	22.059	862.512	661.791
308.993	22.234	861.719	661.781
310.008	22.325	861.326	661.763
311.022	22.150	860.458	660.381
312.037	21.947	859.610	658.909
313.052	21.723	858.859	657.436
314.066	21.632	858.080	656.438
315.081	21.514	857.340	655.371
316.095	21.667	857.232	655.803
317.110	21.634	856.350	654.949
318.125	21.563	855.821	654.222
319.139	21.457	855.460	653.492
320.154	21.561	854.896	653.391
321.168	21.599	854.727	653.344
322.183	21.845	854.037	653.676
323.197	21.727	853.794	652.994
324.212	21.668	853.234	652.287
325.227	21.871	852.072	652.096
326.241	21.767	851.361	651.110
327.256	21.658	851.042	650.403
328.270	21.763	850.269	650.142
329.285	21.600	850.034	649.303
330.300	21.607	848.997	648.480
331.314	21.656	848.864	648.499
332.329	21.981	848.797	649.594
333.343	22.109	848.408	649.712
334.358	21.926	848.641	649.156
335.373	22.250	847.623	649.516
336.387	22.079	847.916	649.055
337.402	22.216	847.596	649.257
338.416	22.450	847.567	650.042
339.431	22.795	846.689	650.583
340.446	22.916	846.263	650.643
341.460	22.785	846.087	649.965
342.475	22.876	845.948	650.137
343.489	22.918	845.470	649.867
344.504	23.134	844.800	650.090
345.519	23.066	844.523	649.569
346.533	22.902	843.815	648.363
347.548	22.529	842.948	646.273
348.562	22.494	841.950	645.323
349.577	22.370	841.462	644.436
350.592	22.157	840.784	643.081
351.606	21.871	840.646	641.874
352.621	22.078	839.334	641.569
353.635	22.103	838.834	641.224
354.650	22.118	838.497	640.962
355.665	22.344	837.587	641.033
356.679	22.455	836.801	640.778
357.694	22.637	836.215	640.937
358.708	22.427	835.722	639.739
359.723	22.498	835.105	639.468
360.738	22.521	834.351	638.917
361.752	22.541	834.037	638.692
362.767	22.777	833.998	639.461
363.781	22.976	833.550	639.782
364.796	23.067	833.343	639.895
365.810	23.149	833.043	639.904
366.825	23.274	832.561	639.931
367.840	23.140	832.131	639.058
368.854	22.910	831.359	637.580
369.869	22.736	831.044	636.653
370.883	22.966	830.160	636.748
371.898	23.049	830.151	636.983
372.913	23.005	830.067	636.705
373.927	23.000	828.722	635.599
374.942	23.062	828.326	635.460
375.956	23.244	828.205	635.968
376.971	23.377	827.560	635.892
377.986	23.376	827.679	635.924
379.000	23.498	826.868	635.683
380.015	23.273	826.333	634.409
381.029	23.157	825.749	633.489
382.044	23.592	824.651	634.146
383.059	23.356	824.622	633.224
384.073	23.233	823.548	631.904
385.088	22.762	822.861	629.642
386.102	22.730	822.255	629.009
387.117	22.738	821.553	628.443
388.132	22.664	820.764	627.522
389.146	22.890	820.263	627.884
390.161	23.147	820.283	628.757
391.175	23.226	819.896	628.686
392.190	22.871	819.244	626.872
393.205	22.915	818.541	626.434
394.219	22.853	818.124	625.841
395.234	22.619	817.458	624.447
396.248	22.584	817.060	623.964
397.263	22.360	816.683	622.828
398.278	22.502	815.960	622.722
399.292	22.489	815.438	622.223
400.307	22.334	815.456	621.633
401.321	22.445	814.950	621.586
402.336	22.663	814.368	621.857
403.350	22.855	814.204	622.352
404.365	23.142	813.913	623.086
405.380	23.361	813.656	623.605
406.394	23.422	813.220	623.429
407.409	23.521	812.781	623.385
408.423	23.734	812.225	623.651
409.438	23.636	812.177	623.216
410.453	23.602	811.945	622.863
411.467	23.748	811.315	622.836
412.482	23.817	811.154	622.902
413.496	23.972	810.323	622.750
414.511	23.956	810.125	622.486
415.526	23.671	809.569	621.008
416.540	23.733	808.848	620.615
417.555	23.680	808.261	619.926
418.569	23.640	808.379	619.820
419.584	23.714	807.762	619.551
420.599	23.710	807.041	618.931
421.613	163.711	1371.541	1797.058
422.628	142.452	1453.779	1797.130
