DTS Sentinel unit serial number:	SN413079Multiplexer serial number:	ORYXHardware model number:	OX4-SRSoftware version number:	ORYX F/W v4.00 Oryx Data Collector v3.7.2.0data status	okinstallation	princeton_trtdifferential loss correction	single-endedforward channel	channel 1reverse channel	N/Adate	2019/09/13time	18:54:35forward acquisition time	60.00reverse acquisition time	0.00gamma	496.2192k internal	0.2322k external	0.2322temperature offset calibration	1.0123default loss term (dB/km)	0.3790temperature slope calibration	1.0000multiplexer offset coefficient	1.0000multiplexer slope coefficient	1.0000fibre end	0.00T internal ref (°C)	32.20T ext. ref 1 (°C)	3.98T ext. ref 2 (°C)	25.49length (m)	temperature (°C)	Stokes	anti-Stokes-747.200	50.308	-0.176	0.168
-746.185	70.415	-0.124	-0.130
-745.171	800.000	0.038	-0.108
-744.156	266.888	0.103	0.181
-743.142	-74.495	-0.218	0.080
-742.127	-200.000	-0.010	-0.086
-741.112	108.071	-0.139	0.168
-740.098	-121.338	0.091	-0.015
-739.083	-56.373	0.238	-0.107
-738.069	580.310	-0.178	0.440
-737.054	33.569	-0.176	-0.154
-736.039	-163.571	-0.355	-0.017
-735.025	-44.114	0.087	-0.044
-734.010	122.151	0.066	0.084
-732.996	-23.562	0.088	-0.053
-731.981	-59.077	-0.053	-0.023
-730.966	-200.000	0.012	0.174
-729.952	-30.820	0.345	-0.197
-728.937	-132.904	-0.178	0.023
-727.923	32.630	-0.232	0.203
-726.908	800.000	0.042	0.165
-725.894	33.615	0.226	0.198
-724.879	116.160	-0.164	-0.203
-723.864	-105.964	-0.212	-0.048
-722.850	-131.652	-0.089	0.012
-721.835	104.623	0.161	0.192
-720.821	-79.037	-0.356	0.122
-719.806	-64.387	0.085	-0.035
-718.791	112.870	0.140	0.172
-717.777	478.892	-0.098	-0.225
-716.762	79.375	-0.167	-0.181
-715.748	119.407	0.152	-0.189
-714.733	-200.000	-0.022	0.104
-713.718	87.943	-0.226	-0.253
-712.704	800.000	0.110	-0.335
-711.689	719.736	-0.156	-0.418
-710.675	-200.000	-0.012	-0.201
-709.660	579.308	0.063	0.157
-708.645	-200.000	-0.010	-0.129
-707.631	-40.191	-0.168	0.089
-706.616	-60.137	-0.333	0.143
-705.602	-52.414	0.176	-0.082
-704.587	-36.342	-0.260	-0.141
-703.572	-66.583	-0.078	-0.031
-702.558	-200.000	-0.039	-0.263
-701.543	524.751	-0.013	-0.031
-700.529	-200.000	-0.064	0.000
-699.514	-112.820	-0.202	0.040
-698.499	-55.731	-0.159	-0.072
-697.485	-184.257	0.244	-0.004
-696.470	114.327	-0.010	-0.012
-695.456	-0.801	0.110	0.079
-694.441	-148.398	-0.149	0.012
-693.426	253.042	0.119	-0.205
-692.412	-200.000	-0.063	-0.281
-691.397	800.000	0.038	0.118
-690.383	14.980	0.141	0.111
-689.368	24.426	0.123	-0.103
-688.354	-200.000	0.022	0.250
-687.339	-70.893	-0.091	-0.035
-686.324	-200.000	-0.036	-0.164
-685.310	198.706	-0.020	0.030
-684.295	-184.591	-0.309	-0.005
-683.281	415.714	-0.080	-0.172
-682.266	-89.513	-0.108	-0.032
-681.251	548.445	0.061	0.147
-680.237	-153.642	-0.182	0.013
-679.222	-200.000	-0.014	-0.198
-678.208	109.751	0.201	-0.242
-677.193	502.527	0.103	-0.239
-676.178	-200.000	-0.026	0.479
-675.164	213.332	-0.115	0.183
-674.149	278.962	-0.052	0.093
-673.135	-19.249	-0.134	0.084
-672.120	133.998	-0.105	-0.138
-671.105	-74.265	-0.290	-0.106
-670.091	-100.864	0.066	-0.016
-669.076	24.249	-0.210	0.175
-668.062	-23.301	0.211	-0.128
-667.047	249.533	0.127	-0.216
-666.032	-164.922	-0.217	-0.010
-665.018	-65.080	-0.079	-0.032
-664.003	-95.687	-0.199	0.054
-662.989	-183.571	-0.088	-0.002
-661.974	-97.371	-0.061	-0.016
-660.959	-105.985	-0.133	-0.030
-659.945	102.401	-0.114	-0.135
-658.930	-37.674	-0.187	0.100
-657.916	404.182	0.078	0.165
-656.901	-130.935	0.133	-0.018
-655.886	-122.863	-0.241	-0.039
-654.872	-82.398	0.415	-0.136
-653.857	-5.076	-0.059	0.041
-652.843	-131.431	0.128	-0.017
-651.828	800.000	-0.033	-0.120
-650.814	726.191	0.082	-0.221
-649.799	-64.097	-0.333	-0.137
-648.784	136.264	0.062	-0.082
-647.770	42.437	-0.129	-0.118
-646.755	-179.600	-0.086	0.002
-645.741	-59.824	-0.236	0.102
-644.726	-75.038	-0.194	-0.070
-643.711	-138.385	0.192	0.021
-642.697	-200.000	-0.008	-0.064
-641.682	101.041	0.153	0.179
-640.668	-25.769	-0.179	-0.106
-639.653	730.565	0.031	0.084
-638.638	60.417	-0.086	0.085
-637.624	-125.967	-0.377	-0.057
-636.609	266.195	-0.178	-0.313
-635.595	-129.836	-0.166	-0.023
-634.580	167.586	0.082	-0.117
-633.565	800.000	0.024	0.102
-632.551	-90.179	0.249	-0.073
-631.536	36.118	-0.154	0.137
-630.522	162.629	-0.061	0.086
-629.507	-54.656	-0.414	-0.188
-628.492	109.231	0.314	0.378
-627.478	-40.331	0.101	-0.053
-626.463	-125.694	0.309	0.047
-625.449	-60.439	-0.419	-0.179
-624.434	-56.719	-0.532	-0.237
-623.419	800.000	0.098	0.321
-622.405	-200.000	0.028	0.134
-621.390	8.963	-0.189	0.144
-620.376	-84.984	0.451	-0.142
-619.361	-200.000	0.085	-0.602
-618.346	329.204	-0.124	-0.239
-617.332	-130.623	-0.256	0.035
-616.317	263.387	0.136	0.237
-615.303	-4.971	0.399	0.276
-614.288	-200.000	-0.002	-0.193
-613.273	4.011	-0.152	0.112
-612.259	172.056	0.177	-0.256
-611.244	-200.000	-0.044	-0.443
-610.230	1.565	-0.260	-0.188
-609.215	-200.000	0.023	0.117
-608.201	-200.000	0.026	0.132
-607.186	-90.950	-0.151	0.044
-606.171	126.438	0.044	0.056
-605.157	76.570	0.269	-0.286
-604.142	-41.470	0.272	-0.141
-603.128	586.906	0.116	-0.287
-602.113	69.145	-0.181	-0.187
-601.098	-11.138	0.163	0.108
-600.084	138.146	0.130	0.171
-599.069	517.008	0.121	0.284
-598.055	-105.485	-0.153	0.035
-597.040	-100.987	-0.118	-0.029
-596.025	363.736	-0.116	-0.234
-595.011	-171.820	-0.114	0.004
-593.996	152.071	0.156	-0.214
-592.982	-117.479	-0.113	0.021
-591.967	-179.280	-0.189	-0.004
-590.952	66.650	-0.119	-0.122
-589.938	-73.238	-0.311	-0.114
-588.923	43.732	-0.191	-0.175
-587.909	716.044	0.059	0.158
-586.894	-5.420	0.320	-0.221
-585.879	-91.943	0.423	-0.120
-584.865	0.340	-0.276	-0.198
-583.850	-63.267	-0.193	0.080
-582.836	71.205	-0.307	-0.320
-581.821	-154.093	0.232	-0.016
-580.806	162.159	0.196	0.276
-579.792	800.000	0.045	-0.186
-578.777	-200.000	-0.015	-0.097
-577.763	-173.914	0.062	-0.002
-576.748	-54.315	0.348	0.158
-575.733	-100.083	0.044	-0.011
-574.719	36.639	-0.063	0.056
-573.704	-200.000	-0.020	0.195
-572.690	-200.000	-0.014	0.099
-571.675	-200.000	0.028	0.272
-570.661	-85.990	-0.301	0.093
-569.646	-110.320	-0.178	0.037
-568.631	-33.188	0.162	-0.090
-567.617	-200.000	0.009	0.160
-566.602	210.786	-0.057	-0.090
-565.588	11.885	-0.147	-0.113
-564.573	3.897	-0.024	-0.018
-563.558	-58.402	-0.329	0.144
-562.544	-84.249	0.269	0.085
-561.529	-106.414	-0.251	-0.056
-560.515	-200.000	-0.023	-0.188
-559.500	-200.000	0.052	-0.241
-558.485	120.647	-0.076	0.094
-557.471	-128.715	0.159	0.023
-556.456	221.265	0.107	-0.173
-555.442	-200.000	-0.012	0.265
-554.427	-33.670	0.298	0.165
-553.412	-200.000	0.013	-0.194
-552.398	-200.000	-0.092	-0.464
-551.383	126.799	-0.236	-0.299
-550.369	-141.559	0.122	0.012
-549.354	784.651	0.065	-0.178
-548.339	-100.672	0.070	0.017
-547.325	-83.390	0.216	0.069
-546.310	-9.898	0.190	0.127
-545.296	-143.594	-0.085	0.008
-544.281	-74.561	0.179	-0.065
-543.266	6.538	-0.136	-0.101
-542.252	59.764	0.121	-0.120
-541.237	-200.000	0.024	-0.133
-540.223	-40.312	-0.060	-0.031
-539.208	246.343	0.097	-0.163
-538.193	103.030	0.047	0.055
-537.179	3.602	0.113	0.083
-536.164	-135.332	-0.320	0.038
-535.150	-132.925	-0.189	-0.024
-534.135	800.000	0.125	-0.391
-533.121	-120.123	0.147	-0.025
-532.106	-37.650	0.279	-0.149
-531.091	-86.547	-0.148	0.046
-530.077	499.024	0.077	-0.178
-529.062	-200.000	0.003	-0.179
-528.048	-106.257	0.381	0.086
-527.033	-20.396	-0.270	0.167
-526.018	67.944	0.104	-0.107
-525.004	-7.492	0.353	0.239
-523.989	-44.060	-0.148	-0.074
-522.975	-200.000	-0.013	-0.169
-521.960	800.000	0.157	-0.456
-520.945	-200.000	-0.005	-0.218
-519.931	558.393	0.006	0.016
-518.916	416.188	-0.066	0.141
-517.902	-33.145	0.204	-0.113
-516.887	430.332	-0.151	0.327
-515.872	-142.429	-0.142	-0.014
-514.858	-122.568	0.482	-0.078
-513.843	-88.203	-0.196	0.059
-512.829	-101.049	0.156	0.038
-511.814	-200.000	0.014	0.158
-510.799	94.064	0.215	0.245
-509.785	800.000	-0.042	-0.143
-508.770	800.000	-0.011	-0.046
-507.756	-169.815	0.310	0.011
-506.741	-200.000	0.018	0.106
-505.726	-96.710	-0.172	0.045
-504.712	148.164	0.189	0.256
-503.697	-200.000	0.025	-0.381
-502.683	16.075	-0.085	0.067
-501.668	14.441	-0.146	0.114
-500.653	-141.966	-0.115	-0.011
-499.639	8.649	0.247	-0.186
-498.624	-200.000	0.478	0.001
-497.610	575.620	0.089	-0.218
-496.595	73.983	-0.256	0.268
-495.581	-20.067	-0.145	-0.090
-494.566	145.851	0.257	-0.345
-493.551	48.218	0.173	0.162
-492.537	-12.339	-0.103	-0.067
-491.522	-95.820	-0.190	0.051
-490.508	-79.718	0.136	0.046
-489.493	-96.552	0.213	-0.056
-488.478	-44.513	-0.115	0.057
-487.464	663.690	-0.101	0.261
-486.449	-115.575	-0.206	0.039
-485.435	311.686	-0.135	0.254
-484.420	-159.378	0.407	-0.023
-483.405	636.984	-0.063	-0.160
-482.391	-70.916	-0.392	-0.148
-481.376	800.000	0.062	0.174
-480.362	-200.000	-0.007	0.166
-479.347	800.000	-0.050	0.142
-478.332	-67.281	0.119	-0.047
-477.318	-200.000	0.024	-0.206
-476.303	800.000	-0.040	-0.149
-475.289	140.181	0.127	-0.168
-474.274	-57.824	0.125	-0.055
-473.259	-200.000	0.035	0.175
-472.245	-53.454	0.099	0.045
-471.230	333.513	-0.260	0.502
-470.216	-131.661	-0.109	-0.014
-469.201	-200.000	-0.027	-0.160
-468.186	37.384	-0.166	0.147
-467.172	192.999	0.236	-0.356
-466.157	-58.164	-0.251	-0.109
-465.143	-20.727	0.316	-0.194
-464.128	203.110	-0.180	-0.278
-463.113	361.431	-0.040	-0.079
-462.099	-96.798	0.215	0.056
-461.084	-200.000	-0.029	0.188
-460.070	-77.390	-0.177	0.061
-459.055	-200.000	-0.018	-0.091
-458.040	326.818	0.122	0.234
-457.026	-200.000	-0.016	0.215
-456.011	800.000	-0.120	0.497
-454.997	-200.000	-0.021	-0.148
-453.982	49.005	0.117	-0.110
-452.968	-101.225	0.236	-0.058
-451.953	-146.776	-0.180	0.016
-450.938	18.888	-0.090	0.072
-449.924	-200.000	0.005	-0.292
-448.909	36.162	-0.110	0.097
-447.895	-56.598	-0.058	-0.025
-446.880	-129.911	-0.131	0.018
-445.865	110.439	-0.190	-0.228
-444.851	622.154	0.135	-0.340
-443.836	-200.000	0.004	0.177
-442.822	-23.168	-0.283	0.170
-441.807	-19.653	0.318	-0.196
-440.792	-159.693	0.078	-0.004
-439.778	-20.716	-0.195	-0.119
-438.763	126.547	-0.119	-0.150
-437.749	70.102	0.047	0.049
-436.734	-200.000	0.025	-0.159
-435.719	800.000	-0.055	0.196
-434.705	-200.000	0.030	0.289
-433.690	-50.096	0.034	-0.016
-432.676	-78.899	-0.239	0.081
-431.661	232.401	0.144	0.235
-430.646	150.846	-0.231	0.313
-429.632	-200.000	-0.014	-0.181
-428.617	82.457	0.054	-0.059
-427.603	-200.000	-0.023	-0.105
-426.588	-139.958	0.315	0.033
-425.573	542.909	-0.120	0.286
-424.559	-64.013	-0.190	0.077
-423.544	-118.836	0.464	-0.081
-422.530	48.812	0.154	0.144
-421.515	-36.358	0.245	0.132
-420.500	-52.006	0.108	-0.050
-419.486	-200.000	-0.007	-0.099
-418.471	-42.488	-0.111	0.057
-417.457	-200.000	-0.002	0.209
-416.442	400.059	-0.106	0.221
-415.428	43.736	0.225	-0.205
-414.413	-200.000	0.010	-0.109
-413.398	-39.999	-0.185	0.096
-412.384	305.930	-0.074	0.137
-411.369	10.135	0.256	0.194
-410.355	-45.719	-0.168	-0.083
-409.340	-117.219	0.151	0.027
-408.325	-50.320	0.236	0.111
-407.311	-19.905	-0.093	-0.057
-406.296	89.144	-0.150	0.167
-405.282	-200.000	0.034	0.219
-404.267	400.378	0.196	0.409
-403.252	307.071	0.081	-0.150
-402.238	-200.000	-0.004	0.085
-401.223	-200.000	-0.040	0.402
-400.209	-99.255	0.104	-0.026
-399.194	-81.979	0.130	0.042
-398.179	-200.000	-0.013	0.364
-397.165	57.208	0.177	-0.172
-396.150	487.627	0.277	0.630
-395.136	300.618	-0.049	-0.090
-394.121	463.939	-0.117	-0.260
-393.106	-10.294	-0.119	-0.079
-392.092	-95.160	0.051	0.014
-391.077	109.283	-0.037	-0.044
-390.063	42.026	-0.076	-0.068
-389.048	-134.111	0.327	0.040
-388.033	800.000	-0.071	-0.242
-387.019	-163.946	-0.337	-0.016
-386.004	102.028	0.213	-0.248
-384.990	800.000	0.047	0.161
-383.975	24.875	0.201	0.166
-382.960	-88.238	-0.171	-0.051
-381.946	-12.778	-0.286	0.186
-380.931	81.753	-0.177	-0.191
-379.917	-200.000	-0.014	-0.143
-378.902	-137.141	0.036	-0.004
-377.888	800.000	0.084	0.248
-376.873	137.840	-0.081	0.106
-375.858	-70.095	0.144	0.055
-374.844	-200.000	0.020	-0.126
-373.829	800.000	0.031	0.108
-372.815	-71.082	0.243	0.091
-371.800	-152.719	-0.172	-0.012
-370.785	-79.910	-0.220	-0.074
-369.771	-177.741	-0.061	-0.001
-368.756	33.820	-0.324	0.281
-367.742	-136.163	0.380	-0.044
-366.727	-200.000	0.014	0.104
-365.712	-16.018	-0.183	0.116
-364.698	14.422	-0.110	-0.085
-363.683	-178.333	-0.263	0.006
-362.669	261.839	0.086	-0.149
-361.654	-71.305	0.243	0.091
-360.639	-171.308	-0.184	-0.006
-359.625	677.935	-0.111	-0.288
-358.610	-2.016	0.118	0.083
-357.596	-67.421	0.129	-0.050
-356.581	-200.000	0.000	0.027
-355.566	-200.000	-0.024	0.322
-354.552	-200.000	0.008	0.189
-353.537	-200.000	0.001	-0.281
-352.523	-200.000	0.051	0.335
-351.508	-24.363	0.062	-0.037
-350.493	-0.952	0.224	-0.158
-349.479	259.954	-0.123	0.211
-348.464	-127.461	0.144	-0.021
-347.450	232.126	0.114	0.185
-346.435	-144.826	-0.276	-0.025
-345.420	-128.767	-0.059	-0.008
-344.406	-125.131	-0.164	-0.025
-343.391	-101.928	0.072	0.017
-342.377	-126.296	0.057	0.008
-341.362	14.667	-0.288	0.224
-340.348	-32.431	-0.067	-0.037
-339.333	112.162	0.050	0.061
-338.318	-34.367	-0.287	0.157
-337.304	-200.000	-0.061	0.404
-336.289	6.437	-0.313	0.231
-335.275	-139.333	-0.225	0.024
-334.260	424.075	-0.076	0.162
-333.245	459.593	0.074	0.164
-332.231	21.188	-0.015	0.012
-331.216	800.000	-0.057	0.193
-330.202	415.022	0.092	-0.195
-329.187	800.000	0.038	0.148
-328.172	-92.139	0.281	-0.079
-327.158	-81.330	0.295	0.097
-326.143	62.474	-0.142	-0.141
-325.129	111.098	0.165	-0.198
-324.114	-200.000	0.081	0.372
-323.099	30.083	0.181	-0.154
-322.085	466.000	-0.058	-0.128
-321.070	800.000	-0.041	-0.134
-320.056	211.892	-0.323	0.506
-319.041	612.495	0.105	0.262
-318.026	-129.228	0.082	0.011
-317.012	67.149	-0.073	-0.074
-315.997	620.098	0.089	0.223
-314.983	-125.728	-0.050	0.007
-313.968	800.000	0.062	0.176
-312.953	-200.000	-0.034	-0.317
-311.939	36.748	-0.215	-0.189
-310.924	13.802	-0.100	-0.077
-309.910	800.000	0.074	-0.233
-308.895	-29.126	0.272	-0.155
-307.880	-104.055	-0.187	-0.043
-306.866	-22.773	0.144	-0.086
-305.851	513.261	0.052	0.120
-304.837	14.769	0.185	-0.143
-303.822	-4.854	-0.016	-0.011
-302.807	-108.049	-0.144	-0.031
-301.793	303.059	0.149	0.274
-300.778	53.955	0.165	-0.158
-299.764	82.742	-0.119	-0.128
-298.749	-133.720	0.335	0.041
-297.735	-200.000	0.031	0.211
-296.720	800.000	0.063	-0.255
-295.705	-112.214	0.310	-0.062
-294.691	-200.000	0.005	0.023
-293.676	-140.210	0.100	0.010
-292.662	-65.178	-0.125	0.050
-291.647	67.335	-0.148	0.150
-290.632	111.054	0.243	-0.290
-289.618	800.000	0.087	-0.306
-288.603	800.000	0.082	-0.259
-287.589	-200.000	0.013	-0.199
-286.574	-200.000	0.014	-0.178
-285.559	-148.362	0.095	-0.008
-284.545	199.468	-0.105	0.160
-283.530	-162.894	-0.178	0.009
-282.516	96.713	0.079	0.090
-281.501	-200.000	-0.028	-0.511
-280.486	64.734	0.346	-0.346
-279.472	436.187	0.073	-0.157
-278.457	800.000	0.021	0.068
-277.443	-47.718	-0.088	-0.043
-276.428	-200.000	-0.001	0.077
-275.413	-117.520	-0.345	0.062
-274.399	-200.000	-0.010	0.216
-273.384	601.114	-0.065	-0.160
-272.370	-53.088	-0.207	0.095
-271.355	-100.237	-0.338	0.083
-270.340	-80.292	-0.055	-0.018
-269.326	800.000	0.019	-0.054
-268.311	177.275	0.082	-0.119
-267.297	-100.683	-0.186	-0.046
-266.282	23.367	-0.268	-0.219
-265.267	800.000	0.048	-0.178
-264.253	-177.614	0.258	-0.006
-263.238	800.000	0.045	-0.141
-262.224	147.843	-0.225	0.301
-261.209	86.586	0.077	0.085
-260.195	-87.939	0.223	-0.067
-259.180	-200.000	-0.003	-0.103
-258.165	-168.106	0.157	-0.006
-257.151	605.587	-0.028	-0.070
-256.136	-113.766	0.364	0.070
-255.122	82.714	-0.113	0.122
-254.107	800.000	-0.088	0.318
-253.092	1.054	0.032	-0.023
-252.078	-200.000	0.030	-0.151
-251.063	800.000	0.052	0.161
-250.049	-200.000	0.013	0.377
-249.034	-200.000	-0.002	-0.266
-248.019	-151.450	-0.440	0.032
-247.005	800.000	-0.005	-0.016
-245.990	-200.000	-0.011	-0.077
-244.976	89.036	0.127	-0.140
-243.961	451.311	0.115	-0.252
-242.946	-8.430	0.146	0.097
-241.932	291.319	0.134	0.242
-240.917	-26.782	0.063	0.037
-239.903	-22.779	-0.373	-0.223
-238.888	5.794	0.170	0.125
-237.873	668.341	-0.046	0.119
-236.859	710.096	-0.052	-0.135
-235.844	-7.359	-0.376	0.252
-234.830	-200.000	0.024	-0.162
-233.815	315.190	0.163	0.304
-232.800	313.202	-0.124	-0.232
-231.786	-7.893	0.131	0.088
-230.771	800.000	0.096	0.366
-229.757	16.538	-0.082	-0.064
-228.742	222.499	0.063	0.101
-227.727	-155.520	0.186	-0.012
-226.713	-72.611	0.205	-0.075
-225.698	243.753	-0.124	-0.205
-224.684	-200.000	-0.053	0.278
-223.669	-136.897	0.386	0.044
-222.655	-200.000	0.009	0.169
-221.640	76.405	-0.181	0.190
-220.625	-200.000	-0.001	-0.007
-219.611	26.295	-0.159	-0.131
-218.596	-200.000	0.054	-0.399
-217.582	-200.000	0.040	0.233
-216.567	-200.000	-0.002	-0.166
-215.552	298.776	-0.095	0.172
-214.538	800.000	-0.056	0.179
-213.523	-200.000	-0.030	0.181
-212.509	-200.000	-0.027	0.156
-211.494	23.705	-0.347	-0.283
-210.479	800.000	-0.021	-0.075
-209.465	126.232	0.023	-0.028
-208.450	518.777	-0.066	0.153
-207.436	-85.811	0.429	-0.131
-206.421	800.000	0.037	-0.105
-205.406	-140.890	-0.438	0.045
-204.392	-148.815	0.077	0.006
-203.377	-200.000	0.028	-0.352
-202.363	474.859	-0.067	0.149
-201.348	-200.000	-0.006	0.203
-200.333	-54.130	-0.255	-0.115
-199.319	-24.071	0.187	0.110
-198.304	-154.238	-0.104	0.007
-197.290	800.000	-0.067	-0.186
-196.275	-140.799	0.155	-0.016
-195.260	-78.336	0.133	-0.045
-194.246	-138.229	0.297	-0.033
-193.231	-68.761	-0.170	0.065
-192.217	111.274	0.048	-0.058
-191.202	304.739	-0.024	0.045
-190.187	230.993	0.215	-0.348
-189.173	-79.558	-0.299	0.100
-188.158	-44.241	-0.426	0.211
-187.144	-69.122	0.269	0.103
-186.129	713.827	0.060	-0.158
-185.114	-148.227	-0.113	-0.009
-184.100	122.389	0.015	-0.018
-183.085	-74.978	-0.288	0.102
-182.071	-105.560	0.254	0.057
-181.056	-200.000	-0.019	0.149
-180.042	19.339	-0.215	0.171
-179.027	-63.575	-0.251	-0.102
-178.012	-74.437	0.310	-0.111
-176.998	315.429	-0.098	-0.183
-175.983	57.832	-0.160	-0.155
-174.969	-122.045	-0.202	0.033
-173.954	740.774	0.031	-0.083
-172.939	-70.784	-0.447	-0.167
-171.925	690.423	0.119	0.307
-170.910	55.796	-0.245	-0.234
-169.896	800.000	-0.015	0.044
-168.881	-73.314	0.116	0.042
-167.866	190.789	-0.099	-0.147
-166.852	-156.827	0.271	-0.016
-165.837	-88.091	0.318	0.094
-164.823	466.438	0.012	0.026
-163.808	-11.358	0.249	0.162
-162.793	-105.034	0.022	0.005
-161.779	-123.079	-0.384	0.061
-160.764	-96.240	0.072	0.019
-159.750	683.644	-0.044	0.114
-158.735	-100.606	-0.073	-0.018
-157.720	-181.804	-0.265	0.005
-156.706	333.492	0.159	-0.304
-155.691	800.000	0.049	0.179
-154.677	383.015	0.116	0.236
-153.662	-62.869	-0.043	-0.017
-152.647	800.000	-0.093	0.292
-151.633	-34.872	0.111	0.060
-150.618	-200.000	0.003	0.174
-149.604	-200.000	0.020	0.161
-148.589	-99.333	0.147	-0.037
-147.574	-53.175	-0.155	-0.070
-146.560	349.362	0.076	-0.148
-145.545	-132.997	0.052	-0.007
-144.531	-200.000	-0.033	-0.230
-143.516	-200.000	-0.018	-0.085
-142.502	-184.399	0.266	-0.004
-141.487	201.900	-0.126	0.192
-140.472	800.000	-0.083	-0.250
-139.458	595.707	-0.156	-0.380
-138.443	-111.281	-0.152	0.031
-137.429	-36.109	0.193	-0.103
-136.414	159.894	-0.055	-0.075
-135.399	-81.103	0.245	0.080
-134.385	800.000	0.059	0.226
-133.370	-125.108	-0.058	0.009
-132.356	800.000	0.047	0.201
-131.341	-102.673	0.209	-0.049
-130.326	10.964	0.233	0.176
-129.312	223.941	0.140	0.223
-128.297	1.551	-0.069	0.049
-127.283	-200.000	-0.001	0.019
-126.268	-94.757	0.566	0.151
-125.253	403.912	0.043	-0.090
-124.239	-74.587	-0.187	-0.067
-123.224	85.209	-0.261	-0.283
-122.210	84.749	-0.218	-0.235
-121.195	342.949	0.118	-0.227
-120.180	573.113	-0.085	-0.205
-119.166	-200.000	-0.030	-0.267
-118.151	-46.742	0.181	0.087
-117.137	224.520	-0.070	0.112
-116.122	177.255	0.061	0.088
-115.107	-200.000	-0.046	0.215
-114.093	-4.401	0.376	-0.257
-113.078	-92.416	-0.357	0.099
-112.064	417.445	-0.062	-0.130
-111.049	86.424	-0.066	-0.071
-110.034	138.325	0.154	0.200
-109.020	160.330	-0.067	0.093
-108.005	-59.988	-0.238	-0.100
-106.991	204.824	-0.106	-0.162
-105.976	319.082	0.082	0.153
-104.962	-84.068	0.470	-0.147
-103.947	596.456	-0.061	0.149
-102.932	800.000	-0.193	-0.552
-101.918	-118.551	0.227	-0.040
-100.903	251.931	-0.122	-0.204
-99.889	-50.012	-0.134	0.062
-98.874	-70.772	-0.515	-0.191
-97.859	-200.000	0.012	-0.397
-96.845	-52.910	-0.193	-0.087
-95.830	-9.925	0.089	0.059
-94.816	-200.000	0.049	0.452
-93.801	126.888	0.142	0.177
-92.786	-121.760	0.251	0.041
-91.772	180.199	0.097	0.139
-90.757	-91.691	-0.313	0.088
-89.743	-96.441	0.123	-0.032
-88.728	341.378	-0.050	0.096
-87.713	-200.000	-0.009	-0.045
-86.699	-95.270	-0.051	0.014
-85.684	-125.532	-0.164	0.025
-84.670	-91.636	0.292	-0.082
-83.655	23.978	0.382	0.310
-82.640	214.250	-0.197	0.307
-81.626	-200.000	0.094	-0.421
-80.611	-87.533	-0.612	-0.182
-79.597	800.000	-0.065	-0.181
-78.582	-83.847	0.111	-0.035
-77.567	74.463	0.263	0.273
-76.553	340.005	-0.050	-0.096
-75.538	-101.885	-0.292	0.070
-74.524	61.936	0.192	-0.188
-73.509	113.269	-0.143	-0.171
-72.494	17.522	0.159	-0.125
-71.480	-80.622	0.416	0.136
-70.465	-80.882	0.135	0.044
-69.451	335.879	-0.150	-0.287
-68.436	-80.089	0.248	-0.082
-67.422	-125.005	0.329	0.050
-66.407	800.000	-0.191	-0.597
-65.392	-77.429	-0.277	-0.094
-64.378	-149.084	0.308	0.024
-63.363	800.000	-0.106	0.337
-62.349	800.000	-0.014	-0.060
-61.334	4.435	-1.090	-0.787
-60.319	281.529	0.353	0.621
-59.305	-200.000	-0.072	-1.017
-58.290	627.688	0.477	1.186
-57.276	-200.000	0.289	1.636
-56.261	-200.000	97.968	603.354
-55.246	635.731	1378.837	3442.092
-54.232	198.758	2551.798	3842.214
-53.217	121.540	2133.839	2615.386
-52.203	44.327	1599.701	1444.111
-51.188	35.901	1338.616	1157.963
-50.173	32.626	1297.255	1103.003
-49.159	55.337	1345.731	1280.032
-48.144	57.697	1362.571	1310.040
-47.130	35.964	1320.490	1142.473
-46.115	32.423	1303.070	1106.580
-45.100	32.157	1298.517	1101.112
-44.086	32.150	1295.984	1098.876
-43.071	32.165	1293.232	1096.588
-42.057	32.067	1291.086	1094.156
-41.042	32.128	1290.091	1093.625
-40.027	32.094	1288.323	1091.881
-39.013	32.144	1286.551	1090.629
-37.998	32.119	1284.509	1088.712
-36.984	32.088	1283.008	1087.214
-35.969	32.327	1280.801	1086.682
-34.954	32.262	1279.136	1084.855
-33.940	32.302	1277.393	1083.563
-32.925	32.307	1276.980	1083.197
-31.911	32.247	1275.287	1081.370
-30.896	32.269	1274.143	1080.486
-29.881	32.287	1272.491	1079.147
-28.867	32.419	1270.996	1078.594
-27.852	32.423	1269.045	1076.915
-26.838	32.395	1268.065	1075.879
-25.823	32.370	1266.662	1074.508
-24.809	32.280	1265.654	1073.095
-23.794	32.232	1264.606	1071.887
-22.779	32.232	1262.960	1070.450
-21.765	32.203	1262.059	1069.479
-20.750	32.252	1260.694	1068.557
-19.736	32.116	1259.566	1066.788
-18.721	32.063	1258.603	1065.627
-17.706	32.149	1256.700	1064.463
-16.692	32.129	1255.665	1063.435
-15.677	32.163	1254.817	1062.865
-14.663	32.188	1253.529	1061.871
-13.648	32.120	1252.815	1060.841
-12.633	32.109	1251.463	1059.592
-11.619	32.137	1250.843	1059.181
-10.604	32.128	1250.108	1058.469
-9.590	32.058	1249.176	1057.239
-8.575	32.141	1248.016	1056.686
-7.560	32.151	1246.934	1055.785
-6.546	32.210	1246.028	1055.306
-5.531	32.111	1245.408	1054.183
-4.517	31.973	1244.914	1052.946
-3.502	32.174	1243.452	1052.795
-2.487	32.162	1242.817	1052.151
-1.473	32.058	1238.259	1047.669
-0.458	30.191	1222.344	1023.868
0.556	26.930	1203.202	979.533
1.571	22.435	1206.745	957.930
2.586	21.117	1220.671	961.644
3.600	20.259	1209.216	947.849
4.615	15.208	1138.503	866.297
5.629	7.587	1066.015	774.050
6.644	4.242	1046.605	743.863
7.659	3.875	1044.215	740.340
8.673	3.808	1043.321	739.322
9.688	4.016	1041.641	739.059
10.702	3.993	1040.200	737.862
11.717	8.376	1045.516	762.530
12.731	16.095	1056.842	807.839
13.746	20.510	1061.823	832.782
14.761	20.865	1061.394	834.072
15.775	19.829	1060.183	828.087
16.790	18.926	1057.772	821.819
17.804	18.214	1056.498	817.357
18.819	17.860	1055.351	814.707
19.834	17.748	1055.006	813.833
20.848	17.656	1054.053	812.588
21.863	17.382	1053.605	810.864
22.877	17.215	1052.698	809.300
23.892	17.312	1051.538	808.799
24.907	17.264	1051.164	808.210
25.921	17.222	1050.008	807.050
26.936	17.173	1048.805	805.822
27.950	17.284	1047.157	805.010
28.965	17.291	1045.968	804.057
29.980	17.608	1044.271	804.180
30.994	17.565	1043.523	803.330
32.009	17.663	1042.439	802.885
33.023	17.653	1041.475	802.022
34.038	17.515	1040.236	800.352
35.053	17.316	1039.454	798.743
36.067	17.441	1038.796	798.754
37.082	17.478	1037.895	798.162
38.096	17.569	1037.235	798.012
39.111	17.524	1036.447	797.123
40.126	17.352	1035.465	795.493
41.140	17.164	1033.621	793.130
42.155	16.945	1032.828	791.428
43.169	17.037	1031.329	790.639
44.184	17.098	1030.117	789.924
45.199	16.920	1030.042	788.965
46.213	17.094	1028.654	788.643
47.228	17.353	1027.596	788.962
48.242	17.392	1026.779	788.446
49.257	17.395	1025.822	787.659
50.271	17.376	1025.688	787.396
51.286	17.452	1024.539	786.797
52.301	17.455	1023.202	785.715
53.315	17.244	1022.422	784.070
54.330	17.210	1021.071	782.809
55.344	17.235	1020.138	782.139
56.359	17.171	1019.408	781.219
57.374	17.248	1018.340	780.683
58.388	17.047	1018.095	779.505
59.403	17.026	1016.797	778.345
60.417	16.976	1016.009	777.445
61.432	17.005	1015.133	776.836
62.447	16.893	1014.649	775.883
63.461	16.853	1013.994	775.132
64.476	16.671	1013.123	773.564
65.490	16.887	1012.106	773.709
66.505	16.927	1011.625	773.455
67.520	16.909	1011.091	772.894
68.534	16.966	1010.096	772.323
69.549	16.858	1009.174	771.063
70.563	16.925	1008.379	770.690
71.578	16.726	1007.680	769.182
72.593	16.883	1006.453	768.890
73.607	16.583	1006.368	767.400
74.622	16.757	1005.524	767.474
75.636	16.829	1004.793	767.173
76.651	16.776	1004.538	766.670
77.666	16.756	1003.786	765.940
78.680	16.881	1002.927	765.780
79.695	16.861	1002.303	765.148
80.709	16.949	1001.950	765.206
81.724	17.062	1001.243	765.109
82.739	17.220	1000.311	765.039
83.753	17.360	999.796	765.208
84.768	17.524	999.310	765.508
85.782	17.676	998.623	765.595
86.797	17.612	997.909	764.692
87.812	17.384	996.510	762.532
88.826	17.280	995.619	761.314
89.841	17.477	994.695	761.422
90.855	17.581	994.135	761.392
91.870	17.538	993.123	760.358
92.884	17.565	991.979	759.536
93.899	17.701	991.216	759.490
94.914	17.886	990.257	759.509
95.928	17.638	990.098	758.219
96.943	17.641	988.583	757.004
97.957	17.540	987.666	755.788
98.972	17.581	986.763	755.211
99.987	17.646	986.136	754.951
101.001	17.447	985.020	753.149
102.016	17.568	984.322	753.085
103.030	17.672	983.889	753.148
104.045	17.636	982.683	751.997
105.060	17.498	981.950	750.760
106.074	17.188	981.103	748.682
107.089	17.043	980.064	747.183
108.103	17.042	979.098	746.378
109.118	17.166	977.335	745.510
110.133	17.030	976.927	744.538
111.147	16.862	976.417	743.347
112.162	16.912	975.610	742.887
113.176	17.087	974.830	742.993
114.191	17.237	974.269	743.156
115.206	17.148	973.170	741.863
116.220	17.032	972.261	740.599
117.235	17.100	971.647	740.361
118.249	16.985	970.706	739.078
119.264	17.085	969.640	738.636
120.279	16.909	969.739	737.880
121.293	16.900	968.234	736.630
122.308	16.851	967.604	735.872
123.322	16.850	966.568	735.017
124.337	16.827	965.474	734.020
125.352	16.858	964.193	733.115
126.366	16.811	963.525	732.337
127.381	16.934	961.934	731.594
128.395	16.863	961.367	730.795
129.410	16.932	960.630	730.464
130.424	17.041	959.919	730.330
131.439	17.225	958.827	730.223
132.454	17.317	958.245	730.110
133.468	17.259	957.651	729.344
134.483	17.169	956.892	728.316
135.497	17.208	955.892	727.659
136.512	17.195	955.472	727.219
137.527	17.238	954.385	726.513
138.541	17.233	953.821	725.996
139.556	17.244	952.664	725.099
140.570	17.368	952.591	725.506
141.585	17.638	951.531	725.785
142.600	17.673	950.631	725.182
143.614	17.645	949.934	724.470
144.629	17.746	949.353	724.392
145.643	17.619	948.136	722.861
146.658	17.371	947.365	721.156
147.673	17.320	946.218	720.003
148.687	17.243	945.639	719.173
149.702	17.119	944.487	717.710
150.716	17.242	943.724	717.586
151.731	17.179	943.254	716.898
152.746	17.165	942.370	716.104
153.760	17.344	941.993	716.509
154.775	17.424	941.271	716.234
155.789	17.538	940.665	716.188
156.804	17.604	939.596	715.588
157.819	17.571	939.199	715.085
158.833	17.845	938.242	715.444
159.848	17.998	937.253	715.264
160.862	17.684	936.393	713.233
161.877	17.466	935.478	711.561
162.892	17.272	934.510	709.950
163.906	17.269	933.515	709.120
164.921	17.363	933.009	709.063
165.935	17.405	932.007	708.414
166.950	17.410	931.159	707.728
167.964	17.514	930.452	707.562
168.979	17.315	929.731	706.123
169.994	17.291	928.573	705.080
171.008	17.395	928.311	705.251
172.023	17.584	927.524	705.373
173.037	17.616	927.195	705.192
174.052	17.695	925.740	704.351
175.067	17.303	925.453	702.452
176.081	17.253	924.419	701.398
177.096	17.387	923.688	701.335
178.110	17.384	923.326	700.986
179.125	17.373	923.132	700.732
180.140	17.489	922.430	700.612
181.154	17.516	922.204	700.489
182.169	17.638	921.993	700.768
183.183	17.705	921.341	700.487
184.198	17.740	920.285	699.764
185.213	17.668	919.600	698.889
186.227	17.770	918.755	698.603
187.242	17.829	918.617	698.676
188.256	17.913	917.935	698.441
189.271	17.824	917.239	697.485
190.286	17.478	916.220	695.235
191.300	17.269	915.339	693.651
192.315	17.208	914.544	692.741
193.329	17.364	914.040	692.932
194.344	17.326	913.008	691.935
195.359	17.425	912.827	692.138
196.373	17.684	912.516	692.893
197.388	17.854	912.194	693.279
198.402	17.932	911.854	693.276
199.417	18.067	910.860	693.006
200.432	18.086	910.656	692.869
201.446	18.248	909.935	692.914
202.461	18.303	909.595	692.815
203.475	18.186	908.874	691.730
204.490	18.097	907.396	690.188
205.504	17.829	907.283	688.957
206.519	17.854	906.384	688.315
207.534	17.951	905.678	688.110
208.548	17.940	904.982	687.476
209.563	17.925	904.602	687.064
210.577	18.022	903.945	686.894
211.592	18.060	903.260	686.466
212.607	18.244	902.476	686.548
213.621	17.955	902.090	685.035
214.636	18.149	900.828	684.792
215.650	18.088	900.684	684.377
216.665	18.184	899.833	684.053
217.680	18.357	899.185	684.191
218.694	18.305	898.653	683.521
219.709	18.281	897.560	682.531
220.723	18.271	897.308	682.240
221.738	18.171	896.705	681.322
222.753	18.205	895.753	680.677
223.767	18.325	895.723	681.069
224.782	18.449	895.047	680.989
225.796	18.621	894.074	680.872
226.811	18.366	893.248	679.168
227.826	18.261	892.522	678.141
228.840	18.269	892.039	677.745
229.855	18.237	891.381	677.062
230.869	18.146	890.676	676.107
231.884	18.170	889.783	675.464
232.899	18.302	888.929	675.277
233.913	18.055	888.628	674.012
234.928	18.073	887.936	673.500
235.942	18.037	887.480	672.950
236.957	18.111	886.445	672.400
237.972	18.016	886.521	672.021
238.986	17.988	886.083	671.521
240.001	17.990	885.278	670.861
241.015	18.212	884.567	671.132
242.030	18.230	883.997	670.711
243.045	18.342	883.295	670.557
244.059	18.213	883.386	670.062
245.074	18.437	882.099	669.904
246.088	18.491	881.744	669.783
247.103	18.523	880.967	669.260
248.117	18.620	880.821	669.469
249.132	18.868	880.511	670.141
250.147	18.976	880.027	670.133
251.161	19.060	879.198	669.771
252.176	19.023	878.766	669.238
253.190	19.059	878.103	668.813
254.205	19.024	878.000	668.539
255.220	18.979	876.794	667.388
256.234	19.091	876.296	667.383
257.249	19.167	875.162	666.756
258.263	19.006	874.895	665.872
259.278	19.051	874.341	665.563
260.293	19.070	873.830	665.189
261.307	19.171	872.987	664.880
262.322	19.184	872.752	664.693
263.336	19.279	871.865	664.323
264.351	19.295	870.871	663.569
265.366	19.234	870.559	663.038
266.380	19.300	869.631	662.525
267.395	19.074	869.095	661.191
268.409	18.989	868.584	660.418
269.424	19.107	867.305	659.837
270.439	19.092	867.215	659.654
271.453	18.944	866.374	658.390
272.468	18.988	865.805	658.066
273.482	18.953	865.331	657.513
274.497	19.153	864.327	657.458
275.512	19.002	864.196	656.722
276.526	18.936	863.872	656.168
277.541	19.134	863.272	656.409
278.555	19.142	862.779	656.004
279.570	19.397	862.296	656.549
280.585	19.404	861.129	655.630
281.599	19.299	860.257	654.512
282.614	19.175	859.860	653.678
283.628	19.206	859.103	653.165
284.643	19.097	858.581	652.296
285.657	19.248	858.072	652.425
286.672	19.038	857.693	651.282
287.687	19.262	856.878	651.455
288.701	19.212	856.073	650.595
289.716	19.195	855.899	650.341
290.730	19.357	854.963	650.184
291.745	19.314	854.603	649.690
292.760	19.331	854.417	649.555
293.774	19.616	853.501	649.873
294.789	19.501	852.988	648.991
295.803	19.251	852.312	647.483
296.818	19.405	851.152	647.120
297.833	19.279	850.593	646.166
298.847	19.352	849.939	645.887
299.862	19.400	849.437	645.626
300.876	19.568	849.158	645.988
301.891	19.606	848.418	645.509
302.906	19.497	848.146	644.836
303.920	19.723	847.835	645.387
304.935	19.827	847.257	645.278
305.949	19.747	846.727	644.520
306.964	19.645	845.954	643.494
307.979	19.642	845.364	642.978
308.993	19.700	844.676	642.613
310.008	19.836	844.145	642.659
311.022	19.711	843.448	641.604
312.037	19.463	842.903	640.214
313.052	19.344	842.604	639.490
314.066	19.385	841.322	638.611
315.081	19.459	840.933	638.532
316.095	19.344	840.236	637.523
317.110	19.369	840.062	637.425
318.125	19.390	839.385	636.936
319.139	19.477	838.844	636.788
320.154	19.504	838.330	636.440
321.168	19.422	838.339	636.091
322.183	19.412	837.491	635.354
323.197	19.594	836.904	635.522
324.212	19.521	836.617	634.980
325.227	19.538	835.999	634.517
326.241	19.473	835.704	633.997
327.256	19.591	834.693	633.606
328.270	19.519	834.324	633.007
329.285	19.500	833.682	632.394
330.300	19.472	832.814	631.578
331.314	19.644	832.523	631.929
332.329	19.710	832.279	631.931
333.343	19.748	832.012	631.809
334.358	19.732	831.560	631.351
335.373	19.903	830.870	631.396
336.387	19.919	830.465	631.091
337.402	19.888	830.234	630.749
338.416	20.068	829.659	630.911
339.431	20.106	829.809	631.108
340.446	20.133	829.734	631.093
341.460	20.167	829.051	630.640
342.475	20.146	828.698	630.241
343.489	20.237	828.597	630.438
344.504	20.197	828.360	630.057
345.519	20.390	827.315	629.906
346.533	20.480	826.608	629.637
347.548	20.108	825.832	627.646
348.562	19.972	825.362	626.741
349.577	19.998	824.628	626.221
350.592	20.045	823.854	625.747
351.606	19.893	823.209	624.652
352.621	19.883	822.659	624.146
353.635	19.847	822.544	623.871
354.650	19.952	821.643	623.512
355.665	20.010	820.673	622.931
356.679	20.088	820.534	623.049
357.694	19.997	819.802	622.112
358.708	20.104	819.273	622.039
359.723	20.150	818.577	621.621
360.738	20.179	817.844	621.110
361.752	20.135	817.719	620.807
362.767	20.228	817.209	620.694
363.781	20.327	816.861	620.732
364.796	20.509	816.276	620.881
365.810	20.663	816.097	621.241
366.825	20.676	815.607	620.857
367.840	20.572	814.895	619.892
368.854	20.429	814.563	619.072
369.869	20.390	813.897	618.375
370.883	20.499	813.500	618.406
371.898	20.622	813.387	618.702
372.913	20.738	812.948	618.727
373.927	20.424	812.384	617.126
374.942	20.611	811.712	617.226
375.956	20.597	811.547	616.997
376.971	20.760	810.877	617.008
377.986	20.739	810.934	616.923
379.000	20.907	810.172	616.886
380.015	20.717	810.182	616.164
381.029	20.812	808.903	615.472
382.044	20.916	808.506	615.485
383.059	21.026	807.550	615.091
384.073	20.738	807.414	613.915
385.088	20.666	806.582	612.975
386.102	20.324	806.306	611.506
387.117	20.431	805.530	611.240
388.132	20.701	804.481	611.338
389.146	20.631	804.448	611.015
390.161	20.811	803.884	611.165
391.175	20.815	803.555	610.875
392.190	20.675	803.214	610.068
393.205	20.555	802.525	609.070
394.219	20.473	802.522	608.730
395.234	20.645	801.730	608.676
396.248	20.540	801.171	607.829
397.263	20.329	800.635	606.630
398.278	20.433	800.523	606.855
399.292	20.402	799.819	606.162
400.307	20.566	799.230	606.235
401.321	20.580	798.945	606.011
402.336	20.559	798.734	605.726
403.350	20.713	798.289	605.871
404.365	20.919	797.695	606.082
405.380	21.017	797.231	606.016
406.394	20.999	796.887	605.639
407.409	21.040	796.471	605.411
408.423	21.083	796.662	605.652
409.438	21.173	796.005	605.412
410.453	21.258	795.510	605.276
411.467	21.264	795.203	605.011
412.482	21.389	794.726	605.026
413.496	21.417	794.272	604.725
414.511	21.355	793.759	604.065
415.526	21.396	793.490	603.948
416.540	21.232	792.693	602.722
417.555	21.205	792.583	602.492
418.569	21.336	791.939	602.400
419.584	21.236	791.996	602.046
420.599	21.314	791.374	601.790
421.613	161.682	1370.106	1794.855
422.628	140.099	1454.449	1794.943
