DTS Sentinel unit serial number:	SN413079Multiplexer serial number:	ORYXHardware model number:	OX4-SRSoftware version number:	ORYX F/W v4.00 Oryx Data Collector v3.7.2.0data status	okinstallation	princeton_trtdifferential loss correction	single-endedforward channel	channel 1reverse channel	N/Adate	2019/09/12time	04:56:11forward acquisition time	60.00reverse acquisition time	0.00gamma	496.2192k internal	0.2323k external	0.2323temperature offset calibration	1.0060default loss term (dB/km)	0.3790temperature slope calibration	1.0000multiplexer offset coefficient	1.0000multiplexer slope coefficient	1.0000fibre end	0.00T internal ref (°C)	31.69T ext. ref 1 (°C)	1.80T ext. ref 2 (°C)	27.08length (m)	temperature (°C)	Stokes	anti-Stokes-747.200	800.000	-0.086	0.346
-746.185	-200.000	0.018	0.141
-745.171	-173.270	-0.113	-0.003
-744.156	-24.803	0.090	-0.054
-743.142	22.368	0.184	0.152
-742.127	-200.000	0.052	0.353
-741.112	-200.000	-0.083	0.510
-740.098	-106.607	-0.093	0.021
-739.083	-200.000	-0.008	0.159
-738.069	43.064	-0.201	-0.185
-737.054	18.687	0.135	0.109
-736.039	-1.623	-0.155	-0.110
-735.025	800.000	0.029	0.105
-734.010	-200.000	-0.024	-0.108
-732.996	800.000	0.047	0.149
-731.981	-94.621	-0.274	-0.075
-730.966	800.000	-0.046	0.198
-729.952	195.269	0.062	-0.095
-728.937	-189.447	0.030	-0.000
-727.923	194.571	0.167	0.256
-726.908	-200.000	-0.006	0.207
-725.894	179.280	-0.259	-0.383
-724.879	455.071	-0.109	-0.244
-723.864	353.446	-0.110	0.221
-722.850	518.862	0.220	0.519
-721.835	62.331	-0.095	0.095
-720.821	-106.388	-0.201	0.045
-719.806	189.064	0.323	-0.488
-718.791	-109.225	-0.491	-0.105
-717.777	-200.000	0.004	-0.117
-716.762	-54.087	-0.350	-0.161
-715.748	224.301	0.100	-0.163
-714.733	306.725	-0.263	0.493
-713.718	-200.000	0.008	-0.154
-712.704	-118.399	-0.018	-0.003
-711.689	70.717	-0.106	-0.110
-710.675	-106.479	-0.221	0.050
-709.660	800.000	0.168	-0.528
-708.645	-45.486	0.066	0.033
-707.631	-15.941	-0.123	-0.079
-706.616	13.319	-0.175	-0.137
-705.602	-19.842	0.142	-0.088
-704.587	800.000	0.036	0.120
-703.572	162.868	-0.159	-0.225
-702.558	-200.000	-0.054	-0.260
-701.543	63.217	-0.067	0.067
-700.529	-58.963	0.072	-0.031
-699.514	327.405	0.068	-0.131
-698.499	71.523	0.253	0.265
-697.485	-156.560	0.101	-0.006
-696.470	-200.000	-0.021	-0.151
-695.456	502.242	-0.056	-0.130
-694.441	223.007	-0.099	-0.161
-693.426	-200.000	-0.028	0.132
-692.412	-94.839	0.172	0.047
-691.397	-200.000	0.005	-0.066
-690.383	476.962	-0.093	-0.211
-689.368	-47.174	-0.224	0.110
-688.354	232.313	0.256	-0.423
-687.339	-46.648	0.375	0.185
-686.324	-137.265	-0.251	0.029
-685.310	-200.000	0.002	-0.369
-684.295	108.415	0.117	0.140
-683.281	-166.273	-0.589	-0.025
-682.266	130.172	0.126	0.163
-681.251	-4.833	-0.028	0.019
-680.237	28.434	0.115	-0.098
-679.222	-23.565	-0.103	-0.062
-678.208	800.000	-0.011	0.041
-677.193	-116.468	0.107	-0.020
-676.178	-64.557	-0.121	0.050
-675.164	18.686	-0.133	0.107
-674.149	-200.000	0.009	-0.195
-673.135	-200.000	-0.015	-0.158
-672.120	-106.320	0.407	-0.092
-671.105	-133.148	0.224	0.029
-670.091	52.453	-0.261	0.251
-669.076	-29.617	-0.141	-0.081
-668.062	-200.000	0.005	-0.249
-667.047	-59.032	0.190	-0.082
-666.032	-170.247	-0.170	0.006
-665.018	39.118	-0.212	0.191
-664.003	-200.000	0.036	0.277
-662.989	166.955	0.087	0.124
-661.974	-80.060	0.198	0.067
-660.959	-92.633	0.274	0.077
-659.945	-147.633	-0.408	0.035
-658.930	546.488	0.100	-0.241
-657.916	-33.862	0.174	-0.096
-656.901	256.798	-0.144	-0.249
-655.886	20.083	-0.147	-0.119
-654.872	-132.632	-0.196	-0.025
-653.857	-75.478	-0.088	-0.032
-652.843	77.399	0.108	-0.115
-651.828	-84.350	0.086	-0.028
-650.814	638.718	0.063	-0.160
-649.799	-200.000	-0.001	-0.278
-648.784	88.519	-0.183	-0.204
-647.770	-69.705	-0.349	-0.134
-646.755	247.959	-0.068	-0.115
-645.741	-60.517	-0.266	-0.114
-644.726	-80.277	-0.270	0.091
-643.711	-200.000	0.064	-0.323
-642.697	-80.039	0.258	-0.087
-641.682	800.000	0.034	-0.129
-640.668	-185.341	-0.142	-0.002
-639.653	40.663	-0.080	-0.072
-638.638	-105.378	0.366	0.084
-637.624	-79.770	0.059	0.020
-636.609	-200.000	-0.016	-0.343
-635.595	800.000	-0.031	0.126
-634.580	125.609	-0.052	0.066
-633.565	54.851	0.157	-0.152
-632.551	-47.517	-0.149	-0.073
-631.536	156.848	0.032	-0.045
-630.522	41.323	0.047	-0.043
-629.507	-51.152	-0.235	-0.111
-628.492	-169.493	-0.169	-0.006
-627.478	433.908	0.124	-0.271
-626.463	46.215	-0.053	-0.050
-625.449	-128.990	0.036	0.005
-624.434	-96.567	-0.110	-0.029
-623.419	133.980	-0.236	-0.307
-622.405	481.310	-0.060	-0.137
-621.390	-7.830	0.237	-0.161
-620.376	383.891	-0.040	-0.084
-619.361	800.000	0.070	-0.245
-618.346	-49.682	0.149	-0.071
-617.332	-3.510	0.244	-0.171
-616.317	-28.137	0.248	0.144
-615.303	287.440	-0.057	0.104
-614.288	45.094	-0.240	-0.222
-613.273	-160.477	-0.500	-0.027
-612.259	-73.682	0.310	-0.113
-611.244	-44.333	0.127	0.064
-610.230	56.528	0.166	0.162
-609.215	161.378	-0.053	0.075
-608.201	-200.000	0.001	0.056
-607.186	-99.753	0.267	0.067
-606.171	494.703	-0.112	-0.259
-605.157	18.279	-0.187	0.150
-604.142	75.339	-0.150	-0.159
-603.128	-200.000	0.090	0.475
-602.113	327.194	0.144	0.277
-601.098	-111.075	0.359	-0.074
-600.084	63.929	-0.219	-0.221
-599.069	-125.490	-0.084	-0.013
-598.055	-200.000	-0.050	0.352
-597.040	-116.551	-0.230	-0.043
-596.025	292.425	-0.042	-0.077
-595.011	-131.453	-0.117	0.016
-593.996	-200.000	-0.001	0.226
-592.982	-200.000	0.006	0.119
-591.967	800.000	-0.060	0.255
-590.952	13.877	-0.092	-0.072
-589.938	351.980	-0.149	-0.296
-588.923	-200.000	-0.006	0.089
-587.909	800.000	-0.131	-0.366
-586.894	-200.000	0.022	-0.302
-585.879	-127.796	0.363	0.053
-584.865	-16.485	0.128	-0.081
-583.850	800.000	-0.087	-0.350
-582.836	149.287	0.061	0.083
-581.821	232.265	0.066	-0.108
-580.806	-69.687	-0.086	0.033
-579.792	-200.000	-0.063	0.366
-578.777	41.221	0.274	0.249
-577.763	800.000	-0.081	0.245
-576.748	617.896	0.039	-0.098
-575.733	58.436	0.252	0.248
-574.719	144.030	0.090	-0.120
-573.704	-200.000	-0.007	-0.045
-572.690	37.514	-0.286	0.255
-571.675	-200.000	0.027	-0.266
-570.661	-67.133	0.088	0.035
-569.646	800.000	0.042	0.156
-568.631	245.685	0.074	-0.125
-567.617	-180.132	0.237	-0.005
-566.602	2.944	0.074	0.054
-565.588	-200.000	0.059	0.379
-564.573	800.000	-0.039	-0.114
-563.558	-200.000	-0.034	0.361
-562.544	235.895	0.107	0.177
-561.529	800.000	0.018	0.066
-560.515	-138.978	0.302	0.033
-559.500	-200.000	0.020	-0.283
-558.485	513.408	-0.086	0.201
-557.471	800.000	0.096	0.317
-556.456	2.985	0.176	0.128
-555.442	110.094	-0.162	0.195
-554.427	598.086	-0.149	0.369
-553.412	-17.827	-0.431	0.271
-552.398	-60.056	0.140	0.060
-551.383	252.229	-0.089	0.152
-550.369	29.168	-0.205	0.174
-549.354	-130.037	-0.059	0.008
-548.339	364.049	0.129	-0.259
-547.325	-154.063	-0.370	-0.025
-546.310	-66.963	0.160	0.063
-545.296	-81.948	-0.194	-0.063
-544.281	94.245	-0.307	0.349
-543.266	-9.745	-0.296	0.198
-542.252	474.430	0.045	0.101
-541.237	800.000	0.056	0.169
-540.223	-200.000	0.041	0.245
-539.208	-74.341	-0.231	0.084
-538.193	-49.206	0.018	0.009
-537.179	285.100	-0.099	0.179
-536.164	-3.068	0.343	-0.240
-535.150	-40.646	0.252	-0.131
-534.135	107.170	-0.066	-0.079
-533.121	-144.208	-0.126	0.012
-532.106	73.906	0.030	0.032
-531.091	-93.780	-0.044	-0.012
-530.077	60.913	-0.146	-0.145
-529.062	31.715	-0.162	-0.139
-528.048	397.079	-0.035	-0.074
-527.033	-16.562	-0.177	0.112
-526.018	90.552	0.242	0.272
-525.004	30.619	-0.106	0.091
-523.989	55.025	0.049	0.047
-522.975	89.410	0.077	0.086
-521.960	-0.348	-0.138	-0.098
-520.945	109.347	-0.146	-0.175
-519.931	-200.000	0.012	-0.164
-518.916	-48.731	0.032	0.015
-517.902	1.530	0.168	0.121
-516.887	21.153	-0.055	-0.045
-515.872	161.260	0.044	0.062
-514.858	6.615	-0.207	0.154
-513.843	513.869	0.028	-0.066
-512.829	426.790	-0.048	-0.103
-511.814	-21.391	-0.054	0.033
-510.799	-147.799	0.249	0.021
-509.785	-200.000	0.031	0.241
-508.770	-129.858	-0.139	-0.019
-507.756	800.000	-0.067	0.224
-506.741	-126.963	0.124	-0.018
-505.726	37.269	-0.115	-0.102
-504.712	-39.933	-0.164	-0.086
-503.697	208.696	0.113	0.178
-502.683	800.000	-0.044	-0.133
-501.668	800.000	0.100	-0.388
-500.653	27.613	0.159	-0.134
-499.639	-108.094	-0.325	-0.070
-498.624	-144.527	-0.170	-0.016
-497.610	51.924	0.346	-0.330
-496.595	-112.751	-0.193	-0.038
-495.581	-0.022	0.077	-0.055
-494.566	-141.626	0.210	-0.021
-493.551	-200.000	0.031	-0.262
-492.537	-17.685	0.306	0.192
-491.522	-32.790	0.189	0.105
-490.508	669.934	0.106	0.275
-489.493	-157.910	-0.195	0.012
-488.478	-200.000	-0.025	0.312
-487.464	110.053	0.135	0.162
-486.449	42.663	-0.122	-0.111
-485.435	-167.306	-0.163	-0.007
-484.420	800.000	0.060	0.261
-483.405	84.842	-0.119	-0.131
-482.391	-121.806	0.129	0.021
-481.376	800.000	0.028	0.112
-480.362	-95.919	-0.251	-0.067
-479.347	105.797	-0.141	0.166
-478.332	54.913	0.248	0.240
-477.318	800.000	-0.053	-0.157
-476.303	-164.070	-0.269	-0.012
-475.289	-168.363	0.072	0.003
-474.274	745.946	0.016	-0.043
-473.259	-69.060	0.389	0.150
-472.245	-59.820	0.086	0.037
-471.230	-118.181	-0.159	-0.028
-470.216	-2.498	-0.087	0.061
-469.201	-200.000	-0.044	0.269
-468.186	60.382	-0.231	0.229
-467.172	-200.000	-0.004	0.194
-466.157	-200.000	-0.026	-0.124
-465.143	-200.000	0.013	-0.218
-464.128	98.857	-0.171	0.197
-463.113	800.000	0.074	-0.278
-462.099	800.000	0.079	-0.338
-461.084	18.485	-0.162	0.129
-460.070	-119.193	0.321	0.056
-459.055	-200.000	-0.024	0.172
-458.040	-54.760	-0.252	-0.114
-457.026	-122.264	0.042	-0.007
-456.011	334.701	0.103	-0.199
-454.997	-77.763	0.247	0.085
-453.982	-200.000	0.018	-0.226
-452.968	-200.000	0.023	0.173
-451.953	800.000	-0.092	0.338
-450.938	63.289	0.151	-0.151
-449.924	220.126	-0.144	-0.231
-448.909	49.490	-0.091	0.086
-447.895	298.730	0.090	-0.166
-446.880	800.000	-0.042	-0.161
-445.865	202.218	0.092	0.141
-444.851	-103.039	-0.069	-0.016
-443.836	800.000	-0.064	0.216
-442.822	380.425	0.138	0.283
-441.807	629.570	0.104	-0.261
-440.792	-200.000	-0.007	-0.130
-439.778	-200.000	-0.032	0.170
-438.763	45.451	0.143	0.132
-437.749	15.488	0.084	-0.066
-436.734	-175.891	-0.249	0.007
-435.719	-78.405	0.407	0.139
-434.705	435.824	0.077	-0.167
-433.690	-200.000	-0.025	0.336
-432.676	-200.000	0.002	-0.013
-431.661	219.378	0.071	0.113
-430.646	18.957	-0.128	-0.102
-429.632	-78.585	-0.163	-0.056
-428.617	5.874	0.221	-0.163
-427.603	800.000	-0.044	-0.138
-426.588	800.000	0.036	0.140
-425.573	-68.784	0.318	-0.123
-424.559	175.604	-0.236	0.341
-423.544	-63.246	0.153	-0.063
-422.530	800.000	-0.023	-0.070
-421.515	128.833	0.098	-0.124
-420.500	-75.941	-0.317	-0.112
-419.486	-103.027	0.318	-0.075
-418.471	-69.280	-0.085	-0.033
-417.457	153.939	0.155	0.212
-416.442	-200.000	0.025	0.276
-415.428	-3.315	-0.146	0.102
-414.413	800.000	-0.135	0.379
-413.398	272.797	-0.013	0.024
-412.384	432.835	0.085	-0.184
-411.369	521.545	0.106	0.247
-410.355	-4.292	0.212	-0.147
-409.340	-92.156	0.105	-0.030
-408.325	-118.149	0.151	-0.027
-407.311	692.332	0.068	0.177
-406.296	-83.914	0.105	-0.033
-405.282	-42.853	-0.268	0.136
-404.267	-39.990	-0.273	-0.142
-403.252	-76.706	-0.125	0.044
-402.238	-26.515	-0.239	-0.139
-401.223	-190.904	0.187	0.002
-400.209	306.651	0.020	-0.037
-399.194	-104.888	0.238	-0.054
-398.179	-200.000	-0.013	-0.279
-397.165	-200.000	-0.005	0.284
-396.150	103.554	-0.096	-0.112
-395.136	91.971	0.274	0.308
-394.121	218.649	-0.196	0.312
-393.106	39.329	0.203	0.181
-392.092	-58.647	-0.213	-0.092
-391.077	-0.348	-0.337	-0.239
-390.063	-82.528	-0.012	-0.004
-389.048	63.322	0.093	-0.092
-388.033	800.000	0.032	0.112
-387.019	-54.834	-0.087	0.039
-386.004	800.000	-0.062	0.270
-384.990	791.208	-0.136	-0.371
-383.975	588.296	-0.011	0.028
-382.960	800.000	-0.099	0.281
-381.946	31.145	-0.225	-0.193
-380.931	-114.603	0.237	0.045
-379.917	-60.901	-0.252	-0.106
-378.902	800.000	-0.051	-0.173
-377.888	319.094	-0.046	0.086
-376.873	258.240	-0.106	0.183
-375.858	800.000	0.025	0.108
-374.844	86.082	0.157	0.172
-373.829	-200.000	-0.005	0.404
-372.815	723.531	-0.125	0.331
-371.800	88.394	-0.105	0.116
-370.785	-200.000	-0.099	-0.000
-369.771	800.000	0.080	-0.259
-368.756	-124.163	-0.152	-0.024
-367.742	-74.823	-0.156	-0.056
-366.727	64.219	-0.276	-0.276
-365.712	-16.237	0.245	-0.155
-364.698	124.684	-0.278	-0.348
-363.683	578.188	-0.076	-0.186
-362.669	-105.602	0.277	-0.062
-361.654	-143.843	0.085	0.008
-360.639	-123.988	0.442	0.069
-359.625	800.000	0.029	0.101
-358.610	-115.565	-0.429	0.080
-357.596	-1.151	0.090	-0.063
-356.581	-38.898	0.424	0.222
-355.566	800.000	0.186	-0.541
-354.552	2.493	-0.193	0.139
-353.537	30.363	0.124	-0.106
-352.523	-18.744	-0.273	0.169
-351.508	273.228	0.190	-0.334
-350.493	71.317	0.279	-0.288
-349.479	-65.861	-0.163	-0.065
-348.464	51.794	0.193	-0.183
-347.450	800.000	-0.021	-0.090
-346.435	150.811	-0.122	-0.166
-345.420	105.907	0.167	-0.197
-344.406	-161.356	0.214	0.011
-343.391	-200.000	-0.031	-0.240
-342.377	-32.382	-0.518	-0.287
-341.362	-63.012	-0.258	-0.106
-340.348	80.377	0.266	-0.285
-339.333	70.781	0.188	-0.194
-338.318	31.882	0.258	0.221
-337.304	207.546	-0.085	0.132
-336.289	-107.968	0.242	-0.052
-335.275	172.726	0.133	0.190
-334.260	20.514	0.338	-0.272
-333.245	-200.000	-0.006	0.295
-332.231	591.119	-0.131	0.322
-331.216	-200.000	-0.044	-0.231
-330.202	-200.000	0.019	0.173
-329.187	-101.284	0.327	-0.079
-328.172	38.878	-0.165	-0.146
-327.158	-82.456	-0.104	-0.034
-326.143	-176.441	0.318	0.008
-325.129	-139.236	0.246	-0.026
-324.114	-48.870	-0.232	-0.111
-323.099	-70.018	-0.327	-0.124
-322.085	-33.212	-0.065	0.036
-321.070	144.367	0.124	0.164
-320.056	741.679	-0.127	0.339
-319.041	2.484	-0.130	-0.093
-318.026	-3.956	0.247	-0.170
-317.012	140.795	-0.114	0.150
-315.997	10.884	0.202	-0.153
-314.983	800.000	-0.037	0.105
-313.968	800.000	0.037	-0.122
-312.953	168.138	0.039	-0.055
-311.939	11.320	0.108	-0.082
-310.924	-166.717	-0.291	0.012
-309.910	-200.000	-0.040	0.370
-308.895	-200.000	-0.028	0.233
-307.880	55.484	-0.295	0.284
-306.866	-38.905	-0.251	-0.132
-305.851	-200.000	-0.006	0.244
-304.837	-23.357	-0.155	0.093
-303.822	38.970	-0.410	0.363
-302.807	265.752	-0.113	0.196
-301.793	-200.000	-0.006	-0.027
-300.778	-84.318	-0.088	0.028
-299.764	-84.611	-0.159	0.050
-298.749	-23.372	-0.110	-0.066
-297.735	-1.300	0.209	0.146
-296.720	-65.465	0.309	0.123
-295.705	-200.000	-0.013	0.225
-294.691	117.991	-0.191	-0.234
-293.676	-69.201	0.155	-0.059
-292.662	-15.923	-0.069	-0.044
-291.647	-200.000	0.084	-0.428
-290.632	-200.000	-0.007	0.070
-289.618	615.334	-0.126	0.313
-288.603	552.215	0.016	0.039
-287.589	15.548	-0.218	-0.170
-286.574	-50.722	0.261	0.122
-285.559	800.000	-0.027	0.119
-284.545	-200.000	-0.016	-0.225
-283.530	-110.610	0.166	0.034
-282.516	-200.000	0.103	-0.494
-281.501	77.826	0.263	-0.278
-280.486	66.921	0.161	-0.163
-279.472	-94.005	0.207	-0.056
-278.457	800.000	-0.104	-0.310
-277.443	-1.865	0.083	-0.058
-276.428	274.750	-0.017	-0.030
-275.413	89.291	-0.182	0.201
-274.399	29.536	-0.155	0.131
-273.384	-13.085	0.168	0.108
-272.370	-81.451	0.144	-0.047
-271.355	-200.000	0.034	-0.271
-270.340	390.257	0.128	-0.264
-269.326	-10.706	-0.070	-0.046
-268.311	350.162	0.060	-0.117
-267.297	111.484	-0.119	-0.142
-266.282	-83.223	-0.395	0.126
-265.267	800.000	-0.059	0.184
-264.253	4.886	-0.118	0.086
-263.238	61.945	0.339	-0.335
-262.224	-200.000	0.093	0.574
-261.209	35.444	0.199	-0.173
-260.195	-45.630	0.190	-0.093
-259.180	-27.985	0.314	-0.180
-258.165	800.000	0.171	0.553
-257.151	262.856	-0.050	-0.086
-256.136	-200.000	-0.068	0.327
-255.122	0.160	0.265	-0.188
-254.107	497.739	-0.028	0.064
-253.092	-158.221	0.244	0.014
-252.078	-72.116	0.148	0.055
-251.063	99.509	-0.227	-0.260
-250.049	-73.272	0.189	-0.069
-249.034	728.090	0.161	-0.425
-248.019	-45.604	-0.134	0.066
-247.005	800.000	-0.075	0.255
-245.990	-200.000	-0.024	-0.281
-244.976	210.502	-0.091	0.141
-243.961	-17.073	-0.321	-0.201
-242.946	-36.163	-0.092	-0.049
-241.932	366.178	-0.085	0.169
-240.917	171.866	0.217	-0.308
-239.903	321.590	0.065	0.123
-238.888	-139.221	0.226	0.024
-237.873	-37.550	-0.268	-0.141
-236.859	567.092	0.192	-0.462
-235.844	-52.100	-0.354	0.163
-234.830	-120.255	0.156	0.026
-233.815	62.182	0.217	-0.215
-232.800	89.854	0.028	0.030
-231.786	-119.681	0.109	-0.019
-230.771	-70.731	-0.314	-0.118
-229.757	17.054	-0.285	0.223
-228.742	-70.156	0.202	0.076
-227.727	117.022	-0.170	0.207
-226.713	-108.134	0.244	-0.052
-225.698	205.764	0.080	-0.123
-224.684	-200.000	0.031	-0.476
-223.669	800.000	-0.071	-0.221
-222.655	265.924	-0.047	-0.081
-221.640	73.086	0.083	0.086
-220.625	364.359	-0.131	-0.260
-219.611	255.079	0.047	-0.079
-218.596	155.279	0.221	-0.301
-217.582	-200.000	-0.004	0.092
-216.567	742.642	0.155	-0.412
-215.552	302.165	0.073	0.134
-214.538	800.000	-0.063	0.178
-213.523	47.278	-0.114	-0.105
-212.509	-200.000	0.012	0.255
-211.494	767.375	-0.045	0.120
-210.479	481.124	-0.184	0.413
-209.465	-74.222	0.020	-0.007
-208.450	-200.000	0.001	-0.196
-207.436	-174.918	-0.265	0.007
-206.421	599.907	0.087	-0.214
-205.406	11.133	0.304	-0.230
-204.392	-76.904	0.220	0.076
-203.377	800.000	0.117	0.327
-202.363	182.516	-0.022	-0.033
-201.348	541.180	-0.084	0.199
-200.333	-21.387	-0.342	0.207
-199.319	546.946	0.038	-0.090
-198.304	-62.944	-0.173	0.071
-197.290	58.231	0.172	0.166
-196.275	-200.000	-0.002	-0.335
-195.260	-35.746	-0.197	0.105
-194.246	-200.000	-0.041	-0.211
-193.231	25.995	0.068	0.056
-192.217	197.963	0.095	0.143
-191.202	-200.000	-0.008	0.040
-190.187	-200.000	-0.302	-0.001
-189.173	-200.000	0.002	-0.179
-188.158	-152.332	0.059	0.004
-187.144	-36.495	0.095	0.050
-186.129	64.267	0.130	0.129
-185.114	405.235	0.067	-0.140
-184.100	-200.000	0.042	-0.286
-183.085	-52.328	-0.136	-0.062
-182.071	-176.961	0.202	-0.005
-181.056	208.933	0.086	0.133
-180.042	-200.000	0.049	0.270
-179.027	-82.922	-0.107	-0.034
-178.012	178.257	-0.119	0.171
-176.998	800.000	0.195	0.562
-175.983	-151.256	-0.316	0.023
-174.969	24.635	0.084	0.069
-173.954	85.202	0.167	-0.181
-172.939	100.423	0.183	-0.210
-171.925	180.285	-0.188	-0.272
-170.910	-138.046	0.204	-0.022
-169.896	19.468	-0.124	-0.099
-168.881	26.918	-0.147	-0.122
-167.866	800.000	-0.056	0.225
-166.852	-200.000	0.010	0.071
-165.837	321.997	-0.086	-0.162
-164.823	52.232	-0.269	0.253
-163.808	61.202	-0.082	-0.080
-162.793	-72.780	0.129	-0.047
-161.779	-121.394	-0.151	-0.025
-160.764	-55.866	0.187	0.082
-159.750	-109.465	-0.170	-0.035
-158.735	-124.172	0.279	-0.043
-157.720	-34.258	-0.188	-0.102
-156.706	-141.864	0.053	0.005
-155.691	-200.000	0.009	0.177
-154.677	55.128	0.076	0.073
-153.662	155.073	-0.269	0.366
-152.647	-95.982	0.266	-0.070
-151.633	485.796	0.080	0.180
-150.618	800.000	0.010	0.041
-149.604	-24.449	-0.047	-0.028
-148.589	146.156	-0.039	-0.052
-147.574	-55.563	-0.157	-0.069
-146.560	75.620	0.095	-0.099
-145.545	60.170	-0.235	-0.229
-144.531	-67.248	0.136	-0.053
-143.516	-130.713	0.125	0.017
-142.502	800.000	0.051	0.203
-141.487	800.000	-0.073	0.247
-140.472	-200.000	-0.042	-0.283
-139.458	-121.261	-0.134	0.022
-138.443	-122.034	0.079	0.013
-137.429	-9.195	-0.251	0.166
-136.414	27.101	0.299	0.247
-135.399	800.000	0.109	0.351
-134.385	156.049	-0.197	0.269
-133.370	285.626	-0.114	-0.203
-132.356	163.442	-0.109	0.151
-131.341	-200.000	0.006	0.040
-130.326	-200.000	-0.083	-0.489
-129.312	210.756	0.084	-0.130
-128.297	800.000	0.086	0.368
-127.283	766.442	0.082	0.221
-126.268	-72.113	-0.130	-0.047
-125.253	32.665	-0.124	0.106
-124.239	800.000	0.072	-0.204
-123.224	-139.308	0.058	0.006
-122.210	-200.000	-0.043	0.251
-121.195	-200.000	-0.017	0.306
-120.180	-5.275	-0.268	0.181
-119.166	-200.000	0.013	0.101
-118.151	254.808	0.018	-0.031
-117.137	440.917	-0.128	0.277
-116.122	43.705	-0.087	-0.078
-115.107	-4.486	0.318	-0.217
-114.093	-121.263	-0.157	-0.026
-113.078	-171.328	0.192	-0.006
-112.064	28.514	0.273	-0.227
-111.049	-84.749	-0.167	-0.052
-110.034	206.412	0.063	-0.096
-109.020	-51.146	-0.330	0.153
-108.005	-13.171	-0.326	-0.209
-106.991	-69.777	-0.179	-0.067
-105.976	256.114	0.136	0.230
-104.962	-200.000	-0.001	-0.024
-103.947	800.000	-0.031	-0.111
-102.932	-0.239	0.139	-0.097
-101.918	800.000	-0.056	-0.205
-100.903	-200.000	0.007	-0.140
-99.889	-96.805	0.183	-0.047
-98.874	-129.526	0.392	-0.053
-97.859	-150.798	0.241	0.018
-96.845	-96.546	0.150	-0.039
-95.830	11.020	0.129	0.097
-94.816	656.727	0.106	0.268
-93.801	-83.091	0.233	-0.074
-92.786	800.000	-0.121	0.359
-91.772	-200.000	0.030	0.245
-90.757	90.290	0.216	0.238
-89.743	-101.980	0.143	-0.034
-88.728	-200.000	-0.014	0.429
-87.713	-40.380	-0.232	0.119
-86.699	203.894	0.192	0.292
-85.684	605.832	0.115	0.282
-84.670	-182.726	0.226	0.004
-83.655	-130.558	-0.288	0.038
-82.640	800.000	0.037	-0.109
-81.626	195.974	-0.110	0.165
-80.611	218.158	0.160	0.252
-79.597	-17.026	-0.258	-0.160
-78.582	-103.388	-0.316	0.073
-77.567	-75.822	-0.151	0.053
-76.553	83.554	-0.215	-0.231
-75.538	-99.162	0.400	0.100
-74.524	-200.000	0.005	0.150
-73.509	25.503	-0.267	0.219
-72.494	72.296	-0.349	0.358
-71.480	84.910	-0.298	0.321
-70.465	-150.121	-0.099	-0.008
-69.451	-52.169	-0.247	0.113
-68.436	800.000	-0.017	0.062
-67.422	12.617	0.215	0.163
-66.407	609.935	-0.200	0.492
-65.392	84.213	0.151	-0.162
-64.378	15.273	0.209	0.161
-63.363	157.667	-0.044	-0.060
-62.349	7.074	0.328	-0.240
-61.334	197.579	-0.847	-1.272
-60.319	250.597	0.254	0.425
-59.305	800.000	-0.373	-1.142
-58.290	555.377	0.617	1.460
-57.276	800.000	0.516	1.414
-56.261	-200.000	96.301	596.785
-55.246	557.736	1368.974	3245.676
-54.232	162.273	2546.144	3509.225
-53.217	113.111	2134.808	2544.927
-52.203	43.580	1596.482	1435.435
-51.188	35.295	1334.059	1150.008
-50.173	32.002	1292.771	1095.194
-49.159	54.286	1340.281	1268.268
-48.144	56.492	1356.714	1296.854
-47.130	35.365	1315.623	1134.349
-46.115	31.915	1298.440	1099.312
-45.100	31.720	1292.978	1093.503
-44.086	31.551	1290.999	1090.804
-43.071	31.528	1288.489	1088.502
-42.057	31.472	1286.359	1086.339
-41.042	31.575	1284.455	1085.283
-40.027	31.686	1283.053	1084.697
-39.013	31.715	1281.144	1083.209
-37.998	31.621	1279.472	1081.210
-36.984	31.693	1277.939	1080.287
-35.969	31.839	1275.161	1078.739
-34.954	31.838	1274.077	1077.773
-33.940	31.627	1273.174	1075.754
-32.925	31.757	1271.580	1075.109
-31.911	31.830	1270.073	1074.208
-30.896	31.733	1269.056	1072.754
-29.881	31.767	1267.547	1071.628
-28.867	31.862	1266.049	1070.864
-27.852	31.823	1264.672	1069.431
-26.838	31.801	1263.174	1067.998
-25.823	31.747	1261.919	1066.586
-24.809	31.764	1260.783	1065.680
-23.794	31.713	1259.362	1064.150
-22.779	31.730	1258.163	1063.189
-21.765	31.743	1256.788	1062.058
-20.750	31.764	1255.539	1061.080
-19.736	31.688	1253.839	1059.169
-18.721	31.584	1253.511	1058.264
-17.706	31.695	1251.674	1057.300
-16.692	31.647	1250.984	1056.405
-15.677	31.576	1249.942	1055.082
-14.663	31.577	1248.553	1053.873
-13.648	31.575	1247.340	1052.796
-12.633	31.631	1246.056	1051.982
-11.619	31.673	1245.826	1051.984
-10.604	31.537	1244.778	1050.296
-9.590	31.608	1243.389	1049.479
-8.575	31.553	1242.551	1048.420
-7.560	31.648	1241.859	1048.325
-6.546	31.616	1241.132	1047.492
-5.531	31.613	1239.947	1046.433
-4.517	31.640	1239.216	1045.929
-3.502	31.542	1238.569	1044.791
-2.487	31.556	1237.384	1043.829
-1.473	31.595	1233.557	1040.775
-0.458	30.350	1218.431	1021.128
0.556	27.341	1202.134	986.675
1.571	23.959	1208.241	973.134
2.586	23.269	1223.600	981.593
3.600	22.906	1212.402	970.533
4.615	16.504	1139.738	879.105
5.629	6.400	1063.464	770.956
6.644	2.104	1043.262	735.581
7.659	1.842	1040.862	732.564
8.673	1.682	1039.746	730.943
9.688	1.573	1038.411	729.419
10.702	1.943	1036.814	730.002
11.717	8.081	1045.320	765.477
12.731	18.157	1060.018	825.016
13.746	23.700	1066.962	857.187
14.761	25.043	1068.278	864.650
15.775	25.066	1067.587	864.129
16.790	24.782	1066.989	862.200
17.804	24.715	1066.273	861.219
18.819	25.003	1065.910	862.238
19.834	25.016	1065.596	861.971
20.848	25.017	1065.443	861.774
21.863	25.133	1064.226	861.270
22.877	24.963	1064.306	860.445
23.892	25.057	1062.780	859.584
24.907	24.988	1062.902	859.276
25.921	24.906	1061.493	857.668
26.936	24.974	1059.864	856.599
27.950	24.873	1058.613	855.031
28.965	24.893	1056.615	853.438
29.980	24.834	1055.283	852.005
30.994	25.186	1054.627	853.074
32.009	25.252	1053.170	852.132
33.023	24.812	1052.216	849.198
34.038	24.848	1052.245	849.316
35.053	25.078	1050.672	849.064
36.067	25.107	1050.445	848.940
37.082	25.147	1049.184	848.038
38.096	25.251	1048.881	848.207
39.111	25.424	1047.990	848.230
40.126	25.182	1046.755	846.016
41.140	24.859	1044.463	842.567
42.155	24.634	1043.865	840.952
43.169	24.771	1043.012	840.831
44.184	24.638	1041.993	839.312
45.199	24.579	1041.108	838.247
46.213	24.575	1040.293	837.501
47.228	24.913	1039.406	838.296
48.242	24.898	1038.718	837.597
49.257	24.953	1037.912	837.131
50.271	25.101	1037.135	837.120
51.286	25.058	1036.139	836.042
52.301	25.159	1035.208	835.686
53.315	25.195	1034.211	834.975
54.330	25.017	1033.333	833.366
55.344	25.012	1032.839	832.867
56.359	25.013	1031.756	831.925
57.374	24.838	1030.929	830.376
58.388	24.790	1030.158	829.459
59.403	24.659	1029.134	827.953
60.417	24.529	1028.716	826.942
61.432	24.670	1027.762	826.753
62.447	24.871	1026.788	826.824
63.461	24.856	1026.682	826.599
64.476	24.800	1025.061	824.960
65.490	24.607	1024.494	823.543
66.505	24.780	1023.791	823.701
67.520	24.956	1022.735	823.588
68.534	24.591	1022.000	821.244
69.549	24.238	1021.182	818.895
70.563	24.529	1019.545	818.843
71.578	24.265	1019.280	817.347
72.593	24.105	1018.487	815.907
73.607	24.234	1017.973	816.012
74.622	24.545	1017.988	817.377
75.636	24.601	1016.805	816.608
76.651	24.477	1015.928	815.269
77.666	24.290	1015.647	814.117
78.680	24.387	1014.783	813.794
79.695	24.550	1014.028	813.858
80.709	24.643	1013.630	813.889
81.724	24.714	1012.476	813.218
82.739	24.578	1011.844	812.019
83.753	24.934	1012.092	813.764
84.768	25.353	1010.838	814.582
85.782	25.440	1009.961	814.198
86.797	25.325	1008.782	812.654
87.812	25.176	1007.810	811.129
88.826	25.266	1006.883	810.718
89.841	25.345	1006.136	810.401
90.855	25.246	1005.576	809.432
91.870	25.303	1004.395	808.665
92.884	25.062	1003.482	806.773
93.899	25.015	1002.465	805.672
94.914	25.286	1001.722	806.223
95.928	25.166	1000.563	804.679
96.943	24.870	999.675	802.569
97.957	24.654	998.719	800.762
98.972	24.526	997.133	798.848
99.987	24.842	997.143	800.195
101.001	25.020	995.740	799.793
102.016	25.028	995.220	799.344
103.030	24.953	994.140	798.072
104.045	24.896	992.703	796.591
105.060	24.551	992.866	795.116
106.074	24.755	992.071	795.316
107.089	25.177	990.710	796.030
108.103	24.905	990.221	794.361
109.118	24.850	988.817	792.920
110.133	24.756	987.544	791.414
111.147	24.528	986.346	789.375
112.162	24.298	985.991	788.003
113.176	24.637	985.355	788.922
114.191	24.510	984.509	787.617
115.206	24.302	983.458	785.786
116.220	24.281	982.715	785.032
117.235	24.367	981.745	784.567
118.249	24.352	981.360	784.126
119.264	24.251	980.581	782.987
120.279	24.371	979.592	782.657
121.293	24.501	978.472	782.263
122.308	24.414	977.775	781.252
123.322	24.440	976.561	780.328
124.337	24.241	975.438	778.493
125.352	23.798	973.405	774.870
126.366	23.854	972.642	774.441
127.381	24.502	972.709	777.244
128.395	24.803	972.807	778.567
129.410	25.024	971.446	778.366
130.424	24.880	970.770	777.130
131.439	24.957	969.564	776.432
132.454	24.932	968.525	775.422
133.468	24.859	968.120	774.715
134.483	24.958	967.573	774.636
135.497	25.121	966.456	774.376
136.512	25.334	965.470	774.435
137.527	25.279	964.944	773.707
138.541	25.359	963.730	773.013
139.556	25.142	963.512	771.836
140.570	25.223	963.266	771.918
141.585	25.329	961.977	771.270
142.600	25.235	961.043	770.050
143.614	25.488	960.198	770.390
144.629	25.504	959.547	769.871
145.643	25.329	958.229	767.995
146.658	25.164	956.716	766.009
147.673	25.093	955.380	764.569
148.687	25.044	954.575	763.650
149.702	24.967	953.408	762.318
150.716	24.934	953.027	761.807
151.731	25.111	952.430	762.013
152.746	25.400	951.677	762.573
153.760	25.397	951.289	762.181
154.775	25.424	950.399	761.513
155.789	25.253	949.763	760.213
156.804	25.439	948.561	759.973
157.819	25.423	947.883	759.295
158.833	25.449	947.413	758.958
159.848	25.487	945.898	757.839
160.862	25.426	944.920	756.733
161.877	25.403	943.848	755.710
162.892	25.396	943.453	755.298
163.906	25.355	942.562	754.345
164.921	25.368	941.115	753.175
165.935	25.395	940.533	752.754
166.950	25.313	939.691	751.670
167.964	25.267	939.103	750.943
168.979	25.187	937.575	749.317
169.994	25.160	936.572	748.338
171.008	25.363	936.425	749.002
172.023	25.551	935.130	748.682
173.037	25.236	934.447	746.760
174.052	25.073	933.516	745.271
175.067	25.132	932.773	744.855
176.081	25.225	932.511	744.969
177.096	25.307	931.223	744.215
178.110	24.857	931.103	742.185
179.125	24.703	930.006	740.608
180.140	24.904	929.857	741.256
181.154	25.024	928.954	740.967
182.169	25.189	929.416	741.950
183.183	25.469	928.621	742.411
184.198	25.275	928.130	741.150
185.213	25.332	927.428	740.761
186.227	25.483	926.034	740.200
187.242	25.504	925.371	739.694
188.256	25.570	924.821	739.458
189.271	25.490	924.177	738.548
190.286	25.026	923.464	736.011
191.300	24.490	921.768	732.394
192.315	23.750	920.242	728.084
193.329	23.647	920.350	727.684
194.344	24.670	920.605	732.014
195.359	25.156	920.418	733.788
196.373	25.379	919.711	734.073
197.388	25.268	919.208	733.153
198.402	25.182	918.751	732.373
199.417	25.150	918.176	731.716
200.432	25.001	917.260	730.316
201.446	24.773	916.505	728.720
202.461	24.904	916.115	728.882
203.475	24.092	914.031	723.860
204.490	23.278	912.675	719.414
205.504	24.283	913.005	723.694
206.519	24.818	912.938	725.748
207.534	25.065	912.555	726.378
208.548	25.361	912.302	727.312
209.563	25.056	911.147	725.091
210.577	25.046	910.367	724.368
211.592	25.504	910.546	726.297
212.607	25.474	909.564	725.330
213.621	25.537	908.480	724.653
214.636	25.563	908.223	724.489
215.650	25.448	907.565	723.436
216.665	25.528	907.131	723.350
217.680	25.369	906.374	722.041
218.694	25.071	904.833	719.554
219.709	24.827	904.400	718.167
220.723	25.156	904.365	719.395
221.738	25.273	903.074	718.775
222.753	25.151	902.898	718.082
223.767	25.294	902.585	718.343
224.782	25.641	901.946	719.157
225.796	25.512	901.646	718.340
226.811	24.897	900.223	714.687
227.826	24.182	898.835	710.670
228.840	24.412	898.541	711.294
229.855	24.573	897.537	711.077
230.869	24.164	896.319	708.423
231.884	24.692	896.207	710.372
232.899	25.365	896.353	713.097
233.913	25.172	896.045	712.023
234.928	25.163	895.580	711.555
235.942	25.069	894.909	710.584
236.957	24.820	894.152	708.936
237.972	24.913	893.571	708.778
238.986	24.933	892.906	708.268
240.001	25.016	892.029	707.836
241.015	25.105	891.814	707.955
242.030	25.077	891.473	707.514
243.045	25.352	890.955	708.125
244.059	25.340	891.039	708.079
245.074	25.138	889.787	706.228
246.088	25.070	888.116	704.569
247.103	25.177	888.290	705.066
248.117	25.814	888.259	707.481
249.132	26.077	887.800	708.088
250.147	26.104	887.253	707.693
251.161	26.157	886.977	707.621
252.176	25.986	886.558	706.554
253.190	26.194	885.749	706.657
254.205	26.372	885.301	706.937
255.220	26.189	884.924	705.856
256.234	26.119	883.910	704.711
257.249	26.129	883.015	703.973
258.263	26.126	882.263	703.302
259.278	26.263	881.606	703.247
260.293	26.237	881.554	703.044
261.307	25.967	880.966	701.461
262.322	25.846	880.002	700.161
263.336	25.169	877.895	695.797
264.351	24.153	876.164	690.430
265.366	24.305	875.889	690.742
266.380	25.407	876.487	695.421
267.395	25.772	875.941	696.338
268.409	25.638	875.505	695.411
269.424	25.849	875.135	695.869
270.439	25.952	874.212	695.473
271.453	26.104	873.583	695.495
272.468	26.056	873.696	695.340
273.482	26.183	872.991	695.206
274.497	25.810	871.984	692.907
275.512	25.416	871.050	690.588
276.526	25.874	870.726	692.030
277.541	26.007	870.638	692.411
278.555	25.693	869.794	690.476
279.570	25.670	868.827	689.557
280.585	25.833	868.348	689.741
281.599	25.708	867.821	688.784
282.614	25.177	866.170	685.381
283.628	25.257	865.796	685.331
284.643	25.578	865.597	686.338
285.657	25.233	864.008	683.705
286.672	24.936	863.616	682.202
287.687	25.539	863.716	684.517
288.701	25.545	863.075	683.971
289.716	25.191	862.103	681.795
290.730	25.225	861.579	681.449
291.745	24.875	860.609	679.293
292.760	25.203	860.894	680.705
293.774	26.121	861.259	684.413
294.789	26.488	860.591	685.214
295.803	26.496	860.225	684.891
296.818	26.609	859.464	684.651
297.833	25.958	858.709	681.532
298.847	25.939	857.860	680.726
299.862	26.249	857.933	681.892
300.876	26.503	857.477	682.428
301.891	26.277	856.807	680.984
302.906	25.962	855.402	678.621
303.920	26.208	855.401	679.486
304.935	26.589	855.079	680.600
305.949	26.395	854.343	679.229
306.964	26.064	853.699	677.412
307.979	26.343	853.504	678.244
308.993	26.629	853.403	679.179
310.008	26.646	852.711	678.630
311.022	26.360	851.364	676.430
312.037	26.231	850.853	675.480
313.052	25.918	850.301	673.813
314.066	25.152	848.343	669.344
315.081	24.753	848.085	667.592
316.095	25.620	848.529	671.120
317.110	26.096	848.344	672.687
318.125	25.292	846.656	668.299
319.139	24.199	845.159	662.991
320.154	24.328	844.667	663.027
321.168	25.309	845.067	666.928
322.183	25.910	845.233	669.234
323.197	26.022	845.053	669.447
324.212	26.194	844.600	669.668
325.227	26.238	844.361	669.582
326.241	25.938	843.622	667.824
327.256	25.987	842.950	667.417
328.270	25.983	841.902	666.512
329.285	25.820	841.167	665.269
330.300	25.629	840.496	663.975
331.314	25.933	840.300	664.882
332.329	26.158	840.602	665.891
333.343	26.256	840.262	665.924
334.358	26.305	839.507	665.447
335.373	26.415	838.773	665.213
336.387	26.734	838.994	666.502
337.402	26.743	838.916	666.413
338.416	26.884	838.278	666.364
339.431	26.847	837.967	665.925
340.446	27.032	837.811	666.420
341.460	26.852	837.183	665.202
342.475	26.610	837.115	664.202
343.489	26.770	836.609	664.328
344.504	27.103	836.260	665.210
345.519	27.227	835.897	665.316
346.533	27.246	835.591	665.082
347.548	27.174	835.001	664.293
348.562	27.188	834.209	663.653
349.577	27.076	833.667	662.755
350.592	27.180	832.976	662.529
351.606	26.950	832.574	661.311
352.621	27.062	831.431	660.751
353.635	26.879	830.357	659.175
354.650	26.313	829.275	656.204
355.665	25.263	827.978	651.311
356.679	25.734	827.641	652.695
357.694	26.110	827.423	653.829
358.708	26.236	826.696	653.651
359.723	26.530	826.421	654.442
360.738	26.718	826.284	654.954
361.752	26.887	825.667	655.017
362.767	27.308	825.536	656.375
363.781	27.506	825.096	656.682
364.796	27.604	824.844	656.775
365.810	27.586	824.477	656.360
366.825	27.514	823.965	655.633
367.840	27.246	823.068	653.900
368.854	26.880	822.396	651.993
369.869	26.808	821.825	651.224
370.883	26.889	821.612	651.290
371.898	26.957	820.707	650.758
372.913	26.987	820.638	650.750
373.927	27.076	820.326	650.766
374.942	27.222	820.012	650.982
375.956	27.239	819.451	650.541
376.971	27.365	819.305	650.818
377.986	27.475	819.266	651.121
379.000	27.414	818.369	650.133
380.015	27.209	817.543	648.690
381.029	27.362	817.160	648.871
382.044	27.447	816.651	648.714
383.059	27.597	815.917	648.609
384.073	27.375	815.891	647.740
385.088	27.295	815.083	646.754
386.102	27.309	813.950	645.848
387.117	27.062	813.524	644.580
388.132	26.820	812.561	642.899
389.146	26.371	811.878	640.712
390.161	26.737	811.745	641.847
391.175	27.273	811.222	643.273
392.190	26.844	810.138	640.839
393.205	25.476	807.750	634.072
394.219	24.019	806.514	627.909
395.234	23.997	806.197	627.532
396.248	25.555	807.449	633.945
397.263	26.988	808.302	639.614
398.278	26.954	807.793	639.034
399.292	26.835	807.319	638.184
400.307	26.875	806.630	637.724
401.321	26.990	806.218	637.744
402.336	27.446	806.228	639.298
403.350	27.733	806.501	640.465
404.365	27.895	806.489	640.967
405.380	28.108	806.017	641.284
406.394	28.344	805.450	641.603
407.409	28.216	804.727	640.519
408.423	28.081	804.477	639.792
409.438	28.252	803.979	639.938
410.453	28.213	803.770	639.579
411.467	28.244	803.205	639.182
412.482	28.142	802.714	638.377
413.496	28.329	802.246	638.601
414.511	28.228	802.067	638.051
415.526	28.084	801.976	637.419
416.540	27.920	801.038	636.046
417.555	27.732	800.291	634.744
418.569	27.950	800.009	635.219
419.584	27.932	799.553	634.740
420.599	27.634	798.908	633.137
421.613	111.533	1286.754	1461.240
422.628	96.190	1357.796	1461.334
