DTS Sentinel unit serial number:	SN413079Multiplexer serial number:	ORYXHardware model number:	OX4-SRSoftware version number:	ORYX F/W v4.00 Oryx Data Collector v3.7.2.0data status	okinstallation	princeton_trtdifferential loss correction	single-endedforward channel	channel 1reverse channel	N/Adate	2019/09/12time	06:12:11forward acquisition time	60.00reverse acquisition time	0.00gamma	496.2192k internal	0.2320k external	0.2320temperature offset calibration	1.0043default loss term (dB/km)	0.3790temperature slope calibration	1.0000multiplexer offset coefficient	1.0000multiplexer slope coefficient	1.0000fibre end	0.00T internal ref (°C)	32.12T ext. ref 1 (°C)	1.55T ext. ref 2 (°C)	27.37length (m)	temperature (°C)	Stokes	anti-Stokes-747.200	79.215	0.033	-0.036
-746.185	-200.000	-0.015	0.239
-745.171	-200.000	-0.027	0.291
-744.156	81.367	-0.236	-0.258
-743.142	-96.795	-0.263	-0.070
-742.127	54.604	-0.150	0.146
-741.112	191.930	0.060	0.091
-740.098	800.000	-0.087	0.300
-739.083	-200.000	0.021	0.159
-738.069	265.461	-0.214	0.377
-737.054	218.580	-0.162	0.262
-736.039	108.821	-0.227	-0.274
-735.025	-200.000	-0.040	0.298
-734.010	294.378	0.064	0.119
-732.996	-200.000	0.057	-0.269
-731.981	800.000	-0.069	-0.192
-730.966	-32.800	0.113	-0.063
-729.952	-200.000	0.046	-0.324
-728.937	230.035	-0.047	0.077
-727.923	21.989	-0.389	-0.320
-726.908	-200.000	-0.023	0.262
-725.894	-124.934	-0.340	0.053
-724.879	529.206	-0.024	0.056
-723.864	285.352	-0.081	-0.147
-722.850	189.446	0.092	-0.139
-721.835	101.134	-0.205	-0.241
-720.821	40.159	0.105	-0.096
-719.806	-86.447	-0.320	0.099
-718.791	-200.000	0.047	-0.211
-717.777	-148.256	0.129	-0.011
-716.762	-91.474	-0.446	-0.129
-715.748	342.073	0.157	0.310
-714.733	272.431	0.150	-0.267
-713.718	-200.000	0.046	-0.378
-712.704	-55.264	0.034	-0.016
-711.689	-109.472	-0.101	0.022
-710.675	-73.686	0.223	-0.082
-709.660	160.401	-0.225	-0.317
-708.645	-96.665	0.290	-0.077
-707.631	-56.742	-0.253	0.113
-706.616	-200.000	0.039	0.210
-705.602	17.283	0.210	0.168
-704.587	-44.673	-0.243	0.122
-703.572	-19.756	0.280	-0.175
-702.558	197.414	-0.099	0.153
-701.543	-115.694	0.145	-0.028
-700.529	-113.271	0.296	0.059
-699.514	139.110	-0.173	0.230
-698.499	5.988	-0.340	0.254
-697.485	3.795	0.260	0.192
-696.470	-200.000	0.031	-0.162
-695.456	-200.000	-0.018	-0.147
-694.441	-22.165	-0.238	0.145
-693.426	-14.694	0.257	0.167
-692.412	98.878	0.241	-0.281
-691.397	-200.000	-0.048	-0.246
-690.383	13.457	-0.140	-0.110
-689.368	-120.820	-0.425	0.072
-688.354	421.696	0.033	-0.072
-687.339	-200.000	-0.031	0.162
-686.324	-200.000	0.050	-0.436
-685.310	800.000	-0.053	0.150
-684.295	-151.298	0.286	0.022
-683.281	212.691	-0.084	0.134
-682.266	-109.210	0.190	-0.041
-681.251	302.480	-0.104	0.194
-680.237	-61.700	0.319	0.135
-679.222	333.265	0.033	-0.065
-678.208	-200.000	0.019	-0.143
-677.193	-120.000	-0.133	0.023
-676.178	800.000	0.084	-0.282
-675.164	800.000	-0.086	-0.293
-674.149	398.778	-0.057	-0.121
-673.135	-13.780	-0.380	-0.248
-672.120	-146.426	0.271	-0.024
-671.105	-200.000	0.009	-0.152
-670.091	-35.326	0.307	-0.168
-669.076	189.331	-0.234	-0.354
-668.062	-78.831	-0.026	-0.009
-667.047	-148.735	-0.068	0.006
-666.032	38.287	-0.120	0.108
-665.018	-200.000	0.033	-0.224
-664.003	-200.000	0.017	-0.122
-662.989	-200.000	-0.020	-0.215
-661.974	-81.639	-0.093	-0.031
-660.959	800.000	-0.054	0.174
-659.945	-200.000	0.014	0.072
-658.930	-200.000	0.011	-0.112
-657.916	-52.787	-0.160	0.074
-656.901	242.604	0.022	-0.037
-655.886	379.015	0.021	-0.043
-654.872	-200.000	-0.018	0.166
-653.857	-59.881	-0.257	0.111
-652.843	-125.192	-0.135	0.021
-651.828	331.423	-0.098	0.190
-650.814	-150.309	0.184	-0.014
-649.799	-200.000	0.014	-0.333
-648.784	341.608	-0.138	-0.271
-647.770	-123.848	-0.335	-0.053
-646.755	63.175	0.156	0.158
-645.741	-90.292	-0.195	-0.057
-644.726	-0.726	0.249	0.178
-643.711	35.163	-0.137	0.121
-642.697	-25.373	0.072	0.043
-641.682	-107.471	0.030	-0.007
-640.668	-107.293	0.339	0.075
-639.653	244.642	-0.061	-0.104
-638.638	-28.864	-0.309	-0.179
-637.624	252.725	0.096	-0.164
-636.609	31.886	-0.121	-0.105
-635.595	31.572	0.110	0.095
-634.580	-15.420	0.060	-0.039
-633.565	-16.691	-0.202	0.128
-632.551	113.781	0.079	-0.096
-631.536	320.526	0.027	0.051
-630.522	223.169	-0.146	-0.237
-629.507	800.000	-0.023	-0.083
-628.492	-63.216	0.077	-0.032
-627.478	43.095	0.137	-0.125
-626.463	-15.647	-0.153	0.098
-625.449	-11.558	0.227	0.150
-624.434	729.521	0.112	-0.301
-623.419	-84.573	0.017	0.005
-622.405	800.000	-0.115	0.498
-621.390	-21.089	0.226	-0.139
-620.376	800.000	-0.078	0.276
-619.361	-144.516	-0.099	-0.009
-618.346	-200.000	0.006	-0.055
-617.332	146.805	0.017	0.023
-616.317	342.047	-0.218	0.429
-615.303	-200.000	0.001	-0.191
-614.288	110.640	0.076	0.091
-613.273	236.411	0.078	-0.130
-612.259	800.000	-0.109	-0.468
-611.244	78.949	0.071	-0.077
-610.230	16.762	-0.285	0.226
-609.215	-59.679	-0.271	0.117
-608.201	-200.000	-0.004	-0.241
-607.186	219.541	-0.095	0.152
-606.171	485.280	0.146	0.333
-605.157	-137.341	-0.342	0.039
-604.142	210.783	-0.013	-0.021
-603.128	193.587	-0.070	0.107
-602.113	377.984	0.122	0.250
-601.098	57.568	0.109	0.107
-600.084	-3.847	-0.149	0.104
-599.069	240.892	-0.219	0.368
-598.055	398.422	-0.145	0.304
-597.040	15.620	-0.119	0.094
-596.025	-200.000	0.051	0.247
-595.011	114.283	-0.165	-0.202
-593.996	-15.098	0.154	-0.099
-592.982	10.768	-0.027	-0.021
-591.967	-200.000	0.020	-0.162
-590.952	-13.182	0.217	-0.142
-589.938	800.000	-0.041	0.126
-588.923	169.468	0.008	-0.012
-587.909	-200.000	-0.031	0.268
-586.894	54.047	-0.250	0.241
-585.879	-118.167	0.293	-0.052
-584.865	523.574	0.214	-0.506
-583.850	800.000	0.119	-0.348
-582.836	800.000	0.013	-0.039
-581.821	219.638	0.085	-0.136
-580.806	282.057	-0.043	-0.077
-579.792	-144.473	0.123	-0.011
-578.777	619.954	0.063	0.159
-577.763	-200.000	0.004	-0.197
-576.748	-103.490	0.148	-0.035
-575.733	-200.000	-0.014	-0.246
-574.719	-180.560	0.300	-0.006
-573.704	-130.235	-0.273	0.037
-572.690	685.357	-0.047	0.123
-571.675	-180.199	0.109	0.002
-570.661	-200.000	0.026	0.116
-569.646	-124.948	0.112	0.017
-568.631	-109.424	0.189	0.040
-567.617	-200.000	0.051	-0.285
-566.602	174.948	-0.114	-0.166
-565.588	-147.694	-0.054	-0.005
-564.573	65.554	0.215	-0.218
-563.558	-200.000	-0.004	0.259
-562.544	-169.934	0.203	0.007
-561.529	-200.000	-0.032	0.220
-560.515	281.693	0.108	-0.195
-559.500	-66.562	-0.447	-0.178
-558.485	674.785	0.010	-0.027
-557.471	-89.733	0.086	0.025
-556.456	164.357	0.030	0.043
-555.442	62.717	0.395	-0.396
-554.427	-200.000	-0.008	-0.118
-553.412	-109.492	-0.207	0.044
-552.398	-200.000	0.033	0.155
-551.383	-200.000	0.020	0.434
-550.369	162.222	-0.227	-0.319
-549.354	143.741	-0.129	-0.172
-548.339	-200.000	0.016	-0.175
-547.325	800.000	-0.084	0.262
-546.310	-129.181	-0.102	0.014
-545.296	-103.970	0.088	-0.021
-544.281	-71.934	0.365	0.136
-543.266	-12.605	-0.307	-0.201
-542.252	-85.763	0.148	0.046
-541.237	-200.000	0.017	-0.335
-540.223	800.000	0.063	-0.232
-539.208	43.029	-0.262	0.240
-538.193	26.959	-0.177	-0.149
-537.179	800.000	0.042	-0.176
-536.164	-112.997	0.327	0.065
-535.150	-8.499	-0.414	-0.279
-534.135	-8.241	-0.275	0.186
-533.121	-0.834	-0.237	-0.168
-532.106	-200.000	0.040	0.280
-531.091	-60.245	-0.301	0.129
-530.077	-200.000	0.093	0.410
-529.062	800.000	0.033	0.128
-528.048	518.652	-0.073	-0.171
-527.033	96.677	0.173	0.199
-526.018	116.036	-0.270	0.332
-525.004	-89.059	-0.428	0.127
-523.989	-153.470	0.217	-0.015
-522.975	-200.000	-0.024	-0.338
-521.960	-200.000	0.012	-0.069
-520.945	81.394	0.334	0.362
-519.931	307.844	-0.014	-0.026
-518.916	12.243	-0.304	0.235
-517.902	-168.803	-0.464	0.018
-516.887	56.678	0.224	0.219
-515.872	-69.087	0.313	-0.121
-514.858	-45.311	-0.166	0.083
-513.843	-125.583	-0.275	-0.042
-512.829	221.715	-0.165	-0.266
-511.814	-29.248	-0.275	-0.158
-510.799	-8.735	-0.270	0.181
-509.785	226.426	0.113	0.184
-508.770	177.254	-0.251	0.367
-507.756	-137.674	0.050	0.006
-506.741	359.105	-0.077	-0.154
-505.726	-200.000	-0.017	-0.273
-504.712	-149.406	0.351	-0.028
-503.697	800.000	-0.086	0.321
-502.683	-54.528	0.311	-0.141
-501.668	139.329	0.189	-0.249
-500.653	109.796	0.130	-0.156
-499.639	-200.000	-0.000	0.040
-498.624	-200.000	-0.010	-0.142
-497.610	-21.056	-0.092	0.057
-496.595	800.000	0.015	-0.053
-495.581	-133.232	-0.235	0.030
-494.566	-200.000	0.024	0.136
-493.551	282.327	0.190	-0.342
-492.537	240.264	0.048	-0.079
-491.522	203.324	-0.081	0.125
-490.508	347.892	0.182	-0.359
-489.493	-200.000	-0.053	-0.249
-488.478	-135.567	0.107	0.013
-487.464	-40.800	-0.058	0.030
-486.449	-200.000	-0.006	0.102
-485.435	541.652	-0.058	0.138
-484.420	-121.454	-0.217	0.036
-483.405	-36.845	0.194	-0.104
-482.391	800.000	0.046	-0.155
-481.376	-123.919	0.223	0.035
-480.362	100.315	-0.194	0.225
-479.347	-200.000	-0.038	-0.265
-478.332	108.847	-0.124	-0.148
-477.318	79.232	0.119	0.128
-476.303	-19.519	0.086	0.054
-475.289	329.746	-0.093	-0.179
-474.274	-167.153	-0.108	0.004
-473.259	-47.785	-0.124	-0.060
-472.245	261.163	0.035	-0.061
-471.230	265.504	0.108	-0.188
-470.216	28.449	0.167	-0.141
-469.201	162.835	-0.149	-0.209
-468.186	116.055	-0.126	-0.154
-467.172	25.226	0.177	0.147
-466.157	-17.536	0.063	0.040
-465.143	-197.460	0.329	-0.002
-464.128	121.899	0.215	0.268
-463.113	332.491	0.125	0.240
-462.099	-59.922	0.051	-0.022
-461.084	-39.124	0.108	0.057
-460.070	82.163	0.028	0.030
-459.055	800.000	0.014	-0.045
-458.040	196.605	0.168	0.255
-457.026	-200.000	0.015	0.130
-456.011	800.000	-0.039	-0.144
-454.997	-35.968	0.482	-0.260
-453.982	-70.410	-0.229	-0.087
-452.968	800.000	-0.082	0.320
-451.953	-200.000	0.016	0.185
-450.938	-81.387	0.264	0.087
-449.924	94.470	0.302	0.343
-448.909	256.949	0.092	0.159
-447.895	-48.070	-0.200	0.097
-446.880	-75.009	0.182	-0.065
-445.865	-200.000	0.036	-0.168
-444.851	800.000	-0.090	0.315
-443.836	-200.000	0.037	0.352
-442.822	178.947	0.124	-0.181
-441.807	-93.713	0.175	-0.048
-440.792	-54.013	0.050	0.023
-439.778	-45.162	0.238	-0.118
-438.763	401.264	-0.164	-0.345
-437.749	359.637	-0.068	-0.135
-436.734	-39.602	-0.183	0.095
-435.719	576.275	0.081	-0.199
-434.705	7.173	-0.166	-0.123
-433.690	390.674	0.155	0.322
-432.676	193.124	-0.154	0.233
-431.661	-112.058	0.036	-0.007
-430.646	222.879	0.155	-0.249
-429.632	-200.000	0.084	-0.434
-428.617	507.213	-0.082	-0.190
-427.603	296.993	0.031	0.057
-426.588	-120.841	0.062	0.010
-425.573	-77.446	-0.181	0.063
-424.559	222.133	0.069	-0.112
-423.544	-50.439	0.204	0.096
-422.530	167.748	0.123	-0.175
-421.515	11.499	0.209	-0.160
-420.500	18.166	-0.083	0.066
-419.486	-30.433	-0.223	-0.126
-418.471	-200.000	0.059	0.259
-417.457	-176.364	0.397	-0.010
-416.442	87.840	0.243	-0.269
-415.428	-59.307	-0.223	-0.096
-414.413	-127.075	-0.399	0.058
-413.398	-39.750	0.438	0.229
-412.384	54.541	-0.339	-0.326
-411.369	25.726	-0.082	-0.068
-410.355	-200.000	0.023	0.135
-409.340	-68.161	0.097	-0.038
-408.325	-147.249	0.322	0.027
-407.311	64.058	0.306	-0.307
-406.296	20.878	-0.215	0.174
-405.282	-72.200	0.349	0.129
-404.267	215.647	0.074	-0.117
-403.252	96.384	-0.129	-0.148
-402.238	166.855	-0.174	-0.247
-401.223	-136.772	0.166	0.019
-400.209	-109.420	-0.135	-0.028
-399.194	-200.000	-0.051	0.227
-398.179	-31.363	0.327	0.184
-397.165	39.237	-0.077	0.069
-396.150	800.000	0.056	-0.195
-395.136	-11.434	0.357	-0.234
-394.121	800.000	0.122	-0.382
-393.106	-200.000	-0.010	-0.402
-392.092	-9.829	-0.128	-0.085
-391.077	-110.087	-0.192	-0.040
-390.063	-200.000	-0.033	-0.251
-389.048	676.294	0.098	0.254
-388.033	-200.000	0.024	0.154
-387.019	-107.237	-0.164	0.036
-386.004	-40.416	0.176	-0.091
-384.990	10.059	-0.161	-0.122
-383.975	-123.985	0.126	0.020
-382.960	515.076	-0.063	-0.147
-381.946	-16.011	0.227	0.144
-380.931	800.000	-0.029	-0.084
-379.917	25.215	0.108	-0.089
-378.902	140.441	0.089	0.117
-377.888	27.175	0.339	0.284
-376.873	-200.000	-0.022	0.141
-375.858	-58.518	-0.168	-0.073
-374.844	22.058	-0.281	0.228
-373.829	-9.838	0.151	0.100
-372.815	-148.247	0.032	0.003
-371.800	-27.597	0.372	0.215
-370.785	800.000	0.049	0.191
-369.771	200.424	-0.068	0.104
-368.756	13.783	-0.200	-0.155
-367.742	-44.680	-0.272	-0.135
-366.727	258.162	-0.189	-0.325
-365.712	-73.684	-0.203	-0.074
-364.698	-200.000	0.009	-0.079
-363.683	-47.129	-0.359	0.174
-362.669	356.738	0.131	0.260
-361.654	800.000	0.035	-0.123
-360.639	296.392	0.085	0.154
-359.625	-91.458	0.369	0.105
-358.610	168.620	-0.163	0.231
-357.596	109.694	-0.124	0.148
-356.581	161.321	0.103	-0.143
-355.566	-37.096	-0.355	-0.189
-354.552	800.000	0.101	0.359
-353.537	330.295	0.059	0.113
-352.523	246.539	0.180	-0.302
-351.508	60.458	0.085	-0.084
-350.493	800.000	-0.072	-0.227
-349.479	-90.732	-0.287	0.083
-348.464	511.269	0.036	-0.083
-347.450	-66.805	0.096	0.038
-346.435	-200.000	-0.016	0.171
-345.420	338.038	-0.112	0.216
-344.406	121.990	0.139	0.173
-343.391	180.967	-0.178	0.261
-342.377	-15.175	0.042	0.027
-341.362	2.319	-0.081	0.059
-340.348	309.612	-0.096	0.178
-339.333	-200.000	-0.008	-0.141
-338.318	351.936	-0.153	0.302
-337.304	-54.819	-0.305	0.137
-336.289	-200.000	0.024	0.185
-335.275	69.194	0.129	0.132
-334.260	77.209	-0.130	0.137
-333.245	-200.000	0.008	-0.050
-332.231	6.579	0.253	-0.187
-331.216	-200.000	-0.001	-0.237
-330.202	214.584	0.180	0.283
-329.187	-135.433	-0.081	-0.010
-328.172	-200.000	-0.022	-0.346
-327.158	-77.740	-0.081	-0.028
-326.143	-82.645	-0.254	0.082
-325.129	-39.114	0.405	0.212
-324.114	650.357	0.137	-0.349
-323.099	-200.000	-0.009	0.063
-322.085	136.917	0.196	-0.255
-321.070	748.328	-0.144	-0.385
-320.056	-126.666	-0.096	-0.014
-319.041	89.183	-0.127	-0.140
-318.026	169.214	-0.172	-0.244
-317.012	-102.060	-0.056	-0.013
-315.997	152.067	-0.125	-0.170
-314.983	-18.809	-0.154	-0.095
-313.968	-200.000	-0.008	0.175
-312.953	-91.606	-0.101	-0.029
-311.939	91.905	-0.047	-0.052
-310.924	-200.000	0.007	0.294
-309.910	-20.435	0.256	-0.156
-308.895	47.245	0.214	-0.198
-307.880	-144.868	-0.169	0.015
-306.866	79.451	0.195	-0.208
-305.851	-200.000	0.001	-0.279
-304.837	800.000	0.039	0.122
-303.822	-65.541	0.153	-0.061
-302.807	-139.396	-0.275	-0.029
-301.793	-75.517	-0.114	0.040
-300.778	123.192	-0.103	0.128
-299.764	37.690	-0.126	-0.111
-298.749	614.049	-0.119	0.297
-297.735	-80.325	-0.186	-0.062
-296.720	-200.000	-0.023	0.149
-295.705	423.704	-0.100	-0.213
-294.691	29.551	0.175	0.148
-293.676	-33.477	0.165	-0.091
-292.662	-122.174	-0.341	-0.055
-291.647	-156.606	0.368	0.023
-290.632	499.580	-0.107	-0.246
-289.618	281.748	-0.100	-0.178
-288.603	-43.349	-0.250	0.126
-287.589	-134.750	-0.164	0.020
-286.574	-12.927	0.223	0.144
-285.559	356.309	-0.060	-0.118
-284.545	-55.578	0.155	0.069
-283.530	-63.261	0.187	0.076
-282.516	30.188	0.208	-0.177
-281.501	-93.457	0.287	-0.079
-280.486	-200.000	-0.055	-0.298
-279.472	-200.000	0.020	0.102
-278.457	104.228	0.207	-0.242
-277.443	-3.313	0.169	0.117
-276.428	-200.000	0.034	-0.175
-275.413	-68.681	-0.141	0.054
-274.399	652.453	-0.193	-0.492
-273.384	-200.000	0.002	0.130
-272.370	-200.000	0.008	0.138
-271.355	520.602	0.081	-0.189
-270.340	-162.067	0.131	0.007
-269.326	476.401	-0.121	0.270
-268.311	71.382	-0.244	0.251
-267.297	-79.895	-0.260	-0.087
-266.282	-200.000	-0.056	-0.307
-265.267	-31.919	-0.108	0.060
-264.253	306.377	-0.093	-0.172
-263.238	-146.893	-0.157	-0.013
-262.224	-29.763	0.126	0.072
-261.209	-76.263	0.283	-0.099
-260.195	-200.000	-0.245	0.000
-259.180	114.745	0.220	-0.266
-258.165	800.000	-0.036	0.149
-257.151	-80.796	-0.157	0.052
-256.136	-144.392	0.421	0.039
-255.122	-143.640	0.403	0.038
-254.107	800.000	-0.069	0.205
-253.092	-82.584	-0.207	0.066
-252.078	-20.439	-0.285	0.174
-251.063	155.686	-0.113	-0.154
-250.049	-200.000	-0.003	0.038
-249.034	-110.238	-0.327	0.067
-248.019	9.676	0.326	-0.245
-247.005	-200.000	-0.014	-0.210
-245.990	800.000	0.038	0.135
-244.976	-200.000	0.004	-0.048
-243.961	21.687	-0.340	-0.274
-242.946	-47.744	0.146	-0.070
-241.932	620.902	0.016	-0.041
-240.917	-200.000	0.051	-0.276
-239.903	53.739	-0.142	-0.135
-238.888	-200.000	0.026	0.229
-237.873	-138.483	0.273	-0.030
-236.859	16.647	-0.335	-0.263
-235.844	-200.000	-0.001	0.203
-234.830	84.914	-0.111	0.121
-233.815	-200.000	0.080	0.524
-232.800	-46.401	-0.235	0.114
-231.786	776.474	-0.097	0.262
-230.771	3.153	-0.021	-0.015
-229.757	403.567	0.038	-0.079
-228.742	384.447	-0.029	-0.060
-227.727	112.755	0.122	-0.147
-226.713	69.153	0.244	0.249
-225.698	219.782	0.183	-0.290
-224.684	217.814	-0.172	0.271
-223.669	800.000	0.093	0.289
-222.655	718.004	-0.140	-0.367
-221.640	209.626	-0.064	-0.100
-220.625	25.098	-0.223	0.184
-219.611	302.880	0.094	0.172
-218.596	-40.414	-0.162	0.083
-217.582	72.037	0.117	0.120
-216.567	139.992	0.159	-0.208
-215.552	-105.033	-0.308	-0.070
-214.538	-19.256	0.241	-0.148
-213.523	200.481	0.121	-0.184
-212.509	-177.478	0.199	0.005
-211.494	453.558	-0.148	0.324
-210.479	465.293	0.041	-0.091
-209.465	317.439	-0.091	0.170
-208.450	-131.225	0.059	0.008
-207.436	-183.297	0.130	0.002
-206.421	69.814	-0.196	-0.200
-205.406	-74.011	0.119	0.043
-204.392	-56.500	-0.185	-0.081
-203.377	56.268	0.026	0.025
-202.363	106.121	0.138	-0.161
-201.348	-200.000	-0.032	0.313
-200.333	43.891	0.132	0.120
-199.319	274.368	0.104	0.182
-198.304	-80.844	0.113	0.037
-197.290	-178.116	-0.305	0.007
-196.275	341.337	-0.169	0.328
-195.260	-93.677	0.186	0.051
-194.246	-135.850	-0.208	-0.024
-193.231	-24.049	-0.415	-0.246
-192.217	800.000	-0.155	0.446
-191.202	55.512	0.226	-0.217
-190.187	800.000	0.094	-0.302
-189.173	258.004	0.077	-0.130
-188.158	-200.000	0.007	0.078
-187.144	-200.000	-0.103	0.448
-186.129	260.883	0.071	0.122
-185.114	-121.536	-0.134	-0.022
-184.100	14.823	0.127	0.098
-183.085	-200.000	0.000	0.364
-182.071	107.866	0.180	-0.212
-181.056	-200.000	0.029	0.362
-180.042	196.723	0.209	-0.315
-179.027	637.886	0.098	-0.246
-178.012	-125.099	-0.240	0.036
-176.998	11.145	0.153	-0.116
-175.983	800.000	0.015	-0.061
-174.969	26.028	0.215	-0.177
-173.954	-191.309	-0.139	-0.001
-172.939	800.000	0.058	-0.201
-171.925	-144.156	-0.402	-0.037
-170.910	-200.000	0.037	0.433
-169.896	-40.210	0.347	0.178
-168.881	80.694	-0.118	0.126
-167.866	332.727	0.108	0.207
-166.852	-82.503	-0.365	-0.117
-165.837	93.876	0.186	0.208
-164.823	121.667	-0.227	0.280
-163.808	-15.713	0.280	0.177
-162.793	4.171	0.054	0.039
-161.779	-14.183	-0.114	-0.073
-160.764	-200.000	-0.025	0.416
-159.750	-11.933	-0.223	-0.145
-158.735	-0.805	0.334	-0.234
-157.720	-200.000	0.041	0.444
-156.706	-19.950	-0.248	-0.151
-155.691	106.768	-0.172	0.202
-154.677	800.000	0.030	0.124
-153.662	-200.000	0.018	0.223
-152.647	-74.319	-0.123	0.044
-151.633	-81.961	0.230	0.074
-150.618	800.000	-0.076	-0.285
-149.604	44.646	-0.098	-0.089
-148.589	-200.000	-0.012	-0.258
-147.574	-200.000	0.028	-0.222
-146.560	-200.000	0.010	-0.169
-145.545	162.264	0.167	0.231
-144.531	-103.060	0.100	0.023
-143.516	-200.000	0.006	-0.236
-142.502	800.000	0.007	0.031
-141.487	-196.050	-0.480	-0.003
-140.472	-18.118	0.269	0.166
-139.458	603.376	0.069	-0.168
-138.443	32.597	0.356	-0.304
-137.429	-151.994	-0.090	-0.006
-136.414	-146.426	0.146	-0.013
-135.399	110.188	-0.097	-0.115
-134.385	288.901	0.065	0.117
-133.370	-200.000	0.039	0.188
-132.356	-43.875	-0.230	-0.114
-131.341	52.207	-0.312	-0.293
-130.326	82.856	-0.140	-0.150
-129.312	-200.000	-0.043	0.205
-128.297	-31.339	-0.443	0.246
-127.283	-42.003	0.018	0.009
-126.268	-200.000	0.041	0.329
-125.253	1.042	0.207	-0.147
-124.239	-74.546	0.084	0.030
-123.224	-175.807	0.087	-0.002
-122.210	800.000	-0.067	0.202
-121.195	-155.785	-0.258	0.016
-120.180	-200.000	-0.011	0.209
-119.166	167.038	0.099	0.139
-118.151	-149.778	-0.080	-0.006
-117.137	143.114	-0.119	0.157
-116.122	-28.443	0.291	-0.166
-115.107	-151.807	0.364	0.026
-114.093	800.000	-0.092	-0.251
-113.078	226.761	0.072	-0.116
-112.064	-200.000	0.051	0.293
-111.049	105.119	0.177	0.206
-110.034	275.727	0.074	0.130
-109.020	-200.000	-0.016	0.217
-108.005	32.672	-0.154	0.132
-106.991	-23.165	0.101	0.060
-105.976	94.143	-0.127	-0.142
-104.962	16.988	-0.131	0.102
-103.947	636.131	-0.099	0.249
-102.932	-37.981	-0.055	-0.029
-101.918	-102.220	0.202	-0.048
-100.903	347.410	0.095	0.184
-99.889	800.000	0.023	-0.083
-98.874	800.000	0.005	-0.016
-97.859	399.956	0.067	0.139
-96.845	40.557	-0.096	0.085
-95.830	-200.000	0.012	0.230
-94.816	-121.298	-0.237	0.039
-93.801	169.542	-0.134	-0.188
-92.786	-13.057	0.142	0.091
-91.772	-123.649	-0.145	0.023
-90.757	397.579	0.046	0.095
-89.743	1.424	-0.081	0.057
-88.728	-124.680	0.080	0.012
-87.713	-51.976	0.105	-0.048
-86.699	20.953	0.276	0.221
-85.684	-106.464	-0.244	-0.054
-84.670	800.000	-0.156	-0.425
-83.655	-200.000	-0.007	-0.331
-82.640	466.861	-0.134	-0.295
-81.626	-200.000	-0.029	-0.226
-80.611	-9.944	0.161	-0.106
-79.597	-129.467	-0.321	0.044
-78.582	-200.000	0.009	-0.087
-77.567	198.990	-0.096	0.145
-76.553	62.794	0.307	-0.303
-75.538	800.000	0.025	-0.097
-74.524	-200.000	-0.005	0.269
-73.509	12.518	-0.172	0.131
-72.494	800.000	-0.025	-0.070
-71.480	225.762	0.168	-0.269
-70.465	245.550	0.240	-0.398
-69.451	-200.000	0.024	-0.220
-68.436	-76.127	0.098	-0.034
-67.422	115.911	0.113	-0.136
-66.407	44.156	0.307	0.277
-65.392	-97.939	-0.403	0.102
-64.378	95.456	-0.027	0.031
-63.363	-200.000	0.032	0.147
-62.349	58.217	-0.210	-0.203
-61.334	-20.281	-1.141	-0.692
-60.319	529.555	0.173	0.402
-59.305	-200.000	0.019	-0.925
-58.290	132.969	0.729	0.927
-57.276	522.328	0.672	1.554
-56.261	-200.000	95.616	593.926
-55.246	566.614	1371.258	3274.801
-54.232	161.175	2549.828	3507.532
-53.217	113.284	2142.774	2558.336
-52.203	44.035	1604.610	1447.369
-51.188	35.675	1342.143	1160.374
-50.173	32.436	1300.294	1105.169
-49.159	54.445	1347.690	1277.432
-48.144	56.733	1364.147	1306.634
-47.130	35.901	1322.632	1144.670
-46.115	32.203	1305.730	1108.239
-45.100	32.080	1300.509	1103.039
-44.086	32.123	1298.026	1101.139
-43.071	32.036	1295.998	1098.867
-42.057	32.040	1293.602	1096.817
-41.042	32.060	1291.506	1095.112
-40.027	32.134	1290.227	1094.416
-39.013	32.059	1288.564	1092.522
-37.998	32.028	1287.268	1091.202
-36.984	32.059	1285.416	1089.768
-35.969	32.091	1283.230	1088.058
-34.954	32.180	1281.325	1086.917
-33.940	32.125	1280.403	1085.770
-32.925	32.139	1279.086	1084.694
-31.911	32.159	1277.160	1083.128
-30.896	32.265	1275.335	1082.149
-29.881	32.199	1274.729	1081.212
-28.867	32.275	1272.942	1080.090
-27.852	32.319	1271.325	1078.927
-26.838	32.349	1269.872	1077.828
-25.823	32.162	1268.955	1075.936
-24.809	32.185	1267.822	1075.063
-23.794	32.174	1266.194	1073.578
-22.779	32.132	1265.307	1072.542
-21.765	32.261	1263.919	1072.056
-20.750	32.160	1262.559	1070.289
-19.736	32.053	1261.470	1068.710
-18.721	32.104	1260.116	1067.814
-17.706	32.113	1258.638	1066.570
-16.692	32.136	1257.343	1065.556
-15.677	32.136	1256.512	1064.813
-14.663	32.081	1255.733	1063.799
-13.648	32.059	1253.991	1062.156
-12.633	32.103	1253.329	1061.801
-11.619	32.074	1252.324	1060.745
-10.604	32.061	1251.990	1060.348
-9.590	32.059	1250.533	1059.061
-8.575	32.012	1249.737	1058.079
-7.560	31.939	1249.341	1057.286
-6.546	32.096	1247.890	1056.905
-5.531	32.142	1246.443	1055.896
-4.517	32.031	1246.200	1055.024
-3.502	32.121	1245.426	1054.830
-2.487	32.007	1244.905	1053.706
-1.473	32.096	1240.224	1050.200
-0.458	30.612	1225.698	1029.649
0.556	27.148	1208.348	993.390
1.571	23.537	1214.358	978.365
2.586	22.833	1229.738	986.737
3.600	22.199	1219.051	974.563
4.615	15.845	1145.317	882.334
5.629	5.883	1069.038	774.531
6.644	1.866	1048.718	740.262
7.659	1.497	1046.595	736.905
8.673	1.402	1045.280	735.456
9.688	1.426	1043.791	734.460
10.702	1.672	1042.083	734.380
11.717	7.566	1050.662	768.966
12.731	17.841	1065.646	830.094
13.746	23.644	1072.034	863.305
14.761	24.851	1073.483	870.270
15.775	24.889	1073.373	870.288
16.790	24.569	1072.685	868.099
17.804	24.510	1072.047	867.220
18.819	24.759	1071.540	867.937
19.834	24.806	1071.372	867.954
20.848	24.897	1070.690	867.766
21.863	24.921	1070.131	867.352
22.877	24.792	1069.416	866.071
23.892	24.690	1068.996	865.160
24.907	24.763	1068.151	864.755
25.921	24.668	1067.121	863.388
26.936	24.824	1065.389	862.657
27.950	24.734	1064.109	861.111
28.965	24.651	1061.998	858.930
29.980	24.687	1060.442	857.770
30.994	24.861	1060.111	858.260
32.009	24.796	1058.929	856.913
33.023	24.518	1058.040	854.789
34.038	24.649	1057.358	854.789
35.053	24.764	1056.453	854.531
36.067	24.766	1055.957	854.065
37.082	24.939	1055.033	854.064
38.096	25.114	1054.235	854.179
39.111	25.227	1053.306	853.886
40.126	25.017	1052.059	851.802
41.140	24.614	1050.516	848.565
42.155	24.484	1048.863	846.540
43.169	24.513	1047.807	845.750
44.184	24.457	1047.065	844.811
45.199	24.315	1046.146	843.323
46.213	24.513	1045.301	843.501
47.228	24.622	1044.526	843.319
48.242	24.836	1043.775	843.643
49.257	24.798	1043.437	843.116
50.271	24.839	1042.685	842.631
51.286	24.955	1041.589	842.213
52.301	24.975	1040.474	841.331
53.315	24.798	1040.012	840.053
54.330	24.795	1038.828	839.008
55.344	24.803	1038.329	838.569
56.359	24.850	1037.110	837.730
57.374	24.651	1036.116	835.923
58.388	24.783	1035.394	835.881
59.403	24.559	1034.710	834.212
60.417	24.492	1033.554	832.894
61.432	24.491	1032.999	832.367
62.447	24.590	1032.593	832.430
63.461	24.649	1031.692	831.903
64.476	24.531	1031.176	830.862
65.490	24.465	1029.912	829.466
66.505	24.628	1029.297	829.654
67.520	24.667	1028.570	829.173
68.534	24.342	1027.751	826.936
69.549	24.012	1026.646	824.445
70.563	24.110	1025.624	824.004
71.578	24.044	1024.527	822.743
72.593	23.930	1023.927	821.665
73.607	24.064	1023.873	822.166
74.622	24.389	1023.503	823.298
75.636	24.459	1022.771	822.957
76.651	24.235	1021.743	821.027
77.666	24.172	1021.167	820.199
78.680	24.178	1020.398	819.536
79.695	24.325	1019.876	819.719
80.709	24.513	1018.995	819.804
81.724	24.415	1018.369	818.778
82.739	24.423	1017.597	818.120
83.753	24.872	1016.990	819.617
84.768	25.150	1016.408	820.346
85.782	25.185	1015.535	819.732
86.797	25.072	1014.294	818.140
87.812	24.861	1014.066	816.922
88.826	25.040	1012.827	816.668
89.841	25.073	1012.013	816.090
90.855	25.097	1011.066	815.361
91.870	25.116	1009.829	814.379
92.884	25.018	1008.522	812.807
93.899	24.782	1008.249	811.443
94.914	25.036	1007.236	811.711
95.928	24.959	1006.199	810.451
96.943	24.632	1005.142	808.054
97.957	24.479	1003.892	806.285
98.972	24.320	1003.021	804.797
99.987	24.654	1002.108	805.498
101.001	24.594	1001.867	804.963
102.016	24.794	1000.608	804.781
103.030	24.740	999.866	803.869
104.045	24.559	998.787	802.119
105.060	24.428	998.079	800.888
106.074	24.670	997.014	801.049
107.089	24.906	997.003	802.027
108.103	24.687	996.013	800.181
109.118	24.683	994.174	798.611
110.133	24.664	993.313	797.766
111.147	24.275	992.315	795.158
112.162	24.215	991.673	794.306
113.176	24.541	990.967	795.124
114.191	24.428	990.015	793.788
115.206	24.175	989.005	791.781
116.220	24.037	988.262	790.504
117.235	24.276	987.328	790.749
118.249	24.287	986.437	790.014
119.264	24.109	985.993	788.800
120.279	24.261	985.259	788.816
121.293	24.247	984.372	787.973
122.308	24.178	983.648	787.020
123.322	24.084	982.474	785.596
124.337	24.318	980.396	784.894
125.352	23.556	979.765	780.968
126.366	23.541	978.693	779.978
127.381	24.155	978.945	782.810
128.395	24.777	977.903	784.637
129.410	24.719	977.720	784.167
130.424	24.788	976.322	783.277
131.439	24.869	975.460	782.869
132.454	24.713	974.429	781.291
133.468	24.617	973.628	780.163
134.483	24.816	972.854	780.340
135.497	24.914	972.539	780.444
136.512	25.031	971.298	779.890
137.527	25.042	970.393	779.142
138.541	25.094	969.771	778.801
139.556	25.113	969.063	778.246
140.570	25.071	968.801	777.784
141.585	24.969	967.563	776.276
142.600	25.103	966.199	775.695
143.614	25.167	965.942	775.696
144.629	25.379	964.812	775.634
145.643	25.178	963.793	773.880
146.658	24.995	962.269	771.802
147.673	25.018	961.410	771.141
148.687	24.934	960.531	770.009
149.702	24.836	959.290	768.526
150.716	24.828	958.463	767.758
151.731	24.841	957.939	767.328
152.746	25.157	957.442	768.218
153.760	25.209	956.712	767.783
154.775	25.220	956.263	767.403
155.789	25.095	955.041	765.821
156.804	25.264	953.886	765.545
157.819	25.204	953.611	765.004
158.833	25.246	952.950	764.583
159.848	25.309	952.105	764.108
160.862	25.285	950.276	762.468
161.877	25.173	949.382	761.208
162.892	25.155	948.820	760.614
163.906	25.165	947.317	759.384
164.921	25.110	946.753	758.633
165.935	25.283	946.018	758.711
166.950	25.136	945.203	757.367
167.964	25.121	944.332	756.539
168.979	24.917	943.129	754.650
169.994	25.018	942.467	754.477
171.008	25.178	942.031	754.734
172.023	25.182	940.925	753.800
173.037	25.077	939.754	752.351
174.052	24.785	938.978	750.442
175.067	24.929	938.523	750.616
176.081	24.967	937.999	750.287
177.096	24.874	937.362	749.323
178.110	24.597	936.760	747.616
179.125	24.442	935.844	746.170
180.140	24.597	934.922	746.016
181.154	24.738	934.983	746.589
182.169	25.022	934.814	747.573
183.183	25.213	934.494	748.047
184.198	25.107	933.618	746.839
185.213	25.014	932.622	745.590
186.227	25.206	932.242	746.016
187.242	25.024	931.815	744.851
188.256	25.173	931.159	744.880
189.271	25.291	930.226	744.560
190.286	24.937	928.805	741.890
191.300	24.092	927.829	737.546
192.315	23.620	925.745	733.872
193.329	23.447	925.773	733.114
194.344	24.465	925.987	737.426
195.359	25.021	925.934	739.616
196.373	25.093	925.358	739.387
197.388	24.993	924.750	738.424
198.402	25.013	924.533	738.266
199.417	25.089	923.703	737.853
200.432	24.714	922.520	735.298
201.446	24.560	922.278	734.409
202.461	24.567	921.486	733.744
203.475	23.818	919.659	729.149
204.490	23.182	917.703	724.931
205.504	23.922	918.583	728.596
206.519	24.564	918.333	730.961
207.534	24.712	917.917	731.169
208.548	25.172	917.635	732.759
209.563	24.908	916.515	730.723
210.577	24.911	916.220	730.436
211.592	25.206	915.955	731.362
212.607	25.312	914.978	730.952
213.621	25.214	914.318	729.961
214.636	25.523	913.207	730.265
215.650	25.207	912.776	728.571
216.665	25.417	912.409	729.064
217.680	25.205	911.464	727.386
218.694	24.827	910.601	725.101
219.709	24.709	909.716	723.855
220.723	24.907	909.642	724.534
221.738	25.102	908.756	724.552
222.753	24.956	908.322	723.551
223.767	25.129	907.628	723.634
224.782	25.390	907.140	724.232
225.796	25.294	907.271	723.885
226.811	24.608	905.518	719.664
227.826	24.006	904.156	716.096
228.840	24.309	903.355	716.615
229.855	24.326	902.988	716.326
230.869	23.917	902.037	713.870
231.884	24.483	901.782	715.876
232.899	25.015	902.128	718.218
233.913	24.856	901.565	717.068
234.928	25.020	900.692	716.970
235.942	24.892	899.845	715.717
236.957	24.637	899.128	714.066
237.972	24.514	898.930	713.354
238.986	24.771	898.428	713.920
240.001	24.753	897.573	713.106
241.015	24.832	897.411	713.227
242.030	25.079	896.406	713.350
243.045	25.183	896.098	713.456
244.059	25.231	895.722	713.281
245.074	24.923	894.668	711.159
246.088	24.699	893.896	709.592
247.103	24.987	893.472	710.334
248.117	25.611	893.441	712.723
249.132	25.619	893.249	712.535
250.147	25.685	892.836	712.404
251.161	25.972	892.142	712.925
252.176	25.918	891.664	712.266
253.190	26.034	891.201	712.291
254.205	26.152	890.824	712.392
255.220	26.220	889.882	711.845
256.234	26.052	888.912	710.343
257.249	25.898	888.677	709.485
258.263	25.924	887.848	708.862
259.278	26.014	887.061	708.526
260.293	25.971	886.873	708.145
261.307	25.770	886.530	707.018
262.322	25.709	885.182	705.643
263.336	24.978	883.242	701.173
264.351	23.982	881.321	695.692
265.366	24.166	881.288	696.324
266.380	25.120	881.921	700.493
267.395	25.688	881.410	702.243
268.409	25.487	880.525	700.692
269.424	25.509	880.597	700.774
270.439	25.850	879.534	701.192
271.453	25.780	879.486	700.821
272.468	26.030	879.005	701.345
273.482	25.822	879.056	700.515
274.497	25.594	877.346	698.206
275.512	25.220	876.285	695.848
276.526	25.646	876.597	697.688
277.541	25.737	876.424	697.843
278.555	25.531	875.273	696.067
279.570	25.467	874.372	695.042
280.585	25.647	873.656	695.104
281.599	25.643	872.836	694.378
282.614	24.976	871.665	690.811
283.628	25.077	871.287	690.842
284.643	25.449	870.983	691.972
285.657	25.035	869.738	689.326
286.672	24.746	869.294	687.804
287.687	25.250	869.236	689.634
288.701	25.093	868.698	688.545
289.716	24.925	867.831	687.152
290.730	25.035	866.787	686.685
291.745	24.664	865.973	684.560
292.760	25.076	866.090	686.168
293.774	25.971	866.824	690.115
294.789	26.222	866.322	690.616
295.803	26.160	865.766	689.875
296.818	26.410	864.863	690.048
297.833	25.958	863.431	687.121
298.847	25.761	863.144	686.082
299.862	26.076	863.060	687.154
300.876	26.303	862.907	687.837
301.891	26.208	862.105	686.773
302.906	25.727	860.988	683.998
303.920	25.907	860.712	684.401
304.935	26.326	860.690	685.914
305.949	26.199	859.378	684.324
306.964	26.011	858.924	683.191
307.979	26.132	858.315	683.104
308.993	26.393	858.139	683.893
310.008	26.318	857.902	683.357
311.022	26.185	856.827	681.939
312.037	25.985	856.337	680.733
313.052	25.775	855.419	679.153
314.066	24.660	853.854	673.650
315.081	24.503	853.317	672.578
316.095	25.433	853.715	676.330
317.110	25.954	853.281	677.887
318.125	24.990	851.960	673.159
319.139	24.059	850.571	668.505
320.154	24.062	850.202	668.169
321.168	24.885	850.688	671.579
322.183	25.640	850.666	674.334
323.197	25.849	849.989	674.520
324.212	26.003	850.109	675.133
325.227	26.021	849.194	674.415
326.241	25.837	848.674	673.253
327.256	25.842	847.986	672.667
328.270	25.720	847.533	671.793
329.285	25.468	846.478	669.957
330.300	25.364	845.565	668.790
331.314	25.603	845.251	669.371
332.329	26.053	845.375	671.083
333.343	26.097	845.028	670.914
334.358	26.177	844.733	670.916
335.373	26.162	844.286	670.445
336.387	26.504	844.423	671.766
337.402	26.540	844.138	671.613
338.416	26.558	843.848	671.392
339.431	26.742	843.332	671.600
340.446	26.818	842.814	671.411
341.460	26.651	842.627	670.584
342.475	26.463	841.849	669.211
343.489	26.614	841.645	669.549
344.504	26.851	841.255	670.053
345.519	26.842	841.298	669.996
346.533	26.930	840.827	669.885
347.548	26.903	840.077	669.130
348.562	26.790	839.636	668.303
349.577	26.782	838.699	667.469
350.592	26.908	837.897	667.235
351.606	26.957	837.450	667.000
352.621	26.692	836.456	665.174
353.635	26.833	835.486	664.863
354.650	25.996	833.980	660.542
355.665	25.233	832.394	656.438
356.679	25.494	832.282	657.246
357.694	25.961	832.051	658.710
358.708	25.955	831.572	658.250
359.723	26.304	831.561	659.457
360.738	26.553	831.316	660.113
361.752	26.661	831.075	660.258
362.767	27.152	830.561	661.579
363.781	27.295	829.995	661.591
364.796	27.262	829.919	661.352
365.810	27.355	829.695	661.451
366.825	27.368	829.045	660.921
367.840	27.171	827.982	659.302
368.854	26.631	827.411	656.830
369.869	26.883	826.538	656.992
370.883	26.606	826.512	655.911
371.898	26.541	826.257	655.412
372.913	26.813	825.533	655.767
373.927	26.828	825.436	655.686
374.942	26.967	824.942	655.735
375.956	27.234	824.212	656.061
376.971	27.068	824.538	655.665
377.986	27.328	824.087	656.186
379.000	27.215	823.413	655.185
380.015	27.034	822.917	654.081
381.029	27.117	822.226	653.771
382.044	27.264	821.490	653.655
383.059	27.324	820.680	653.170
384.073	27.400	820.586	653.310
385.088	27.101	820.343	651.986
386.102	27.128	818.774	650.777
387.117	26.874	818.392	649.507
388.132	26.560	817.332	647.485
389.146	26.238	816.191	645.375
390.161	26.573	816.436	646.708
391.175	26.982	816.309	648.008
392.190	26.771	815.169	646.294
393.205	25.296	813.160	639.395
394.219	23.703	811.639	632.475
395.234	23.682	811.244	632.036
396.248	25.345	812.432	638.829
397.263	26.832	813.367	644.798
398.278	26.810	813.150	644.491
399.292	26.455	812.324	642.518
400.307	26.385	812.100	642.036
401.321	26.543	811.442	642.020
402.336	27.026	811.494	643.717
403.350	27.419	811.432	645.002
404.365	27.749	811.053	645.811
405.380	27.892	810.682	645.966
406.394	28.133	809.833	646.085
407.409	27.819	809.701	644.813
408.423	28.003	809.407	645.171
409.438	28.152	809.340	645.585
410.453	27.829	809.100	644.196
411.467	27.967	808.199	643.911
412.482	27.947	807.754	643.427
413.496	28.146	807.505	643.872
414.511	28.065	806.962	643.096
415.526	28.009	806.570	642.531
416.540	27.832	805.623	641.100
417.555	27.807	804.944	640.414
418.569	27.737	804.457	639.726
419.584	27.628	803.917	638.855
420.599	27.470	803.705	638.080
421.613	110.490	1286.340	1459.574
422.628	95.376	1356.632	1459.675
