DTS Sentinel unit serial number:	SN413079Multiplexer serial number:	ORYXHardware model number:	OX4-SRSoftware version number:	ORYX F/W v4.00 Oryx Data Collector v3.7.2.0data status	okinstallation	princeton_trtdifferential loss correction	single-endedforward channel	channel 1reverse channel	N/Adate	2019/09/11time	14:56:11forward acquisition time	60.00reverse acquisition time	0.00gamma	496.2192k internal	0.2291k external	0.2291temperature offset calibration	0.9983default loss term (dB/km)	0.3790temperature slope calibration	1.0000multiplexer offset coefficient	1.0000multiplexer slope coefficient	1.0000fibre end	0.00T internal ref (°C)	42.73T ext. ref 1 (°C)	0.94T ext. ref 2 (°C)	38.74length (m)	temperature (°C)	Stokes	anti-Stokes-747.200	-127.502	0.094	-0.014
-746.185	800.000	0.091	0.261
-745.171	-0.896	0.137	-0.099
-744.156	-200.000	-0.013	0.254
-743.142	-94.676	-0.128	-0.036
-742.127	86.959	-0.144	0.163
-741.112	-127.432	0.308	0.046
-740.098	-200.000	-0.024	0.216
-739.083	-103.841	0.057	0.014
-738.069	83.222	0.283	0.315
-737.054	800.000	-0.127	-0.362
-736.039	463.430	-0.173	-0.396
-735.025	-159.596	-0.346	-0.020
-734.010	-52.101	0.134	-0.063
-732.996	-200.000	0.013	0.157
-731.981	29.012	-0.069	-0.060
-730.966	138.287	-0.054	-0.073
-729.952	-53.917	0.153	0.071
-728.937	-52.722	-0.223	-0.105
-727.923	-70.623	-0.191	-0.074
-726.908	129.834	-0.156	0.204
-725.894	-7.105	-0.177	0.123
-724.879	-119.958	-0.307	-0.054
-723.864	102.104	-0.073	-0.088
-722.850	131.044	-0.201	0.265
-721.835	800.000	-0.003	0.011
-720.821	-200.000	0.058	-0.490
-719.806	160.735	0.146	-0.208
-718.791	800.000	-0.043	0.185
-717.777	48.865	-0.261	-0.251
-716.762	-200.000	-0.017	-0.120
-715.748	-34.567	0.113	0.064
-714.733	99.720	-0.290	0.344
-713.718	-63.218	-0.091	-0.038
-712.704	208.487	0.009	0.014
-711.689	4.555	-0.265	0.199
-710.675	397.503	-0.044	-0.094
-709.660	283.860	-0.142	-0.261
-708.645	116.745	-0.296	-0.372
-707.631	-54.772	-0.509	0.235
-706.616	-185.948	0.340	0.005
-705.602	-145.931	-0.124	0.011
-704.587	-144.775	0.385	-0.036
-703.572	82.528	-0.120	0.133
-702.558	-40.374	-0.028	-0.015
-701.543	-79.990	0.143	-0.049
-700.529	4.586	-0.152	-0.114
-699.514	-42.677	-0.084	0.044
-698.499	-114.256	0.226	0.045
-697.485	-112.212	-0.147	0.030
-696.470	800.000	0.022	-0.071
-695.456	42.153	-0.257	-0.239
-694.441	-65.106	-0.196	-0.081
-693.426	-200.000	-0.035	-0.195
-692.412	-200.000	0.062	-0.327
-691.397	-200.000	0.030	0.180
-690.383	-151.239	-0.153	0.012
-689.368	50.283	-0.157	-0.151
-688.354	-149.794	0.042	0.003
-687.339	-150.817	-0.260	0.020
-686.324	-82.671	0.178	-0.059
-685.310	-82.446	0.238	0.079
-684.295	-125.663	0.345	0.053
-683.281	-200.000	0.033	-0.246
-682.266	800.000	-0.084	-0.247
-681.251	112.001	0.040	0.049
-680.237	-149.866	-0.186	-0.015
-679.222	799.902	-0.129	-0.364
-678.208	200.685	0.053	-0.083
-677.193	-200.000	0.022	0.371
-676.178	330.656	0.037	-0.072
-675.164	-51.694	-0.063	-0.030
-674.149	-23.051	-0.161	0.099
-673.135	-12.288	-0.303	0.202
-672.120	12.636	0.165	0.130
-671.105	175.980	0.049	-0.073
-670.091	95.920	-0.080	0.094
-669.076	-109.555	0.125	0.027
-668.062	-200.000	-0.023	-0.434
-667.047	-6.130	-0.237	0.165
-666.032	-152.982	0.273	-0.020
-665.018	6.920	-0.067	0.051
-664.003	66.213	0.129	0.134
-662.989	241.007	0.146	-0.249
-661.974	87.203	0.171	-0.193
-660.959	-50.640	-0.303	-0.146
-659.945	290.042	-0.104	0.192
-658.930	-63.278	0.021	-0.009
-657.916	-91.500	0.354	-0.103
-656.901	-200.000	-0.060	-0.332
-655.886	-49.583	-0.231	0.112
-654.872	64.007	0.021	0.022
-653.857	-99.946	-0.050	-0.013
-652.843	-200.000	0.005	0.285
-651.828	800.000	0.022	0.081
-650.814	-175.519	-0.253	-0.007
-649.799	-200.000	-0.017	-0.115
-648.784	81.397	-0.163	-0.179
-647.770	85.009	0.111	-0.124
-646.755	-200.000	0.015	-0.201
-645.741	-9.082	-0.061	-0.041
-644.726	192.503	-0.134	0.206
-643.711	-200.000	-0.098	-0.548
-642.697	-44.679	-0.125	-0.064
-641.682	560.833	-0.111	-0.274
-640.668	-200.000	-0.029	0.148
-639.653	158.486	-0.055	-0.078
-638.638	168.043	-0.016	0.024
-637.624	-172.911	-0.238	0.008
-636.609	68.021	0.212	0.221
-635.595	274.495	0.201	0.363
-634.580	18.188	-0.119	0.097
-633.565	-90.839	-0.104	0.031
-632.551	-200.000	0.004	-0.186
-631.536	-69.867	-0.150	-0.058
-630.522	-53.471	-0.174	0.081
-629.507	-99.462	-0.227	0.058
-628.492	74.335	-0.078	-0.084
-627.478	67.346	0.177	0.184
-626.463	-171.390	-0.113	0.004
-625.449	512.452	-0.010	-0.024
-624.434	-134.036	0.247	0.031
-623.419	-17.097	0.261	0.168
-622.405	646.372	-0.040	-0.104
-621.390	5.014	0.326	-0.244
-620.376	160.043	0.127	0.180
-619.361	57.194	0.136	0.135
-618.346	-28.677	0.261	0.153
-617.332	-68.056	0.207	0.082
-616.317	-195.334	-0.277	-0.002
-615.303	-186.770	0.138	-0.002
-614.288	-94.120	-0.096	-0.027
-613.273	-200.000	-0.045	-0.277
-612.259	800.000	0.112	-0.332
-611.244	601.913	0.036	0.092
-610.230	-166.971	-0.099	0.004
-609.215	-104.988	0.072	0.017
-608.201	266.963	-0.076	-0.136
-607.186	-98.820	-0.477	0.124
-606.171	181.591	-0.129	0.193
-605.157	24.764	-0.184	-0.155
-604.142	-16.144	-0.132	-0.085
-603.128	-27.221	0.062	0.036
-602.113	105.699	-0.080	-0.097
-601.098	-94.231	0.150	0.042
-600.084	412.655	0.070	0.152
-599.069	85.737	0.095	-0.106
-598.055	179.687	-0.167	-0.249
-597.040	270.169	0.111	-0.198
-596.025	35.307	0.133	-0.119
-595.011	-54.645	0.179	0.083
-593.996	-200.000	-0.055	0.417
-592.982	-57.488	0.072	-0.032
-591.967	246.518	0.289	-0.497
-590.952	-200.000	-0.050	0.335
-589.938	562.251	-0.071	0.176
-588.923	-139.373	-0.274	0.030
-587.909	73.930	-0.329	-0.351
-586.894	144.790	-0.337	0.459
-585.879	319.253	0.047	0.091
-584.865	128.169	0.158	0.205
-583.850	432.476	-0.078	-0.172
-582.836	226.730	0.142	-0.235
-581.821	-38.364	-0.155	-0.083
-580.806	-200.000	0.005	-0.028
-579.792	194.330	0.102	-0.158
-578.777	-140.043	-0.038	-0.004
-577.763	-84.489	-0.173	-0.055
-576.748	-13.737	0.245	-0.161
-575.733	-104.796	0.233	-0.055
-574.719	-74.533	0.298	0.109
-573.704	40.876	0.247	-0.227
-572.690	-200.000	0.004	0.289
-571.675	800.000	-0.082	-0.280
-570.661	-111.841	-0.218	-0.045
-569.646	800.000	0.027	0.096
-568.631	-25.721	0.436	0.261
-567.617	568.686	-0.073	0.181
-566.602	36.940	0.038	0.034
-565.588	526.879	-0.039	-0.094
-564.573	-69.898	-0.290	-0.113
-563.558	88.645	0.220	-0.249
-562.544	309.823	0.181	-0.345
-561.529	392.835	-0.182	0.385
-560.515	18.954	-0.173	0.141
-559.500	800.000	0.012	0.052
-558.485	-200.000	0.004	0.101
-557.471	179.556	0.124	0.184
-556.456	-71.398	-0.020	-0.008
-555.442	-14.955	-0.060	-0.039
-554.427	-157.746	0.161	0.010
-553.412	450.688	-0.078	-0.176
-552.398	-22.180	0.330	0.203
-551.383	800.000	0.054	-0.224
-550.369	800.000	-0.043	-0.156
-549.354	-200.000	0.053	-0.288
-548.339	-1.238	-0.189	0.136
-547.325	24.941	-0.275	-0.232
-546.310	-122.975	0.337	-0.055
-545.296	-112.510	-0.216	-0.044
-544.281	173.142	0.166	-0.243
-543.266	-152.623	0.109	-0.008
-542.252	800.000	0.073	0.278
-541.237	-200.000	0.046	0.319
-540.223	-22.310	-0.132	0.081
-539.208	-93.794	-0.249	-0.070
-538.193	-49.834	-0.072	-0.035
-537.179	440.683	0.049	0.109
-536.164	-165.151	0.381	-0.017
-535.150	-134.766	-0.259	-0.032
-534.135	800.000	-0.056	-0.183
-533.121	381.753	-0.124	0.258
-532.106	312.398	-0.054	0.102
-531.091	14.494	0.177	0.140
-530.077	65.318	0.157	0.162
-529.062	-200.000	-0.017	0.091
-528.048	768.951	-0.050	-0.139
-527.033	800.000	0.059	0.192
-526.018	-59.518	-0.198	0.087
-525.004	55.538	-0.147	0.145
-523.989	198.537	0.095	-0.147
-522.975	285.517	0.168	-0.308
-521.960	-102.543	-0.422	0.102
-520.945	-163.315	0.128	0.006
-519.931	3.997	-0.078	0.058
-518.916	-98.670	0.471	0.122
-517.902	533.905	-0.091	-0.219
-516.887	76.580	0.197	-0.212
-515.872	185.341	-0.162	0.245
-514.858	800.000	-0.053	0.153
-513.843	-181.552	0.303	-0.006
-512.829	-20.867	-0.033	0.021
-511.814	-41.271	0.082	-0.043
-510.799	-3.142	-0.105	0.074
-509.785	-200.000	-0.001	0.152
-508.770	-200.000	-0.011	0.129
-507.756	-90.374	-0.201	0.059
-506.741	-35.548	-0.298	0.164
-505.726	513.065	-0.070	0.165
-504.712	-200.000	-0.002	0.055
-503.697	-200.000	0.060	0.292
-502.683	-109.382	-0.156	0.034
-501.668	-200.000	0.006	-0.306
-500.653	523.169	-0.061	-0.146
-499.639	82.385	-0.190	-0.209
-498.624	-76.736	0.200	-0.071
-497.610	-55.510	-0.027	0.012
-496.595	800.000	-0.085	-0.249
-495.581	56.195	-0.121	-0.119
-494.566	-200.000	0.007	-0.145
-493.551	23.349	-0.267	-0.222
-492.537	-200.000	-0.084	0.438
-491.522	770.137	0.156	0.430
-490.508	800.000	0.027	0.094
-489.493	-114.280	0.148	-0.029
-488.478	-138.459	0.527	0.059
-487.464	199.086	0.123	0.191
-486.449	800.000	-0.027	0.121
-485.435	23.901	-0.170	0.142
-484.420	800.000	-0.037	0.159
-483.405	-200.000	0.018	-0.165
-482.391	484.747	0.042	0.098
-481.376	-200.000	0.026	-0.283
-480.362	-200.000	-0.024	-0.172
-479.347	2.568	-0.105	-0.077
-478.332	155.315	0.111	-0.155
-477.318	-86.734	0.117	-0.036
-476.303	-132.167	0.150	-0.020
-475.289	159.316	-0.074	0.105
-474.274	800.000	-0.145	-0.410
-473.259	-28.054	-0.209	-0.123
-472.245	-100.573	-0.175	0.044
-471.230	-191.647	-0.152	-0.002
-470.216	335.792	-0.087	-0.170
-469.201	-24.239	0.105	-0.063
-468.186	-39.597	0.463	0.246
-467.172	482.852	0.084	0.194
-466.157	-16.841	0.076	-0.049
-465.143	-200.000	0.005	-0.366
-464.128	535.314	-0.129	0.310
-463.113	-45.563	0.397	-0.199
-462.099	-162.248	0.152	0.008
-461.084	-5.857	0.059	0.041
-460.070	800.000	0.106	0.322
-459.055	-91.587	-0.276	-0.079
-458.040	-103.524	-0.153	0.036
-457.026	229.535	0.044	-0.073
-456.011	259.065	0.188	-0.328
-454.997	-200.000	-0.131	-0.000
-453.982	1.296	-0.119	-0.087
-452.968	459.518	-0.131	0.295
-451.953	-5.135	-0.148	0.103
-450.938	-11.741	-0.123	0.082
-449.924	172.046	0.259	0.377
-448.909	-70.295	0.189	0.073
-447.895	20.657	0.262	-0.214
-446.880	-200.000	0.014	-0.183
-445.865	-3.353	-0.178	-0.125
-444.851	800.000	-0.032	0.105
-443.836	-135.260	-0.239	-0.029
-442.822	85.386	-0.107	0.119
-441.807	-200.000	-0.037	-0.279
-440.792	73.294	-0.257	0.272
-439.778	-9.077	0.192	-0.130
-438.763	-36.188	0.079	0.043
-437.749	14.724	0.079	-0.063
-436.734	49.871	0.058	-0.055
-435.719	137.698	-0.169	0.224
-434.705	-131.238	0.325	0.044
-433.690	560.501	-0.067	0.164
-432.676	-56.247	-0.249	-0.112
-431.661	-138.234	0.379	0.042
-430.646	-70.428	-0.050	-0.019
-429.632	-116.249	-0.126	-0.024
-428.617	-133.275	0.189	0.024
-427.603	80.135	-0.228	-0.248
-426.588	138.666	-0.093	-0.123
-425.573	800.000	-0.035	0.103
-424.559	-126.319	0.508	-0.077
-423.544	148.405	0.123	0.167
-422.530	136.661	0.154	-0.203
-421.515	-200.000	0.056	0.284
-420.500	-200.000	0.052	-0.264
-419.486	-94.329	-0.182	0.050
-418.471	800.000	0.106	0.324
-417.457	115.189	0.084	-0.104
-416.442	800.000	0.042	0.122
-415.428	181.662	0.099	0.147
-414.413	499.445	0.065	-0.151
-413.398	317.011	-0.158	-0.302
-412.384	-150.399	-0.285	-0.022
-411.369	800.000	0.020	0.056
-410.355	338.440	0.102	0.202
-409.340	800.000	-0.049	-0.144
-408.325	-106.520	0.317	0.071
-407.311	800.000	0.060	-0.205
-406.296	133.651	0.125	-0.164
-405.282	-200.000	-0.026	-0.264
-404.267	-200.000	0.036	-0.307
-403.252	-121.829	-0.183	0.031
-402.238	709.763	0.033	0.087
-401.223	1.772	0.144	0.105
-400.209	-200.000	0.037	-0.246
-399.194	-8.729	-0.184	0.125
-398.179	-200.000	-0.001	0.166
-397.165	285.299	-0.106	0.193
-396.150	8.281	0.421	0.319
-395.136	485.825	0.155	0.358
-394.121	-143.237	-0.302	0.029
-393.106	-175.435	0.265	-0.007
-392.092	353.432	0.009	0.019
-391.077	-65.165	-0.126	-0.051
-390.063	-87.389	0.241	0.074
-389.048	17.024	-0.106	-0.085
-388.033	229.162	-0.207	-0.341
-387.019	-68.919	0.169	-0.066
-386.004	17.614	-0.494	0.397
-384.990	37.354	-0.117	0.105
-383.975	-22.820	0.235	0.143
-382.960	-23.852	0.335	0.202
-381.946	-106.150	-0.182	-0.041
-380.931	35.747	0.212	-0.188
-379.917	-145.395	-0.306	0.028
-378.902	-104.603	-0.269	-0.063
-377.888	-200.000	-0.010	-0.142
-376.873	-200.000	-0.014	0.132
-375.858	800.000	0.087	-0.253
-374.844	-200.000	-0.020	0.120
-373.829	157.181	0.102	-0.143
-372.815	578.978	0.109	-0.268
-371.800	-75.875	0.309	0.110
-370.785	-84.960	-0.166	-0.052
-369.771	800.000	-0.077	0.253
-368.756	-99.516	-0.258	-0.066
-367.742	-144.994	-0.364	0.034
-366.727	-115.254	-0.089	0.017
-365.712	-17.411	-0.268	0.170
-364.698	50.456	-0.150	-0.143
-363.683	-4.196	-0.127	0.089
-362.669	-200.000	-0.047	-0.303
-361.654	800.000	0.056	-0.201
-360.639	102.359	0.284	0.334
-359.625	-53.881	0.239	0.110
-358.610	-53.257	0.236	0.109
-357.596	-53.176	-0.334	0.155
-356.581	268.592	-0.044	0.078
-355.566	77.116	0.135	-0.145
-354.552	-3.674	0.080	-0.056
-353.537	-200.000	-0.012	0.097
-352.523	-87.149	0.288	-0.088
-351.508	-200.000	0.052	-0.464
-350.493	-125.903	0.232	-0.035
-349.479	-119.337	-0.211	0.037
-348.464	-174.220	-0.273	0.008
-347.450	-36.435	0.146	0.079
-346.435	41.228	-0.163	-0.149
-345.420	357.220	0.063	0.126
-344.406	-200.000	-0.049	0.248
-343.391	800.000	0.071	-0.208
-342.377	-200.000	-0.038	0.379
-341.362	800.000	-0.116	0.442
-340.348	-200.000	-0.043	0.204
-339.333	800.000	-0.124	0.354
-338.318	37.174	-0.095	0.085
-337.304	-66.293	0.600	0.241
-336.289	31.948	-0.029	-0.025
-335.275	-84.611	0.246	0.078
-334.260	123.232	0.221	-0.279
-333.245	603.936	0.016	-0.040
-332.231	-109.900	-0.084	-0.018
-331.216	-100.220	0.145	0.036
-330.202	-200.000	-0.012	0.134
-329.187	800.000	-0.050	0.200
-328.172	800.000	-0.056	-0.172
-327.158	91.496	-0.290	-0.328
-326.143	-153.506	0.252	-0.018
-325.129	22.845	-0.308	0.254
-324.114	800.000	-0.092	-0.317
-323.099	59.738	0.215	-0.214
-322.085	28.762	-0.091	0.077
-321.070	-200.000	-0.036	-0.171
-320.056	714.174	0.086	-0.230
-319.041	-200.000	-0.007	0.147
-318.026	-8.826	-0.177	-0.119
-317.012	-79.725	-0.314	-0.106
-315.997	800.000	-0.017	-0.069
-314.983	6.174	-0.134	0.100
-313.968	288.463	-0.147	0.268
-312.953	-200.000	0.031	-0.279
-311.939	424.005	0.072	-0.156
-310.924	-200.000	0.059	-0.457
-309.910	-116.577	-0.353	0.065
-308.895	800.000	-0.075	-0.216
-307.880	80.851	0.224	-0.243
-306.866	159.636	0.052	-0.073
-305.851	-200.000	-0.016	0.266
-304.837	-79.362	-0.075	-0.026
-303.822	-7.026	-0.158	0.108
-302.807	-35.833	-0.271	-0.148
-301.793	-157.905	-0.392	0.023
-300.778	-160.734	-0.186	0.010
-299.764	-35.377	-0.117	0.064
-298.749	-25.528	0.250	-0.149
-297.735	416.918	-0.092	0.197
-296.720	-200.000	0.059	0.348
-295.705	800.000	0.045	-0.179
-294.691	-200.000	0.016	0.097
-293.676	-41.883	-0.298	0.154
-292.662	800.000	-0.039	0.154
-291.647	-121.472	-0.175	-0.029
-290.632	800.000	0.029	-0.109
-289.618	800.000	-0.070	-0.265
-288.603	411.516	-0.044	0.094
-287.589	572.379	0.094	0.231
-286.574	9.642	0.279	0.213
-285.559	-13.314	0.211	0.138
-284.545	-200.000	0.020	-0.135
-283.530	-200.000	-0.030	0.407
-282.516	-200.000	-0.010	0.139
-281.501	57.787	0.147	0.145
-280.486	287.786	0.070	0.128
-279.472	-97.928	0.158	0.041
-278.457	417.043	-0.099	-0.213
-277.443	-58.812	-0.361	0.157
-276.428	163.498	0.052	0.073
-275.413	81.245	-0.095	0.103
-274.399	800.000	0.067	-0.257
-273.384	-200.000	-0.002	0.029
-272.370	528.487	-0.090	-0.214
-271.355	-80.383	0.094	0.032
-270.340	-5.419	-0.236	0.163
-269.326	-200.000	-0.041	-0.446
-268.311	-200.000	-0.009	0.167
-267.297	410.053	-0.115	0.244
-266.282	-110.836	-0.337	0.070
-265.267	800.000	0.061	-0.247
-264.253	-116.462	-0.238	-0.044
-263.238	800.000	0.072	-0.225
-262.224	-200.000	0.006	-0.169
-261.209	-200.000	0.011	0.111
-260.195	-46.758	0.068	-0.034
-259.180	408.142	-0.143	-0.305
-258.165	263.500	-0.139	-0.242
-257.151	16.885	-0.163	-0.130
-256.136	-28.047	-0.213	-0.124
-255.122	550.090	-0.074	-0.178
-254.107	-200.000	-0.005	-0.258
-253.092	-54.342	0.282	0.128
-252.078	-200.000	-0.034	0.198
-251.063	71.428	-0.120	-0.125
-250.049	-200.000	0.019	0.183
-249.034	-38.812	0.233	-0.123
-248.019	-112.744	-0.250	-0.050
-247.005	-49.845	0.419	-0.200
-245.990	322.468	0.054	0.103
-244.976	-68.404	0.083	-0.032
-243.961	193.723	0.060	-0.091
-242.946	-112.929	0.329	0.065
-241.932	174.863	0.021	-0.030
-240.917	54.056	0.064	-0.062
-239.903	-133.967	0.671	0.084
-238.888	205.733	0.110	0.171
-237.873	-119.397	0.289	-0.050
-236.859	147.712	0.123	-0.166
-235.844	-141.319	0.366	-0.037
-234.830	353.872	0.136	0.272
-233.815	-174.230	-0.042	-0.001
-232.800	-200.000	0.036	0.239
-231.786	164.056	0.158	-0.224
-230.771	-200.000	0.088	-0.407
-229.757	15.869	-0.259	-0.204
-228.742	148.818	0.103	-0.140
-227.727	-125.125	0.434	0.067
-226.713	-200.000	-0.002	-0.183
-225.698	200.169	-0.234	-0.360
-224.684	39.783	-0.050	-0.045
-223.669	800.000	0.008	-0.027
-222.655	659.438	-0.045	-0.115
-221.640	-102.344	-0.249	0.060
-220.625	-177.326	-0.187	-0.005
-219.611	-159.944	-0.290	-0.016
-218.596	151.977	0.089	0.122
-217.582	64.747	-0.074	0.075
-216.567	-200.000	0.014	0.202
-215.552	-54.985	0.035	-0.016
-214.538	-200.000	0.048	0.238
-213.523	-34.653	-0.275	-0.151
-212.509	12.717	0.167	0.130
-211.494	172.215	0.188	0.271
-210.479	-8.400	0.415	0.280
-209.465	56.772	-0.063	0.062
-208.450	-200.000	-0.006	0.058
-207.436	528.713	-0.031	-0.074
-206.421	-155.378	-0.174	-0.011
-205.406	173.161	-0.075	0.109
-204.392	-112.804	-0.211	0.042
-203.377	-200.000	-0.011	0.097
-202.363	59.705	0.243	-0.240
-201.348	-49.399	-0.251	-0.120
-200.333	-162.014	0.179	0.009
-199.319	-71.153	-0.181	0.068
-198.304	142.060	-0.046	-0.061
-197.290	144.595	-0.228	-0.305
-196.275	-59.856	-0.179	0.077
-195.260	475.919	-0.113	0.255
-194.246	178.529	-0.167	0.244
-193.231	-57.645	-0.417	0.183
-192.217	508.775	0.228	0.532
-191.202	-67.132	0.178	-0.070
-190.187	516.690	-0.167	-0.392
-189.173	-200.000	-0.032	-0.195
-188.158	10.267	-0.220	0.167
-187.144	64.306	0.366	0.369
-186.129	-200.000	0.000	0.203
-185.114	-200.000	-0.003	-0.153
-184.100	-59.012	-0.134	-0.058
-183.085	154.169	0.055	0.076
-182.071	484.811	-0.116	0.265
-181.056	12.786	0.050	0.039
-180.042	248.130	-0.179	0.304
-179.027	90.532	0.222	0.249
-178.012	97.818	0.225	-0.259
-176.998	-191.978	-0.102	0.001
-175.983	-111.694	0.220	0.045
-174.969	-25.066	0.164	0.097
-173.954	160.163	-0.048	0.068
-172.939	343.115	0.285	-0.559
-171.925	-200.000	-0.011	-0.214
-170.910	800.000	0.107	0.381
-169.896	-173.412	-0.295	-0.009
-168.881	-132.937	-0.381	0.049
-167.866	-83.690	0.204	0.065
-166.852	-148.931	-0.284	-0.023
-165.837	452.761	-0.063	-0.139
-164.823	-95.404	0.297	-0.080
-163.808	-141.998	-0.192	0.019
-162.793	-144.624	-0.237	-0.022
-161.779	-90.100	0.084	-0.024
-160.764	-32.225	0.279	0.156
-159.750	16.224	-0.208	-0.164
-158.735	474.576	0.086	-0.195
-157.720	-200.000	0.011	-0.320
-156.706	89.747	-0.194	0.217
-155.691	-100.341	0.523	-0.130
-154.677	280.517	0.139	-0.248
-153.662	-200.000	0.060	0.272
-152.647	-200.000	0.007	0.091
-151.633	-129.642	0.266	-0.037
-150.618	-48.511	-0.231	-0.111
-149.604	-103.563	0.370	0.087
-148.589	-164.268	0.437	-0.020
-147.574	301.495	-0.211	-0.389
-146.560	286.028	-0.045	-0.081
-145.545	-200.000	-0.025	-0.258
-144.531	42.292	0.229	0.208
-143.516	-129.065	0.277	-0.039
-142.502	-109.175	-0.353	-0.075
-141.487	-22.313	0.217	0.131
-140.472	-122.289	0.142	0.023
-139.458	721.629	-0.161	-0.427
-138.443	-13.392	-0.312	0.202
-137.429	-59.037	-0.151	0.065
-136.414	800.000	0.116	-0.342
-135.399	-200.000	0.401	-0.001
-134.385	-11.917	-0.156	0.103
-133.370	-92.962	-0.418	0.117
-132.356	574.576	0.064	0.157
-131.341	400.977	-0.052	0.109
-130.326	86.868	-0.140	0.155
-129.312	-130.660	0.200	-0.027
-128.297	800.000	0.070	-0.252
-127.283	-110.692	0.260	-0.054
-126.268	-66.914	0.350	0.138
-125.253	158.426	0.052	-0.072
-124.239	143.277	0.183	0.243
-123.224	-200.000	0.180	0.001
-122.210	-200.000	0.032	0.291
-121.195	151.664	-0.159	0.216
-120.180	77.505	-0.315	-0.335
-119.166	800.000	0.048	-0.157
-118.151	-117.016	0.299	0.055
-117.137	-190.409	-0.480	-0.005
-116.122	800.000	0.017	-0.060
-115.107	-30.151	0.285	0.162
-114.093	11.574	-0.168	0.128
-113.078	-200.000	-0.027	-0.318
-112.064	-67.870	0.149	-0.058
-111.049	-200.000	0.109	-0.638
-110.034	106.134	0.036	-0.042
-109.020	35.506	-0.051	0.044
-108.005	-74.924	-0.016	-0.006
-106.991	347.984	-0.175	-0.345
-105.976	-6.586	0.228	0.155
-104.962	-4.255	0.079	0.055
-103.947	-83.375	-0.109	-0.035
-102.932	-150.859	0.310	-0.023
-101.918	231.219	0.061	-0.099
-100.903	-200.000	0.035	-0.191
-99.889	-28.188	0.395	-0.228
-98.874	-200.000	0.045	-0.604
-97.859	322.426	0.158	-0.300
-96.845	279.370	-0.115	-0.204
-95.830	-200.000	0.000	-0.163
-94.816	-150.243	0.376	-0.029
-93.801	800.000	0.131	0.366
-92.786	800.000	0.077	-0.213
-91.772	800.000	0.035	0.096
-90.757	-200.000	0.038	-0.279
-89.743	24.594	0.163	0.135
-88.728	66.873	0.250	-0.254
-87.713	-200.000	0.011	-0.191
-86.699	800.000	-0.068	0.245
-85.684	423.923	0.072	0.154
-84.670	800.000	0.052	0.163
-83.655	800.000	-0.039	-0.162
-82.640	-200.000	-0.028	-0.196
-81.626	-200.000	0.021	-0.453
-80.611	-149.441	0.422	-0.033
-79.597	1.228	-0.061	0.044
-78.582	-200.000	0.019	-0.153
-77.567	-200.000	0.033	-0.273
-76.553	11.487	-0.091	0.070
-75.538	-200.000	0.018	0.187
-74.524	-200.000	-0.028	0.185
-73.509	-47.152	0.036	-0.017
-72.494	32.675	0.099	0.085
-71.480	444.248	0.027	-0.059
-70.465	11.560	-0.139	-0.106
-69.451	291.807	0.091	0.164
-68.436	-117.818	0.217	-0.039
-67.422	-2.868	0.158	0.110
-66.407	800.000	-0.041	0.155
-65.392	32.819	-0.151	0.130
-64.378	541.463	0.063	-0.149
-63.363	-200.000	-0.006	0.062
-62.349	53.743	0.052	-0.050
-61.334	259.319	-0.584	-1.004
-60.319	6.129	0.308	0.227
-59.305	193.011	-0.285	-0.429
-58.290	462.439	0.369	0.822
-57.276	800.000	0.589	1.747
-56.261	-200.000	74.484	527.301
-55.246	573.256	1299.324	3156.849
-54.232	146.978	2523.225	3381.699
-53.217	122.008	2227.157	2770.123
-52.203	55.642	1667.239	1609.346
-51.188	47.037	1384.133	1282.914
-50.173	43.118	1336.316	1214.982
-49.159	61.199	1369.465	1355.329
-48.144	69.115	1388.143	1421.731
-47.130	47.133	1351.006	1252.592
-46.115	42.898	1334.655	1211.955
-45.100	42.738	1330.088	1206.803
-44.086	42.565	1327.758	1203.600
-43.071	42.567	1325.348	1201.383
-42.057	42.607	1322.817	1199.277
-41.042	42.544	1321.403	1197.573
-40.027	42.686	1319.479	1196.625
-39.013	42.612	1317.838	1194.650
-37.998	42.674	1315.806	1193.129
-36.984	42.687	1314.121	1191.633
-35.969	42.813	1312.125	1190.524
-34.954	42.791	1310.786	1189.129
-33.940	42.630	1309.858	1187.291
-32.925	42.790	1308.120	1186.610
-31.911	42.734	1306.877	1185.104
-30.896	42.888	1305.067	1184.324
-29.881	42.834	1303.730	1182.748
-28.867	42.894	1302.036	1181.517
-27.852	42.884	1300.180	1179.725
-26.838	42.807	1299.261	1178.396
-25.823	42.793	1298.038	1177.155
-24.809	42.816	1296.302	1175.668
-23.794	42.813	1294.842	1174.278
-22.779	42.647	1294.009	1172.512
-21.765	42.882	1291.724	1171.763
-20.750	42.834	1290.693	1170.500
-19.736	42.753	1289.192	1168.619
-18.721	42.675	1288.070	1167.103
-17.706	42.656	1287.010	1165.990
-16.692	42.653	1285.954	1164.971
-15.677	42.637	1284.986	1163.950
-14.663	42.767	1283.173	1163.013
-13.648	42.723	1282.214	1161.848
-12.633	42.802	1280.805	1160.981
-11.619	42.603	1280.898	1159.869
-10.604	42.717	1279.770	1159.457
-9.590	42.653	1278.744	1158.113
-8.575	42.617	1277.497	1156.731
-7.560	42.721	1276.344	1156.239
-6.546	42.631	1275.696	1155.088
-5.531	42.794	1274.319	1154.734
-4.517	42.754	1273.644	1153.846
-3.502	42.688	1273.498	1153.288
-2.487	42.639	1272.397	1151.963
-1.473	42.810	1268.562	1149.425
-0.458	42.129	1254.350	1132.656
0.556	37.570	1234.372	1092.644
1.571	33.506	1237.592	1072.457
2.586	32.393	1252.183	1078.627
3.600	30.874	1241.419	1060.622
4.615	21.723	1163.520	944.888
5.629	7.762	1077.529	804.775
6.644	1.420	1052.241	754.401
7.659	0.848	1049.217	749.331
8.673	0.771	1047.798	747.871
9.688	0.743	1046.261	746.573
10.702	1.234	1045.275	748.224
11.717	9.080	1057.552	795.974
12.731	20.208	1073.405	863.549
13.746	23.770	1076.445	883.671
14.761	23.323	1075.694	880.753
15.775	23.268	1075.038	879.863
16.790	23.114	1074.106	878.257
17.804	22.784	1073.851	876.332
18.819	22.887	1073.903	876.811
19.834	23.133	1072.670	876.943
20.848	23.105	1072.332	876.452
21.863	23.038	1071.439	875.313
22.877	22.979	1071.129	874.690
23.892	22.893	1070.589	873.747
24.907	22.912	1070.227	873.466
25.921	22.979	1068.607	872.399
26.936	23.060	1066.703	871.166
27.950	22.921	1065.837	869.701
28.965	22.827	1063.788	867.489
29.980	22.885	1061.902	866.158
30.994	23.135	1060.812	866.414
32.009	23.148	1059.847	865.617
33.023	22.829	1059.177	863.431
34.038	23.000	1058.292	863.470
35.053	23.047	1057.238	862.761
36.067	23.053	1056.810	862.365
37.082	23.048	1055.840	861.473
38.096	23.344	1055.053	862.197
39.111	23.306	1054.441	861.436
40.126	23.260	1053.031	859.985
41.140	22.875	1051.320	856.641
42.155	22.655	1050.068	854.482
43.169	22.767	1049.021	854.095
44.184	22.737	1048.288	853.281
45.199	22.649	1047.428	852.078
46.213	22.593	1046.500	850.975
47.228	22.854	1045.247	851.140
48.242	22.882	1044.637	850.702
49.257	23.011	1044.033	850.758
50.271	22.975	1043.397	849.991
51.286	23.195	1042.302	850.082
52.301	23.148	1041.641	849.239
53.315	23.060	1040.687	847.965
54.330	23.016	1039.442	846.665
55.344	23.019	1038.837	846.113
56.359	22.942	1038.380	845.299
57.374	22.830	1037.175	843.703
58.388	22.813	1036.183	842.744
59.403	22.802	1035.335	841.928
60.417	22.768	1034.067	840.657
61.432	22.838	1033.985	840.852
62.447	22.783	1033.105	839.802
63.461	22.928	1032.405	839.844
64.476	22.831	1031.202	838.331
65.490	22.714	1030.083	836.792
66.505	22.680	1030.183	836.639
67.520	22.776	1029.353	836.345
68.534	22.607	1027.890	834.282
69.549	22.319	1026.848	832.004
70.563	22.404	1025.741	831.432
71.578	22.438	1025.410	831.251
72.593	22.139	1024.642	829.148
73.607	22.444	1023.929	829.932
74.622	22.557	1024.327	830.715
75.636	22.595	1023.073	829.804
76.651	22.488	1022.215	828.531
77.666	22.413	1021.437	827.473
78.680	22.462	1020.729	827.057
79.695	22.576	1019.936	826.879
80.709	22.634	1019.619	826.819
81.724	22.677	1018.448	825.998
82.739	22.685	1017.742	825.389
83.753	23.019	1017.116	826.368
84.768	23.255	1016.386	826.808
85.782	23.465	1015.681	827.139
86.797	23.298	1014.692	825.481
87.812	23.070	1013.520	823.393
88.826	23.238	1012.535	823.301
89.841	23.336	1011.676	822.985
90.855	23.350	1010.691	822.175
91.870	23.364	1009.472	821.176
92.884	23.107	1008.740	819.320
93.899	23.012	1007.948	818.162
94.914	23.289	1006.848	818.480
95.928	23.287	1005.395	817.216
96.943	22.926	1004.318	814.603
97.957	22.571	1003.510	812.239
98.972	22.574	1001.684	810.704
99.987	22.786	1001.515	811.473
101.001	23.069	1000.291	811.709
102.016	23.069	1000.027	811.421
103.030	22.932	999.399	810.213
104.045	22.799	998.250	808.597
105.060	22.736	997.078	807.288
106.074	22.843	996.514	807.252
107.089	23.240	995.749	808.372
108.103	22.938	994.717	806.087
109.118	22.816	993.307	804.317
110.133	22.925	992.395	804.003
111.147	22.638	991.281	801.724
112.162	22.500	990.225	800.172
113.176	22.777	989.634	800.880
114.191	22.757	989.090	800.280
115.206	22.442	987.496	797.492
116.220	22.298	986.807	796.215
117.235	22.637	985.700	796.782
118.249	22.584	984.780	795.728
119.264	22.522	984.088	794.819
120.279	22.488	983.654	794.248
121.293	22.588	982.750	793.894
122.308	22.690	982.184	793.827
123.322	22.422	981.071	791.652
124.337	22.431	979.015	789.967
125.352	21.981	977.513	786.668
126.366	21.897	976.831	785.670
127.381	22.592	977.244	789.047
128.395	22.983	976.298	789.962
129.410	23.093	975.559	789.785
130.424	23.065	974.486	788.722
131.439	23.041	973.601	787.831
132.454	23.125	972.580	787.306
133.468	23.076	971.976	786.528
134.483	23.151	971.324	786.267
135.497	23.260	970.677	786.156
136.512	23.529	969.617	786.421
137.527	23.375	968.697	784.925
138.541	23.345	967.983	784.144
139.556	23.474	966.733	783.632
140.570	23.527	965.923	783.137
141.585	23.568	964.930	782.445
142.600	23.445	964.116	781.173
143.614	23.590	963.709	781.415
144.629	23.706	962.908	781.207
145.643	23.639	961.195	779.452
146.658	23.416	959.949	777.393
147.673	23.277	959.127	776.053
148.687	23.163	958.322	774.834
149.702	23.029	957.535	773.543
150.716	23.065	956.563	772.847
151.731	23.181	955.951	772.788
152.746	23.306	955.633	773.011
153.760	23.411	954.531	772.508
154.775	23.486	954.069	772.393
155.789	23.395	953.215	771.234
156.804	23.479	952.338	770.825
157.819	23.433	951.525	769.896
158.833	23.711	950.467	770.178
159.848	23.632	949.838	769.258
160.862	23.471	948.469	767.387
161.877	23.329	947.472	765.898
162.892	23.411	946.669	765.535
163.906	23.410	945.423	764.454
164.921	23.442	944.496	763.776
165.935	23.429	943.916	763.185
166.950	23.316	943.377	762.195
167.964	23.392	941.814	761.190
168.979	23.365	941.130	760.453
169.994	23.252	940.280	759.216
171.008	23.416	940.047	759.661
172.023	23.555	938.678	759.084
173.037	23.291	937.189	756.683
174.052	23.181	936.725	755.773
175.067	23.170	936.071	755.133
176.081	23.329	935.609	755.371
177.096	23.246	934.946	754.412
178.110	22.885	934.080	752.110
179.125	22.887	933.092	751.260
180.140	22.752	933.091	750.616
181.154	22.928	932.698	750.982
182.169	23.391	932.134	752.427
183.183	23.516	932.130	752.890
184.198	23.474	930.985	751.719
185.213	23.441	929.999	750.718
186.227	23.399	929.666	750.203
187.242	23.557	929.109	750.355
188.256	23.456	927.880	748.871
189.271	23.534	927.740	749.022
190.286	23.297	926.679	747.098
191.300	22.674	924.840	742.928
192.315	21.944	923.454	738.676
193.329	21.876	922.956	737.926
194.344	22.715	923.612	741.917
195.359	23.298	923.436	744.158
196.373	23.451	922.794	744.218
197.388	23.347	922.401	743.400
198.402	23.230	921.790	742.351
199.417	23.486	920.844	742.596
200.432	23.207	919.777	740.503
201.446	22.970	919.310	739.069
202.461	22.903	918.994	738.471
203.475	22.143	917.347	733.910
204.490	21.464	915.527	729.557
205.504	22.207	915.843	732.841
206.519	22.929	916.054	735.953
207.534	22.942	915.508	735.503
208.548	23.500	914.831	737.218
209.563	23.277	913.911	735.482
210.577	23.194	913.573	734.801
211.592	23.596	913.252	736.145
212.607	23.546	912.683	735.415
213.621	23.539	912.045	734.808
214.636	23.501	911.099	733.824
215.650	23.483	910.155	732.923
216.665	23.631	909.566	732.994
217.680	23.608	908.769	732.193
218.694	23.175	907.488	729.315
219.709	22.935	907.254	728.070
220.723	23.291	906.821	729.125
221.738	23.346	906.221	728.804
222.753	23.288	905.487	727.911
223.767	23.502	905.275	728.557
224.782	23.647	904.965	728.835
225.796	23.714	904.356	728.558
226.811	23.103	902.386	724.402
227.826	22.357	901.430	720.520
228.840	22.515	901.185	720.907
229.855	22.631	900.070	720.427
230.869	22.344	899.103	718.416
231.884	22.655	899.300	719.777
232.899	23.276	899.683	722.555
233.913	23.255	898.535	721.487
234.928	23.296	898.219	721.334
235.942	23.232	897.395	720.347
236.957	23.025	896.222	718.503
237.972	22.901	896.054	717.798
238.986	23.000	895.664	717.825
240.001	23.139	894.584	717.458
241.015	23.066	894.433	716.979
242.030	23.288	894.169	717.605
243.045	23.356	893.570	717.336
244.059	23.509	893.082	717.499
245.074	23.476	891.984	716.422
246.088	23.003	890.807	713.503
247.103	23.195	890.527	713.992
248.117	23.646	890.930	716.068
249.132	23.988	890.615	717.133
250.147	24.003	889.931	716.579
251.161	24.198	889.355	716.836
252.176	24.153	888.602	715.983
253.190	24.263	887.991	715.871
254.205	24.401	887.340	715.835
255.220	24.472	886.722	715.558
256.234	24.268	886.129	714.200
257.249	24.049	885.644	712.870
258.263	24.189	884.500	712.444
259.278	24.383	883.893	712.665
260.293	24.448	883.449	712.505
261.307	24.097	882.982	710.665
262.322	24.027	882.041	709.566
263.336	23.295	880.100	705.030
264.351	22.270	878.071	699.270
265.366	22.236	877.843	698.890
266.380	23.419	878.413	703.985
267.395	23.872	878.287	705.617
268.409	23.696	877.966	704.600
269.424	24.002	877.392	705.288
270.439	23.973	876.567	704.449
271.453	24.096	875.828	704.279
272.468	24.365	875.254	704.820
273.482	24.347	874.943	704.437
274.497	23.975	873.643	701.860
275.512	23.701	872.801	700.039
276.526	23.912	872.987	700.958
277.541	24.052	872.927	701.400
278.555	23.818	871.486	699.262
279.570	23.743	870.825	698.374
280.585	23.877	870.207	698.343
281.599	23.787	869.885	697.671
282.614	23.226	868.299	694.138
283.628	23.296	867.458	693.678
284.643	23.713	867.449	695.240
285.657	23.314	866.362	692.746
286.672	23.011	865.353	690.697
287.687	23.621	865.387	693.044
288.701	23.720	864.649	692.780
289.716	23.341	863.718	690.495
290.730	23.194	863.831	689.952
291.745	22.875	862.653	687.707
292.760	23.303	862.400	689.108
293.774	24.122	863.220	692.892
294.789	24.621	862.626	694.293
295.803	24.648	861.862	693.723
296.818	24.661	861.398	693.337
297.833	24.228	860.063	690.524
298.847	24.206	859.205	689.688
299.862	24.390	859.222	690.356
300.876	24.621	859.170	691.142
301.891	24.570	857.985	689.931
302.906	23.971	857.283	686.994
303.920	24.251	856.667	687.520
304.935	24.480	856.760	688.416
305.949	24.420	856.203	687.677
306.964	24.105	855.511	685.848
307.979	24.301	855.412	686.463
308.993	24.768	854.518	687.480
310.008	24.696	854.103	686.810
311.022	24.447	853.264	685.117
312.037	24.307	852.450	683.867
313.052	24.076	851.630	682.262
314.066	23.179	850.257	677.672
315.081	22.835	849.535	675.720
316.095	23.707	849.880	679.271
317.110	24.151	849.548	680.640
318.125	23.483	848.156	676.915
319.139	22.280	846.756	671.150
320.154	22.344	846.667	671.265
321.168	23.181	846.898	674.582
322.183	23.942	846.363	676.996
323.197	24.004	846.464	677.252
324.212	24.211	846.441	677.958
325.227	24.373	845.267	677.574
326.241	24.311	844.580	676.731
327.256	24.226	843.951	675.844
328.270	24.072	843.266	674.653
329.285	23.814	842.398	672.922
330.300	23.625	842.008	671.835
331.314	23.865	841.736	672.466
332.329	24.338	841.413	673.934
333.343	24.507	841.024	674.203
334.358	24.557	840.707	674.077
335.373	24.571	840.427	673.845
336.387	24.779	840.426	674.572
337.402	24.876	840.042	674.568
338.416	24.923	839.659	674.377
339.431	24.909	839.160	673.864
340.446	25.082	838.896	674.243
341.460	25.007	838.307	673.429
342.475	24.774	837.592	671.918
343.489	24.738	837.465	671.623
344.504	25.064	837.345	672.692
345.519	25.340	836.919	673.324
346.533	25.269	836.687	672.814
347.548	25.163	836.007	671.808
348.562	25.214	835.585	671.603
349.577	25.125	834.623	670.436
350.592	25.152	834.035	670.006
351.606	25.176	833.042	669.239
352.621	25.009	832.445	668.075
353.635	24.987	831.496	667.174
354.650	24.421	830.025	663.829
355.665	23.388	828.663	658.842
356.679	23.799	828.353	660.065
357.694	24.264	827.828	661.313
358.708	24.193	827.654	660.852
359.723	24.627	827.608	662.368
360.738	24.883	827.407	663.096
361.752	25.039	826.817	663.143
362.767	25.322	826.338	663.744
363.781	25.574	825.795	664.180
364.796	25.528	826.080	664.181
365.810	25.684	825.281	664.057
366.825	25.563	824.752	663.125
367.840	25.372	823.856	661.642
368.854	24.765	823.339	658.934
369.869	24.929	822.548	658.844
370.883	25.026	822.086	658.774
371.898	24.927	821.712	658.052
372.913	24.972	821.451	657.950
373.927	25.191	820.829	658.198
374.942	25.248	820.673	658.224
375.956	25.272	820.501	658.117
376.971	25.538	819.703	658.390
377.986	25.595	819.779	658.602
379.000	25.507	819.133	657.704
380.015	25.428	818.276	656.669
381.029	25.344	817.810	655.929
382.044	25.665	817.570	656.853
383.059	25.592	816.897	655.986
384.073	25.562	816.508	655.505
385.088	25.561	815.627	654.736
386.102	25.258	815.076	653.135
387.117	25.336	814.399	652.819
388.132	24.990	813.274	650.602
389.146	24.543	812.156	648.029
390.161	24.723	812.467	648.875
391.175	25.103	812.430	650.166
392.190	25.065	811.231	649.011
393.205	23.557	809.231	641.900
394.219	22.196	807.688	635.701
395.234	22.070	807.048	634.685
396.248	23.675	808.585	641.643
397.263	25.119	809.753	647.735
398.278	25.098	809.300	647.241
399.292	25.003	808.253	646.003
400.307	24.754	808.158	644.972
401.321	24.955	807.428	645.055
402.336	25.191	807.695	646.063
403.350	25.701	807.314	647.535
404.365	26.045	806.988	648.456
405.380	26.149	806.903	648.701
406.394	26.249	806.374	648.577
407.409	26.205	805.338	647.532
408.423	26.099	805.268	647.036
409.438	26.336	804.672	647.350
410.453	26.389	804.403	647.265
411.467	26.199	804.064	646.255
412.482	26.134	803.507	645.518
413.496	26.324	803.399	646.055
414.511	26.389	802.622	645.602
415.526	26.194	802.692	644.907
416.540	26.152	801.820	643.998
417.555	25.778	801.188	642.101
418.569	25.956	800.688	642.276
419.584	26.017	800.095	641.962
420.599	25.828	799.442	640.710
421.613	88.486	1248.249	1333.597
422.628	75.552	1313.667	1333.727
