DTS Sentinel unit serial number:	SN413079Multiplexer serial number:	ORYXHardware model number:	OX4-SRSoftware version number:	ORYX F/W v4.00 Oryx Data Collector v3.7.2.0data status	okinstallation	princeton_trtdifferential loss correction	single-endedforward channel	channel 1reverse channel	N/Adate	2019/09/18time	17:02:35forward acquisition time	60.00reverse acquisition time	0.00gamma	496.2192k internal	0.2293k external	0.2293temperature offset calibration	1.0004default loss term (dB/km)	0.3790temperature slope calibration	1.0000multiplexer offset coefficient	1.0000multiplexer slope coefficient	1.0000fibre end	0.00T internal ref (°C)	40.02T ext. ref 1 (°C)	0.86T ext. ref 2 (°C)	33.43length (m)	temperature (°C)	Stokes	anti-Stokes-747.200	-58.552	-0.492	0.219
-746.185	-200.000	0.015	0.523
-745.171	89.812	-0.116	0.132
-744.156	-28.173	-0.366	0.216
-743.142	-126.450	0.091	-0.014
-742.127	-56.918	-0.197	0.089
-741.112	-200.000	0.022	0.232
-740.098	-61.473	0.344	0.148
-739.083	-24.929	0.108	-0.066
-738.069	-200.000	-0.037	0.389
-737.054	-200.000	-0.032	0.256
-736.039	-160.280	-0.303	-0.017
-735.025	201.666	0.120	-0.189
-734.010	-129.365	-0.506	-0.072
-732.996	-67.766	0.273	-0.109
-731.981	-26.559	-0.293	-0.175
-730.966	-31.946	-0.053	-0.031
-729.952	258.474	-0.028	0.050
-728.937	-98.606	0.090	0.024
-727.923	-129.012	-0.240	-0.034
-726.908	-122.383	-0.085	0.014
-725.894	-200.000	0.014	0.120
-724.879	-138.258	-0.184	-0.021
-723.864	-136.235	-0.213	-0.025
-722.850	664.957	0.052	0.138
-721.835	123.729	-0.149	-0.192
-720.821	137.013	0.026	0.035
-719.806	-12.182	-0.120	0.080
-718.791	-200.000	-0.015	0.174
-717.777	286.449	0.069	-0.128
-716.762	800.000	-0.042	0.131
-715.748	180.733	0.092	0.138
-714.733	800.000	-0.062	0.220
-713.718	-200.000	-0.009	-0.355
-712.704	58.742	-0.124	-0.125
-711.689	-200.000	0.023	-0.183
-710.675	240.524	-0.044	-0.075
-709.660	-133.895	-0.348	-0.044
-708.645	-23.586	-0.257	-0.158
-707.631	595.863	0.147	-0.372
-706.616	-155.953	-0.437	-0.028
-705.602	-200.000	-0.011	0.211
-704.587	460.891	0.103	-0.236
-703.572	-200.000	-0.021	-0.209
-702.558	-200.000	-0.058	0.329
-701.543	54.985	0.268	0.265
-700.529	800.000	0.073	-0.227
-699.514	-43.774	-0.225	-0.116
-698.499	-200.000	0.004	-0.066
-697.485	97.042	0.259	0.303
-696.470	102.758	0.098	0.117
-695.456	28.842	0.243	-0.210
-694.441	-200.000	-0.040	-0.208
-693.426	51.034	-0.049	0.048
-692.412	96.483	-0.088	-0.103
-691.397	800.000	-0.048	0.211
-690.383	-200.000	0.042	-0.237
-689.368	-200.000	0.012	0.053
-688.354	514.233	0.126	0.300
-687.339	-200.000	0.068	0.336
-686.324	282.818	0.035	0.064
-685.310	-62.119	0.052	0.022
-684.295	52.316	0.186	0.181
-683.281	-112.178	0.130	0.027
-682.266	5.991	0.047	0.035
-681.251	-200.000	0.014	0.072
-680.237	-200.000	0.013	0.110
-679.222	800.000	0.059	-0.206
-678.208	-200.000	-0.019	-0.285
-677.193	-99.978	0.244	-0.062
-676.178	221.999	-0.151	0.248
-675.164	-26.735	-0.172	0.103
-674.149	16.737	-0.132	0.107
-673.135	-104.869	0.225	0.053
-672.120	474.277	-0.176	0.404
-671.105	118.951	-0.136	0.172
-670.091	-146.205	-0.255	-0.023
-669.076	-19.599	-0.167	-0.105
-668.062	225.649	0.098	-0.161
-667.047	86.391	0.113	-0.127
-666.032	-166.543	0.115	0.005
-665.018	-131.254	-0.216	-0.029
-664.003	33.070	-0.080	-0.071
-662.989	254.518	0.069	-0.120
-661.974	56.313	-0.288	-0.286
-660.959	357.582	0.053	0.108
-659.945	224.697	-0.056	-0.092
-658.930	100.892	0.088	-0.105
-657.916	193.371	0.133	-0.206
-656.901	462.835	-0.071	0.161
-655.886	-124.563	0.299	0.047
-654.872	686.453	-0.080	0.213
-653.857	35.782	0.182	0.163
-652.843	96.878	0.043	0.050
-651.828	-118.729	-0.296	0.053
-650.814	800.000	-0.125	0.368
-649.799	-136.035	-0.167	-0.020
-648.784	-41.064	0.184	0.097
-647.770	-124.248	-0.243	0.039
-646.755	112.925	-0.144	-0.178
-645.741	-9.354	-0.189	-0.129
-644.726	-3.134	-0.228	-0.162
-643.711	-127.888	-0.114	-0.017
-642.697	49.176	-0.139	0.133
-641.682	800.000	-0.086	0.352
-640.668	290.752	-0.090	0.166
-639.653	-42.107	0.255	-0.133
-638.638	-200.000	0.509	0.000
-637.624	-162.332	0.076	0.004
-636.609	65.475	0.156	-0.161
-635.595	103.546	-0.133	-0.159
-634.580	162.584	-0.115	-0.164
-633.565	-5.128	0.081	-0.057
-632.551	-175.460	-0.483	0.013
-631.536	-39.703	-0.196	-0.104
-630.522	-37.088	-0.187	-0.102
-629.507	-81.238	-0.261	-0.088
-628.492	-129.750	-0.337	0.047
-627.478	-88.765	0.349	0.106
-626.463	54.448	-0.065	-0.064
-625.449	-116.462	-0.077	0.014
-624.434	-9.025	-0.393	-0.268
-623.419	-1.673	-0.146	-0.105
-622.405	-0.425	0.058	-0.042
-621.390	-32.701	0.296	-0.168
-620.376	152.805	-0.163	0.227
-619.361	-200.000	-0.029	-0.216
-618.346	-128.524	0.081	0.012
-617.332	39.434	-0.107	-0.098
-616.317	-200.000	-0.010	-0.096
-615.303	-50.272	-0.158	0.076
-614.288	-200.000	0.023	-0.119
-613.273	-159.979	0.086	-0.005
-612.259	-14.120	0.374	-0.246
-611.244	-168.947	-0.078	0.003
-610.230	327.961	0.015	0.029
-609.215	-85.054	-0.234	-0.075
-608.201	-200.000	0.052	0.230
-607.186	185.534	-0.115	-0.174
-606.171	208.405	0.171	-0.272
-605.157	-200.000	-0.009	0.126
-604.142	-200.000	-0.024	0.258
-603.128	352.090	-0.088	-0.178
-602.113	-87.680	-0.084	0.026
-601.098	-134.206	-0.136	-0.017
-600.084	-28.883	-0.420	0.246
-599.069	-120.318	-0.090	-0.016
-598.055	127.055	-0.067	0.086
-597.040	-87.050	-0.346	0.107
-596.025	-200.000	-0.023	-0.116
-595.011	20.794	0.072	-0.059
-593.996	1.735	-0.160	0.117
-592.982	40.276	0.244	-0.224
-591.967	121.198	0.114	-0.145
-590.952	800.000	-0.070	-0.268
-589.938	79.058	-0.037	0.041
-588.923	3.446	-0.194	0.143
-587.909	-63.966	0.176	-0.073
-586.894	146.944	-0.100	-0.137
-585.879	52.230	0.191	-0.185
-584.865	-130.775	-0.361	0.049
-583.850	800.000	0.054	-0.211
-582.836	28.696	0.251	-0.216
-581.821	-148.526	0.033	0.003
-580.806	125.048	-0.224	-0.287
-579.792	-31.663	0.118	-0.067
-578.777	158.692	0.121	0.171
-577.763	800.000	-0.046	-0.147
-576.748	-200.000	0.022	-0.103
-575.733	2.039	-0.129	0.094
-574.719	-200.000	0.018	-0.099
-573.704	-150.896	0.258	-0.020
-572.690	-109.188	0.205	0.044
-571.675	41.785	-0.129	0.119
-570.661	-200.000	-0.025	-0.203
-569.646	150.365	-0.024	-0.033
-568.631	800.000	-0.029	0.085
-567.617	-57.310	-0.057	-0.025
-566.602	65.210	0.043	-0.044
-565.588	-145.636	0.010	0.001
-564.573	185.203	0.094	-0.141
-563.558	-200.000	0.038	-0.225
-562.544	-45.414	-0.330	-0.166
-561.529	800.000	0.055	-0.202
-560.515	265.446	0.196	-0.347
-559.500	-159.637	-0.218	-0.012
-558.485	-59.073	0.109	-0.048
-557.471	-45.591	0.129	0.065
-556.456	-200.000	-0.058	-0.376
-555.442	-200.000	-0.013	-0.101
-554.427	154.830	-0.040	0.056
-553.412	268.860	-0.062	0.110
-552.398	800.000	-0.071	0.235
-551.383	159.519	0.138	0.195
-550.369	-123.996	-0.260	0.042
-549.354	-133.932	-0.135	0.017
-548.339	260.303	0.158	-0.277
-547.325	-200.000	-0.014	-0.145
-546.310	82.934	-0.152	-0.167
-545.296	-200.000	-0.050	0.279
-544.281	-7.391	-0.158	0.109
-543.266	133.011	0.121	0.158
-542.252	-90.223	-0.248	0.073
-541.237	-26.864	-0.252	-0.150
-540.223	-19.304	-0.295	0.186
-539.208	214.575	-0.107	0.172
-538.193	-105.466	0.176	0.041
-537.179	-0.090	-0.206	-0.149
-536.164	205.730	0.185	-0.291
-535.150	190.210	-0.124	-0.189
-534.135	-123.865	-0.387	0.062
-533.121	-126.339	0.153	0.023
-532.106	800.000	-0.065	0.261
-531.091	-53.048	0.311	-0.145
-530.077	-77.123	0.126	0.045
-529.062	800.000	0.066	-0.195
-528.048	-61.167	0.261	0.112
-527.033	-99.287	0.260	0.067
-526.018	-200.000	-0.011	0.354
-525.004	-200.000	0.018	-0.088
-523.989	29.273	0.161	0.138
-522.975	85.441	-0.157	0.175
-521.960	101.896	-0.084	0.100
-520.945	538.658	-0.118	-0.283
-519.931	285.831	-0.095	0.174
-518.916	-200.000	-0.034	-0.185
-517.902	-200.000	-0.028	-0.389
-516.887	-200.000	0.039	0.383
-515.872	401.017	-0.102	0.218
-514.858	-25.219	-0.173	0.104
-513.843	800.000	-0.050	0.145
-512.829	-161.862	0.412	-0.021
-511.814	-27.234	-0.127	0.075
-510.799	-200.000	0.074	0.381
-509.785	79.940	0.237	-0.258
-508.770	-73.905	0.091	0.034
-507.756	133.692	0.188	-0.246
-506.741	-134.997	0.350	0.043
-505.726	667.934	0.160	0.418
-504.712	556.590	-0.020	-0.048
-503.697	-80.308	-0.266	-0.090
-502.683	-200.000	0.043	0.224
-501.668	-61.087	-0.218	0.093
-500.653	128.486	0.176	-0.228
-499.639	55.016	-0.090	0.088
-498.624	129.942	0.178	-0.231
-497.610	-111.455	-0.283	-0.058
-496.595	-17.421	0.214	-0.136
-495.581	800.000	-0.101	-0.333
-494.566	470.757	0.155	-0.352
-493.551	-77.449	0.278	0.098
-492.537	16.658	0.080	0.064
-491.522	800.000	-0.030	-0.119
-490.508	-155.377	-0.381	-0.025
-489.493	-34.518	-0.317	0.176
-488.478	23.120	-0.019	0.016
-487.464	-114.472	0.169	-0.033
-486.449	0.536	0.213	0.154
-485.435	750.857	0.107	-0.293
-484.420	-200.000	0.017	-0.250
-483.405	102.566	0.154	-0.182
-482.391	-200.000	-0.005	-0.083
-481.376	109.865	0.043	0.052
-480.362	-200.000	-0.079	0.395
-479.347	-89.455	-0.249	0.074
-478.332	-93.611	0.023	0.006
-477.318	-72.198	0.155	-0.058
-476.303	133.828	-0.166	0.218
-475.289	292.774	0.239	-0.440
-474.274	-13.990	-0.274	-0.179
-473.259	800.000	-0.044	0.165
-472.245	48.179	-0.158	0.149
-471.230	347.335	-0.191	0.380
-470.216	769.176	-0.062	-0.170
-469.201	-154.453	-0.337	0.023
-468.186	-200.000	-0.018	0.213
-467.172	-200.000	0.069	0.491
-466.157	-200.000	-0.081	0.366
-465.143	-200.000	-0.035	0.196
-464.128	-126.061	0.450	-0.068
-463.113	-200.000	-0.034	0.218
-462.099	-96.316	0.228	0.061
-461.084	-130.036	-0.302	-0.042
-460.070	-186.782	-0.049	-0.001
-459.055	-60.997	0.394	-0.168
-458.040	-148.413	0.444	0.037
-457.026	-61.691	-0.378	-0.160
-456.011	-19.547	0.186	-0.116
-454.997	-37.414	-0.114	-0.061
-453.982	800.000	-0.083	-0.358
-452.968	-62.947	0.096	-0.040
-451.953	800.000	-0.074	0.246
-450.938	800.000	0.118	0.353
-449.924	800.000	-0.041	0.131
-448.909	-136.207	0.103	0.012
-447.895	-96.212	0.198	0.053
-446.880	-92.093	0.110	-0.031
-445.865	95.117	-0.290	0.334
-444.851	-95.776	0.070	0.019
-443.836	-149.772	-0.039	-0.003
-442.822	-31.748	-0.076	0.043
-441.807	68.805	-0.093	-0.096
-440.792	155.106	-0.139	0.194
-439.778	549.806	0.101	-0.245
-438.763	185.230	-0.143	-0.215
-437.749	-50.149	0.278	0.133
-436.734	-61.623	-0.160	0.068
-435.719	63.007	0.301	0.304
-434.705	-200.000	-0.007	-0.285
-433.690	101.137	-0.098	0.115
-432.676	-125.016	0.187	0.029
-431.661	-134.108	0.398	-0.050
-430.646	398.745	0.114	-0.241
-429.632	-169.196	-0.161	-0.006
-428.617	800.000	0.130	0.497
-427.603	-200.000	-0.013	-0.077
-426.588	-129.609	0.221	0.031
-425.573	126.994	-0.271	-0.347
-424.559	-5.188	0.371	-0.258
-423.544	800.000	0.006	0.024
-422.530	67.311	-0.186	-0.191
-421.515	-107.171	-0.106	-0.024
-420.500	-200.000	0.012	0.325
-419.486	-200.000	0.049	0.450
-418.471	76.171	-0.075	0.081
-417.457	-126.717	-0.308	-0.046
-416.442	-38.496	-0.101	0.054
-415.428	-200.000	0.000	0.192
-414.413	-115.744	0.191	-0.036
-413.398	-108.322	-0.158	0.034
-412.384	-157.399	-0.256	-0.016
-411.369	259.959	0.122	0.213
-410.355	13.865	-0.226	0.177
-409.340	337.071	-0.103	0.202
-408.325	-27.798	0.213	0.125
-407.311	-200.000	-0.023	0.198
-406.296	-9.713	-0.046	-0.031
-405.282	-200.000	0.007	-0.161
-404.267	-23.914	0.056	-0.034
-403.252	-52.006	-0.087	0.041
-402.238	410.497	-0.085	-0.182
-401.223	-47.625	-0.203	-0.100
-400.209	-200.000	0.033	-0.302
-399.194	-200.000	-0.008	-0.072
-398.179	29.510	-0.233	0.200
-397.165	93.186	-0.113	-0.129
-396.150	11.905	-0.077	-0.059
-395.136	-200.000	-0.001	0.092
-394.121	242.523	-0.152	0.256
-393.106	-164.613	0.210	-0.010
-392.092	344.766	0.086	0.171
-391.077	-67.151	-0.133	0.053
-390.063	-28.185	-0.139	-0.081
-389.048	71.962	0.127	0.133
-388.033	-66.507	0.178	-0.071
-387.019	-200.000	-0.019	-0.183
-386.004	-198.299	-0.304	0.002
-384.990	327.462	-0.192	0.371
-383.975	-200.000	-0.021	0.203
-382.960	-79.255	0.162	0.055
-381.946	88.303	0.120	0.134
-380.931	286.942	-0.152	0.277
-379.917	227.437	0.026	0.042
-378.902	8.374	-0.043	0.033
-377.888	-130.027	0.241	0.033
-376.873	284.741	0.040	-0.072
-375.858	152.150	-0.176	-0.242
-374.844	-7.003	-0.258	-0.176
-373.829	357.753	-0.139	0.280
-372.815	-200.000	0.006	0.258
-371.800	59.173	-0.135	0.134
-370.785	108.127	0.138	-0.166
-369.771	-200.000	-0.022	-0.100
-368.756	14.655	-0.178	0.140
-367.742	186.719	0.301	-0.452
-366.727	-122.449	-0.193	-0.032
-365.712	-25.862	0.201	-0.119
-364.698	715.293	0.088	0.235
-363.683	107.042	0.301	0.360
-362.669	13.344	-0.207	-0.162
-361.654	85.174	0.212	-0.234
-360.639	85.368	0.150	0.166
-359.625	-200.000	0.004	0.121
-358.610	-189.866	0.109	0.001
-357.596	800.000	0.039	0.162
-356.581	175.272	-0.102	0.149
-355.566	-34.287	0.270	-0.149
-354.552	-200.000	-0.015	-0.277
-353.537	-56.589	0.180	-0.080
-352.523	-110.934	-0.340	-0.070
-351.508	5.881	0.207	0.154
-350.493	-128.708	0.172	0.024
-349.479	-200.000	-0.001	-0.325
-348.464	12.139	0.272	0.211
-347.450	-143.790	-0.011	-0.001
-346.435	-48.882	0.376	-0.181
-345.420	-11.017	-0.188	-0.125
-344.406	718.496	0.132	-0.354
-343.391	90.454	-0.169	0.191
-342.377	169.062	-0.050	-0.072
-341.362	374.078	-0.028	0.057
-340.348	-200.000	0.002	-0.208
-339.333	800.000	-0.050	-0.182
-338.318	44.204	-0.174	-0.161
-337.304	670.287	0.040	0.105
-336.289	-136.368	-0.212	-0.025
-335.275	166.275	-0.136	-0.194
-334.260	-34.686	0.078	-0.043
-333.245	12.807	-0.183	0.142
-332.231	-111.275	-0.267	-0.055
-331.216	-200.000	0.057	0.463
-330.202	783.450	0.089	0.244
-329.187	42.189	0.274	0.250
-328.172	-38.925	0.282	-0.149
-327.158	-82.544	-0.084	-0.027
-326.143	-43.426	-0.413	-0.210
-325.129	213.578	0.218	0.348
-324.114	-23.661	0.370	-0.223
-323.099	615.485	0.192	-0.483
-322.085	160.381	-0.095	-0.134
-321.070	-200.000	0.016	-0.210
-320.056	-200.000	0.007	0.101
-319.041	672.777	0.072	0.189
-318.026	412.240	0.079	0.169
-317.012	241.211	0.072	0.120
-315.997	110.661	-0.095	-0.114
-314.983	800.000	0.117	-0.333
-313.968	134.966	0.071	-0.093
-312.953	-200.000	0.014	-0.115
-311.939	-200.000	-0.048	-0.377
-310.924	-200.000	0.030	0.234
-309.910	-78.956	-0.254	-0.087
-308.895	-108.916	0.323	0.069
-307.880	-200.000	-0.006	0.286
-306.866	-200.000	0.007	0.277
-305.851	788.850	0.068	0.187
-304.837	-61.177	-0.152	0.065
-303.822	119.233	0.090	-0.112
-302.807	-200.000	-0.032	-0.453
-301.793	394.887	0.107	-0.225
-300.778	173.299	0.130	-0.189
-299.764	18.542	-0.245	-0.197
-298.749	-131.157	0.180	0.024
-297.735	60.833	-0.222	0.221
-296.720	-200.000	-0.010	0.226
-295.705	-200.000	0.007	-0.088
-294.691	-64.262	0.044	-0.018
-293.676	298.805	-0.195	0.360
-292.662	125.661	0.094	-0.120
-291.647	-79.366	0.173	0.059
-290.632	800.000	0.090	0.267
-289.618	89.119	-0.226	0.253
-288.603	6.261	0.189	0.141
-287.589	48.861	0.176	0.166
-286.574	-142.834	-0.288	0.028
-285.559	-200.000	-0.035	-0.305
-284.545	800.000	-0.063	-0.239
-283.530	-200.000	-0.039	0.254
-282.516	-29.161	-0.307	-0.177
-281.501	-200.000	0.027	-0.363
-280.486	-19.149	0.243	0.152
-279.472	15.173	0.106	-0.083
-278.457	764.141	-0.070	0.190
-277.443	457.166	0.099	-0.222
-276.428	22.088	0.296	-0.242
-275.413	122.549	0.155	0.194
-274.399	-80.031	0.240	0.081
-273.384	46.632	0.160	0.149
-272.370	79.522	-0.243	0.262
-271.355	800.000	0.058	0.186
-270.340	57.198	-0.131	0.128
-269.326	162.954	-0.114	0.161
-268.311	135.830	-0.189	-0.247
-267.297	800.000	-0.077	-0.292
-266.282	-41.180	0.213	-0.111
-265.267	128.260	0.146	0.187
-264.253	-200.000	-0.015	0.165
-263.238	800.000	-0.064	-0.273
-262.224	-200.000	-0.028	0.210
-261.209	-79.932	-0.040	0.013
-260.195	28.019	0.082	0.069
-259.180	800.000	-0.023	-0.095
-258.165	-36.641	0.106	0.057
-257.151	40.996	0.251	-0.227
-256.136	54.158	0.203	-0.196
-255.122	3.194	-0.235	-0.172
-254.107	65.983	-0.233	-0.237
-253.092	486.311	0.101	-0.232
-252.078	227.450	0.109	0.178
-251.063	-200.000	0.014	0.080
-250.049	38.612	0.265	0.237
-249.034	119.933	0.180	-0.224
-248.019	153.072	0.198	-0.272
-247.005	800.000	-0.037	-0.126
-245.990	-19.181	0.345	0.215
-244.976	190.255	0.035	-0.053
-243.961	160.226	0.282	-0.395
-242.946	-166.086	-0.427	-0.018
-241.932	23.913	-0.166	0.138
-240.917	-122.804	0.161	-0.026
-239.903	-88.610	-0.325	0.097
-238.888	8.723	0.344	0.260
-237.873	-200.000	-0.014	0.263
-236.859	-35.216	0.129	0.070
-235.844	-200.000	0.058	0.273
-234.830	100.563	0.178	-0.207
-233.815	-200.000	0.105	0.493
-232.800	-152.434	-0.141	0.010
-231.786	29.487	-0.183	-0.156
-230.771	800.000	-0.129	-0.398
-229.757	-145.828	-0.135	-0.012
-228.742	117.929	0.181	-0.223
-227.727	-28.228	-0.218	-0.126
-226.713	37.905	-0.163	-0.145
-225.698	-200.000	0.012	0.077
-224.684	790.163	-0.044	0.121
-223.669	453.246	0.079	0.175
-222.655	-200.000	-0.036	-0.376
-221.640	42.574	-0.111	-0.101
-220.625	-131.559	-0.048	0.006
-219.611	136.812	0.151	-0.198
-218.596	-12.429	0.148	0.097
-217.582	-40.335	-0.116	0.061
-216.567	-190.535	0.362	0.004
-215.552	132.878	0.220	-0.285
-214.538	-63.375	-0.263	0.109
-213.523	199.187	0.143	0.220
-212.509	-172.029	0.175	0.006
-211.494	331.453	0.178	-0.343
-210.479	800.000	-0.120	0.351
-209.465	800.000	-0.074	-0.231
-208.450	-96.960	0.261	-0.069
-207.436	4.726	-0.202	0.149
-206.421	113.344	0.148	-0.180
-205.406	561.962	0.119	0.288
-204.392	-200.000	0.011	0.124
-203.377	52.861	-0.161	-0.154
-202.363	-114.470	0.347	-0.067
-201.348	25.282	0.423	-0.352
-200.333	362.569	0.219	0.440
-199.319	394.809	-0.104	0.217
-198.304	92.697	-0.104	-0.118
-197.290	-200.000	0.004	0.413
-196.275	-90.687	-0.109	-0.031
-195.260	0.647	-0.038	0.027
-194.246	800.000	0.109	0.320
-193.231	800.000	0.031	-0.110
-192.217	83.183	-0.209	-0.228
-191.202	145.832	-0.208	0.280
-190.187	800.000	-0.089	0.248
-189.173	-104.442	-0.368	-0.085
-188.158	204.477	-0.031	0.049
-187.144	-33.805	0.345	0.190
-186.129	-200.000	0.028	-0.149
-185.114	-111.242	0.269	-0.055
-184.100	174.115	-0.037	-0.053
-183.085	800.000	0.105	-0.378
-182.071	-31.587	-0.131	-0.073
-181.056	-180.178	0.225	-0.005
-180.042	7.153	-0.125	0.093
-179.027	800.000	-0.041	0.165
-178.012	257.365	-0.197	0.339
-176.998	322.168	0.064	-0.123
-175.983	-200.000	0.035	0.166
-174.969	289.342	0.076	-0.138
-173.954	52.420	-0.317	0.302
-172.939	-200.000	-0.019	-0.114
-171.925	-200.000	0.013	-0.169
-170.910	-200.000	0.037	0.218
-169.896	-200.000	-0.002	0.466
-168.881	86.199	-0.060	0.066
-167.866	-37.352	-0.258	-0.138
-166.852	417.524	0.125	-0.267
-165.837	-100.834	-0.033	0.008
-164.823	-119.742	0.257	-0.044
-163.808	800.000	0.089	0.270
-162.793	136.711	-0.077	-0.101
-161.779	-28.068	0.061	0.035
-160.764	-200.000	-0.002	-0.021
-159.750	498.844	0.111	0.255
-158.735	-2.028	-0.160	0.112
-157.720	-200.000	-0.025	0.234
-156.706	75.566	-0.120	-0.127
-155.691	-82.090	0.309	-0.101
-154.677	-57.771	0.202	0.088
-153.662	61.792	-0.144	-0.143
-152.647	514.238	-0.168	0.392
-151.633	800.000	-0.054	-0.158
-150.618	-2.768	-0.093	0.065
-149.604	383.889	0.089	-0.182
-148.589	-200.000	-0.059	-0.263
-147.574	-200.000	-0.004	0.116
-146.560	33.513	-0.312	-0.271
-145.545	-85.448	0.043	0.013
-144.531	147.578	0.248	0.333
-143.516	20.150	-0.228	0.184
-142.502	44.869	0.102	0.094
-141.487	529.731	-0.091	-0.214
-140.472	37.663	0.156	0.139
-139.458	467.418	0.059	0.132
-138.443	-147.472	-0.111	0.009
-137.429	800.000	-0.061	-0.191
-136.414	39.148	0.060	-0.054
-135.399	56.819	-0.331	0.322
-134.385	-87.407	0.152	-0.046
-133.370	100.691	-0.271	-0.314
-132.356	128.300	0.069	0.088
-131.341	421.336	0.108	0.231
-130.326	-86.553	-0.031	0.009
-129.312	-46.570	-0.091	-0.045
-128.297	-82.437	0.404	0.131
-127.283	-49.336	0.407	0.194
-126.268	95.403	-0.077	-0.088
-125.253	-80.735	-0.343	-0.114
-124.239	-136.087	-0.086	-0.010
-123.224	-200.000	0.004	0.284
-122.210	-115.550	-0.413	0.078
-121.195	-66.848	0.176	0.070
-120.180	97.820	0.111	0.127
-119.166	-200.000	0.021	0.101
-118.151	-172.840	-0.239	-0.007
-117.137	156.476	0.221	-0.305
-116.122	-139.485	0.388	0.041
-115.107	-66.582	-0.482	0.191
-114.093	15.235	0.159	-0.125
-113.078	-200.000	0.054	0.270
-112.064	-3.225	-0.178	-0.124
-111.049	47.556	0.316	0.294
-110.034	-161.370	-0.296	0.015
-109.020	-185.464	0.403	0.006
-108.005	-200.000	-0.151	-0.001
-106.991	-57.042	-0.146	-0.064
-105.976	-144.426	0.093	0.009
-104.962	-44.184	-0.109	0.055
-103.947	-69.625	0.156	-0.060
-102.932	-159.888	-0.422	0.023
-101.918	-55.570	0.373	-0.167
-100.903	84.390	0.048	0.052
-99.889	80.652	0.168	-0.180
-98.874	-200.000	0.010	0.047
-97.859	190.336	-0.185	0.277
-96.845	-15.835	-0.279	-0.177
-95.830	800.000	0.004	0.018
-94.816	18.040	0.331	0.263
-93.801	43.477	0.232	0.212
-92.786	24.794	-0.307	0.254
-91.772	-97.042	-0.065	-0.017
-90.757	800.000	0.052	0.147
-89.743	800.000	0.079	0.228
-88.728	105.672	-0.230	-0.272
-87.713	-67.994	0.149	0.058
-86.699	-56.101	0.303	0.135
-85.684	101.610	0.192	-0.223
-84.670	-200.000	0.018	0.107
-83.655	800.000	-0.077	-0.316
-82.640	-181.858	-0.252	0.005
-81.626	309.858	-0.109	0.204
-80.611	-31.429	-0.203	0.114
-79.597	-75.175	-0.150	0.053
-78.582	-105.790	-0.214	0.048
-77.567	96.594	0.232	-0.265
-76.553	-118.007	0.305	0.054
-75.538	161.439	0.044	-0.062
-74.524	-200.000	-0.007	0.142
-73.509	-155.774	-0.347	0.022
-72.494	391.038	-0.134	-0.277
-71.480	-200.000	0.011	0.165
-70.465	-31.481	0.150	0.084
-69.451	800.000	-0.071	0.262
-68.436	800.000	0.065	-0.227
-67.422	586.504	-0.100	-0.245
-66.407	-146.449	-0.395	0.034
-65.392	800.000	-0.051	0.147
-64.378	34.107	0.316	0.274
-63.363	800.000	0.037	0.109
-62.349	189.494	-0.006	-0.009
-61.334	7.851	-0.616	-0.459
-60.319	409.861	0.155	0.327
-59.305	183.934	-0.311	-0.458
-58.290	800.000	0.328	0.958
-57.276	620.994	0.663	1.661
-56.261	-200.000	77.835	503.798
-55.246	493.978	1341.578	3065.430
-54.232	143.225	2592.800	3435.399
-53.217	112.065	2263.696	2723.592
-52.203	51.150	1709.705	1614.901
-51.188	43.478	1435.421	1306.424
-50.173	40.126	1389.744	1243.770
-49.159	57.529	1426.911	1387.999
-48.144	63.221	1445.375	1442.058
-47.130	43.919	1406.735	1282.910
-46.115	40.051	1390.472	1243.753
-45.100	39.846	1385.495	1237.966
-44.086	39.818	1383.067	1235.571
-43.071	39.822	1380.534	1233.284
-42.057	39.845	1378.423	1231.494
-41.042	39.875	1376.565	1229.973
-40.027	39.926	1375.353	1229.159
-39.013	39.868	1373.246	1226.868
-37.998	39.989	1370.819	1225.401
-36.984	40.019	1369.281	1224.160
-35.969	40.080	1367.069	1222.514
-34.954	40.071	1365.888	1221.355
-33.940	40.034	1364.705	1220.020
-32.925	40.091	1363.208	1218.985
-31.911	40.096	1361.364	1217.318
-30.896	40.135	1359.692	1216.013
-29.881	40.068	1359.053	1214.983
-28.867	40.131	1356.656	1213.179
-27.852	40.092	1355.285	1211.666
-26.838	40.048	1354.192	1210.368
-25.823	40.090	1352.289	1208.880
-24.809	40.131	1350.964	1207.897
-23.794	40.068	1349.771	1206.397
-22.779	40.139	1348.096	1205.282
-21.765	40.230	1346.367	1204.245
-20.750	40.095	1345.203	1202.334
-19.736	40.004	1344.150	1200.794
-18.721	39.996	1342.804	1199.493
-17.706	39.940	1341.921	1198.319
-16.692	39.990	1340.512	1197.316
-15.677	39.979	1339.671	1196.452
-14.663	39.950	1338.161	1194.881
-13.648	39.992	1337.147	1194.180
-12.633	39.954	1336.074	1192.944
-11.619	40.001	1334.937	1192.164
-10.604	39.995	1334.029	1191.273
-9.590	39.917	1333.427	1190.217
-8.575	39.890	1332.476	1189.157
-7.560	39.854	1331.578	1188.093
-6.546	39.887	1330.981	1187.707
-5.531	39.948	1329.997	1187.149
-4.517	40.046	1328.716	1186.552
-3.502	39.984	1327.610	1185.145
-2.487	39.948	1326.671	1184.041
-1.473	39.916	1322.815	1180.362
-0.458	38.392	1306.441	1156.699
0.556	32.553	1284.504	1104.364
1.571	26.730	1286.213	1071.430
2.586	24.320	1299.718	1068.167
3.600	22.487	1287.260	1046.953
4.615	16.264	1209.294	948.589
5.629	6.210	1126.588	830.762
6.644	1.199	1102.415	786.913
7.659	0.781	1099.809	782.818
8.673	0.735	1098.805	781.798
9.688	0.717	1097.914	781.002
10.702	0.923	1095.711	780.426
11.717	5.898	1102.937	811.274
12.731	14.217	1114.281	862.841
13.746	17.773	1118.245	884.303
14.761	17.414	1117.339	881.648
15.775	16.683	1115.444	876.292
16.790	15.738	1112.932	869.357
17.804	14.809	1111.748	863.556
18.819	14.516	1110.029	860.634
19.834	14.206	1109.263	858.364
20.848	14.026	1108.310	856.624
21.863	13.710	1107.617	854.386
22.877	13.610	1106.382	852.842
23.892	13.486	1105.872	851.736
24.907	13.651	1104.726	851.626
25.921	13.592	1104.334	850.943
26.936	13.717	1103.335	850.742
27.950	13.760	1102.145	849.970
28.965	13.687	1101.084	848.703
29.980	13.892	1099.350	848.336
30.994	13.843	1098.434	847.308
32.009	13.922	1097.248	846.719
33.023	13.799	1096.523	845.456
34.038	13.771	1095.993	844.831
35.053	13.750	1095.024	843.903
36.067	13.725	1094.143	843.024
37.082	13.753	1093.118	842.303
38.096	13.841	1092.479	842.182
39.111	13.835	1091.022	840.953
40.126	13.838	1090.312	840.346
41.140	13.571	1089.289	838.134
42.155	13.560	1088.402	837.319
43.169	13.552	1086.842	836.008
44.184	13.550	1085.988	835.265
45.199	13.593	1084.952	834.610
46.213	13.709	1083.338	833.879
47.228	13.640	1082.732	832.989
48.242	13.709	1081.551	832.354
49.257	13.726	1080.278	831.385
50.271	13.533	1079.918	830.072
51.286	13.766	1078.553	830.113
52.301	13.561	1077.824	828.455
53.315	13.603	1076.744	827.761
54.330	13.661	1075.244	826.820
55.344	13.640	1074.412	826.006
56.359	13.510	1073.929	824.914
57.374	13.546	1072.979	824.288
58.388	13.576	1071.868	823.510
59.403	13.497	1070.967	822.357
60.417	13.595	1069.912	821.956
61.432	13.379	1070.098	820.955
62.447	13.377	1068.862	819.924
63.461	13.423	1067.836	819.294
64.476	13.449	1066.920	818.648
65.490	13.557	1065.985	818.393
66.505	13.496	1065.217	817.428
67.520	13.521	1064.731	817.108
68.534	13.579	1063.857	816.651
69.549	13.521	1063.253	815.827
70.563	13.520	1062.499	815.170
71.578	13.482	1061.288	813.982
72.593	13.481	1060.612	813.389
73.607	13.451	1060.341	812.961
74.622	13.454	1059.316	812.118
75.636	13.361	1058.959	811.316
76.651	13.516	1057.967	811.243
77.666	13.369	1057.301	809.941
78.680	13.466	1056.430	809.676
79.695	13.599	1055.599	809.618
80.709	13.541	1055.413	809.121
81.724	13.636	1054.349	808.696
82.739	13.544	1053.711	807.685
83.753	13.683	1052.713	807.526
84.768	13.651	1052.141	806.861
85.782	13.687	1050.849	805.975
86.797	13.753	1049.979	805.558
87.812	13.652	1048.885	804.157
88.826	13.664	1048.003	803.469
89.841	13.732	1047.533	803.364
90.855	13.700	1046.504	802.351
91.870	13.881	1045.357	802.275
92.884	13.786	1045.047	801.506
93.899	13.839	1043.539	800.534
94.914	13.942	1042.650	800.280
95.928	13.787	1041.823	798.825
96.943	13.710	1041.052	797.796
97.957	13.704	1040.072	796.942
98.972	13.717	1039.706	796.657
99.987	13.817	1038.501	796.140
101.001	13.770	1037.763	795.278
102.016	13.755	1036.384	794.081
103.030	13.703	1035.959	793.435
104.045	13.830	1034.850	793.126
105.060	13.639	1034.219	791.658
106.074	13.613	1033.359	790.803
107.089	13.641	1032.534	790.237
108.103	13.624	1031.561	789.343
109.118	13.598	1030.605	788.416
110.133	13.607	1029.715	787.711
111.147	13.701	1028.553	787.196
112.162	13.635	1027.603	786.085
113.176	13.710	1026.844	785.795
114.191	13.698	1026.060	785.068
115.206	13.683	1025.524	784.515
116.220	13.633	1024.862	783.705
117.235	13.724	1023.086	782.708
118.249	13.682	1022.566	782.041
119.264	13.784	1021.983	782.004
120.279	13.670	1021.296	780.873
121.293	13.677	1020.518	780.243
122.308	13.666	1019.585	779.407
123.322	13.740	1018.227	778.651
124.337	13.715	1017.359	777.800
125.352	13.672	1016.436	776.824
126.366	13.604	1015.454	775.686
127.381	13.732	1014.118	775.195
128.395	13.545	1013.682	773.922
129.410	13.741	1012.049	773.517
130.424	13.698	1011.396	772.749
131.439	13.741	1010.583	772.263
132.454	13.796	1009.758	771.820
133.468	13.916	1008.693	771.493
134.483	13.840	1007.979	770.527
135.497	13.791	1007.199	769.634
136.512	13.844	1005.997	768.893
137.527	13.831	1005.317	768.245
138.541	13.752	1004.909	767.502
139.556	13.950	1004.090	767.724
140.570	13.985	1002.992	766.975
141.585	14.082	1001.736	766.395
142.600	13.962	1001.067	765.262
143.614	13.955	1000.342	764.608
144.629	13.993	999.406	763.999
145.643	13.946	998.776	763.237
146.658	13.968	997.797	762.522
147.673	13.838	996.784	761.084
148.687	13.779	995.896	760.069
149.702	13.839	994.487	759.200
150.716	13.871	994.161	759.029
151.731	13.867	993.137	758.163
152.746	13.817	992.595	757.453
153.760	13.844	992.193	757.204
154.775	13.965	991.382	757.068
155.789	13.924	990.173	755.890
156.804	14.074	989.705	756.151
157.819	13.858	989.466	754.917
158.833	13.958	988.957	754.916
159.848	13.934	987.756	753.827
160.862	13.996	986.496	753.079
161.877	13.966	985.418	752.054
162.892	13.981	984.405	751.282
163.906	13.919	983.694	750.393
164.921	13.950	982.728	749.726
165.935	14.020	981.827	749.290
166.950	14.049	981.017	748.735
167.964	13.962	980.161	747.624
168.979	14.026	979.242	747.145
169.994	14.131	978.249	746.793
171.008	14.073	977.566	745.946
172.023	14.079	977.055	745.516
173.037	14.147	976.191	745.097
174.052	14.074	975.434	744.124
175.067	14.040	975.053	743.616
176.081	13.951	974.659	742.853
177.096	14.115	973.666	742.764
178.110	14.131	973.052	742.301
179.125	14.149	972.636	741.998
180.140	14.164	972.118	741.601
181.154	14.075	971.790	740.891
182.169	14.149	971.007	740.556
183.183	14.226	970.222	740.236
184.198	14.336	969.230	739.900
185.213	14.267	968.650	739.086
186.227	14.297	967.932	738.606
187.242	14.387	967.078	738.287
188.256	14.228	966.829	737.330
189.271	14.403	965.878	737.314
190.286	14.264	965.246	736.149
191.300	14.184	964.418	735.103
192.315	14.150	963.716	734.353
193.329	14.177	963.550	734.280
194.344	14.226	962.758	733.827
195.359	14.283	961.932	733.383
196.373	14.299	961.101	732.754
197.388	14.304	961.260	732.833
198.402	14.510	960.368	732.993
199.417	14.513	959.487	732.269
200.432	14.547	959.024	731.999
201.446	14.546	958.383	731.442
202.461	14.631	957.530	731.100
203.475	14.576	957.614	730.855
204.490	14.531	956.722	729.915
205.504	14.658	955.679	729.611
206.519	14.480	955.342	728.510
207.534	14.520	954.476	727.959
208.548	14.596	953.365	727.378
209.563	14.585	952.755	726.803
210.577	14.653	952.178	726.595
211.592	14.626	951.679	726.029
212.607	14.792	950.405	725.715
213.621	14.556	950.213	724.478
214.636	14.656	949.545	724.340
215.650	14.807	948.055	723.796
216.665	14.821	947.604	723.448
217.680	14.756	947.014	722.652
218.694	14.669	946.532	721.843
219.709	14.770	945.712	721.591
220.723	14.781	944.974	721.011
221.738	14.787	943.946	720.187
222.753	14.818	943.252	719.728
223.767	14.899	942.762	719.638
224.782	14.933	942.025	719.161
225.796	14.976	941.593	718.953
226.811	14.916	941.162	718.299
227.826	14.879	940.559	717.618
228.840	14.789	939.714	716.524
229.855	14.834	938.777	715.941
230.869	14.923	937.831	715.534
231.884	14.871	937.102	714.691
232.899	14.915	936.366	714.258
233.913	14.817	935.611	713.200
234.928	14.774	935.043	712.520
235.942	14.964	934.096	712.543
236.957	14.815	933.857	711.666
237.972	14.880	933.617	711.696
238.986	14.906	932.606	710.970
240.001	14.894	931.977	710.379
241.015	14.965	931.212	710.035
242.030	15.086	930.603	710.022
243.045	14.960	929.987	708.952
244.059	15.044	929.350	708.761
245.074	15.055	928.699	708.248
246.088	15.071	927.925	707.661
247.103	15.036	927.567	707.177
248.117	15.013	926.914	706.524
249.132	15.166	926.333	706.662
250.147	15.263	925.476	706.353
251.161	15.289	924.535	705.684
252.176	15.282	924.019	705.199
253.190	15.260	923.450	704.608
254.205	15.392	922.850	704.640
255.220	15.248	922.433	703.656
256.234	15.294	921.939	703.412
257.249	15.404	920.690	702.856
258.263	15.307	919.963	701.834
259.278	15.368	919.465	701.647
260.293	15.418	919.061	701.486
261.307	15.456	918.475	701.135
262.322	15.413	917.750	700.341
263.336	15.574	916.816	700.239
264.351	15.446	916.043	699.051
265.366	15.567	915.247	698.885
266.380	15.578	914.821	698.545
267.395	15.605	914.082	698.031
268.409	15.632	912.885	697.167
269.424	15.660	912.338	696.804
270.439	15.497	911.708	695.585
271.453	15.617	911.269	695.684
272.468	15.568	910.777	695.044
273.482	15.588	910.071	694.528
274.497	15.636	909.661	694.351
275.512	15.689	908.655	693.739
276.526	15.580	908.886	693.406
277.541	15.576	908.061	692.698
278.555	15.779	907.216	692.829
279.570	15.783	906.425	692.180
280.585	15.706	905.800	691.323
281.599	15.772	904.798	690.772
282.614	15.749	904.095	690.078
283.628	15.880	903.299	689.945
284.643	15.719	903.382	689.290
285.657	15.718	902.553	688.590
286.672	15.794	901.623	688.131
287.687	15.724	901.241	687.494
288.701	15.802	900.557	687.227
289.716	15.965	899.893	687.326
290.730	15.912	899.349	686.632
291.745	15.858	898.754	685.898
292.760	15.904	897.798	685.297
293.774	15.978	897.500	685.308
294.789	15.948	896.813	684.603
295.803	15.968	895.978	683.985
296.818	15.886	895.761	683.425
297.833	16.025	894.536	682.993
298.847	16.132	893.902	682.883
299.862	16.049	893.212	681.958
300.876	16.142	892.371	681.631
301.891	15.924	892.569	680.841
302.906	16.157	891.674	681.040
303.920	16.089	891.229	680.367
304.935	16.326	890.084	680.385
305.949	16.235	889.620	679.606
306.964	16.168	889.485	679.173
307.979	16.195	888.173	678.220
308.993	16.260	888.070	678.341
310.008	16.274	887.582	677.965
311.022	16.259	886.658	677.138
312.037	16.318	886.170	676.944
313.052	16.254	885.253	675.928
314.066	16.165	885.201	675.469
315.081	16.233	884.573	675.205
316.095	16.253	883.866	674.686
317.110	16.289	883.295	674.331
318.125	16.272	882.843	673.859
319.139	16.218	882.536	673.352
320.154	16.213	881.319	672.341
321.168	16.274	881.507	672.668
322.183	16.307	880.875	672.259
323.197	16.225	880.673	671.718
324.212	16.256	879.908	671.198
325.227	16.342	878.853	670.675
326.241	16.358	878.450	670.374
327.256	16.336	878.189	670.028
328.270	16.246	877.211	668.865
329.285	16.380	876.667	668.920
330.300	16.344	875.875	668.116
331.314	16.356	875.339	667.697
332.329	16.488	875.056	667.943
333.343	16.420	874.448	667.149
334.358	16.523	874.129	667.255
335.373	16.624	873.444	667.071
336.387	16.513	873.594	666.687
337.402	16.453	873.101	666.016
338.416	16.446	872.755	665.665
339.431	16.603	872.167	665.778
340.446	16.598	871.604	665.269
341.460	16.635	871.452	665.238
342.475	16.667	871.033	664.986
343.489	16.741	870.203	664.585
344.504	16.789	869.659	664.299
345.519	16.730	869.299	663.731
346.533	16.677	869.306	663.471
347.548	16.733	868.451	662.979
348.562	16.729	867.702	662.336
349.577	16.694	867.502	661.985
350.592	16.784	866.622	661.606
351.606	16.752	865.550	660.604
352.621	16.743	865.012	660.100
353.635	16.808	864.317	659.766
354.650	16.842	863.921	659.538
355.665	16.810	863.367	658.933
356.679	16.841	862.262	658.151
357.694	16.687	862.437	657.626
358.708	16.976	861.496	657.972
359.723	16.870	860.621	656.835
360.738	17.007	859.934	656.785
361.752	16.997	859.558	656.401
362.767	17.006	859.159	656.073
363.781	17.001	858.176	655.244
364.796	17.088	857.795	655.231
365.810	17.155	857.121	654.916
366.825	17.104	857.102	654.649
367.840	17.194	856.509	654.483
368.854	17.069	856.328	653.807
369.869	17.116	855.921	653.618
370.883	17.085	855.250	652.929
371.898	17.252	854.908	653.250
372.913	17.100	854.781	652.512
373.927	17.156	854.241	652.259
374.942	17.233	853.239	651.730
375.956	17.268	852.855	651.512
376.971	17.433	852.627	651.912
377.986	17.400	852.100	651.325
379.000	17.414	851.399	650.785
380.015	17.342	851.245	650.336
381.029	17.320	850.569	649.678
382.044	17.395	850.061	649.517
383.059	17.434	849.533	649.205
384.073	17.438	848.848	648.641
385.088	17.480	847.850	647.979
386.102	17.349	847.372	647.058
387.117	17.287	847.093	646.553
388.132	17.478	846.794	646.995
389.146	17.343	845.816	645.677
390.161	17.523	845.291	645.902
391.175	17.426	845.207	645.412
392.190	17.529	844.258	645.021
393.205	17.354	844.248	644.292
394.219	17.417	843.728	644.079
395.234	17.472	843.139	643.779
396.248	17.534	842.546	643.503
397.263	17.396	842.253	642.701
398.278	17.396	842.088	642.519
399.292	17.398	841.636	642.125
400.307	17.448	840.722	641.559
401.321	17.511	840.373	641.473
402.336	17.435	840.071	640.901
403.350	17.651	839.646	641.334
404.365	17.576	839.146	640.612
405.380	17.618	838.811	640.457
406.394	17.633	838.298	640.063
407.409	17.629	837.812	639.622
408.423	17.784	837.190	639.672
409.438	17.624	836.682	638.627
410.453	17.778	836.825	639.257
411.467	17.804	836.104	638.748
412.482	17.788	835.514	638.180
413.496	17.879	835.162	638.196
414.511	17.835	835.032	637.876
415.526	17.968	834.250	637.719
416.540	17.856	833.823	636.917
417.555	17.937	833.047	636.571
418.569	17.984	832.761	636.469
419.584	18.024	832.126	636.076
420.599	17.909	832.169	635.625
421.613	94.847	1271.812	1387.317
422.628	81.958	1335.866	1387.464
