DTS Sentinel unit serial number:	SN413079Multiplexer serial number:	ORYXHardware model number:	OX4-SRSoftware version number:	ORYX F/W v4.00 Oryx Data Collector v3.7.2.0data status	okinstallation	princeton_trtdifferential loss correction	single-endedforward channel	channel 1reverse channel	N/Adate	2019/09/15time	22:14:36forward acquisition time	60.00reverse acquisition time	0.00gamma	496.2192k internal	0.2330k external	0.2330temperature offset calibration	0.9966default loss term (dB/km)	0.3790temperature slope calibration	1.0000multiplexer offset coefficient	1.0000multiplexer slope coefficient	1.0000fibre end	0.00T internal ref (°C)	29.50T ext. ref 1 (°C)	8.64T ext. ref 2 (°C)	22.88length (m)	temperature (°C)	Stokes	anti-Stokes-747.200	800.000	-0.073	0.230
-746.185	-200.000	-0.008	0.391
-745.171	33.699	0.044	-0.039
-744.156	-132.738	0.289	-0.037
-743.142	53.502	0.178	-0.172
-742.127	800.000	0.065	0.187
-741.112	357.886	-0.102	0.206
-740.098	-114.812	0.179	0.034
-739.083	-200.000	-0.025	0.223
-738.069	-200.000	0.059	0.274
-737.054	-93.769	0.138	0.038
-736.039	164.407	-0.086	-0.122
-735.025	-200.000	-0.020	0.172
-734.010	177.408	-0.106	0.155
-732.996	127.578	-0.138	0.177
-731.981	134.108	0.140	-0.182
-730.966	-162.676	-0.335	0.017
-729.952	-157.525	-0.309	0.019
-728.937	165.684	-0.284	0.404
-727.923	-182.216	-0.263	-0.005
-726.908	-200.000	0.003	-0.132
-725.894	800.000	-0.117	-0.326
-724.879	-33.579	-0.220	-0.122
-723.864	-75.093	-0.239	-0.086
-722.850	-132.764	0.115	-0.015
-721.835	67.405	-0.180	-0.185
-720.821	167.115	-0.276	-0.394
-719.806	-24.835	-0.113	0.068
-718.791	179.894	0.170	-0.250
-717.777	228.882	-0.166	-0.273
-716.762	-167.750	-0.338	-0.013
-715.748	-200.000	-0.065	0.430
-714.733	-45.151	0.380	0.190
-713.718	-200.000	0.000	0.366
-712.704	-200.000	-0.011	0.081
-711.689	-165.579	-0.205	-0.009
-710.675	163.248	-0.261	-0.369
-709.660	273.979	-0.176	-0.312
-708.645	-150.708	0.142	-0.011
-707.631	137.104	-0.234	0.307
-706.616	-200.000	0.005	-0.447
-705.602	-200.000	-0.002	-0.098
-704.587	139.327	-0.177	-0.234
-703.572	-91.056	0.232	0.067
-702.558	-200.000	-0.060	0.354
-701.543	78.564	0.118	-0.127
-700.529	-32.894	0.094	0.052
-699.514	-69.797	-0.048	-0.018
-698.499	-54.144	-0.133	0.061
-697.485	-166.133	-0.248	-0.011
-696.470	-200.000	0.050	-0.383
-695.456	9.635	-0.069	-0.052
-694.441	-49.736	0.102	-0.049
-693.426	-21.753	-0.284	-0.174
-692.412	-200.000	0.041	0.274
-691.397	800.000	-0.051	-0.198
-690.383	-200.000	0.052	-0.242
-689.368	-34.432	-0.197	0.108
-688.354	-94.834	-0.130	-0.035
-687.339	103.282	-0.136	0.160
-686.324	440.338	-0.119	-0.260
-685.310	25.173	-0.165	0.138
-684.295	-200.000	-0.011	-0.128
-683.281	-162.737	-0.150	0.007
-682.266	0.211	0.250	-0.179
-681.251	-115.048	-0.056	-0.011
-680.237	-200.000	-0.005	0.326
-679.222	81.842	-0.184	0.201
-678.208	-177.620	0.204	0.005
-677.193	28.007	0.137	0.116
-676.178	292.028	0.095	0.173
-675.164	800.000	0.031	-0.101
-674.149	27.902	-0.046	0.039
-673.135	645.309	-0.035	0.089
-672.120	-7.134	-0.113	-0.077
-671.105	326.823	0.046	-0.089
-670.091	-200.000	0.208	0.000
-669.076	390.274	0.060	-0.125
-668.062	-200.000	-0.005	0.220
-667.047	-200.000	0.010	-0.196
-666.032	-37.398	0.088	0.047
-665.018	257.095	0.049	0.084
-664.003	-200.000	-0.038	0.324
-662.989	-61.507	0.029	0.012
-661.974	674.209	-0.029	0.076
-660.959	6.947	0.116	-0.087
-659.945	-88.338	-0.238	-0.071
-658.930	475.217	-0.066	0.150
-657.916	588.375	0.013	0.033
-656.901	-49.366	0.100	0.048
-655.886	-200.000	-0.018	0.209
-654.872	402.977	-0.074	0.155
-653.857	800.000	0.032	-0.142
-652.843	-200.000	-0.016	-0.125
-651.828	-6.391	0.146	0.100
-650.814	72.206	-0.164	-0.171
-649.799	172.677	0.050	-0.072
-648.784	-49.481	0.107	0.051
-647.770	-111.466	-0.318	0.065
-646.755	-200.000	0.040	0.291
-645.741	6.759	0.256	0.191
-644.726	-79.050	0.032	-0.011
-643.711	-200.000	0.020	0.200
-642.697	-151.632	-0.291	-0.022
-641.682	206.410	-0.032	0.050
-640.668	-143.214	-0.210	0.020
-639.653	184.076	0.086	0.127
-638.638	800.000	-0.035	0.102
-637.624	-121.813	0.292	-0.048
-636.609	-154.623	0.090	0.006
-635.595	35.220	-0.215	0.189
-634.580	7.257	-0.241	-0.180
-633.565	-184.033	-0.128	-0.002
-632.551	11.025	0.138	-0.105
-631.536	269.866	0.035	-0.062
-630.522	9.910	-0.328	-0.249
-629.507	-200.000	0.015	0.234
-628.492	-38.135	0.177	-0.094
-627.478	18.956	0.118	0.095
-626.463	110.388	0.170	-0.204
-625.449	-137.797	0.228	-0.026
-624.434	311.327	-0.039	0.074
-623.419	200.291	0.089	-0.138
-622.405	-135.117	-0.049	0.006
-621.390	-94.051	-0.075	0.021
-620.376	247.390	0.150	-0.253
-619.361	32.934	-0.122	0.106
-618.346	-107.742	0.258	-0.056
-617.332	-200.000	-0.080	-0.425
-616.317	-115.361	0.179	0.034
-615.303	2.934	0.083	0.060
-614.288	233.703	0.043	-0.070
-613.273	800.000	-0.046	-0.127
-612.259	-4.405	-0.229	-0.159
-611.244	517.820	0.103	0.242
-610.230	125.753	-0.121	0.153
-609.215	-200.000	0.039	-0.206
-608.201	-200.000	-0.004	0.162
-607.186	105.025	0.118	-0.139
-606.171	66.545	-0.063	0.064
-605.157	-200.000	0.009	-0.058
-604.142	-114.874	0.293	-0.056
-603.128	-126.094	0.149	-0.022
-602.113	238.377	0.153	-0.254
-601.098	-60.912	-0.259	0.110
-600.084	-200.000	0.023	0.350
-599.069	456.638	-0.098	-0.217
-598.055	22.010	0.059	0.049
-597.040	21.354	-0.089	0.073
-596.025	-200.000	-0.058	0.307
-595.011	-163.053	-0.131	0.006
-593.996	-168.926	-0.124	-0.005
-592.982	16.763	-0.240	-0.190
-591.967	149.584	0.188	0.255
-590.952	-82.981	0.251	-0.081
-589.938	-200.000	0.019	-0.371
-588.923	90.267	0.127	-0.142
-587.909	-107.787	-0.117	0.025
-586.894	800.000	-0.130	-0.368
-585.879	45.101	-0.273	0.252
-584.865	-116.661	0.344	0.063
-583.850	-92.529	0.058	-0.016
-582.836	-159.003	-0.336	0.019
-581.821	-40.349	0.131	-0.068
-580.806	-200.000	-0.003	0.024
-579.792	99.343	-0.168	-0.194
-578.777	465.258	-0.157	0.352
-577.763	-119.308	-0.192	0.033
-576.748	-200.000	-0.024	0.230
-575.733	17.821	-0.116	-0.092
-574.719	-15.644	0.121	0.077
-573.704	-200.000	-0.047	0.000
-572.690	6.160	-0.204	0.151
-571.675	-98.785	0.207	-0.053
-570.661	-119.532	-0.042	-0.007
-569.646	-99.543	0.252	-0.063
-568.631	-200.000	-0.004	-0.206
-567.617	800.000	0.081	-0.330
-566.602	198.429	-0.171	0.262
-565.588	-120.749	-0.317	0.054
-564.573	-14.182	-0.225	-0.145
-563.558	210.300	0.024	-0.038
-562.544	-50.551	-0.183	-0.086
-561.529	800.000	0.116	-0.322
-560.515	373.037	-0.162	-0.330
-559.500	800.000	0.072	0.306
-558.485	-200.000	0.006	0.173
-557.471	150.515	0.136	-0.185
-556.456	-200.000	-0.038	0.195
-555.442	-66.042	-0.285	0.114
-554.427	800.000	0.088	-0.256
-553.412	-200.000	-0.054	-0.240
-552.398	-2.806	0.027	-0.019
-551.383	494.207	-0.038	-0.088
-550.369	-80.849	0.284	0.094
-549.354	-17.826	0.201	-0.126
-548.339	-200.000	-0.019	0.165
-547.325	800.000	0.147	-0.554
-546.310	-5.053	-0.149	0.103
-545.296	-86.414	-0.173	0.053
-544.281	-200.000	-0.056	0.553
-543.266	-34.758	0.220	0.120
-542.252	125.569	-0.370	-0.467
-541.237	228.046	-0.183	-0.298
-540.223	-165.271	0.052	0.002
-539.208	-19.095	0.032	-0.020
-538.193	153.152	-0.114	0.156
-537.179	174.806	-0.057	0.082
-536.164	19.754	-0.119	0.096
-535.150	-200.000	0.034	-0.212
-534.135	386.237	-0.136	-0.280
-533.121	377.426	0.037	-0.076
-532.106	110.420	-0.099	-0.119
-531.091	719.186	0.061	0.163
-530.077	800.000	-0.124	-0.368
-529.062	-97.391	0.432	-0.112
-528.048	505.026	0.080	0.186
-527.033	-200.000	0.008	-0.292
-526.018	-200.000	0.008	0.147
-525.004	-138.174	-0.476	0.053
-523.989	-200.000	0.036	-0.205
-522.975	413.999	-0.079	-0.168
-521.960	199.341	-0.168	-0.257
-520.945	400.600	-0.028	0.059
-519.931	-55.605	-0.223	-0.100
-518.916	-200.000	0.028	-0.298
-517.902	-200.000	-0.039	0.296
-516.887	145.767	-0.200	0.268
-515.872	-35.037	-0.132	0.072
-514.858	-200.000	0.010	0.268
-513.843	-77.420	-0.061	0.021
-512.829	-112.532	-0.206	0.041
-511.814	-200.000	-0.055	-0.274
-510.799	-173.643	-0.207	0.006
-509.785	-75.040	-0.418	-0.149
-508.770	-117.368	0.369	-0.067
-507.756	99.072	-0.046	-0.053
-506.741	-56.347	0.183	0.081
-505.726	800.000	0.059	0.164
-504.712	-129.540	-0.239	-0.033
-503.697	35.752	-0.133	0.116
-502.683	-16.162	0.187	0.118
-501.668	41.682	-0.129	0.117
-500.653	27.993	0.276	-0.232
-499.639	-50.815	0.183	0.086
-498.624	-51.992	-0.245	0.114
-497.610	800.000	-0.178	-0.544
-496.595	10.886	0.252	-0.192
-495.581	-200.000	-0.008	0.295
-494.566	-163.016	0.054	0.003
-493.551	-200.000	-0.040	-0.209
-492.537	-200.000	-0.013	0.063
-491.522	-200.000	-0.001	0.324
-490.508	168.182	0.111	0.157
-489.493	800.000	0.095	0.370
-488.478	65.651	0.163	0.164
-487.464	75.627	0.175	0.184
-486.449	77.947	-0.077	-0.081
-485.435	55.407	0.112	0.108
-484.420	-95.174	0.252	-0.068
-483.405	-200.000	-0.073	0.329
-482.391	479.402	0.066	-0.150
-481.376	-161.278	-0.288	-0.015
-480.362	-94.607	-0.491	0.133
-479.347	-175.079	-0.410	-0.011
-478.332	705.492	-0.014	-0.037
-477.318	44.419	0.091	-0.083
-476.303	190.906	-0.162	-0.243
-475.289	-122.675	0.177	-0.029
-474.274	69.632	0.217	0.223
-473.259	-47.780	0.161	0.078
-472.245	-200.000	-0.003	0.105
-471.230	800.000	-0.033	-0.096
-470.216	-56.220	-0.110	0.049
-469.201	24.542	-0.187	-0.154
-468.186	800.000	0.034	0.096
-467.172	137.822	-0.154	-0.201
-466.157	-98.097	-0.319	-0.082
-465.143	54.542	-0.249	-0.239
-464.128	-27.867	-0.196	-0.113
-463.113	-200.000	0.017	0.152
-462.099	603.786	0.090	0.223
-461.084	45.911	0.124	0.114
-460.070	-49.800	0.355	0.168
-459.055	-77.841	-0.076	0.026
-458.040	800.000	0.018	0.068
-457.026	-136.403	-0.065	-0.007
-456.011	152.684	0.170	-0.232
-454.997	59.431	-0.056	-0.055
-453.982	-63.894	0.125	0.051
-452.968	109.972	-0.215	-0.256
-451.953	82.602	-0.254	0.275
-450.938	-200.000	0.005	-0.107
-449.924	-53.681	-0.073	0.033
-448.909	-47.186	0.158	-0.077
-447.895	433.780	0.134	-0.289
-446.880	800.000	-0.070	0.211
-445.865	50.119	-0.245	-0.230
-444.851	1.958	0.055	-0.040
-443.836	-22.519	0.150	-0.090
-442.822	519.661	-0.076	-0.178
-441.807	224.102	-0.335	0.538
-440.792	-200.000	-0.040	-0.334
-439.778	-4.420	0.287	0.197
-438.763	-200.000	0.028	-0.242
-437.749	-82.890	0.195	-0.063
-436.734	-115.939	-0.224	0.042
-435.719	-200.000	-0.037	-0.202
-434.705	-70.734	0.298	0.112
-433.690	-88.959	0.119	-0.035
-432.676	-109.580	-0.137	0.029
-431.661	-124.065	0.188	-0.029
-430.646	161.027	0.018	0.025
-429.632	-200.000	0.033	-0.556
-428.617	-8.456	0.076	0.051
-427.603	237.423	-0.113	0.186
-426.588	800.000	-0.045	-0.153
-425.573	-159.120	0.322	0.018
-424.559	800.000	0.049	-0.156
-423.544	416.891	0.078	0.166
-422.530	-85.340	0.434	0.135
-421.515	-200.000	0.019	0.110
-420.500	-73.550	-0.030	-0.011
-419.486	-89.807	0.048	0.014
-418.471	-114.820	-0.213	-0.040
-417.457	-78.534	0.137	-0.047
-416.442	-105.669	0.367	-0.083
-415.428	-200.000	0.008	-0.153
-414.413	78.001	-0.178	-0.189
-413.398	-200.000	0.038	-0.426
-412.384	57.722	-0.217	0.211
-411.369	66.070	-0.112	-0.113
-410.355	2.958	0.242	-0.175
-409.340	53.526	-0.106	0.101
-408.325	126.966	0.061	0.076
-407.311	-200.000	0.007	0.198
-406.296	415.634	-0.056	0.118
-405.282	13.026	-0.108	-0.083
-404.267	157.662	0.126	0.174
-403.252	800.000	0.051	0.151
-402.238	225.382	0.176	-0.284
-401.223	32.730	-0.050	-0.043
-400.209	-84.121	-0.168	-0.053
-399.194	150.986	-0.087	0.118
-398.179	-2.975	-0.199	-0.138
-397.165	261.686	-0.038	0.066
-396.150	-137.388	0.052	0.006
-395.136	130.876	0.118	-0.150
-394.121	127.830	0.237	-0.299
-393.106	-50.127	-0.253	-0.119
-392.092	25.070	-0.246	0.202
-391.077	-200.000	0.042	-0.212
-390.063	23.161	0.051	0.041
-389.048	96.127	-0.190	-0.215
-388.033	260.431	-0.095	-0.163
-387.019	-92.534	0.098	-0.027
-386.004	152.254	0.070	-0.095
-384.990	20.362	-0.241	-0.194
-383.975	677.918	0.158	-0.408
-382.960	51.392	-0.111	-0.104
-381.946	-79.037	0.182	0.061
-380.931	-200.000	-0.006	0.325
-379.917	125.064	-0.194	-0.243
-378.902	495.728	-0.157	-0.357
-377.888	6.539	0.254	0.187
-376.873	800.000	0.012	-0.036
-375.858	-89.140	-0.119	-0.035
-374.844	-15.393	0.240	-0.152
-373.829	-200.000	-0.067	0.313
-372.815	49.874	-0.151	0.141
-371.800	538.762	0.025	0.060
-370.785	-95.788	0.112	-0.030
-369.771	800.000	0.020	0.079
-368.756	247.116	0.130	-0.217
-367.742	-62.585	-0.222	0.091
-366.727	-64.958	-0.300	0.120
-365.712	-32.602	0.341	0.188
-364.698	800.000	0.059	0.205
-363.683	114.417	0.092	0.111
-362.669	159.526	-0.086	0.119
-361.654	-149.252	0.164	0.013
-360.639	-200.000	0.002	-0.224
-359.625	-72.407	-0.309	-0.114
-358.610	5.555	-0.093	-0.068
-357.596	-200.000	0.021	-0.148
-356.581	-41.625	-0.119	0.061
-355.566	4.482	0.145	0.105
-354.552	365.717	-0.230	-0.460
-353.537	-0.121	-0.233	-0.165
-352.523	-78.935	0.046	0.016
-351.508	117.150	-0.091	0.111
-350.493	75.352	-0.193	0.201
-349.479	-200.000	-0.037	-0.189
-348.464	130.556	-0.091	0.115
-347.450	719.301	-0.128	0.337
-346.435	38.499	-0.171	-0.151
-345.420	-87.328	-0.394	0.118
-344.406	800.000	0.038	-0.124
-343.391	117.952	-0.082	0.100
-342.377	-200.000	-0.077	-0.389
-341.362	-200.000	0.006	0.315
-340.348	-55.848	0.244	-0.108
-339.333	265.149	-0.187	0.322
-338.318	226.899	-0.128	-0.207
-337.304	107.227	0.211	-0.249
-336.289	310.926	-0.143	0.266
-335.275	202.203	0.090	-0.137
-334.260	-66.819	0.196	-0.077
-333.245	-95.165	0.376	-0.101
-332.231	800.000	-0.089	0.351
-331.216	-53.752	0.417	-0.189
-330.202	-200.000	0.025	-0.228
-329.187	-125.313	0.261	-0.039
-328.172	353.109	-0.147	0.288
-327.158	203.249	-0.113	-0.173
-326.143	-70.670	-0.140	0.053
-325.129	-200.000	0.011	-0.211
-324.114	357.229	-0.157	0.310
-323.099	603.407	0.117	0.288
-322.085	175.204	-0.127	0.182
-321.070	-149.993	-0.095	-0.007
-320.056	699.902	-0.035	0.092
-319.041	55.029	-0.058	0.056
-318.026	-200.000	-0.015	0.100
-317.012	-97.294	0.226	0.058
-315.997	-152.157	0.146	0.010
-314.983	-99.234	0.356	-0.089
-313.968	795.874	0.109	0.296
-312.953	-154.392	0.289	-0.019
-311.939	200.059	-0.133	-0.202
-310.924	-200.000	0.032	0.302
-309.910	800.000	0.084	0.303
-308.895	709.223	-0.051	0.133
-307.880	263.929	0.047	0.080
-306.866	-63.318	-0.151	-0.061
-305.851	327.602	-0.135	0.257
-304.837	148.017	0.079	-0.106
-303.822	278.807	-0.105	-0.184
-302.807	-200.000	-0.006	0.570
-301.793	-200.000	-0.036	0.286
-300.778	-197.054	-0.243	-0.002
-299.764	-125.868	0.209	0.031
-298.749	800.000	-0.070	-0.205
-297.735	1.524	-0.049	-0.035
-296.720	516.818	0.193	-0.447
-295.705	-126.221	-0.105	-0.015
-294.691	-55.985	0.100	0.044
-293.676	-86.437	-0.180	-0.055
-292.662	134.052	0.114	-0.146
-291.647	-88.898	-0.153	0.045
-290.632	667.139	-0.027	0.068
-289.618	151.701	-0.253	0.341
-288.603	121.333	0.069	-0.084
-287.589	13.020	0.082	0.063
-286.574	-200.000	-0.001	0.204
-285.559	-103.695	-0.370	-0.086
-284.545	278.677	0.128	0.226
-283.530	-34.722	0.151	-0.082
-282.516	-19.406	0.436	-0.267
-281.501	800.000	0.014	-0.043
-280.486	-117.894	-0.042	-0.007
-279.472	154.813	0.455	-0.618
-278.457	17.851	0.161	0.127
-277.443	-11.788	0.275	0.178
-276.428	800.000	0.068	0.284
-275.413	249.008	0.141	0.236
-274.399	-200.000	0.012	0.217
-273.384	217.098	0.151	-0.237
-272.370	26.207	0.263	-0.217
-271.355	-140.049	0.259	0.027
-270.340	80.583	0.195	0.207
-269.326	190.047	0.067	0.099
-268.311	121.026	0.218	-0.269
-267.297	275.808	0.147	0.258
-266.282	184.856	0.072	-0.105
-265.267	-182.176	-0.342	0.006
-264.253	102.617	0.103	-0.119
-263.238	69.016	0.216	-0.219
-262.224	-200.000	-0.001	-0.135
-261.209	-87.185	-0.022	-0.007
-260.195	508.131	0.095	-0.217
-259.180	-200.000	-0.002	0.030
-258.165	-126.681	-0.338	-0.049
-257.151	17.100	0.192	0.150
-256.136	-23.913	-0.140	0.083
-255.122	-30.250	0.055	-0.031
-254.107	-115.595	0.206	-0.038
-253.092	-50.703	-0.209	-0.097
-252.078	-50.999	0.178	0.083
-251.063	-200.000	-0.018	0.086
-250.049	-200.000	-0.028	-0.320
-249.034	-86.410	-0.300	0.091
-248.019	-200.000	0.007	-0.050
-247.005	-200.000	-0.059	0.266
-245.990	-200.000	-0.020	-0.095
-244.976	150.386	-0.130	0.175
-243.961	-83.790	-0.141	0.044
-242.946	800.000	-0.169	-0.500
-241.932	-9.314	-0.208	-0.137
-240.917	-124.110	0.358	0.055
-239.903	151.319	-0.144	0.193
-238.888	432.211	-0.067	0.144
-237.873	-200.000	-0.005	0.581
-236.859	-22.284	0.222	-0.133
-235.844	66.965	0.167	0.168
-234.830	377.214	0.095	0.192
-233.815	-113.881	-0.253	0.048
-232.800	-119.606	0.272	0.046
-231.786	67.029	-0.107	0.108
-230.771	-23.170	0.237	0.141
-229.757	-1.266	-0.348	0.243
-228.742	-130.013	-0.259	0.035
-227.727	-39.425	0.153	0.079
-226.713	20.873	-0.227	-0.182
-225.698	800.000	0.115	0.419
-224.684	64.761	0.023	-0.023
-223.669	83.652	-0.119	0.128
-222.655	84.488	0.233	-0.251
-221.640	370.465	-0.161	-0.322
-220.625	800.000	-0.010	-0.034
-219.611	85.566	0.085	0.092
-218.596	412.335	0.097	0.204
-217.582	-190.490	0.215	-0.002
-216.567	-200.000	0.004	0.091
-215.552	-112.306	-0.115	-0.023
-214.538	472.484	0.110	0.245
-213.523	-65.599	0.126	-0.050
-212.509	800.000	-0.099	0.307
-211.494	74.484	0.171	0.177
-210.479	762.422	-0.073	0.195
-209.465	-200.000	-0.030	0.214
-208.450	-163.850	-0.141	0.006
-207.436	90.001	0.172	-0.190
-206.421	139.143	0.199	0.258
-205.406	-108.165	0.352	0.075
-204.392	-51.206	-0.290	-0.134
-203.377	-25.656	0.183	-0.107
-202.363	-148.636	0.158	0.013
-201.348	-126.977	-0.512	0.074
-200.333	-40.196	-0.250	0.128
-199.319	560.357	0.116	0.277
-198.304	800.000	0.059	-0.181
-197.290	27.129	0.327	-0.271
-196.275	-70.939	-0.136	-0.051
-195.260	-200.000	-0.026	0.114
-194.246	-193.243	0.177	-0.002
-193.231	-200.000	-0.025	-0.235
-192.217	57.942	-0.156	0.151
-191.202	-200.000	0.010	-0.152
-190.187	-200.000	0.022	0.352
-189.173	272.631	0.183	0.319
-188.158	-176.991	-0.242	-0.006
-187.144	-77.645	-0.352	0.120
-186.129	-118.691	0.318	-0.055
-185.114	-89.917	-0.271	0.078
-184.100	73.728	0.141	0.145
-183.085	-34.457	0.161	-0.087
-182.071	791.715	-0.017	-0.046
-181.056	-138.714	0.054	-0.006
-180.042	58.187	0.296	0.286
-179.027	-106.685	-0.367	-0.080
-178.012	-200.000	-0.021	-0.094
-176.998	-15.974	0.140	0.088
-175.983	3.786	0.227	0.164
-174.969	299.911	0.063	0.114
-173.954	590.310	0.105	-0.256
-172.939	-200.000	0.057	-0.273
-171.925	108.973	0.237	-0.279
-170.910	-57.435	0.244	0.106
-169.896	-90.748	-0.066	0.019
-168.881	-172.613	-0.180	0.006
-167.866	137.937	-0.209	0.269
-166.852	-200.000	-0.011	-0.261
-165.837	-97.414	0.020	-0.005
-164.823	-119.310	0.280	-0.048
-163.808	800.000	-0.066	0.194
-162.793	-102.655	0.155	0.036
-161.779	-130.972	-0.184	-0.024
-160.764	-200.000	-0.017	-0.122
-159.750	179.164	-0.039	0.056
-158.735	176.552	0.112	0.160
-157.720	-175.837	0.188	-0.005
-156.706	-54.169	0.337	-0.151
-155.691	-102.051	0.163	0.039
-154.677	461.104	-0.017	-0.038
-153.662	-161.313	0.056	-0.003
-152.647	38.745	-0.298	-0.261
-151.633	-65.184	-0.117	0.046
-150.618	1.383	0.034	0.024
-149.604	-102.234	-0.094	-0.022
-148.589	30.912	-0.137	0.115
-147.574	20.203	0.401	-0.319
-146.560	-200.000	-0.043	0.192
-145.545	-105.753	0.236	0.052
-144.531	-126.210	-0.101	-0.015
-143.516	-123.558	-0.356	-0.056
-142.502	-49.273	-0.207	0.097
-141.487	-200.000	0.044	0.302
-140.472	193.521	-0.211	0.314
-139.458	130.065	0.148	-0.187
-138.443	277.989	0.145	0.253
-137.429	619.968	0.155	0.382
-136.414	-88.771	-0.124	-0.036
-135.399	-13.956	-0.105	-0.067
-134.385	-200.000	0.040	-0.286
-133.370	-3.394	-0.125	-0.086
-132.356	15.206	0.248	0.191
-131.341	-120.773	-0.032	0.005
-130.326	682.553	-0.145	0.372
-129.312	-13.579	-0.208	-0.132
-128.297	-38.297	0.114	0.059
-127.283	-200.000	0.054	0.257
-126.268	-79.755	-0.207	0.069
-125.253	414.465	-0.198	-0.414
-124.239	309.906	-0.149	0.275
-123.224	134.820	-0.084	0.108
-122.210	800.000	0.074	-0.238
-121.195	-196.723	-0.121	-0.001
-120.180	-112.461	0.229	0.045
-119.166	88.501	0.119	0.130
-118.151	-45.654	0.326	0.159
-117.137	337.595	-0.118	-0.226
-116.122	-63.349	-0.302	-0.122
-115.107	-155.468	-0.308	0.020
-114.093	-200.000	0.028	-0.321
-113.078	408.295	-0.048	-0.101
-112.064	121.659	-0.140	0.172
-111.049	-0.529	0.275	-0.192
-110.034	-73.356	-0.057	-0.021
-109.020	31.185	0.268	0.226
-108.005	-186.894	-0.354	0.005
-106.991	252.131	0.176	0.294
-105.976	42.135	-0.050	-0.044
-104.962	240.261	0.203	0.332
-103.947	800.000	0.031	0.108
-102.932	-155.249	0.577	-0.037
-101.918	10.416	-0.126	-0.094
-100.903	-110.332	0.138	-0.028
-99.889	-200.000	0.039	-0.253
-98.874	-130.985	-0.231	0.030
-97.859	27.536	-0.040	-0.033
-96.845	-51.795	0.100	0.046
-95.830	-65.999	-0.088	-0.035
-94.816	-74.848	-0.079	0.028
-93.801	-1.353	0.288	-0.199
-92.786	800.000	-0.091	0.266
-91.772	800.000	0.070	0.239
-90.757	123.323	0.053	0.066
-89.743	-38.656	0.113	0.059
-88.728	4.688	-0.091	0.065
-87.713	-53.817	-0.134	-0.060
-86.699	-200.000	-0.078	-0.442
-85.684	88.724	-0.164	-0.179
-84.670	132.531	-0.187	0.236
-83.655	302.693	-0.067	-0.121
-82.640	121.269	0.085	-0.104
-81.626	-79.462	-0.066	-0.022
-80.611	-200.000	0.061	-0.356
-79.597	-81.934	0.167	-0.054
-78.582	286.745	0.040	0.071
-77.567	-89.507	0.083	0.024
-76.553	-200.000	-0.008	0.123
-75.538	228.303	-0.181	-0.289
-74.524	-109.227	-0.113	0.024
-73.509	228.787	-0.071	-0.113
-72.494	-29.365	0.249	-0.140
-71.480	-182.087	-0.293	-0.005
-70.465	-54.834	-0.226	-0.100
-69.451	-24.012	-0.024	0.014
-68.436	32.667	-0.111	-0.094
-67.422	443.596	-0.127	-0.273
-66.407	411.180	0.067	-0.139
-65.392	800.000	0.119	-0.412
-64.378	-200.000	0.000	-0.092
-63.363	-79.479	0.296	0.098
-62.349	-93.213	-0.126	-0.034
-61.334	27.770	-1.030	-0.850
-60.319	283.589	0.280	0.493
-59.305	800.000	-0.420	-1.188
-58.290	592.843	0.529	1.282
-57.276	249.761	0.878	1.461
-56.261	-200.000	109.451	614.389
-55.246	460.723	1487.983	3249.724
-54.232	148.548	2658.535	3519.543
-53.217	106.853	2139.562	2489.312
-52.203	40.806	1594.213	1409.220
-51.188	32.886	1338.185	1135.452
-50.173	29.935	1298.255	1084.270
-49.159	55.422	1352.688	1282.663
-48.144	55.972	1367.711	1300.134
-47.130	33.103	1323.386	1124.004
-46.115	29.671	1305.391	1088.505
-45.100	29.424	1300.636	1083.044
-44.086	29.286	1298.605	1080.504
-43.071	29.334	1296.310	1078.834
-42.057	29.252	1293.858	1076.266
-41.042	29.418	1291.818	1075.498
-40.027	29.416	1290.330	1074.206
-39.013	29.474	1288.535	1073.005
-37.998	29.354	1287.103	1071.074
-36.984	29.451	1285.219	1070.023
-35.969	29.542	1283.375	1068.973
-34.954	29.545	1281.416	1067.317
-33.940	29.558	1280.269	1066.395
-32.925	29.510	1279.103	1065.102
-31.911	29.619	1277.802	1064.606
-30.896	29.609	1276.407	1063.343
-29.881	29.575	1275.051	1061.975
-28.867	29.589	1273.751	1060.934
-27.852	29.566	1272.364	1059.605
-26.838	29.571	1270.705	1058.207
-25.823	29.687	1269.668	1057.965
-24.809	29.569	1268.287	1056.101
-23.794	29.630	1266.926	1055.270
-22.779	29.579	1265.871	1054.058
-21.765	29.576	1264.358	1052.743
-20.750	29.541	1263.253	1051.581
-19.736	29.430	1262.156	1049.993
-18.721	29.485	1260.560	1048.936
-17.706	29.451	1259.560	1047.871
-16.692	29.504	1258.023	1046.853
-15.677	29.470	1257.400	1046.100
-14.663	29.492	1256.277	1045.245
-13.648	29.383	1255.596	1044.023
-12.633	29.552	1253.999	1043.609
-11.619	29.313	1253.523	1041.822
-10.604	29.464	1252.410	1041.706
-9.590	29.534	1251.332	1041.162
-8.575	29.473	1250.786	1040.321
-7.560	29.513	1249.545	1039.474
-6.546	29.344	1249.248	1038.234
-5.531	29.284	1248.607	1037.323
-4.517	29.456	1246.915	1036.841
-3.502	29.429	1246.516	1036.317
-2.487	29.417	1245.531	1035.391
-1.473	29.362	1241.047	1031.316
-0.458	27.713	1225.670	1009.381
0.556	22.159	1208.426	969.496
1.571	18.185	1214.036	951.840
2.586	17.217	1228.764	957.847
3.600	17.208	1217.284	948.763
4.615	15.140	1151.289	886.317
5.629	10.909	1083.864	813.217
6.644	8.766	1066.521	789.580
7.659	8.709	1063.970	787.341
8.673	8.544	1062.934	785.693
9.688	8.541	1061.099	784.252
10.702	8.733	1059.589	784.006
11.717	11.412	1062.496	799.226
12.731	15.599	1067.955	823.833
13.746	17.521	1070.471	835.133
14.761	17.361	1069.814	833.763
15.775	16.396	1067.073	826.833
16.790	15.336	1065.383	820.268
17.804	14.616	1063.877	815.518
18.819	14.268	1062.559	812.741
19.834	13.942	1061.514	810.277
20.848	13.528	1061.209	807.954
21.863	13.459	1059.879	806.534
22.877	13.298	1059.378	805.296
23.892	13.257	1058.498	804.360
24.907	13.268	1057.760	803.777
25.921	13.247	1056.787	802.867
26.936	13.314	1055.537	802.172
27.950	13.495	1053.986	801.800
28.965	13.491	1052.795	800.803
29.980	13.586	1051.171	799.951
30.994	13.644	1049.952	799.237
32.009	13.643	1049.181	798.570
33.023	13.563	1047.764	797.040
34.038	13.574	1046.487	796.051
35.053	13.420	1045.975	794.848
36.067	13.475	1045.075	794.358
37.082	13.431	1044.673	793.773
38.096	13.421	1044.077	793.202
39.111	13.614	1043.011	793.245
40.126	13.490	1041.488	791.423
41.140	13.376	1040.366	789.958
42.155	13.266	1039.231	788.502
43.169	13.246	1038.248	787.589
44.184	13.279	1037.003	786.735
45.199	13.199	1036.094	785.595
46.213	13.426	1035.076	785.832
47.228	13.409	1034.136	784.965
48.242	13.439	1032.823	784.043
49.257	13.424	1032.143	783.388
50.271	13.481	1031.431	783.048
51.286	13.523	1030.403	782.397
52.301	13.544	1028.936	781.309
53.315	13.340	1028.415	779.885
54.330	13.356	1027.412	779.129
55.344	13.212	1027.060	778.114
56.359	13.255	1026.138	777.553
57.374	13.375	1024.861	777.077
58.388	13.299	1023.719	775.788
59.403	13.270	1023.120	775.131
60.417	13.295	1022.346	774.589
61.432	13.197	1021.519	773.438
62.447	13.172	1020.999	772.857
63.461	13.256	1019.721	772.217
64.476	13.195	1019.057	771.359
65.490	13.280	1018.026	770.905
66.505	13.241	1017.687	770.398
67.520	13.268	1016.997	769.935
68.534	13.358	1016.052	769.572
69.549	13.262	1015.273	768.467
70.563	13.207	1014.999	767.937
71.578	13.244	1014.172	767.411
72.593	13.087	1012.810	765.588
73.607	13.267	1011.964	765.713
74.622	13.162	1011.862	765.083
75.636	13.196	1011.310	764.752
76.651	13.081	1010.497	763.538
77.666	13.200	1009.728	763.439
78.680	13.053	1009.544	762.555
79.695	13.259	1008.302	762.498
80.709	13.144	1007.927	761.620
81.724	13.232	1007.119	761.344
82.739	13.321	1006.761	761.416
83.753	13.450	1005.499	760.989
84.768	13.452	1004.754	760.367
85.782	13.567	1003.885	760.168
86.797	13.546	1003.155	759.455
87.812	13.467	1001.558	757.816
88.826	13.377	1001.011	756.924
89.841	13.444	1000.439	756.728
90.855	13.487	999.547	756.183
91.870	13.515	998.823	755.698
92.884	13.598	997.532	755.033
93.899	13.515	997.079	754.247
94.914	13.671	995.788	753.913
95.928	13.537	995.835	753.271
96.943	13.620	994.618	752.662
97.957	13.467	993.489	751.046
98.972	13.595	992.690	750.953
99.987	13.538	991.952	750.073
101.001	13.455	990.967	748.886
102.016	13.508	990.441	748.660
103.030	13.498	989.420	747.780
104.045	13.489	988.650	747.090
105.060	13.473	987.597	746.158
106.074	13.291	986.924	744.761
107.089	13.432	985.364	744.155
108.103	13.385	984.223	743.012
109.118	13.443	983.646	742.773
110.133	13.211	982.865	741.075
111.147	13.341	982.420	741.257
112.162	13.396	981.162	740.488
113.176	13.427	980.674	740.194
114.191	13.462	979.644	739.510
115.206	13.475	978.851	738.902
116.220	13.420	978.397	738.248
117.235	13.403	976.967	737.030
118.249	13.274	977.195	736.563
119.264	13.468	975.760	736.277
120.279	13.378	975.384	735.528
121.293	13.412	974.047	734.605
122.308	13.260	973.608	733.537
123.322	13.302	972.541	732.853
124.337	13.334	971.516	732.155
125.352	13.307	970.334	731.082
126.366	13.284	969.028	729.934
127.381	13.256	968.375	729.253
128.395	13.328	967.338	728.723
129.410	13.273	966.715	727.948
130.424	13.449	965.575	727.797
131.439	13.390	964.998	727.041
132.454	13.445	964.159	726.585
133.468	13.490	963.319	726.085
134.483	13.466	962.399	725.221
135.497	13.423	961.708	724.451
136.512	13.466	960.907	723.971
137.527	13.483	960.114	723.385
138.541	13.482	959.214	722.638
139.556	13.500	958.806	722.344
140.570	13.607	958.094	722.207
141.585	13.556	957.130	721.199
142.600	13.674	955.993	720.788
143.614	13.699	955.355	720.355
144.629	13.634	954.677	719.497
145.643	13.698	953.747	719.010
146.658	13.459	952.781	717.182
147.673	13.522	951.816	716.665
148.687	13.497	950.953	715.842
149.702	13.512	950.136	715.231
150.716	13.507	949.417	714.606
151.731	13.631	948.395	714.305
152.746	13.656	947.548	713.711
153.760	13.685	946.757	713.180
154.775	13.713	946.541	713.075
155.789	13.664	946.046	712.425
156.804	13.661	945.189	711.703
157.819	13.800	944.597	711.794
158.833	13.772	944.113	711.244
159.848	13.968	942.892	711.101
160.862	13.781	942.002	709.566
161.877	13.621	941.281	708.279
162.892	13.690	939.943	707.502
163.906	13.620	939.321	706.676
164.921	13.600	938.644	706.018
165.935	13.707	937.718	705.714
166.950	13.647	937.328	705.101
167.964	13.695	935.810	704.101
168.979	13.607	935.041	703.087
169.994	13.669	934.618	702.971
171.008	13.849	933.605	702.909
172.023	13.799	933.100	702.256
173.037	13.781	932.478	701.646
174.052	13.819	931.472	700.991
175.067	13.762	930.913	700.268
176.081	13.599	930.304	699.059
177.096	13.619	930.161	698.972
178.110	13.770	928.998	698.675
179.125	13.826	928.562	698.519
180.140	13.814	928.197	698.133
181.154	13.764	927.596	697.407
182.169	13.884	926.931	697.351
183.183	14.076	926.283	697.607
184.198	14.071	925.278	696.767
185.213	14.022	924.823	696.160
186.227	13.984	924.390	695.611
187.242	14.040	923.769	695.317
188.256	14.064	922.938	694.732
189.271	14.091	921.828	693.947
190.286	13.867	921.467	692.677
191.300	13.790	920.406	691.497
192.315	13.735	919.848	690.790
193.329	13.748	919.717	690.682
194.344	13.655	919.191	689.839
195.359	13.959	917.943	690.106
196.373	13.947	917.835	689.915
197.388	14.220	917.211	690.517
198.402	14.220	917.101	690.374
199.417	14.311	916.150	689.972
200.432	14.128	915.718	688.831
201.446	14.215	915.142	688.693
202.461	14.388	914.726	689.036
203.475	14.350	914.303	688.500
204.490	14.198	913.170	686.959
205.504	14.242	912.301	686.425
206.519	14.184	911.670	685.651
207.534	14.269	910.844	685.317
208.548	14.222	910.470	684.781
209.563	14.168	910.091	684.214
210.577	14.174	909.157	683.476
211.592	14.299	908.857	683.705
212.607	14.470	907.087	683.013
213.621	14.389	907.017	682.567
214.636	14.502	906.040	682.236
215.650	14.422	905.645	681.551
216.665	14.445	904.902	681.023
217.680	14.539	904.608	681.128
218.694	14.563	903.733	680.506
219.709	14.466	903.034	679.521
220.723	14.416	902.862	679.129
221.738	14.421	901.707	678.222
222.753	14.619	901.149	678.549
223.767	14.603	900.894	678.229
224.782	14.705	899.863	677.809
225.796	14.598	899.686	677.179
226.811	14.526	899.149	676.425
227.826	14.566	898.116	675.748
228.840	14.674	897.309	675.521
229.855	14.609	896.542	674.619
230.869	14.575	895.685	673.776
231.884	14.455	895.231	672.893
232.899	14.557	894.391	672.613
233.913	14.463	893.758	671.697
234.928	14.541	892.866	671.281
235.942	14.537	892.364	670.831
236.957	14.503	892.149	670.472
237.972	14.619	891.551	670.427
238.986	14.565	890.930	669.686
240.001	14.505	890.482	669.047
241.015	14.547	889.578	668.479
242.030	14.637	888.928	668.292
243.045	14.605	888.560	667.828
244.059	14.603	887.963	667.311
245.074	14.863	886.890	667.486
246.088	14.683	886.400	666.339
247.103	14.849	885.737	666.442
248.117	14.807	885.605	666.117
249.132	15.047	884.696	666.329
250.147	14.901	884.545	665.577
251.161	14.983	883.712	665.219
252.176	15.136	882.760	665.049
253.190	15.134	882.070	664.463
254.205	15.026	881.738	663.725
255.220	15.160	880.905	663.569
256.234	15.094	880.532	662.971
257.249	15.031	879.930	662.209
258.263	15.082	879.159	661.769
259.278	15.239	878.072	661.513
260.293	15.183	877.976	661.162
261.307	15.328	877.256	661.135
262.322	15.280	876.356	660.206
263.336	15.392	875.783	660.158
264.351	15.220	875.705	659.365
265.366	15.356	874.767	659.134
266.380	15.305	874.331	658.548
267.395	15.309	873.489	657.870
268.409	15.262	872.819	657.123
269.424	15.355	871.597	656.508
270.439	15.335	870.969	655.898
271.453	15.277	870.503	655.262
272.468	15.292	870.188	655.027
273.482	15.320	869.388	654.478
274.497	15.416	868.513	654.134
275.512	15.289	868.267	653.397
276.526	15.303	867.898	653.114
277.541	15.503	867.079	653.218
278.555	15.374	866.587	652.290
279.570	15.530	866.074	652.451
280.585	15.515	865.418	651.843
281.599	15.443	864.452	650.776
282.614	15.438	863.620	650.074
283.628	15.468	863.334	649.918
284.643	15.550	862.493	649.543
285.657	15.502	861.910	648.860
286.672	15.379	861.522	648.037
287.687	15.483	860.763	647.811
288.701	15.441	860.405	647.320
289.716	15.451	859.851	646.885
290.730	15.483	859.424	646.629
291.745	15.571	858.249	646.027
292.760	15.748	857.795	646.311
293.774	15.693	857.632	645.920
294.789	15.542	857.114	644.893
295.803	15.588	855.873	644.075
296.818	15.565	855.431	643.599
297.833	15.585	854.677	643.052
298.847	15.640	853.837	642.573
299.862	15.745	853.550	642.701
300.876	15.838	852.850	642.470
301.891	15.648	852.750	641.613
302.906	15.812	852.139	641.725
303.920	15.761	851.820	641.232
304.935	15.941	850.891	641.162
305.949	15.894	850.339	640.509
306.964	15.836	849.855	639.869
307.979	15.894	849.409	639.694
308.993	16.089	848.609	639.776
310.008	15.928	847.958	638.620
311.022	16.026	847.352	638.476
312.037	15.980	846.461	637.577
313.052	15.702	846.249	636.309
314.066	15.867	845.674	636.443
315.081	15.825	845.082	635.781
316.095	15.815	844.261	635.072
317.110	15.769	844.070	634.696
318.125	15.915	843.343	634.646
319.139	15.862	843.207	634.286
320.154	15.907	842.619	633.957
321.168	15.996	841.580	633.452
322.183	15.810	841.510	632.645
323.197	15.919	841.064	632.666
324.212	15.901	840.487	632.107
325.227	15.969	839.990	631.933
326.241	15.895	839.519	631.245
327.256	15.864	838.865	630.582
328.270	16.067	837.812	630.493
329.285	15.883	837.671	629.641
330.300	15.986	836.922	629.411
331.314	16.037	836.162	628.972
332.329	16.149	835.817	629.075
333.343	16.236	835.701	629.258
334.358	16.235	835.392	628.965
335.373	16.169	835.152	628.483
336.387	16.195	834.669	628.160
337.402	16.118	834.487	627.679
338.416	16.300	833.724	627.728
339.431	16.275	833.403	627.338
340.446	16.423	832.847	627.412
341.460	16.436	832.826	627.392
342.475	16.426	832.230	626.848
343.489	16.407	831.668	626.300
344.504	16.488	830.826	625.911
345.519	16.481	830.803	625.811
346.533	16.586	830.087	625.604
347.548	16.468	829.641	624.777
348.562	16.355	829.478	624.180
349.577	16.433	828.544	623.712
350.592	16.348	827.927	622.877
351.606	16.342	827.477	622.460
352.621	16.439	826.360	621.922
353.635	16.433	826.172	621.707
354.650	16.486	825.366	621.240
355.665	16.456	824.873	620.702
356.679	16.435	824.099	619.988
357.694	16.593	823.236	619.862
358.708	16.538	822.721	619.219
359.723	16.436	822.446	618.582
360.738	16.548	821.571	618.279
361.752	16.608	821.447	618.351
362.767	16.676	820.438	617.784
363.781	16.648	820.146	617.410
364.796	16.827	819.511	617.528
365.810	16.751	819.533	617.215
366.825	16.826	819.220	617.197
367.840	16.897	818.139	616.584
368.854	16.862	817.983	616.286
369.869	16.747	817.500	615.449
370.883	16.880	816.924	615.443
371.898	16.892	816.624	615.208
372.913	16.896	816.567	615.125
373.927	16.677	815.924	613.792
374.942	16.892	815.395	614.119
375.956	17.109	814.649	614.289
376.971	16.984	814.772	613.874
377.986	17.044	813.987	613.447
379.000	17.100	813.470	613.204
380.015	16.969	813.116	612.411
381.029	17.039	812.651	612.257
382.044	17.021	812.048	611.683
383.059	17.132	811.284	611.454
384.073	17.072	810.859	610.865
385.088	17.155	809.971	610.439
386.102	17.051	809.630	609.754
387.117	16.983	809.079	609.040
388.132	17.257	808.257	609.351
389.146	17.070	808.209	608.591
390.161	17.018	808.026	608.213
391.175	17.089	806.854	607.532
392.190	17.098	806.319	607.105
393.205	17.096	806.270	607.008
394.219	17.033	805.699	606.299
395.234	16.994	805.630	606.054
396.248	17.003	805.040	605.590
397.263	16.977	804.374	604.942
398.278	16.965	804.325	604.808
399.292	17.059	803.974	604.826
400.307	17.105	803.194	604.351
401.321	17.088	802.528	603.734
402.336	17.098	802.317	603.559
403.350	17.342	801.595	603.827
404.365	17.227	801.729	603.467
405.380	17.252	801.089	603.020
406.394	17.433	800.421	603.107
407.409	17.457	799.880	602.732
408.423	17.428	799.621	602.378
409.438	17.451	799.605	602.395
410.453	17.554	798.742	602.055
411.467	17.607	798.477	601.991
412.482	17.543	798.165	601.478
413.496	17.466	797.613	600.733
414.511	17.438	797.351	600.385
415.526	17.478	797.029	600.230
416.540	17.667	796.112	600.152
417.555	17.582	795.813	599.577
418.569	17.423	795.795	598.951
419.584	17.754	794.738	599.264
420.599	17.703	794.498	598.852
421.613	110.270	1293.469	1471.718
422.628	94.769	1366.164	1471.813
