DTS Sentinel unit serial number:	SN413079Multiplexer serial number:	ORYXHardware model number:	OX4-SRSoftware version number:	ORYX F/W v4.00 Oryx Data Collector v3.7.2.0data status	okinstallation	princeton_trtdifferential loss correction	single-endedforward channel	channel 1reverse channel	N/Adate	2019/09/14time	15:54:35forward acquisition time	60.00reverse acquisition time	0.00gamma	496.2192k internal	0.2295k external	0.2295temperature offset calibration	1.0067default loss term (dB/km)	0.3790temperature slope calibration	1.0000multiplexer offset coefficient	1.0000multiplexer slope coefficient	1.0000fibre end	0.00T internal ref (°C)	38.67T ext. ref 1 (°C)	5.12T ext. ref 2 (°C)	33.31length (m)	temperature (°C)	Stokes	anti-Stokes-747.200	123.396	0.234	-0.300
-746.185	-21.345	0.210	-0.131
-745.171	-200.000	0.005	-0.154
-744.156	196.442	-0.161	0.251
-743.142	-200.000	-0.042	0.266
-742.127	800.000	-0.036	0.128
-741.112	752.343	-0.072	-0.199
-740.098	42.379	-0.099	0.092
-739.083	-132.171	0.082	0.011
-738.069	-149.228	0.108	0.009
-737.054	800.000	0.101	-0.410
-736.039	41.976	-0.256	0.237
-735.025	-44.962	-0.138	0.070
-734.010	-88.335	-0.503	-0.154
-732.996	-41.570	0.163	-0.085
-731.981	-67.359	-0.321	0.129
-730.966	164.211	-0.065	-0.093
-729.952	-48.432	0.101	-0.050
-728.937	2.638	0.327	-0.242
-727.923	-200.000	0.023	-0.104
-726.908	-200.000	0.017	0.229
-725.894	-200.000	0.010	-0.057
-724.879	183.219	-0.272	-0.410
-723.864	-140.999	0.289	-0.030
-722.850	574.376	-0.033	0.082
-721.835	153.447	-0.059	-0.082
-720.821	280.021	0.024	-0.045
-719.806	-11.491	-0.204	0.137
-718.791	-134.980	0.248	0.031
-717.777	-24.105	-0.121	-0.074
-716.762	279.501	0.096	-0.176
-715.748	-106.448	-0.210	-0.048
-714.733	-91.838	-0.148	-0.043
-713.718	-66.737	-0.103	-0.042
-712.704	-168.099	-0.309	-0.012
-711.689	303.595	-0.136	0.258
-710.675	43.404	-0.112	-0.105
-709.660	-162.956	0.073	0.004
-708.645	279.345	0.174	-0.317
-707.631	283.281	-0.088	-0.161
-706.616	-79.723	0.362	-0.124
-705.602	12.040	0.066	0.052
-704.587	259.099	-0.255	0.450
-703.572	-200.000	-0.008	-0.154
-702.558	-200.000	0.045	-0.492
-701.543	-65.788	-0.359	-0.146
-700.529	590.990	-0.028	-0.071
-699.514	216.190	-0.074	-0.119
-698.499	-49.873	0.262	0.127
-697.485	239.452	-0.089	0.152
-696.470	103.323	0.107	0.128
-695.456	35.595	0.017	-0.015
-694.441	-200.000	-0.009	-0.339
-693.426	-36.211	0.241	-0.133
-692.412	145.965	-0.195	0.267
-691.397	-65.273	-0.094	0.039
-690.383	-107.971	0.411	-0.091
-689.368	-43.074	0.222	-0.115
-688.354	448.657	0.200	-0.449
-687.339	-200.000	0.010	-0.312
-686.324	-200.000	-0.002	-0.178
-685.310	-99.459	-0.567	-0.145
-684.295	395.624	0.013	0.027
-683.281	-80.175	-0.186	-0.063
-682.266	666.900	0.066	0.175
-681.251	-200.000	-0.155	-0.001
-680.237	-36.783	0.349	-0.191
-679.222	97.697	-0.394	0.462
-678.208	-120.184	0.048	-0.008
-677.193	392.190	-0.055	0.117
-676.178	-33.136	-0.276	-0.156
-675.164	354.940	0.106	0.214
-674.149	-31.989	-0.061	0.035
-673.135	-45.828	0.259	0.130
-672.120	-200.000	-0.037	-0.433
-671.105	-85.961	-0.188	0.059
-670.091	-122.980	0.281	0.046
-669.076	-124.090	-0.346	-0.055
-668.062	-51.860	0.135	0.064
-667.047	37.475	-0.229	0.207
-666.032	-113.833	0.062	0.012
-665.018	-113.271	0.275	0.055
-664.003	456.334	-0.151	-0.342
-662.989	-84.071	-0.407	0.132
-661.974	133.401	-0.165	-0.218
-660.959	-200.000	-0.012	-0.138
-659.945	776.062	-0.041	-0.114
-658.930	-105.980	0.204	-0.047
-657.916	-90.958	-0.175	0.051
-656.901	28.695	-0.191	-0.165
-655.886	-126.717	-0.151	0.023
-654.872	-200.000	0.036	0.345
-653.857	-74.702	0.109	0.040
-652.843	-121.373	-0.137	0.023
-651.828	-176.882	0.256	0.007
-650.814	-148.291	-0.081	-0.007
-649.799	229.747	-0.051	0.085
-648.784	-139.199	-0.023	-0.002
-647.770	465.945	0.147	-0.336
-646.755	800.000	-0.090	0.357
-645.741	-200.000	0.002	-0.067
-644.726	-200.000	0.013	-0.181
-643.711	101.978	-0.144	-0.171
-642.697	275.305	0.198	-0.358
-641.682	-161.433	0.151	0.008
-640.668	569.594	0.097	-0.240
-639.653	244.714	-0.179	-0.306
-638.638	-25.584	-0.348	-0.209
-637.624	-107.258	-0.184	0.041
-636.609	-74.648	0.104	-0.038
-635.595	32.632	-0.024	-0.021
-634.580	-200.000	0.010	-0.221
-633.565	12.659	-0.194	0.152
-632.551	405.498	-0.069	-0.147
-631.536	621.081	-0.051	0.131
-630.522	-13.298	-0.404	-0.267
-629.507	175.160	-0.010	-0.015
-628.492	22.126	-0.047	-0.039
-627.478	800.000	0.048	-0.158
-626.463	259.478	-0.144	-0.253
-625.449	-200.000	0.031	0.214
-624.434	416.314	-0.114	0.248
-623.419	-200.000	-0.004	0.054
-622.405	-39.301	-0.185	-0.099
-621.390	162.006	-0.264	-0.377
-620.376	451.788	-0.059	0.132
-619.361	23.146	-0.142	0.119
-618.346	357.689	-0.093	-0.189
-617.332	800.000	-0.113	-0.320
-616.317	-53.822	-0.089	-0.041
-615.303	198.354	-0.044	-0.069
-614.288	683.035	0.044	0.116
-613.273	800.000	0.092	-0.324
-612.259	800.000	0.034	-0.130
-611.244	800.000	0.016	0.073
-610.230	-200.000	0.035	0.223
-609.215	-78.194	-0.066	-0.023
-608.201	-42.131	0.037	-0.019
-607.186	800.000	-0.061	0.227
-606.171	-200.000	-0.012	0.112
-605.157	-94.808	0.056	-0.015
-604.142	-155.001	0.066	-0.004
-603.128	-43.542	-0.033	-0.017
-602.113	160.065	-0.112	0.158
-601.098	-72.707	0.177	-0.066
-600.084	9.513	0.043	0.033
-599.069	-200.000	-0.040	0.181
-598.055	117.615	0.164	0.206
-597.040	-2.462	-0.112	0.080
-596.025	-71.489	-0.372	0.141
-595.011	260.377	-0.084	-0.148
-593.996	-69.969	0.177	-0.069
-592.982	-70.674	0.323	-0.124
-591.967	800.000	-0.023	0.080
-590.952	161.817	-0.131	0.186
-589.938	-143.430	0.118	0.011
-588.923	163.555	0.180	0.258
-587.909	4.066	-0.169	-0.125
-586.894	19.415	0.183	-0.149
-585.879	-31.708	0.109	0.062
-584.865	101.356	0.295	-0.349
-583.850	134.835	0.055	0.073
-582.836	-93.590	-0.091	-0.025
-581.821	-121.908	0.193	0.032
-580.806	-140.102	0.390	-0.042
-579.792	590.276	-0.130	0.326
-578.777	-200.000	-0.023	0.318
-577.763	-40.613	0.108	-0.057
-576.748	-6.500	0.275	-0.191
-575.733	800.000	0.057	-0.181
-574.719	-128.063	-0.078	-0.011
-573.704	-193.528	-0.200	-0.002
-572.690	-200.000	-0.014	0.169
-571.675	-200.000	-0.027	-0.213
-570.661	-100.830	-0.188	-0.047
-569.646	-200.000	-0.003	0.200
-568.631	94.854	0.142	-0.164
-567.617	-8.267	-0.117	-0.080
-566.602	-200.000	0.059	0.360
-565.588	210.495	0.126	0.201
-564.573	-111.096	-0.460	0.096
-563.558	4.019	0.031	0.023
-562.544	206.588	0.043	-0.068
-561.529	-17.715	-0.129	0.082
-560.515	800.000	0.085	0.279
-559.500	-186.528	-0.310	0.004
-558.485	408.013	0.111	0.238
-557.471	-200.000	0.016	-0.282
-556.456	-200.000	0.032	-0.172
-555.442	800.000	-0.093	-0.292
-554.427	800.000	-0.162	0.487
-553.412	642.063	0.131	-0.339
-552.398	381.827	-0.060	-0.125
-551.383	-133.913	0.169	0.021
-550.369	-12.493	-0.131	0.087
-549.354	-14.248	-0.191	0.125
-548.339	667.811	-0.175	-0.458
-547.325	92.017	0.163	-0.187
-546.310	227.467	-0.114	-0.188
-545.296	66.708	0.108	-0.111
-544.281	-200.000	-0.031	-0.235
-543.266	-16.589	-0.215	0.138
-542.252	614.224	-0.064	-0.163
-541.237	-167.552	-0.084	-0.003
-540.223	-68.122	0.158	-0.062
-539.208	-96.111	0.110	-0.030
-538.193	88.987	0.123	0.139
-537.179	231.561	-0.089	0.148
-536.164	337.845	0.096	0.190
-535.150	-141.667	0.157	-0.016
-534.135	-164.220	-0.462	0.022
-533.121	115.151	-0.044	-0.055
-532.106	740.769	-0.027	-0.073
-531.091	15.878	-0.203	-0.162
-530.077	-150.593	0.054	0.004
-529.062	-73.525	-0.109	-0.040
-528.048	23.693	-0.204	0.170
-527.033	-84.313	-0.090	0.029
-526.018	132.728	0.097	-0.127
-525.004	23.419	-0.215	0.179
-523.989	-20.947	-0.197	-0.122
-522.975	121.507	-0.116	0.146
-521.960	-174.812	-0.594	0.017
-520.945	26.760	0.125	0.106
-519.931	-124.316	0.225	-0.036
-518.916	48.764	0.274	-0.261
-517.902	730.284	-0.088	-0.238
-516.887	360.532	0.198	0.401
-515.872	-156.850	0.256	-0.016
-514.858	800.000	-0.070	0.200
-513.843	-61.659	-0.237	0.101
-512.829	-96.473	0.412	0.110
-511.814	225.911	-0.046	-0.075
-510.799	800.000	-0.094	-0.277
-509.785	31.450	0.089	-0.078
-508.770	800.000	0.014	-0.051
-507.756	743.186	0.058	-0.159
-506.741	180.523	0.141	0.209
-505.726	-200.000	-0.011	-0.173
-504.712	800.000	-0.080	0.312
-503.697	-96.825	-0.318	-0.085
-502.683	125.444	-0.038	0.048
-501.668	28.716	0.082	-0.071
-500.653	158.487	-0.133	-0.187
-499.639	-120.186	0.301	0.052
-498.624	-59.289	0.124	0.054
-497.610	-186.933	-0.070	-0.001
-496.595	36.774	0.062	-0.055
-495.581	-200.000	0.021	0.139
-494.566	-96.631	-0.445	-0.119
-493.551	-112.514	0.226	-0.046
-492.537	-5.752	0.385	0.267
-491.522	23.579	0.137	-0.114
-490.508	-108.958	-0.038	-0.008
-489.493	292.396	0.081	0.149
-488.478	-200.000	-0.009	-0.208
-487.464	-92.934	-0.147	-0.042
-486.449	-54.801	0.355	-0.162
-485.435	479.768	-0.140	0.321
-484.420	-81.475	-0.124	0.041
-483.405	-137.508	0.232	-0.027
-482.391	52.175	-0.135	0.130
-481.376	45.831	0.077	0.072
-480.362	145.621	0.169	-0.229
-479.347	-200.000	0.012	0.270
-478.332	-127.673	0.235	0.034
-477.318	444.827	-0.100	-0.223
-476.303	194.008	-0.324	-0.497
-475.289	-176.191	-0.399	0.011
-474.274	-32.047	0.384	-0.217
-473.259	800.000	-0.057	-0.212
-472.245	-63.728	-0.238	0.099
-471.230	243.637	-0.090	0.152
-470.216	83.856	0.168	-0.185
-469.201	-10.682	0.332	0.222
-468.186	-110.735	0.176	0.037
-467.172	-66.965	-0.184	0.073
-466.157	33.685	0.170	0.149
-465.143	-200.000	-0.003	0.084
-464.128	67.579	0.174	-0.180
-463.113	522.381	0.025	-0.059
-462.099	60.507	0.103	0.104
-461.084	-200.000	-0.026	0.237
-460.070	800.000	-0.021	-0.086
-459.055	800.000	-0.027	-0.077
-458.040	-200.000	-0.039	-0.192
-457.026	800.000	-0.014	-0.058
-456.011	-18.204	0.137	0.087
-454.997	1.975	0.068	0.049
-453.982	-6.676	0.239	-0.164
-452.968	-138.704	-0.015	0.002
-451.953	800.000	-0.090	0.324
-450.938	800.000	-0.079	0.334
-449.924	800.000	-0.022	0.069
-448.909	-130.799	-0.256	0.035
-447.895	40.323	0.091	-0.083
-446.880	-100.807	-0.399	-0.099
-445.865	205.192	-0.124	-0.194
-444.851	30.313	0.191	0.165
-443.836	74.795	0.201	0.213
-442.822	-48.680	0.050	0.024
-441.807	-67.590	-0.172	-0.068
-440.792	-60.214	0.342	-0.147
-439.778	185.219	0.075	0.113
-438.763	800.000	-0.048	0.163
-437.749	-200.000	-0.013	0.062
-436.734	29.607	0.103	0.088
-435.719	-200.000	-0.036	-0.184
-434.705	-200.000	-0.004	0.196
-433.690	-106.903	0.329	-0.074
-432.676	-24.341	0.118	-0.071
-431.661	-200.000	-0.007	0.152
-430.646	346.105	-0.083	0.164
-429.632	-200.000	0.015	0.081
-428.617	2.279	0.108	-0.079
-427.603	626.305	0.119	-0.304
-426.588	800.000	0.089	-0.302
-425.573	800.000	-0.100	-0.354
-424.559	-200.000	0.005	-0.210
-423.544	449.642	0.134	-0.299
-422.530	-200.000	0.001	0.117
-421.515	115.460	-0.024	-0.030
-420.500	-14.280	-0.161	-0.105
-419.486	-200.000	-0.020	-0.345
-418.471	80.342	0.034	0.037
-417.457	-157.717	-0.044	-0.003
-416.442	765.368	0.141	-0.388
-415.428	-42.695	0.343	-0.176
-414.413	130.620	0.093	0.121
-413.398	-113.181	0.163	-0.032
-412.384	800.000	-0.076	0.243
-411.369	177.766	0.232	-0.341
-410.355	563.500	0.039	0.095
-409.340	800.000	-0.080	-0.267
-408.325	151.317	-0.118	0.162
-407.311	378.978	0.105	0.218
-406.296	363.660	0.074	0.151
-405.282	104.579	0.175	0.208
-404.267	-143.237	0.227	0.022
-403.252	800.000	0.075	-0.309
-402.238	-165.967	-0.291	0.013
-401.223	127.859	-0.074	0.095
-400.209	-200.000	-0.009	0.135
-399.194	-41.681	0.335	0.174
-398.179	-34.186	0.261	-0.144
-397.165	800.000	0.100	-0.339
-396.150	-3.305	-0.220	-0.154
-395.136	-142.360	0.497	0.049
-394.121	-164.010	0.186	-0.009
-393.106	265.682	-0.136	0.239
-392.092	1.379	0.255	0.185
-391.077	-94.548	0.290	0.080
-390.063	-136.715	-0.330	-0.038
-389.048	-119.991	0.203	-0.035
-388.033	-79.727	0.170	0.058
-387.019	353.229	-0.112	0.223
-386.004	29.247	-0.061	-0.053
-384.990	-194.838	-0.270	0.002
-383.975	-43.480	-0.172	-0.088
-382.960	-81.611	0.278	0.092
-381.946	179.754	0.187	0.275
-380.931	-182.691	0.152	-0.003
-379.917	34.410	0.157	0.138
-378.902	602.749	0.056	-0.140
-377.888	-119.841	-0.146	0.025
-376.873	201.228	-0.081	0.126
-375.858	236.189	0.165	0.275
-374.844	93.944	-0.125	-0.143
-373.829	-100.552	0.161	0.040
-372.815	-36.383	-0.289	-0.157
-371.800	53.515	-0.219	-0.212
-370.785	-2.321	-0.090	0.064
-369.771	683.370	0.113	-0.298
-368.756	-0.211	-0.113	0.081
-367.742	391.045	0.077	-0.161
-366.727	19.616	-0.195	0.158
-365.712	-166.511	-0.108	-0.005
-364.698	157.968	-0.041	0.058
-363.683	210.461	0.222	0.352
-362.669	90.638	-0.149	-0.168
-361.654	-200.000	0.003	-0.131
-360.639	-133.694	-0.066	-0.008
-359.625	-104.424	-0.019	-0.005
-358.610	417.360	-0.073	0.157
-357.596	800.000	-0.011	-0.035
-356.581	-134.660	-0.514	-0.063
-355.566	177.244	0.165	-0.242
-354.552	443.720	-0.039	0.085
-353.537	20.039	-0.249	0.202
-352.523	396.687	0.070	0.147
-351.508	-48.863	-0.199	0.096
-350.493	-137.342	-0.367	0.042
-349.479	-66.631	-0.165	-0.066
-348.464	800.000	-0.080	0.316
-347.450	467.259	0.114	0.257
-346.435	-184.563	0.426	-0.007
-345.420	59.610	-0.174	-0.173
-344.406	800.000	0.028	-0.113
-343.391	-24.612	0.130	-0.078
-342.377	625.529	-0.152	0.386
-341.362	182.320	0.035	-0.052
-340.348	-200.000	0.067	-0.343
-339.333	-200.000	0.015	0.244
-338.318	175.633	-0.106	0.154
-337.304	330.028	0.058	-0.112
-336.289	431.585	0.054	-0.117
-335.275	-200.000	0.022	0.200
-334.260	178.031	-0.053	0.078
-333.245	-164.975	-0.237	-0.011
-332.231	-30.458	-0.268	0.153
-331.216	-200.000	-0.019	0.378
-330.202	138.547	-0.208	0.275
-329.187	244.699	0.136	-0.230
-328.172	-107.062	0.163	-0.036
-327.158	5.564	-0.192	0.143
-326.143	-136.325	0.266	0.031
-325.129	-200.000	0.048	0.265
-324.114	800.000	0.057	-0.179
-323.099	800.000	0.039	-0.135
-322.085	800.000	-0.079	-0.268
-321.070	457.930	0.139	-0.310
-320.056	-38.914	0.206	0.109
-319.041	800.000	0.010	0.037
-318.026	-71.391	-0.185	-0.070
-317.012	-49.173	0.308	-0.148
-315.997	140.057	0.258	0.341
-314.983	-200.000	-0.016	-0.294
-313.968	-200.000	-0.018	0.249
-312.953	-200.000	-0.011	0.153
-311.939	-117.187	-0.294	-0.054
-310.924	-200.000	0.003	0.307
-309.910	33.325	-0.207	-0.180
-308.895	90.877	0.252	-0.284
-307.880	-200.000	0.007	-0.214
-306.866	100.625	-0.062	-0.073
-305.851	-178.436	-0.135	0.003
-304.837	-10.404	0.100	0.066
-303.822	800.000	0.057	0.244
-302.807	-183.705	0.315	0.005
-301.793	644.444	0.032	0.082
-300.778	800.000	0.060	-0.200
-299.764	-200.000	-0.021	0.132
-298.749	-200.000	0.014	-0.168
-297.735	-16.852	0.085	-0.054
-296.720	5.796	0.152	0.113
-295.705	249.131	0.039	-0.067
-294.691	165.972	-0.151	-0.215
-293.676	-200.000	0.037	0.303
-292.662	-200.000	0.044	0.260
-291.647	-44.348	-0.121	-0.061
-290.632	-97.592	0.301	-0.078
-289.618	-43.405	0.208	-0.106
-288.603	142.655	0.137	-0.183
-287.589	-200.000	0.058	0.470
-286.574	135.807	0.106	-0.138
-285.559	-127.468	0.099	0.014
-284.545	-34.070	-0.217	-0.120
-283.530	-124.758	-0.102	-0.016
-282.516	-56.576	-0.399	-0.177
-281.501	-42.904	0.122	0.062
-280.486	181.416	0.054	-0.079
-279.472	800.000	0.037	0.104
-278.457	-56.959	0.038	0.017
-277.443	142.680	-0.277	-0.369
-276.428	272.418	-0.109	0.193
-275.413	800.000	-0.036	0.156
-274.399	800.000	-0.043	-0.141
-273.384	-200.000	-0.008	0.387
-272.370	635.706	0.074	0.189
-271.355	482.139	0.068	0.155
-270.340	-59.488	-0.423	0.182
-269.326	456.550	0.026	-0.058
-268.311	-41.577	-0.111	0.057
-267.297	642.152	0.052	-0.132
-266.282	-7.552	0.178	-0.121
-265.267	116.945	0.200	0.247
-264.253	296.147	0.007	-0.013
-263.238	-107.676	0.324	-0.071
-262.224	-165.644	-0.139	-0.006
-261.209	-50.510	-0.252	0.119
-260.195	559.509	-0.043	0.105
-259.180	-100.820	-0.464	0.114
-258.165	-200.000	-0.022	-0.124
-257.151	-43.891	0.017	0.009
-256.136	35.325	-0.151	0.133
-255.122	-90.264	0.318	-0.093
-254.107	156.099	-0.240	-0.332
-253.092	-200.000	0.015	0.082
-252.078	-9.349	-0.351	0.235
-251.063	-119.263	0.224	-0.039
-250.049	21.071	0.100	0.081
-249.034	-200.000	0.011	0.074
-248.019	456.633	0.064	0.142
-247.005	-112.345	-0.236	0.047
-245.990	-129.279	0.256	-0.036
-244.976	-200.000	0.021	-0.150
-243.961	-88.677	0.059	-0.018
-242.946	326.678	0.016	0.031
-241.932	70.801	-0.237	0.245
-240.917	-1.499	-0.188	0.133
-239.903	681.020	-0.049	0.127
-238.888	501.383	0.081	-0.188
-237.873	-17.743	0.086	0.054
-236.859	498.840	-0.173	0.398
-235.844	-200.000	-0.001	0.153
-234.830	-152.386	0.217	0.016
-233.815	-200.000	0.015	-0.105
-232.800	-200.000	0.001	-0.029
-231.786	-200.000	0.024	-0.118
-230.771	-17.639	-0.131	0.083
-229.757	246.265	-0.017	-0.028
-228.742	-200.000	0.028	0.332
-227.727	92.765	0.018	0.020
-226.713	280.735	0.151	-0.270
-225.698	-32.456	-0.151	-0.084
-224.684	800.000	0.046	0.136
-223.669	-99.240	-0.434	0.110
-222.655	209.125	-0.084	-0.132
-221.640	-27.472	0.117	0.068
-220.625	-61.684	0.211	-0.089
-219.611	34.230	0.124	-0.109
-218.596	201.641	-0.202	-0.311
-217.582	264.238	-0.205	-0.357
-216.567	-1.725	0.092	-0.065
-215.552	800.000	-0.036	0.131
-214.538	244.673	0.164	-0.276
-213.523	-200.000	-0.007	-0.086
-212.509	-200.000	-0.003	-0.189
-211.494	506.229	0.050	0.117
-210.479	-200.000	0.005	0.359
-209.465	329.691	0.130	0.251
-208.450	800.000	0.119	0.348
-207.436	-200.000	-0.009	0.241
-206.421	105.283	-0.074	0.087
-205.406	-40.967	0.164	-0.085
-204.392	-200.000	0.042	-0.230
-203.377	344.589	0.136	0.267
-202.363	344.370	0.160	0.315
-201.348	-200.000	0.012	-0.058
-200.333	-33.763	-0.244	-0.135
-199.319	800.000	0.037	0.113
-198.304	-8.305	-0.161	0.109
-197.290	484.061	0.127	-0.289
-196.275	-62.691	0.159	0.066
-195.260	-70.473	-0.163	0.062
-194.246	-200.000	0.002	-0.046
-193.231	-200.000	-0.004	-0.231
-192.217	16.889	0.092	0.073
-191.202	-66.506	0.117	0.046
-190.187	23.345	-0.102	0.084
-189.173	-103.835	0.527	-0.123
-188.158	-93.428	-0.317	-0.088
-187.144	-63.965	-0.352	-0.144
-186.129	-200.000	0.002	-0.183
-185.114	302.956	-0.114	-0.211
-184.100	31.480	-0.109	-0.093
-183.085	290.333	0.139	0.253
-182.071	-129.865	-0.197	0.027
-181.056	-130.166	0.087	0.012
-180.042	800.000	0.120	-0.481
-179.027	-52.529	-0.020	-0.009
-178.012	800.000	-0.053	0.161
-176.998	-139.574	0.215	-0.023
-175.983	503.047	0.188	0.436
-174.969	-142.251	0.466	-0.046
-173.954	-62.519	0.047	0.020
-172.939	-66.833	0.092	-0.036
-171.925	755.312	-0.032	-0.087
-170.910	800.000	-0.098	-0.338
-169.896	589.113	-0.126	-0.309
-168.881	-200.000	0.032	-0.152
-167.866	104.422	-0.201	-0.237
-166.852	158.003	-0.111	0.153
-165.837	800.000	-0.048	0.193
-164.823	800.000	0.066	0.204
-163.808	-200.000	0.030	-0.221
-162.793	-200.000	0.017	-0.118
-161.779	-159.985	-0.085	0.005
-160.764	800.000	0.075	0.245
-159.750	78.979	-0.168	0.179
-158.735	-11.023	-0.288	-0.190
-157.720	-156.887	0.020	0.001
-156.706	800.000	0.106	0.408
-155.691	-114.907	-0.345	0.066
-154.677	94.233	0.224	-0.254
-153.662	682.998	-0.107	0.278
-152.647	181.348	-0.088	0.129
-151.633	413.847	0.090	0.192
-150.618	-200.000	-0.013	0.169
-149.604	-200.000	0.032	-0.192
-148.589	243.086	0.125	-0.210
-147.574	-44.028	-0.168	0.084
-146.560	160.454	0.167	-0.232
-145.545	-200.000	-0.025	0.154
-144.531	434.977	-0.114	0.247
-143.516	60.797	0.107	0.106
-142.502	-150.314	-0.186	-0.014
-141.487	577.471	-0.072	-0.176
-140.472	-200.000	0.019	0.088
-139.458	-200.000	-0.021	0.145
-138.443	-163.941	0.519	-0.024
-137.429	800.000	0.047	0.151
-136.414	281.117	0.157	-0.281
-135.399	-50.849	0.403	-0.189
-134.385	-200.000	-0.006	-0.217
-133.370	800.000	0.085	-0.243
-132.356	-30.648	0.191	0.108
-131.341	-200.000	0.008	0.090
-130.326	73.650	-0.135	-0.141
-129.312	-185.823	0.072	0.001
-128.297	751.322	-0.124	0.335
-127.283	-106.596	-0.319	0.071
-126.268	-180.726	0.207	0.004
-125.253	-200.000	0.101	0.637
-124.239	-200.000	-0.021	-0.144
-123.224	-93.549	-0.193	0.053
-122.210	-46.770	-0.253	-0.124
-121.195	75.143	0.092	0.096
-120.180	297.040	0.204	-0.374
-119.166	-104.860	-0.155	-0.036
-118.151	48.904	0.084	-0.079
-117.137	-80.078	-0.297	-0.099
-116.122	6.986	0.201	-0.150
-115.107	-147.381	0.389	0.033
-114.093	-81.382	-0.425	-0.140
-113.078	140.408	0.131	0.172
-112.064	-27.747	0.226	0.131
-111.049	-57.684	0.190	0.083
-110.034	76.234	-0.168	-0.178
-109.020	-200.000	0.067	-0.313
-108.005	93.918	-0.033	0.037
-106.991	107.682	0.218	-0.258
-105.976	-200.000	-0.050	-0.354
-104.962	-186.655	-0.261	-0.004
-103.947	-200.000	0.054	-0.335
-102.932	-200.000	0.057	-0.334
-101.918	-7.766	0.132	0.089
-100.903	76.228	-0.077	0.081
-99.889	800.000	0.031	0.115
-98.874	-35.407	-0.190	-0.103
-97.859	-28.765	0.356	-0.204
-96.845	-200.000	-0.025	0.197
-95.830	-123.196	-0.314	-0.050
-94.816	195.632	-0.063	-0.096
-93.801	-179.879	-0.190	0.004
-92.786	-200.000	-0.028	-0.376
-91.772	-119.340	-0.270	-0.047
-90.757	-200.000	-0.002	0.119
-89.743	-23.730	0.206	-0.123
-88.728	-118.175	-0.416	-0.074
-87.713	738.398	0.043	0.115
-86.699	-97.572	-0.413	-0.107
-85.684	74.145	-0.134	-0.140
-84.670	275.148	-0.142	-0.250
-83.655	-59.015	0.233	0.100
-82.640	80.316	-0.030	0.032
-81.626	-200.000	-0.001	0.330
-80.611	-200.000	-0.041	-0.284
-79.597	288.154	0.090	0.162
-78.582	800.000	-0.048	-0.203
-77.567	-4.256	-0.189	-0.130
-76.553	-2.339	-0.199	-0.139
-75.538	-200.000	-0.046	-0.323
-74.524	93.484	-0.059	-0.066
-73.509	-17.617	0.190	-0.119
-72.494	70.327	-0.037	-0.038
-71.480	-6.079	-0.328	0.223
-70.465	-200.000	0.030	0.216
-69.451	674.140	0.127	0.329
-68.436	-11.613	0.365	0.239
-67.422	-20.927	0.168	0.102
-66.407	-58.099	0.106	0.046
-65.392	800.000	0.090	-0.278
-64.378	-200.000	-0.222	0.000
-63.363	-12.870	0.430	0.278
-62.349	108.933	0.216	0.257
-61.334	4.324	-0.819	-0.597
-60.319	-16.736	0.457	0.288
-59.305	-200.000	0.016	-0.755
-58.290	254.797	0.305	0.519
-57.276	800.000	0.543	1.527
-56.261	-200.000	83.694	501.278
-55.246	548.730	1372.899	3272.674
-54.232	184.056	2591.923	3817.042
-53.217	119.667	2229.541	2748.153
-52.203	49.497	1681.344	1574.527
-51.188	42.056	1413.401	1276.364
-50.173	38.711	1369.992	1216.398
-49.159	56.730	1410.830	1366.347
-48.144	61.981	1429.348	1417.240
-47.130	42.418	1388.884	1256.289
-46.115	38.735	1371.678	1217.851
-45.100	38.662	1366.964	1213.165
-44.086	38.663	1364.177	1210.651
-43.071	38.405	1362.249	1207.302
-42.057	38.500	1359.851	1205.714
-41.042	38.587	1358.376	1204.894
-40.027	38.638	1356.563	1203.549
-39.013	38.472	1355.273	1201.337
-37.998	38.533	1353.065	1199.709
-36.984	38.682	1351.056	1198.788
-35.969	38.747	1349.047	1197.358
-34.954	38.740	1346.981	1195.434
-33.940	38.691	1346.124	1194.327
-32.925	38.773	1344.650	1193.468
-31.911	38.848	1342.997	1192.414
-30.896	38.765	1341.731	1190.739
-29.881	38.825	1339.988	1189.508
-28.867	38.820	1338.782	1188.356
-27.852	38.833	1337.504	1187.257
-26.838	38.926	1335.915	1186.361
-25.823	38.822	1334.418	1184.353
-24.809	38.689	1333.296	1182.509
-23.794	38.757	1331.778	1181.525
-22.779	38.880	1329.885	1180.538
-21.765	38.882	1328.813	1179.557
-20.750	38.684	1327.839	1177.455
-19.736	38.693	1326.247	1176.047
-18.721	38.567	1325.274	1174.382
-17.706	38.598	1323.823	1173.239
-16.692	38.577	1323.069	1172.395
-15.677	38.659	1321.969	1171.866
-14.663	38.655	1320.676	1170.650
-13.648	38.565	1319.697	1169.199
-12.633	38.508	1318.761	1167.980
-11.619	38.537	1317.827	1167.280
-10.604	38.539	1317.193	1166.684
-9.590	38.575	1315.874	1165.686
-8.575	38.575	1314.608	1164.518
-7.560	38.599	1313.918	1164.003
-6.546	38.522	1313.306	1162.958
-5.531	38.538	1312.417	1162.220
-4.517	38.601	1311.106	1161.386
-3.502	38.709	1310.224	1161.197
-2.487	38.678	1309.538	1160.363
-1.473	38.537	1305.180	1155.617
-0.458	37.123	1289.612	1133.536
0.556	33.210	1268.670	1086.940
1.571	28.764	1271.926	1063.952
2.586	27.247	1286.401	1067.068
3.600	25.653	1274.952	1048.199
4.615	19.275	1199.361	950.893
5.629	9.865	1119.075	838.489
6.644	5.264	1095.683	797.446
7.659	4.967	1093.319	794.143
8.673	5.126	1091.916	793.861
9.688	5.124	1090.660	792.872
10.702	5.333	1089.386	792.937
11.717	10.460	1096.952	824.507
12.731	18.782	1108.752	875.920
13.746	20.979	1111.392	889.145
14.761	19.702	1108.423	880.192
15.775	18.556	1106.393	872.671
16.790	17.476	1104.139	865.330
17.804	16.717	1102.750	860.310
18.819	16.396	1101.898	857.939
19.834	16.068	1101.049	855.541
20.848	15.950	1099.725	853.835
21.863	15.707	1098.874	851.868
22.877	15.646	1098.497	851.190
23.892	15.576	1097.275	849.815
24.907	15.646	1096.649	849.608
25.921	15.573	1095.400	848.197
26.936	15.734	1094.037	847.878
27.950	15.676	1092.779	846.540
28.965	15.810	1091.195	845.910
29.980	15.843	1089.735	844.866
30.994	15.845	1088.718	844.017
32.009	15.895	1087.829	843.500
33.023	15.918	1086.660	842.638
34.038	15.829	1085.261	841.030
35.053	15.749	1084.945	840.313
36.067	15.865	1083.311	839.549
37.082	15.796	1082.915	838.827
38.096	15.794	1082.490	838.412
39.111	15.799	1081.338	837.471
40.126	15.750	1079.672	835.865
41.140	15.552	1078.878	834.190
42.155	15.476	1077.374	832.576
43.169	15.340	1076.483	831.144
44.184	15.436	1075.382	830.695
45.199	15.369	1074.684	829.748
46.213	15.565	1073.211	829.508
47.228	15.597	1072.226	828.828
48.242	15.652	1071.752	828.660
49.257	15.725	1070.121	827.685
50.271	15.697	1069.691	827.142
51.286	15.823	1068.425	826.708
52.301	15.704	1067.572	825.391
53.315	15.611	1066.753	824.232
54.330	15.648	1064.973	822.961
55.344	15.503	1064.595	821.890
56.359	15.518	1063.916	821.367
57.374	15.514	1062.563	820.227
58.388	15.465	1061.307	818.948
59.403	15.482	1060.657	818.456
60.417	15.410	1060.295	817.753
61.432	15.440	1059.246	817.020
62.447	15.346	1058.284	815.747
63.461	15.403	1057.696	815.497
64.476	15.378	1056.352	814.267
65.490	15.212	1055.988	813.111
66.505	15.320	1055.168	812.929
67.520	15.334	1054.728	812.586
68.534	15.475	1053.894	812.556
69.549	15.498	1052.806	811.756
70.563	15.287	1052.357	810.319
71.578	15.313	1051.330	809.584
72.593	15.247	1050.459	808.520
73.607	15.117	1050.230	807.644
74.622	15.170	1049.142	806.995
75.636	15.132	1048.728	806.422
76.651	15.202	1048.178	806.261
77.666	15.179	1047.414	805.494
78.680	15.321	1046.305	805.251
79.695	15.316	1045.371	804.437
80.709	15.494	1044.907	804.862
81.724	15.423	1044.755	804.336
82.739	15.501	1043.647	803.784
83.753	15.759	1042.921	804.385
84.768	15.779	1042.255	803.898
85.782	15.964	1041.294	803.966
86.797	15.843	1040.563	802.757
87.812	15.685	1039.509	801.120
88.826	15.647	1038.638	800.196
89.841	15.793	1037.321	799.803
90.855	15.883	1036.472	799.506
91.870	15.884	1035.593	798.762
92.884	15.934	1034.637	798.193
93.899	15.938	1033.662	797.389
94.914	15.942	1033.199	796.979
95.928	15.807	1032.170	795.475
96.943	15.831	1031.346	794.882
97.957	15.778	1030.148	793.641
98.972	15.785	1029.327	792.970
99.987	15.935	1028.221	792.752
101.001	15.796	1027.274	791.300
102.016	15.865	1026.318	790.820
103.030	15.753	1026.131	790.080
104.045	15.757	1025.497	789.538
105.060	15.718	1024.164	788.259
106.074	15.552	1023.393	786.817
107.089	15.479	1022.183	785.479
108.103	15.574	1020.977	784.925
109.118	15.596	1019.881	784.119
110.133	15.466	1019.477	783.128
111.147	15.416	1018.515	782.089
112.162	15.404	1017.694	781.331
113.176	15.567	1017.033	781.515
114.191	15.630	1015.962	780.916
115.206	15.652	1015.217	780.378
116.220	15.465	1014.694	779.038
117.235	15.504	1013.657	778.352
118.249	15.528	1012.605	777.589
119.264	15.484	1011.799	776.694
120.279	15.301	1011.151	775.285
121.293	15.375	1010.376	774.964
122.308	15.396	1009.131	774.038
123.322	15.459	1008.069	773.444
124.337	15.444	1006.690	772.247
125.352	15.369	1006.504	771.692
126.366	15.562	1004.410	770.905
127.381	15.392	1003.770	769.566
128.395	15.469	1002.913	769.192
129.410	15.667	1001.825	769.194
130.424	15.591	1001.198	768.301
131.439	15.501	1000.802	767.515
132.454	15.616	999.701	767.129
133.468	15.616	999.088	766.590
134.483	15.704	998.089	766.158
135.497	15.712	997.194	765.441
136.512	15.578	996.560	764.273
137.527	15.631	995.731	763.811
138.541	15.615	994.826	762.980
139.556	15.678	994.153	762.678
140.570	15.909	993.513	763.171
141.585	15.988	992.302	762.531
142.600	15.945	991.624	761.746
143.614	15.934	991.315	761.390
144.629	15.985	990.535	760.956
145.643	15.993	989.129	759.844
146.658	15.832	987.915	758.117
147.673	15.803	986.798	757.066
148.687	15.603	986.119	755.578
149.702	15.673	984.987	754.959
150.716	15.699	984.336	754.507
151.731	15.801	983.263	754.076
152.746	15.738	982.832	753.396
153.760	15.742	982.480	753.077
154.775	15.865	981.566	752.861
155.789	15.953	981.096	752.826
156.804	15.913	980.381	752.034
157.819	15.934	979.539	751.415
158.833	16.025	979.231	751.518
159.848	16.013	978.188	750.598
160.862	16.083	977.047	749.966
161.877	15.927	975.841	748.282
162.892	15.816	974.894	746.994
163.906	15.680	974.083	745.704
164.921	15.782	972.908	745.190
165.935	15.857	971.932	744.711
166.950	15.864	971.310	744.197
167.964	15.923	970.752	743.968
168.979	15.855	969.632	742.744
169.994	15.894	968.496	741.980
171.008	15.917	967.988	741.626
172.023	16.100	967.350	741.877
173.037	16.076	966.704	741.210
174.052	15.870	966.248	739.889
175.067	15.792	965.535	738.932
176.081	15.736	964.968	738.187
177.096	15.792	964.224	737.800
178.110	15.798	963.112	736.909
179.125	15.866	962.703	736.829
180.140	15.904	962.149	736.505
181.154	16.033	961.837	736.766
182.169	16.124	961.352	736.729
183.183	16.153	960.640	736.244
184.198	16.270	959.882	736.107
185.213	16.153	959.140	734.965
186.227	16.266	958.640	735.006
187.242	16.327	957.733	734.511
188.256	16.307	957.293	734.022
189.271	16.159	956.723	732.879
190.286	16.102	955.639	731.735
191.300	15.936	954.541	730.113
192.315	15.757	953.913	728.788
193.329	15.832	953.363	728.629
194.344	15.930	952.688	728.473
195.359	15.948	952.329	728.213
196.373	16.196	951.431	728.532
197.388	16.192	951.336	728.379
198.402	16.399	950.599	728.640
199.417	16.330	950.152	727.939
200.432	16.509	949.392	728.060
201.446	16.561	948.943	727.878
202.461	16.641	948.641	727.923
203.475	16.381	948.307	726.487
204.490	16.472	946.878	725.717
205.504	16.274	946.377	724.419
206.519	16.164	945.905	723.524
207.534	16.363	944.497	723.236
208.548	16.428	944.167	723.195
209.563	16.449	943.288	722.547
210.577	16.410	942.556	721.756
211.592	16.490	942.300	721.840
212.607	16.585	941.294	721.409
213.621	16.558	940.450	720.584
214.636	16.499	939.825	719.791
215.650	16.584	939.137	719.561
216.665	16.675	938.289	719.233
217.680	16.663	937.559	718.560
218.694	16.694	937.034	718.224
219.709	16.601	936.618	717.449
220.723	16.732	935.640	717.191
221.738	16.716	935.165	716.697
222.753	16.629	934.273	715.580
223.767	16.638	933.719	715.130
224.782	16.767	933.423	715.387
225.796	16.900	932.787	715.394
226.811	16.785	932.031	714.269
227.826	16.724	931.366	713.441
228.840	16.627	930.098	711.998
229.855	16.673	929.646	711.783
230.869	16.738	928.898	711.420
231.884	16.660	928.404	710.648
232.899	16.565	927.866	709.776
233.913	16.615	926.908	709.192
234.928	16.561	926.298	708.436
235.942	16.561	925.518	707.774
236.957	16.603	925.114	707.580
237.972	16.594	924.611	707.093
238.986	16.782	923.441	706.919
240.001	16.670	923.076	706.110
241.015	16.664	922.521	705.601
242.030	16.747	921.835	705.359
243.045	16.720	921.397	704.848
244.059	16.823	920.702	704.684
245.074	16.917	919.846	704.358
246.088	16.949	919.375	704.065
247.103	16.943	918.832	703.562
248.117	17.146	918.115	703.792
249.132	17.156	917.690	703.445
250.147	17.302	917.371	703.743
251.161	17.252	916.966	703.165
252.176	17.271	916.103	702.520
253.190	17.381	915.303	702.298
254.205	17.360	914.658	701.653
255.220	17.339	913.973	700.978
256.234	17.366	912.944	700.240
257.249	17.384	912.672	700.045
258.263	17.477	911.634	699.565
259.278	17.382	910.992	698.621
260.293	17.347	910.699	698.192
261.307	17.455	910.397	698.344
262.322	17.491	909.230	697.532
263.336	17.544	908.536	697.157
264.351	17.530	908.062	696.673
265.366	17.694	907.123	696.562
266.380	17.637	906.777	696.002
267.395	17.617	905.742	695.062
268.409	17.602	905.018	694.384
269.424	17.487	904.329	693.325
270.439	17.507	903.786	692.930
271.453	17.408	903.106	691.945
272.468	17.353	903.121	691.672
273.482	17.444	902.126	691.218
274.497	17.451	901.393	690.623
275.512	17.526	900.824	690.430
276.526	17.381	900.336	689.407
277.541	17.542	899.834	689.616
278.555	17.609	899.141	689.295
279.570	17.733	898.354	689.132
280.585	17.683	897.687	688.356
281.599	17.737	896.959	687.956
282.614	17.621	896.403	687.001
283.628	17.574	895.694	686.205
284.643	17.497	895.377	685.594
285.657	17.616	894.533	685.364
286.672	17.685	893.655	684.907
287.687	17.716	892.562	684.135
288.701	17.658	892.836	684.052
289.716	17.650	892.132	683.419
290.730	17.675	891.585	683.041
291.745	17.713	890.679	682.438
292.760	17.832	890.055	682.374
293.774	17.788	889.494	681.709
294.789	17.871	888.649	681.334
295.803	17.812	888.182	680.680
296.818	17.717	887.496	679.713
297.833	17.797	886.847	679.477
298.847	17.799	885.667	678.518
299.862	17.946	885.559	678.962
300.876	18.040	884.953	678.811
301.891	17.994	884.233	678.015
302.906	18.024	883.731	677.688
303.920	18.126	883.508	677.864
304.935	18.133	882.862	677.334
305.949	18.134	881.916	676.553
306.964	18.046	881.546	675.861
307.979	18.091	881.050	675.597
308.993	18.156	880.535	675.400
310.008	18.186	879.565	674.716
311.022	18.107	878.973	673.890
312.037	17.919	878.529	672.749
313.052	17.953	877.674	672.168
314.066	18.025	877.039	671.905
315.081	17.835	876.661	670.811
316.095	17.907	876.333	670.781
317.110	17.950	875.395	670.174
318.125	18.073	874.812	670.151
319.139	18.009	874.365	669.499
320.154	18.014	873.684	668.936
321.168	18.031	873.393	668.720
322.183	17.946	873.123	668.123
323.197	17.999	872.194	667.561
324.212	18.112	871.651	667.526
325.227	18.171	870.777	667.028
326.241	18.011	870.365	666.029
327.256	17.979	869.866	665.463
328.270	18.067	869.510	665.476
329.285	17.999	868.478	664.362
330.300	18.076	868.012	664.247
331.314	18.065	867.407	663.683
332.329	18.123	867.234	663.716
333.343	18.265	866.822	663.894
334.358	18.372	866.261	663.821
335.373	18.373	865.873	663.469
336.387	18.320	865.634	663.019
337.402	18.455	865.361	663.275
338.416	18.350	864.885	662.444
339.431	18.439	864.675	662.571
340.446	18.590	863.996	662.576
341.460	18.497	864.221	662.330
342.475	18.646	863.510	662.302
343.489	18.561	863.130	661.622
344.504	18.647	862.353	661.301
345.519	18.594	862.042	660.799
346.533	18.736	861.567	660.923
347.548	18.618	860.810	659.831
348.562	18.568	860.174	659.091
349.577	18.488	859.940	658.549
350.592	18.479	858.824	657.601
351.606	18.492	857.432	656.524
352.621	18.389	857.334	655.999
353.635	18.507	856.848	656.021
354.650	18.427	856.493	655.385
355.665	18.567	855.612	655.187
356.679	18.741	855.004	655.327
357.694	18.661	854.444	654.534
358.708	18.649	853.869	653.992
359.723	18.725	852.950	653.520
360.738	18.737	852.526	653.182
361.752	18.812	851.714	652.786
362.767	18.867	851.020	652.406
363.781	19.034	850.499	652.581
364.796	18.898	850.609	652.093
365.810	19.051	850.047	652.182
366.825	19.112	849.536	651.964
367.840	19.003	849.292	651.306
368.854	18.916	848.789	650.536
369.869	18.872	848.536	650.118
370.883	18.908	847.710	649.564
371.898	18.972	847.561	649.631
372.913	19.091	847.319	649.839
373.927	18.964	846.728	648.850
374.942	19.111	846.209	648.949
375.956	19.079	845.507	648.231
376.971	19.291	844.997	648.580
377.986	19.294	844.682	648.294
379.000	19.189	844.337	647.575
380.015	19.376	843.225	647.370
381.029	19.326	842.906	646.881
382.044	19.245	842.454	646.171
383.059	19.279	841.659	645.631
384.073	19.263	841.028	645.029
385.088	19.192	840.557	644.348
386.102	19.132	840.249	643.829
387.117	19.053	839.560	642.949
388.132	18.942	839.047	642.086
389.146	19.156	838.199	642.176
390.161	19.330	837.672	642.366
391.175	19.246	837.369	641.763
392.190	19.276	836.665	641.279
393.205	19.146	836.332	640.484
394.219	19.303	835.859	640.648
395.234	19.066	835.767	639.639
396.248	19.065	835.099	639.069
397.263	19.005	834.786	638.548
398.278	19.141	834.082	638.457
399.292	19.075	833.775	637.922
400.307	19.015	833.580	637.493
401.321	19.219	832.654	637.486
402.336	19.137	832.341	636.884
403.350	19.357	831.776	637.208
404.365	19.217	831.400	636.349
405.380	19.478	830.543	636.599
406.394	19.550	830.296	636.620
407.409	19.671	829.912	636.713
408.423	19.621	829.380	636.066
409.438	19.772	829.079	636.333
410.453	19.728	828.735	635.852
411.467	19.735	828.380	635.548
412.482	19.769	827.913	635.259
413.496	19.689	827.936	634.928
414.511	19.793	827.367	634.814
415.526	19.659	826.999	633.985
416.540	19.767	826.321	633.806
417.555	19.658	825.739	632.905
418.569	19.690	825.538	632.810
419.584	19.813	824.755	632.605
420.599	19.820	824.216	632.162
421.613	150.633	1367.981	1769.658
422.628	131.249	1447.217	1769.819
