DTS Sentinel unit serial number:	SN413079Multiplexer serial number:	ORYXHardware model number:	OX4-SRSoftware version number:	ORYX F/W v4.00 Oryx Data Collector v3.7.2.0data status	okinstallation	princeton_trtdifferential loss correction	single-endedforward channel	channel 1reverse channel	N/Adate	2019/09/14time	13:06:35forward acquisition time	60.00reverse acquisition time	0.00gamma	496.2192k internal	0.2294k external	0.2294temperature offset calibration	1.0086default loss term (dB/km)	0.3790temperature slope calibration	1.0000multiplexer offset coefficient	1.0000multiplexer slope coefficient	1.0000fibre end	0.00T internal ref (°C)	37.94T ext. ref 1 (°C)	4.85T ext. ref 2 (°C)	33.31length (m)	temperature (°C)	Stokes	anti-Stokes-747.200	800.000	0.035	-0.102
-746.185	-107.036	-0.108	0.024
-745.171	-27.141	0.075	-0.045
-744.156	-7.193	-0.035	0.024
-743.142	6.096	0.351	-0.266
-742.127	244.845	0.070	0.120
-741.112	598.240	0.052	0.133
-740.098	-38.109	-0.177	-0.096
-739.083	800.000	0.036	-0.112
-738.069	-9.764	-0.157	-0.107
-737.054	-2.691	0.187	0.134
-736.039	-111.282	-0.246	0.051
-735.025	-175.717	0.174	-0.005
-734.010	39.908	-0.113	-0.103
-732.996	-155.977	0.123	0.008
-731.981	-112.188	-0.374	-0.077
-730.966	210.921	-0.065	0.104
-729.952	800.000	0.042	-0.158
-728.937	-163.534	0.265	-0.013
-727.923	-200.000	-0.038	-0.201
-726.908	800.000	-0.111	-0.399
-725.894	-135.535	-0.251	0.031
-724.879	-13.237	-0.336	-0.223
-723.864	-79.325	-0.192	-0.067
-722.850	316.866	-0.104	-0.200
-721.835	-200.000	-0.000	0.285
-720.821	-58.959	-0.172	0.076
-719.806	-191.831	0.080	-0.001
-718.791	-4.083	-0.137	-0.097
-717.777	-187.314	0.405	0.006
-716.762	-148.365	-0.042	0.004
-715.748	-200.000	0.009	-0.234
-714.733	-49.295	0.120	-0.058
-713.718	303.501	0.050	-0.094
-712.704	-200.000	-0.005	-0.034
-711.689	35.248	-0.216	-0.194
-710.675	800.000	0.054	-0.178
-709.660	637.018	-0.064	0.167
-708.645	-200.000	0.074	0.346
-707.631	13.812	-0.239	0.190
-706.616	-128.305	0.188	-0.027
-705.602	142.195	0.046	0.062
-704.587	-200.000	-0.012	0.160
-703.572	-69.161	0.151	-0.059
-702.558	-88.900	0.105	0.032
-701.543	11.770	0.176	0.138
-700.529	-200.000	-0.001	0.186
-699.514	-125.292	0.229	0.036
-698.499	-69.965	0.114	0.044
-697.485	-143.942	-0.176	0.017
-696.470	18.792	-0.054	0.045
-695.456	420.530	-0.125	-0.273
-694.441	-200.000	0.004	-0.037
-693.426	-93.118	-0.100	0.028
-692.412	-200.000	0.029	-0.193
-691.397	800.000	-0.007	0.023
-690.383	800.000	-0.042	-0.163
-689.368	419.607	-0.135	-0.294
-688.354	265.454	0.015	-0.027
-687.339	-51.778	-0.157	0.075
-686.324	-62.859	-0.292	-0.123
-685.310	562.304	-0.147	0.363
-684.295	-200.000	-0.010	-0.187
-683.281	-116.280	0.183	0.035
-682.266	-54.442	-0.085	0.039
-681.251	287.838	-0.071	0.130
-680.237	-66.497	0.129	-0.052
-679.222	-200.000	0.014	-0.071
-678.208	217.119	0.059	-0.097
-677.193	-200.000	0.004	0.090
-676.178	82.101	-0.225	0.249
-675.164	-59.384	-0.376	-0.165
-674.149	67.096	0.169	-0.176
-673.135	-72.096	0.217	-0.082
-672.120	-14.310	0.097	-0.063
-671.105	67.560	-0.154	-0.160
-670.091	800.000	-0.011	-0.041
-669.076	-52.618	-0.258	0.122
-668.062	-112.990	0.129	-0.026
-667.047	-63.950	-0.175	0.073
-666.032	800.000	0.068	-0.256
-665.018	-38.710	-0.127	-0.069
-664.003	-200.000	-0.041	-0.192
-662.989	23.205	0.215	-0.180
-661.974	-67.965	0.305	-0.121
-660.959	287.761	-0.123	0.227
-659.945	320.921	0.223	0.431
-658.930	800.000	0.049	-0.184
-657.916	-17.817	0.070	0.045
-656.901	-107.144	0.241	-0.054
-655.886	800.000	-0.057	-0.167
-654.872	304.019	-0.066	-0.124
-653.857	448.144	-0.009	0.021
-652.843	196.891	0.164	0.255
-651.828	74.923	-0.078	-0.084
-650.814	-104.764	-0.236	-0.055
-649.799	-85.933	-0.123	-0.039
-648.784	-32.617	-0.044	0.025
-647.770	-128.162	-0.319	0.046
-646.755	-53.827	-0.149	-0.069
-645.741	-71.727	0.184	0.070
-644.726	-50.137	-0.291	0.141
-643.711	-179.090	-0.363	0.008
-642.697	315.969	0.053	0.101
-641.682	-86.765	0.418	-0.130
-640.668	-143.648	0.182	0.018
-639.653	1.640	-0.276	0.203
-638.638	10.961	-0.054	0.042
-637.624	72.348	-0.172	0.183
-636.609	215.667	-0.149	-0.241
-635.595	-200.000	-0.022	0.149
-634.580	-200.000	0.042	0.219
-633.565	465.057	0.095	-0.217
-632.551	-18.426	-0.400	-0.255
-631.536	-57.577	-0.257	-0.115
-630.522	-36.950	0.063	-0.035
-629.507	4.912	0.095	-0.071
-628.492	-74.814	0.329	0.120
-627.478	-66.348	0.096	-0.039
-626.463	-187.533	0.398	-0.005
-625.449	-200.000	-0.012	0.183
-624.434	281.941	-0.145	-0.265
-623.419	158.959	-0.115	-0.163
-622.405	180.560	0.127	0.190
-621.390	57.800	0.159	0.158
-620.376	800.000	-0.038	-0.129
-619.361	244.133	0.185	0.315
-618.346	-93.395	-0.167	0.047
-617.332	800.000	-0.034	0.135
-616.317	379.428	0.142	0.296
-615.303	-118.539	-0.170	0.031
-614.288	-200.000	-0.041	-0.225
-613.273	-40.563	0.154	0.082
-612.259	5.562	-0.196	-0.147
-611.244	-140.635	0.121	0.013
-610.230	-96.365	0.041	0.011
-609.215	-15.000	0.117	0.076
-608.201	573.553	-0.035	0.087
-607.186	6.077	-0.085	0.064
-606.171	421.158	0.078	0.169
-605.157	-156.444	0.195	-0.012
-604.142	-200.000	-0.011	0.051
-603.128	43.043	0.304	-0.282
-602.113	64.220	0.057	0.058
-601.098	-163.732	-0.277	-0.013
-600.084	502.878	-0.134	-0.315
-599.069	-78.702	-0.290	0.101
-598.055	-93.574	-0.030	0.008
-597.040	-200.000	0.045	0.303
-596.025	-200.000	-0.043	0.208
-595.011	800.000	0.088	-0.265
-593.996	-142.920	0.198	0.020
-592.982	-129.713	-0.060	-0.008
-591.967	437.813	-0.130	0.288
-590.952	-200.000	-0.039	-0.222
-589.938	-43.338	-0.115	0.059
-588.923	655.521	-0.069	-0.181
-587.909	-39.017	-0.096	-0.051
-586.894	-200.000	0.004	-0.053
-585.879	-70.034	0.403	-0.156
-584.865	-146.937	-0.317	-0.028
-583.850	-200.000	-0.006	0.297
-582.836	-51.055	-0.356	0.170
-581.821	-200.000	0.026	0.362
-580.806	343.996	-0.175	0.349
-579.792	-200.000	-0.058	0.368
-578.777	-88.995	0.217	0.065
-577.763	178.697	-0.188	-0.278
-576.748	102.032	-0.120	-0.142
-575.733	83.774	0.179	-0.198
-574.719	800.000	0.054	-0.155
-573.704	-71.749	-0.335	-0.127
-572.690	-118.472	-0.195	0.035
-571.675	-116.694	0.379	0.071
-570.661	52.134	-0.140	0.135
-569.646	-3.273	-0.062	-0.044
-568.631	-157.975	-0.214	-0.013
-567.617	295.989	-0.138	0.257
-566.602	87.262	0.190	0.213
-565.588	13.240	-0.181	-0.142
-564.573	-200.000	0.011	0.270
-563.558	800.000	0.031	0.118
-562.544	126.942	0.155	0.199
-561.529	-92.300	-0.021	0.006
-560.515	59.482	-0.253	-0.253
-559.500	74.497	-0.165	-0.176
-558.485	-200.000	0.029	0.308
-557.471	-200.000	-0.017	0.232
-556.456	-200.000	0.024	-0.176
-555.442	-200.000	0.044	-0.261
-554.427	46.897	-0.190	0.179
-553.412	-74.344	0.400	0.147
-552.398	164.805	-0.072	0.103
-551.383	278.806	-0.147	-0.265
-550.369	-35.713	0.116	-0.064
-549.354	800.000	-0.072	0.207
-548.339	336.552	-0.072	-0.141
-547.325	300.554	-0.135	-0.252
-546.310	14.386	-0.068	0.054
-545.296	699.624	0.012	0.032
-544.281	-110.041	-0.303	-0.064
-543.266	800.000	-0.106	0.464
-542.252	-200.000	0.008	0.200
-541.237	-200.000	0.005	0.195
-540.223	-104.358	-0.270	-0.063
-539.208	-181.210	0.261	-0.005
-538.193	-200.000	0.083	0.374
-537.179	-140.252	-0.231	-0.025
-536.164	-3.535	0.307	-0.216
-535.150	-200.000	0.049	0.273
-534.135	-192.804	0.253	0.002
-533.121	-124.661	-0.098	-0.015
-532.106	800.000	-0.027	0.118
-531.091	-68.965	-0.323	-0.126
-530.077	-200.000	-0.004	0.084
-529.062	-59.947	-0.191	0.083
-528.048	800.000	-0.073	0.215
-527.033	-138.183	0.039	0.004
-526.018	-200.000	0.006	0.038
-525.004	-3.859	-0.400	-0.281
-523.989	688.725	-0.047	-0.126
-522.975	-200.000	0.034	-0.215
-521.960	-93.624	0.137	-0.038
-520.945	-7.623	0.323	0.222
-519.931	539.815	-0.080	0.193
-518.916	800.000	0.033	-0.120
-517.902	49.773	-0.125	-0.119
-516.887	-47.152	0.269	-0.133
-515.872	-97.502	0.221	-0.058
-514.858	800.000	0.110	0.413
-513.843	-124.639	-0.220	0.035
-512.829	41.733	0.073	-0.067
-511.814	10.238	0.246	-0.189
-510.799	180.844	0.167	-0.248
-509.785	69.976	0.072	-0.075
-508.770	-200.000	0.033	0.149
-507.756	768.965	0.037	-0.101
-506.741	146.169	0.077	0.105
-505.726	-200.000	-0.013	0.228
-504.712	553.159	0.044	-0.108
-503.697	-59.651	-0.195	-0.085
-502.683	-89.178	-0.137	-0.041
-501.668	-160.589	0.155	-0.008
-500.653	-93.246	-0.369	-0.104
-499.639	-200.000	-0.020	0.160
-498.624	-200.000	0.021	0.139
-497.610	308.970	-0.236	-0.447
-496.595	-5.059	0.290	0.202
-495.581	-169.915	-0.392	0.014
-494.566	800.000	-0.074	-0.211
-493.551	-112.360	-0.161	-0.033
-492.537	118.477	0.207	-0.259
-491.522	271.133	0.165	-0.295
-490.508	-103.991	-0.203	0.048
-489.493	-129.463	-0.245	-0.034
-488.478	-200.000	-0.031	-0.175
-487.464	62.031	0.220	-0.222
-486.449	-95.074	0.261	-0.071
-485.435	-73.162	0.368	-0.137
-484.420	-12.725	-0.123	-0.081
-483.405	-99.056	-0.253	-0.065
-482.391	-22.260	-0.189	-0.116
-481.376	-200.000	-0.038	0.195
-480.362	-200.000	-0.005	-0.161
-479.347	270.161	0.204	-0.363
-478.332	800.000	0.095	-0.281
-477.318	-49.499	-0.081	0.039
-476.303	68.913	0.101	-0.105
-475.289	-200.000	0.001	-0.269
-474.274	-200.000	0.040	-0.232
-473.259	-115.217	-0.219	-0.042
-472.245	-82.068	0.172	-0.057
-471.230	-62.549	-0.163	-0.069
-470.216	139.711	-0.095	0.126
-469.201	-170.834	-0.144	0.005
-468.186	78.505	0.238	-0.257
-467.172	7.162	0.152	0.115
-466.157	-133.357	0.207	-0.026
-465.143	800.000	0.048	-0.136
-464.128	225.778	0.138	0.226
-463.113	-200.000	0.061	0.492
-462.099	-55.430	0.252	-0.114
-461.084	116.645	-0.091	-0.113
-460.070	63.218	0.020	-0.020
-459.055	53.112	0.263	-0.254
-458.040	-200.000	-0.017	0.094
-457.026	45.228	0.140	0.130
-456.011	195.039	-0.159	0.245
-454.997	167.907	-0.026	0.038
-453.982	24.430	0.218	-0.182
-452.968	-14.727	-0.214	-0.139
-451.953	165.486	0.240	0.343
-450.938	-200.000	0.032	0.163
-449.924	13.701	0.192	0.151
-448.909	18.992	0.212	-0.171
-447.895	-149.977	-0.380	0.030
-446.880	297.032	0.117	0.217
-445.865	-37.936	0.320	-0.172
-444.851	-9.916	-0.133	-0.089
-443.836	159.787	0.144	0.203
-442.822	6.965	-0.160	-0.121
-441.807	-200.000	0.058	-0.286
-440.792	6.807	0.141	-0.106
-439.778	-55.350	-0.149	-0.067
-438.763	98.344	-0.102	-0.118
-437.749	130.454	-0.134	0.174
-436.734	524.144	-0.029	-0.068
-435.719	800.000	-0.055	0.176
-434.705	253.871	0.093	-0.160
-433.690	-180.017	-0.162	-0.003
-432.676	166.215	0.389	-0.557
-431.661	-43.210	0.085	-0.044
-430.646	-200.000	0.009	-0.439
-429.632	463.858	-0.064	0.145
-428.617	-49.814	0.430	0.207
-427.603	394.742	0.078	-0.164
-426.588	-61.374	-0.202	0.086
-425.573	-200.000	0.016	-0.251
-424.559	331.624	-0.041	-0.079
-423.544	32.627	-0.170	-0.149
-422.530	-68.581	-0.438	0.171
-421.515	-200.000	-0.015	-0.430
-420.500	800.000	0.069	-0.251
-419.486	73.073	0.160	-0.169
-418.471	-200.000	0.032	-0.170
-417.457	170.429	0.158	0.229
-416.442	320.817	0.232	0.445
-415.428	-200.000	-0.016	0.091
-414.413	280.574	-0.056	0.100
-413.398	4.863	-0.296	-0.220
-412.384	120.506	0.041	0.051
-411.369	-111.197	-0.196	-0.040
-410.355	-42.966	-0.441	-0.226
-409.340	-72.052	0.252	-0.095
-408.325	250.705	-0.083	-0.142
-407.311	-200.000	0.064	-0.305
-406.296	185.429	0.025	0.037
-405.282	-46.012	-0.359	-0.179
-404.267	42.259	0.246	0.226
-403.252	-57.335	0.215	0.095
-402.238	-126.507	0.103	-0.015
-401.223	502.397	-0.081	0.190
-400.209	-200.000	0.064	0.297
-399.194	800.000	0.086	0.343
-398.179	800.000	-0.031	-0.121
-397.165	709.137	-0.013	-0.035
-396.150	800.000	-0.110	0.402
-395.136	-58.633	-0.195	-0.085
-394.121	9.710	-0.032	-0.025
-393.106	-200.000	-0.008	0.142
-392.092	-115.014	-0.176	0.034
-391.077	800.000	-0.074	-0.226
-390.063	175.328	0.222	-0.324
-389.048	-200.000	0.018	0.256
-388.033	-124.842	0.092	0.014
-387.019	-87.927	-0.204	0.062
-386.004	37.952	0.050	0.045
-384.990	91.149	-0.035	-0.039
-383.975	1.714	-0.185	-0.134
-382.960	800.000	-0.037	-0.105
-381.946	-116.644	-0.139	0.026
-380.931	800.000	-0.024	-0.081
-379.917	-85.893	-0.161	-0.050
-378.902	800.000	0.117	0.360
-377.888	-200.000	0.009	-0.245
-376.873	258.756	0.220	-0.382
-375.858	-200.000	-0.040	-0.336
-374.844	443.835	0.064	-0.141
-373.829	-200.000	0.039	0.191
-372.815	-200.000	0.013	0.099
-371.800	-200.000	-0.017	0.364
-370.785	73.588	0.179	0.189
-369.771	548.764	0.110	0.267
-368.756	119.839	-0.140	0.174
-367.742	800.000	0.141	-0.414
-366.727	276.025	0.126	0.226
-365.712	112.307	-0.163	-0.198
-364.698	800.000	0.029	-0.119
-363.683	-200.000	-0.010	0.152
-362.669	800.000	-0.023	0.071
-361.654	107.175	0.166	0.199
-360.639	78.092	-0.097	-0.104
-359.625	-200.000	0.028	0.306
-358.610	-146.390	0.362	-0.032
-357.596	45.751	-0.220	0.205
-356.581	-0.267	-0.365	-0.262
-355.566	51.338	0.375	-0.359
-354.552	-65.278	-0.108	0.044
-353.537	78.788	0.105	-0.114
-352.523	-200.000	-0.014	0.232
-351.508	800.000	-0.023	0.090
-350.493	-200.000	-0.045	-0.214
-349.479	-200.000	0.025	-0.124
-348.464	51.602	0.070	-0.067
-347.450	-60.287	0.198	-0.085
-346.435	-51.879	-0.279	0.131
-345.420	57.193	-0.075	0.074
-344.406	106.415	-0.179	-0.214
-343.391	332.978	0.115	-0.225
-342.377	21.920	0.096	0.079
-341.362	61.087	0.170	0.170
-340.348	-15.755	-0.253	0.162
-339.333	154.675	0.220	-0.305
-338.318	-11.414	0.153	0.101
-337.304	-74.083	0.076	0.028
-336.289	-48.628	0.294	0.142
-335.275	170.114	-0.068	-0.099
-334.260	-200.000	-0.062	0.290
-333.245	250.364	-0.039	-0.066
-332.231	43.468	-0.217	-0.200
-331.216	320.502	-0.190	-0.363
-330.202	-200.000	-0.019	0.217
-329.187	-95.228	0.295	-0.080
-328.172	74.256	-0.211	-0.223
-327.158	-45.251	0.176	-0.088
-326.143	-200.000	0.033	-0.320
-325.129	-104.486	0.182	-0.042
-324.114	-167.699	0.106	-0.004
-323.099	800.000	0.033	-0.096
-322.085	800.000	-0.066	0.238
-321.070	771.668	0.107	0.294
-320.056	-1.087	-0.308	-0.219
-319.041	149.768	-0.211	-0.288
-318.026	-200.000	0.064	0.283
-317.012	-101.239	0.099	-0.024
-315.997	68.311	-0.102	-0.105
-314.983	53.596	-0.085	0.082
-313.968	-193.829	-0.117	0.001
-312.953	-143.977	-0.112	-0.011
-311.939	415.149	0.020	-0.043
-310.924	-200.000	0.024	0.161
-309.910	322.087	0.035	0.068
-308.895	-107.253	0.198	-0.044
-307.880	190.657	-0.170	0.257
-306.866	85.175	-0.199	-0.219
-305.851	-200.000	-0.010	-0.073
-304.837	800.000	-0.072	0.249
-303.822	353.279	-0.180	0.359
-302.807	-200.000	-0.026	-0.170
-301.793	84.351	0.073	-0.080
-300.778	-200.000	-0.034	0.277
-299.764	-24.498	0.145	-0.087
-298.749	-53.512	0.181	-0.083
-297.735	320.665	0.051	0.098
-296.720	-164.833	0.198	-0.009
-295.705	736.794	-0.071	0.191
-294.691	800.000	-0.051	0.213
-293.676	-47.637	-0.399	0.194
-292.662	-63.398	-0.160	-0.066
-291.647	-81.837	0.224	-0.074
-290.632	-200.000	0.014	0.322
-289.618	-110.898	0.199	-0.041
-288.603	60.275	-0.228	-0.226
-287.589	146.222	-0.123	0.166
-286.574	146.543	-0.115	0.155
-285.559	-70.983	-0.236	0.089
-284.545	-18.459	0.110	0.069
-283.530	-111.944	0.205	-0.042
-282.516	18.390	0.142	-0.114
-281.501	-127.979	0.216	0.031
-280.486	12.330	0.081	-0.063
-279.472	-52.694	-0.051	0.024
-278.457	-111.478	0.142	-0.029
-277.443	-122.574	0.243	0.040
-276.428	61.957	-0.103	-0.103
-275.413	181.659	-0.219	-0.324
-274.399	-45.109	0.313	0.156
-273.384	-69.638	0.192	0.074
-272.370	446.135	-0.090	-0.198
-271.355	-104.681	0.201	-0.046
-270.340	112.704	0.083	0.101
-269.326	-5.072	0.049	-0.034
-268.311	25.496	-0.114	0.095
-267.297	-177.072	0.051	0.001
-266.282	-138.427	0.180	-0.020
-265.267	800.000	-0.096	-0.331
-264.253	-200.000	-0.004	-0.202
-263.238	-110.758	0.094	-0.019
-262.224	-24.493	0.336	0.201
-261.209	-138.913	-0.031	0.003
-260.195	494.573	0.125	-0.288
-259.180	-86.004	0.166	0.051
-258.165	393.030	-0.139	-0.290
-257.151	-200.000	0.015	0.243
-256.136	-74.132	-0.272	0.099
-255.122	-200.000	0.004	-0.097
-254.107	-164.399	0.245	0.011
-253.092	394.304	-0.090	-0.187
-252.078	-96.508	-0.163	-0.043
-251.063	-112.211	-0.205	-0.041
-250.049	-200.000	-0.012	0.234
-249.034	-69.116	-0.118	0.045
-248.019	-126.378	0.158	-0.024
-247.005	305.730	-0.047	0.087
-245.990	5.474	-0.012	-0.009
-244.976	6.609	-0.096	-0.071
-243.961	172.643	0.229	0.330
-242.946	-97.424	-0.089	0.023
-241.932	800.000	0.047	0.150
-240.917	-91.149	0.380	0.109
-239.903	-22.910	-0.125	-0.075
-238.888	-200.000	-0.013	0.187
-237.873	-114.290	-0.090	-0.017
-236.859	121.365	0.068	0.085
-235.844	800.000	-0.101	0.364
-234.830	344.880	-0.085	0.168
-233.815	-110.485	0.192	-0.040
-232.800	800.000	0.084	0.280
-231.786	133.200	0.133	0.172
-230.771	8.832	-0.185	-0.140
-229.757	-9.351	0.057	-0.038
-228.742	800.000	-0.070	-0.278
-227.727	-83.246	-0.082	-0.026
-226.713	-121.897	-0.139	0.023
-225.698	240.536	0.210	0.350
-224.684	-200.000	0.023	0.171
-223.669	-46.237	0.262	-0.129
-222.655	580.964	-0.096	-0.235
-221.640	-200.000	-0.017	0.103
-220.625	-96.510	-0.271	-0.072
-219.611	-99.304	0.259	-0.065
-218.596	399.269	0.077	-0.162
-217.582	-200.000	-0.001	-0.066
-216.567	1.866	0.062	-0.045
-215.552	-200.000	-0.019	-0.133
-214.538	223.413	0.083	0.133
-213.523	-45.344	-0.231	0.115
-212.509	-94.404	0.140	0.038
-211.494	260.587	0.121	0.209
-210.479	-59.850	0.071	0.030
-209.465	-59.401	-0.215	-0.093
-208.450	-200.000	0.006	-0.259
-207.436	800.000	0.011	0.042
-206.421	83.859	0.064	-0.070
-205.406	800.000	-0.043	0.146
-204.392	442.220	0.079	0.173
-203.377	257.290	0.030	-0.052
-202.363	-81.956	-0.153	-0.050
-201.348	-7.688	0.036	-0.024
-200.333	90.732	-0.176	0.197
-199.319	184.103	-0.159	0.236
-198.304	-127.558	0.292	-0.042
-197.290	-98.734	-0.165	0.042
-196.275	-33.804	-0.171	-0.095
-195.260	-46.899	0.206	-0.101
-194.246	319.381	0.079	0.151
-193.231	-109.741	0.069	0.015
-192.217	67.334	-0.084	-0.085
-191.202	-82.908	0.314	-0.101
-190.187	323.548	-0.077	0.148
-189.173	-200.000	-0.069	0.324
-188.158	40.426	-0.031	0.028
-187.144	-27.568	-0.239	0.139
-186.129	-6.011	0.197	0.135
-185.114	-200.000	0.067	-0.352
-184.100	-26.901	0.270	-0.158
-183.085	-143.484	-0.303	0.029
-182.071	59.013	0.142	-0.140
-181.056	60.816	-0.251	-0.249
-180.042	560.839	0.098	-0.238
-179.027	40.190	0.197	-0.177
-178.012	86.254	0.115	-0.127
-176.998	-150.875	-0.233	0.018
-175.983	-200.000	0.003	0.017
-174.969	800.000	-0.023	-0.081
-173.954	800.000	0.026	0.085
-172.939	-198.550	-0.191	-0.001
-171.925	204.120	0.145	-0.224
-170.910	155.199	-0.170	0.233
-169.896	688.435	-0.031	0.081
-168.881	-101.612	0.172	-0.042
-167.866	14.084	-0.300	0.233
-166.852	-200.000	-0.005	-0.299
-165.837	-54.799	-0.419	0.189
-164.823	-114.070	0.439	-0.085
-163.808	48.062	0.034	0.032
-162.793	-84.653	-0.334	-0.105
-161.779	-53.661	-0.060	-0.027
-160.764	-105.558	0.047	0.011
-159.750	-4.266	0.248	-0.172
-158.735	-131.493	0.207	0.027
-157.720	109.798	0.191	0.229
-156.706	800.000	0.096	0.341
-155.691	171.111	0.167	-0.239
-154.677	351.274	-0.127	0.251
-153.662	-104.196	-0.014	0.003
-152.647	189.523	-0.148	0.222
-151.633	309.953	0.112	-0.210
-150.618	-200.000	0.023	-0.115
-149.604	296.762	0.059	0.108
-148.589	24.532	-0.227	0.188
-147.574	215.331	-0.076	0.120
-146.560	-32.888	0.287	0.159
-145.545	800.000	-0.095	-0.335
-144.531	-103.346	0.157	-0.037
-143.516	-200.000	-0.005	-0.138
-142.502	-19.955	0.129	-0.080
-141.487	-200.000	0.034	0.261
-140.472	612.975	0.172	0.431
-139.458	41.351	0.198	0.179
-138.443	-175.962	0.388	-0.010
-137.429	26.042	-0.116	-0.097
-136.414	1.375	0.167	-0.120
-135.399	-200.000	0.017	0.265
-134.385	800.000	0.052	0.198
-133.370	-140.893	0.034	-0.003
-132.356	-166.283	0.348	0.015
-131.341	-6.807	0.254	-0.172
-130.326	-182.107	0.275	0.005
-129.312	440.042	0.024	-0.052
-128.297	-200.000	-0.035	0.167
-127.283	-200.000	-0.120	0.534
-126.268	-13.671	-0.409	0.264
-125.253	87.786	0.082	-0.091
-124.239	-134.816	-0.054	-0.007
-123.224	800.000	-0.005	-0.017
-122.210	-200.000	-0.042	-0.252
-121.195	113.825	0.195	0.236
-120.180	-200.000	-0.009	-0.268
-119.166	-86.557	-0.284	-0.087
-118.151	16.334	0.296	0.233
-117.137	800.000	0.093	0.256
-116.122	276.545	0.109	-0.193
-115.107	206.660	0.064	0.099
-114.093	636.558	-0.070	0.177
-113.078	-59.232	-0.299	-0.129
-112.064	392.425	-0.089	0.184
-111.049	-200.000	-0.019	0.168
-110.034	31.033	-0.229	-0.196
-109.020	-123.291	0.064	0.010
-108.005	41.948	0.103	0.093
-106.991	186.466	-0.055	0.081
-105.976	289.692	-0.129	0.234
-104.962	14.552	0.105	0.082
-103.947	53.676	0.262	-0.251
-102.932	0.198	0.060	0.042
-101.918	741.473	0.087	0.233
-100.903	29.755	-0.292	-0.248
-99.889	62.875	0.187	0.186
-98.874	107.459	0.128	0.152
-97.859	24.188	-0.238	0.196
-96.845	-6.497	-0.281	-0.191
-95.830	800.000	0.098	0.279
-94.816	-200.000	-0.005	0.090
-93.801	20.413	0.191	0.154
-92.786	41.072	0.058	-0.053
-91.772	120.458	-0.286	0.354
-90.757	712.960	0.027	-0.071
-89.743	800.000	-0.048	0.136
-88.728	-200.000	-0.022	0.483
-87.713	-45.439	0.327	0.162
-86.699	-153.266	-0.270	0.019
-85.684	-128.243	-0.362	0.051
-84.670	49.077	0.263	0.246
-83.655	502.499	0.189	-0.436
-82.640	800.000	0.057	-0.204
-81.626	87.202	0.162	-0.178
-80.611	-192.890	-0.159	0.001
-79.597	-71.583	-0.619	0.230
-78.582	209.205	0.241	0.376
-77.567	-148.271	-0.161	0.013
-76.553	-84.443	-0.413	-0.130
-75.538	356.144	0.046	0.091
-74.524	800.000	0.148	-0.566
-73.509	-73.748	-0.213	-0.077
-72.494	-92.417	0.283	0.079
-71.480	-114.830	-0.187	0.036
-70.465	-108.024	0.384	0.083
-69.451	-63.662	0.125	-0.051
-68.436	800.000	0.057	-0.157
-67.422	-200.000	-0.019	-0.089
-66.407	-75.764	0.088	-0.031
-65.392	-200.000	-0.010	0.314
-64.378	-20.973	-0.212	0.129
-63.363	56.220	0.229	0.222
-62.349	110.966	-0.045	0.054
-61.334	23.895	-0.994	-0.816
-60.319	12.992	0.324	0.250
-59.305	-200.000	-0.017	-0.763
-58.290	121.432	0.669	0.830
-57.276	714.944	0.658	1.738
-56.261	-200.000	86.114	498.368
-55.246	516.750	1398.677	3255.219
-54.232	180.290	2620.084	3825.770
-53.217	118.444	2241.080	2752.855
-52.203	48.827	1684.859	1573.555
-51.188	41.293	1414.332	1272.959
-50.173	37.974	1369.909	1212.350
-49.159	56.488	1412.162	1366.802
-48.144	61.182	1430.584	1414.156
-47.130	41.852	1388.850	1253.333
-46.115	38.039	1371.726	1214.170
-45.100	37.839	1367.099	1208.782
-44.086	37.768	1364.696	1206.171
-43.071	37.719	1361.866	1203.322
-42.057	37.695	1360.018	1201.491
-41.042	37.766	1357.969	1200.073
-40.027	37.823	1356.784	1199.326
-39.013	37.774	1354.571	1197.021
-37.998	37.782	1353.034	1195.662
-36.984	37.885	1350.783	1194.258
-35.969	37.885	1349.418	1193.004
-34.954	37.962	1347.198	1191.464
-33.940	37.983	1345.864	1190.370
-32.925	38.028	1344.404	1189.301
-31.911	38.086	1343.083	1188.439
-30.896	37.969	1341.708	1186.467
-29.881	38.059	1340.130	1185.569
-28.867	38.064	1338.831	1184.401
-27.852	38.019	1337.476	1182.886
-26.838	38.057	1336.105	1181.855
-25.823	38.024	1334.643	1180.316
-24.809	37.959	1333.512	1178.877
-23.794	38.019	1331.834	1177.706
-22.779	38.086	1329.962	1176.409
-21.765	38.035	1329.046	1175.244
-20.750	37.963	1327.886	1173.738
-19.736	38.013	1326.108	1172.422
-18.721	38.022	1324.844	1171.312
-17.706	37.925	1323.711	1169.682
-16.692	37.920	1322.724	1168.734
-15.677	37.865	1321.353	1167.145
-14.663	37.964	1320.217	1166.688
-13.648	37.932	1318.910	1165.299
-12.633	37.881	1318.196	1164.314
-11.619	37.887	1317.300	1163.515
-10.604	37.873	1316.496	1162.676
-9.590	37.818	1315.568	1161.478
-8.575	37.980	1314.013	1161.022
-7.560	37.813	1313.660	1159.672
-6.546	37.735	1313.242	1158.793
-5.531	37.844	1311.666	1158.006
-4.517	37.796	1311.117	1157.192
-3.502	37.878	1309.847	1156.509
-2.487	37.799	1309.043	1155.287
-1.473	37.884	1305.002	1152.176
-0.458	36.622	1289.487	1131.057
0.556	33.426	1268.601	1086.647
1.571	29.045	1271.720	1063.956
2.586	27.412	1285.985	1066.244
3.600	25.830	1273.837	1046.893
4.615	19.216	1197.326	947.667
5.629	9.674	1116.241	834.248
6.644	5.021	1093.454	793.511
7.659	4.655	1091.026	789.818
8.673	4.873	1089.753	789.934
9.688	4.861	1088.589	788.962
10.702	4.993	1086.990	788.398
11.717	10.440	1095.091	821.888
12.731	18.893	1107.270	874.126
13.746	21.252	1109.402	887.736
14.761	19.829	1107.113	878.601
15.775	18.808	1105.083	871.736
16.790	17.697	1103.105	864.466
17.804	17.018	1101.396	859.613
18.819	16.684	1100.223	856.930
19.834	16.498	1098.806	854.814
20.848	16.314	1098.324	853.430
21.863	16.128	1096.997	851.387
22.877	15.948	1096.513	850.024
23.892	15.991	1095.874	849.670
24.907	15.817	1095.579	848.490
25.921	15.969	1093.989	847.952
26.936	16.044	1092.823	847.351
27.950	16.022	1091.304	845.987
28.965	16.182	1089.598	845.389
29.980	16.264	1088.135	844.590
30.994	16.223	1087.477	843.801
32.009	16.194	1086.062	842.482
33.023	16.263	1084.864	841.822
34.038	16.152	1083.961	840.492
35.053	16.013	1083.143	839.094
36.067	16.117	1082.068	838.704
37.082	16.095	1081.432	838.026
38.096	16.153	1080.522	837.536
39.111	16.114	1079.834	836.738
40.126	16.021	1078.471	835.144
41.140	15.852	1077.167	833.226
42.155	15.726	1075.693	831.389
43.169	15.824	1074.394	830.796
44.184	15.732	1073.654	829.695
45.199	15.758	1072.650	828.975
46.213	15.812	1071.219	828.060
47.228	15.983	1070.113	827.973
48.242	16.061	1069.355	827.695
49.257	15.915	1068.194	826.009
50.271	16.078	1067.238	825.993
51.286	16.052	1066.577	825.282
52.301	16.014	1065.483	824.178
53.315	15.932	1064.581	823.007
54.330	15.751	1064.109	821.683
55.344	15.791	1062.189	820.322
56.359	15.934	1061.630	820.518
57.374	15.854	1060.436	819.131
58.388	15.872	1059.455	818.386
59.403	15.768	1059.125	817.557
60.417	15.669	1058.450	816.480
61.432	15.773	1057.348	816.066
62.447	15.606	1056.930	814.858
63.461	15.679	1055.786	814.257
64.476	15.539	1054.728	812.691
65.490	15.715	1053.716	812.691
66.505	15.674	1053.342	812.135
67.520	15.594	1052.829	811.281
68.534	15.668	1052.182	811.067
69.549	15.715	1050.867	810.207
70.563	15.768	1050.111	809.807
71.578	15.626	1049.376	808.488
72.593	15.612	1048.285	807.508
73.607	15.467	1047.938	806.470
74.622	15.504	1047.352	806.127
75.636	15.527	1046.965	805.867
76.651	15.628	1045.757	805.353
77.666	15.704	1044.826	804.925
78.680	15.576	1044.649	804.107
79.695	15.648	1043.747	803.687
80.709	15.786	1043.060	803.746
81.724	15.801	1042.522	803.332
82.739	15.830	1041.573	802.669
83.753	16.029	1040.916	803.036
84.768	16.156	1040.272	803.072
85.782	16.218	1039.234	802.498
86.797	16.170	1038.502	801.632
87.812	16.089	1037.097	800.093
88.826	16.005	1036.289	798.998
89.841	16.129	1035.387	798.823
90.855	16.167	1034.428	798.189
91.870	16.374	1033.257	798.194
92.884	16.215	1032.538	796.820
93.899	16.258	1031.945	796.492
94.914	16.279	1031.401	796.102
95.928	16.270	1030.388	795.207
96.943	16.246	1029.466	794.313
97.957	16.125	1028.415	792.863
98.972	16.121	1027.795	792.297
99.987	16.090	1027.155	791.587
101.001	16.206	1025.721	790.955
102.016	16.020	1025.095	789.531
103.030	16.268	1023.822	789.641
104.045	16.137	1023.447	788.670
105.060	16.138	1022.395	787.791
106.074	15.917	1021.523	786.023
107.089	15.866	1020.330	784.796
108.103	15.748	1019.121	783.244
109.118	15.735	1018.261	782.456
110.133	15.699	1017.680	781.774
111.147	15.753	1016.669	781.179
112.162	15.942	1015.427	781.033
113.176	15.914	1014.785	780.336
114.191	15.992	1013.906	779.955
115.206	15.946	1013.287	779.196
116.220	15.899	1012.392	778.221
117.235	15.799	1011.631	777.107
118.249	15.867	1010.797	776.711
119.264	15.816	1010.220	775.965
120.279	15.852	1008.773	774.950
121.293	15.856	1008.231	774.482
122.308	15.753	1007.783	773.598
123.322	15.678	1006.720	772.366
124.337	15.777	1005.623	771.914
125.352	15.601	1004.815	770.414
126.366	15.673	1003.527	769.690
127.381	15.808	1002.355	769.342
128.395	15.816	1001.249	768.462
129.410	15.760	1000.553	767.601
130.424	15.845	999.931	767.444
131.439	15.903	998.779	766.756
132.454	15.964	998.392	766.670
133.468	16.012	997.551	766.176
134.483	15.930	997.077	765.370
135.497	16.136	995.515	765.037
136.512	15.984	994.927	763.831
137.527	15.966	994.153	763.085
138.541	16.043	993.636	762.969
139.556	15.999	993.142	762.323
140.570	16.238	992.221	762.629
141.585	16.090	991.742	761.527
142.600	16.230	990.503	761.140
143.614	16.248	989.696	760.532
144.629	16.375	988.897	760.424
145.643	16.421	987.596	759.560
146.658	16.165	986.611	757.585
147.673	16.117	985.813	756.694
148.687	15.952	985.069	755.314
149.702	15.957	984.084	754.515
150.716	15.949	983.023	753.597
151.731	15.927	982.536	753.062
152.746	15.976	981.974	752.783
153.760	16.163	980.969	752.778
154.775	16.117	980.676	752.282
155.789	16.200	980.014	752.077
156.804	16.275	978.740	751.368
157.819	16.304	978.695	751.396
158.833	16.339	978.024	750.968
159.848	16.473	977.092	750.782
160.862	16.357	976.139	749.470
161.877	16.262	974.536	747.750
162.892	16.187	973.738	746.742
163.906	16.114	972.729	745.581
164.921	16.002	972.285	744.677
165.935	16.133	971.443	744.544
166.950	16.165	970.556	743.941
167.964	16.213	969.612	743.361
168.979	16.198	968.390	742.295
169.994	16.082	967.784	741.255
171.008	16.270	967.209	741.573
172.023	16.372	966.685	741.556
173.037	16.526	965.639	741.363
174.052	16.381	964.710	739.949
175.067	16.305	964.074	739.062
176.081	16.153	963.667	738.019
177.096	16.051	963.478	737.364
178.110	16.112	962.766	737.021
179.125	16.228	962.022	736.890
180.140	16.236	961.493	736.457
181.154	16.333	961.302	736.668
182.169	16.315	961.104	736.371
183.183	16.404	960.107	735.932
184.198	16.495	958.910	735.346
185.213	16.462	958.524	734.839
186.227	16.503	957.895	734.470
187.242	16.589	957.238	734.274
188.256	16.648	956.631	734.002
189.271	16.626	955.935	733.304
190.286	16.362	954.745	731.185
191.300	16.061	954.031	729.273
192.315	16.113	953.041	728.675
193.329	16.118	952.823	728.467
194.344	16.175	952.302	728.248
195.359	16.303	951.510	728.131
196.373	16.393	950.895	727.984
197.388	16.681	950.540	728.888
198.402	16.679	950.035	728.427
199.417	16.639	949.329	727.651
200.432	16.714	949.080	727.716
201.446	16.713	948.714	727.368
202.461	16.803	948.024	727.158
203.475	16.725	947.421	726.298
204.490	16.733	946.483	725.551
205.504	16.688	945.352	724.424
206.519	16.632	944.537	723.497
207.534	16.755	943.525	723.185
208.548	16.714	943.094	722.615
209.563	16.732	942.601	722.250
210.577	16.626	941.880	721.180
211.592	16.817	941.418	721.578
212.607	16.860	940.529	721.014
213.621	16.840	939.846	720.343
214.636	16.835	939.017	719.623
215.650	16.802	938.268	718.843
216.665	16.956	937.256	718.659
217.680	16.979	937.301	718.726
218.694	16.937	936.302	717.719
219.709	17.099	935.487	717.718
220.723	16.987	934.832	716.679
221.738	16.900	934.047	715.646
222.753	16.827	933.909	715.166
223.767	16.967	932.959	714.965
224.782	17.147	932.161	715.051
225.796	17.098	932.066	714.708
226.811	17.068	931.047	713.739
227.826	16.978	930.252	712.684
228.840	17.061	929.379	712.303
229.855	17.002	928.479	711.304
230.869	16.965	928.155	710.838
231.884	16.950	927.458	710.178
232.899	16.844	926.803	709.167
233.913	17.051	925.662	709.097
234.928	16.755	925.577	707.732
235.942	16.763	924.890	707.179
236.957	16.986	924.095	707.436
237.972	16.939	923.475	706.704
238.986	16.905	923.095	706.210
240.001	16.887	922.240	705.418
241.015	17.080	921.047	705.245
242.030	16.933	921.159	704.657
243.045	17.040	920.414	704.469
244.059	17.111	919.440	703.958
245.074	17.047	919.356	703.564
246.088	17.170	918.335	703.233
247.103	17.245	917.555	702.880
248.117	17.350	917.469	703.188
249.132	17.518	916.893	703.379
250.147	17.589	916.480	703.294
251.161	17.602	915.675	702.664
252.176	17.568	915.238	702.129
253.190	17.743	914.240	702.022
254.205	17.741	913.758	701.579
255.220	17.806	912.819	701.065
256.234	17.702	912.340	700.206
257.249	17.761	911.602	699.821
258.263	17.743	910.975	699.205
259.278	17.639	910.231	698.144
260.293	17.743	909.702	698.104
261.307	17.787	909.138	697.788
262.322	17.825	908.613	697.480
263.336	17.878	908.201	697.319
264.351	17.941	906.809	696.443
265.366	17.858	906.030	695.445
266.380	17.875	905.656	695.167
267.395	17.712	905.079	694.001
268.409	17.819	904.152	693.662
269.424	17.700	903.857	692.892
270.439	17.668	902.598	691.734
271.453	17.743	901.914	691.454
272.468	17.673	901.428	690.734
273.482	17.800	900.908	690.791
274.497	17.874	900.237	690.513
275.512	17.738	899.637	689.441
276.526	17.783	899.064	689.123
277.541	17.775	899.108	689.064
278.555	17.876	898.667	689.073
279.570	18.115	897.429	689.026
280.585	18.027	896.860	688.176
281.599	17.871	895.970	686.805
282.614	17.961	895.197	686.512
283.628	17.874	894.666	685.694
284.643	18.019	893.570	685.375
285.657	18.067	893.442	685.408
286.672	17.913	892.680	684.147
287.687	18.023	892.209	684.164
288.701	18.085	891.442	683.766
289.716	17.905	890.980	682.629
290.730	17.992	890.715	682.714
291.745	18.063	889.735	682.187
292.760	18.092	889.518	682.077
293.774	18.156	888.645	681.601
294.789	18.164	887.644	680.806
295.803	18.061	887.102	679.920
296.818	18.071	886.430	679.382
297.833	18.078	885.923	678.962
298.847	18.089	885.239	678.421
299.862	18.185	884.827	678.427
300.876	18.269	884.190	678.213
301.891	18.154	883.737	677.350
302.906	18.266	883.384	677.463
303.920	18.400	882.997	677.635
304.935	18.365	882.337	676.929
305.949	18.384	881.056	675.961
306.964	18.373	880.316	675.292
307.979	18.499	880.036	675.515
308.993	18.488	879.607	675.081
310.008	18.475	878.766	674.323
311.022	18.568	877.751	673.854
312.037	18.143	877.794	672.157
313.052	18.268	876.833	671.851
314.066	18.202	876.574	671.332
315.081	18.222	875.904	670.840
316.095	18.164	875.457	670.211
317.110	18.166	874.673	669.560
318.125	18.134	874.481	669.226
319.139	18.138	873.870	668.716
320.154	18.333	873.219	668.920
321.168	18.264	872.590	668.112
322.183	18.235	872.298	667.716
323.197	18.273	871.800	667.421
324.212	18.445	870.756	667.234
325.227	18.361	870.385	666.564
326.241	18.366	870.096	666.302
327.256	18.370	869.264	665.622
328.270	18.347	868.840	665.149
329.285	18.365	868.015	664.529
330.300	18.390	867.659	664.295
331.314	18.412	867.033	663.841
332.329	18.421	866.392	663.327
333.343	18.487	866.356	663.497
334.358	18.542	866.060	663.423
335.373	18.649	865.114	663.054
336.387	18.548	865.324	662.764
337.402	18.624	864.774	662.578
338.416	18.637	864.451	662.322
339.431	18.764	864.105	662.488
340.446	18.900	863.462	662.461
341.460	18.833	863.228	661.967
342.475	18.882	862.859	661.812
343.489	19.024	862.134	661.745
344.504	19.044	861.637	661.380
345.519	18.915	861.625	660.818
346.533	18.984	860.678	660.298
347.548	18.918	860.114	659.551
348.562	18.733	859.756	658.510
349.577	18.727	858.807	657.704
350.592	18.767	858.320	657.425
351.606	18.693	857.319	656.317
352.621	18.643	857.052	655.866
353.635	18.898	856.056	656.016
354.650	18.764	855.858	655.296
355.665	18.894	855.182	655.215
356.679	19.071	854.065	654.976
357.694	18.882	853.720	653.934
358.708	18.954	853.043	653.631
359.723	18.869	852.626	652.932
360.738	18.895	851.895	652.411
361.752	18.928	851.449	652.137
362.767	19.169	850.406	652.194
363.781	19.053	850.519	651.784
364.796	19.108	850.178	651.675
365.810	19.379	849.256	651.932
366.825	19.256	849.367	651.496
367.840	19.372	848.505	651.217
368.854	19.168	848.355	650.273
369.869	19.207	847.485	649.696
370.883	19.214	847.116	649.381
371.898	19.345	846.709	649.507
372.913	19.413	846.444	649.502
373.927	19.269	845.938	648.514
374.942	19.372	845.396	648.427
375.956	19.337	845.236	648.114
376.971	19.549	844.538	648.318
377.986	19.675	843.845	648.201
379.000	19.710	843.491	648.006
380.015	19.480	843.158	646.829
381.029	19.500	842.731	646.520
382.044	19.584	841.808	646.070
383.059	19.563	841.501	645.698
384.073	19.644	840.572	645.231
385.088	19.404	840.006	643.841
386.102	19.374	839.593	643.356
387.117	19.419	838.917	642.950
388.132	19.409	838.313	642.392
389.146	19.347	837.914	641.797
390.161	19.557	836.990	641.813
391.175	19.594	837.116	641.994
392.190	19.457	836.325	640.822
393.205	19.513	835.387	640.252
394.219	19.528	835.206	640.114
395.234	19.461	834.877	639.554
396.248	19.391	833.963	638.539
397.263	19.464	833.564	638.449
398.278	19.345	833.723	638.071
399.292	19.340	833.262	637.644
400.307	19.255	832.731	636.869
401.321	19.437	832.187	637.068
402.336	19.438	831.953	636.834
403.350	19.419	831.633	636.464
404.365	19.512	830.857	636.158
405.380	19.596	830.306	635.988
406.394	19.735	829.813	636.066
407.409	19.780	829.537	635.964
408.423	19.838	829.002	635.710
409.438	19.922	829.005	635.964
410.453	19.922	828.472	635.499
411.467	20.103	827.585	635.426
412.482	19.959	827.717	634.944
413.496	19.902	827.559	634.559
414.511	20.068	826.632	634.397
415.526	20.112	826.079	634.079
416.540	20.063	825.882	633.694
417.555	20.023	825.209	632.972
418.569	19.861	825.152	632.283
419.584	20.035	824.442	632.319
420.599	20.077	823.622	631.787
421.613	152.734	1368.739	1778.481
422.628	133.119	1448.171	1778.602
