DTS Sentinel unit serial number:	SN413079Multiplexer serial number:	ORYXHardware model number:	OX4-SRSoftware version number:	ORYX F/W v4.00 Oryx Data Collector v3.7.2.0data status	okinstallation	princeton_trtdifferential loss correction	single-endedforward channel	channel 1reverse channel	N/Adate	2019/09/16time	06:34:35forward acquisition time	60.00reverse acquisition time	0.00gamma	496.2192k internal	0.2331k external	0.2331temperature offset calibration	0.9985default loss term (dB/km)	0.3790temperature slope calibration	1.0000multiplexer offset coefficient	1.0000multiplexer slope coefficient	1.0000fibre end	0.00T internal ref (°C)	27.37T ext. ref 1 (°C)	11.40T ext. ref 2 (°C)	21.84length (m)	temperature (°C)	Stokes	anti-Stokes-747.200	19.491	-0.178	-0.144
-746.185	-200.000	-0.012	0.148
-745.171	52.043	0.211	0.202
-744.156	-200.000	0.038	0.309
-743.142	-200.000	-0.032	0.348
-742.127	567.771	0.011	-0.028
-741.112	-79.003	0.307	0.105
-740.098	-183.483	-0.204	0.004
-739.083	-200.000	0.011	0.187
-738.069	-3.842	0.134	0.093
-737.054	800.000	-0.044	-0.156
-736.039	-75.351	-0.133	-0.048
-735.025	84.131	0.175	0.192
-734.010	800.000	-0.135	0.405
-732.996	17.020	-0.187	-0.149
-731.981	377.452	-0.128	-0.264
-730.966	327.097	0.082	-0.158
-729.952	800.000	0.047	-0.152
-728.937	90.396	0.247	-0.278
-727.923	125.780	-0.112	0.142
-726.908	-11.348	-0.241	0.160
-725.894	50.007	0.090	-0.086
-724.879	76.662	0.040	-0.042
-723.864	27.704	0.179	0.151
-722.850	800.000	0.055	0.157
-721.835	800.000	-0.040	-0.157
-720.821	64.992	-0.344	0.350
-719.806	-113.181	-0.529	0.105
-718.791	-200.000	-0.001	-0.090
-717.777	136.007	0.163	0.213
-716.762	-140.617	0.373	0.039
-715.748	800.000	-0.030	-0.095
-714.733	10.136	0.272	0.208
-713.718	-200.000	0.010	-0.141
-712.704	-200.000	0.047	0.368
-711.689	-200.000	0.037	0.231
-710.675	-200.000	0.023	-0.265
-709.660	55.258	-0.143	0.139
-708.645	21.291	0.265	0.216
-707.631	10.076	-0.185	0.141
-706.616	-83.795	0.278	0.089
-705.602	-179.706	0.130	-0.003
-704.587	-22.009	0.144	0.088
-703.572	-164.097	0.185	0.009
-702.558	555.336	-0.040	0.097
-701.543	-200.000	0.005	-0.205
-700.529	349.887	0.076	0.151
-699.514	800.000	0.060	-0.223
-698.499	292.882	0.081	0.148
-697.485	-58.433	-0.099	0.043
-696.470	-36.313	0.199	0.108
-695.456	-132.219	-0.297	-0.039
-694.441	244.549	-0.153	-0.259
-693.426	86.086	0.213	0.236
-692.412	-200.000	0.009	0.085
-691.397	-106.850	-0.181	0.040
-690.383	66.754	-0.129	0.131
-689.368	-87.433	-0.049	-0.015
-688.354	253.330	-0.106	-0.182
-687.339	-200.000	-0.041	-0.257
-686.324	-200.000	-0.004	0.090
-685.310	800.000	0.009	-0.035
-684.295	-200.000	-0.023	-0.326
-683.281	800.000	-0.045	-0.189
-682.266	-200.000	0.003	-0.400
-681.251	-174.097	0.228	-0.007
-680.237	-110.021	-0.449	-0.094
-679.222	-176.081	0.264	-0.007
-678.208	-200.000	-0.023	-0.260
-677.193	546.458	-0.053	-0.128
-676.178	800.000	0.058	0.246
-675.164	-98.426	0.064	-0.016
-674.149	172.400	-0.169	0.244
-673.135	123.219	0.055	0.070
-672.120	-173.091	0.068	-0.002
-671.105	509.327	-0.064	0.148
-670.091	800.000	-0.106	-0.322
-669.076	214.897	0.047	-0.075
-668.062	-200.000	-0.028	0.188
-667.047	413.492	-0.048	-0.102
-666.032	-156.233	-0.346	-0.022
-665.018	-200.000	0.000	0.028
-664.003	-200.000	-0.004	-0.119
-662.989	-103.552	-0.506	-0.119
-661.974	-200.000	0.019	-0.147
-660.959	543.858	0.144	0.344
-659.945	-200.000	0.031	0.278
-658.930	46.936	-0.174	0.162
-657.916	-200.000	0.060	0.314
-656.901	65.946	-0.121	0.123
-655.886	370.519	0.065	0.132
-654.872	24.539	-0.115	-0.096
-653.857	54.561	0.323	0.312
-652.843	-152.406	0.051	0.004
-651.828	-63.790	-0.358	-0.147
-650.814	130.013	-0.085	-0.108
-649.799	205.045	0.060	0.094
-648.784	-77.817	-0.156	0.054
-647.770	36.202	0.381	-0.337
-646.755	-87.792	-0.284	0.086
-645.741	226.113	-0.066	0.107
-644.726	-98.388	0.164	-0.042
-643.711	-175.280	-0.236	0.007
-642.697	-68.445	-0.286	0.111
-641.682	-71.740	0.280	-0.105
-640.668	-59.519	-0.155	-0.067
-639.653	389.299	0.055	-0.115
-638.638	-186.051	-0.262	0.004
-637.624	273.363	0.180	-0.319
-636.609	-83.974	0.278	-0.089
-635.595	-37.757	0.309	-0.165
-634.580	768.202	0.112	-0.304
-633.565	-200.000	-0.020	-0.176
-632.551	-200.000	-0.017	0.310
-631.536	64.601	-0.117	0.119
-630.522	553.056	0.157	-0.378
-629.507	-145.097	-0.362	0.033
-628.492	-200.000	-0.040	-0.274
-627.478	234.259	0.208	-0.344
-626.463	67.993	-0.208	0.214
-625.449	-170.491	0.200	0.007
-624.434	-32.828	-0.135	-0.075
-623.419	75.556	-0.175	0.186
-622.405	800.000	-0.049	0.153
-621.390	-149.749	-0.226	0.018
-620.376	182.637	0.087	0.129
-619.361	401.414	-0.044	-0.093
-618.346	36.539	-0.089	-0.079
-617.332	-57.367	-0.329	-0.145
-616.317	270.696	0.142	0.251
-615.303	-116.787	-0.193	-0.036
-614.288	23.360	-0.162	-0.133
-613.273	-95.147	0.303	-0.082
-612.259	800.000	-0.058	-0.229
-611.244	88.452	0.068	0.076
-610.230	79.979	-0.156	-0.168
-609.215	-200.000	-0.024	0.147
-608.201	36.825	0.164	-0.145
-607.186	110.554	-0.342	0.412
-606.171	-200.000	0.002	-0.185
-605.157	-71.233	-0.288	0.108
-604.142	36.773	0.108	-0.096
-603.128	124.396	0.162	0.204
-602.113	-13.886	-0.179	-0.116
-601.098	422.483	0.014	-0.029
-600.084	187.464	-0.050	-0.075
-599.069	800.000	0.059	0.219
-598.055	191.126	0.301	-0.453
-597.040	559.384	-0.048	0.115
-596.025	36.050	-0.136	0.120
-595.011	-200.000	-0.023	0.152
-593.996	800.000	0.120	-0.355
-592.982	-200.000	0.016	-0.341
-591.967	296.500	-0.098	0.179
-590.952	-16.292	-0.351	0.223
-589.938	87.485	0.156	0.173
-588.923	-152.066	-0.190	0.014
-587.909	-200.000	0.014	-0.128
-586.894	-200.000	0.037	-0.274
-585.879	-103.633	0.138	-0.032
-584.865	123.199	0.111	0.139
-583.850	-200.000	-0.003	0.110
-582.836	800.000	-0.062	0.178
-581.821	-131.053	0.302	-0.040
-580.806	235.825	-0.139	-0.230
-579.792	800.000	0.033	-0.126
-578.777	-62.396	0.115	-0.048
-577.763	800.000	0.019	-0.082
-576.748	379.972	-0.019	0.039
-575.733	0.416	0.071	-0.051
-574.719	-17.641	-0.341	0.214
-573.704	539.420	-0.025	0.059
-572.690	-200.000	0.009	-0.063
-571.675	-16.978	0.084	-0.053
-570.661	-115.353	-0.366	0.069
-569.646	59.756	0.167	-0.165
-568.631	-200.000	-0.014	0.087
-567.617	133.288	0.054	0.070
-566.602	-106.763	-0.070	0.016
-565.588	-200.000	-0.004	-0.036
-564.573	-200.000	0.005	-0.264
-563.558	428.269	-0.173	0.373
-562.544	505.500	-0.112	-0.259
-561.529	52.998	-0.312	0.299
-560.515	67.646	0.176	0.179
-559.500	88.737	-0.279	0.310
-558.485	-77.121	-0.285	0.099
-557.471	7.335	-0.069	0.052
-556.456	-200.000	0.001	-0.112
-555.442	800.000	0.057	-0.201
-554.427	-101.422	0.134	-0.033
-553.412	-28.256	-0.033	-0.019
-552.398	-104.328	0.090	0.021
-551.383	-41.598	0.215	0.110
-550.369	800.000	0.113	0.378
-549.354	-123.505	0.092	-0.015
-548.339	-18.759	-0.150	-0.093
-547.325	-80.152	0.080	-0.027
-546.310	-200.000	0.025	-0.300
-545.296	399.992	0.068	0.142
-544.281	-38.658	-0.142	0.075
-543.266	78.930	0.181	-0.193
-542.252	-128.205	0.448	0.064
-541.237	218.998	-0.090	0.143
-540.223	182.524	-0.155	0.228
-539.208	129.658	-0.098	-0.126
-538.193	-200.000	0.001	0.022
-537.179	-52.694	0.106	0.049
-536.164	190.312	0.111	0.167
-535.150	-112.384	-0.173	-0.035
-534.135	-200.000	-0.001	-0.190
-533.121	-122.190	0.109	0.018
-532.106	-39.700	-0.216	0.113
-531.091	-200.000	0.001	-0.080
-530.077	147.878	0.123	0.166
-529.062	185.167	-0.113	0.167
-528.048	-134.186	0.184	-0.023
-527.033	-168.482	-0.623	-0.024
-526.018	-200.000	-0.011	-0.094
-525.004	-146.756	0.048	-0.004
-523.989	-116.447	-0.301	0.055
-522.975	-164.677	-0.234	-0.011
-521.960	85.841	-0.142	0.156
-520.945	-200.000	0.008	-0.040
-519.931	217.691	-0.030	0.048
-518.916	296.152	-0.108	-0.197
-517.902	-60.137	0.071	0.030
-516.887	-200.000	-0.025	0.376
-515.872	274.856	0.122	0.216
-514.858	-118.827	-0.142	-0.025
-513.843	-168.418	-0.078	-0.003
-512.829	-200.000	-0.030	0.208
-511.814	149.572	-0.271	-0.366
-510.799	-24.665	0.284	-0.169
-509.785	-200.000	-0.050	0.260
-508.770	-200.000	0.013	-0.376
-507.756	106.137	-0.109	-0.129
-506.741	-200.000	0.033	-0.313
-505.726	-162.968	0.153	0.007
-504.712	48.634	0.066	0.062
-503.697	364.615	-0.172	-0.345
-502.683	-157.105	0.086	-0.005
-501.668	-46.036	-0.040	-0.019
-500.653	800.000	0.035	0.140
-499.639	49.757	-0.262	0.246
-498.624	429.260	0.097	-0.208
-497.610	-16.381	0.036	-0.023
-496.595	-200.000	-0.011	0.110
-495.581	-46.293	-0.089	0.044
-494.566	261.890	-0.171	0.295
-493.551	-43.527	0.157	0.079
-492.537	-200.000	0.032	0.179
-491.522	29.110	-0.320	0.271
-490.508	-200.000	0.033	0.382
-489.493	800.000	0.029	0.128
-488.478	88.786	-0.104	-0.116
-487.464	334.228	-0.145	-0.279
-486.449	20.650	0.157	-0.126
-485.435	800.000	0.089	-0.359
-484.420	433.766	-0.078	0.169
-483.405	-19.762	0.153	0.094
-482.391	751.322	0.039	0.106
-481.376	-110.792	0.386	0.079
-480.362	200.248	0.213	0.327
-479.347	-200.000	-0.025	-0.191
-478.332	202.708	0.063	-0.098
-477.318	140.775	-0.213	0.280
-476.303	489.499	0.066	0.151
-475.289	-200.000	0.024	0.177
-474.274	79.459	-0.446	0.477
-473.259	-35.190	0.146	-0.079
-472.245	178.935	0.086	-0.126
-471.230	-32.748	-0.099	0.055
-470.216	69.697	-0.069	0.070
-469.201	-19.605	-0.111	-0.069
-468.186	-7.749	-0.302	0.203
-467.172	800.000	0.045	0.158
-466.157	-99.187	0.232	0.058
-465.143	584.934	0.160	-0.391
-464.128	-110.313	0.338	-0.070
-463.113	-110.611	0.076	0.016
-462.099	-200.000	-0.001	0.190
-461.084	-111.916	0.230	-0.046
-460.070	-200.000	-0.035	-0.246
-459.055	-200.000	0.022	-0.168
-458.040	800.000	0.102	0.310
-457.026	-123.678	0.085	0.013
-456.011	-20.381	-0.087	0.053
-454.997	182.341	0.120	-0.176
-453.982	-47.401	-0.233	0.113
-452.968	-200.000	0.007	-0.295
-451.953	-200.000	-0.004	-0.180
-450.938	25.812	-0.066	0.055
-449.924	251.502	-0.116	-0.196
-448.909	322.603	0.085	0.160
-447.895	66.563	-0.231	-0.234
-446.880	-200.000	0.012	-0.120
-445.865	226.494	-0.168	-0.270
-444.851	-200.000	-0.034	0.210
-443.836	-200.000	0.004	-0.182
-442.822	-41.245	-0.187	-0.096
-441.807	333.207	0.133	-0.255
-440.792	-17.715	0.183	0.115
-439.778	568.876	0.080	-0.194
-438.763	25.403	-0.161	-0.133
-437.749	33.347	-0.194	0.168
-436.734	-101.914	-0.349	-0.084
-435.719	-200.000	0.050	-0.240
-434.705	-200.000	-0.015	0.170
-433.690	-11.269	-0.259	0.169
-432.676	-70.002	-0.300	0.114
-431.661	32.179	-0.161	-0.138
-430.646	-145.502	0.328	0.029
-429.632	-200.000	0.048	-0.337
-428.617	-200.000	-0.015	-0.331
-427.603	184.966	0.091	-0.134
-426.588	-200.000	0.036	0.299
-425.573	-103.599	0.054	0.013
-424.559	-114.641	0.168	-0.032
-423.544	112.144	-0.211	0.254
-422.530	37.517	0.074	0.066
-421.515	8.511	0.149	0.112
-420.500	800.000	0.122	-0.339
-419.486	72.652	0.249	0.258
-418.471	800.000	-0.028	0.095
-417.457	6.033	0.095	0.070
-416.442	-31.755	0.176	0.098
-415.428	-158.344	0.131	0.008
-414.413	367.937	0.125	0.251
-413.398	679.460	0.166	-0.429
-412.384	-16.250	-0.268	0.169
-411.369	-42.617	-0.195	-0.098
-410.355	78.352	0.026	0.028
-409.340	-155.544	-0.200	-0.013
-408.325	-120.637	-0.296	0.050
-407.311	104.943	0.048	-0.057
-406.296	90.342	-0.213	-0.236
-405.282	-66.729	-0.110	0.043
-404.267	800.000	0.108	0.311
-403.252	-153.337	0.238	-0.016
-402.238	7.486	0.534	-0.396
-401.223	-58.079	-0.188	0.081
-400.209	-72.883	-0.166	-0.060
-399.194	-67.497	-0.132	0.051
-398.179	469.566	0.011	0.024
-397.165	-61.317	0.154	0.064
-396.150	-103.976	-0.169	0.039
-395.136	-57.189	-0.093	-0.041
-394.121	-200.000	-0.030	0.401
-393.106	-41.361	-0.334	0.171
-392.092	-136.681	0.096	-0.011
-391.077	241.698	-0.178	-0.295
-390.063	1.109	0.039	-0.028
-389.048	800.000	-0.028	0.080
-388.033	253.249	0.094	0.159
-387.019	104.696	-0.031	0.036
-386.004	388.543	-0.155	-0.318
-384.990	-20.006	-0.162	-0.099
-383.975	-200.000	-0.101	0.601
-382.960	-108.123	0.303	-0.065
-381.946	-97.503	-0.211	-0.054
-380.931	-101.641	-0.271	-0.065
-379.917	115.301	-0.092	-0.112
-378.902	-107.588	0.188	-0.041
-377.888	800.000	0.010	0.032
-376.873	-110.708	0.599	0.123
-375.858	-21.485	0.166	0.101
-374.844	214.852	-0.090	0.141
-373.829	-200.000	-0.046	0.335
-372.815	-84.456	-0.272	-0.085
-371.800	197.589	0.388	-0.587
-370.785	-200.000	-0.016	0.349
-369.771	-200.000	-0.006	0.085
-368.756	-56.598	0.233	0.102
-367.742	351.898	0.199	-0.390
-366.727	-129.115	-0.093	-0.013
-365.712	-53.835	0.466	0.211
-364.698	-200.000	-0.002	-0.108
-363.683	-116.274	-0.415	0.076
-362.669	-200.000	-0.018	-0.135
-361.654	26.948	-0.094	0.078
-360.639	-200.000	-0.021	-0.163
-359.625	53.958	0.121	0.115
-358.610	-200.000	0.018	0.377
-357.596	-200.000	-0.113	0.578
-356.581	-34.054	-0.214	0.117
-355.566	800.000	0.143	-0.462
-354.552	108.420	0.053	0.062
-353.537	338.612	-0.079	-0.153
-352.523	156.062	0.073	0.100
-351.508	-121.706	0.034	-0.006
-350.493	229.584	-0.079	-0.128
-349.479	800.000	0.058	-0.172
-348.464	-104.832	0.104	0.024
-347.450	110.595	-0.193	0.230
-346.435	800.000	-0.049	0.156
-345.420	-200.000	-0.003	-0.025
-344.406	800.000	-0.027	0.082
-343.391	13.775	0.219	-0.169
-342.377	77.189	-0.095	-0.101
-341.362	-200.000	0.060	-0.271
-340.348	-4.880	0.097	0.067
-339.333	350.246	-0.080	0.157
-338.318	-106.764	0.455	0.100
-337.304	28.860	-0.036	-0.030
-336.289	647.658	-0.168	-0.426
-335.275	800.000	0.067	-0.245
-334.260	-72.777	-0.076	0.028
-333.245	43.100	-0.098	0.089
-332.231	800.000	0.044	0.126
-331.216	-200.000	0.295	0.001
-330.202	-93.255	-0.138	0.038
-329.187	-33.311	-0.099	-0.055
-328.172	6.524	-0.104	-0.077
-327.158	-54.829	0.471	0.210
-326.143	689.734	0.052	-0.136
-325.129	360.078	0.069	0.136
-324.114	92.930	-0.203	-0.227
-323.099	25.492	-0.051	-0.042
-322.085	-200.000	-0.063	0.335
-321.070	209.087	-0.137	0.213
-320.056	105.358	0.227	0.266
-319.041	-92.172	0.123	-0.034
-318.026	-54.442	-0.127	-0.057
-317.012	-200.000	0.054	-0.319
-315.997	-200.000	-0.044	0.360
-314.983	-10.856	0.269	-0.176
-313.968	-200.000	-0.008	0.063
-312.953	-200.000	-0.001	-0.085
-311.939	451.097	-0.105	-0.230
-310.924	66.428	-0.162	0.163
-309.910	-75.940	0.165	-0.058
-308.895	800.000	0.092	-0.271
-307.880	-162.768	-0.138	-0.007
-306.866	21.166	0.034	0.027
-305.851	-200.000	-0.035	0.203
-304.837	86.776	-0.050	0.055
-303.822	100.501	-0.190	-0.218
-302.807	-100.841	0.165	0.040
-301.793	-82.443	0.370	-0.119
-300.778	-51.657	0.537	-0.248
-299.764	-41.912	-0.216	0.109
-298.749	258.247	0.210	-0.358
-297.735	-200.000	-0.008	0.060
-296.720	-132.068	0.146	-0.019
-295.705	800.000	-0.113	-0.384
-294.691	-8.047	0.421	-0.281
-293.676	-86.012	0.354	0.108
-292.662	-200.000	0.028	-0.293
-291.647	-200.000	-0.051	-0.236
-290.632	-144.537	-0.367	0.034
-289.618	239.017	-0.034	-0.055
-288.603	-5.778	-0.273	-0.185
-287.589	-200.000	0.023	0.191
-286.574	800.000	-0.079	-0.292
-285.559	247.561	-0.079	-0.131
-284.545	-200.000	-0.002	0.110
-283.530	39.023	-0.171	0.151
-282.516	-10.366	-0.199	-0.130
-281.501	96.113	-0.064	-0.073
-280.486	-156.835	-0.298	0.018
-279.472	387.291	-0.133	-0.271
-278.457	-114.206	-0.131	-0.025
-277.443	-137.152	0.079	0.009
-276.428	72.602	0.056	0.058
-275.413	-5.942	0.326	0.220
-274.399	7.967	-0.185	0.137
-273.384	-37.796	0.230	0.121
-272.370	800.000	-0.059	0.187
-271.355	-200.000	0.030	-0.150
-270.340	393.470	0.091	-0.187
-269.326	-16.248	0.132	-0.083
-268.311	800.000	-0.022	-0.071
-267.297	-53.904	-0.359	0.162
-266.282	-84.335	-0.061	-0.019
-265.267	5.878	0.401	0.293
-264.253	-61.007	-0.105	0.044
-263.238	-21.812	-0.205	-0.123
-262.224	75.719	0.142	0.148
-261.209	-200.000	0.046	0.244
-260.195	-49.890	-0.199	-0.093
-259.180	56.971	0.147	0.142
-258.165	-200.000	-0.022	0.285
-257.151	52.856	0.142	-0.134
-256.136	231.384	-0.093	0.150
-255.122	-78.386	-0.068	-0.023
-254.107	-73.809	0.253	-0.091
-253.092	-64.551	0.276	-0.111
-252.078	-132.215	0.185	0.024
-251.063	-46.640	-0.260	-0.126
-250.049	-133.670	-0.037	0.005
-249.034	43.989	-0.145	0.131
-248.019	-165.109	-0.044	-0.002
-247.005	-106.346	0.077	0.017
-245.990	94.644	-0.375	0.421
-244.976	196.195	-0.192	0.288
-243.961	800.000	-0.125	-0.408
-242.946	-161.107	0.256	-0.013
-241.932	654.707	0.076	-0.193
-240.917	-200.000	-0.012	-0.135
-239.903	163.810	-0.171	-0.238
-238.888	105.743	0.140	0.164
-237.873	230.242	0.097	0.157
-236.859	271.622	0.249	-0.433
-235.844	-200.000	0.050	0.240
-234.830	-93.014	-0.156	0.043
-233.815	-200.000	0.047	-0.398
-232.800	-200.000	-0.018	-0.121
-231.786	-200.000	0.017	0.080
-230.771	-78.266	0.217	0.073
-229.757	455.783	-0.007	0.015
-228.742	261.633	0.063	-0.107
-227.727	267.863	0.179	-0.310
-226.713	92.294	0.042	-0.047
-225.698	-131.443	0.273	-0.036
-224.684	-97.159	0.223	-0.057
-223.669	-124.429	0.150	0.023
-222.655	-200.000	0.085	0.410
-221.640	436.435	-0.081	-0.175
-220.625	63.661	0.410	0.406
-219.611	-41.044	-0.096	0.049
-218.596	229.596	0.203	0.326
-217.582	-24.028	0.139	-0.082
-216.567	-183.708	-0.291	0.005
-215.552	-200.000	0.018	0.236
-214.538	-200.000	0.005	0.344
-213.523	111.005	0.121	0.143
-212.509	26.609	-0.019	-0.015
-211.494	-200.000	-0.016	-0.143
-210.479	-184.028	-0.270	0.004
-209.465	-13.598	-0.209	-0.133
-208.450	-90.787	0.201	0.057
-207.436	-200.000	0.005	-0.038
-206.421	-200.000	-0.029	-0.143
-205.406	-126.067	0.218	0.032
-204.392	800.000	0.033	-0.131
-203.377	39.266	-0.345	0.304
-202.363	202.179	-0.094	0.142
-201.348	121.650	0.118	0.145
-200.333	-200.000	-0.028	-0.191
-199.319	96.578	0.106	0.120
-198.304	-8.770	0.318	-0.210
-197.290	32.683	-0.105	-0.090
-196.275	800.000	-0.060	0.211
-195.260	-16.697	-0.169	0.105
-194.246	800.000	-0.087	0.368
-193.231	-25.089	0.144	0.084
-192.217	-0.763	-0.349	-0.244
-191.202	-133.348	0.165	-0.021
-190.187	-145.043	-0.093	0.008
-189.173	800.000	0.124	0.341
-188.158	-200.000	0.025	-0.152
-187.144	63.567	0.133	0.131
-186.129	-40.424	0.120	0.061
-185.114	-200.000	0.006	-0.028
-184.100	500.017	0.141	-0.320
-183.085	-82.622	0.090	-0.029
-182.071	-120.752	-0.164	-0.027
-181.056	307.993	-0.068	0.125
-180.042	-152.750	-0.163	0.011
-179.027	594.709	-0.097	-0.236
-178.012	-33.488	0.170	0.093
-176.998	-200.000	-0.008	-0.346
-175.983	-132.944	0.363	0.045
-174.969	304.170	-0.093	0.169
-173.954	-200.000	-0.001	0.212
-172.939	-73.147	0.014	0.005
-171.925	-30.986	0.193	0.107
-170.910	-200.000	0.024	0.226
-169.896	-52.535	-0.251	0.114
-168.881	-91.442	0.197	0.055
-167.866	576.649	0.056	-0.136
-166.852	-53.428	-0.078	0.035
-165.837	156.369	0.222	0.302
-164.823	-40.294	-0.271	0.139
-163.808	-200.000	0.003	-0.096
-162.793	78.656	-0.175	-0.184
-161.779	501.705	0.049	-0.111
-160.764	89.323	0.311	0.341
-159.750	-104.801	-0.418	-0.095
-158.735	410.487	-0.110	0.229
-157.720	-6.427	0.235	-0.157
-156.706	800.000	-0.082	-0.293
-155.691	-200.000	-0.003	-0.200
-154.677	169.464	-0.101	0.141
-153.662	-200.000	0.077	-0.343
-152.647	-57.774	0.349	0.150
-151.633	15.343	0.179	-0.138
-150.618	16.225	-0.150	0.116
-149.604	-60.292	-0.281	0.118
-148.589	-46.948	0.089	0.043
-147.574	1.108	0.233	0.164
-146.560	-144.478	0.359	-0.033
-145.545	178.683	0.019	-0.027
-144.531	-10.607	0.234	-0.152
-143.516	-200.000	0.012	-0.329
-142.502	-104.825	-0.355	-0.080
-141.487	-138.917	-0.275	0.029
-140.472	435.265	0.035	0.075
-139.458	-27.187	0.091	-0.052
-138.443	78.990	-0.205	0.216
-137.429	-136.375	-0.099	0.011
-136.414	30.045	-0.168	-0.141
-135.399	493.813	-0.022	0.050
-134.385	-200.000	0.005	-0.426
-133.370	-83.125	-0.233	-0.074
-132.356	-72.448	0.163	0.059
-131.341	104.435	0.212	0.245
-130.326	364.024	-0.239	0.472
-129.312	155.101	0.133	0.180
-128.297	-137.724	0.125	0.014
-127.283	485.121	-0.121	0.272
-126.268	-81.987	0.155	0.050
-125.253	-200.000	0.016	0.122
-124.239	-200.000	0.056	-0.274
-123.224	291.901	-0.073	0.130
-122.210	208.680	0.120	-0.184
-121.195	800.000	-0.038	0.144
-120.180	81.783	-0.017	-0.018
-119.166	-83.650	0.243	0.076
-118.151	800.000	-0.031	0.101
-117.137	-144.325	-0.429	-0.039
-116.122	-50.620	0.252	0.117
-115.107	198.429	0.051	0.076
-114.093	-156.874	-0.086	-0.005
-113.078	-191.265	0.459	-0.005
-112.064	-139.865	0.190	-0.020
-111.049	4.220	-0.035	-0.025
-110.034	-119.911	0.038	-0.006
-109.020	-122.847	0.320	0.051
-108.005	11.423	0.033	0.024
-106.991	-200.000	0.017	0.472
-105.976	373.915	0.237	0.473
-104.962	-200.000	0.015	-0.105
-103.947	68.738	0.136	-0.137
-102.932	-59.151	-0.227	0.096
-101.918	-25.253	0.052	-0.030
-100.903	-33.529	-0.124	-0.067
-99.889	-70.287	0.136	-0.051
-98.874	-52.296	0.117	0.053
-97.859	-185.317	0.325	-0.005
-96.845	-200.000	0.028	0.164
-95.830	-70.448	0.374	0.139
-94.816	-65.411	-0.191	-0.075
-93.801	800.000	-0.047	-0.164
-92.786	-111.279	-0.340	-0.068
-91.772	276.269	-0.014	-0.025
-90.757	-38.126	-0.269	0.140
-89.743	66.211	-0.063	-0.063
-88.728	-200.000	0.000	0.057
-87.713	-34.459	0.211	0.113
-86.699	185.773	-0.073	-0.107
-85.684	-77.111	0.121	-0.041
-84.670	-50.472	0.216	-0.100
-83.655	258.036	0.276	-0.467
-82.640	-135.091	-0.207	0.025
-81.626	292.858	0.019	0.035
-80.611	-33.345	0.043	0.023
-79.597	-94.628	0.250	-0.067
-78.582	620.837	0.070	0.173
-77.567	800.000	-0.104	0.303
-76.553	-14.460	0.109	0.069
-75.538	800.000	-0.093	-0.334
-74.524	800.000	-0.023	0.083
-73.509	-53.979	-0.295	-0.132
-72.494	493.154	-0.164	-0.369
-71.480	-115.239	0.345	-0.064
-70.465	-19.219	-0.226	0.137
-69.451	-45.809	-0.229	-0.111
-68.436	-200.000	0.014	-0.200
-67.422	69.299	0.295	0.297
-66.407	187.576	0.164	0.240
-65.392	-23.320	-0.087	0.052
-64.378	-4.455	-0.337	0.229
-63.363	-200.000	-0.037	-0.202
-62.349	69.530	0.080	-0.080
-61.334	34.792	-0.968	-0.830
-60.319	-21.682	0.960	0.573
-59.305	115.706	-0.590	-0.707
-58.290	292.419	0.740	1.322
-57.276	432.603	0.749	1.591
-56.261	-200.000	115.057	647.494
-55.246	461.443	1514.808	3309.190
-54.232	146.047	2679.889	3521.595
-53.217	103.126	2156.739	2476.065
-52.203	38.784	1602.814	1401.823
-51.188	30.589	1349.309	1130.487
-50.173	27.802	1311.218	1082.037
-49.159	55.847	1367.372	1298.603
-48.144	54.106	1382.128	1302.077
-47.130	30.943	1337.313	1122.387
-46.115	27.556	1319.655	1087.357
-45.100	27.197	1314.694	1081.092
-44.086	27.240	1312.128	1079.195
-43.071	27.237	1309.870	1077.274
-42.057	27.221	1307.790	1075.424
-41.042	27.172	1306.362	1073.920
-40.027	27.265	1304.552	1072.940
-39.013	27.218	1302.357	1070.812
-37.998	27.249	1301.099	1069.921
-36.984	27.384	1298.656	1068.661
-35.969	27.325	1297.214	1067.084
-34.954	27.418	1295.686	1066.333
-33.940	27.471	1294.474	1065.601
-32.925	27.525	1292.648	1064.373
-31.911	27.403	1291.739	1062.868
-30.896	27.496	1289.794	1061.767
-29.881	27.431	1288.691	1060.439
-28.867	27.477	1287.285	1059.507
-27.852	27.456	1285.588	1057.946
-26.838	27.541	1283.989	1057.085
-25.823	27.460	1283.046	1055.797
-24.809	27.391	1282.131	1054.603
-23.794	27.468	1280.364	1053.549
-22.779	27.421	1279.301	1052.365
-21.765	27.529	1277.445	1051.418
-20.750	27.432	1276.472	1050.017
-19.736	27.385	1275.246	1048.694
-18.721	27.268	1274.541	1047.397
-17.706	27.323	1272.853	1046.289
-16.692	27.367	1272.028	1045.821
-15.677	27.357	1270.823	1044.728
-14.663	27.283	1269.956	1043.554
-13.648	27.329	1268.440	1042.530
-12.633	27.275	1267.719	1041.584
-11.619	27.416	1266.389	1041.255
-10.604	27.232	1266.322	1040.106
-9.590	27.357	1264.806	1039.537
-8.575	27.332	1263.592	1038.353
-7.560	27.329	1262.603	1037.483
-6.546	27.388	1261.535	1036.902
-5.531	27.249	1261.241	1035.829
-4.517	27.355	1260.106	1035.457
-3.502	27.321	1259.667	1034.864
-2.487	27.379	1258.477	1034.175
-1.473	27.304	1254.154	1030.153
-0.458	25.748	1239.549	1009.403
0.556	21.047	1223.060	972.848
1.571	17.622	1229.690	958.791
2.586	16.805	1244.617	965.692
3.600	17.038	1233.475	958.278
4.615	15.766	1167.014	899.767
5.629	12.971	1100.904	834.600
6.644	11.502	1084.743	814.948
7.659	11.443	1082.325	812.766
8.673	11.280	1081.515	811.274
9.688	11.365	1079.848	810.372
10.702	11.418	1077.529	808.827
11.717	13.177	1079.278	818.792
12.731	15.977	1082.899	835.369
13.746	17.690	1084.731	845.206
14.761	17.617	1084.268	844.410
15.775	16.631	1082.134	837.797
16.790	15.747	1080.173	831.830
17.804	15.000	1077.909	826.326
18.819	14.519	1077.176	823.318
19.834	14.222	1076.160	821.005
20.848	14.027	1075.143	819.195
21.863	13.708	1074.365	816.957
22.877	13.687	1073.334	816.000
23.892	13.619	1072.662	815.082
24.907	13.654	1072.226	814.848
25.921	13.663	1071.141	813.997
26.936	13.705	1069.273	812.710
27.950	13.647	1068.504	811.773
28.965	13.693	1066.935	810.734
29.980	13.780	1064.972	809.591
30.994	13.787	1063.914	808.752
32.009	13.834	1062.871	808.116
33.023	13.808	1061.971	807.235
34.038	13.770	1060.857	806.134
35.053	13.797	1060.068	805.590
36.067	13.741	1059.114	804.525
37.082	13.781	1058.378	804.088
38.096	13.790	1057.595	803.464
39.111	13.716	1057.042	802.614
40.126	13.739	1055.707	801.640
41.140	13.537	1054.792	799.901
42.155	13.473	1053.670	798.669
43.169	13.606	1051.824	797.841
44.184	13.555	1051.202	797.053
45.199	13.489	1050.370	796.034
46.213	13.594	1049.513	795.817
47.228	13.702	1048.363	795.396
48.242	13.661	1047.478	794.458
49.257	13.679	1046.294	793.575
50.271	13.688	1045.555	792.988
51.286	13.718	1044.565	792.308
52.301	13.623	1043.326	790.844
53.315	13.686	1042.567	790.502
54.330	13.616	1041.490	789.281
55.344	13.654	1040.477	788.625
56.359	13.646	1039.627	787.870
57.374	13.612	1038.451	786.750
58.388	13.510	1038.080	785.916
59.403	13.514	1036.720	784.834
60.417	13.612	1035.732	784.483
61.432	13.466	1035.343	783.428
62.447	13.442	1034.522	782.621
63.461	13.336	1033.828	781.526
64.476	13.357	1032.847	780.818
65.490	13.540	1031.621	780.683
66.505	13.440	1031.280	779.886
67.520	13.525	1030.383	779.535
68.534	13.446	1029.766	778.630
69.549	13.469	1029.451	778.432
70.563	13.582	1027.959	777.764
71.578	13.483	1027.408	776.814
72.593	13.473	1026.400	775.937
73.607	13.341	1026.457	775.293
74.622	13.424	1025.563	774.936
75.636	13.322	1024.375	773.493
76.651	13.404	1024.419	773.840
77.666	13.453	1023.728	773.479
78.680	13.474	1022.823	772.827
79.695	13.432	1022.516	772.332
80.709	13.451	1021.614	771.670
81.724	13.710	1020.713	772.126
82.739	13.709	1020.081	771.573
83.753	13.645	1019.489	770.763
84.768	13.748	1018.351	770.312
85.782	13.794	1017.651	769.927
86.797	13.803	1016.649	769.143
87.812	13.693	1015.746	767.883
88.826	13.629	1014.818	766.814
89.841	13.835	1013.662	766.828
90.855	13.840	1012.962	766.254
91.870	13.905	1012.046	765.791
92.884	13.800	1011.273	764.655
93.899	13.985	1010.387	764.770
94.914	13.893	1009.355	763.500
95.928	13.875	1008.542	762.733
96.943	13.951	1007.513	762.236
97.957	13.842	1007.034	761.304
98.972	13.830	1006.068	760.451
99.987	13.763	1005.550	759.687
101.001	13.881	1003.959	758.956
102.016	13.835	1003.436	758.283
103.030	13.895	1002.798	758.011
104.045	13.815	1001.927	756.918
105.060	13.609	1001.483	755.578
106.074	13.604	1000.104	754.447
107.089	13.577	999.115	753.513
108.103	13.498	998.146	752.354
109.118	13.539	996.804	751.465
110.133	13.575	996.168	751.080
111.147	13.662	995.276	750.736
112.162	13.529	994.685	749.622
113.176	13.604	993.969	749.355
114.191	13.643	992.996	748.731
115.206	13.578	992.392	747.914
116.220	13.711	991.203	747.552
117.235	13.708	990.285	746.782
118.249	13.671	989.190	745.724
119.264	13.660	988.994	745.460
120.279	13.608	987.932	744.359
121.293	13.648	986.852	743.660
122.308	13.581	986.172	742.781
123.322	13.538	985.352	741.906
124.337	13.553	983.856	740.779
125.352	13.654	982.886	740.437
126.366	13.692	981.494	739.492
127.381	13.697	980.636	738.803
128.395	13.626	979.822	737.806
129.410	13.616	979.149	737.190
130.424	13.718	977.927	736.657
131.439	13.684	977.709	736.276
132.454	13.706	976.477	735.381
133.468	13.670	975.863	734.697
134.483	13.815	974.743	734.429
135.497	13.925	973.766	734.116
136.512	13.758	973.235	732.911
137.527	13.747	972.184	732.008
138.541	13.775	971.768	731.750
139.556	13.780	971.050	731.166
140.570	13.745	970.480	730.519
141.585	13.933	969.555	730.588
142.600	13.886	968.595	729.591
143.614	13.911	968.304	729.420
144.629	13.828	967.780	728.592
145.643	13.937	966.135	727.768
146.658	13.908	965.012	726.732
147.673	13.758	964.685	725.767
148.687	13.739	963.514	724.739
149.702	13.810	962.455	724.186
150.716	13.795	961.675	723.468
151.731	13.896	961.030	723.362
152.746	13.926	960.210	722.811
153.760	13.861	959.605	722.006
154.775	13.963	958.965	721.907
155.789	13.965	958.361	721.394
156.804	14.039	957.957	721.350
157.819	14.048	956.942	720.561
158.833	14.151	956.496	720.605
159.848	14.086	955.540	719.540
160.862	14.104	954.660	718.893
161.877	13.976	953.956	717.746
162.892	13.937	952.733	716.593
163.906	13.928	951.380	715.473
164.921	13.889	951.045	714.992
165.935	13.931	949.840	714.202
166.950	13.995	949.152	713.897
167.964	13.928	948.313	712.915
168.979	14.006	946.901	712.125
169.994	13.931	946.546	711.475
171.008	14.023	945.698	711.168
172.023	14.093	944.879	710.786
173.037	14.131	944.274	710.434
174.052	14.116	943.439	709.679
175.067	14.014	942.750	708.661
176.081	14.070	942.113	708.360
177.096	14.000	941.504	707.541
178.110	14.064	940.896	707.292
179.125	14.050	940.966	707.221
180.140	14.118	940.122	706.816
181.154	14.020	939.810	706.103
182.169	14.013	939.389	705.693
183.183	14.255	938.472	705.970
184.198	14.260	937.365	705.096
185.213	14.259	936.643	704.483
186.227	14.217	936.655	704.255
187.242	14.317	935.469	703.723
188.256	14.404	935.258	703.866
189.271	14.388	933.889	702.709
190.286	14.239	933.139	701.453
191.300	14.059	932.803	700.383
192.315	14.081	931.717	699.596
193.329	14.175	931.730	699.940
194.344	14.198	930.901	699.353
195.359	14.249	930.137	698.930
196.373	14.261	929.573	698.494
197.388	14.396	929.660	699.065
198.402	14.469	928.932	698.763
199.417	14.377	927.958	697.581
200.432	14.566	927.565	698.017
201.446	14.594	927.208	697.800
202.461	14.624	926.551	697.369
203.475	14.566	925.773	696.480
204.490	14.462	925.376	695.685
205.504	14.506	924.322	695.016
206.519	14.494	923.862	694.560
207.534	14.683	922.741	694.441
208.548	14.445	922.621	693.298
209.563	14.519	921.587	692.767
210.577	14.552	920.953	692.368
211.592	14.717	920.573	692.707
212.607	14.592	919.641	691.423
213.621	14.767	918.891	691.524
214.636	14.584	918.355	690.303
215.650	14.690	917.545	690.069
216.665	14.779	916.296	689.437
217.680	14.868	915.843	689.401
218.694	14.695	915.426	688.314
219.709	14.726	914.643	687.794
220.723	14.940	913.398	687.678
221.738	14.805	913.499	687.134
222.753	14.843	912.775	686.685
223.767	14.947	911.928	686.415
224.782	14.997	911.359	686.130
225.796	14.979	910.960	685.698
226.811	14.929	910.097	684.781
227.826	14.828	909.700	684.009
228.840	14.885	908.952	683.621
229.855	14.733	907.984	682.210
230.869	14.762	907.750	682.091
231.884	14.777	906.879	681.437
232.899	14.897	906.000	681.207
233.913	14.808	905.410	680.342
234.928	14.956	904.553	680.236
235.942	14.807	903.776	678.988
236.957	14.790	903.107	678.358
237.972	14.895	902.625	678.358
238.986	14.857	902.207	677.830
240.001	14.799	901.702	677.156
241.015	14.874	901.158	676.992
242.030	14.873	900.669	676.562
243.045	15.053	900.000	676.725
244.059	14.984	899.097	675.711
245.074	15.027	898.514	675.385
246.088	15.082	897.638	674.887
247.103	15.041	897.359	674.453
248.117	15.118	897.276	674.643
249.132	15.208	896.039	674.016
250.147	15.214	895.836	673.826
251.161	15.336	894.880	673.536
252.176	15.423	894.420	673.482
253.190	15.330	893.495	672.354
254.205	15.304	892.924	671.758
255.220	15.381	892.258	671.506
256.234	15.532	891.365	671.379
257.249	15.449	890.910	670.646
258.263	15.317	890.204	669.528
259.278	15.460	889.497	669.505
260.293	15.513	888.889	669.200
261.307	15.590	888.695	669.301
262.322	15.658	887.696	668.762
263.336	15.534	887.146	667.793
264.351	15.658	886.310	667.598
265.366	15.591	885.737	666.843
266.380	15.513	885.331	666.170
267.395	15.603	884.310	665.698
268.409	15.493	883.630	664.692
269.424	15.615	883.147	664.754
270.439	15.558	881.952	663.571
271.453	15.459	881.762	662.978
272.468	15.527	881.116	662.698
273.482	15.563	879.951	661.906
274.497	15.683	879.423	661.924
275.512	15.640	878.981	661.362
276.526	15.521	879.093	660.920
277.541	15.650	878.451	660.886
278.555	15.628	877.808	660.258
279.570	15.829	877.023	660.397
280.585	15.850	875.971	659.631
281.599	15.802	875.037	658.680
282.614	15.742	874.914	658.296
283.628	15.749	874.105	657.657
284.643	15.678	873.628	656.959
285.657	15.734	873.291	656.866
286.672	15.890	872.206	656.601
287.687	15.833	871.818	656.029
288.701	15.885	871.344	655.817
289.716	15.893	870.677	655.288
290.730	15.812	870.366	654.681
291.745	15.902	869.362	654.218
292.760	16.003	868.819	654.142
293.774	15.988	868.175	653.542
294.789	15.893	867.646	652.716
295.803	15.978	866.544	652.159
296.818	15.931	866.377	651.795
297.833	15.866	865.705	650.982
298.847	16.124	864.631	651.112
299.862	16.027	864.389	650.497
300.876	15.983	864.198	650.127
301.891	16.000	863.431	649.555
302.906	16.131	863.179	649.813
303.920	16.242	862.320	649.536
304.935	16.162	862.130	649.031
305.949	16.116	861.017	647.956
306.964	16.197	860.321	647.688
307.979	16.344	859.911	647.884
308.993	16.337	859.265	647.315
310.008	16.163	858.725	646.186
311.022	16.286	857.969	646.027
312.037	16.234	857.651	645.534
313.052	16.045	857.229	644.434
314.066	16.151	856.428	644.181
315.081	16.286	855.781	644.152
316.095	16.092	855.413	643.078
317.110	16.273	854.830	643.275
318.125	16.286	854.083	642.703
319.139	16.189	853.768	642.040
320.154	16.211	853.591	641.933
321.168	16.114	852.875	640.972
322.183	16.393	852.084	641.379
323.197	16.363	851.723	640.936
324.212	16.295	850.707	639.857
325.227	16.393	850.349	639.903
326.241	16.302	849.928	639.186
327.256	16.136	849.430	638.128
328.270	16.289	848.650	638.063
329.285	16.419	847.960	637.978
330.300	16.314	847.490	637.171
331.314	16.543	846.697	637.381
332.329	16.399	846.962	636.981
333.343	16.371	846.366	636.374
334.358	16.600	845.617	636.613
335.373	16.495	845.225	635.869
336.387	16.433	845.361	635.682
337.402	16.442	844.960	635.356
338.416	16.562	844.512	635.416
339.431	16.603	844.206	635.281
340.446	16.629	843.454	634.757
341.460	16.605	843.225	634.440
342.475	16.632	843.121	634.406
343.489	16.875	841.934	634.366
344.504	16.825	841.733	633.970
345.519	16.924	841.336	633.987
346.533	16.780	840.919	633.077
347.548	16.692	840.391	632.296
348.562	16.720	839.588	631.739
349.577	16.695	839.070	631.203
350.592	16.624	838.619	630.543
351.606	16.604	837.940	629.902
352.621	16.696	836.960	629.452
353.635	16.745	836.441	629.187
354.650	16.928	835.665	629.226
355.665	16.890	835.017	628.542
356.679	16.761	834.740	627.799
357.694	16.938	833.744	627.650
358.708	16.902	833.303	627.129
359.723	16.869	833.014	626.736
360.738	16.888	832.163	626.109
361.752	16.976	831.665	626.003
362.767	17.107	830.945	625.891
363.781	16.894	830.816	624.951
364.796	17.006	830.463	625.045
365.810	17.167	829.877	625.140
366.825	17.121	829.471	624.609
367.840	17.135	828.828	624.120
368.854	17.253	828.306	624.105
369.869	17.204	828.186	623.780
370.883	17.240	827.448	623.302
371.898	17.198	827.133	622.854
372.913	17.253	826.707	622.679
373.927	17.287	826.079	622.277
374.942	17.247	825.862	621.914
375.956	17.301	825.497	621.781
376.971	17.394	824.810	621.547
377.986	17.360	824.461	621.104
379.000	17.389	824.005	620.814
380.015	17.364	823.384	620.197
381.029	17.409	822.583	619.704
382.044	17.576	822.104	619.898
383.059	17.449	821.491	618.917
384.073	17.342	821.368	618.381
385.088	17.343	820.799	617.902
386.102	17.412	819.907	617.427
387.117	17.210	819.855	616.600
388.132	17.282	819.017	616.175
389.146	17.306	818.292	615.664
390.161	17.545	817.761	616.074
391.175	17.420	817.455	615.336
392.190	17.336	817.240	614.816
393.205	17.344	816.466	614.208
394.219	17.462	815.910	614.161
395.234	17.270	815.917	613.421
396.248	17.310	815.360	613.090
397.263	17.266	814.662	612.353
398.278	17.302	814.492	612.302
399.292	17.468	813.861	612.369
400.307	17.399	813.434	611.747
401.321	17.417	813.115	611.517
402.336	17.535	812.229	611.219
403.350	17.503	811.862	610.774
404.365	17.661	811.767	611.216
405.380	17.616	811.551	610.837
406.394	17.629	810.550	610.077
407.409	17.797	809.994	610.205
408.423	17.789	809.944	610.086
409.438	17.857	809.194	609.708
410.453	17.875	808.940	609.528
411.467	17.707	808.655	608.658
412.482	18.014	808.008	609.212
413.496	17.845	807.816	608.411
414.511	18.011	807.271	608.539
415.526	17.995	806.914	608.160
416.540	18.078	806.307	607.945
417.555	17.973	805.736	607.084
418.569	17.867	805.479	606.460
419.584	18.098	805.091	606.935
420.599	17.807	805.065	605.830
421.613	110.979	1295.153	1473.859
422.628	95.707	1366.517	1473.953
