DTS Sentinel unit serial number:	SN413079Multiplexer serial number:	ORYXHardware model number:	OX4-SRSoftware version number:	ORYX F/W v4.00 Oryx Data Collector v3.7.2.0data status	okinstallation	princeton_trtdifferential loss correction	single-endedforward channel	channel 1reverse channel	N/Adate	2019/09/12time	12:32:11forward acquisition time	60.00reverse acquisition time	0.00gamma	496.2192k internal	0.2292k external	0.2292temperature offset calibration	1.0035default loss term (dB/km)	0.3790temperature slope calibration	1.0000multiplexer offset coefficient	1.0000multiplexer slope coefficient	1.0000fibre end	0.00T internal ref (°C)	40.50T ext. ref 1 (°C)	1.94T ext. ref 2 (°C)	35.70length (m)	temperature (°C)	Stokes	anti-Stokes-747.200	-133.198	0.429	-0.056
-746.185	206.697	-0.195	0.310
-745.171	155.586	-0.075	0.106
-744.156	-131.303	0.270	-0.037
-743.142	54.097	0.217	0.213
-742.127	-113.359	0.232	0.047
-741.112	151.041	-0.175	0.243
-740.098	683.271	0.059	0.156
-739.083	175.797	0.405	0.602
-738.069	6.988	0.080	0.061
-737.054	-200.000	0.003	-0.050
-736.039	-44.565	0.144	0.074
-735.025	8.344	-0.118	0.090
-734.010	131.432	-0.100	-0.131
-732.996	304.759	0.124	-0.236
-731.981	-103.128	0.035	-0.009
-730.966	64.551	0.179	-0.185
-729.952	800.000	0.066	0.293
-728.937	193.001	-0.062	0.096
-727.923	68.066	0.301	0.315
-726.908	429.426	-0.054	-0.120
-725.894	-143.384	-0.307	0.030
-724.879	-18.253	-0.155	0.099
-723.864	800.000	-0.109	0.378
-722.850	354.536	0.081	-0.165
-721.835	447.971	0.209	-0.472
-720.821	-105.239	0.166	0.039
-719.806	87.019	0.097	0.110
-718.791	-84.565	-0.176	0.057
-717.777	-150.321	0.146	-0.012
-716.762	-112.262	-0.186	-0.038
-715.748	51.982	-0.161	0.157
-714.733	-22.489	0.096	0.059
-713.718	66.234	0.160	0.166
-712.704	-80.018	0.193	0.066
-711.689	27.932	-0.209	0.180
-710.675	-31.359	-0.090	0.052
-709.660	121.067	-0.146	-0.186
-708.645	393.949	0.122	-0.260
-707.631	323.642	-0.092	-0.179
-706.616	-60.397	0.136	0.059
-705.602	28.125	-0.169	-0.145
-704.587	-198.132	-0.216	-0.001
-703.572	-116.878	0.128	-0.024
-702.558	-109.893	0.115	0.025
-701.543	200.147	0.050	-0.078
-700.529	-85.376	0.203	0.065
-699.514	-151.295	-0.395	-0.030
-698.499	-200.000	-0.019	-0.233
-697.485	1.743	-0.213	0.157
-696.470	-200.000	0.063	0.429
-695.456	-200.000	0.005	0.138
-694.441	326.054	0.080	-0.157
-693.426	-38.804	-0.111	0.060
-692.412	36.596	0.232	-0.209
-691.397	-180.502	0.178	0.004
-690.383	-29.098	-0.145	-0.085
-689.368	-85.838	0.250	-0.079
-688.354	167.172	-0.144	0.209
-687.339	472.905	-0.076	0.175
-686.324	-66.640	0.165	0.067
-685.310	-62.178	0.141	-0.060
-684.295	-155.439	-0.212	0.014
-683.281	0.405	-0.159	-0.116
-682.266	194.708	0.075	-0.116
-681.251	33.421	-0.412	0.365
-680.237	-138.532	-0.133	0.015
-679.222	800.000	-0.012	0.047
-678.208	-200.000	-0.019	-0.107
-677.193	-58.560	-0.198	-0.088
-676.178	52.771	-0.171	0.167
-675.164	529.239	0.037	-0.089
-674.149	-141.692	-0.236	0.024
-673.135	-200.000	0.004	0.227
-672.120	79.492	-0.248	-0.271
-671.105	800.000	-0.092	0.306
-670.091	800.000	0.073	0.297
-669.076	800.000	-0.068	0.276
-668.062	5.716	0.108	-0.081
-667.047	-149.928	0.138	0.011
-666.032	-154.298	0.224	-0.015
-665.018	800.000	-0.063	0.178
-664.003	26.706	0.245	0.209
-662.989	-12.101	-0.185	0.124
-661.974	-67.326	0.450	-0.180
-660.959	77.447	-0.147	0.159
-659.945	-120.198	-0.435	0.076
-658.930	-47.290	-0.072	0.036
-657.916	-200.000	0.038	0.261
-656.901	13.924	0.372	0.295
-655.886	-200.000	0.054	0.302
-654.872	33.306	-0.378	-0.334
-653.857	224.743	0.077	-0.127
-652.843	-200.000	0.058	-0.342
-651.828	761.640	-0.018	-0.049
-650.814	58.179	-0.115	0.115
-649.799	111.943	0.185	-0.228
-648.784	169.859	0.312	-0.455
-647.770	362.163	0.026	-0.052
-646.755	492.684	0.104	-0.243
-645.741	-88.752	-0.423	0.128
-644.726	294.189	0.117	-0.218
-643.711	-200.000	-0.007	0.270
-642.697	-79.640	-0.076	0.026
-641.682	-128.872	-0.132	-0.019
-640.668	283.289	-0.192	-0.351
-639.653	634.975	-0.108	0.280
-638.638	593.754	0.086	-0.218
-637.624	95.470	-0.234	0.272
-636.609	9.144	0.062	0.048
-635.595	16.328	0.197	-0.158
-634.580	455.066	0.080	0.181
-633.565	800.000	0.101	0.342
-632.551	-200.000	-0.031	0.321
-631.536	800.000	-0.047	-0.162
-630.522	-93.026	-0.068	0.019
-629.507	-41.181	-0.304	-0.160
-628.492	17.550	0.240	-0.194
-627.478	-121.915	-0.417	-0.070
-626.463	-121.923	-0.277	-0.046
-625.449	-200.000	0.035	0.257
-624.434	-102.784	-0.092	0.022
-623.419	-94.741	-0.302	0.084
-622.405	100.731	-0.250	-0.296
-621.390	33.400	-0.117	0.103
-620.376	356.328	-0.050	0.101
-619.361	-200.000	0.028	0.279
-618.346	-97.262	0.119	-0.032
-617.332	171.477	0.131	0.191
-616.317	-130.069	-0.128	0.018
-615.303	800.000	0.074	-0.316
-614.288	6.113	0.260	-0.196
-613.273	-164.122	-0.165	0.008
-612.259	42.960	-0.067	0.063
-611.244	-153.357	-0.179	0.013
-610.230	-76.175	-0.409	-0.147
-609.215	121.251	-0.062	0.078
-608.201	800.000	0.132	0.371
-607.186	205.018	-0.271	0.428
-606.171	-52.124	0.134	0.063
-605.157	-50.348	-0.233	0.112
-604.142	51.157	0.250	-0.241
-603.128	82.582	0.214	-0.236
-602.113	145.388	-0.226	0.308
-601.098	56.364	0.050	0.050
-600.084	474.415	-0.129	-0.296
-599.069	800.000	-0.065	0.227
-598.055	-6.991	-0.193	-0.133
-597.040	72.290	0.074	-0.078
-596.025	-200.000	0.011	-0.272
-595.011	136.058	-0.038	0.051
-593.996	673.555	-0.111	0.293
-592.982	-200.000	0.010	-0.091
-591.967	172.219	0.077	-0.113
-590.952	729.430	0.054	-0.147
-589.938	-34.100	-0.225	0.126
-588.923	-123.454	-0.400	0.065
-587.909	204.941	-0.079	0.125
-586.894	-200.000	-0.019	-0.121
-585.879	305.924	-0.032	0.060
-584.865	-94.030	0.378	-0.105
-583.850	-146.677	0.546	-0.048
-582.836	234.818	0.107	0.179
-581.821	800.000	-0.134	-0.379
-580.806	445.075	-0.086	0.192
-579.792	-112.027	0.210	0.043
-578.777	272.696	0.126	0.226
-577.763	204.673	-0.100	0.158
-576.748	181.183	-0.097	0.145
-575.733	-136.737	-0.324	-0.038
-574.719	-200.000	0.026	-0.149
-573.704	110.799	0.217	0.265
-572.690	800.000	-0.021	-0.071
-571.675	103.224	-0.221	0.263
-570.661	-65.356	0.270	-0.111
-569.646	382.407	-0.237	-0.496
-568.631	-200.000	-0.219	-0.000
-567.617	-200.000	-0.059	0.293
-566.602	-160.599	-0.287	-0.016
-565.588	-134.485	-0.258	-0.032
-564.573	292.540	0.090	-0.166
-563.558	105.646	-0.143	-0.172
-562.544	-154.041	-0.122	-0.008
-561.529	-200.000	-0.031	0.311
-560.515	12.181	0.092	-0.072
-559.500	119.984	0.067	-0.084
-558.485	231.942	0.086	-0.144
-557.471	-107.147	-0.226	0.051
-556.456	55.684	0.117	-0.115
-555.442	-41.426	0.143	0.075
-554.427	-100.883	-0.034	-0.008
-553.412	-54.085	0.292	-0.135
-552.398	72.849	-0.359	0.381
-551.383	365.962	-0.133	0.272
-550.369	-106.058	0.297	0.068
-549.354	551.061	-0.100	0.245
-548.339	-150.356	0.178	-0.014
-547.325	-200.000	0.013	-0.228
-546.310	382.394	-0.051	0.106
-545.296	-200.000	-0.058	0.343
-544.281	128.211	0.159	0.205
-543.266	-29.110	-0.196	0.114
-542.252	-200.000	0.037	0.282
-541.237	33.689	-0.031	-0.027
-540.223	-67.087	0.062	-0.025
-539.208	-200.000	-0.014	0.191
-538.193	148.838	-0.080	0.109
-537.179	114.126	0.023	0.028
-536.164	796.064	0.079	0.222
-535.150	39.534	0.064	0.058
-534.135	-200.000	0.089	-0.401
-533.121	-78.561	0.134	-0.047
-532.106	800.000	-0.038	-0.141
-531.091	-135.970	0.103	-0.012
-530.077	-44.456	0.081	0.041
-529.062	-6.007	-0.221	0.153
-528.048	-57.592	-0.157	0.070
-527.033	74.625	-0.088	-0.094
-526.018	-172.758	0.165	0.005
-525.004	404.612	0.094	-0.200
-523.989	5.609	0.105	0.079
-522.975	800.000	0.044	-0.132
-521.960	-2.962	0.277	0.196
-520.945	27.680	-0.080	-0.068
-519.931	-22.225	-0.045	0.028
-518.916	27.320	-0.155	-0.132
-517.902	-96.719	-0.249	-0.066
-516.887	46.181	-0.011	0.010
-515.872	800.000	0.130	0.428
-514.858	-23.046	0.176	-0.108
-513.843	-200.000	-0.023	-0.165
-512.829	-200.000	0.004	0.213
-511.814	-200.000	-0.030	-0.141
-510.799	-170.047	-0.315	-0.011
-509.785	150.934	-0.070	-0.096
-508.770	83.402	-0.131	0.145
-507.756	73.434	-0.123	0.131
-506.741	800.000	0.088	0.260
-505.726	-84.769	-0.186	-0.059
-504.712	-148.804	0.120	0.010
-503.697	509.449	-0.054	-0.127
-502.683	174.284	-0.198	-0.291
-501.668	-200.000	0.019	-0.337
-500.653	-13.800	0.218	-0.143
-499.639	-145.500	-0.421	0.038
-498.624	-200.000	-0.049	-0.221
-497.610	254.615	-0.126	-0.219
-496.595	-200.000	0.010	0.071
-495.581	-200.000	0.020	-0.186
-494.566	-200.000	-0.002	-0.042
-493.551	-180.637	0.376	-0.008
-492.537	0.642	-0.199	-0.144
-491.522	-3.115	-0.179	0.126
-490.508	-18.844	0.121	-0.077
-489.493	-200.000	0.004	-0.313
-488.478	-200.000	-0.032	-0.169
-487.464	-36.981	-0.392	0.213
-486.449	705.549	-0.106	-0.282
-485.435	800.000	0.148	0.477
-484.420	327.682	0.077	0.150
-483.405	-200.000	0.210	0.000
-482.391	-82.239	-0.114	-0.038
-481.376	139.872	-0.104	-0.139
-480.362	-81.973	0.186	-0.062
-479.347	57.936	-0.139	0.138
-478.332	-99.017	0.225	-0.058
-477.318	664.188	0.151	0.395
-476.303	298.176	0.114	0.213
-475.289	563.138	0.079	0.193
-474.274	106.560	-0.313	0.376
-473.259	205.432	0.154	0.243
-472.245	79.245	0.260	-0.282
-471.230	361.634	-0.056	-0.113
-470.216	-200.000	-0.020	-0.282
-469.201	307.501	-0.136	-0.256
-468.186	-170.416	0.187	-0.007
-467.172	-200.000	-0.006	-0.230
-466.157	-200.000	-0.008	-0.233
-465.143	-200.000	0.062	-0.377
-464.128	-200.000	-0.024	-0.130
-463.113	-200.000	-0.008	0.326
-462.099	-200.000	0.046	0.256
-461.084	-32.648	-0.191	0.108
-460.070	800.000	0.072	0.221
-459.055	-200.000	0.078	0.437
-458.040	179.107	-0.105	0.155
-457.026	707.266	0.043	-0.116
-456.011	-72.753	-0.421	-0.157
-454.997	121.846	-0.078	-0.098
-453.982	254.859	0.040	-0.070
-452.968	-146.994	-0.125	0.011
-451.953	-164.499	-0.138	-0.006
-450.938	139.683	-0.243	0.324
-449.924	-79.632	-0.151	-0.051
-448.909	-200.000	0.022	-0.371
-447.895	800.000	0.134	0.514
-446.880	511.854	0.154	-0.364
-445.865	-200.000	0.009	-0.051
-444.851	-200.000	-0.008	0.334
-443.836	800.000	-0.132	-0.390
-442.822	-200.000	-0.025	-0.214
-441.807	419.497	0.035	-0.076
-440.792	-200.000	0.036	-0.343
-439.778	800.000	-0.105	-0.401
-438.763	77.381	0.194	0.209
-437.749	469.277	-0.183	0.416
-436.734	192.989	0.031	0.047
-435.719	239.268	0.074	0.125
-434.705	329.196	0.016	-0.031
-433.690	-109.690	0.127	-0.027
-432.676	-25.948	0.425	-0.253
-431.661	-30.129	-0.241	-0.139
-430.646	800.000	-0.033	-0.132
-429.632	-134.375	0.300	-0.037
-428.617	-191.064	0.244	0.003
-427.603	453.386	-0.034	0.077
-426.588	-81.961	0.241	-0.080
-425.573	-94.474	-0.349	-0.096
-424.559	-64.150	-0.141	-0.058
-423.544	800.000	0.044	-0.179
-422.530	-130.497	0.242	-0.033
-421.515	800.000	0.023	-0.070
-420.500	-200.000	0.052	-0.422
-419.486	-128.630	-0.167	0.024
-418.471	-200.000	-0.041	-0.210
-417.457	277.263	-0.125	-0.225
-416.442	-159.021	-0.182	0.010
-415.428	394.764	0.016	-0.033
-414.413	105.307	-0.049	0.059
-413.398	-77.418	0.087	-0.031
-412.384	67.600	0.185	-0.191
-411.369	33.780	-0.113	-0.099
-410.355	79.272	0.121	-0.132
-409.340	800.000	0.054	-0.206
-408.325	-200.000	-0.009	0.058
-407.311	-200.000	0.007	-0.100
-406.296	-126.877	-0.415	-0.062
-405.282	-75.609	-0.259	-0.093
-404.267	-65.823	0.126	0.051
-403.252	-200.000	-0.035	0.177
-402.238	-64.373	-0.094	-0.039
-401.223	-4.412	0.151	0.105
-400.209	82.865	-0.179	0.197
-399.194	-100.217	0.253	0.063
-398.179	249.643	-0.146	0.250
-397.165	-17.311	-0.189	-0.120
-396.150	-127.809	0.188	-0.027
-395.136	-36.584	0.120	0.065
-394.121	800.000	0.101	-0.382
-393.106	-94.101	0.392	0.108
-392.092	-53.462	0.266	0.123
-391.077	242.302	-0.075	-0.127
-390.063	800.000	-0.048	0.204
-389.048	500.967	0.024	-0.057
-388.033	-200.000	-0.057	0.610
-387.019	296.212	0.081	0.151
-386.004	97.047	-0.172	-0.199
-384.990	108.229	0.144	-0.173
-383.975	-70.041	0.216	0.083
-382.960	104.474	0.025	0.030
-381.946	800.000	0.039	-0.128
-380.931	-200.000	0.079	0.367
-379.917	-200.000	-0.033	-0.389
-378.902	191.456	0.082	-0.125
-377.888	0.795	0.255	0.184
-376.873	90.665	-0.172	-0.195
-375.858	-200.000	-0.027	-0.282
-374.844	121.620	0.166	-0.208
-373.829	262.200	0.177	0.310
-372.815	629.601	-0.032	0.081
-371.800	410.637	0.159	0.341
-370.785	-123.145	-0.099	0.016
-369.771	-200.000	0.028	0.151
-368.756	86.162	0.149	-0.166
-367.742	17.009	0.046	0.036
-366.727	181.822	-0.170	0.252
-365.712	-200.000	0.005	-0.044
-364.698	246.485	-0.009	0.015
-363.683	70.288	-0.197	-0.206
-362.669	664.678	-0.140	-0.365
-361.654	280.765	-0.082	-0.148
-360.639	24.723	-0.168	-0.140
-359.625	800.000	-0.106	-0.370
-358.610	247.680	0.118	0.201
-357.596	-98.813	0.196	0.050
-356.581	-52.262	0.135	0.063
-355.566	-128.465	0.261	-0.037
-354.552	6.373	0.072	-0.054
-353.537	-1.642	-0.461	-0.328
-352.523	157.036	-0.107	-0.149
-351.508	800.000	-0.030	-0.126
-350.493	51.923	0.208	-0.200
-349.479	-8.569	0.072	0.049
-348.464	-14.671	0.229	-0.149
-347.450	-145.129	-0.207	-0.019
-346.435	-103.815	-0.101	-0.024
-345.420	800.000	0.063	-0.226
-344.406	46.921	0.181	0.170
-343.391	-25.886	0.164	-0.097
-342.377	-200.000	-0.022	-0.133
-341.362	-6.024	-0.069	-0.047
-340.348	-113.535	0.215	-0.042
-339.333	152.084	-0.093	-0.127
-338.318	-102.475	0.090	-0.022
-337.304	212.483	-0.131	-0.209
-336.289	-135.392	-0.317	-0.038
-335.275	55.248	-0.051	0.049
-334.260	209.274	-0.058	0.092
-333.245	239.152	0.173	-0.291
-332.231	91.693	-0.099	0.112
-331.216	216.355	0.174	0.279
-330.202	83.446	0.116	-0.128
-329.187	158.208	0.025	-0.034
-328.172	54.034	-0.302	0.293
-327.158	720.682	-0.092	-0.247
-326.143	632.098	-0.029	-0.074
-325.129	-80.555	0.204	0.069
-324.114	387.954	0.082	0.171
-323.099	713.865	0.070	0.186
-322.085	-138.279	0.038	0.004
-321.070	-117.866	-0.059	-0.011
-320.056	-86.542	0.263	-0.081
-319.041	436.626	0.095	-0.208
-318.026	260.452	0.019	-0.034
-317.012	398.924	0.091	-0.191
-315.997	800.000	0.047	0.131
-314.983	-161.037	-0.168	-0.009
-313.968	-163.460	0.328	-0.016
-312.953	-200.000	0.013	-0.256
-311.939	-89.347	0.058	-0.017
-310.924	-93.114	-0.290	-0.081
-309.910	387.913	-0.098	0.204
-308.895	-33.787	-0.037	-0.021
-307.880	-200.000	-0.004	0.070
-306.866	771.513	0.118	0.322
-305.851	-200.000	-0.064	-0.334
-304.837	-98.993	0.264	-0.067
-303.822	-13.294	0.228	0.149
-302.807	-179.501	0.423	-0.009
-301.793	800.000	-0.104	0.311
-300.778	0.293	-0.232	0.167
-299.764	92.300	0.083	0.095
-298.749	10.568	0.174	-0.133
-297.735	-200.000	0.057	-0.260
-296.720	-200.000	0.001	-0.265
-295.705	132.061	-0.102	0.133
-294.691	111.274	0.287	0.348
-293.676	36.660	0.336	0.298
-292.662	-200.000	0.014	0.178
-291.647	-200.000	0.018	-0.137
-290.632	-137.737	0.202	-0.023
-289.618	800.000	-0.061	0.172
-288.603	408.148	-0.049	0.105
-287.589	-140.274	-0.120	-0.013
-286.574	800.000	0.144	-0.446
-285.559	800.000	0.044	-0.144
-284.545	-194.590	-0.266	0.002
-283.530	-119.606	0.302	0.052
-282.516	-200.000	0.046	0.296
-281.501	302.890	0.152	0.283
-280.486	-12.228	0.063	-0.042
-279.472	-3.155	-0.185	0.130
-278.457	283.302	0.130	-0.234
-277.443	-57.887	-0.222	-0.097
-276.428	2.715	-0.107	0.078
-275.413	-200.000	0.009	0.174
-274.399	800.000	0.076	0.258
-273.384	-126.966	-0.292	0.043
-272.370	-127.693	0.088	0.013
-271.355	-200.000	-0.023	0.130
-270.340	-97.319	0.313	-0.082
-269.326	736.401	-0.013	0.035
-268.311	303.649	0.083	-0.155
-267.297	140.682	-0.144	0.191
-266.282	-93.140	0.309	0.086
-265.267	800.000	0.088	0.317
-264.253	-72.268	-0.081	0.030
-263.238	94.497	0.166	0.190
-262.224	800.000	-0.057	0.247
-261.209	178.111	-0.034	0.049
-260.195	-158.178	0.180	0.011
-259.180	96.150	-0.248	0.285
-258.165	-200.000	0.013	0.086
-257.151	-200.000	-0.055	0.279
-256.136	139.082	-0.075	0.099
-255.122	-113.794	-0.456	-0.089
-254.107	-22.283	0.327	0.199
-253.092	-200.000	-0.004	0.249
-252.078	219.441	0.271	-0.436
-251.063	396.202	0.195	-0.409
-250.049	-200.000	-0.020	0.182
-249.034	-60.796	0.255	0.109
-248.019	800.000	0.024	-0.102
-247.005	92.363	-0.033	-0.037
-245.990	-109.147	0.320	-0.068
-244.976	-129.950	0.135	0.019
-243.961	-90.035	-0.189	-0.055
-242.946	-191.850	0.343	-0.003
-241.932	-122.765	-0.233	0.038
-240.917	117.428	0.057	0.070
-239.903	-16.474	0.030	-0.019
-238.888	-200.000	0.011	0.553
-237.873	-70.401	-0.342	-0.130
-236.859	50.272	-0.114	-0.109
-235.844	-21.529	0.109	0.067
-234.830	234.321	-0.075	-0.124
-233.815	800.000	0.054	0.186
-232.800	-2.201	0.202	0.142
-231.786	178.708	-0.076	-0.111
-230.771	-128.741	-0.479	-0.068
-229.757	-200.000	0.075	-0.335
-228.742	-35.869	-0.212	-0.115
-227.727	-118.318	0.229	-0.041
-226.713	2.879	-0.051	0.037
-225.698	649.372	-0.099	0.255
-224.684	-65.502	0.096	0.039
-223.669	136.158	-0.010	-0.013
-222.655	-42.807	-0.167	0.085
-221.640	-0.521	-0.182	0.130
-220.625	11.715	0.141	-0.109
-219.611	-200.000	0.035	-0.211
-218.596	-200.000	-0.043	-0.509
-217.582	158.416	-0.063	0.088
-216.567	764.299	-0.118	-0.322
-215.552	-156.800	0.016	-0.001
-214.538	-200.000	-0.002	-0.078
-213.523	800.000	-0.079	-0.258
-212.509	136.397	0.155	0.203
-211.494	-54.054	-0.267	0.122
-210.479	1.737	0.148	0.107
-209.465	-200.000	0.048	-0.211
-208.450	39.096	0.095	-0.085
-207.436	301.399	-0.148	0.274
-206.421	-162.554	0.257	-0.013
-205.406	-68.388	0.105	0.041
-204.392	-10.072	0.371	0.247
-203.377	171.350	0.092	0.133
-202.363	86.811	0.220	-0.243
-201.348	-92.289	-0.257	-0.073
-200.333	800.000	0.027	0.113
-199.319	-43.715	-0.126	-0.064
-198.304	-200.000	0.033	0.217
-197.290	-38.226	-0.034	-0.018
-196.275	-148.367	0.012	-0.001
-195.260	-25.844	-0.346	-0.204
-194.246	-200.000	-0.126	0.000
-193.231	238.158	0.163	0.272
-192.217	800.000	-0.091	0.339
-191.202	557.921	-0.101	-0.243
-190.187	-152.253	-0.536	0.039
-189.173	19.709	-0.067	0.054
-188.158	-132.945	-0.190	-0.024
-187.144	-103.593	-0.275	-0.065
-186.129	-18.239	0.329	0.206
-185.114	-200.000	0.004	0.044
-184.100	72.063	0.095	0.099
-183.085	-157.927	0.131	0.008
-182.071	86.650	-0.172	0.190
-181.056	800.000	-0.116	0.405
-180.042	-200.000	0.095	0.440
-179.027	372.326	0.156	0.318
-178.012	104.604	0.369	-0.435
-176.998	135.809	0.016	0.021
-175.983	-200.000	-0.042	-0.370
-174.969	-200.000	-0.083	0.396
-173.954	-200.000	0.002	0.193
-172.939	-200.000	0.011	0.052
-171.925	-127.418	0.043	-0.006
-170.910	403.569	0.078	-0.164
-169.896	-200.000	0.031	-0.184
-168.881	-77.215	0.131	0.046
-167.866	-56.590	0.113	-0.050
-166.852	82.463	0.134	-0.146
-165.837	-127.328	-0.288	0.042
-164.823	125.267	0.027	0.034
-163.808	-91.905	0.262	-0.074
-162.793	-200.000	0.002	0.069
-161.779	52.119	-0.128	-0.122
-160.764	800.000	-0.079	0.277
-159.750	143.980	-0.121	0.161
-158.735	175.921	-0.174	-0.253
-157.720	-73.036	0.295	-0.108
-156.706	284.486	-0.111	-0.200
-155.691	-165.661	0.112	-0.005
-154.677	-43.148	-0.368	-0.186
-153.662	188.158	0.058	0.087
-152.647	-45.827	0.338	-0.167
-151.633	-15.693	0.136	-0.087
-150.618	-101.111	-0.175	0.043
-149.604	171.305	-0.148	-0.212
-148.589	63.143	-0.049	-0.049
-147.574	-106.505	-0.104	0.023
-146.560	-81.678	0.211	0.069
-145.545	481.600	-0.119	0.269
-144.531	-82.820	-0.209	0.067
-143.516	-200.000	-0.015	-0.112
-142.502	-148.887	-0.137	-0.011
-141.487	241.267	-0.109	-0.182
-140.472	-2.731	-0.413	-0.289
-139.458	-120.054	0.063	-0.011
-138.443	-37.817	0.324	0.172
-137.429	-200.000	0.015	-0.129
-136.414	800.000	0.062	-0.225
-135.399	-54.110	-0.217	0.099
-134.385	97.631	0.050	0.058
-133.370	152.412	-0.079	-0.108
-132.356	9.787	-0.109	-0.083
-131.341	-134.390	-0.281	-0.034
-130.326	800.000	-0.056	-0.154
-129.312	-200.000	-0.033	0.149
-128.297	-118.226	-0.102	-0.018
-127.283	-93.860	0.161	0.044
-126.268	-200.000	-0.043	0.332
-125.253	800.000	-0.033	0.112
-124.239	-200.000	0.014	0.220
-123.224	800.000	-0.053	0.197
-122.210	800.000	0.010	0.037
-121.195	485.133	-0.148	0.336
-120.180	-200.000	-0.016	0.136
-119.166	-72.351	-0.211	-0.078
-118.151	419.460	-0.066	0.141
-117.137	41.470	-0.178	0.161
-116.122	241.828	-0.011	-0.019
-115.107	-200.000	0.024	-0.249
-114.093	800.000	0.080	0.258
-113.078	168.681	-0.183	-0.260
-112.064	-25.530	-0.101	-0.060
-111.049	123.447	-0.072	-0.091
-110.034	-20.267	0.339	-0.208
-109.020	-200.000	-0.074	-0.475
-108.005	-200.000	-0.001	-0.122
-106.991	-40.802	0.107	0.055
-105.976	184.553	0.062	0.091
-104.962	-200.000	-0.004	-0.082
-103.947	225.766	-0.113	-0.183
-102.932	-92.950	0.115	-0.032
-101.918	191.210	0.284	0.427
-100.903	414.765	0.175	-0.371
-99.889	-200.000	-0.016	0.139
-98.874	-200.000	0.033	0.336
-97.859	588.754	-0.121	0.298
-96.845	-115.318	-0.262	-0.049
-95.830	-200.000	-0.006	-0.093
-94.816	384.258	-0.086	-0.177
-93.801	13.353	0.280	-0.217
-92.786	800.000	-0.048	0.140
-91.772	800.000	-0.060	0.216
-90.757	-107.865	0.135	-0.029
-89.743	800.000	-0.040	-0.148
-88.728	0.744	-0.190	-0.136
-87.713	-37.649	0.411	-0.219
-86.699	-200.000	0.026	-0.156
-85.684	44.722	0.079	0.072
-84.670	313.190	-0.073	0.136
-83.655	-130.815	0.070	0.009
-82.640	372.578	-0.066	0.133
-81.626	800.000	0.064	0.205
-80.611	-34.844	0.147	0.080
-79.597	-200.000	0.004	-0.209
-78.582	94.356	0.232	0.263
-77.567	-200.000	-0.051	-0.438
-76.553	-200.000	-0.019	0.096
-75.538	689.769	0.087	0.228
-74.524	-147.940	0.183	0.015
-73.509	-146.182	0.067	-0.006
-72.494	-54.739	0.178	0.080
-71.480	153.589	0.228	-0.311
-70.465	-200.000	-0.004	0.223
-69.451	64.121	-0.224	-0.225
-68.436	277.127	-0.099	0.176
-67.422	-9.684	-0.229	0.152
-66.407	-13.003	-0.091	0.059
-65.392	197.515	0.091	0.139
-64.378	190.946	-0.150	0.225
-63.363	97.643	0.022	0.025
-62.349	103.308	-0.162	0.189
-61.334	28.409	-0.545	-0.459
-60.319	691.511	0.202	0.528
-59.305	-200.000	0.039	-0.368
-58.290	93.105	0.687	0.774
-57.276	461.357	0.718	1.596
-56.261	-200.000	76.882	512.640
-55.246	512.744	1339.461	3110.076
-54.232	145.169	2572.234	3429.112
-53.217	116.341	2234.516	2728.393
-52.203	52.142	1680.310	1595.502
-51.188	44.276	1404.972	1284.519
-50.173	40.756	1359.135	1220.971
-49.159	59.102	1395.062	1367.504
-48.144	65.618	1413.864	1426.264
-47.130	44.665	1376.553	1260.752
-46.115	40.720	1359.529	1220.908
-45.100	40.494	1354.936	1215.354
-44.086	40.372	1352.585	1212.449
-43.071	40.375	1350.220	1210.300
-42.057	40.367	1347.901	1208.126
-41.042	40.344	1346.273	1206.477
-40.027	40.442	1344.591	1205.519
-39.013	40.404	1342.517	1203.378
-37.998	40.396	1340.708	1201.661
-36.984	40.472	1339.191	1200.715
-35.969	40.484	1337.444	1199.174
-34.954	40.551	1335.569	1197.852
-33.940	40.568	1334.443	1196.895
-32.925	40.581	1332.723	1195.384
-31.911	40.636	1331.343	1194.427
-30.896	40.608	1330.241	1193.224
-29.881	40.611	1328.545	1191.677
-28.867	40.676	1326.910	1190.548
-27.852	40.668	1325.091	1188.826
-26.838	40.546	1324.172	1187.218
-25.823	40.603	1322.382	1185.912
-24.809	40.558	1321.333	1184.653
-23.794	40.589	1319.571	1183.213
-22.779	40.659	1318.439	1182.567
-21.765	40.632	1316.929	1181.006
-20.750	40.525	1315.910	1179.409
-19.736	40.471	1314.206	1177.515
-18.721	40.513	1312.914	1176.557
-17.706	40.407	1312.393	1175.417
-16.692	40.449	1310.883	1174.265
-15.677	40.421	1310.212	1173.451
-14.663	40.427	1308.986	1172.344
-13.648	40.330	1307.722	1170.590
-12.633	40.387	1306.426	1169.718
-11.619	40.464	1305.250	1169.072
-10.604	40.447	1305.257	1168.937
-9.590	40.413	1303.816	1167.396
-8.575	40.398	1302.944	1166.480
-7.560	40.534	1301.761	1166.177
-6.546	40.391	1301.065	1164.664
-5.531	40.432	1300.285	1164.160
-4.517	40.429	1299.461	1163.361
-3.502	40.564	1298.085	1162.872
-2.487	40.481	1297.643	1161.944
-1.473	40.520	1293.463	1158.384
-0.458	39.126	1278.869	1137.212
0.556	35.371	1257.710	1094.804
1.571	30.951	1261.832	1072.914
2.586	29.660	1276.866	1078.075
3.600	28.337	1265.782	1060.968
4.615	20.485	1188.161	952.937
5.629	8.066	1103.549	821.355
6.644	2.417	1079.362	774.747
7.659	1.908	1075.931	769.646
8.673	1.648	1074.854	767.498
9.688	1.779	1073.135	766.860
10.702	1.945	1072.447	767.136
11.717	8.599	1082.869	808.229
12.731	19.890	1098.979	877.773
13.746	24.972	1104.704	908.106
14.761	25.220	1104.970	909.502
15.775	25.168	1104.689	908.927
16.790	25.087	1103.378	907.357
17.804	24.759	1103.379	905.618
18.819	25.037	1102.446	906.175
19.834	25.148	1102.039	906.321
20.848	25.167	1101.885	906.211
21.863	25.209	1101.347	905.899
22.877	25.159	1100.371	904.766
23.892	25.103	1099.641	903.804
24.907	25.072	1099.233	903.235
25.921	25.034	1097.715	901.715
26.936	25.095	1096.377	900.842
27.950	25.077	1094.749	899.335
28.965	24.967	1092.901	897.187
29.980	24.808	1091.865	895.459
30.994	25.145	1090.650	896.067
32.009	25.087	1089.950	895.125
33.023	24.836	1088.988	893.002
34.038	25.031	1088.113	893.177
35.053	25.164	1087.208	893.019
36.067	25.015	1086.773	891.839
37.082	25.153	1085.947	891.768
38.096	25.275	1085.192	891.678
39.111	25.455	1084.016	891.525
40.126	25.193	1082.991	889.304
41.140	24.907	1081.175	886.321
42.155	24.544	1080.037	883.513
43.169	24.708	1078.861	883.284
44.184	24.753	1078.003	882.724
45.199	24.656	1076.936	881.296
46.213	24.750	1075.942	880.868
47.228	24.899	1075.405	881.084
48.242	24.914	1074.533	880.362
49.257	24.834	1074.032	879.484
50.271	25.155	1072.696	879.886
51.286	25.118	1072.323	879.322
52.301	25.155	1071.527	878.772
53.315	24.876	1070.810	876.737
54.330	24.934	1069.553	875.916
55.344	25.044	1068.666	875.649
56.359	25.033	1067.844	874.844
57.374	24.666	1067.054	872.328
58.388	24.730	1066.224	871.886
59.403	24.690	1065.366	870.910
60.417	24.697	1064.219	869.932
61.432	24.701	1063.632	869.395
62.447	24.959	1063.248	870.258
63.461	24.778	1063.153	869.222
64.476	24.840	1061.454	868.059
65.490	24.736	1060.485	866.686
66.505	24.815	1059.586	866.257
67.520	24.620	1059.757	865.373
68.534	24.572	1058.187	863.784
69.549	24.415	1057.024	861.998
70.563	24.379	1055.878	860.813
71.578	24.470	1054.891	860.371
72.593	24.163	1054.300	858.335
73.607	24.290	1053.802	858.463
74.622	24.612	1053.435	859.641
75.636	24.671	1052.881	859.396
76.651	24.511	1051.568	857.481
77.666	24.350	1051.133	856.276
78.680	24.558	1050.428	856.625
79.695	24.519	1049.628	855.707
80.709	24.696	1049.163	856.100
81.724	24.568	1048.517	854.887
82.739	24.664	1047.502	854.440
83.753	24.970	1047.646	855.946
84.768	25.350	1046.258	856.549
85.782	25.517	1045.412	856.576
86.797	25.398	1044.468	855.163
87.812	25.148	1043.642	853.218
88.826	25.217	1042.882	852.852
89.841	25.240	1041.904	852.084
90.855	25.357	1040.817	851.678
91.870	25.323	1039.786	850.597
92.884	25.209	1038.599	849.012
93.899	25.162	1037.774	848.040
94.914	25.372	1036.959	848.290
95.928	25.263	1035.620	846.606
96.943	25.021	1034.307	844.316
97.957	24.671	1033.518	841.950
98.972	24.499	1032.225	840.011
99.987	24.795	1031.574	840.797
101.001	25.021	1031.278	841.545
102.016	24.880	1030.483	840.160
103.030	24.864	1029.155	838.928
104.045	24.719	1028.403	837.561
105.060	24.627	1027.416	836.252
106.074	24.804	1026.641	836.377
107.089	25.133	1025.756	837.116
108.103	25.121	1024.591	836.039
109.118	24.739	1023.768	833.511
110.133	24.711	1022.716	832.449
111.147	24.611	1021.064	830.569
112.162	24.410	1020.674	829.242
113.176	24.695	1020.061	829.996
114.191	24.630	1019.054	828.799
115.206	24.379	1017.996	826.702
116.220	24.231	1017.456	825.506
117.235	24.540	1016.312	825.934
118.249	24.406	1015.319	824.436
119.264	24.392	1014.546	823.670
120.279	24.401	1013.864	823.083
121.293	24.416	1013.299	822.623
122.308	24.448	1012.529	822.074
123.322	24.508	1010.847	820.910
124.337	24.257	1009.560	818.642
125.352	23.787	1008.145	815.266
126.366	23.803	1007.360	814.632
127.381	24.489	1007.377	817.718
128.395	24.786	1007.431	819.046
129.410	24.936	1005.928	818.438
130.424	24.933	1005.107	817.686
131.439	25.029	1004.187	817.303
132.454	24.993	1002.988	816.087
133.468	24.918	1002.259	815.085
134.483	25.001	1001.597	814.849
135.497	25.233	1001.086	815.417
136.512	25.296	1000.084	814.816
137.527	25.259	999.336	813.964
138.541	25.289	998.522	813.366
139.556	25.395	997.424	812.878
140.570	25.251	996.939	811.762
141.585	25.348	995.821	811.217
142.600	25.234	995.053	810.004
143.614	25.435	994.455	810.355
144.629	25.505	993.660	809.950
145.643	25.368	992.291	808.146
146.658	25.217	990.690	806.090
147.673	25.120	989.522	804.634
148.687	25.075	989.014	803.948
149.702	24.973	987.500	802.189
150.716	24.963	986.713	801.433
151.731	25.126	986.280	801.742
152.746	25.300	985.470	801.790
153.760	25.435	984.918	801.869
154.775	25.361	984.578	801.196
155.789	25.466	983.218	800.484
156.804	25.432	982.013	799.279
157.819	25.513	981.540	799.184
158.833	25.501	981.015	798.634
159.848	25.598	980.299	798.409
160.862	25.347	979.010	796.175
161.877	25.316	978.189	795.303
162.892	25.476	976.993	794.966
163.906	25.303	975.884	793.227
164.921	25.350	975.036	792.678
165.935	25.378	974.237	792.083
166.950	25.375	972.947	790.948
167.964	25.302	972.648	790.315
168.979	25.146	971.256	788.428
169.994	25.161	970.591	787.884
171.008	25.351	969.962	788.140
172.023	25.447	969.324	787.973
173.037	25.289	967.851	786.012
174.052	25.089	966.993	784.373
175.067	25.110	966.664	784.125
176.081	25.125	965.988	783.574
177.096	25.096	965.443	782.935
178.110	24.875	964.387	781.046
179.125	24.676	963.889	779.704
180.140	24.885	962.952	779.790
181.154	24.922	963.022	779.936
182.169	25.168	962.706	780.685
183.183	25.414	962.439	781.469
184.198	25.302	961.331	780.013
185.213	25.181	960.874	779.049
186.227	25.324	960.254	779.098
187.242	25.322	959.107	778.091
188.256	25.428	958.368	777.878
189.271	25.529	957.971	777.925
190.286	25.043	956.871	774.861
191.300	24.533	955.171	771.218
192.315	23.697	953.396	766.111
193.329	23.574	953.247	765.393
194.344	24.427	954.029	769.631
195.359	25.192	953.253	772.231
196.373	25.331	953.163	772.689
197.388	25.285	952.495	771.880
198.402	25.222	952.025	771.161
199.417	25.185	951.541	770.545
200.432	25.168	949.726	768.931
201.446	24.896	949.575	767.573
202.461	24.967	948.739	767.136
203.475	24.055	947.311	762.013
204.490	23.362	945.516	757.538
205.504	24.253	945.944	761.622
206.519	24.899	945.992	764.355
207.534	24.845	945.372	763.556
208.548	25.378	945.497	765.861
209.563	25.140	944.367	763.865
210.577	25.167	943.443	763.165
211.592	25.531	943.516	764.705
212.607	25.408	943.191	763.853
213.621	25.484	941.931	763.086
214.636	25.450	941.404	762.448
215.650	25.442	940.506	761.618
216.665	25.570	940.137	761.795
217.680	25.465	939.235	760.551
218.694	25.064	937.997	757.788
219.709	24.841	937.453	756.338
220.723	25.223	936.767	757.330
221.738	25.333	936.494	757.506
222.753	25.279	935.823	756.668
223.767	25.359	935.725	756.860
224.782	25.499	935.294	757.033
225.796	25.621	934.544	756.873
226.811	24.804	933.357	752.412
227.826	24.252	931.641	748.643
228.840	24.502	931.067	749.164
229.855	24.504	930.469	748.628
230.869	24.123	929.304	746.028
231.884	24.544	929.425	747.821
232.899	25.266	929.522	750.854
233.913	25.032	929.237	749.579
234.928	25.094	928.061	748.824
235.942	25.062	927.653	748.295
236.957	24.791	926.592	746.243
237.972	24.864	926.312	746.257
238.986	24.928	925.897	746.122
240.001	24.960	925.357	745.755
241.015	25.037	924.786	745.548
242.030	25.217	924.243	745.793
243.045	25.186	924.176	745.545
244.059	25.412	923.087	745.536
245.074	25.175	922.446	743.969
246.088	24.791	921.474	741.528
247.103	25.267	921.187	743.206
248.117	25.716	921.335	745.118
249.132	26.212	920.634	746.536
250.147	26.076	920.379	745.701
251.161	26.189	919.946	745.751
252.176	26.249	918.896	745.079
253.190	26.199	918.521	744.505
254.205	26.375	918.059	744.791
255.220	26.391	917.331	744.200
256.234	26.248	916.612	742.960
257.249	25.966	915.974	741.219
258.263	26.136	915.295	741.303
259.278	26.108	914.794	740.717
260.293	26.270	914.219	740.849
261.307	26.135	913.359	739.535
262.322	25.826	912.573	737.565
263.336	25.191	910.594	733.309
264.351	24.215	908.579	727.636
265.366	24.283	908.649	727.904
266.380	25.273	909.239	732.357
267.395	25.764	908.799	733.938
268.409	25.803	908.016	733.402
269.424	26.074	907.393	733.933
270.439	25.958	907.281	733.310
271.453	25.884	906.728	732.495
272.468	26.186	906.145	733.186
273.482	26.253	905.714	733.046
274.497	25.799	904.623	730.257
275.512	25.474	903.617	728.064
276.526	25.836	903.906	729.698
277.541	25.877	903.675	729.612
278.555	25.778	902.564	728.251
279.570	25.919	901.456	727.862
280.585	26.025	900.966	727.830
281.599	25.994	899.946	726.817
282.614	25.310	899.191	723.386
283.628	25.083	898.287	721.683
284.643	25.567	898.053	723.376
285.657	25.275	896.650	721.010
286.672	24.990	895.748	719.078
287.687	25.566	895.989	721.521
288.701	25.438	895.507	720.555
289.716	25.151	894.859	718.818
290.730	25.171	894.098	718.223
291.745	24.836	893.479	716.322
292.760	25.153	892.982	717.129
293.774	26.209	893.418	721.638
294.789	26.659	893.076	723.094
295.803	26.488	892.509	721.890
296.818	26.560	891.866	721.593
297.833	26.089	890.609	718.638
298.847	26.071	889.856	717.892
299.862	26.190	889.900	718.339
300.876	26.638	889.565	719.785
301.891	26.510	888.603	718.434
302.906	26.060	887.704	715.861
303.920	26.132	887.852	716.203
304.935	26.603	887.181	717.464
305.949	26.488	886.371	716.288
306.964	26.215	885.582	714.509
307.979	26.250	885.252	714.316
308.993	26.616	885.264	715.710
310.008	26.613	884.907	715.348
311.022	26.363	883.784	713.390
312.037	26.297	883.218	712.607
313.052	26.010	882.081	710.497
314.066	25.128	880.425	705.633
315.081	24.706	879.691	703.323
316.095	25.555	880.347	707.124
317.110	26.050	880.444	709.088
318.125	25.411	878.510	704.960
319.139	24.272	876.833	699.086
320.154	24.323	876.457	698.924
321.168	25.017	877.190	702.169
322.183	25.868	877.049	705.328
323.197	25.846	877.035	705.165
324.212	26.182	876.512	705.996
325.227	26.224	875.923	705.624
326.241	26.207	875.326	705.017
327.256	25.989	874.672	703.575
328.270	25.925	873.699	702.480
329.285	25.734	873.152	701.234
330.300	25.472	872.278	699.450
331.314	25.690	871.884	699.920
332.329	26.144	871.854	701.600
333.343	26.395	871.362	702.116
334.358	26.369	871.045	701.700
335.373	26.455	870.832	701.800
336.387	26.610	870.742	702.265
337.402	26.820	870.644	702.939
338.416	26.871	870.126	702.654
339.431	26.890	869.652	702.283
340.446	26.968	869.413	702.330
341.460	26.956	868.578	701.548
342.475	26.634	868.426	700.117
343.489	26.875	867.873	700.541
344.504	27.052	868.037	701.296
345.519	27.291	867.329	701.583
346.533	27.190	866.581	700.527
347.548	27.190	866.364	700.290
348.562	27.006	865.750	699.023
349.577	27.069	865.257	698.807
350.592	27.112	864.374	698.197
351.606	27.058	863.382	697.124
352.621	26.927	862.435	695.795
353.635	26.946	861.636	695.163
354.650	26.138	860.675	691.236
355.665	25.349	859.085	686.879
356.679	25.707	858.605	687.803
357.694	26.201	858.606	689.632
358.708	25.932	858.013	688.066
359.723	26.530	857.556	689.921
360.738	26.766	857.252	690.514
361.752	26.999	856.561	690.780
362.767	27.208	856.708	691.635
363.781	27.325	856.487	691.839
364.796	27.699	855.797	692.642
365.810	27.598	855.549	691.995
366.825	27.410	855.329	691.043
367.840	27.392	853.989	689.833
368.854	26.737	853.320	686.750
369.869	26.723	853.161	686.507
370.883	26.869	852.430	686.410
371.898	26.764	851.617	685.298
372.913	26.902	851.611	685.755
373.927	26.981	851.132	685.607
374.942	27.172	850.801	686.001
375.956	27.146	850.384	685.506
376.971	27.268	850.446	685.956
377.986	27.450	849.978	686.203
379.000	27.473	849.397	685.761
380.015	27.255	848.543	684.190
381.029	27.452	847.736	684.217
382.044	27.434	847.660	684.028
383.059	27.600	846.654	683.780
384.073	27.521	846.490	683.292
385.088	27.406	845.710	682.167
386.102	27.333	844.787	681.092
387.117	27.155	844.469	680.108
388.132	26.832	842.866	677.548
389.146	26.230	842.517	674.962
390.161	26.741	842.225	676.576
391.175	27.221	841.584	677.792
392.190	26.803	841.065	675.755
393.205	25.549	838.915	669.303
394.219	24.123	836.446	661.978
395.234	23.849	836.137	660.657
396.248	25.473	838.020	668.129
397.263	27.004	838.619	674.238
398.278	27.043	838.284	674.053
399.292	26.753	837.591	672.360
400.307	26.720	837.446	672.063
401.321	26.814	837.070	672.051
402.336	27.230	837.086	673.543
403.350	27.659	836.774	674.822
404.365	27.866	836.603	675.391
405.380	28.097	836.512	676.112
406.394	28.237	835.773	675.970
407.409	28.295	835.004	675.504
408.423	28.110	835.043	674.791
409.438	28.183	834.620	674.660
410.453	28.287	834.031	674.510
411.467	28.088	833.692	673.442
412.482	28.093	833.123	672.940
413.496	28.287	832.927	673.437
414.511	28.271	832.132	672.674
415.526	28.224	831.860	672.221
416.540	28.081	831.366	671.238
417.555	27.893	830.403	669.713
418.569	27.837	829.805	668.966
419.584	27.865	829.392	668.678
420.599	27.572	828.807	667.074
421.613	95.166	1267.671	1381.034
422.628	82.230	1331.624	1381.158
