DTS Sentinel unit serial number:	SN413079Multiplexer serial number:	ORYXHardware model number:	OX4-SRSoftware version number:	ORYX F/W v4.00 Oryx Data Collector v3.7.2.0data status	okinstallation	princeton_trtdifferential loss correction	single-endedforward channel	channel 1reverse channel	N/Adate	2019/09/12time	11:36:11forward acquisition time	60.00reverse acquisition time	0.00gamma	496.2192k internal	0.2294k external	0.2294temperature offset calibration	1.0043default loss term (dB/km)	0.3790temperature slope calibration	1.0000multiplexer offset coefficient	1.0000multiplexer slope coefficient	1.0000fibre end	0.00T internal ref (°C)	39.52T ext. ref 1 (°C)	1.97T ext. ref 2 (°C)	36.78length (m)	temperature (°C)	Stokes	anti-Stokes-747.200	800.000	-0.022	-0.093
-746.185	-178.193	0.198	0.005
-745.171	-95.044	-0.096	0.026
-744.156	134.710	-0.131	0.174
-743.142	297.308	-0.153	0.288
-742.127	-165.678	-0.522	-0.023
-741.112	800.000	0.077	-0.238
-740.098	135.620	-0.254	-0.337
-739.083	-153.400	0.274	0.019
-738.069	307.336	-0.069	0.132
-737.054	-200.000	-0.015	0.246
-736.039	-118.727	-0.302	0.054
-735.025	-39.523	0.433	0.232
-734.010	-37.483	-0.020	-0.011
-732.996	486.947	-0.061	-0.143
-731.981	-116.891	0.279	0.052
-730.966	-4.880	0.213	-0.150
-729.952	-84.547	-0.091	0.029
-728.937	-200.000	0.013	0.087
-727.923	-90.838	-0.071	0.021
-726.908	1.022	-0.291	0.213
-725.894	160.757	0.033	0.048
-724.879	-200.000	0.038	-0.233
-723.864	-58.028	-0.152	-0.068
-722.850	-200.000	0.002	-0.474
-721.835	-117.347	-0.064	-0.012
-720.821	451.543	-0.013	0.029
-719.806	800.000	-0.066	-0.191
-718.791	-33.909	-0.160	0.090
-717.777	-200.000	-0.047	0.243
-716.762	800.000	-0.041	-0.155
-715.748	-140.060	-0.235	0.025
-714.733	-67.692	-0.286	-0.114
-713.718	104.777	-0.194	-0.234
-712.704	0.971	-0.165	-0.121
-711.689	-200.000	-0.057	0.349
-710.675	12.610	-0.261	-0.206
-709.660	571.921	0.075	-0.186
-708.645	10.294	0.352	0.274
-707.631	800.000	-0.048	0.163
-706.616	800.000	-0.030	0.115
-705.602	215.977	-0.100	-0.162
-704.587	106.966	-0.199	-0.241
-703.572	192.207	0.201	-0.310
-702.558	-117.707	0.268	0.049
-701.543	-200.000	-0.007	0.155
-700.529	314.683	0.047	-0.091
-699.514	-200.000	0.017	-0.117
-698.499	-200.000	0.113	0.560
-697.485	22.322	-0.231	0.193
-696.470	-55.778	-0.043	-0.020
-695.456	659.994	0.017	-0.043
-694.441	601.494	-0.137	0.349
-693.426	-88.133	-0.259	-0.079
-692.412	-99.726	0.271	-0.069
-691.397	-90.333	0.219	0.065
-690.383	-26.100	-0.126	-0.076
-689.368	-200.000	0.043	-0.316
-688.354	-7.550	-0.028	-0.019
-687.339	-31.466	-0.119	-0.068
-686.324	-200.000	-0.030	-0.144
-685.310	-200.000	-0.008	0.223
-684.295	-200.000	-0.003	0.277
-683.281	-27.070	-0.139	-0.083
-682.266	12.173	0.062	0.049
-681.251	-200.000	-0.013	-0.217
-680.237	24.538	0.197	-0.166
-679.222	124.008	0.059	-0.076
-678.208	-133.710	0.199	0.025
-677.193	-100.053	-0.160	0.041
-676.178	-187.585	-0.296	0.004
-675.164	-95.198	0.410	0.113
-674.149	-97.244	0.277	-0.074
-673.135	-157.046	0.380	0.024
-672.120	13.662	-0.072	-0.057
-671.105	-116.946	-0.174	0.032
-670.091	368.601	0.030	-0.062
-669.076	-135.200	-0.136	0.017
-668.062	-93.953	-0.215	-0.060
-667.047	-14.977	-0.189	-0.124
-666.032	-200.000	0.005	0.088
-665.018	-200.000	0.027	-0.162
-664.003	-200.000	-0.060	0.376
-662.989	117.213	-0.149	0.187
-661.974	-200.000	0.017	-0.256
-660.959	-1.402	-0.091	0.065
-659.945	159.345	-0.185	0.263
-658.930	-200.000	0.017	-0.218
-657.916	-78.113	0.260	0.091
-656.901	164.148	-0.243	0.349
-655.886	-43.091	-0.254	0.131
-654.872	800.000	0.044	-0.128
-653.857	-32.908	-0.196	-0.111
-652.843	-4.635	0.068	-0.048
-651.828	-200.000	0.023	0.245
-650.814	577.189	-0.118	-0.293
-649.799	143.499	-0.197	-0.267
-648.784	-97.690	0.066	-0.017
-647.770	-91.510	-0.300	-0.087
-646.755	354.704	-0.056	-0.114
-645.741	-200.000	0.001	0.014
-644.726	633.800	0.102	0.263
-643.711	-16.240	-0.262	0.169
-642.697	70.552	0.170	-0.179
-641.682	-50.379	-0.068	-0.033
-640.668	-200.000	-0.029	-0.208
-639.653	-82.176	-0.388	-0.129
-638.638	132.080	0.021	-0.028
-637.624	376.406	0.050	0.104
-636.609	-200.000	-0.004	-0.157
-635.595	77.000	-0.218	0.236
-634.580	800.000	-0.051	-0.164
-633.565	10.811	-0.222	0.173
-632.551	-72.602	-0.257	-0.097
-631.536	-42.443	-0.308	0.160
-630.522	-157.496	0.133	-0.008
-629.507	-29.050	0.352	0.206
-628.492	-168.186	0.180	-0.007
-627.478	-16.278	-0.181	-0.117
-626.463	-46.023	-0.319	0.160
-625.449	-200.000	0.060	0.339
-624.434	50.516	-0.151	-0.145
-623.419	4.551	0.064	-0.048
-622.405	-15.177	-0.247	0.161
-621.390	-200.000	-0.012	-0.322
-620.376	60.805	0.297	-0.300
-619.361	160.042	-0.063	0.090
-618.346	-101.467	-0.123	-0.030
-617.332	-61.392	-0.089	-0.038
-616.317	-73.091	0.265	-0.099
-615.303	800.000	0.057	-0.174
-614.288	61.222	0.170	-0.172
-613.273	-117.584	-0.424	0.078
-612.259	800.000	-0.100	0.305
-611.244	-107.714	-0.342	0.076
-610.230	-200.000	0.000	-0.006
-609.215	79.586	0.047	-0.052
-608.201	800.000	0.093	-0.268
-607.186	157.062	0.125	0.175
-606.171	218.228	-0.184	-0.299
-605.157	-43.031	0.198	-0.102
-604.142	-28.242	-0.250	0.147
-603.128	134.115	-0.086	0.113
-602.113	800.000	-0.038	0.140
-601.098	-200.000	0.043	0.258
-600.084	-2.587	0.156	0.111
-599.069	169.391	0.176	0.256
-598.055	-169.322	0.063	-0.002
-597.040	-67.113	0.286	0.114
-596.025	800.000	0.051	0.179
-595.011	-39.883	0.479	-0.254
-593.996	31.083	-0.072	-0.062
-592.982	-29.364	-0.028	-0.016
-591.967	80.197	-0.147	0.160
-590.952	414.448	0.037	0.079
-589.938	-172.428	-0.302	-0.010
-588.923	203.188	0.184	-0.290
-587.909	209.270	0.104	0.166
-586.894	800.000	-0.054	0.159
-585.879	217.331	0.157	0.254
-584.865	238.628	0.246	-0.416
-583.850	-104.728	0.269	0.063
-582.836	205.335	0.021	-0.032
-581.821	99.920	-0.120	-0.141
-580.806	-117.160	-0.136	0.025
-579.792	-54.237	0.320	0.148
-578.777	-200.000	0.034	0.196
-577.763	800.000	-0.028	0.106
-576.748	-0.671	-0.163	0.118
-575.733	-133.122	0.199	0.026
-574.719	-200.000	0.024	0.215
-573.704	-200.000	-0.003	0.156
-572.690	-33.215	-0.170	0.096
-571.675	66.045	0.273	-0.281
-570.661	-126.464	-0.092	0.014
-569.646	797.166	0.084	0.236
-568.631	231.273	-0.158	0.262
-567.617	126.039	-0.159	0.204
-566.602	-56.054	-0.334	-0.151
-565.588	800.000	-0.063	-0.270
-564.573	-200.000	0.016	0.095
-563.558	-93.383	-0.392	0.110
-562.544	19.329	0.067	-0.054
-561.529	-124.214	0.415	0.066
-560.515	800.000	-0.174	-0.487
-559.500	221.231	-0.198	0.322
-558.485	-165.824	0.126	0.005
-557.471	412.588	-0.220	-0.475
-556.456	152.927	0.112	-0.156
-555.442	-17.016	0.168	-0.108
-554.427	130.524	-0.149	0.194
-553.412	-185.476	-0.337	0.005
-552.398	118.760	-0.237	-0.297
-551.383	-151.302	0.222	0.017
-550.369	-31.648	0.075	0.043
-549.354	800.000	0.101	-0.382
-548.339	-200.000	0.061	-0.326
-547.325	-12.128	0.068	0.045
-546.310	-200.000	-0.008	-0.100
-545.296	-32.278	-0.083	0.047
-544.281	800.000	-0.047	0.179
-543.266	396.774	-0.109	-0.230
-542.252	159.066	-0.214	0.302
-541.237	-200.000	0.014	0.090
-540.223	168.048	-0.267	-0.386
-539.208	800.000	0.020	0.089
-538.193	104.290	-0.132	-0.158
-537.179	85.437	-0.138	-0.154
-536.164	-34.765	0.169	-0.094
-535.150	180.843	0.188	-0.280
-534.135	-130.206	0.436	-0.060
-533.121	-102.541	-0.357	-0.086
-532.106	-91.026	0.215	0.063
-531.091	-86.094	-0.211	-0.066
-530.077	183.588	-0.092	0.138
-529.062	-53.862	-0.103	0.048
-528.048	-114.682	-0.244	-0.047
-527.033	-116.433	-0.158	0.030
-526.018	-55.911	-0.269	0.122
-525.004	163.960	-0.035	-0.050
-523.989	-68.160	0.264	-0.104
-522.975	-200.000	0.042	-0.229
-521.960	302.267	-0.052	0.097
-520.945	-200.000	0.005	0.278
-519.931	-71.987	-0.385	0.145
-518.916	800.000	-0.037	0.125
-517.902	232.393	0.119	0.198
-516.887	-177.047	0.203	-0.005
-515.872	-70.972	0.334	-0.128
-514.858	-107.068	-0.143	0.032
-513.843	77.666	-0.050	-0.054
-512.829	-92.462	0.093	-0.027
-511.814	-99.444	0.140	0.036
-510.799	-200.000	0.020	-0.306
-509.785	539.679	-0.118	-0.286
-508.770	-128.551	0.065	0.009
-507.756	317.226	0.055	0.106
-506.741	-154.315	0.104	-0.007
-505.726	-84.468	0.226	-0.072
-504.712	-200.000	-0.001	-0.053
-503.697	-200.000	0.016	-0.222
-502.683	21.817	-0.041	-0.034
-501.668	115.139	0.144	-0.178
-500.653	-64.519	0.289	0.119
-499.639	-200.000	0.007	-0.223
-498.624	-200.000	-0.010	-0.107
-497.610	232.293	0.044	0.073
-496.595	-109.058	-0.175	0.038
-495.581	-120.258	0.117	-0.020
-494.566	-106.536	-0.281	0.064
-493.551	-51.047	0.289	0.137
-492.537	-90.252	-0.222	-0.065
-491.522	-200.000	0.001	-0.204
-490.508	343.112	0.085	0.168
-489.493	-200.000	-0.030	-0.239
-488.478	-132.606	0.180	-0.023
-487.464	800.000	-0.069	0.244
-486.449	88.743	0.253	-0.284
-485.435	-200.000	-0.004	0.293
-484.420	366.375	0.117	-0.240
-483.405	101.815	-0.385	-0.455
-482.391	-83.293	-0.313	0.102
-481.376	-42.953	-0.177	-0.091
-480.362	543.745	-0.076	0.185
-479.347	-41.252	-0.243	0.127
-478.332	353.062	-0.068	-0.137
-477.318	155.058	-0.115	0.160
-476.303	148.973	-0.224	-0.306
-475.289	-200.000	-0.029	-0.199
-474.274	-129.253	0.303	0.043
-473.259	571.273	0.158	0.389
-472.245	-144.469	0.190	-0.018
-471.230	-87.228	-0.255	0.079
-470.216	215.655	-0.179	0.288
-469.201	319.511	-0.098	0.188
-468.186	800.000	0.016	-0.064
-467.172	56.510	0.145	-0.143
-466.157	800.000	0.070	0.234
-465.143	6.150	0.076	0.057
-464.128	84.404	-0.048	0.053
-463.113	-200.000	-0.012	0.082
-462.099	800.000	0.123	0.436
-461.084	40.035	-0.111	0.101
-460.070	404.368	-0.071	0.150
-459.055	-151.522	0.059	0.004
-458.040	-200.000	0.028	-0.180
-457.026	-155.290	-0.140	-0.009
-456.011	-26.695	-0.131	-0.078
-454.997	-15.533	-0.259	0.167
-453.982	-164.716	-0.022	-0.001
-452.968	437.280	-0.124	0.272
-451.953	209.229	-0.172	0.272
-450.938	402.259	-0.060	0.127
-449.924	-147.677	0.146	0.012
-448.909	341.101	0.103	0.202
-447.895	-122.839	-0.051	0.008
-446.880	-180.148	0.368	-0.008
-445.865	401.179	0.173	-0.367
-444.851	-200.000	-0.016	-0.325
-443.836	230.432	0.124	-0.205
-442.822	-25.821	0.290	-0.173
-441.807	800.000	-0.037	-0.106
-440.792	27.728	0.166	-0.141
-439.778	42.415	-0.034	0.031
-438.763	162.174	-0.075	0.106
-437.749	-200.000	0.035	-0.156
-436.734	-105.054	0.596	0.138
-435.719	255.141	0.115	-0.198
-434.705	800.000	0.117	0.348
-433.690	358.686	-0.129	0.260
-432.676	-200.000	-0.005	0.196
-431.661	14.247	-0.102	0.080
-430.646	-200.000	0.010	-0.216
-429.632	214.738	-0.055	0.088
-428.617	56.667	-0.046	0.045
-427.603	-38.619	-0.170	0.091
-426.588	-107.056	-0.267	-0.060
-425.573	-88.004	-0.276	-0.084
-424.559	82.041	0.079	-0.086
-423.544	-100.383	-0.263	-0.066
-422.530	38.897	0.198	-0.179
-421.515	-143.826	-0.193	-0.018
-420.500	-56.328	0.188	0.084
-419.486	21.727	-0.128	-0.106
-418.471	-141.584	0.236	-0.024
-417.457	259.373	-0.142	0.248
-416.442	80.817	0.269	0.293
-415.428	0.922	0.423	-0.306
-414.413	-16.940	-0.085	-0.054
-413.398	64.645	-0.128	0.131
-412.384	-54.840	0.153	-0.070
-411.369	-106.187	0.059	0.013
-410.355	66.656	0.145	-0.149
-409.340	316.052	-0.082	-0.156
-408.325	800.000	0.037	0.112
-407.311	-24.170	-0.199	-0.120
-406.296	387.261	-0.103	0.214
-405.282	-28.838	0.419	0.243
-404.267	-129.860	-0.276	0.038
-403.252	-53.489	0.377	0.174
-402.238	664.916	0.050	0.131
-401.223	-200.000	-0.012	0.182
-400.209	-200.000	-0.007	-0.157
-399.194	20.369	0.201	0.164
-398.179	633.336	-0.068	0.175
-397.165	-101.603	0.152	-0.037
-396.150	59.787	0.060	0.060
-395.136	300.649	-0.052	-0.097
-394.121	-164.937	-0.105	-0.005
-393.106	-115.821	0.100	0.019
-392.092	261.707	-0.047	0.082
-391.077	12.036	-0.114	0.088
-390.063	-200.000	0.011	-0.100
-389.048	-97.560	-0.158	0.041
-388.033	122.038	0.168	0.212
-387.019	755.961	-0.010	0.026
-386.004	105.220	0.095	-0.113
-384.990	800.000	-0.029	-0.124
-383.975	160.585	0.142	0.200
-382.960	72.944	0.151	-0.159
-381.946	-107.021	-0.335	0.075
-380.931	8.827	-0.142	0.108
-379.917	-71.398	0.301	0.114
-378.902	-200.000	-0.074	-0.485
-377.888	-111.286	-0.138	-0.028
-376.873	-169.199	0.413	-0.015
-375.858	50.262	0.067	0.064
-374.844	-200.000	0.024	-0.201
-373.829	125.001	-0.153	-0.194
-372.815	376.853	0.102	-0.209
-371.800	38.843	-0.271	0.244
-370.785	231.875	-0.136	0.226
-369.771	10.492	-0.201	0.154
-368.756	800.000	-0.095	0.288
-367.742	-117.419	-0.164	0.030
-366.727	-1.781	0.049	-0.035
-365.712	800.000	0.058	0.228
-364.698	-101.130	0.263	0.065
-363.683	-136.290	0.204	-0.024
-362.669	800.000	0.067	-0.198
-361.654	798.150	-0.091	-0.254
-360.639	-84.981	-0.123	-0.039
-359.625	72.774	0.170	-0.179
-358.610	-200.000	0.035	-0.194
-357.596	377.271	0.088	-0.181
-356.581	31.356	0.229	0.198
-355.566	473.808	-0.107	0.244
-354.552	-64.602	0.096	-0.039
-353.537	-200.000	-0.044	0.225
-352.523	800.000	0.020	-0.081
-351.508	37.465	0.100	0.089
-350.493	491.667	0.093	-0.213
-349.479	-200.000	-0.002	-0.031
-348.464	-200.000	0.023	-0.551
-347.450	-28.263	-0.152	-0.088
-346.435	-35.195	-0.160	0.088
-345.420	-0.479	0.355	0.254
-344.406	243.331	0.179	0.302
-343.391	-83.923	-0.162	-0.052
-342.377	-57.933	-0.075	-0.033
-341.362	-42.193	-0.136	-0.070
-340.348	198.375	0.138	-0.213
-339.333	-163.965	-0.209	0.010
-338.318	-162.702	0.319	0.016
-337.304	-118.308	0.295	0.053
-336.289	-200.000	0.011	-0.151
-335.275	492.814	0.087	-0.201
-334.260	-116.210	-0.261	-0.049
-333.245	-9.323	-0.074	-0.049
-332.231	800.000	-0.013	0.048
-331.216	188.572	0.137	-0.207
-330.202	-200.000	0.066	-0.587
-329.187	-140.065	0.410	-0.043
-328.172	-122.484	0.149	0.024
-327.158	-18.005	0.070	0.044
-326.143	-70.605	-0.131	-0.050
-325.129	-162.863	-0.124	0.006
-324.114	-19.650	0.333	0.207
-323.099	749.114	0.049	0.132
-322.085	-200.000	0.011	-0.131
-321.070	800.000	0.017	0.062
-320.056	-85.889	0.090	0.028
-319.041	-200.000	-0.003	-0.031
-318.026	-119.863	-0.304	0.053
-317.012	591.453	-0.095	-0.235
-315.997	87.055	0.093	-0.103
-314.983	181.114	0.132	0.195
-313.968	418.243	-0.111	0.239
-312.953	-200.000	-0.042	0.190
-311.939	-46.122	0.185	0.092
-310.924	800.000	0.080	-0.237
-309.910	-200.000	-0.015	-0.167
-308.895	-42.974	-0.143	-0.073
-307.880	128.989	0.022	-0.028
-306.866	800.000	0.102	-0.284
-305.851	-7.981	0.078	0.053
-304.837	-171.486	0.160	0.005
-303.822	-112.868	-0.182	-0.036
-302.807	-58.251	0.169	-0.074
-301.793	-200.000	-0.002	-0.227
-300.778	-49.081	0.174	-0.084
-299.764	-113.099	0.374	0.074
-298.749	178.265	-0.087	-0.128
-297.735	207.548	-0.029	-0.046
-296.720	-81.681	0.121	0.040
-295.705	-40.045	-0.217	0.114
-294.691	55.916	-0.113	-0.110
-293.676	-200.000	-0.021	0.161
-292.662	-107.939	-0.387	0.084
-291.647	79.976	0.282	0.304
-290.632	-119.202	-0.319	-0.056
-289.618	-200.000	-0.001	0.162
-288.603	62.627	0.222	0.223
-287.589	-137.063	-0.077	-0.009
-286.574	130.602	0.085	-0.109
-285.559	-60.788	0.278	-0.118
-284.545	238.197	-0.079	0.131
-283.530	198.471	0.130	0.199
-282.516	66.116	0.102	-0.104
-281.501	-200.000	-0.056	-0.255
-280.486	-20.760	-0.249	-0.153
-279.472	-90.986	-0.386	0.111
-278.457	-41.887	0.072	0.037
-277.443	347.232	0.046	-0.091
-276.428	800.000	-0.059	-0.192
-275.413	-200.000	0.061	0.358
-274.399	50.858	-0.272	-0.258
-273.384	-164.226	-0.179	-0.008
-272.370	408.804	-0.262	0.556
-271.355	-25.028	-0.062	0.037
-270.340	-200.000	0.012	-0.373
-269.326	268.345	0.085	-0.150
-268.311	65.080	0.201	-0.204
-267.297	219.806	-0.033	-0.053
-266.282	-76.062	0.184	-0.065
-265.267	-18.907	0.154	0.096
-264.253	-70.173	-0.221	0.084
-263.238	230.730	-0.089	-0.147
-262.224	-52.517	-0.109	0.051
-261.209	52.452	-0.105	-0.101
-260.195	-200.000	-0.014	0.479
-259.180	800.000	0.105	0.320
-258.165	315.557	0.038	-0.072
-257.151	5.701	0.132	0.098
-256.136	-200.000	-0.011	0.177
-255.122	-200.000	0.056	0.250
-254.107	-20.572	0.196	0.121
-253.092	-19.804	0.347	0.215
-252.078	-200.000	-0.003	0.084
-251.063	-200.000	-0.042	0.389
-250.049	-92.672	0.320	0.090
-249.034	33.318	0.147	-0.128
-248.019	-200.000	0.003	-0.061
-247.005	-119.324	-0.096	0.017
-245.990	-82.527	-0.194	0.063
-244.976	-200.000	0.014	-0.119
-243.961	-200.000	-0.012	-0.199
-242.946	-29.638	-0.214	-0.122
-241.932	-98.017	0.168	-0.043
-240.917	-14.716	0.169	0.109
-239.903	-56.819	-0.249	-0.110
-238.888	-200.000	-0.012	0.145
-237.873	-200.000	-0.020	-0.227
-236.859	293.670	0.096	0.176
-235.844	800.000	0.047	0.200
-234.830	-53.876	-0.356	-0.162
-233.815	-200.000	0.001	-0.135
-232.800	541.366	-0.093	-0.221
-231.786	14.622	0.133	-0.104
-230.771	16.432	0.048	-0.038
-229.757	-200.000	0.001	0.157
-228.742	181.583	0.029	0.042
-227.727	-37.522	0.423	-0.226
-226.713	-148.441	0.063	-0.005
-225.698	-200.000	-0.032	-0.233
-224.684	-18.032	-0.111	0.070
-223.669	-149.446	0.325	0.026
-222.655	513.820	-0.069	-0.160
-221.640	-96.009	0.164	0.044
-220.625	-178.378	0.198	0.005
-219.611	-31.157	-0.254	0.143
-218.596	53.719	-0.130	0.125
-217.582	-157.675	0.355	-0.021
-216.567	-98.431	0.245	0.063
-215.552	114.082	-0.182	0.222
-214.538	-200.000	0.008	0.114
-213.523	135.682	-0.052	0.068
-212.509	-32.318	-0.148	-0.083
-211.494	800.000	0.064	0.243
-210.479	-23.184	-0.258	0.156
-209.465	-149.996	0.198	0.015
-208.450	-62.701	-0.173	-0.072
-207.436	-21.443	0.217	0.133
-206.421	800.000	-0.078	0.340
-205.406	-40.285	-0.229	-0.119
-204.392	345.009	-0.052	0.103
-203.377	456.544	0.042	0.094
-202.363	4.813	-0.137	0.101
-201.348	-200.000	0.008	-0.257
-200.333	-73.101	0.114	-0.042
-199.319	151.731	-0.187	0.255
-198.304	172.708	0.117	-0.169
-197.290	401.393	-0.087	-0.182
-196.275	177.844	-0.239	0.349
-195.260	122.220	-0.089	-0.112
-194.246	21.632	-0.354	0.289
-193.231	217.261	0.130	-0.208
-192.217	-97.095	-0.398	0.104
-191.202	-5.332	-0.067	-0.046
-190.187	-64.205	0.027	0.011
-189.173	-111.371	-0.216	0.044
-188.158	800.000	-0.001	-0.004
-187.144	-91.614	0.319	0.091
-186.129	-109.488	-0.136	-0.029
-185.114	800.000	-0.018	-0.071
-184.100	29.965	0.045	-0.038
-183.085	-93.434	-0.348	-0.096
-182.071	7.667	-0.153	-0.115
-181.056	-59.227	0.149	-0.064
-180.042	800.000	0.093	-0.314
-179.027	404.201	0.004	-0.007
-178.012	-116.257	0.358	-0.066
-176.998	-16.462	-0.340	-0.216
-175.983	335.796	-0.132	-0.257
-174.969	-200.000	0.181	0.000
-173.954	213.756	-0.011	0.017
-172.939	-200.000	0.002	-0.058
-171.925	-200.000	-0.007	0.063
-170.910	-41.049	0.225	0.116
-169.896	-200.000	0.002	0.182
-168.881	-140.780	0.153	0.016
-167.866	800.000	0.107	0.331
-166.852	-200.000	0.005	-0.154
-165.837	-35.308	0.149	-0.081
-164.823	94.021	0.097	0.110
-163.808	-10.897	0.113	-0.075
-162.793	144.389	0.114	-0.152
-161.779	-200.000	0.091	0.411
-160.764	-81.322	-0.136	0.045
-159.750	-68.440	-0.084	-0.033
-158.735	214.663	-0.267	-0.423
-157.720	800.000	0.030	-0.122
-156.706	-95.693	0.024	0.007
-155.691	223.847	-0.111	0.179
-154.677	-196.464	-0.088	0.001
-153.662	-107.881	-0.274	-0.060
-152.647	146.089	0.076	-0.101
-151.633	18.583	0.150	0.120
-150.618	-200.000	-0.022	0.252
-149.604	-31.345	-0.164	-0.092
-148.589	84.426	-0.075	0.082
-147.574	-67.708	0.332	-0.130
-146.560	-111.694	0.147	0.030
-145.545	-22.860	0.115	0.069
-144.531	334.489	-0.033	0.064
-143.516	-200.000	-0.092	-0.000
-142.502	86.584	-0.124	-0.136
-141.487	-200.000	0.029	0.180
-140.472	-139.655	0.186	0.020
-139.458	70.876	0.092	-0.095
-138.443	9.072	0.238	0.180
-137.429	176.706	-0.118	-0.172
-136.414	71.950	0.150	-0.156
-135.399	-200.000	-0.010	0.138
-134.385	-66.550	-0.318	-0.126
-133.370	79.098	0.209	0.223
-132.356	2.868	-0.240	0.174
-131.341	-107.566	0.079	-0.017
-130.326	-176.695	0.110	-0.003
-129.312	362.164	0.138	-0.276
-128.297	-124.818	-0.391	0.060
-127.283	-124.535	-0.327	-0.051
-126.268	-35.619	0.160	-0.086
-125.253	45.076	0.084	-0.078
-124.239	5.371	0.158	0.116
-123.224	-200.000	-0.029	0.249
-122.210	-50.864	-0.065	0.031
-121.195	-111.668	-0.375	0.076
-120.180	-200.000	0.068	0.370
-119.166	-108.499	-0.199	0.043
-118.151	70.912	0.037	0.038
-117.137	-63.853	0.167	-0.068
-116.122	-78.472	0.371	-0.127
-115.107	800.000	0.016	-0.062
-114.093	-97.318	0.163	-0.042
-113.078	-11.296	0.413	-0.271
-112.064	-200.000	-0.001	-0.167
-111.049	-65.180	0.170	0.068
-110.034	40.692	-0.076	0.068
-109.020	-16.092	0.296	-0.188
-108.005	109.578	-0.239	0.286
-106.991	623.789	-0.123	0.310
-105.976	-175.348	-0.228	-0.006
-104.962	37.183	-0.140	-0.123
-103.947	-92.467	-0.139	-0.039
-102.932	589.948	0.079	0.195
-101.918	-71.756	0.243	0.090
-100.903	-60.178	0.210	-0.089
-99.889	800.000	0.043	-0.164
-98.874	-20.104	0.328	0.201
-97.859	221.439	-0.028	0.045
-96.845	151.715	-0.206	-0.280
-95.830	60.129	0.340	-0.335
-94.816	-125.226	0.347	-0.053
-93.801	23.196	-0.206	0.169
-92.786	-146.673	0.256	-0.022
-91.772	188.149	0.176	-0.262
-90.757	184.011	0.089	-0.131
-89.743	11.897	0.144	0.110
-88.728	257.532	-0.121	0.207
-87.713	-52.209	0.192	0.089
-86.699	-101.149	0.217	0.053
-85.684	-200.000	0.008	0.105
-84.670	74.005	-0.170	-0.177
-83.655	-133.361	0.163	-0.020
-82.640	-200.000	-0.035	-0.238
-81.626	-123.028	-0.160	0.026
-80.611	248.803	-0.135	0.228
-79.597	116.635	-0.241	0.294
-78.582	357.835	0.156	-0.310
-77.567	-98.084	-0.112	-0.029
-76.553	360.865	0.165	0.328
-75.538	800.000	-0.178	0.490
-74.524	43.389	0.387	-0.352
-73.509	-77.204	0.191	-0.066
-72.494	800.000	0.051	-0.219
-71.480	476.782	-0.136	0.307
-70.465	-47.541	-0.235	0.114
-69.451	-64.500	-0.151	0.061
-68.436	73.802	-0.233	-0.243
-67.422	659.648	0.052	-0.133
-66.407	-56.790	0.047	-0.021
-65.392	-98.916	0.410	-0.104
-64.378	410.206	0.128	0.270
-63.363	49.243	0.071	-0.067
-62.349	-24.081	0.104	-0.062
-61.334	-23.042	-0.827	-0.496
-60.319	129.189	-0.135	0.171
-59.305	800.000	-0.138	-0.566
-58.290	536.461	0.375	0.885
-57.276	658.091	0.508	1.300
-56.261	-200.000	78.213	510.305
-55.246	491.325	1358.629	3096.512
-54.232	144.154	2590.416	3440.338
-53.217	113.475	2242.094	2709.501
-52.203	50.726	1691.420	1593.955
-51.188	43.046	1420.334	1289.545
-50.173	39.621	1375.368	1227.396
-49.159	57.739	1411.926	1374.321
-48.144	63.631	1431.102	1429.962
-47.130	43.444	1393.596	1267.569
-46.115	39.560	1376.843	1228.136
-45.100	39.410	1371.930	1222.776
-44.086	39.337	1369.510	1220.118
-43.071	39.224	1367.329	1217.426
-42.057	39.191	1365.429	1215.482
-41.042	39.351	1363.514	1214.715
-40.027	39.445	1361.804	1213.723
-39.013	39.426	1359.636	1211.630
-37.998	39.480	1357.542	1210.043
-36.984	39.512	1356.249	1209.038
-35.969	39.504	1354.164	1207.086
-34.954	39.561	1352.413	1205.823
-33.940	39.621	1350.422	1204.370
-32.925	39.661	1349.468	1203.714
-31.911	39.703	1348.333	1202.908
-30.896	39.558	1347.309	1201.063
-29.881	39.647	1345.392	1199.849
-28.867	39.602	1343.930	1198.223
-27.852	39.571	1342.350	1196.581
-26.838	39.652	1340.648	1195.509
-25.823	39.658	1339.315	1194.307
-24.809	39.547	1337.899	1192.324
-23.794	39.537	1336.624	1191.079
-22.779	39.629	1334.944	1190.093
-21.765	39.614	1333.683	1188.835
-20.750	39.541	1332.473	1187.268
-19.736	39.498	1330.952	1185.606
-18.721	39.487	1329.817	1184.483
-17.706	39.455	1328.899	1183.424
-16.692	39.567	1327.280	1182.605
-15.677	39.557	1325.861	1181.234
-14.663	39.503	1325.330	1180.394
-13.648	39.471	1323.942	1178.915
-12.633	39.419	1322.853	1177.589
-11.619	39.341	1322.496	1176.762
-10.604	39.423	1321.417	1176.242
-9.590	39.409	1320.375	1175.186
-8.575	39.472	1319.084	1174.362
-7.560	39.349	1318.279	1172.871
-6.546	39.341	1317.637	1172.203
-5.531	39.460	1316.405	1171.769
-4.517	39.362	1315.966	1170.747
-3.502	39.404	1314.595	1169.733
-2.487	39.365	1313.748	1168.702
-1.473	39.570	1309.926	1166.465
-0.458	38.478	1295.589	1147.255
0.556	35.062	1275.477	1106.598
1.571	31.101	1280.220	1087.580
2.586	29.853	1295.928	1093.457
3.600	28.166	1283.469	1072.965
4.615	19.767	1204.357	960.304
5.629	7.667	1119.575	829.787
6.644	2.496	1095.427	785.350
7.659	1.891	1092.817	780.313
8.673	1.800	1091.504	778.842
9.688	1.685	1090.255	777.291
10.702	2.023	1089.188	778.186
11.717	8.992	1099.537	821.292
12.731	20.098	1116.039	890.956
13.746	24.959	1121.781	920.509
14.761	25.229	1122.080	922.060
15.775	25.299	1121.415	921.793
16.790	25.123	1120.360	919.943
17.804	24.982	1120.160	918.975
18.819	25.059	1119.238	918.530
19.834	25.251	1119.356	919.532
20.848	25.230	1118.667	918.775
21.863	25.274	1118.101	918.453
22.877	25.265	1117.235	917.617
23.892	25.111	1116.929	916.495
24.907	25.180	1116.046	916.043
25.921	25.191	1114.717	914.925
26.936	25.180	1113.425	913.731
27.950	25.088	1111.561	911.651
28.965	24.987	1110.064	909.830
29.980	25.048	1108.743	908.978
30.994	25.258	1107.456	908.906
32.009	25.267	1106.865	908.386
33.023	24.917	1105.597	905.496
34.038	25.115	1104.450	905.476
35.053	25.234	1104.161	905.756
36.067	25.291	1103.119	905.109
37.082	25.365	1102.046	904.522
38.096	25.349	1102.048	904.361
39.111	25.434	1101.308	904.103
40.126	25.354	1099.565	902.193
41.140	24.850	1098.064	898.349
42.155	24.772	1096.508	896.607
43.169	24.831	1095.359	895.886
44.184	24.918	1094.366	895.426
45.199	24.702	1093.461	893.530
46.213	24.902	1092.489	893.656
47.228	24.978	1091.845	893.428
48.242	24.956	1090.626	892.240
49.257	25.088	1090.166	892.443
50.271	25.145	1089.677	892.247
51.286	25.342	1088.706	892.353
52.301	25.229	1087.863	891.021
53.315	25.096	1086.667	889.303
54.330	25.061	1086.008	888.514
55.344	25.197	1084.991	888.276
56.359	25.077	1084.608	887.288
57.374	24.904	1083.578	885.513
58.388	24.816	1082.675	884.260
59.403	24.698	1082.065	883.101
60.417	24.720	1080.564	881.907
61.432	24.825	1080.307	882.138
62.447	24.874	1079.823	881.904
63.461	24.825	1079.021	880.929
64.476	24.835	1077.922	880.003
65.490	24.820	1076.952	879.062
66.505	24.976	1076.055	879.017
67.520	24.880	1075.436	877.961
68.534	24.715	1074.438	876.263
69.549	24.355	1073.272	873.471
70.563	24.453	1072.488	873.233
71.578	24.493	1071.395	872.463
72.593	24.254	1070.600	870.569
73.607	24.258	1070.131	870.130
74.622	24.641	1070.079	871.883
75.636	24.665	1069.444	871.403
76.651	24.567	1068.220	869.851
77.666	24.554	1067.010	868.726
78.680	24.616	1066.784	868.767
79.695	24.712	1065.905	868.442
80.709	24.830	1065.075	868.260
81.724	24.623	1064.776	866.937
82.739	24.784	1063.506	866.607
83.753	25.127	1063.463	868.157
84.768	25.514	1062.240	868.948
85.782	25.518	1061.292	868.118
86.797	25.534	1059.785	866.887
87.812	25.281	1059.262	865.163
88.826	25.262	1058.620	864.471
89.841	25.311	1057.928	864.063
90.855	25.560	1056.497	864.013
91.870	25.411	1055.915	862.748
92.884	25.303	1054.702	861.161
93.899	25.199	1053.391	859.515
94.914	25.439	1052.737	860.054
95.928	25.188	1051.758	857.979
96.943	25.001	1050.552	856.025
97.957	24.664	1049.345	853.359
98.972	24.679	1047.893	852.176
99.987	24.987	1047.180	852.985
101.001	25.073	1046.886	853.078
102.016	25.005	1046.266	852.178
103.030	25.094	1044.789	851.321
104.045	24.894	1043.593	849.321
105.060	24.678	1042.958	847.707
106.074	24.834	1041.999	847.589
107.089	25.101	1042.153	848.905
108.103	24.988	1040.899	847.274
109.118	24.911	1039.218	845.467
110.133	24.920	1038.601	844.932
111.147	24.649	1037.382	842.589
112.162	24.510	1036.671	841.281
113.176	24.777	1035.620	841.612
114.191	24.726	1035.211	840.962
115.206	24.453	1033.799	838.461
116.220	24.248	1033.370	837.078
117.235	24.570	1032.370	837.703
118.249	24.590	1030.921	836.545
119.264	24.522	1030.155	835.530
120.279	24.507	1029.839	835.133
121.293	24.544	1029.051	834.590
122.308	24.733	1027.785	834.373
123.322	24.550	1026.974	832.785
124.337	24.266	1026.001	830.601
125.352	23.832	1023.893	826.802
126.366	23.776	1023.261	825.958
127.381	24.651	1023.251	829.946
128.395	24.920	1022.870	830.811
129.410	25.078	1022.082	830.829
130.424	25.059	1021.031	829.811
131.439	25.151	1019.914	829.255
132.454	25.065	1019.231	828.232
133.468	25.103	1018.340	827.609
134.483	25.276	1017.541	827.685
135.497	25.317	1017.037	827.391
136.512	25.419	1015.587	826.606
137.527	25.444	1014.800	826.006
138.541	25.453	1014.032	825.350
139.556	25.243	1013.706	824.050
140.570	25.455	1012.666	824.102
141.585	25.491	1011.618	823.341
142.600	25.357	1010.710	821.918
143.614	25.508	1010.490	822.354
144.629	25.596	1009.214	821.646
145.643	25.480	1008.086	820.124
146.658	25.367	1006.461	818.217
147.673	25.349	1005.540	817.313
148.687	25.157	1004.721	815.703
149.702	25.171	1003.221	814.477
150.716	25.042	1002.646	813.352
151.731	25.181	1002.411	813.720
152.746	25.460	1001.026	813.787
153.760	25.469	1000.618	813.424
154.775	25.584	1000.197	813.530
155.789	25.388	999.336	811.873
156.804	25.451	998.108	811.089
157.819	25.532	997.450	810.844
158.833	25.639	996.709	810.655
159.848	25.690	995.532	809.853
160.862	25.426	994.168	807.487
161.877	25.495	993.140	806.891
162.892	25.609	992.129	806.507
163.906	25.399	990.866	804.473
164.921	25.437	990.103	803.952
165.935	25.496	989.415	803.586
166.950	25.364	988.671	802.318
167.964	25.345	987.598	801.291
168.979	25.314	986.376	800.093
169.994	25.338	985.244	799.210
171.008	25.483	985.194	799.746
172.023	25.643	983.675	799.151
173.037	25.387	983.086	797.466
174.052	25.189	982.513	796.052
175.067	25.111	981.661	794.944
176.081	25.281	980.761	794.898
177.096	25.245	980.202	794.217
178.110	25.070	979.239	792.590
179.125	24.844	978.507	790.929
180.140	24.795	978.628	790.743
181.154	24.972	977.858	790.830
182.169	25.394	977.369	792.225
183.183	25.500	976.953	792.288
184.198	25.325	976.431	791.023
185.213	25.422	975.202	790.382
186.227	25.462	974.904	790.250
187.242	25.446	974.491	789.772
188.256	25.444	973.810	789.142
189.271	25.686	972.653	789.196
190.286	25.293	971.472	786.448
191.300	24.619	970.387	782.550
192.315	23.826	968.524	777.510
193.329	23.752	968.191	776.850
194.344	24.547	968.695	780.662
195.359	25.324	968.680	783.977
196.373	25.261	968.106	783.166
197.388	25.362	966.999	782.641
198.402	25.390	966.567	782.347
199.417	25.321	966.052	781.559
200.432	25.143	964.845	779.737
201.446	24.944	964.198	778.282
202.461	25.026	963.467	777.981
203.475	24.181	961.502	772.660
204.490	23.376	960.313	768.148
205.504	24.286	960.739	772.365
206.519	25.014	960.556	775.301
207.534	24.897	960.275	774.502
208.548	25.411	959.771	776.249
209.563	25.179	959.296	774.792
210.577	25.223	958.501	774.272
211.592	25.577	958.594	775.806
212.607	25.593	957.319	774.772
213.621	25.447	956.952	773.780
214.636	25.529	956.102	773.376
215.650	25.440	955.344	772.315
216.665	25.665	954.350	772.405
217.680	25.626	953.614	771.576
218.694	25.028	952.556	768.089
219.709	24.956	952.196	767.421
220.723	25.308	951.277	768.119
221.738	25.413	950.875	768.176
222.753	25.443	950.096	767.606
223.767	25.365	950.240	767.321
224.782	25.665	949.298	767.775
225.796	25.612	949.095	767.315
226.811	24.909	947.437	762.913
227.826	24.465	945.967	759.773
228.840	24.573	945.155	759.514
229.855	24.635	944.728	759.366
230.869	24.178	943.709	756.537
231.884	24.664	943.817	758.621
232.899	25.364	943.898	761.591
233.913	25.244	943.131	760.395
234.928	25.279	942.536	759.997
235.942	25.206	941.993	759.183
236.957	25.006	940.699	757.228
237.972	24.823	940.461	756.194
238.986	24.991	940.225	756.650
240.001	25.124	939.204	756.321
241.015	25.072	938.741	755.660
242.030	25.353	938.389	756.496
243.045	25.429	937.701	756.193
244.059	25.560	937.346	756.389
245.074	25.346	936.241	754.532
246.088	25.107	935.124	752.563
247.103	25.353	934.846	753.304
248.117	25.845	935.412	755.761
249.132	26.087	935.009	756.380
250.147	26.211	934.249	756.219
251.161	26.243	933.855	755.965
252.176	26.216	933.368	755.392
253.190	26.310	932.599	755.097
254.205	26.504	931.999	755.354
255.220	26.348	931.189	753.981
256.234	26.238	930.573	752.955
257.249	26.094	930.204	751.988
258.263	26.241	929.140	751.674
259.278	26.404	928.294	751.603
260.293	26.351	927.887	750.986
261.307	26.304	927.093	750.084
262.322	26.066	926.372	748.447
263.336	25.342	924.410	743.795
264.351	24.384	922.535	738.258
265.366	24.404	922.161	737.978
266.380	25.402	922.934	742.658
267.395	25.819	922.526	743.988
268.409	25.785	921.891	743.268
269.424	26.085	921.590	744.200
270.439	26.034	920.738	743.236
271.453	25.997	920.596	742.903
272.468	26.235	919.988	743.325
273.482	26.525	919.329	743.917
274.497	25.903	918.324	740.486
275.512	25.565	917.268	738.180
276.526	25.800	917.700	739.430
277.541	26.193	916.888	740.321
278.555	25.758	916.585	738.225
279.570	25.769	915.445	737.287
280.585	25.882	914.550	736.964
281.599	25.981	913.766	736.673
282.614	25.243	912.559	732.622
283.628	25.190	912.442	732.248
284.643	25.821	911.404	733.921
285.657	25.490	910.236	731.567
286.672	25.053	909.488	729.124
287.687	25.437	910.173	731.173
288.701	25.639	909.348	731.266
289.716	25.372	908.549	729.474
290.730	25.202	907.671	728.016
291.745	25.172	906.337	726.758
292.760	25.400	906.704	727.915
293.774	26.291	907.291	731.930
294.789	26.615	906.983	732.931
295.803	26.474	906.925	732.246
296.818	26.630	905.700	731.825
297.833	26.193	904.356	728.908
298.847	26.108	903.456	727.777
299.862	26.398	903.442	728.870
300.876	26.728	903.320	730.036
301.891	26.694	902.089	728.841
302.906	26.135	901.311	725.900
303.920	26.305	901.242	726.463
304.935	26.642	900.704	727.320
305.949	26.521	900.295	726.439
306.964	26.164	899.457	724.267
307.979	26.341	898.905	724.468
308.993	26.696	898.653	725.622
310.008	26.651	898.313	725.102
311.022	26.390	897.404	723.264
312.037	26.374	896.489	722.398
313.052	26.100	895.674	720.580
314.066	25.174	893.915	715.413
315.081	24.837	893.493	713.666
316.095	25.568	893.760	716.730
317.110	26.213	893.567	719.085
318.125	25.416	891.744	714.384
319.139	24.281	890.332	708.682
320.154	24.302	889.866	708.330
321.168	25.160	890.186	711.928
322.183	25.942	890.672	715.361
323.197	26.048	890.372	715.478
324.212	26.358	890.140	716.455
325.227	26.453	889.327	716.113
326.241	26.268	888.146	714.367
327.256	26.058	888.023	713.377
328.270	26.065	887.272	712.736
329.285	25.990	886.085	711.423
330.300	25.608	885.499	709.385
331.314	25.908	884.997	710.103
332.329	26.222	885.030	711.303
333.343	26.460	884.774	711.970
334.358	26.450	884.192	711.401
335.373	26.465	883.970	711.218
336.387	26.700	884.359	712.390
337.402	26.819	883.394	712.017
338.416	26.976	883.198	712.412
339.431	26.840	883.140	711.771
340.446	27.157	882.543	712.471
341.460	26.925	882.116	711.153
342.475	26.797	881.417	710.023
343.489	26.921	880.962	710.082
344.504	27.112	880.975	710.774
345.519	27.222	880.393	710.671
346.533	27.356	879.858	710.701
347.548	27.304	879.160	709.873
348.562	27.243	878.494	709.033
349.577	27.200	877.994	708.398
350.592	27.272	877.068	707.870
351.606	27.257	876.496	707.289
352.621	26.992	876.047	705.832
353.635	26.964	874.949	704.777
354.650	26.386	873.078	700.967
355.665	25.386	871.589	695.837
356.679	25.829	871.525	697.442
357.694	26.187	871.736	698.935
358.708	26.141	870.708	697.872
359.723	26.635	870.377	699.451
360.738	26.815	870.497	700.183
361.752	26.880	870.074	700.028
362.767	27.403	869.594	701.596
363.781	27.579	868.972	701.713
364.796	27.582	868.887	701.591
365.810	27.648	868.398	701.388
366.825	27.702	867.607	700.896
367.840	27.403	866.883	699.102
368.854	27.011	865.807	696.667
369.869	27.006	865.574	696.398
370.883	27.021	865.187	696.081
371.898	26.945	864.462	695.146
372.913	27.011	864.671	695.505
373.927	27.092	863.872	695.113
374.942	27.261	863.497	695.396
375.956	27.400	862.980	695.448
376.971	27.410	862.943	695.396
377.986	27.733	862.410	696.139
379.000	27.562	861.910	695.019
380.015	27.322	861.193	693.465
381.029	27.560	860.500	693.752
382.044	27.617	859.958	693.471
383.059	27.607	859.540	693.035
384.073	27.565	858.841	692.250
385.088	27.546	858.292	691.673
386.102	27.284	857.265	689.792
387.117	27.315	856.908	689.560
388.132	26.952	855.593	687.067
389.146	26.613	854.124	684.548
390.161	26.823	854.767	685.794
391.175	27.301	854.760	687.538
392.190	26.956	853.653	685.281
393.205	25.603	851.336	678.265
394.219	23.971	849.843	670.866
395.234	23.911	849.347	670.189
396.248	25.501	850.787	677.262
397.263	27.051	851.593	683.684
398.278	27.162	850.756	683.369
399.292	26.824	850.156	681.557
400.307	26.778	849.791	681.032
401.321	26.896	849.680	681.323
402.336	27.410	849.461	683.017
403.350	27.716	849.505	684.140
404.365	28.072	848.851	684.886
405.380	28.229	848.912	685.464
406.394	28.472	848.060	685.625
407.409	28.240	847.727	684.427
408.423	28.099	847.590	683.729
409.438	28.299	846.940	683.891
410.453	28.281	846.459	683.373
411.467	28.272	845.582	682.571
412.482	28.224	845.618	682.361
413.496	28.430	844.785	682.396
414.511	28.387	844.573	682.006
415.526	28.323	844.216	681.420
416.540	28.295	843.020	680.287
417.555	27.945	842.559	678.557
418.569	27.975	842.414	678.490
419.584	27.999	841.767	677.999
420.599	27.696	841.471	676.576
421.613	96.746	1272.833	1392.297
422.628	83.962	1335.675	1392.409
