DTS Sentinel unit serial number:	SN413079Multiplexer serial number:	ORYXHardware model number:	OX4-SRSoftware version number:	ORYX F/W v4.00 Oryx Data Collector v3.7.2.0data status	okinstallation	princeton_trtdifferential loss correction	single-endedforward channel	channel 1reverse channel	N/Adate	2019/09/15time	10:54:35forward acquisition time	60.00reverse acquisition time	0.00gamma	496.2192k internal	0.2309k external	0.2309temperature offset calibration	0.9991default loss term (dB/km)	0.3790temperature slope calibration	1.0000multiplexer offset coefficient	1.0000multiplexer slope coefficient	1.0000fibre end	0.00T internal ref (°C)	34.25T ext. ref 1 (°C)	5.03T ext. ref 2 (°C)	29.82length (m)	temperature (°C)	Stokes	anti-Stokes-747.200	-161.414	-0.153	0.008
-746.185	45.153	-0.229	0.215
-745.171	-56.156	0.070	0.032
-744.156	-200.000	-0.022	0.169
-743.142	81.740	-0.188	-0.206
-742.127	-200.000	-0.043	0.464
-741.112	-150.671	-0.060	0.005
-740.098	266.038	0.058	-0.103
-739.083	800.000	0.115	0.328
-738.069	6.601	-0.265	-0.200
-737.054	-17.592	0.359	-0.229
-736.039	-41.006	-0.230	0.121
-735.025	85.827	0.043	0.048
-734.010	151.969	0.224	-0.310
-732.996	-200.000	0.045	0.243
-731.981	-200.000	0.071	0.475
-730.966	-113.774	-0.155	-0.031
-729.952	-114.381	-0.342	-0.067
-728.937	-200.000	-0.046	-0.387
-727.923	220.818	-0.169	-0.275
-726.908	20.623	-0.284	-0.233
-725.894	-76.453	-0.163	-0.058
-724.879	800.000	-0.025	-0.097
-723.864	-89.963	-0.186	-0.055
-722.850	-200.000	0.059	-0.445
-721.835	9.256	-0.252	-0.193
-720.821	373.074	0.089	-0.183
-719.806	800.000	-0.060	0.185
-718.791	-200.000	0.014	-0.220
-717.777	800.000	-0.107	0.323
-716.762	11.983	0.041	0.032
-715.748	-200.000	0.146	-0.001
-714.733	-147.897	0.119	-0.010
-713.718	-127.443	0.297	-0.044
-712.704	800.000	-0.017	0.048
-711.689	-114.249	0.221	0.043
-710.675	300.418	-0.083	-0.155
-709.660	-200.000	-0.020	0.193
-708.645	-131.748	0.088	0.012
-707.631	800.000	-0.046	-0.188
-706.616	-94.666	-0.196	0.054
-705.602	369.399	0.099	0.204
-704.587	339.008	-0.077	0.151
-703.572	63.482	-0.232	0.236
-702.558	-2.353	0.044	0.031
-701.543	800.000	0.062	0.174
-700.529	300.882	0.118	0.221
-699.514	190.415	-0.074	-0.112
-698.499	800.000	-0.085	0.357
-697.485	800.000	-0.023	0.095
-696.470	-200.000	-0.065	-0.389
-695.456	75.173	-0.224	-0.239
-694.441	171.825	0.087	-0.126
-693.426	143.951	0.255	-0.345
-692.412	544.576	0.094	-0.228
-691.397	2.530	0.146	0.107
-690.383	-96.440	0.291	-0.078
-689.368	-65.878	-0.246	-0.100
-688.354	800.000	-0.029	0.122
-687.339	308.704	-0.106	-0.200
-686.324	-200.000	-0.009	-0.326
-685.310	-86.568	0.198	0.061
-684.295	-47.577	-0.202	-0.099
-683.281	-68.775	-0.265	0.104
-682.266	-169.537	-0.169	0.006
-681.251	526.536	0.077	0.183
-680.237	-200.000	0.007	-0.381
-679.222	773.884	-0.103	-0.284
-678.208	-200.000	0.012	-0.274
-677.193	-135.939	-0.376	-0.045
-676.178	109.676	-0.042	0.051
-675.164	642.599	-0.040	-0.102
-674.149	-52.125	-0.126	0.059
-673.135	-32.155	0.262	-0.149
-672.120	-49.430	0.245	-0.118
-671.105	800.000	0.040	-0.153
-670.091	37.642	0.128	0.115
-669.076	-200.000	0.001	-0.012
-668.062	51.301	-0.221	-0.212
-667.047	-106.513	-0.207	-0.047
-666.032	18.296	-0.299	-0.242
-665.018	158.542	0.065	-0.092
-664.003	-150.898	0.108	-0.008
-662.989	-38.464	-0.156	-0.084
-661.974	-76.754	-0.148	0.052
-660.959	-128.708	0.300	0.043
-659.945	-68.848	-0.195	-0.076
-658.930	-57.899	-0.220	0.098
-657.916	-200.000	-0.017	0.181
-656.901	-118.038	-0.251	-0.046
-655.886	-77.841	-0.281	0.098
-654.872	31.868	-0.347	0.302
-653.857	-200.000	0.086	-0.475
-652.843	800.000	-0.074	-0.216
-651.828	800.000	-0.023	0.092
-650.814	-34.039	0.062	-0.035
-649.799	244.153	-0.034	-0.058
-648.784	-200.000	-0.036	-0.282
-647.770	800.000	0.022	0.074
-646.755	-200.000	-0.007	-0.193
-645.741	68.972	0.117	-0.122
-644.726	-22.899	-0.064	-0.039
-643.711	103.324	-0.126	0.149
-642.697	388.741	-0.038	-0.079
-641.682	536.470	0.077	-0.184
-640.668	-12.050	0.126	0.083
-639.653	800.000	-0.078	-0.228
-638.638	12.611	-0.105	-0.082
-637.624	-130.403	-0.288	-0.039
-636.609	16.014	0.065	0.052
-635.595	-173.057	-0.204	-0.006
-634.580	86.212	0.154	0.171
-633.565	-137.374	-0.277	0.032
-632.551	187.926	0.096	-0.144
-631.536	-200.000	-0.036	0.300
-630.522	800.000	0.056	0.170
-629.507	-200.000	-0.009	-0.104
-628.492	-7.026	-0.203	-0.139
-627.478	-109.547	0.125	-0.027
-626.463	-200.000	-0.065	-0.340
-625.449	-200.000	-0.039	0.212
-624.434	180.849	-0.125	-0.185
-623.419	800.000	0.082	0.353
-622.405	800.000	0.039	-0.171
-621.390	-15.637	0.289	0.186
-620.376	800.000	-0.011	-0.045
-619.361	-77.403	-0.313	-0.110
-618.346	173.072	0.056	0.082
-617.332	-37.179	-0.072	-0.039
-616.317	-13.795	0.287	-0.188
-615.303	-36.419	-0.289	0.157
-614.288	19.752	0.014	0.011
-613.273	-77.788	0.106	0.037
-612.259	-166.559	0.207	-0.009
-611.244	-66.165	-0.327	0.132
-610.230	-138.805	-0.215	-0.024
-609.215	91.118	0.115	0.130
-608.201	-99.488	-0.302	0.077
-607.186	800.000	-0.094	0.354
-606.171	18.460	0.170	-0.137
-605.157	354.075	-0.137	0.275
-604.142	-56.047	-0.110	0.050
-603.128	-109.117	0.180	0.039
-602.113	-200.000	0.059	0.292
-601.098	104.649	0.181	0.215
-600.084	50.381	0.190	0.181
-599.069	-200.000	-0.009	0.044
-598.055	47.276	0.193	-0.182
-597.040	-109.024	0.176	0.038
-596.025	800.000	-0.135	-0.391
-595.011	33.627	0.132	-0.116
-593.996	-122.096	0.361	0.060
-592.982	-158.399	0.170	0.010
-591.967	-200.000	0.027	0.233
-590.952	-86.890	-0.089	0.027
-589.938	-37.354	0.229	-0.123
-588.923	58.913	0.024	0.024
-587.909	157.709	0.109	-0.153
-586.894	199.846	0.039	0.061
-585.879	-158.166	0.370	0.022
-584.865	-123.652	0.102	0.016
-583.850	60.579	-0.267	-0.267
-582.836	169.029	-0.095	-0.137
-581.821	-102.267	-0.297	0.072
-580.806	3.583	0.198	0.146
-579.792	257.919	0.176	0.305
-578.777	13.873	0.176	0.138
-577.763	-200.000	-0.064	0.498
-576.748	156.894	-0.138	-0.193
-575.733	-134.756	0.233	-0.029
-574.719	-32.232	-0.215	0.121
-573.704	-108.176	0.276	0.060
-572.690	-200.000	0.023	0.211
-571.675	-19.921	0.259	0.161
-570.661	-66.610	-0.138	-0.055
-569.646	353.979	0.145	-0.291
-568.631	-7.317	-0.116	0.079
-567.617	-156.527	0.102	0.006
-566.602	75.094	-0.250	-0.266
-565.588	-65.258	0.168	-0.068
-564.573	41.290	0.021	0.019
-563.558	169.548	-0.056	-0.081
-562.544	800.000	0.054	-0.159
-561.529	-157.958	-0.273	0.016
-560.515	254.123	-0.137	0.236
-559.500	-101.358	0.186	-0.046
-558.485	188.436	-0.075	-0.113
-557.471	800.000	-0.090	0.356
-556.456	-115.620	0.035	0.007
-555.442	-90.593	-0.130	0.038
-554.427	-200.000	0.014	-0.376
-553.412	-15.459	0.220	0.141
-552.398	-144.756	-0.127	0.012
-551.383	96.966	0.123	-0.142
-550.369	284.885	0.079	0.143
-549.354	-133.696	-0.223	-0.028
-548.339	-200.000	0.075	-0.548
-547.325	140.104	-0.162	-0.216
-546.310	37.694	-0.162	0.145
-545.296	-200.000	-0.045	-0.237
-544.281	191.143	-0.132	-0.201
-543.266	-173.447	-0.328	0.010
-542.252	116.072	-0.264	0.325
-541.237	-68.453	0.157	-0.061
-540.223	-118.470	-0.237	-0.042
-539.208	254.586	0.097	-0.168
-538.193	-44.025	0.232	0.117
-537.179	-122.648	0.202	0.033
-536.164	-10.482	-0.055	0.037
-535.150	478.671	-0.021	0.049
-534.135	114.120	0.097	-0.119
-533.121	-0.157	0.313	-0.224
-532.106	100.739	-0.107	-0.125
-531.091	148.811	0.062	0.084
-530.077	-200.000	-0.021	0.430
-529.062	150.916	-0.107	0.147
-528.048	800.000	-0.070	-0.203
-527.033	33.911	0.055	0.048
-526.018	-111.943	-0.122	-0.025
-525.004	-85.345	-0.159	-0.050
-523.989	-134.381	-0.336	-0.042
-522.975	255.322	-0.021	0.037
-521.960	-46.201	-0.075	0.037
-520.945	362.719	0.072	0.145
-519.931	800.000	0.035	0.144
-518.916	83.156	0.044	0.048
-517.902	194.733	-0.173	-0.265
-516.887	-56.478	0.109	-0.049
-515.872	-19.622	0.107	-0.067
-514.858	-11.283	0.153	-0.101
-513.843	-200.000	0.033	-0.250
-512.829	-200.000	-0.009	0.075
-511.814	69.767	-0.188	-0.195
-510.799	7.140	0.115	-0.086
-509.785	-79.872	-0.170	0.058
-508.770	118.377	0.345	0.428
-507.756	25.712	-0.104	-0.087
-506.741	-200.000	0.083	-0.409
-505.726	-50.678	-0.332	-0.157
-504.712	65.129	0.292	-0.297
-503.697	-200.000	0.013	-0.271
-502.683	800.000	-0.031	-0.095
-501.668	82.664	-0.117	0.128
-500.653	726.935	-0.050	0.135
-499.639	86.800	0.059	0.065
-498.624	36.188	0.045	0.040
-497.610	-17.010	0.179	0.114
-496.595	-132.194	-0.117	-0.015
-495.581	-106.310	0.158	0.036
-494.566	-29.347	-0.088	0.051
-493.551	96.682	-0.206	0.237
-492.537	54.826	0.282	-0.273
-491.522	-174.582	0.263	-0.008
-490.508	117.245	-0.084	0.104
-489.493	619.273	0.056	-0.142
-488.478	-200.000	0.057	0.293
-487.464	-151.437	0.214	-0.016
-486.449	222.646	0.038	0.061
-485.435	183.062	0.052	-0.077
-484.420	-200.000	0.043	-0.235
-483.405	56.830	-0.312	-0.306
-482.391	48.713	-0.150	-0.142
-481.376	-53.155	0.471	0.217
-480.362	-200.000	-0.045	0.396
-479.347	389.291	-0.051	0.107
-478.332	85.836	0.069	0.077
-477.318	-112.326	-0.243	-0.049
-476.303	-62.110	0.200	0.084
-475.289	-61.841	0.218	-0.092
-474.274	-200.000	0.000	-0.193
-473.259	-71.943	-0.357	0.134
-472.245	217.923	-0.075	0.120
-471.230	-99.402	-0.085	-0.022
-470.216	-200.000	0.008	0.451
-469.201	35.350	-0.051	-0.045
-468.186	45.197	0.115	-0.107
-467.172	127.454	0.182	0.232
-466.157	-42.900	-0.194	-0.099
-465.143	-200.000	-0.075	0.337
-464.128	-66.191	0.138	0.055
-463.113	441.955	0.190	0.419
-462.099	-200.000	-0.008	-0.266
-461.084	215.933	0.085	-0.136
-460.070	800.000	-0.084	-0.251
-459.055	781.804	0.115	0.316
-458.040	-200.000	0.043	-0.237
-457.026	-56.507	0.177	0.079
-456.011	-28.882	0.216	0.125
-454.997	-127.187	-0.148	0.022
-453.982	-200.000	0.037	0.169
-452.968	29.148	0.275	-0.235
-451.953	237.509	-0.078	0.130
-450.938	-30.591	-0.203	-0.116
-449.924	-200.000	0.002	-0.075
-448.909	437.384	0.037	0.080
-447.895	-200.000	-0.021	-0.255
-446.880	-200.000	0.016	-0.135
-445.865	89.106	-0.098	-0.110
-444.851	100.754	0.037	-0.043
-443.836	-200.000	0.046	0.271
-442.822	-57.490	-0.520	0.229
-441.807	466.956	0.062	0.139
-440.792	800.000	-0.046	0.150
-439.778	-91.805	-0.452	-0.129
-438.763	-200.000	0.006	0.074
-437.749	223.731	0.108	0.175
-436.734	800.000	-0.037	0.157
-435.719	109.347	0.105	-0.126
-434.705	800.000	0.116	-0.335
-433.690	82.472	0.039	0.042
-432.676	800.000	-0.098	0.364
-431.661	-92.348	0.101	0.029
-430.646	-154.828	0.564	0.037
-429.632	42.259	-0.306	-0.279
-428.617	-35.347	-0.039	-0.021
-427.603	151.561	0.132	0.181
-426.588	-3.659	-0.172	-0.120
-425.573	12.519	-0.206	0.159
-424.559	-137.508	0.245	-0.028
-423.544	-121.825	-0.227	-0.038
-422.530	-0.207	0.274	-0.196
-421.515	609.288	0.013	0.033
-420.500	49.567	0.176	-0.166
-419.486	-111.744	0.165	0.034
-418.471	-65.954	0.090	-0.036
-417.457	3.913	0.078	-0.057
-416.442	244.399	-0.059	-0.100
-415.428	-187.748	0.206	0.003
-414.413	-175.571	-0.296	0.008
-413.398	800.000	-0.055	-0.172
-412.384	108.590	-0.236	-0.283
-411.369	-168.715	-0.124	-0.005
-410.355	-148.234	-0.155	0.013
-409.340	800.000	-0.016	-0.053
-408.325	0.768	0.092	-0.066
-407.311	138.257	0.107	0.141
-406.296	186.910	-0.031	-0.047
-405.282	15.580	-0.131	0.103
-404.267	-97.781	0.174	-0.045
-403.252	413.142	-0.136	0.290
-402.238	-200.000	0.015	-0.107
-401.223	228.918	-0.050	-0.082
-400.209	800.000	0.068	0.198
-399.194	-200.000	0.015	0.125
-398.179	-139.935	0.248	-0.026
-397.165	379.544	0.141	0.289
-396.150	130.898	-0.163	-0.210
-395.136	193.175	0.054	-0.082
-394.121	122.826	-0.068	-0.085
-393.106	199.405	0.110	0.169
-392.092	189.289	-0.113	-0.170
-391.077	32.062	0.139	0.120
-390.063	-1.435	-0.184	0.130
-389.048	17.676	0.139	0.111
-388.033	463.712	0.049	-0.110
-387.019	-200.000	0.002	-0.048
-386.004	-52.381	-0.133	-0.062
-384.990	800.000	0.020	-0.071
-383.975	286.645	-0.028	0.051
-382.960	-200.000	-0.011	0.277
-381.946	259.197	0.100	-0.173
-380.931	-200.000	-0.071	0.461
-379.917	-200.000	-0.011	-0.142
-378.902	-200.000	-0.064	0.322
-377.888	78.759	-0.119	-0.127
-376.873	224.457	-0.111	-0.180
-375.858	192.119	-0.131	-0.197
-374.844	-117.756	-0.462	0.083
-373.829	-200.000	0.091	-0.414
-372.815	-200.000	0.009	-0.103
-371.800	-54.416	0.082	-0.037
-370.785	-86.986	-0.421	-0.128
-369.771	189.430	-0.113	0.170
-368.756	-110.633	-0.026	-0.005
-367.742	118.625	0.134	0.166
-366.727	288.825	-0.184	0.334
-365.712	-200.000	0.016	0.075
-364.698	-106.013	-0.091	-0.020
-363.683	800.000	-0.048	0.136
-362.669	-17.333	-0.149	0.094
-361.654	-19.091	-0.226	-0.141
-360.639	-200.000	-0.021	0.244
-359.625	-200.000	0.005	-0.061
-358.610	-23.010	0.215	-0.130
-357.596	-13.135	0.058	-0.038
-356.581	-92.714	0.304	-0.085
-355.566	-127.089	-0.345	-0.051
-354.552	-182.194	0.354	-0.007
-353.537	60.694	-0.189	0.188
-352.523	-159.913	-0.235	-0.013
-351.508	-102.747	0.476	0.114
-350.493	132.399	-0.135	-0.174
-349.479	-200.000	-0.013	-0.191
-348.464	-134.477	0.368	0.045
-347.450	-41.546	0.129	0.066
-346.435	-200.000	0.041	-0.420
-345.420	33.785	-0.093	-0.081
-344.406	326.985	-0.081	0.156
-343.391	-55.922	-0.085	0.038
-342.377	-200.000	0.009	-0.181
-341.362	-200.000	-0.013	-0.216
-340.348	11.418	0.215	-0.165
-339.333	122.751	0.078	-0.098
-338.318	-111.625	0.364	0.074
-337.304	157.776	0.031	-0.042
-336.289	-200.000	0.003	-0.259
-335.275	62.668	0.306	-0.306
-334.260	800.000	0.020	-0.062
-333.245	14.426	-0.210	0.164
-332.231	31.081	-0.021	-0.018
-331.216	284.304	0.067	0.121
-330.202	26.415	0.098	0.082
-329.187	-200.000	-0.031	-0.169
-328.172	184.751	0.110	0.163
-327.158	-51.841	0.252	0.117
-326.143	-95.987	-0.401	0.107
-325.129	-200.000	0.036	0.289
-324.114	-151.862	0.262	0.019
-323.099	304.501	-0.067	0.124
-322.085	-52.174	-0.187	0.087
-321.070	-13.498	-0.217	-0.141
-320.056	-5.627	-0.206	0.141
-319.041	-6.240	0.101	0.069
-318.026	4.504	0.073	0.053
-317.012	-149.140	-0.072	-0.006
-315.997	2.956	-0.221	0.161
-314.983	121.391	0.118	0.146
-313.968	-200.000	-0.045	-0.245
-312.953	140.017	0.153	-0.201
-311.939	-37.454	-0.148	0.079
-310.924	37.013	0.240	0.213
-309.910	-200.000	-0.019	0.172
-308.895	-200.000	0.027	0.140
-307.880	-71.701	-0.351	-0.131
-306.866	55.441	-0.236	-0.228
-305.851	-105.395	-0.361	-0.082
-304.837	246.825	0.075	0.126
-303.822	708.315	-0.107	-0.284
-302.807	800.000	0.071	-0.200
-301.793	-200.000	-0.015	0.110
-300.778	-32.762	0.235	-0.131
-299.764	55.048	-0.044	-0.043
-298.749	-200.000	-0.008	-0.082
-297.735	592.245	-0.106	0.261
-296.720	-14.180	0.263	-0.169
-295.705	707.432	-0.073	-0.192
-294.691	-180.982	0.260	0.005
-293.676	-200.000	-0.040	-0.189
-292.662	-200.000	-0.012	0.158
-291.647	72.134	0.100	0.104
-290.632	9.215	-0.092	-0.070
-289.618	-200.000	-0.008	-0.309
-288.603	-73.165	-0.277	-0.101
-287.589	50.252	0.039	-0.037
-286.574	-31.580	-0.082	0.046
-285.559	-200.000	0.100	0.479
-284.545	335.762	0.061	0.118
-283.530	-95.757	0.299	-0.080
-282.516	-55.612	-0.218	-0.097
-281.501	205.612	0.168	0.261
-280.486	645.199	-0.162	0.414
-279.472	800.000	0.075	-0.214
-278.457	-6.337	0.113	0.077
-277.443	800.000	0.020	-0.073
-276.428	253.984	-0.165	0.282
-275.413	-42.963	-0.108	-0.055
-274.399	160.494	-0.103	-0.143
-273.384	536.208	-0.104	-0.247
-272.370	-70.690	0.231	-0.087
-271.355	93.237	0.162	-0.183
-270.340	41.564	0.214	-0.193
-269.326	800.000	-0.086	0.257
-268.311	-200.000	-0.055	0.249
-267.297	49.098	-0.366	-0.343
-266.282	84.771	-0.092	-0.100
-265.267	-200.000	-0.005	-0.214
-264.253	-76.845	0.263	0.092
-263.238	-200.000	-0.009	-0.097
-262.224	156.318	0.104	0.143
-261.209	491.792	-0.121	0.276
-260.195	270.573	0.063	0.110
-259.180	-200.000	-0.051	-0.330
-258.165	-200.000	-0.025	-0.390
-257.151	-137.340	-0.166	-0.019
-256.136	509.724	0.033	0.076
-255.122	-48.608	-0.302	0.145
-254.107	-129.816	-0.096	0.013
-253.092	800.000	0.104	-0.403
-252.078	800.000	0.019	-0.067
-251.063	-200.000	0.024	0.119
-250.049	-119.986	0.397	-0.068
-249.034	-49.416	0.148	-0.070
-248.019	-200.000	0.055	-0.347
-247.005	88.571	0.108	0.120
-245.990	5.808	-0.179	-0.132
-244.976	172.450	0.197	-0.282
-243.961	40.685	-0.254	-0.228
-242.946	-200.000	0.044	-0.214
-241.932	322.466	-0.217	-0.412
-240.917	440.594	0.090	-0.196
-239.903	-88.167	-0.101	-0.030
-238.888	-112.964	-0.434	-0.086
-237.873	-200.000	-0.057	0.260
-236.859	-63.849	-0.410	0.167
-235.844	268.675	0.257	0.449
-234.830	-200.000	0.029	-0.338
-233.815	800.000	-0.065	0.218
-232.800	-123.696	0.278	-0.044
-231.786	-200.000	0.002	0.273
-230.771	793.287	0.007	0.019
-229.757	-200.000	0.006	-0.342
-228.742	-59.727	-0.328	-0.140
-227.727	665.281	-0.139	-0.356
-226.713	625.392	-0.072	0.181
-225.698	-148.674	0.088	-0.007
-224.684	800.000	-0.047	0.140
-223.669	551.234	0.042	-0.099
-222.655	2.455	-0.130	0.094
-221.640	-94.609	-0.112	0.030
-220.625	519.676	-0.063	-0.147
-219.611	-200.000	-0.019	-0.104
-218.596	-35.186	-0.175	0.095
-217.582	-29.088	-0.170	0.097
-216.567	140.008	0.180	0.237
-215.552	-118.703	0.108	-0.019
-214.538	36.186	-0.233	-0.204
-213.523	-200.000	-0.057	0.289
-212.509	800.000	-0.023	0.075
-211.494	-160.756	-0.285	0.015
-210.479	-200.000	0.017	0.171
-209.465	131.755	-0.104	-0.134
-208.450	789.446	0.152	-0.416
-207.436	-124.874	-0.123	0.019
-206.421	118.259	-0.184	0.226
-205.406	-58.975	0.206	0.088
-204.392	-200.000	-0.002	0.186
-203.377	-200.000	-0.034	-0.355
-202.363	-54.480	-0.254	0.114
-201.348	-69.486	0.414	0.158
-200.333	10.921	-0.167	-0.127
-199.319	223.651	-0.071	0.114
-198.304	-200.000	-0.004	-0.239
-197.290	-9.775	-0.112	-0.074
-196.275	-67.404	-0.408	0.160
-195.260	-37.887	0.254	-0.134
-194.246	253.073	0.046	-0.079
-193.231	-12.761	-0.315	0.204
-192.217	52.172	0.276	-0.262
-191.202	46.742	0.162	-0.150
-190.187	433.232	-0.104	0.224
-189.173	649.700	-0.053	0.135
-188.158	-94.528	-0.258	-0.070
-187.144	67.847	-0.211	0.214
-186.129	46.585	0.133	0.123
-185.114	-200.000	-0.015	0.137
-184.100	-96.276	0.116	-0.031
-183.085	-200.000	0.035	-0.215
-182.071	466.810	-0.097	0.216
-181.056	-113.062	0.241	0.047
-180.042	800.000	-0.059	-0.172
-179.027	-129.384	0.442	-0.061
-178.012	-200.000	-0.002	0.235
-176.998	-19.715	0.370	0.227
-175.983	-200.000	-0.034	0.181
-174.969	145.936	-0.074	0.098
-173.954	-71.649	0.328	-0.122
-172.939	-31.045	0.092	-0.052
-171.925	-32.561	0.448	0.248
-170.910	-53.927	-0.032	0.014
-169.896	-200.000	-0.009	0.239
-168.881	-27.675	0.331	0.191
-167.866	-200.000	0.030	0.306
-166.852	-200.000	-0.003	0.149
-165.837	-88.824	-0.138	0.041
-164.823	-125.783	0.265	-0.040
-163.808	-76.015	-0.137	0.048
-162.793	800.000	0.012	0.049
-161.779	-86.015	-0.098	0.030
-160.764	28.675	-0.042	0.036
-159.750	-18.700	0.285	-0.176
-158.735	27.086	0.193	-0.161
-157.720	-200.000	-0.028	0.241
-156.706	81.285	0.128	0.137
-155.691	-137.872	-0.183	0.020
-154.677	97.865	0.190	-0.217
-153.662	300.859	-0.139	0.254
-152.647	19.147	0.116	0.092
-151.633	39.682	0.131	-0.117
-150.618	-183.813	-0.213	0.004
-149.604	-62.379	0.155	0.064
-148.589	481.400	-0.076	-0.171
-147.574	31.356	-0.151	-0.128
-146.560	-109.068	-0.053	-0.011
-145.545	-200.000	0.216	-0.000
-144.531	138.275	-0.115	0.150
-143.516	-93.334	0.175	0.048
-142.502	-44.005	0.158	-0.079
-141.487	-28.089	0.058	0.033
-140.472	36.431	-0.179	0.157
-139.458	6.529	0.259	-0.191
-138.443	72.903	-0.229	-0.237
-137.429	47.177	-0.194	0.179
-136.414	-200.000	0.059	0.595
-135.399	147.229	-0.119	0.158
-134.385	29.574	-0.178	0.151
-133.370	-16.536	0.014	0.009
-132.356	-98.799	0.205	0.052
-131.341	-13.444	-0.075	0.048
-130.326	154.444	-0.268	0.365
-129.312	800.000	0.066	-0.185
-128.297	363.641	0.091	-0.182
-127.283	-120.889	0.074	0.012
-126.268	-200.000	-0.019	-0.167
-125.253	800.000	-0.028	0.102
-124.239	800.000	0.046	0.185
-123.224	492.170	-0.116	-0.264
-122.210	800.000	-0.041	-0.126
-121.195	-105.624	0.048	0.011
-120.180	-77.930	-0.295	0.101
-119.166	136.286	0.135	-0.174
-118.151	-158.033	0.250	0.015
-117.137	-29.494	0.239	-0.136
-116.122	-200.000	-0.019	-0.133
-115.107	-200.000	0.010	-0.422
-114.093	-85.858	-0.170	0.052
-113.078	237.428	-0.092	-0.152
-112.064	-20.406	-0.075	0.046
-111.049	400.539	-0.157	0.326
-110.034	328.340	0.076	0.144
-109.020	800.000	-0.047	-0.150
-108.005	-106.445	-0.123	0.027
-106.991	-35.380	0.126	-0.068
-105.976	342.672	-0.152	-0.295
-104.962	-96.335	0.108	-0.028
-103.947	24.755	0.115	-0.094
-102.932	-150.191	-0.095	0.007
-101.918	-200.000	-0.026	-0.228
-100.903	480.048	-0.105	-0.235
-99.889	-198.893	-0.169	0.001
-98.874	-35.246	-0.278	-0.150
-97.859	129.366	0.037	0.047
-96.845	22.202	0.015	0.012
-95.830	-77.160	-0.213	-0.073
-94.816	127.375	-0.104	0.130
-93.801	-31.606	0.060	-0.033
-92.786	-99.593	-0.125	0.031
-91.772	-77.598	-0.227	0.078
-90.757	176.514	-0.181	-0.260
-89.743	53.778	-0.214	0.204
-88.728	-178.637	0.226	-0.005
-87.713	800.000	0.117	-0.332
-86.699	-88.930	0.078	0.023
-85.684	311.716	-0.165	0.306
-84.670	800.000	-0.079	-0.258
-83.655	800.000	0.060	0.200
-82.640	127.797	-0.168	-0.212
-81.626	-88.956	0.058	0.017
-80.611	355.986	0.032	0.063
-79.597	198.765	-0.115	0.174
-78.582	409.405	0.094	-0.197
-77.567	-55.536	0.273	-0.121
-76.553	-119.757	0.420	0.072
-75.538	-86.122	-0.242	0.074
-74.524	0.024	-0.115	-0.081
-73.509	76.626	0.200	0.210
-72.494	-194.711	0.292	0.002
-71.480	48.998	0.240	0.223
-70.465	-25.212	0.120	-0.071
-69.451	256.404	0.120	0.204
-68.436	-140.326	0.496	0.051
-67.422	-40.137	-0.139	-0.072
-66.407	-119.066	0.311	-0.054
-65.392	-56.671	-0.117	-0.051
-64.378	239.513	-0.166	-0.273
-63.363	108.828	-0.239	0.282
-62.349	69.723	0.030	-0.031
-61.334	127.250	-0.776	-0.974
-60.319	134.992	0.261	0.335
-59.305	459.760	-0.352	-0.776
-58.290	408.000	0.471	0.986
-57.276	262.941	0.804	1.381
-56.261	-200.000	96.991	573.613
-55.246	628.778	1400.607	3501.426
-54.232	186.084	2608.703	3837.106
-53.217	121.248	2183.900	2689.370
-52.203	46.040	1632.881	1494.885
-51.188	37.711	1367.410	1200.727
-50.173	34.451	1324.270	1143.290
-49.159	56.145	1373.678	1318.875
-48.144	60.272	1391.110	1360.706
-47.130	38.221	1345.801	1184.658
-46.115	34.570	1327.289	1146.431
-45.100	34.289	1323.068	1141.056
-44.086	34.115	1321.183	1138.348
-43.071	34.037	1318.588	1135.601
-42.057	33.995	1316.790	1133.758
-41.042	34.215	1314.871	1133.369
-40.027	34.252	1313.535	1132.392
-39.013	34.157	1311.673	1130.179
-37.998	34.187	1309.493	1128.432
-36.984	34.314	1307.738	1127.630
-35.969	34.227	1306.563	1126.053
-34.954	34.365	1304.191	1124.780
-33.940	34.293	1302.966	1123.254
-32.925	34.269	1301.757	1122.027
-31.911	34.386	1300.258	1121.378
-30.896	34.312	1298.853	1119.684
-29.881	34.282	1297.867	1118.618
-28.867	34.490	1295.713	1117.935
-27.852	34.407	1294.608	1116.453
-26.838	34.523	1293.077	1115.764
-25.823	34.429	1291.747	1114.024
-24.809	34.341	1290.393	1112.296
-23.794	34.361	1289.121	1111.277
-22.779	34.274	1287.892	1109.665
-21.765	34.246	1286.596	1108.340
-20.750	34.238	1285.326	1107.155
-19.736	34.263	1284.138	1106.231
-18.721	34.204	1282.719	1104.624
-17.706	34.187	1281.582	1103.502
-16.692	34.154	1280.263	1102.134
-15.677	34.239	1279.460	1101.890
-14.663	34.247	1278.112	1100.731
-13.648	34.052	1277.306	1098.869
-12.633	34.138	1276.369	1098.512
-11.619	34.177	1275.367	1097.833
-10.604	34.230	1274.493	1097.344
-9.590	34.043	1273.675	1095.516
-8.575	34.208	1272.233	1095.183
-7.560	34.159	1271.662	1094.365
-6.546	34.195	1270.924	1093.893
-5.531	34.140	1269.674	1092.462
-4.517	34.191	1268.852	1092.000
-3.502	34.271	1267.562	1091.305
-2.487	34.190	1266.993	1090.306
-1.473	34.139	1263.337	1086.826
-0.458	32.885	1248.385	1066.840
0.556	28.166	1230.059	1027.266
1.571	24.230	1235.553	1009.517
2.586	23.250	1250.883	1016.329
3.600	22.640	1240.752	1004.535
4.615	17.714	1168.455	919.422
5.629	9.232	1092.375	816.547
6.644	5.288	1071.599	781.256
7.659	4.955	1069.006	777.631
8.673	4.939	1068.097	776.823
9.688	4.919	1065.846	775.017
10.702	5.310	1064.685	776.047
11.717	10.468	1072.282	807.257
12.731	17.911	1082.185	851.918
13.746	19.552	1083.652	861.187
14.761	18.182	1081.528	852.602
15.775	17.090	1079.257	845.303
16.790	16.121	1076.939	838.594
17.804	15.321	1075.231	833.214
18.819	14.858	1074.147	830.003
19.834	14.686	1073.389	828.489
20.848	14.445	1072.444	826.497
21.863	14.161	1071.680	824.427
22.877	14.139	1070.717	823.504
23.892	14.079	1069.930	822.529
24.907	13.981	1069.557	821.686
25.921	14.127	1068.216	821.303
26.936	14.120	1067.086	820.324
27.950	14.130	1065.284	818.918
28.965	14.188	1064.404	818.454
29.980	14.237	1062.344	817.039
30.994	14.439	1060.925	816.862
32.009	14.430	1060.261	816.236
33.023	14.310	1059.182	814.746
34.038	14.307	1057.978	813.732
35.053	14.133	1057.538	812.471
36.067	14.311	1056.067	812.141
37.082	14.216	1055.768	811.375
38.096	14.285	1054.822	810.910
39.111	14.262	1054.304	810.331
40.126	14.116	1052.671	808.296
41.140	13.963	1051.553	806.623
42.155	13.986	1050.197	805.618
43.169	13.936	1049.641	804.878
44.184	14.008	1048.116	803.990
45.199	14.015	1047.028	803.118
46.213	14.103	1046.232	802.860
47.228	14.094	1045.277	802.013
48.242	14.148	1044.177	801.359
49.257	14.140	1043.118	800.434
50.271	14.217	1041.932	799.824
51.286	14.181	1041.426	799.193
52.301	14.189	1040.388	798.363
53.315	14.108	1039.229	797.014
54.330	14.026	1037.937	795.564
55.344	14.081	1037.338	795.295
56.359	13.980	1036.453	794.062
57.374	13.968	1035.792	793.430
58.388	14.065	1034.603	792.913
59.403	13.951	1034.086	791.902
60.417	14.042	1032.661	791.174
61.432	13.972	1032.110	790.350
62.447	13.898	1031.480	789.446
63.461	13.887	1030.441	788.528
64.476	13.899	1029.725	787.965
65.490	13.856	1028.990	787.131
66.505	13.951	1028.066	786.806
67.520	13.825	1028.228	786.262
68.534	13.947	1027.194	785.978
69.549	13.931	1026.210	785.078
70.563	13.934	1025.513	784.493
71.578	13.845	1024.692	783.373
72.593	13.845	1024.005	782.778
73.607	13.806	1023.044	781.791
74.622	13.856	1022.333	781.415
75.636	13.971	1021.460	781.218
76.651	13.909	1021.051	780.546
77.666	13.891	1020.321	779.834
78.680	13.795	1019.807	778.922
79.695	13.832	1018.653	778.144
80.709	13.892	1018.414	778.175
81.724	14.046	1017.408	778.056
82.739	14.031	1017.285	777.823
83.753	14.123	1016.336	777.462
84.768	14.308	1015.316	777.475
85.782	14.413	1014.428	777.215
86.797	14.178	1013.572	775.398
87.812	14.272	1012.243	774.748
88.826	14.226	1011.833	774.151
89.841	14.346	1010.878	773.909
90.855	14.230	1010.044	772.663
91.870	14.328	1009.015	772.263
92.884	14.234	1008.182	771.124
93.899	14.374	1007.348	771.064
94.914	14.321	1006.733	770.281
95.928	14.304	1006.118	769.664
96.943	14.375	1004.443	768.642
97.957	14.304	1004.013	767.916
98.972	14.355	1003.112	767.393
99.987	14.322	1002.257	766.523
101.001	14.251	1001.198	765.317
102.016	14.181	1000.129	764.112
103.030	14.337	999.219	764.063
104.045	14.244	998.820	763.265
105.060	14.332	997.774	762.801
106.074	14.112	996.619	760.845
107.089	14.127	995.718	760.156
108.103	14.061	994.637	758.965
109.118	13.998	993.753	757.933
110.133	13.953	993.357	757.359
111.147	14.068	992.188	756.927
112.162	14.013	991.497	756.081
113.176	14.229	990.444	756.190
114.191	14.130	990.073	755.392
115.206	14.159	989.102	754.716
116.220	14.120	988.449	753.973
117.235	14.184	986.907	753.021
118.249	14.037	986.643	752.086
119.264	14.104	986.121	751.927
120.279	13.999	984.870	750.431
121.293	13.980	984.010	749.625
122.308	13.871	983.401	748.603
123.322	13.972	982.116	748.016
124.337	13.878	981.588	747.122
125.352	13.924	980.410	746.365
126.366	14.051	979.199	745.949
127.381	13.851	978.292	744.294
128.395	13.915	977.636	744.016
129.410	14.127	976.196	743.805
130.424	14.189	975.781	743.699
131.439	14.234	975.075	743.295
132.454	14.050	974.201	741.744
133.468	14.304	973.291	742.114
134.483	14.223	972.426	741.030
135.497	14.357	971.228	740.649
136.512	14.168	970.964	739.540
137.527	14.320	969.613	739.122
138.541	14.206	969.063	738.130
139.556	14.194	968.571	737.638
140.570	14.285	967.963	737.514
141.585	14.440	966.776	737.228
142.600	14.451	965.833	736.494
143.614	14.449	965.213	735.947
144.629	14.395	964.383	735.009
145.643	14.558	963.179	734.743
146.658	14.293	962.833	733.247
147.673	14.276	961.588	732.162
148.687	14.125	961.095	731.059
149.702	14.263	960.072	730.819
150.716	14.166	959.243	729.698
151.731	14.300	958.167	729.405
152.746	14.301	957.429	728.780
153.760	14.379	957.158	728.851
154.775	14.466	956.292	728.507
155.789	14.471	956.017	728.255
156.804	14.343	955.056	726.902
157.819	14.554	954.531	727.359
158.833	14.568	953.929	726.897
159.848	14.485	953.410	726.075
160.862	14.439	952.298	724.964
161.877	14.236	951.435	723.358
162.892	14.259	950.117	722.393
163.906	14.283	949.284	721.801
164.921	14.307	948.435	721.194
165.935	14.409	947.671	720.993
166.950	14.276	946.920	719.782
167.964	14.506	945.704	719.787
168.979	14.469	944.577	718.706
169.994	14.402	943.974	717.896
171.008	14.369	943.749	717.515
172.023	14.503	942.921	717.400
173.037	14.573	941.967	716.913
174.052	14.524	941.203	716.057
175.067	14.467	940.529	715.238
176.081	14.369	940.284	714.565
177.096	14.386	939.598	714.054
178.110	14.480	939.072	713.996
179.125	14.379	938.458	713.034
180.140	14.485	938.245	713.262
181.154	14.521	937.407	712.714
182.169	14.573	936.868	712.464
183.183	14.593	936.348	712.092
184.198	14.704	935.064	711.525
185.213	14.694	934.547	711.027
186.227	14.806	933.691	710.786
187.242	14.749	933.644	710.447
188.256	14.884	932.800	710.315
189.271	14.813	931.851	709.228
190.286	14.730	930.850	708.051
191.300	14.442	930.568	706.553
192.315	14.484	929.720	706.026
193.329	14.381	929.419	705.301
194.344	14.493	928.784	705.229
195.359	14.612	927.724	704.862
196.373	14.590	927.339	704.415
197.388	14.752	927.245	704.967
198.402	14.861	926.517	704.809
199.417	14.966	925.700	704.566
200.432	14.798	925.732	703.821
201.446	14.953	925.117	703.945
202.461	15.057	924.596	703.923
203.475	15.004	924.203	703.340
204.490	15.033	923.159	702.606
205.504	14.921	922.307	701.423
206.519	14.864	921.355	700.397
207.534	15.006	920.445	700.239
208.548	14.871	920.547	699.688
209.563	14.946	919.310	699.001
210.577	14.892	918.892	698.398
211.592	15.108	917.812	698.416
212.607	15.090	917.528	698.061
213.621	15.169	916.321	697.408
214.636	15.141	915.748	696.795
215.650	15.231	914.740	696.342
216.665	15.115	914.654	695.734
217.680	15.153	913.827	695.201
218.694	15.219	913.052	694.824
219.709	15.171	912.663	694.264
220.723	15.226	911.853	693.813
221.738	15.260	911.147	693.356
222.753	15.248	910.639	692.862
223.767	15.290	909.924	692.430
224.782	15.311	909.413	692.066
225.796	15.270	908.956	691.487
226.811	15.343	908.420	691.317
227.826	15.322	907.289	690.312
228.840	15.261	906.644	689.507
229.855	15.134	906.189	688.578
230.869	15.097	905.422	687.784
231.884	15.259	904.353	687.573
232.899	15.157	903.727	686.618
233.913	15.281	903.265	686.716
234.928	15.190	902.540	685.731
235.942	15.206	901.552	684.984
236.957	15.215	901.385	684.834
237.972	15.209	900.803	684.308
238.986	15.213	900.113	683.739
240.001	15.154	899.452	682.934
241.015	15.333	898.847	683.143
242.030	15.333	898.429	682.766
243.045	15.359	898.148	682.597
244.059	15.346	897.466	681.965
245.074	15.329	896.843	681.366
246.088	15.320	896.294	680.850
247.103	15.393	895.392	680.401
248.117	15.571	894.924	680.706
249.132	15.683	894.357	680.668
250.147	15.827	893.172	680.290
251.161	15.725	893.111	679.769
252.176	15.807	892.351	679.462
253.190	15.764	891.763	678.779
254.205	15.906	891.074	678.771
255.220	15.901	890.447	678.213
256.234	15.845	889.860	677.480
257.249	15.792	889.536	676.957
258.263	15.916	888.066	676.277
259.278	15.901	887.631	675.826
260.293	15.867	887.169	675.280
261.307	15.874	886.951	675.083
262.322	16.035	886.321	675.187
263.336	16.060	884.940	674.177
264.351	16.138	884.585	674.156
265.366	16.106	884.159	673.645
266.380	16.100	883.489	673.052
267.395	15.956	883.077	672.103
268.409	16.017	882.136	671.572
269.424	16.045	881.217	670.921
270.439	16.138	880.370	670.588
271.453	15.868	879.947	669.134
272.468	15.972	879.133	668.869
273.482	15.988	878.901	668.698
274.497	16.012	877.978	668.030
275.512	16.040	877.247	667.527
276.526	16.118	877.010	667.594
277.541	16.143	876.204	667.021
278.555	16.252	875.868	667.138
279.570	16.194	875.348	666.455
280.585	16.239	874.620	666.017
281.599	16.130	874.008	665.064
282.614	16.135	873.228	664.432
283.628	16.155	872.438	663.849
284.643	16.143	871.922	663.350
285.657	16.230	871.258	663.130
286.672	16.166	871.081	662.684
287.687	16.267	870.155	662.318
288.701	16.269	869.442	661.722
289.716	16.394	868.538	661.468
290.730	16.321	868.528	661.114
291.745	16.292	867.852	660.426
292.760	16.244	867.424	659.856
293.774	16.462	866.286	659.783
294.789	16.456	866.042	659.514
295.803	16.354	865.291	658.487
296.818	16.208	864.959	657.607
297.833	16.433	863.569	657.369
298.847	16.400	863.297	656.975
299.862	16.450	862.524	656.521
300.876	16.583	862.186	656.724
301.891	16.414	861.501	655.489
302.906	16.519	861.096	655.529
303.920	16.579	860.319	655.110
304.935	16.686	859.911	655.158
305.949	16.732	859.285	654.802
306.964	16.472	859.188	653.662
307.979	16.611	858.127	653.333
308.993	16.641	857.404	652.840
310.008	16.703	856.886	652.628
311.022	16.571	856.366	651.665
312.037	16.541	855.769	651.038
313.052	16.452	855.326	650.300
314.066	16.589	854.645	650.252
315.081	16.579	853.817	649.528
316.095	16.552	853.426	649.067
317.110	16.438	853.134	648.353
318.125	16.596	852.287	648.256
319.139	16.637	851.641	647.867
320.154	16.658	851.425	647.726
321.168	16.612	850.973	647.146
322.183	16.755	850.396	647.196
323.197	16.710	849.866	646.563
324.212	16.604	849.346	645.707
325.227	16.610	848.811	645.265
326.241	16.511	848.448	644.556
327.256	16.719	847.692	644.718
328.270	16.733	846.687	643.950
329.285	16.692	846.048	643.249
330.300	16.649	845.533	642.637
331.314	16.735	845.125	642.596
332.329	16.758	844.830	642.405
333.343	16.736	844.626	642.108
334.358	16.889	844.040	642.184
335.373	16.683	844.041	641.347
336.387	16.920	843.600	641.854
337.402	16.986	843.035	641.618
338.416	16.987	842.641	641.264
339.431	17.061	842.554	641.423
340.446	17.065	841.527	640.596
341.460	17.060	841.520	640.518
342.475	17.110	840.892	640.170
343.489	17.095	840.310	639.613
344.504	17.196	840.093	639.774
345.519	17.197	839.909	639.580
346.533	17.287	839.020	639.183
347.548	17.155	838.145	637.965
348.562	17.149	837.973	637.755
349.577	17.030	837.349	636.777
350.592	17.127	836.535	636.464
351.606	17.012	835.963	635.546
352.621	17.053	835.464	635.262
353.635	17.008	834.815	634.544
354.650	17.320	834.035	635.059
355.665	17.153	833.528	633.995
356.679	17.169	832.890	633.515
357.694	17.191	832.259	633.058
358.708	17.157	831.982	632.667
359.723	17.127	831.624	632.227
360.738	17.290	830.513	631.933
361.752	17.311	829.946	631.522
362.767	17.430	829.500	631.568
363.781	17.404	829.108	631.119
364.796	17.525	828.490	631.041
365.810	17.505	828.457	630.886
366.825	17.615	827.918	630.825
367.840	17.736	827.453	630.864
368.854	17.475	826.610	629.201
369.869	17.481	826.557	629.127
370.883	17.610	826.100	629.198
371.898	17.595	825.370	628.533
372.913	17.507	825.509	628.258
373.927	17.597	824.559	627.810
374.942	17.688	823.925	627.609
375.956	17.841	823.524	627.807
376.971	17.778	823.471	627.483
377.986	17.793	822.776	626.951
379.000	17.760	822.059	626.231
380.015	17.863	821.205	625.901
381.029	17.924	821.276	626.122
382.044	17.786	820.539	625.000
383.059	17.855	819.903	624.712
384.073	17.898	819.470	624.486
385.088	17.756	818.934	623.502
386.102	17.751	818.314	622.956
387.117	17.588	817.995	622.063
388.132	17.664	817.268	621.734
389.146	17.754	816.698	621.571
390.161	17.973	816.195	621.933
391.175	17.886	816.023	621.431
392.190	17.832	815.365	620.677
393.205	17.670	814.862	619.649
394.219	17.783	814.550	619.770
395.234	17.693	814.332	619.220
396.248	17.766	813.771	619.004
397.263	17.677	813.493	618.415
398.278	17.617	812.883	617.678
399.292	17.480	812.726	617.010
400.307	17.640	811.996	616.981
401.321	17.775	811.149	616.768
402.336	17.938	810.766	617.011
403.350	17.928	810.116	616.429
404.365	17.907	810.125	616.302
405.380	17.906	809.946	616.108
406.394	17.977	809.398	615.893
407.409	18.141	808.694	615.894
408.423	18.109	808.814	615.817
409.438	18.205	808.185	615.628
410.453	18.185	807.543	615.014
411.467	18.264	807.193	614.976
412.482	18.291	806.805	614.724
413.496	18.266	806.404	614.275
414.511	18.310	806.046	614.105
415.526	18.383	805.502	613.896
416.540	18.285	804.906	613.038
417.555	18.320	804.375	612.705
418.569	18.405	803.840	612.545
419.584	18.399	803.857	612.483
420.599	18.261	803.369	611.566
421.613	153.506	1370.428	1789.636
422.628	133.098	1453.074	1789.718
