DTS Sentinel unit serial number:	SN413079Multiplexer serial number:	ORYXHardware model number:	OX4-SRSoftware version number:	ORYX F/W v4.00 Oryx Data Collector v3.7.2.0data status	okinstallation	princeton_trtdifferential loss correction	single-endedforward channel	channel 1reverse channel	N/Adate	2019/09/18time	21:38:35forward acquisition time	60.00reverse acquisition time	0.00gamma	496.2192k internal	0.2341k external	0.2341temperature offset calibration	1.0019default loss term (dB/km)	0.3790temperature slope calibration	1.0000multiplexer offset coefficient	1.0000multiplexer slope coefficient	1.0000fibre end	0.00T internal ref (°C)	25.03T ext. ref 1 (°C)	0.82T ext. ref 2 (°C)	18.31length (m)	temperature (°C)	Stokes	anti-Stokes-747.200	800.000	0.104	-0.351
-746.185	49.932	-0.099	0.093
-745.171	-113.823	-0.138	0.027
-744.156	-112.893	-0.092	0.018
-743.142	800.000	-0.068	0.190
-742.127	-200.000	0.053	0.350
-741.112	-190.248	0.292	0.003
-740.098	25.181	0.018	-0.015
-739.083	-117.675	0.324	0.058
-738.069	2.165	-0.365	0.265
-737.054	523.706	0.166	0.391
-736.039	-50.025	-0.488	-0.232
-735.025	89.216	0.195	-0.218
-734.010	-200.000	0.057	-0.470
-732.996	-92.201	-0.205	-0.058
-731.981	800.000	0.027	0.079
-730.966	751.823	0.046	-0.125
-729.952	-200.000	-0.002	-0.246
-728.937	-200.000	-0.013	0.103
-727.923	649.167	-0.096	-0.246
-726.908	-200.000	0.084	-0.515
-725.894	800.000	-0.096	-0.270
-724.879	-73.154	-0.238	0.087
-723.864	-134.956	-0.105	-0.013
-722.850	-147.028	0.122	-0.010
-721.835	-200.000	0.018	-0.146
-720.821	19.211	-0.195	0.157
-719.806	-106.009	-0.272	0.061
-718.791	36.972	0.084	0.074
-717.777	-105.765	-0.057	-0.013
-716.762	-2.417	0.310	0.217
-715.748	-82.370	-0.127	-0.041
-714.733	-58.051	-0.087	0.038
-713.718	800.000	0.127	0.446
-712.704	-99.434	-0.099	-0.025
-711.689	237.882	-0.134	-0.223
-710.675	-81.194	0.359	-0.119
-709.660	207.464	0.060	0.094
-708.645	-169.997	0.240	0.009
-707.631	800.000	-0.056	0.243
-706.616	-73.839	0.260	-0.095
-705.602	282.484	-0.023	0.042
-704.587	-5.195	0.038	-0.026
-703.572	-129.439	-0.381	-0.053
-702.558	288.629	0.101	0.182
-701.543	208.269	-0.150	-0.235
-700.529	632.912	-0.035	0.089
-699.514	800.000	-0.058	-0.242
-698.499	-127.526	-0.149	-0.022
-697.485	-8.512	-0.240	0.161
-696.470	-158.790	-0.139	0.008
-695.456	167.374	-0.028	-0.040
-694.441	-114.105	-0.443	0.086
-693.426	-200.000	-0.009	-0.173
-692.412	-153.659	-0.199	-0.014
-691.397	-64.584	0.241	-0.098
-690.383	-200.000	-0.012	0.220
-689.368	285.730	-0.201	0.362
-688.354	-145.112	-0.117	0.011
-687.339	261.144	-0.077	-0.134
-686.324	-103.439	-0.113	-0.027
-685.310	-62.870	-0.183	-0.076
-684.295	-189.364	-0.059	0.001
-683.281	-126.757	-0.358	0.053
-682.266	-65.894	0.348	-0.139
-681.251	400.928	0.136	0.285
-680.237	800.000	0.026	-0.098
-679.222	53.412	0.146	-0.140
-678.208	-111.565	-0.092	0.019
-677.193	-89.903	-0.101	-0.029
-676.178	-61.059	0.245	0.103
-675.164	-142.413	-0.032	-0.003
-674.149	-200.000	-0.017	0.076
-673.135	-4.851	0.095	0.066
-672.120	17.392	-0.168	0.133
-671.105	5.813	-0.061	0.045
-670.091	125.871	-0.292	-0.369
-669.076	65.375	-0.023	0.023
-668.062	-143.271	-0.050	-0.005
-667.047	-200.000	-0.014	0.238
-666.032	738.650	0.136	-0.364
-665.018	51.208	0.091	-0.086
-664.003	800.000	0.055	0.177
-662.989	-200.000	-0.001	-0.265
-661.974	33.576	0.188	-0.163
-660.959	800.000	-0.074	0.229
-659.945	800.000	0.013	0.054
-658.930	260.297	0.104	0.180
-657.916	-57.337	0.222	-0.097
-656.901	800.000	0.067	0.186
-655.886	3.342	0.068	-0.049
-654.872	-149.785	-0.181	-0.014
-653.857	-105.602	0.329	-0.074
-652.843	800.000	-0.114	-0.389
-651.828	800.000	-0.089	-0.327
-650.814	-146.279	0.245	-0.021
-649.799	-189.022	-0.268	0.003
-648.784	-200.000	0.009	0.221
-647.770	-39.041	-0.139	0.073
-646.755	121.107	0.042	0.052
-645.741	-95.827	0.318	-0.085
-644.726	1.881	0.354	-0.255
-643.711	-82.916	0.005	0.002
-642.697	-200.000	-0.013	0.063
-641.682	7.803	-0.042	0.031
-640.668	-77.045	-0.082	-0.029
-639.653	-64.167	0.147	0.060
-638.638	-24.026	-0.079	-0.047
-637.624	113.485	-0.209	-0.254
-636.609	31.741	-0.081	-0.070
-635.595	575.738	0.022	-0.054
-634.580	-44.220	-0.332	-0.166
-633.565	-200.000	0.013	-0.434
-632.551	-200.000	0.005	0.028
-631.536	800.000	0.080	-0.227
-630.522	161.841	0.067	0.094
-629.507	800.000	-0.061	-0.236
-628.492	-169.737	0.064	0.002
-627.478	-102.545	-0.160	-0.038
-626.463	-200.000	0.007	-0.140
-625.449	373.079	0.077	-0.157
-624.434	124.699	-0.140	0.176
-623.419	-5.908	-0.148	0.101
-622.405	800.000	0.080	-0.291
-621.390	-43.224	0.076	0.038
-620.376	111.770	-0.179	0.215
-619.361	-180.916	0.352	0.007
-618.346	67.829	-0.254	0.259
-617.332	-99.088	0.267	0.067
-616.317	336.049	-0.034	-0.067
-615.303	-19.472	0.125	0.077
-614.288	430.912	-0.100	0.217
-613.273	-15.397	0.126	-0.080
-612.259	0.770	0.078	-0.055
-611.244	-200.000	-0.017	-0.193
-610.230	-200.000	-0.021	0.225
-609.215	62.023	-0.148	0.147
-608.201	-200.000	0.049	-0.223
-607.186	-87.888	0.285	-0.086
-606.171	-200.000	0.007	0.093
-605.157	-13.777	0.087	-0.056
-604.142	15.140	0.247	-0.193
-603.128	-20.197	-0.202	0.124
-602.113	218.517	-0.098	0.156
-601.098	122.655	-0.249	0.311
-600.084	-53.605	0.179	0.082
-599.069	357.273	-0.176	0.350
-598.055	-112.302	0.177	0.035
-597.040	-200.000	-0.039	0.174
-596.025	141.129	-0.212	-0.279
-595.011	800.000	0.050	0.193
-593.996	-79.452	-0.203	0.068
-592.982	23.801	0.125	0.103
-591.967	-72.443	0.125	-0.046
-590.952	40.431	-0.155	-0.139
-589.938	30.791	-0.236	0.201
-588.923	186.479	-0.221	0.328
-587.909	797.778	-0.035	-0.096
-586.894	73.977	-0.135	0.141
-585.879	800.000	-0.072	-0.216
-584.865	16.290	0.143	0.112
-583.850	-111.928	-0.311	0.063
-582.836	29.345	-0.064	-0.054
-581.821	-200.000	-0.056	-0.257
-580.806	-54.419	0.104	0.047
-579.792	-11.937	-0.158	0.103
-578.777	-200.000	0.010	-0.119
-577.763	-78.367	0.286	-0.098
-576.748	-116.150	0.106	0.020
-575.733	-55.275	-0.114	0.051
-574.719	9.995	0.152	-0.115
-573.704	25.508	0.111	-0.092
-572.690	-200.000	0.000	-0.361
-571.675	120.097	0.132	0.163
-570.661	24.851	0.197	0.162
-569.646	-200.000	0.028	0.191
-568.631	-44.493	0.132	-0.066
-567.617	800.000	0.070	-0.193
-566.602	800.000	-0.018	-0.076
-565.588	800.000	0.013	0.047
-564.573	-103.385	0.159	0.037
-563.558	-200.000	-0.010	-0.067
-562.544	108.096	0.256	-0.304
-561.529	-52.973	0.157	-0.072
-560.515	70.206	0.204	-0.209
-559.500	25.817	0.181	0.150
-558.485	124.821	-0.166	-0.208
-557.471	-200.000	-0.007	0.201
-556.456	-20.063	-0.405	-0.248
-555.442	-167.072	0.156	-0.006
-554.427	285.856	-0.051	-0.092
-553.412	-133.048	0.121	-0.015
-552.398	474.698	0.006	0.014
-551.383	-200.000	0.015	0.183
-550.369	8.969	-0.195	0.147
-549.354	-200.000	-0.026	0.275
-548.339	-149.921	-0.192	0.015
-547.325	756.453	-0.030	0.081
-546.310	-67.070	0.340	-0.133
-545.296	800.000	-0.029	0.103
-544.281	-200.000	-0.007	0.217
-543.266	-200.000	0.046	-0.297
-542.252	-78.868	0.231	-0.078
-541.237	-7.685	-0.230	0.154
-540.223	363.649	-0.013	-0.026
-539.208	-15.709	-0.287	-0.182
-538.193	-200.000	-0.032	0.248
-537.179	800.000	0.121	-0.406
-536.164	94.332	0.184	-0.208
-535.150	-122.455	-0.217	-0.035
-534.135	66.859	-0.232	0.235
-533.121	-133.161	-0.047	0.006
-532.106	15.841	0.048	-0.037
-531.091	-200.000	0.001	-0.227
-530.077	250.605	0.051	-0.086
-529.062	525.686	-0.112	0.261
-528.048	27.705	0.129	-0.108
-527.033	-118.092	0.373	0.066
-526.018	-48.506	-0.075	-0.036
-525.004	-42.742	0.373	-0.188
-523.989	-110.168	0.102	0.021
-522.975	-200.000	0.028	-0.161
-521.960	-26.017	-0.384	0.225
-520.945	-76.926	0.201	-0.070
-519.931	-200.000	-0.029	0.154
-518.916	800.000	0.046	0.189
-517.902	-14.693	-0.497	-0.317
-516.887	-30.880	0.175	-0.098
-515.872	150.152	-0.259	0.350
-514.858	-131.079	0.288	0.038
-513.843	-114.626	-0.320	0.061
-512.829	10.644	-0.269	-0.204
-511.814	-122.529	0.043	0.007
-510.799	-129.897	-0.417	-0.057
-509.785	324.574	-0.098	0.185
-508.770	168.548	0.149	0.211
-507.756	-12.339	0.115	-0.074
-506.741	-170.164	0.268	0.009
-505.726	130.362	-0.052	-0.066
-504.712	276.476	-0.143	-0.253
-503.697	-200.000	0.057	-0.373
-502.683	-43.990	-0.290	0.145
-501.668	-38.068	-0.341	-0.180
-500.653	-52.466	-0.114	-0.052
-499.639	-38.401	-0.301	0.158
-498.624	554.611	0.070	0.167
-497.610	-200.000	0.019	0.339
-496.595	209.210	-0.055	0.086
-495.581	-2.164	-0.104	0.073
-494.566	111.048	-0.170	-0.203
-493.551	138.622	0.112	0.146
-492.537	-200.000	0.034	-0.147
-491.522	-99.125	-0.285	0.072
-490.508	143.880	0.178	-0.236
-489.493	73.440	-0.071	-0.074
-488.478	193.532	-0.030	0.045
-487.464	-74.358	0.313	-0.112
-486.449	-67.959	-0.321	-0.124
-485.435	-121.823	-0.435	0.071
-484.420	-63.547	-0.366	0.149
-483.405	24.162	-0.099	-0.081
-482.391	17.484	-0.156	-0.123
-481.376	194.863	-0.083	0.126
-480.362	-34.446	0.102	-0.055
-479.347	800.000	-0.044	-0.174
-478.332	70.937	0.168	0.173
-477.318	-200.000	-0.005	0.086
-476.303	-61.186	0.100	-0.042
-475.289	800.000	0.062	-0.182
-474.274	70.208	-0.127	0.130
-473.259	734.048	0.065	0.172
-472.245	-17.643	-0.110	0.069
-471.230	17.611	-0.205	-0.162
-470.216	21.523	-0.079	-0.064
-469.201	180.673	-0.132	-0.192
-468.186	800.000	0.031	-0.113
-467.172	289.579	-0.137	0.246
-466.157	90.626	-0.065	0.073
-465.143	-200.000	-0.056	-0.490
-464.128	800.000	-0.087	-0.290
-463.113	255.277	0.080	-0.136
-462.099	800.000	-0.043	0.118
-461.084	-70.304	0.150	0.056
-460.070	378.914	0.057	-0.115
-459.055	115.330	0.207	0.250
-458.040	-200.000	0.004	-0.045
-457.026	259.451	-0.126	-0.215
-456.011	123.063	0.093	0.116
-454.997	800.000	0.056	0.207
-453.982	-26.670	-0.276	-0.160
-452.968	-38.982	0.101	-0.052
-451.953	-200.000	-0.013	-0.272
-450.938	162.740	0.050	0.069
-449.924	143.885	0.053	-0.070
-448.909	-109.851	-0.232	-0.048
-447.895	-127.652	0.189	-0.027
-446.880	-20.853	0.186	-0.113
-445.865	-47.277	0.200	-0.096
-444.851	-21.257	0.287	-0.174
-443.836	-19.764	0.098	-0.060
-442.822	-200.000	0.036	-0.186
-441.807	800.000	-0.074	-0.226
-440.792	-77.941	0.178	0.061
-439.778	-80.694	0.158	-0.052
-438.763	-200.000	-0.015	-0.450
-437.749	483.328	-0.055	0.125
-436.734	59.317	0.076	0.074
-435.719	246.141	-0.059	0.098
-434.705	-162.948	0.384	-0.018
-433.690	-7.202	-0.225	0.151
-432.676	-39.205	-0.143	-0.074
-431.661	-144.356	0.043	-0.004
-430.646	-200.000	-0.059	-0.293
-429.632	-107.234	-0.325	-0.071
-428.617	-2.770	0.338	-0.234
-427.603	-200.000	-0.010	-0.254
-426.588	-79.288	-0.245	0.082
-425.573	238.007	-0.089	0.146
-424.559	309.464	0.245	0.454
-423.544	513.843	0.082	0.190
-422.530	-100.280	0.009	-0.002
-421.515	-20.051	-0.110	0.067
-420.500	-166.682	-0.154	0.006
-419.486	-46.972	-0.204	-0.099
-418.471	-96.246	-0.111	0.029
-417.457	-200.000	-0.004	0.066
-416.442	1.888	0.082	-0.059
-415.428	-82.629	0.127	0.041
-414.413	221.831	0.062	0.098
-413.398	2.594	0.045	-0.033
-412.384	266.512	-0.114	0.197
-411.369	-29.399	-0.213	0.120
-410.355	-200.000	-0.016	-0.150
-409.340	-136.662	-0.153	0.017
-408.325	-200.000	-0.009	-0.209
-407.311	800.000	-0.020	-0.074
-406.296	-200.000	-0.031	0.160
-405.282	800.000	0.058	-0.198
-404.267	635.352	-0.082	0.205
-403.252	-200.000	0.011	0.062
-402.238	-114.322	-0.434	0.083
-401.223	83.724	0.428	-0.462
-400.209	-200.000	0.006	-0.189
-399.194	-73.560	0.350	0.126
-398.179	800.000	0.043	-0.139
-397.165	253.909	-0.119	-0.201
-396.150	0.852	-0.213	-0.151
-395.136	-124.243	-0.154	-0.024
-394.121	24.960	-0.117	0.096
-393.106	-200.000	-0.073	-0.430
-392.092	186.454	0.131	0.193
-391.077	116.429	-0.109	0.132
-390.063	-200.000	0.014	0.185
-389.048	-118.406	0.053	0.009
-388.033	1.960	-0.442	0.315
-387.019	231.084	0.098	0.158
-386.004	800.000	-0.048	-0.205
-384.990	-200.000	-0.037	0.179
-383.975	800.000	0.018	-0.075
-382.960	-139.739	-0.070	-0.007
-381.946	-104.339	0.358	0.082
-380.931	-200.000	0.023	0.154
-379.917	-126.514	0.126	0.019
-378.902	-37.394	0.155	-0.082
-377.888	-82.996	-0.139	0.044
-376.873	-200.000	0.005	-0.051
-375.858	-114.671	0.037	0.007
-374.844	-200.000	0.062	0.283
-373.829	-200.000	0.029	0.277
-372.815	15.856	-0.074	-0.058
-371.800	-75.079	0.120	-0.042
-370.785	12.592	-0.132	0.101
-369.771	-200.000	0.198	-0.000
-368.756	-18.589	0.079	-0.049
-367.742	301.305	-0.103	0.188
-366.727	-200.000	0.013	0.174
-365.712	738.964	0.022	0.058
-364.698	-200.000	0.019	0.178
-363.683	184.761	0.077	-0.112
-362.669	65.551	-0.135	-0.135
-361.654	-5.855	-0.356	-0.241
-360.639	-87.573	-0.243	0.073
-359.625	128.630	0.102	0.128
-358.610	537.525	0.076	0.179
-357.596	155.062	-0.043	0.059
-356.581	11.988	0.075	0.057
-355.566	-66.359	0.143	-0.056
-354.552	-17.378	0.463	0.288
-353.537	-200.000	-0.061	0.329
-352.523	-151.933	-0.176	-0.013
-351.508	-25.393	0.156	-0.091
-350.493	300.925	-0.048	0.087
-349.479	800.000	-0.076	0.225
-348.464	51.095	-0.131	0.122
-347.450	-6.287	0.227	-0.153
-346.435	-96.594	0.360	0.094
-345.420	-159.655	-0.282	0.015
-344.406	-130.599	-0.351	-0.047
-343.391	125.786	0.152	-0.190
-342.377	-86.725	-0.198	-0.060
-341.362	-200.000	-0.021	0.140
-340.348	-6.431	0.165	0.111
-339.333	-200.000	0.082	0.435
-338.318	-185.501	0.044	0.001
-337.304	-200.000	-0.010	0.130
-336.289	-114.813	-0.328	-0.062
-335.275	-72.757	0.193	-0.070
-334.260	-124.467	0.242	0.037
-333.245	-47.414	-0.045	0.022
-332.231	303.597	0.075	-0.137
-331.216	-194.098	0.031	0.000
-330.202	-200.000	-0.036	0.273
-329.187	-92.594	0.260	-0.072
-328.172	657.922	-0.100	0.253
-327.158	-200.000	0.033	0.143
-326.143	-200.000	-0.009	0.251
-325.129	800.000	-0.021	-0.086
-324.114	186.252	-0.265	0.389
-323.099	-60.166	0.248	-0.104
-322.085	-3.526	0.037	-0.025
-321.070	316.987	0.033	-0.061
-320.056	111.546	0.116	-0.138
-319.041	-200.000	0.011	0.160
-318.026	-123.619	0.142	-0.022
-317.012	-45.194	0.099	-0.049
-315.997	3.803	0.186	-0.134
-314.983	-48.378	0.241	-0.114
-313.968	-47.435	0.426	-0.204
-312.953	-24.214	-0.019	-0.011
-311.939	-200.000	-0.015	-0.108
-310.924	-200.000	0.029	-0.171
-309.910	-9.730	-0.135	0.089
-308.895	1.608	0.218	-0.155
-307.880	13.308	-0.121	0.092
-306.866	189.237	0.075	-0.111
-305.851	115.211	-0.098	-0.118
-304.837	-200.000	0.012	-0.283
-303.822	-200.000	-0.048	-0.220
-302.807	183.280	0.222	-0.323
-301.793	47.198	-0.090	-0.082
-300.778	-48.329	-0.325	-0.154
-299.764	60.482	0.142	-0.139
-298.749	279.612	-0.163	-0.287
-297.735	67.911	0.227	0.229
-296.720	-130.125	0.165	-0.022
-295.705	20.769	-0.185	0.148
-294.691	-141.211	-0.365	0.037
-293.676	186.122	-0.036	-0.053
-292.662	-200.000	-0.001	-0.118
-291.647	-158.649	0.287	-0.016
-290.632	-154.465	-0.206	-0.014
-289.618	800.000	-0.044	0.155
-288.603	38.672	0.273	0.240
-287.589	-17.019	0.161	-0.100
-286.574	55.256	-0.147	-0.140
-285.559	-70.873	-0.285	0.106
-284.545	-27.082	0.203	-0.116
-283.530	-200.000	0.011	-0.175
-282.516	79.366	0.124	0.131
-281.501	319.661	-0.067	-0.126
-280.486	-147.493	0.093	-0.008
-279.472	-200.000	-0.038	-0.276
-278.457	0.377	0.032	-0.022
-277.443	165.425	0.106	0.147
-276.428	21.396	-0.081	-0.065
-275.413	-36.760	-0.212	-0.112
-274.399	-55.612	0.034	0.015
-273.384	28.594	0.076	0.063
-272.370	-107.268	0.382	0.083
-271.355	-83.703	0.272	-0.085
-270.340	121.883	0.152	0.186
-269.326	-55.223	-0.191	-0.085
-268.311	600.445	-0.058	0.143
-267.297	209.699	0.074	0.114
-266.282	-200.000	-0.060	0.359
-265.267	-200.000	0.035	-0.191
-264.253	75.232	0.056	-0.058
-263.238	-5.230	-0.113	0.076
-262.224	-66.902	-0.188	-0.073
-261.209	800.000	0.142	-0.415
-260.195	-151.265	-0.133	0.010
-259.180	-200.000	0.009	0.307
-258.165	-122.789	-0.062	0.010
-257.151	45.877	-0.161	-0.147
-256.136	-97.210	-0.343	0.088
-255.122	263.528	0.140	0.240
-254.107	-200.000	0.030	0.191
-253.092	-200.000	-0.046	0.000
-252.078	18.257	0.227	0.178
-251.063	522.243	-0.071	-0.164
-250.049	-200.000	0.011	-0.052
-249.034	50.298	-0.205	-0.190
-248.019	800.000	-0.051	-0.197
-247.005	-57.875	-0.215	0.092
-245.990	-200.000	0.044	0.290
-244.976	-24.484	0.278	-0.163
-243.961	568.918	-0.124	-0.295
-242.946	-200.000	-0.033	-0.170
-241.932	-200.000	-0.013	-0.131
-240.917	102.353	-0.163	0.187
-239.903	-200.000	0.018	-0.141
-238.888	-200.000	-0.024	-0.198
-237.873	481.518	-0.077	0.171
-236.859	94.371	-0.212	-0.237
-235.844	96.253	0.054	-0.061
-234.830	-98.224	0.394	-0.099
-233.815	-128.948	-0.361	0.050
-232.800	-181.618	0.152	-0.003
-231.786	-1.570	-0.042	0.029
-230.771	800.000	0.112	0.362
-229.757	28.529	0.157	-0.131
-228.742	-100.027	-0.115	-0.028
-227.727	256.252	0.149	-0.252
-226.713	172.982	0.089	-0.126
-225.698	-40.314	-0.412	-0.210
-224.684	-70.062	0.289	-0.108
-223.669	-200.000	-0.008	0.238
-222.655	-200.000	0.014	-0.380
-221.640	119.604	0.134	0.163
-220.625	800.000	0.050	-0.157
-219.611	106.761	0.137	-0.160
-218.596	-89.693	0.343	0.099
-217.582	-85.630	-0.497	-0.152
-216.567	-47.120	0.493	0.236
-215.552	-79.749	-0.177	0.059
-214.538	-112.253	-0.339	0.067
-213.523	-200.000	-0.014	0.206
-212.509	800.000	-0.027	-0.098
-211.494	65.231	0.307	0.304
-210.479	800.000	-0.066	-0.210
-209.465	-200.000	-0.002	-0.230
-208.450	800.000	-0.077	0.228
-207.436	-87.835	0.212	0.063
-206.421	-38.431	0.254	-0.132
-205.406	-8.941	-0.231	0.152
-204.392	-200.000	0.009	0.247
-203.377	148.942	-0.116	0.154
-202.363	243.325	-0.152	0.250
-201.348	-14.797	0.240	0.151
-200.333	-66.412	-0.198	0.077
-199.319	60.369	0.192	0.187
-198.304	-138.765	0.647	0.069
-197.290	515.601	0.046	-0.106
-196.275	184.941	-0.229	0.333
-195.260	-200.000	-0.013	-0.099
-194.246	357.918	0.028	0.055
-193.231	-200.000	-0.034	0.370
-192.217	-200.000	0.036	0.333
-191.202	65.060	-0.278	0.276
-190.187	205.740	0.031	-0.048
-189.173	-148.326	-0.025	0.002
-188.158	-133.227	0.274	0.034
-187.144	423.570	0.122	-0.257
-186.129	187.413	-0.113	-0.165
-185.114	-105.150	-0.070	0.016
-184.100	-200.000	-0.024	0.154
-183.085	-200.000	-0.023	-0.117
-182.071	-155.257	-0.150	0.010
-181.056	-151.061	0.023	-0.002
-180.042	-100.594	0.230	0.056
-179.027	-200.000	-0.019	0.381
-178.012	-91.543	0.147	0.041
-176.998	160.468	-0.128	0.176
-175.983	144.917	-0.056	-0.073
-174.969	449.479	0.228	0.493
-173.954	-90.684	-0.270	-0.076
-172.939	4.017	0.234	-0.168
-171.925	-118.876	0.175	-0.030
-170.910	119.810	-0.055	-0.067
-169.896	466.555	0.152	0.333
-168.881	47.310	0.122	-0.112
-167.866	-59.088	-0.135	0.057
-166.852	517.795	0.095	-0.218
-165.837	-78.366	-0.337	0.113
-164.823	-146.868	-0.224	-0.019
-163.808	-71.461	0.330	-0.121
-162.793	-200.000	-0.026	-0.195
-161.779	-200.000	-0.081	-0.374
-160.764	-117.498	0.197	0.035
-159.750	123.770	-0.129	0.159
-158.735	800.000	0.023	-0.076
-157.720	292.120	0.025	0.045
-156.706	800.000	0.030	0.092
-155.691	246.266	0.128	0.211
-154.677	29.152	0.229	0.191
-153.662	0.185	-0.404	0.282
-152.647	-193.102	0.131	0.001
-151.633	-40.479	0.190	-0.096
-150.618	-200.000	0.025	-0.186
-149.604	230.317	-0.134	0.214
-148.589	-200.000	-0.030	-0.334
-147.574	-200.000	0.020	-0.132
-146.560	-200.000	-0.075	0.331
-145.545	-24.186	0.048	-0.028
-144.531	-82.563	0.369	-0.117
-143.516	-200.000	0.040	0.340
-142.502	-150.205	-0.336	0.025
-141.487	-75.087	0.352	0.123
-140.472	-140.858	0.226	-0.023
-139.458	135.400	0.170	-0.217
-138.443	-68.786	0.280	0.106
-137.429	-87.814	-0.332	-0.098
-136.414	-102.971	0.287	-0.067
-135.399	33.458	0.031	-0.027
-134.385	245.143	-0.132	-0.217
-133.370	-89.769	-0.076	0.022
-132.356	800.000	-0.104	0.287
-131.341	-33.211	-0.135	-0.073
-130.326	4.103	-0.045	-0.032
-129.312	225.071	0.072	-0.115
-128.297	615.570	-0.176	-0.432
-127.283	-160.118	-0.641	0.034
-126.268	20.390	-0.118	0.094
-125.253	206.250	-0.215	0.328
-124.239	-101.459	0.256	0.061
-123.224	-200.000	0.112	-0.538
-122.210	-200.000	-0.001	0.232
-121.195	547.872	0.069	0.162
-120.180	121.979	-0.129	0.158
-119.166	-200.000	-0.079	0.604
-118.151	-52.421	-0.075	-0.034
-117.137	7.322	0.164	-0.120
-116.122	-163.861	-0.090	0.004
-115.107	-200.000	0.014	-0.124
-114.093	-109.707	0.099	-0.020
-113.078	-134.479	0.117	-0.014
-112.064	196.760	0.186	-0.277
-111.049	703.831	0.012	-0.032
-110.034	800.000	-0.087	-0.276
-109.020	-200.000	0.035	0.221
-108.005	97.441	0.026	0.029
-106.991	-40.948	0.064	0.032
-105.976	-26.136	0.261	0.150
-104.962	-25.200	-0.215	0.125
-103.947	182.405	0.130	0.188
-102.932	-77.173	0.154	0.052
-101.918	-25.202	0.079	0.046
-100.903	103.714	-0.194	0.222
-99.889	177.775	-0.087	0.123
-98.874	203.626	0.116	0.175
-97.859	-50.525	-0.396	0.182
-96.845	800.000	0.023	0.088
-95.830	-113.113	0.425	-0.082
-94.816	-60.128	0.027	-0.011
-93.801	345.195	-0.021	0.041
-92.786	8.852	0.061	0.045
-91.772	-64.692	0.203	-0.080
-90.757	800.000	0.042	-0.130
-89.743	-62.389	0.009	0.004
-88.728	490.008	-0.110	-0.245
-87.713	188.738	0.359	0.525
-86.699	800.000	0.104	-0.341
-85.684	-200.000	0.007	-0.181
-84.670	-200.000	0.031	-0.247
-83.655	-200.000	-0.054	0.238
-82.640	-164.730	-0.288	-0.013
-81.626	-187.108	0.163	0.002
-80.611	-47.335	-0.047	-0.022
-79.597	-186.134	0.319	0.005
-78.582	-200.000	-0.025	0.211
-77.567	532.533	0.145	0.334
-76.553	628.389	-0.091	0.225
-75.538	-157.716	0.213	-0.012
-74.524	-200.000	-0.002	0.342
-73.509	-95.971	0.501	0.130
-72.494	-162.514	0.103	-0.005
-71.480	-200.000	-0.005	0.050
-70.465	800.000	0.019	0.063
-69.451	-200.000	0.034	0.208
-68.436	800.000	-0.042	0.159
-67.422	747.963	-0.121	-0.318
-66.407	416.302	-0.117	0.244
-65.392	98.108	0.137	-0.154
-64.378	-139.622	0.255	-0.026
-63.363	-140.103	-0.120	-0.012
-62.349	-50.634	-0.199	0.092
-61.334	39.857	-1.342	-1.175
-60.319	222.214	0.571	0.896
-59.305	800.000	-0.370	-1.019
-58.290	298.109	0.626	1.122
-57.276	575.449	0.617	1.470
-56.261	-200.000	119.388	624.419
-55.246	419.702	1532.026	3199.990
-54.232	149.078	2678.053	3534.477
-53.217	98.502	2128.209	2393.570
-52.203	36.182	1574.926	1353.482
-51.188	28.352	1321.380	1089.203
-50.173	25.578	1284.677	1042.847
-49.159	51.065	1351.413	1249.998
-48.144	48.825	1363.848	1248.087
-47.130	28.332	1312.414	1081.526
-46.115	25.146	1293.843	1047.598
-45.100	24.952	1288.933	1042.451
-44.086	25.005	1286.127	1040.447
-43.071	24.872	1284.360	1038.211
-42.057	24.917	1282.274	1036.743
-41.042	25.006	1280.140	1035.489
-40.027	25.037	1278.380	1034.202
-39.013	24.933	1276.733	1032.231
-37.998	24.946	1275.298	1031.104
-36.984	24.910	1273.735	1029.592
-35.969	25.037	1271.712	1028.649
-34.954	25.054	1270.102	1027.403
-33.940	25.044	1268.443	1025.959
-32.925	25.193	1267.012	1025.613
-31.911	25.055	1266.122	1024.065
-30.896	25.072	1264.843	1023.089
-29.881	25.106	1263.581	1022.221
-28.867	25.114	1262.122	1021.045
-27.852	25.148	1260.673	1020.024
-26.838	25.248	1259.254	1019.402
-25.823	25.050	1258.730	1017.815
-24.809	25.070	1257.089	1016.563
-23.794	25.105	1255.471	1015.412
-22.779	25.070	1254.242	1014.179
-21.765	25.044	1253.382	1013.294
-20.750	25.035	1251.882	1011.991
-19.736	25.117	1250.486	1011.285
-18.721	25.017	1249.593	1009.962
-17.706	25.017	1248.388	1008.946
-16.692	25.054	1247.093	1008.068
-15.677	25.000	1245.842	1006.710
-14.663	25.035	1244.488	1005.776
-13.648	24.960	1243.865	1004.811
-12.633	24.945	1242.966	1003.958
-11.619	25.035	1242.153	1003.771
-10.604	24.959	1241.085	1002.439
-9.590	25.037	1239.913	1001.892
-8.575	24.980	1239.143	1000.910
-7.560	24.905	1238.873	1000.232
-6.546	25.039	1237.697	999.991
-5.531	24.949	1236.911	998.814
-4.517	24.931	1235.785	997.763
-3.502	25.006	1235.143	997.628
-2.487	25.070	1234.168	997.155
-1.473	24.876	1230.113	992.760
-0.458	23.106	1214.924	970.759
0.556	18.357	1199.107	931.989
1.571	14.591	1205.989	916.605
2.586	13.644	1221.204	922.818
3.600	13.802	1209.484	914.748
4.615	10.366	1139.801	844.097
5.629	4.134	1068.647	760.807
6.644	0.976	1051.335	733.142
7.659	0.718	1050.082	730.959
8.673	0.743	1048.651	730.018
9.688	0.843	1047.403	729.568
10.702	0.956	1045.453	728.686
11.717	4.872	1049.866	750.595
12.731	11.823	1059.151	790.859
13.746	16.416	1064.095	816.728
14.761	17.462	1064.968	822.383
15.775	16.781	1063.238	817.689
16.790	15.696	1061.252	810.858
17.804	14.906	1060.231	806.198
18.819	14.691	1058.985	804.146
19.834	14.343	1058.247	801.838
20.848	14.169	1057.256	800.180
21.863	14.029	1055.749	798.295
22.877	13.829	1055.373	796.983
23.892	13.662	1054.750	795.639
24.907	13.685	1053.888	795.030
25.921	13.756	1053.281	794.840
26.936	13.802	1052.574	794.458
27.950	13.948	1051.048	793.933
28.965	13.915	1050.210	793.074
29.980	13.939	1048.723	791.996
30.994	13.920	1048.023	791.306
32.009	14.021	1046.749	790.752
33.023	13.955	1045.865	789.704
34.038	13.873	1045.391	788.886
35.053	13.761	1044.721	787.777
36.067	13.827	1043.527	787.118
37.082	13.959	1042.846	787.163
38.096	13.925	1041.947	786.252
39.111	13.976	1041.063	785.759
40.126	13.915	1040.010	784.603
41.140	13.711	1039.232	782.988
42.155	13.660	1037.814	781.609
43.169	13.715	1036.841	781.063
44.184	13.665	1035.827	779.998
45.199	13.673	1034.752	779.156
46.213	13.763	1034.150	779.058
47.228	13.845	1032.848	778.392
48.242	13.863	1031.527	777.410
49.257	13.814	1030.892	776.633
50.271	13.862	1029.933	776.069
51.286	13.819	1029.348	775.358
52.301	13.789	1028.239	774.311
53.315	13.909	1027.200	774.020
54.330	13.679	1026.362	772.249
55.344	13.797	1025.042	771.737
56.359	13.763	1024.477	771.088
57.374	13.657	1023.737	769.969
58.388	13.543	1022.706	768.597
59.403	13.646	1021.729	768.270
60.417	13.790	1020.822	768.190
61.432	13.680	1020.410	767.301
62.447	13.622	1019.487	766.271
63.461	13.725	1018.929	766.262
64.476	13.544	1018.014	764.669
65.490	13.536	1017.225	763.970
66.505	13.756	1016.222	764.166
67.520	13.767	1015.816	763.841
68.534	13.735	1014.974	762.993
69.549	13.627	1014.296	761.921
70.563	13.704	1013.332	761.481
71.578	13.750	1012.635	761.102
72.593	13.656	1012.112	760.211
73.607	13.596	1011.316	759.270
74.622	13.615	1010.959	759.021
75.636	13.731	1009.762	758.587
76.651	13.637	1009.134	757.618
77.666	13.650	1008.405	757.062
78.680	13.698	1007.643	756.644
79.695	13.708	1007.340	756.395
80.709	13.625	1007.173	755.822
81.724	13.752	1006.126	755.551
82.739	13.760	1005.265	754.873
83.753	13.863	1004.510	754.705
84.768	13.868	1003.475	753.884
85.782	13.875	1002.781	753.328
86.797	13.819	1001.839	752.301
87.812	13.785	1000.908	751.379
88.826	13.788	999.840	750.528
89.841	13.824	999.075	750.047
90.855	13.865	998.351	749.626
91.870	13.948	997.183	749.054
92.884	13.939	996.525	748.454
93.899	13.753	995.875	747.061
94.914	13.879	995.253	747.097
95.928	13.919	994.351	746.532
96.943	13.869	993.210	745.384
97.957	13.988	992.101	745.020
98.972	13.895	991.650	744.202
99.987	13.878	990.656	743.313
101.001	13.972	989.383	742.710
102.016	13.877	988.813	741.793
103.030	13.886	988.240	741.337
104.045	13.853	987.799	740.796
105.060	13.919	986.533	740.073
106.074	13.796	985.758	738.880
107.089	13.773	984.654	737.885
108.103	13.731	983.920	737.081
109.118	13.777	983.259	736.725
110.133	13.627	982.623	735.520
111.147	13.752	981.183	734.930
112.162	13.872	980.278	734.719
113.176	13.802	979.746	733.945
114.191	13.863	978.859	733.482
115.206	13.811	978.151	732.661
116.220	13.798	977.216	731.835
117.235	13.806	976.244	731.078
118.249	13.785	975.549	730.402
119.264	13.868	975.083	730.353
120.279	13.869	974.284	729.696
121.293	13.853	973.055	728.638
122.308	13.972	972.007	728.311
123.322	13.957	971.336	727.680
124.337	13.882	970.450	726.622
125.352	13.811	969.354	725.428
126.366	13.876	968.330	724.881
127.381	13.827	967.196	723.753
128.395	13.799	966.466	723.022
129.410	13.950	965.280	722.727
130.424	13.919	964.725	722.114
131.439	13.849	964.150	721.316
132.454	13.781	963.376	720.379
133.468	13.891	962.476	720.119
134.483	13.819	961.249	718.824
135.497	13.922	960.450	718.610
136.512	13.860	959.866	717.839
137.527	13.897	958.488	716.906
138.541	14.066	957.657	716.950
139.556	13.846	957.718	715.981
140.570	14.029	956.416	715.735
141.585	14.040	955.630	715.132
142.600	13.965	955.411	714.581
143.614	14.006	954.407	713.942
144.629	14.095	953.438	713.538
145.643	14.073	952.759	712.870
146.658	14.129	951.610	712.187
147.673	14.131	950.590	711.372
148.687	13.965	950.077	710.215
149.702	14.070	949.171	709.923
150.716	13.971	948.737	709.110
151.731	13.957	948.176	708.570
152.746	13.972	947.419	708.005
153.760	14.023	946.583	707.536
154.775	14.165	945.967	707.617
155.789	14.043	945.311	706.545
156.804	14.137	944.867	706.548
157.819	14.136	944.132	705.932
158.833	14.232	943.193	705.577
159.848	14.196	942.481	704.828
160.862	14.143	941.669	703.933
161.877	13.985	940.943	702.660
162.892	14.075	940.170	702.400
163.906	14.130	939.230	701.871
164.921	14.082	937.943	700.644
165.935	14.144	937.453	700.477
166.950	14.110	936.703	699.711
167.964	14.274	935.670	699.566
168.979	14.115	935.018	698.352
169.994	14.272	933.677	697.945
171.008	14.208	933.381	697.393
172.023	14.219	932.872	696.999
173.037	14.137	932.238	696.119
174.052	14.212	931.361	695.715
175.067	14.221	930.378	694.959
176.081	14.252	930.186	694.880
177.096	14.231	929.816	694.458
178.110	14.274	928.793	693.810
179.125	14.404	927.864	693.598
180.140	14.301	927.567	692.886
181.154	14.402	927.024	692.836
182.169	14.399	926.485	692.360
183.183	14.416	926.033	692.034
184.198	14.464	924.934	691.349
185.213	14.533	924.095	690.947
186.227	14.428	923.755	690.197
187.242	14.526	923.027	689.996
188.256	14.574	922.137	689.468
189.271	14.555	921.647	688.962
190.286	14.419	920.706	687.639
191.300	14.396	920.301	687.179
192.315	14.345	919.678	686.444
193.329	14.499	918.904	686.437
194.344	14.401	918.438	685.628
195.359	14.415	917.826	685.167
196.373	14.545	917.125	685.114
197.388	14.446	916.942	684.513
198.402	14.474	916.692	684.380
199.417	14.730	915.060	684.151
200.432	14.707	914.834	683.826
201.446	14.775	914.488	683.786
202.461	14.690	913.910	682.946
203.475	14.646	913.421	682.339
204.490	14.749	912.429	681.957
205.504	14.822	911.905	681.804
206.519	14.670	911.275	680.655
207.534	14.710	910.394	680.099
208.548	14.674	909.978	679.579
209.563	14.696	909.414	679.189
210.577	14.828	908.461	678.954
211.592	14.782	907.918	678.302
212.607	14.804	906.880	677.556
213.621	14.886	906.274	677.374
214.636	14.866	905.451	676.619
215.650	14.931	904.639	676.213
216.665	14.924	904.077	675.706
217.680	14.971	903.383	675.319
218.694	14.982	902.538	674.670
219.709	14.957	902.224	674.277
220.723	14.963	901.375	673.607
221.738	14.987	900.916	673.300
222.753	14.988	900.118	672.648
223.767	15.019	899.649	672.360
224.782	14.899	899.386	671.623
225.796	15.187	898.320	671.924
226.811	15.127	897.676	671.143
227.826	15.079	897.404	670.685
228.840	15.107	896.370	669.967
229.855	15.151	895.384	669.346
230.869	15.052	894.946	668.562
231.884	15.031	894.115	667.799
232.899	15.173	893.060	667.518
233.913	15.065	892.674	666.741
234.928	14.851	892.630	665.799
235.942	15.134	891.407	665.951
236.957	15.141	890.966	665.593
237.972	15.088	890.226	664.769
238.986	15.146	889.741	664.578
240.001	15.110	889.571	664.251
241.015	15.191	888.397	663.634
242.030	15.257	887.794	663.389
243.045	15.156	887.377	662.616
244.059	15.325	886.948	662.906
245.074	15.328	886.139	662.256
246.088	15.171	885.572	661.153
247.103	15.193	884.907	660.686
248.117	15.362	884.304	660.841
249.132	15.414	883.775	660.593
250.147	15.408	882.907	659.862
251.161	15.403	883.130	659.950
252.176	15.448	881.778	659.057
253.190	15.544	880.996	658.791
254.205	15.559	880.676	658.552
255.220	15.638	880.166	658.424
256.234	15.657	879.087	657.633
257.249	15.523	878.561	656.657
258.263	15.446	877.859	655.774
259.278	15.668	876.694	655.709
260.293	15.711	876.403	655.605
261.307	15.801	875.737	655.399
262.322	15.835	875.298	655.145
263.336	15.739	874.666	654.240
264.351	15.782	874.075	653.908
265.366	15.690	873.489	653.053
266.380	15.764	872.987	652.907
267.395	15.782	872.142	652.287
268.409	15.875	870.739	651.539
269.424	15.890	870.341	651.243
270.439	15.818	870.017	650.663
271.453	15.875	869.129	650.164
272.468	15.841	868.878	649.784
273.482	15.811	868.042	648.988
274.497	15.819	867.641	648.659
275.512	15.777	866.820	647.827
276.526	15.784	866.823	647.800
277.541	15.898	866.270	647.766
278.555	15.973	865.263	647.244
279.570	16.003	864.713	646.891
280.585	15.989	863.810	646.108
281.599	15.914	863.143	645.264
282.614	16.013	862.409	645.035
283.628	16.089	861.720	644.754
284.643	16.046	861.275	644.201
285.657	16.044	860.984	643.919
286.672	16.141	860.160	643.614
287.687	16.095	859.451	642.853
288.701	15.944	859.249	642.068
289.716	16.112	858.657	642.210
290.730	16.102	857.886	641.537
291.745	16.202	857.145	641.308
292.760	16.214	856.594	640.884
293.774	16.122	856.203	640.183
294.789	16.220	855.736	640.150
295.803	16.058	854.622	638.645
296.818	16.120	853.991	638.352
297.833	16.241	853.387	638.304
298.847	16.230	853.158	638.033
299.862	16.073	852.344	636.774
300.876	16.281	851.732	637.046
301.891	16.262	851.367	636.647
302.906	16.349	851.138	636.746
303.920	16.284	850.394	635.887
304.935	16.378	849.684	635.656
305.949	16.428	849.135	635.376
306.964	16.267	848.654	634.353
307.979	16.506	847.882	634.619
308.993	16.377	847.364	633.691
310.008	16.525	846.547	633.578
311.022	16.538	846.014	633.174
312.037	16.480	845.664	632.636
313.052	16.630	844.647	632.381
314.066	16.447	844.302	631.381
315.081	16.476	844.088	631.276
316.095	16.436	843.702	630.781
317.110	16.336	843.266	630.028
318.125	16.382	842.486	629.559
319.139	16.508	841.880	629.522
320.154	16.476	841.240	628.868
321.168	16.504	840.641	628.466
322.183	16.490	840.261	628.076
323.197	16.825	839.311	628.553
324.212	16.630	839.068	627.592
325.227	16.698	838.272	627.194
326.241	16.658	837.690	626.554
327.256	16.543	837.680	626.064
328.270	16.600	836.798	625.564
329.285	16.617	836.124	625.068
330.300	16.682	835.609	624.866
331.314	16.712	834.755	624.283
332.329	16.810	834.607	624.476
333.343	16.688	834.294	623.740
334.358	16.717	833.756	623.387
335.373	16.827	833.683	623.681
336.387	16.692	833.319	622.858
337.402	16.735	833.202	622.875
338.416	16.824	832.620	622.713
339.431	16.873	831.898	622.298
340.446	16.950	831.568	622.275
341.460	16.843	831.474	621.760
342.475	16.901	830.789	621.404
343.489	16.889	830.493	621.085
344.504	17.039	829.804	621.061
345.519	17.033	829.318	620.622
346.533	16.954	829.001	620.040
347.548	17.043	828.480	619.921
348.562	16.940	828.386	619.418
349.577	16.910	827.804	618.819
350.592	16.994	826.481	618.084
351.606	16.980	825.954	617.584
352.621	17.014	825.163	617.061
353.635	17.092	824.700	616.943
354.650	16.982	824.328	616.212
355.665	17.152	823.558	616.197
356.679	17.205	822.594	615.614
357.694	17.076	822.249	614.832
358.708	17.099	821.569	614.353
359.723	17.202	820.990	614.240
360.738	17.089	820.747	613.594
361.752	17.282	819.808	613.534
362.767	17.307	819.474	613.323
363.781	17.171	818.867	612.320
364.796	17.368	818.377	612.611
365.810	17.417	817.750	612.264
366.825	17.318	817.857	611.933
367.840	17.288	817.417	611.441
368.854	17.217	817.108	610.901
369.869	17.245	816.935	610.820
370.883	17.385	815.819	610.432
371.898	17.501	815.541	610.585
372.913	17.481	815.254	610.246
373.927	17.447	814.534	609.530
374.942	17.490	814.253	609.423
375.956	17.598	813.812	609.425
376.971	17.458	813.513	608.644
377.986	17.595	812.963	608.671
379.000	17.601	812.443	608.248
380.015	17.682	811.615	607.861
381.029	17.703	811.063	607.470
382.044	17.617	810.523	606.704
383.059	17.570	810.144	606.202
384.073	17.577	809.418	605.631
385.088	17.687	809.272	605.857
386.102	17.655	808.705	605.265
387.117	17.726	807.935	604.886
388.132	17.781	807.064	604.378
389.146	17.542	806.935	603.381
390.161	17.606	806.573	603.283
391.175	17.745	806.203	603.446
392.190	17.893	805.151	603.126
393.205	17.697	805.297	602.491
394.219	17.757	804.636	602.153
395.234	17.638	804.676	601.711
396.248	17.710	804.206	601.560
397.263	17.679	803.181	600.630
398.278	17.611	803.212	600.363
399.292	17.700	802.893	600.383
400.307	17.688	802.541	600.024
401.321	17.661	801.779	599.306
402.336	17.747	801.327	599.217
403.350	17.744	801.009	598.917
404.365	17.882	800.311	598.827
405.380	18.015	799.777	598.839
406.394	18.052	799.370	598.612
407.409	17.858	799.183	597.739
408.423	17.980	798.576	597.659
409.438	18.075	798.195	597.654
410.453	18.024	798.252	597.464
411.467	18.118	797.014	596.815
412.482	18.050	797.456	596.855
413.496	18.073	796.904	596.468
414.511	18.351	795.966	596.682
415.526	18.035	796.068	595.605
416.540	18.122	795.403	595.357
417.555	18.048	795.069	594.796
418.569	18.130	794.756	594.795
419.584	18.189	794.301	594.609
420.599	18.141	793.721	593.953
421.613	115.690	1296.545	1487.428
422.628	99.687	1369.748	1487.517
