DTS Sentinel unit serial number:	SN413079Multiplexer serial number:	ORYXHardware model number:	OX4-SRSoftware version number:	ORYX F/W v4.00 Oryx Data Collector v3.7.2.0data status	okinstallation	princeton_trtdifferential loss correction	single-endedforward channel	channel 1reverse channel	N/Adate	2019/09/18time	21:02:35forward acquisition time	60.00reverse acquisition time	0.00gamma	496.2192k internal	0.2340k external	0.2340temperature offset calibration	1.0035default loss term (dB/km)	0.3790temperature slope calibration	1.0000multiplexer offset coefficient	1.0000multiplexer slope coefficient	1.0000fibre end	0.00T internal ref (°C)	26.44T ext. ref 1 (°C)	1.14T ext. ref 2 (°C)	18.09length (m)	temperature (°C)	Stokes	anti-Stokes-747.200	612.153	0.078	-0.195
-746.185	125.008	-0.128	0.162
-745.171	312.473	-0.040	-0.076
-744.156	48.191	-0.113	0.106
-743.142	-105.583	-0.361	-0.082
-742.127	-200.000	0.019	0.322
-741.112	-200.000	-0.003	-0.150
-740.098	741.083	-0.103	-0.278
-739.083	-200.000	0.000	0.066
-738.069	537.871	-0.126	0.301
-737.054	-67.916	-0.094	-0.037
-736.039	364.400	-0.086	-0.174
-735.025	-127.376	0.256	0.037
-734.010	99.801	0.093	-0.108
-732.996	190.088	0.038	0.057
-731.981	0.107	0.083	0.059
-730.966	-90.102	-0.319	-0.093
-729.952	248.932	0.061	-0.104
-728.937	392.806	-0.103	-0.215
-727.923	800.000	-0.084	0.236
-726.908	-36.813	-0.310	0.167
-725.894	37.680	-0.349	-0.310
-724.879	-63.908	-0.266	-0.109
-723.864	800.000	0.068	-0.225
-722.850	-48.420	0.065	-0.031
-721.835	47.069	-0.007	0.007
-720.821	800.000	0.031	0.128
-719.806	-154.607	-0.080	-0.005
-718.791	-200.000	-0.019	0.246
-717.777	-66.150	-0.129	-0.052
-716.762	59.416	0.070	-0.069
-715.748	-200.000	0.002	0.274
-714.733	452.309	-0.081	-0.178
-713.718	4.055	-0.286	-0.210
-712.704	-113.930	0.100	-0.019
-711.689	-17.805	-0.172	-0.108
-710.675	800.000	-0.071	-0.235
-709.660	-31.550	0.113	-0.064
-708.645	-101.607	-0.055	0.013
-707.631	-94.279	0.209	-0.057
-706.616	800.000	0.033	-0.124
-705.602	-111.230	-0.290	0.059
-704.587	100.729	-0.188	-0.218
-703.572	-126.129	-0.079	0.012
-702.558	800.000	-0.068	-0.253
-701.543	225.181	0.026	-0.042
-700.529	-74.659	-0.038	-0.014
-699.514	70.833	-0.093	0.097
-698.499	-142.659	0.336	0.033
-697.485	141.879	-0.030	-0.040
-696.470	28.495	-0.251	0.212
-695.456	615.001	-0.117	-0.292
-694.441	-200.000	-0.002	-0.030
-693.426	-59.430	-0.075	-0.032
-692.412	140.543	-0.112	-0.148
-691.397	-5.736	0.140	-0.096
-690.383	636.865	0.010	-0.024
-689.368	-184.350	-0.453	0.007
-688.354	167.958	-0.101	0.143
-687.339	-121.296	0.207	-0.035
-686.324	42.208	-0.279	0.253
-685.310	346.708	-0.049	-0.097
-684.295	-89.031	-0.330	-0.098
-683.281	139.074	-0.105	0.137
-682.266	242.506	0.147	0.245
-681.251	-81.837	-0.331	0.108
-680.237	491.773	0.086	0.197
-679.222	-50.379	0.080	-0.038
-678.208	-132.316	-0.249	-0.032
-677.193	-170.731	0.319	-0.011
-676.178	237.595	0.045	0.075
-675.164	800.000	-0.011	0.047
-674.149	-68.537	0.169	-0.065
-673.135	261.265	-0.033	0.057
-672.120	35.954	-0.049	0.043
-671.105	-184.165	0.143	0.002
-670.091	30.048	-0.146	-0.124
-669.076	-86.954	0.282	-0.086
-668.062	-119.747	-0.311	-0.054
-667.047	-22.019	-0.110	0.067
-666.032	291.463	-0.092	0.167
-665.018	-21.397	-0.280	-0.171
-664.003	31.391	0.161	-0.138
-662.989	24.323	0.145	0.119
-661.974	-140.302	0.288	-0.030
-660.959	25.893	-0.162	-0.135
-659.945	-200.000	-0.098	0.432
-658.930	319.006	0.061	0.115
-657.916	-200.000	-0.030	-0.137
-656.901	-158.980	-0.097	-0.005
-655.886	-48.127	0.041	0.020
-654.872	-0.301	0.114	0.081
-653.857	190.855	-0.129	0.193
-652.843	184.993	-0.186	-0.275
-651.828	-200.000	-0.045	-0.216
-650.814	800.000	-0.038	-0.133
-649.799	0.009	-0.159	0.113
-648.784	-101.655	0.217	-0.053
-647.770	800.000	-0.055	-0.181
-646.755	374.193	0.093	-0.189
-645.741	-148.272	0.072	-0.006
-644.726	-180.767	0.292	0.006
-643.711	-200.000	0.048	-0.408
-642.697	-85.699	-0.195	-0.061
-641.682	14.673	-0.242	-0.189
-640.668	446.933	-0.055	0.120
-639.653	-44.603	-0.293	0.146
-638.638	291.383	0.121	0.221
-637.624	-97.873	-0.395	-0.102
-636.609	-146.944	0.138	-0.012
-635.595	-6.696	0.394	-0.268
-634.580	-52.815	-0.401	-0.185
-633.565	18.746	0.096	0.077
-632.551	-120.247	-0.380	-0.065
-631.536	800.000	0.088	0.293
-630.522	129.889	0.086	0.110
-629.507	6.812	0.079	-0.058
-628.492	-89.832	0.172	0.050
-627.478	252.887	0.102	0.173
-626.463	13.451	-0.189	-0.146
-625.449	800.000	-0.045	0.174
-624.434	-114.823	-0.262	-0.050
-623.419	-200.000	0.261	0.001
-622.405	-174.052	-0.569	-0.017
-621.390	-200.000	0.078	0.387
-620.376	-200.000	0.049	-0.252
-619.361	-200.000	-0.009	-0.337
-618.346	-200.000	0.000	-0.030
-617.332	274.304	-0.214	0.377
-616.317	-86.808	0.065	0.020
-615.303	-124.525	0.245	0.038
-614.288	800.000	-0.053	-0.173
-613.273	-40.430	0.293	-0.152
-612.259	-86.040	-0.336	-0.103
-611.244	74.816	-0.107	-0.113
-610.230	-200.000	-0.057	-0.319
-609.215	-54.691	-0.400	-0.180
-608.201	-200.000	-0.021	-0.132
-607.186	295.910	0.118	-0.215
-606.171	-130.134	0.305	-0.041
-605.157	-61.143	-0.155	0.065
-604.142	-78.644	-0.241	-0.082
-603.128	-200.000	-0.016	-0.249
-602.113	-97.852	0.310	-0.080
-601.098	-114.442	0.166	-0.032
-600.084	-75.870	-0.338	0.119
-599.069	-200.000	-0.049	-0.293
-598.055	210.787	0.163	0.256
-597.040	243.109	-0.072	0.120
-596.025	-9.977	-0.008	-0.005
-595.011	-154.650	0.204	0.014
-593.996	-134.842	-0.234	0.028
-592.982	-65.746	-0.561	-0.224
-591.967	-130.957	0.465	0.062
-590.952	-200.000	-0.048	-0.287
-589.938	800.000	0.029	-0.084
-588.923	-200.000	-0.021	-0.159
-587.909	-200.000	-0.014	-0.469
-586.894	-138.776	0.407	0.044
-585.879	598.700	-0.143	0.353
-584.865	-152.767	0.250	0.018
-583.850	75.266	0.162	-0.171
-582.836	385.488	-0.114	-0.235
-581.821	-200.000	0.008	-0.183
-580.806	-138.301	-0.153	0.017
-579.792	-200.000	0.000	-0.186
-578.777	180.147	-0.019	0.028
-577.763	-97.861	-0.171	-0.044
-576.748	-149.791	0.119	-0.009
-575.733	-60.104	-0.339	-0.144
-574.719	188.413	0.011	-0.016
-573.704	-128.390	-0.207	0.029
-572.690	215.059	0.148	-0.234
-571.675	23.630	0.131	-0.107
-570.661	341.735	0.069	0.135
-569.646	438.566	0.107	0.231
-568.631	-156.457	0.083	-0.005
-567.617	-200.000	-0.062	0.374
-566.602	694.826	0.138	-0.360
-565.588	-123.564	0.277	-0.044
-564.573	-107.998	-0.261	0.056
-563.558	-130.384	-0.041	0.005
-562.544	-146.133	-0.214	0.019
-561.529	270.681	0.075	-0.131
-560.515	-124.291	-0.347	0.054
-559.500	-107.424	-0.148	-0.032
-558.485	240.370	0.188	0.311
-557.471	-102.909	-0.088	0.021
-556.456	403.385	-0.083	0.173
-555.442	-140.946	-0.087	0.009
-554.427	-20.115	-0.117	0.072
-553.412	215.635	-0.078	0.123
-552.398	-200.000	-0.040	0.205
-551.383	800.000	-0.070	-0.207
-550.369	178.688	-0.168	-0.244
-549.354	-108.262	0.110	0.024
-548.339	800.000	-0.086	0.243
-547.325	325.884	-0.067	0.128
-546.310	209.889	0.126	-0.197
-545.296	49.787	0.132	0.124
-544.281	453.439	0.089	0.195
-543.266	220.352	0.248	0.395
-542.252	225.112	0.216	0.348
-541.237	133.972	-0.184	-0.238
-540.223	160.411	-0.124	-0.172
-539.208	122.659	0.015	-0.018
-538.193	68.664	0.255	-0.260
-537.179	-53.171	-0.190	-0.087
-536.164	-81.659	-0.152	0.050
-535.150	599.676	0.157	0.389
-534.135	2.333	-0.075	-0.054
-533.121	800.000	0.087	-0.366
-532.106	78.090	-0.106	0.113
-531.091	356.659	0.089	-0.176
-530.077	135.753	0.196	0.253
-529.062	7.782	0.206	0.153
-528.048	-200.000	0.025	0.198
-527.033	-162.634	-0.125	0.006
-526.018	800.000	-0.107	0.323
-525.004	-192.786	-0.049	0.000
-523.989	-77.765	-0.256	0.088
-522.975	321.365	0.141	-0.266
-521.960	167.485	0.321	0.454
-520.945	-200.000	-0.004	-0.043
-519.931	-200.000	0.026	0.159
-518.916	32.417	-0.224	-0.193
-517.902	-200.000	0.046	0.352
-516.887	30.572	0.194	-0.165
-515.872	-154.696	0.141	-0.009
-514.858	383.769	0.167	0.341
-513.843	486.837	-0.053	0.121
-512.829	25.653	0.182	0.150
-511.814	-98.183	0.418	0.107
-510.799	-133.852	-0.115	-0.014
-509.785	-138.252	0.022	0.002
-508.770	37.032	0.175	-0.154
-507.756	500.287	-0.029	-0.067
-506.741	800.000	-0.061	0.183
-505.726	-83.470	-0.205	0.065
-504.712	-200.000	-0.046	0.211
-503.697	107.609	-0.106	0.126
-502.683	-178.265	0.140	-0.003
-501.668	386.771	-0.035	-0.072
-500.653	-78.448	-0.309	0.105
-499.639	257.081	0.159	-0.272
-498.624	-86.888	-0.210	-0.064
-497.610	416.713	-0.142	0.300
-496.595	-187.809	0.183	0.002
-495.581	210.743	-0.163	0.255
-494.566	-131.868	-0.327	-0.042
-493.551	60.120	0.166	0.162
-492.537	-200.000	0.022	-0.099
-491.522	-3.525	-0.074	-0.051
-490.508	-12.297	0.269	-0.175
-489.493	0.832	-0.132	0.094
-488.478	-27.704	-0.071	0.041
-487.464	-43.990	-0.316	-0.158
-486.449	20.795	-0.052	-0.042
-485.435	197.571	-0.086	0.131
-484.420	-94.305	-0.132	-0.036
-483.405	157.072	0.068	-0.094
-482.391	-136.912	-0.057	-0.007
-481.376	-182.373	-0.306	-0.006
-480.362	-27.355	0.354	0.204
-479.347	-39.546	-0.268	-0.139
-478.332	418.233	-0.030	0.064
-477.318	-41.317	0.276	-0.141
-476.303	-200.000	-0.004	-0.099
-475.289	-174.339	-0.058	0.002
-474.274	-149.730	0.099	-0.008
-473.259	58.164	0.149	-0.145
-472.245	417.983	0.141	0.299
-471.230	-23.172	0.111	0.066
-470.216	800.000	-0.029	-0.080
-469.201	-18.740	0.183	0.113
-468.186	35.776	-0.070	-0.061
-467.172	-60.674	-0.155	0.065
-466.157	-200.000	0.056	0.415
-465.143	-101.051	0.330	-0.080
-464.128	-200.000	0.084	-0.428
-463.113	-34.889	0.095	-0.051
-462.099	602.430	-0.052	-0.127
-461.084	-129.837	-0.638	0.087
-460.070	104.250	0.127	0.148
-459.055	800.000	-0.025	-0.070
-458.040	-76.569	0.315	-0.110
-457.026	721.702	-0.072	0.191
-456.011	800.000	-0.171	0.509
-454.997	-91.426	-0.367	-0.104
-453.982	-49.017	0.101	-0.048
-452.968	-126.373	-0.319	0.047
-451.953	197.834	0.327	0.495
-450.938	-200.000	-0.038	0.277
-449.924	-59.773	-0.125	-0.053
-448.909	50.253	0.221	-0.207
-447.895	-200.000	-0.011	-0.189
-446.880	-99.664	0.113	0.028
-445.865	102.328	-0.115	0.134
-444.851	289.608	0.170	0.306
-443.836	-200.000	0.004	0.031
-442.822	38.581	0.106	0.093
-441.807	55.487	0.292	0.280
-440.792	-109.678	0.242	0.051
-439.778	-200.000	-0.023	-0.130
-438.763	-200.000	0.024	0.203
-437.749	800.000	-0.036	-0.155
-436.734	800.000	0.097	-0.274
-435.719	142.742	-0.149	-0.196
-434.705	-98.757	-0.323	0.082
-433.690	-86.750	-0.041	-0.012
-432.676	70.354	0.247	-0.253
-431.661	-200.000	0.036	-0.237
-430.646	678.279	0.159	0.411
-429.632	-122.559	0.037	-0.006
-428.617	-82.872	-0.020	0.006
-427.603	104.843	0.138	0.161
-426.588	-104.758	0.099	0.023
-425.573	800.000	0.038	-0.111
-424.559	119.328	0.114	0.140
-423.544	-195.909	-0.253	-0.002
-422.530	-32.810	0.114	0.063
-421.515	800.000	0.024	0.093
-420.500	267.723	0.079	0.138
-419.486	-59.574	0.117	-0.050
-418.471	196.365	0.077	-0.116
-417.457	111.631	0.168	-0.200
-416.442	42.736	0.302	0.272
-415.428	28.384	0.151	-0.127
-414.413	99.026	-0.117	-0.134
-413.398	-200.000	-0.018	0.213
-412.384	87.890	-0.160	0.175
-411.369	26.958	0.099	-0.082
-410.355	157.363	-0.093	0.127
-409.340	108.664	0.090	0.106
-408.325	-160.427	-0.276	-0.015
-407.311	47.986	-0.105	0.097
-406.296	-94.831	0.193	-0.052
-405.282	229.046	-0.080	-0.129
-404.267	-158.847	-0.171	0.010
-403.252	169.083	-0.189	-0.266
-402.238	-200.000	-0.019	0.260
-401.223	-102.906	-0.270	-0.063
-400.209	-200.000	0.017	0.113
-399.194	-43.797	0.423	0.211
-398.179	-200.000	0.042	-0.275
-397.165	-100.460	0.034	-0.008
-396.150	800.000	-0.109	0.374
-395.136	323.519	-0.172	0.324
-394.121	49.272	-0.017	-0.016
-393.106	69.219	0.258	0.263
-392.092	261.539	-0.241	0.412
-391.077	-57.429	-0.019	0.008
-390.063	-36.210	0.316	-0.169
-389.048	-198.603	-0.240	0.001
-388.033	230.855	-0.122	0.197
-387.019	151.540	-0.105	-0.142
-386.004	800.000	0.036	0.111
-384.990	-47.622	-0.360	0.173
-383.975	-200.000	-0.026	0.375
-382.960	-26.388	-0.405	0.235
-381.946	106.594	0.290	-0.340
-380.931	-66.386	-0.027	0.011
-379.917	800.000	0.037	0.137
-378.902	-200.000	-0.001	-0.207
-377.888	22.055	0.061	-0.050
-376.873	375.381	0.172	-0.346
-375.858	75.252	0.052	-0.054
-374.844	-103.498	0.146	0.034
-373.829	800.000	-0.052	-0.146
-372.815	-200.000	-0.034	-0.258
-371.800	98.462	-0.069	-0.079
-370.785	-132.257	-0.102	0.013
-369.771	36.650	-0.153	0.134
-368.756	276.193	0.241	-0.423
-367.742	232.320	-0.162	-0.263
-366.727	73.967	0.059	-0.061
-365.712	27.700	0.150	0.125
-364.698	49.422	-0.150	-0.139
-363.683	41.193	0.157	-0.140
-362.669	671.532	-0.110	-0.282
-361.654	-57.751	-0.182	-0.079
-360.639	800.000	0.017	-0.070
-359.625	-38.193	-0.204	-0.107
-358.610	-48.045	0.068	0.032
-357.596	-78.105	-0.304	-0.103
-356.581	800.000	-0.116	-0.329
-355.566	-95.587	0.162	-0.043
-354.552	-162.365	-0.466	-0.023
-353.537	-21.866	0.232	-0.139
-352.523	-4.086	-0.266	-0.182
-351.508	800.000	0.117	0.458
-350.493	-76.054	-0.117	0.041
-349.479	462.329	0.124	-0.272
-348.464	800.000	-0.070	0.233
-347.450	78.098	0.183	0.192
-346.435	-42.771	-0.244	0.123
-345.420	-135.427	-0.075	-0.009
-344.406	126.670	-0.174	0.217
-343.391	99.768	-0.037	0.042
-342.377	19.428	-0.218	-0.173
-341.362	-15.039	-0.245	0.155
-340.348	101.355	-0.110	0.127
-339.333	-43.274	-0.122	-0.061
-338.318	792.287	-0.113	-0.306
-337.304	323.535	-0.178	-0.336
-336.289	183.450	0.166	-0.243
-335.275	118.551	-0.167	0.203
-334.260	-100.423	0.176	-0.043
-333.245	800.000	-0.043	-0.168
-332.231	-200.000	0.051	0.316
-331.216	-72.365	0.197	0.072
-330.202	-113.822	0.152	0.029
-329.187	-79.034	-0.141	0.047
-328.172	380.468	0.176	0.355
-327.158	547.579	0.045	0.107
-326.143	-87.363	-0.471	-0.141
-325.129	800.000	0.044	-0.162
-324.114	-140.669	-0.186	0.019
-323.099	428.299	0.127	-0.270
-322.085	12.250	0.204	0.155
-321.070	121.250	0.099	0.122
-320.056	-200.000	0.070	0.320
-319.041	-82.208	-0.218	0.070
-318.026	178.846	0.174	0.250
-317.012	-79.602	0.185	-0.061
-315.997	177.664	-0.044	0.064
-314.983	-200.000	-0.021	0.203
-313.968	23.077	-0.211	-0.170
-312.953	245.824	0.191	-0.317
-311.939	800.000	0.032	-0.125
-310.924	6.687	-0.263	-0.193
-309.910	415.700	-0.046	-0.097
-308.895	309.641	-0.101	-0.186
-307.880	84.540	-0.149	0.161
-306.866	18.996	-0.234	-0.185
-305.851	282.764	-0.182	-0.321
-304.837	-200.000	0.049	0.327
-303.822	-6.274	0.270	0.181
-302.807	-98.633	-0.293	0.074
-301.793	-74.754	0.107	0.038
-300.778	27.351	0.061	-0.051
-299.764	-200.000	0.037	-0.413
-298.749	172.298	0.040	-0.056
-297.735	-200.000	0.014	0.123
-296.720	-142.187	0.239	0.023
-295.705	-200.000	0.045	-0.248
-294.691	425.866	0.200	-0.425
-293.676	27.805	0.106	0.088
-292.662	273.478	-0.170	-0.296
-291.647	57.732	0.063	-0.061
-290.632	-144.179	0.285	-0.026
-289.618	-97.300	-0.259	0.066
-288.603	-1.365	-0.141	-0.098
-287.589	-78.775	0.219	0.074
-286.574	-200.000	0.016	-0.261
-285.559	20.861	-0.138	0.110
-284.545	129.190	0.134	0.169
-283.530	800.000	-0.059	0.168
-282.516	-15.767	-0.304	-0.191
-281.501	-86.226	0.054	0.016
-280.486	800.000	0.085	0.238
-279.472	-200.000	-0.009	0.119
-278.457	-66.071	0.042	0.017
-277.443	45.841	-0.103	-0.094
-276.428	-49.902	0.160	0.075
-275.413	86.712	-0.096	0.104
-274.399	-132.984	0.126	-0.016
-273.384	-200.000	0.014	0.268
-272.370	-7.999	0.507	-0.337
-271.355	-200.000	-0.014	0.088
-270.340	800.000	-0.054	0.162
-269.326	-83.480	-0.258	-0.081
-268.311	5.733	0.191	-0.139
-267.297	240.180	-0.236	-0.386
-266.282	-103.392	0.279	-0.065
-265.267	358.714	-0.054	0.107
-264.253	-144.933	-0.266	0.024
-263.238	800.000	0.138	-0.542
-262.224	372.586	-0.113	-0.226
-261.209	-111.934	-0.203	-0.040
-260.195	-3.492	-0.187	-0.128
-259.180	90.585	0.150	-0.165
-258.165	-24.016	-0.502	-0.295
-257.151	-200.000	0.030	0.136
-256.136	-200.000	0.013	0.079
-255.122	635.943	0.070	0.174
-254.107	145.563	-0.215	0.284
-253.092	124.094	0.070	-0.087
-252.078	11.078	-0.082	0.061
-251.063	800.000	0.060	-0.192
-250.049	-13.591	0.266	-0.170
-249.034	-26.124	-0.114	0.066
-248.019	-100.863	-0.127	0.031
-247.005	409.169	0.167	-0.347
-245.990	-168.531	-0.472	0.018
-244.976	-200.000	-0.023	0.197
-243.961	701.602	0.072	0.186
-242.946	-200.000	0.036	-0.240
-241.932	6.788	0.186	-0.136
-240.917	50.898	-0.169	0.158
-239.903	-200.000	-0.039	0.201
-238.888	273.635	-0.097	-0.168
-237.873	-31.977	0.070	-0.039
-236.859	-33.888	0.285	-0.154
-235.844	23.067	-0.186	-0.150
-234.830	81.677	0.062	0.066
-233.815	399.584	0.145	-0.299
-232.800	86.473	0.125	0.136
-231.786	149.408	0.213	-0.283
-230.771	800.000	-0.098	-0.381
-229.757	800.000	0.046	0.144
-228.742	-12.227	-0.139	0.090
-227.727	-88.092	0.344	-0.101
-226.713	800.000	-0.028	0.109
-225.698	-147.160	0.301	0.025
-224.684	-79.425	0.161	0.054
-223.669	-181.824	0.475	0.009
-222.655	9.289	0.101	0.075
-221.640	-187.370	0.110	-0.001
-220.625	-27.649	-0.211	0.121
-219.611	724.507	-0.043	-0.113
-218.596	800.000	-0.090	-0.316
-217.582	10.223	-0.099	-0.074
-216.567	26.447	0.227	0.186
-215.552	-200.000	-0.004	0.092
-214.538	146.604	0.179	0.237
-213.523	-135.722	0.180	-0.021
-212.509	-117.428	0.491	0.087
-211.494	42.554	-0.064	-0.057
-210.479	-200.000	0.039	0.190
-209.465	119.172	0.191	0.232
-208.450	-200.000	0.053	0.280
-207.436	-30.210	-0.227	-0.127
-206.421	800.000	0.085	0.275
-205.406	-51.465	-0.221	-0.101
-204.392	-63.502	0.198	-0.080
-203.377	45.160	0.137	-0.124
-202.363	0.079	-0.082	-0.057
-201.348	-29.808	0.087	-0.049
-200.333	800.000	-0.060	-0.185
-199.319	-200.000	-0.002	-0.022
-198.304	660.637	0.084	-0.212
-197.290	-200.000	-0.000	-0.104
-196.275	252.189	0.106	0.176
-195.260	20.007	0.242	0.191
-194.246	800.000	-0.119	-0.336
-193.231	-39.713	0.178	0.091
-192.217	-143.305	0.382	-0.036
-191.202	-105.963	0.163	-0.036
-190.187	-91.729	0.339	-0.094
-189.173	-110.529	0.338	-0.069
-188.158	265.530	0.048	0.082
-187.144	-39.051	-0.347	-0.179
-186.129	375.965	-0.074	-0.149
-185.114	-136.498	-0.188	-0.021
-184.100	-200.000	-0.013	0.182
-183.085	11.069	-0.189	-0.142
-182.071	-64.236	0.152	0.061
-181.056	169.838	-0.121	0.170
-180.042	800.000	-0.063	0.240
-179.027	40.192	0.183	0.161
-178.012	741.414	0.086	-0.227
-176.998	-151.396	-0.458	-0.033
-175.983	238.510	-0.204	0.332
-174.969	-200.000	-0.022	-0.105
-173.954	-33.471	0.152	0.082
-172.939	70.933	-0.105	-0.107
-171.925	-200.000	-0.018	0.089
-170.910	-96.839	-0.264	0.068
-169.896	159.619	0.118	0.161
-168.881	-84.680	0.228	0.070
-167.866	-200.000	0.009	0.306
-166.852	5.185	-0.193	-0.140
-165.837	-117.459	-0.106	-0.019
-164.823	800.000	-0.028	0.084
-163.808	800.000	0.123	0.470
-162.793	-87.793	0.323	-0.095
-161.779	573.671	0.090	0.216
-160.764	-200.000	0.014	0.152
-159.750	469.905	0.170	0.374
-158.735	800.000	-0.071	-0.231
-157.720	-96.223	-0.150	0.039
-156.706	-79.696	0.258	-0.085
-155.691	-14.177	0.234	0.148
-154.677	-184.514	-0.335	-0.005
-153.662	-16.680	-0.161	-0.100
-152.647	119.736	0.174	0.212
-151.633	-98.688	0.189	-0.047
-150.618	47.868	-0.205	-0.188
-149.604	64.281	0.231	-0.228
-148.589	-123.870	-0.228	-0.035
-147.574	85.169	-0.115	0.124
-146.560	-200.000	-0.011	0.300
-145.545	-200.000	-0.006	0.138
-144.531	107.935	0.119	0.139
-143.516	-200.000	0.010	0.050
-142.502	-200.000	0.018	-0.243
-141.487	344.537	-0.169	-0.324
-140.472	81.246	0.212	0.224
-139.458	2.323	0.026	-0.018
-138.443	-84.170	0.261	-0.081
-137.429	-200.000	-0.007	-0.080
-136.414	393.485	-0.103	-0.211
-135.399	450.458	0.077	-0.167
-134.385	257.714	-0.097	0.163
-133.370	71.629	-0.068	0.069
-132.356	205.060	-0.123	-0.187
-131.341	-125.556	0.122	-0.018
-130.326	800.000	0.032	-0.108
-129.312	800.000	0.021	0.088
-128.297	-43.033	0.272	0.135
-127.283	30.634	0.088	-0.074
-126.268	-134.298	-0.355	0.043
-125.253	368.159	0.161	-0.318
-124.239	800.000	-0.033	-0.089
-123.224	152.821	0.206	-0.276
-122.210	-120.807	0.031	0.005
-121.195	438.251	0.078	-0.167
-120.180	777.984	0.073	0.196
-119.166	800.000	-0.061	0.185
-118.151	-13.502	0.208	-0.132
-117.137	-200.000	0.022	0.284
-116.122	619.462	0.079	-0.194
-115.107	-139.225	-0.151	0.016
-114.093	-200.000	-0.029	0.205
-113.078	-57.493	0.069	0.030
-112.064	97.760	0.133	0.149
-111.049	-87.555	0.065	-0.019
-110.034	-161.494	0.278	0.014
-109.020	18.367	0.215	0.168
-108.005	-200.000	-0.041	0.326
-106.991	-46.451	0.251	0.120
-105.976	4.333	0.253	0.181
-104.962	140.148	0.098	0.126
-103.947	800.000	-0.074	0.202
-102.932	-46.538	-0.360	0.172
-101.918	446.110	0.022	0.047
-100.903	222.779	0.080	-0.127
-99.889	-200.000	0.020	0.109
-98.874	67.293	0.181	0.181
-97.859	-200.000	0.042	0.235
-96.845	142.197	0.273	-0.355
-95.830	662.396	-0.027	-0.068
-94.816	-58.584	0.263	0.112
-93.801	291.913	-0.179	0.319
-92.786	278.844	0.199	-0.347
-91.772	320.017	0.060	0.112
-90.757	-122.476	-0.149	0.024
-89.743	800.000	0.055	0.209
-88.728	150.661	0.159	0.211
-87.713	-200.000	0.028	0.228
-86.699	-98.053	0.147	0.037
-85.684	-104.718	0.106	-0.024
-84.670	-170.714	0.330	0.011
-83.655	74.334	0.147	0.151
-82.640	172.995	0.115	0.161
-81.626	-23.785	-0.256	-0.149
-80.611	-99.977	0.248	-0.060
-79.597	172.976	0.198	0.279
-78.582	-137.393	0.240	-0.027
-77.567	-15.769	-0.100	0.062
-76.553	-64.791	0.145	-0.057
-75.538	26.755	-0.139	0.114
-74.524	15.666	0.270	-0.207
-73.509	83.775	0.143	-0.152
-72.494	-86.442	0.201	0.060
-71.480	-88.726	-0.104	-0.030
-70.465	323.917	0.193	-0.359
-69.451	186.208	0.070	0.102
-68.436	-200.000	0.009	-0.338
-67.422	800.000	-0.111	0.334
-66.407	134.529	-0.238	0.301
-65.392	-131.097	-0.091	-0.012
-64.378	95.253	-0.149	0.166
-63.363	-200.000	0.016	0.254
-62.349	412.479	0.027	0.057
-61.334	54.501	-1.220	-1.147
-60.319	-23.878	0.870	0.508
-59.305	319.061	-0.546	-1.010
-58.290	127.828	1.059	1.313
-57.276	411.764	0.724	1.499
-56.261	-200.000	117.266	627.409
-55.246	435.020	1516.002	3216.256
-54.232	149.642	2671.977	3532.316
-53.217	99.969	2128.476	2406.689
-52.203	37.565	1573.181	1361.799
-51.188	29.935	1318.206	1096.069
-50.173	26.983	1280.243	1047.460
-49.159	51.649	1342.690	1245.470
-48.144	50.159	1356.053	1248.991
-47.130	29.764	1307.808	1086.246
-46.115	26.592	1288.895	1052.100
-45.100	26.456	1283.983	1047.259
-44.086	26.318	1281.342	1044.265
-43.071	26.302	1279.250	1042.429
-42.057	26.189	1277.731	1040.499
-41.042	26.310	1275.287	1039.165
-40.027	26.237	1274.363	1037.949
-39.013	26.311	1272.334	1036.679
-37.998	26.258	1270.656	1034.971
-36.984	26.502	1268.873	1034.872
-35.969	26.420	1267.330	1033.104
-34.954	26.491	1265.274	1031.792
-33.940	26.451	1264.274	1030.709
-32.925	26.500	1263.257	1030.117
-31.911	26.502	1261.416	1028.583
-30.896	26.528	1259.835	1027.404
-29.881	26.535	1258.908	1026.645
-28.867	26.570	1257.248	1025.449
-27.852	26.659	1255.801	1024.731
-26.838	26.428	1254.707	1022.493
-25.823	26.514	1253.464	1021.927
-24.809	26.378	1252.394	1020.248
-23.794	26.413	1250.982	1019.253
-22.779	26.529	1249.771	1018.879
-21.765	26.504	1248.496	1017.660
-20.750	26.474	1247.025	1016.249
-19.736	26.500	1245.883	1015.424
-18.721	26.411	1244.948	1014.120
-17.706	26.407	1243.935	1013.237
-16.692	26.427	1242.501	1012.137
-15.677	26.430	1241.000	1010.891
-14.663	26.430	1239.886	1009.944
-13.648	26.269	1239.461	1008.660
-12.633	26.493	1237.575	1008.334
-11.619	26.404	1237.554	1007.780
-10.604	26.426	1236.445	1006.959
-9.590	26.425	1235.203	1005.903
-8.575	26.456	1234.474	1005.440
-7.560	26.440	1233.843	1004.796
-6.546	26.322	1232.888	1003.324
-5.531	26.284	1232.294	1002.592
-4.517	26.412	1231.364	1002.505
-3.502	26.404	1230.485	1001.706
-2.487	26.393	1229.379	1000.703
-1.473	26.194	1225.218	996.178
-0.458	24.322	1209.450	973.117
0.556	19.300	1191.940	930.117
1.571	14.929	1197.572	910.678
2.586	13.843	1212.429	915.905
3.600	13.779	1200.222	906.254
4.615	10.444	1131.030	836.744
5.629	4.262	1061.258	755.031
6.644	1.270	1044.060	728.387
7.659	1.129	1041.896	726.138
8.673	1.080	1041.428	725.511
9.688	1.081	1040.025	724.476
10.702	1.282	1037.576	723.665
11.717	4.890	1042.102	744.012
12.731	11.995	1050.984	784.404
13.746	16.670	1056.338	810.772
14.761	17.798	1057.316	816.856
15.775	17.060	1055.609	811.937
16.790	15.866	1054.070	804.972
17.804	15.164	1052.757	800.547
18.819	14.910	1051.329	798.176
19.834	14.776	1050.077	796.519
20.848	14.425	1049.660	794.457
21.863	14.259	1048.372	792.622
22.877	14.081	1047.731	791.220
23.892	14.081	1047.286	790.812
24.907	14.047	1046.741	790.171
25.921	14.103	1045.782	789.642
26.936	14.148	1045.174	789.329
27.950	14.116	1044.038	788.249
28.965	14.138	1043.032	787.523
29.980	14.405	1040.963	787.153
30.994	14.288	1040.789	786.399
32.009	14.461	1039.541	786.204
33.023	14.349	1038.503	784.820
34.038	14.250	1037.671	783.655
35.053	14.198	1037.235	783.014
36.067	14.332	1036.035	782.665
37.082	14.160	1035.458	781.355
38.096	14.174	1034.824	780.874
39.111	14.288	1033.569	780.390
40.126	14.223	1032.399	779.135
41.140	14.098	1031.562	777.850
42.155	14.033	1030.305	776.528
43.169	13.950	1029.388	775.382
44.184	14.044	1028.386	774.996
45.199	13.983	1027.209	773.757
46.213	14.064	1026.311	773.386
47.228	14.139	1025.132	772.782
48.242	14.326	1023.853	772.613
49.257	14.192	1022.964	771.256
50.271	14.142	1022.413	770.537
51.286	14.230	1021.553	770.232
52.301	14.170	1020.409	769.024
53.315	14.144	1019.347	768.032
54.330	14.151	1018.456	767.329
55.344	14.000	1017.708	766.001
56.359	14.122	1016.701	765.736
57.374	14.082	1015.762	764.775
58.388	13.999	1015.031	763.778
59.403	14.036	1014.404	763.409
60.417	14.002	1013.841	762.760
61.432	14.103	1012.816	762.387
62.447	13.942	1011.925	760.909
63.461	14.022	1011.022	760.528
64.476	14.009	1010.266	759.832
65.490	13.892	1010.113	759.118
66.505	14.145	1008.831	759.241
67.520	14.216	1008.066	758.920
68.534	14.006	1007.550	757.508
69.549	14.049	1006.948	757.185
70.563	13.994	1006.158	756.276
71.578	13.894	1005.502	755.258
72.593	13.968	1004.857	755.043
73.607	14.040	1004.165	754.782
74.622	14.052	1003.377	754.179
75.636	13.954	1002.774	753.213
76.651	13.990	1001.279	752.188
77.666	13.979	1001.062	751.910
78.680	14.114	1000.195	751.801
79.695	14.095	999.453	751.090
80.709	14.005	999.379	750.565
81.724	14.125	998.338	750.257
82.739	14.116	998.029	749.918
83.753	14.111	997.402	749.356
84.768	14.224	996.202	748.897
85.782	14.279	995.302	748.403
86.797	14.185	994.153	747.052
87.812	14.048	993.813	746.115
88.826	14.137	992.389	745.378
89.841	14.131	991.912	744.928
90.855	14.121	990.815	743.992
91.870	14.108	989.982	743.241
92.884	14.269	988.985	743.147
93.899	14.287	988.116	742.506
94.914	14.399	987.172	742.230
95.928	14.247	987.021	741.378
96.943	14.245	985.706	740.315
97.957	14.232	984.840	739.541
98.972	14.209	983.923	738.684
99.987	14.202	983.223	738.061
101.001	14.263	982.677	737.855
102.016	14.171	981.442	736.459
103.030	14.242	980.694	736.145
104.045	14.267	979.755	735.484
105.060	14.216	979.256	734.820
106.074	14.104	978.477	733.676
107.089	14.151	977.127	732.809
108.103	14.167	976.390	732.258
109.118	14.173	975.413	731.488
110.133	14.194	974.617	730.921
111.147	14.153	973.931	730.162
112.162	14.275	972.967	729.907
113.176	14.290	972.283	729.397
114.191	14.305	971.501	728.810
115.206	14.275	970.850	728.126
116.220	14.208	970.361	727.401
117.235	14.170	969.248	726.336
118.249	14.172	968.454	725.689
119.264	14.199	967.421	724.967
120.279	14.226	966.791	724.550
121.293	14.273	965.745	723.905
122.308	14.133	965.227	722.844
123.322	14.065	964.828	722.185
124.337	14.212	963.321	721.630
125.352	14.229	961.916	720.588
126.366	14.128	960.994	719.398
127.381	14.367	959.837	719.500
128.395	14.085	959.387	717.880
129.410	14.173	958.325	717.402
130.424	14.157	957.845	716.909
131.439	14.203	957.126	716.507
132.454	14.164	956.328	715.680
133.468	14.381	955.106	715.632
134.483	14.192	954.437	714.258
135.497	14.285	953.594	713.963
136.512	14.362	952.356	713.301
137.527	14.396	951.397	712.664
138.541	14.280	951.476	712.168
139.556	14.284	950.471	711.369
140.570	14.375	949.989	711.332
141.585	14.393	949.041	710.636
142.600	14.496	947.709	710.017
143.614	14.370	947.436	709.212
144.629	14.455	946.460	708.779
145.643	14.554	945.350	708.306
146.658	14.269	944.993	706.768
147.673	14.250	943.930	705.826
148.687	14.401	943.118	705.799
149.702	14.340	942.307	704.872
150.716	14.276	941.281	703.772
151.731	14.361	940.732	703.656
152.746	14.398	939.816	703.065
153.760	14.365	939.078	702.312
154.775	14.439	938.936	702.453
155.789	14.438	937.760	701.511
156.804	14.544	937.207	701.478
157.819	14.674	936.571	701.489
158.833	14.587	936.432	700.955
159.848	14.625	935.133	700.079
160.862	14.613	934.429	699.442
161.877	14.456	933.618	698.114
162.892	14.428	932.401	697.024
163.906	14.540	931.373	696.665
164.921	14.462	930.861	695.893
165.935	14.480	930.068	695.314
166.950	14.587	929.010	694.906
167.964	14.522	928.224	693.987
168.979	14.434	927.660	693.140
169.994	14.557	926.324	692.590
171.008	14.517	926.155	692.238
172.023	14.647	924.945	691.809
173.037	14.677	924.554	691.581
174.052	14.678	923.748	690.919
175.067	14.598	923.242	690.148
176.081	14.568	922.496	689.408
177.096	14.683	921.952	689.413
178.110	14.695	921.527	689.084
179.125	14.633	920.632	688.099
180.140	14.701	920.643	688.325
181.154	14.872	919.771	688.319
182.169	14.711	919.685	687.531
183.183	14.809	918.790	687.201
184.198	14.864	917.957	686.744
185.213	14.805	917.056	685.769
186.227	14.834	916.584	685.475
187.242	14.974	915.797	685.397
188.256	14.972	915.184	684.869
189.271	14.894	915.052	684.392
190.286	14.860	914.049	683.442
191.300	14.800	913.271	682.555
192.315	14.759	912.526	681.768
193.329	14.759	912.030	681.341
194.344	14.755	911.463	680.837
195.359	14.896	910.646	680.743
196.373	14.862	910.258	680.255
197.388	14.908	910.138	680.290
198.402	14.930	909.366	679.742
199.417	14.976	908.589	679.290
200.432	14.919	908.192	678.702
201.446	15.010	907.664	678.615
202.461	15.171	906.930	678.658
203.475	15.140	906.589	678.218
204.490	15.069	905.894	677.349
205.504	15.102	904.809	676.614
206.519	15.117	904.595	676.452
207.534	14.982	903.650	675.143
208.548	15.105	902.831	674.967
209.563	15.108	902.568	674.724
210.577	15.082	901.728	673.930
211.592	15.288	900.836	674.032
212.607	15.210	900.208	673.188
213.621	15.239	899.773	672.919
214.636	15.194	899.061	672.148
215.650	15.150	898.183	671.255
216.665	15.268	897.337	671.036
217.680	15.374	896.787	670.991
218.694	15.436	896.047	670.626
219.709	15.231	895.647	669.446
220.723	15.256	894.622	668.724
221.738	15.320	894.251	668.640
222.753	15.387	893.381	668.197
223.767	15.475	892.859	668.099
224.782	15.482	892.491	667.793
225.796	15.360	892.039	666.911
226.811	15.518	891.131	666.799
227.826	15.536	890.584	666.403
228.840	15.394	889.730	665.142
229.855	15.395	888.999	664.540
230.869	15.264	888.523	663.606
231.884	15.310	887.700	663.114
232.899	15.511	886.788	663.170
233.913	15.379	886.373	662.280
234.928	15.513	885.524	662.116
235.942	15.538	885.133	661.863
236.957	15.480	884.697	661.249
237.972	15.420	884.104	660.512
238.986	15.440	883.508	660.085
240.001	15.532	882.526	659.654
241.015	15.533	882.031	659.230
242.030	15.605	881.374	658.963
243.045	15.632	880.728	658.529
244.059	15.473	880.409	657.610
245.074	15.537	879.678	657.255
246.088	15.653	878.576	656.826
247.103	15.615	878.280	656.400
248.117	15.593	877.917	655.986
249.132	15.914	876.892	656.410
250.147	15.828	876.370	655.628
251.161	15.801	875.970	655.164
252.176	15.759	875.459	654.560
253.190	15.948	874.102	654.222
254.205	15.809	873.662	653.295
255.220	15.919	873.187	653.310
256.234	16.026	872.548	653.188
257.249	15.988	872.076	652.631
258.263	15.957	871.140	651.753
259.278	16.018	870.245	651.262
260.293	15.971	869.948	650.799
261.307	16.076	869.404	650.739
262.322	16.006	869.033	650.135
263.336	16.296	867.822	650.291
264.351	16.142	867.219	649.186
265.366	16.036	866.644	648.290
266.380	16.147	866.106	648.258
267.395	16.138	865.468	647.687
268.409	16.088	865.007	647.096
269.424	16.066	864.179	646.333
270.439	16.096	863.207	645.664
271.453	16.077	862.619	645.094
272.468	16.132	862.289	645.000
273.482	16.049	861.879	644.320
274.497	16.376	860.876	644.763
275.512	16.188	860.296	643.551
276.526	16.191	859.576	642.970
277.541	16.231	859.589	643.075
278.555	16.366	858.381	642.626
279.570	16.434	857.431	642.118
280.585	16.391	856.827	641.444
281.599	16.373	856.518	641.090
282.614	16.333	855.605	640.198
283.628	16.471	855.226	640.381
284.643	16.353	854.726	639.500
285.657	16.463	854.061	639.365
286.672	16.340	853.535	638.449
287.687	16.414	852.856	638.162
288.701	16.365	852.414	637.590
289.716	16.422	851.988	637.430
290.730	16.380	851.406	636.779
291.745	16.482	850.779	636.639
292.760	16.525	849.964	636.136
293.774	16.596	849.098	635.698
294.789	16.564	848.771	635.276
295.803	16.681	847.997	635.080
296.818	16.431	847.565	633.762
297.833	16.626	846.695	633.786
298.847	16.476	846.421	632.965
299.862	16.749	845.548	633.277
300.876	16.546	845.263	632.248
301.891	16.590	844.724	631.954
302.906	16.614	843.991	631.436
303.920	16.727	843.500	631.436
304.935	16.692	843.036	630.903
305.949	16.863	842.334	630.956
306.964	16.792	841.884	630.302
307.979	16.751	841.346	629.690
308.993	16.840	840.444	629.292
310.008	16.863	839.971	628.964
311.022	16.919	838.916	628.327
312.037	16.743	838.871	627.586
313.052	16.818	837.924	627.101
314.066	16.854	837.774	627.066
315.081	16.841	837.067	626.434
316.095	16.782	836.576	625.792
317.110	16.731	836.149	625.226
318.125	16.838	835.850	625.344
319.139	16.810	835.359	624.819
320.154	16.953	834.393	624.566
321.168	16.946	834.246	624.375
322.183	16.947	833.362	623.662
323.197	16.901	833.236	623.343
324.212	16.856	832.331	622.448
325.227	16.956	832.011	622.521
326.241	16.852	831.448	621.663
327.256	16.926	830.664	621.293
328.270	17.064	830.034	621.272
329.285	17.025	829.674	620.802
330.300	17.121	828.901	620.522
331.314	17.027	828.293	619.667
332.329	17.060	827.837	619.393
333.343	16.945	827.857	618.931
334.358	17.039	827.437	618.906
335.373	17.157	826.902	618.881
336.387	16.958	827.178	618.306
337.402	17.026	826.766	618.193
338.416	17.194	825.985	618.166
339.431	17.188	825.466	617.700
340.446	17.289	825.029	617.687
341.460	17.160	825.111	617.223
342.475	17.248	824.381	616.943
343.489	17.292	823.565	616.435
344.504	17.333	823.390	616.400
345.519	17.294	823.249	616.098
346.533	17.488	822.114	615.896
347.548	17.503	821.735	615.613
348.562	17.321	821.437	614.679
349.577	17.317	820.736	614.084
350.592	17.288	820.048	613.411
351.606	17.261	819.811	613.081
352.621	17.357	818.481	612.379
353.635	17.323	818.113	611.927
354.650	17.426	817.271	611.612
355.665	17.406	816.714	611.070
356.679	17.374	816.328	610.611
357.694	17.500	815.745	610.573
358.708	17.439	815.151	609.857
359.723	17.551	814.521	609.732
360.738	17.479	813.989	609.021
361.752	17.575	813.357	608.840
362.767	17.639	813.106	608.825
363.781	17.516	812.646	607.989
364.796	17.762	812.074	608.384
365.810	17.608	811.484	607.339
366.825	17.754	811.135	607.546
367.840	17.759	810.773	607.237
368.854	17.681	810.304	606.556
369.869	17.663	809.836	606.085
370.883	17.758	809.051	605.783
371.898	17.730	808.995	605.589
372.913	17.761	808.936	605.599
373.927	17.858	808.315	605.427
374.942	17.926	807.229	604.801
375.956	17.915	807.270	604.738
376.971	17.939	806.763	604.390
377.986	18.095	805.968	604.292
379.000	17.904	805.879	603.496
380.015	18.020	805.085	603.259
381.029	17.991	804.712	602.824
382.044	18.038	804.308	602.635
383.059	17.964	803.685	601.853
384.073	18.014	802.909	601.393
385.088	17.905	802.772	600.855
386.102	17.915	802.395	600.556
387.117	17.981	801.426	600.009
388.132	17.923	800.845	599.318
389.146	18.018	800.386	599.255
390.161	18.094	799.747	598.989
391.175	18.003	799.622	598.524
392.190	18.022	799.148	598.180
393.205	18.038	798.502	597.701
394.219	17.983	798.295	597.302
395.234	17.971	798.057	597.026
396.248	18.038	797.330	596.664
397.263	18.186	796.848	596.768
398.278	17.985	796.705	595.906
399.292	18.059	796.256	595.777
400.307	18.125	795.790	595.603
401.321	18.058	795.053	594.767
402.336	18.124	794.655	594.647
403.350	18.073	794.387	594.216
404.365	18.261	793.926	594.473
405.380	18.320	792.862	593.826
406.394	18.336	792.813	593.792
407.409	18.389	792.289	593.531
408.423	18.372	792.078	593.263
409.438	18.390	791.800	593.066
410.453	18.482	791.462	593.077
411.467	18.472	790.884	592.558
412.482	18.521	790.214	592.170
413.496	18.465	789.903	591.691
414.511	18.610	789.497	591.836
415.526	18.454	789.638	591.350
416.540	18.369	788.692	590.296
417.555	18.551	788.458	590.699
418.569	18.529	788.025	590.246
419.584	18.554	787.850	590.147
420.599	18.569	787.208	589.666
421.613	115.900	1295.652	1485.191
422.628	99.685	1369.729	1485.251
