DTS Sentinel unit serial number:	SN413079Multiplexer serial number:	ORYXHardware model number:	OX4-SRSoftware version number:	ORYX F/W v4.00 Oryx Data Collector v3.7.2.0data status	okinstallation	princeton_trtdifferential loss correction	single-endedforward channel	channel 1reverse channel	N/Adate	2019/09/18time	07:02:35forward acquisition time	60.00reverse acquisition time	0.00gamma	496.2192k internal	0.2340k external	0.2340temperature offset calibration	0.9980default loss term (dB/km)	0.3790temperature slope calibration	1.0000multiplexer offset coefficient	1.0000multiplexer slope coefficient	1.0000fibre end	0.00T internal ref (°C)	23.19T ext. ref 1 (°C)	0.19T ext. ref 2 (°C)	17.13length (m)	temperature (°C)	Stokes	anti-Stokes-747.200	262.128	0.120	0.208
-746.185	-22.297	-0.333	0.203
-745.171	500.034	0.136	0.315
-744.156	-109.715	-0.240	-0.051
-743.142	-101.481	0.025	-0.006
-742.127	800.000	0.106	0.314
-741.112	-14.262	-0.076	-0.049
-740.098	17.012	-0.122	-0.097
-739.083	-15.482	-0.418	-0.268
-738.069	247.378	-0.084	0.143
-737.054	-200.000	0.044	0.240
-736.039	17.631	-0.300	0.239
-735.025	155.786	-0.129	-0.178
-734.010	505.491	0.076	-0.177
-732.996	154.966	-0.071	-0.098
-731.981	-33.964	0.330	-0.182
-730.966	-73.933	-0.224	-0.082
-729.952	90.398	0.208	-0.234
-728.937	-109.852	-0.414	-0.087
-727.923	-82.672	-0.116	0.038
-726.908	26.516	-0.239	-0.200
-725.894	444.823	0.009	-0.021
-724.879	493.495	-0.095	-0.218
-723.864	-118.360	-0.285	0.051
-722.850	-143.240	0.135	-0.013
-721.835	-69.738	-0.144	-0.055
-720.821	-171.249	-0.164	0.006
-719.806	-61.325	-0.051	-0.022
-718.791	800.000	0.085	-0.244
-717.777	85.666	0.085	0.094
-716.762	-123.217	0.067	-0.011
-715.748	48.557	-0.131	0.123
-714.733	276.395	0.090	0.160
-713.718	95.296	0.145	0.166
-712.704	-200.000	-0.004	0.060
-711.689	-42.802	0.113	-0.057
-710.675	-124.353	-0.125	0.020
-709.660	426.818	0.107	-0.231
-708.645	-6.064	-0.210	-0.144
-707.631	-22.646	0.296	-0.179
-706.616	671.989	0.027	0.069
-705.602	57.145	-0.083	-0.081
-704.587	129.977	-0.105	-0.134
-703.572	618.411	0.004	-0.009
-702.558	-200.000	0.065	-0.342
-701.543	-33.424	0.114	0.063
-700.529	571.736	-0.097	-0.236
-699.514	259.772	-0.150	-0.259
-698.499	-200.000	-0.007	-0.154
-697.485	-25.655	-0.179	-0.106
-696.470	384.874	0.142	-0.292
-695.456	-200.000	0.001	-0.031
-694.441	-173.710	0.120	0.004
-693.426	132.337	0.120	0.155
-692.412	800.000	-0.033	-0.127
-691.397	-41.370	-0.345	0.178
-690.383	524.849	-0.103	0.243
-689.368	-58.925	0.180	0.078
-688.354	-200.000	-0.030	0.245
-687.339	-200.000	-0.010	0.190
-686.324	-200.000	0.019	0.379
-685.310	-20.990	-0.255	-0.156
-684.295	-200.000	-0.002	0.188
-683.281	-86.883	0.129	-0.039
-682.266	784.066	-0.127	0.348
-681.251	-7.349	0.377	-0.255
-680.237	290.993	-0.116	-0.210
-679.222	370.768	0.127	-0.257
-678.208	723.668	-0.121	0.323
-677.193	-178.178	0.171	-0.004
-676.178	141.473	0.275	-0.364
-675.164	-200.000	0.004	-0.102
-674.149	105.138	-0.095	0.112
-673.135	517.404	-0.078	0.183
-672.120	0.644	0.305	0.218
-671.105	-98.289	-0.296	0.076
-670.091	-98.192	0.135	0.035
-669.076	-6.472	0.232	-0.158
-668.062	-200.000	0.028	0.151
-667.047	-45.887	-0.165	0.081
-666.032	-72.741	0.135	0.050
-665.018	-200.000	-0.007	0.445
-664.003	800.000	-0.032	-0.117
-662.989	-200.000	0.027	0.164
-661.974	800.000	0.009	-0.026
-660.959	-200.000	-0.034	-0.151
-659.945	-166.617	0.233	0.010
-658.930	542.609	0.125	0.298
-657.916	207.324	0.105	-0.164
-656.901	-86.025	-0.024	-0.007
-655.886	451.902	0.024	-0.054
-654.872	-200.000	-0.004	-0.104
-653.857	-200.000	0.126	-0.000
-652.843	-161.657	-0.288	-0.015
-651.828	-21.525	0.147	0.089
-650.814	288.434	-0.217	0.393
-649.799	238.150	0.160	0.266
-648.784	-200.000	0.038	0.262
-647.770	-1.850	-0.173	-0.122
-646.755	710.161	0.118	0.313
-645.741	-171.547	0.044	-0.001
-644.726	29.197	-0.129	-0.109
-643.711	-139.526	0.117	0.012
-642.697	126.002	-0.128	-0.161
-641.682	-102.078	0.095	-0.023
-640.668	-200.000	-0.009	0.225
-639.653	-8.991	-0.156	0.104
-638.638	800.000	0.075	0.224
-637.624	144.096	-0.034	0.045
-636.609	357.006	0.057	0.114
-635.595	-200.000	0.067	0.435
-634.580	-112.623	0.141	0.028
-633.565	800.000	-0.112	0.344
-632.551	-148.151	-0.360	-0.030
-631.536	62.152	0.230	-0.229
-630.522	284.731	0.025	0.046
-629.507	123.437	0.105	-0.132
-628.492	471.546	0.080	0.181
-627.478	-200.000	0.026	0.146
-626.463	118.355	-0.246	-0.303
-625.449	-20.388	-0.148	0.091
-624.434	440.167	-0.113	0.247
-623.419	-174.824	-0.326	-0.009
-622.405	-54.587	0.066	-0.030
-621.390	-130.291	-0.447	-0.061
-620.376	598.875	-0.139	-0.344
-619.361	-77.067	-0.269	0.093
-618.346	-200.000	0.041	0.229
-617.332	-160.506	-0.211	-0.011
-616.317	461.270	0.040	-0.089
-615.303	-200.000	-0.050	-0.253
-614.288	-200.000	-0.008	-0.236
-613.273	-116.620	0.037	0.007
-612.259	666.106	0.065	-0.168
-611.244	46.853	-0.211	-0.196
-610.230	-58.295	-0.097	0.042
-609.215	-200.000	0.020	-0.338
-608.201	-26.992	0.226	0.131
-607.186	30.797	0.150	0.128
-606.171	-28.091	-0.150	-0.086
-605.157	-0.221	0.298	-0.211
-604.142	62.004	0.388	-0.386
-603.128	800.000	0.032	-0.122
-602.113	459.653	0.013	-0.030
-601.098	391.394	0.108	0.224
-600.084	-65.719	0.282	-0.113
-599.069	-200.000	-0.037	-0.424
-598.055	-200.000	-0.040	-0.433
-597.040	-40.043	-0.325	0.169
-596.025	-93.505	0.259	0.071
-595.011	800.000	-0.006	-0.025
-593.996	180.461	-0.140	-0.205
-592.982	-200.000	-0.034	-0.364
-591.967	-200.000	0.057	-0.468
-590.952	476.052	0.015	-0.035
-589.938	-49.530	-0.161	-0.077
-588.923	-200.000	-0.011	0.145
-587.909	62.644	-0.043	-0.043
-586.894	-200.000	-0.036	-0.179
-585.879	48.515	0.294	-0.274
-584.865	131.531	0.188	-0.241
-583.850	-81.372	-0.137	-0.045
-582.836	703.847	-0.122	0.319
-581.821	-200.000	-0.046	-0.375
-580.806	49.436	0.234	-0.219
-579.792	-200.000	0.039	0.398
-578.777	-200.000	-0.010	-0.440
-577.763	78.349	-0.118	0.125
-576.748	-40.592	-0.109	0.057
-575.733	-28.757	-0.263	-0.151
-574.719	-182.580	0.066	0.001
-573.704	-200.000	-0.037	0.265
-572.690	724.368	0.094	-0.248
-571.675	-179.185	-0.052	0.001
-570.661	-200.000	-0.067	0.317
-569.646	11.974	-0.280	-0.215
-568.631	-110.659	-0.153	0.031
-567.617	-200.000	-0.066	-0.299
-566.602	-200.000	-0.011	0.202
-565.588	299.932	0.085	0.156
-564.573	12.222	-0.017	0.013
-563.558	-156.414	0.305	0.019
-562.544	-200.000	0.046	-0.336
-561.529	-100.373	0.064	0.016
-560.515	39.098	-0.217	0.193
-559.500	620.213	-0.114	0.285
-558.485	-40.115	-0.174	0.090
-557.471	13.431	-0.190	-0.147
-556.456	31.578	-0.091	0.078
-555.442	800.000	0.053	0.222
-554.427	800.000	0.057	0.182
-553.412	-45.760	-0.326	-0.160
-552.398	-200.000	-0.012	0.100
-551.383	-49.572	-0.223	0.106
-550.369	-32.320	-0.062	-0.034
-549.354	334.188	-0.129	-0.248
-548.339	-97.167	-0.413	-0.107
-547.325	-200.000	0.000	0.143
-546.310	732.344	-0.067	-0.179
-545.296	46.166	-0.074	-0.068
-544.281	43.078	-0.080	-0.073
-543.266	-97.774	0.189	0.049
-542.252	-5.134	-0.107	0.073
-541.237	-200.000	-0.001	-0.181
-540.223	-34.481	-0.178	-0.097
-539.208	-98.943	-0.253	0.064
-538.193	-42.897	0.248	0.125
-537.179	136.312	0.080	-0.103
-536.164	-13.411	0.279	0.180
-535.150	-153.132	-0.202	-0.014
-534.135	-180.156	0.154	-0.003
-533.121	800.000	-0.055	-0.155
-532.106	-86.773	0.241	-0.073
-531.091	3.381	0.341	-0.247
-530.077	-144.907	-0.035	0.003
-529.062	484.279	-0.014	0.032
-528.048	-200.000	-0.018	0.085
-527.033	649.913	0.169	0.431
-526.018	188.225	-0.164	-0.243
-525.004	-126.309	0.424	0.063
-523.989	108.380	-0.215	0.255
-522.975	142.279	-0.183	0.241
-521.960	800.000	0.037	-0.102
-520.945	-19.776	0.135	-0.083
-519.931	161.790	0.169	0.235
-518.916	461.248	-0.066	0.147
-517.902	77.737	0.202	0.213
-516.887	345.897	-0.199	-0.388
-515.872	-69.262	0.209	-0.080
-514.858	-200.000	0.041	0.421
-513.843	0.233	0.103	-0.073
-512.829	-151.250	0.302	-0.022
-511.814	126.170	0.133	-0.167
-510.799	170.094	0.210	-0.299
-509.785	-101.488	0.098	0.024
-508.770	-200.000	-0.012	0.117
-507.756	96.047	-0.229	-0.259
-506.741	50.593	0.283	-0.266
-505.726	-126.395	0.097	0.014
-504.712	70.726	0.180	0.185
-503.697	-42.088	0.256	-0.130
-502.683	-184.621	-0.128	0.002
-501.668	-113.609	0.135	-0.026
-500.653	-133.820	0.236	0.029
-499.639	-191.307	-0.261	-0.003
-498.624	-200.000	0.044	0.262
-497.610	-140.095	0.183	0.019
-496.595	-200.000	-0.010	0.062
-495.581	-137.529	0.258	-0.029
-494.566	471.275	-0.094	-0.209
-493.551	53.957	-0.217	-0.207
-492.537	412.050	0.049	-0.103
-491.522	9.484	0.387	-0.291
-490.508	120.921	0.087	0.107
-489.493	42.888	-0.237	-0.214
-488.478	-129.618	0.174	-0.024
-487.464	-102.049	0.352	0.084
-486.449	-10.172	-0.144	0.095
-485.435	147.864	0.130	0.174
-484.420	-86.592	-0.220	-0.067
-483.405	-118.465	0.052	0.009
-482.391	89.364	-0.196	0.217
-481.376	-200.000	0.053	0.286
-480.362	128.315	0.137	-0.173
-479.347	83.651	-0.053	0.058
-478.332	6.573	-0.047	0.034
-477.318	-185.911	0.112	0.002
-476.303	-200.000	0.023	-0.269
-475.289	-200.000	-0.017	0.093
-474.274	84.288	-0.072	-0.078
-473.259	-13.654	-0.277	-0.178
-472.245	-73.825	-0.186	-0.067
-471.230	-1.935	0.302	-0.211
-470.216	-72.265	0.164	0.060
-469.201	-200.000	-0.021	0.126
-468.186	-99.510	-0.068	0.017
-467.172	-200.000	0.044	0.249
-466.157	-34.456	0.107	0.058
-465.143	-77.164	-0.207	0.071
-464.128	-127.855	-0.345	0.049
-463.113	-137.886	0.205	0.023
-462.099	-156.651	0.123	0.008
-461.084	525.578	-0.064	-0.150
-460.070	-18.802	-0.139	0.086
-459.055	-24.090	-0.424	-0.251
-458.040	-60.458	-0.184	0.077
-457.026	-185.726	-0.091	0.001
-456.011	-130.121	0.307	0.042
-454.997	327.710	0.065	0.123
-453.982	-22.112	0.238	0.143
-452.968	161.956	-0.229	0.317
-451.953	-129.895	-0.210	-0.029
-450.938	-83.984	0.343	-0.108
-449.924	-200.000	0.045	-0.202
-448.909	63.486	0.284	-0.283
-447.895	-120.031	-0.103	0.017
-446.880	72.978	-0.312	0.323
-445.865	82.011	0.178	-0.191
-444.851	-200.000	-0.013	-0.124
-443.836	190.020	0.015	0.022
-442.822	-125.932	0.192	-0.029
-441.807	235.056	-0.102	-0.167
-440.792	-84.873	0.181	0.056
-439.778	800.000	-0.079	-0.278
-438.763	800.000	0.076	-0.216
-437.749	800.000	0.093	-0.364
-436.734	265.456	-0.122	0.211
-435.719	41.890	-0.140	-0.126
-434.705	133.747	0.165	0.212
-433.690	360.473	-0.075	-0.148
-432.676	63.176	-0.306	0.304
-431.661	-48.727	0.116	0.055
-430.646	374.734	-0.118	0.237
-429.632	-70.942	0.401	0.150
-428.617	-90.570	-0.217	0.062
-427.603	-132.233	-0.110	0.014
-426.588	68.339	0.096	-0.097
-425.573	22.896	-0.302	-0.245
-424.559	800.000	-0.040	-0.163
-423.544	363.952	0.088	-0.175
-422.530	-72.863	0.333	0.121
-421.515	-99.672	-0.201	0.050
-420.500	-43.295	-0.266	-0.133
-419.486	-200.000	0.044	0.430
-418.471	-90.060	-0.425	-0.123
-417.457	-200.000	0.024	0.274
-416.442	67.510	0.191	0.193
-415.428	535.444	0.032	-0.075
-414.413	-80.080	-0.141	0.047
-413.398	800.000	-0.048	0.139
-412.384	800.000	0.111	0.325
-411.369	-112.383	0.216	0.043
-410.355	-107.371	-0.239	-0.052
-409.340	72.846	0.245	0.253
-408.325	-200.000	0.019	0.207
-407.311	114.460	-0.064	-0.077
-406.296	438.854	-0.188	-0.407
-405.282	94.069	-0.220	-0.247
-404.267	-173.695	-0.130	-0.004
-403.252	548.902	0.035	-0.083
-402.238	751.370	0.088	-0.236
-401.223	148.938	-0.258	0.345
-400.209	800.000	-0.093	-0.310
-399.194	26.640	-0.180	-0.149
-398.179	126.552	0.070	0.088
-397.165	398.312	-0.153	0.318
-396.150	86.496	0.065	-0.070
-395.136	778.661	0.028	-0.075
-394.121	139.406	-0.062	0.081
-393.106	207.209	-0.161	0.248
-392.092	800.000	0.130	0.371
-391.077	-30.095	0.210	0.118
-390.063	-23.139	-0.109	0.065
-389.048	49.393	0.291	0.271
-388.033	-49.805	-0.044	-0.021
-387.019	75.643	0.284	0.297
-386.004	-45.784	0.227	0.111
-384.990	-200.000	0.037	0.268
-383.975	565.368	0.099	0.238
-382.960	-69.907	0.396	0.149
-381.946	-96.690	0.091	0.024
-380.931	-63.379	0.370	0.150
-379.917	-24.719	0.180	-0.106
-378.902	-137.019	-0.184	-0.021
-377.888	800.000	-0.060	-0.250
-376.873	535.575	-0.094	0.221
-375.858	-200.000	0.029	-0.175
-374.844	-49.331	-0.227	0.107
-373.829	49.834	-0.097	0.090
-372.815	-111.084	0.318	0.064
-371.800	45.988	-0.166	0.151
-370.785	-200.000	0.040	0.193
-369.771	1.536	-0.155	0.110
-368.756	-74.488	-0.126	-0.045
-367.742	-135.661	0.147	-0.017
-366.727	-13.776	-0.209	0.134
-365.712	-86.571	0.245	-0.074
-364.698	114.087	-0.088	-0.106
-363.683	-197.220	0.192	0.001
-362.669	152.068	-0.142	-0.192
-361.654	90.950	-0.252	0.279
-360.639	-120.240	-0.629	-0.106
-359.625	80.221	-0.176	-0.187
-358.610	800.000	0.012	-0.042
-357.596	-154.813	-0.261	0.017
-356.581	-101.711	0.184	0.044
-355.566	-57.389	0.271	0.117
-354.552	800.000	-0.037	0.161
-353.537	-200.000	0.004	0.220
-352.523	52.151	0.218	-0.205
-351.508	84.597	0.129	-0.140
-350.493	-200.000	0.015	0.281
-349.479	-200.000	-0.022	-0.269
-348.464	204.303	0.097	-0.148
-347.450	233.006	-0.057	0.093
-346.435	-43.786	-0.299	0.149
-345.420	427.186	-0.085	0.180
-344.406	-37.015	0.210	-0.111
-343.391	11.646	-0.161	0.122
-342.377	800.000	-0.054	-0.176
-341.362	-48.018	0.043	0.020
-340.348	800.000	-0.085	0.352
-339.333	-57.316	0.243	-0.106
-338.318	743.922	-0.048	0.128
-337.304	-34.078	-0.149	0.081
-336.289	246.758	0.212	-0.353
-335.275	-141.265	-0.104	0.010
-334.260	525.314	-0.078	-0.181
-333.245	-164.222	0.235	-0.011
-332.231	-138.638	-0.468	-0.051
-331.216	-0.719	0.158	-0.111
-330.202	-98.793	-0.319	0.080
-329.187	-123.651	-0.290	-0.045
-328.172	114.261	-0.138	0.166
-327.158	11.423	0.097	-0.073
-326.143	-160.911	-0.195	-0.010
-325.129	105.313	0.343	0.399
-324.114	116.522	0.164	0.199
-323.099	-57.344	-0.065	-0.028
-322.085	93.116	0.174	0.194
-321.070	-152.445	-0.009	0.001
-320.056	800.000	-0.015	-0.065
-319.041	-52.244	-0.218	-0.100
-318.026	271.169	0.070	0.122
-317.012	153.064	0.038	-0.052
-315.997	410.200	-0.139	0.290
-314.983	89.946	-0.139	-0.153
-313.968	-148.543	-0.210	0.017
-312.953	122.735	-0.115	0.142
-311.939	-59.251	0.095	-0.040
-310.924	-200.000	-0.034	0.219
-309.910	274.963	0.085	-0.149
-308.895	712.530	-0.050	0.130
-307.880	112.597	0.207	-0.247
-306.866	-69.541	-0.125	-0.047
-305.851	131.036	-0.073	0.092
-304.837	89.925	-0.061	-0.067
-303.822	225.243	-0.040	0.064
-302.807	-130.646	-0.066	0.009
-301.793	-124.875	0.131	-0.020
-300.778	-120.981	0.172	0.029
-299.764	151.329	-0.076	0.102
-298.749	13.549	0.118	-0.090
-297.735	105.101	0.113	0.132
-296.720	-31.827	0.079	0.044
-295.705	33.624	-0.083	0.071
-294.691	62.754	-0.106	0.104
-293.676	455.817	-0.080	0.175
-292.662	-90.371	-0.175	-0.050
-291.647	-74.850	-0.327	-0.116
-290.632	33.161	0.243	0.208
-289.618	387.947	0.074	-0.151
-288.603	-3.144	0.156	-0.107
-287.589	-167.598	0.158	0.006
-286.574	-110.839	0.320	0.065
-285.559	501.570	-0.168	0.383
-284.545	-52.505	0.141	0.064
-283.530	58.467	-0.159	-0.153
-282.516	-31.849	-0.285	-0.157
-281.501	270.661	0.101	0.174
-280.486	66.786	0.233	-0.233
-279.472	-130.061	-0.197	0.027
-278.457	225.258	-0.013	-0.020
-277.443	70.627	0.091	-0.093
-276.428	-200.000	-0.009	-0.087
-275.413	67.152	-0.064	0.065
-274.399	121.269	0.047	-0.058
-273.384	16.294	0.282	0.219
-272.370	-101.204	0.155	-0.037
-271.355	-200.000	-0.034	-0.289
-270.340	-200.000	-0.046	-0.227
-269.326	-200.000	-0.007	0.053
-268.311	800.000	-0.092	0.367
-267.297	-200.000	0.063	-0.375
-266.282	800.000	-0.064	0.258
-265.267	-200.000	-0.031	0.441
-264.253	-88.601	-0.432	0.127
-263.238	-2.024	-0.293	0.203
-262.224	-95.067	-0.103	-0.027
-261.209	272.435	-0.073	-0.126
-260.195	-19.466	0.324	-0.197
-259.180	-154.387	-0.207	-0.014
-258.165	75.205	-0.165	0.172
-257.151	-150.440	0.079	-0.006
-256.136	-200.000	0.024	0.138
-255.122	-200.000	0.034	-0.307
-254.107	163.501	-0.165	-0.229
-253.092	95.065	0.113	-0.127
-252.078	577.442	-0.022	0.054
-251.063	-39.362	0.093	0.048
-250.049	76.567	0.154	-0.161
-249.034	126.663	0.095	0.118
-248.019	-116.488	-0.141	-0.026
-247.005	800.000	-0.069	0.198
-245.990	-122.588	-0.602	-0.096
-244.976	-33.366	0.318	-0.173
-243.961	467.653	-0.190	0.418
-242.946	162.799	-0.134	0.186
-241.932	-46.476	-0.063	-0.031
-240.917	641.188	-0.128	-0.321
-239.903	439.760	0.096	0.206
-238.888	224.824	0.096	-0.153
-237.873	-200.000	-0.035	0.255
-236.859	406.419	0.151	-0.314
-235.844	-200.000	-0.015	0.070
-234.830	800.000	0.051	0.144
-233.815	-200.000	-0.025	0.141
-232.800	-18.638	0.290	0.178
-231.786	-26.941	0.206	0.118
-230.771	63.596	-0.082	0.081
-229.757	-200.000	0.035	0.257
-228.742	-121.709	-0.363	0.059
-227.727	-0.854	-0.299	-0.208
-226.713	800.000	0.069	-0.293
-225.698	800.000	0.072	-0.230
-224.684	423.424	0.169	-0.356
-223.669	-104.871	-0.189	-0.043
-222.655	-83.396	0.027	-0.009
-221.640	-200.000	-0.029	0.246
-220.625	-55.866	0.131	-0.057
-219.611	-200.000	-0.004	0.353
-218.596	287.112	0.068	0.121
-217.582	263.434	0.155	0.265
-216.567	484.343	-0.042	-0.094
-215.552	311.005	0.062	0.114
-214.538	3.642	-0.067	-0.048
-213.523	44.144	0.062	0.056
-212.509	166.830	0.242	0.337
-211.494	429.120	0.163	-0.347
-210.479	-7.504	0.111	-0.074
-209.465	-200.000	0.035	-0.275
-208.450	114.456	0.112	-0.134
-207.436	76.418	-0.163	-0.169
-206.421	103.307	0.139	-0.160
-205.406	162.076	-0.153	0.211
-204.392	-124.844	0.108	0.016
-203.377	572.560	0.139	0.333
-202.363	-122.568	0.090	-0.014
-201.348	800.000	0.058	-0.241
-200.333	-167.885	-0.207	0.008
-199.319	12.992	-0.251	-0.190
-198.304	-200.000	0.073	-0.552
-197.290	-64.951	0.275	0.109
-196.275	-43.007	-0.305	-0.152
-195.260	-200.000	0.059	-0.280
-194.246	127.678	0.039	0.049
-193.231	3.484	0.362	-0.259
-192.217	403.161	0.100	0.207
-191.202	-200.000	-0.047	-0.291
-190.187	86.214	-0.108	-0.117
-189.173	111.494	-0.070	-0.083
-188.158	51.190	-0.264	-0.246
-187.144	26.846	-0.025	0.020
-186.129	-75.215	0.281	-0.098
-185.114	-200.000	-0.063	-0.270
-184.100	-126.277	-0.175	0.026
-183.085	-50.394	0.158	0.073
-182.071	336.021	0.101	0.191
-181.056	-127.286	-0.243	-0.035
-180.042	-124.849	0.181	-0.027
-179.027	-12.998	0.188	-0.120
-178.012	150.251	-0.184	0.245
-176.998	115.490	-0.126	-0.152
-175.983	800.000	-0.059	-0.187
-174.969	144.519	0.154	-0.202
-173.954	800.000	0.065	-0.187
-172.939	800.000	-0.089	-0.281
-171.925	611.684	0.041	-0.100
-170.910	-67.004	0.206	-0.080
-169.896	-200.000	0.008	-0.172
-168.881	-179.644	0.250	-0.005
-167.866	706.848	-0.036	-0.093
-166.852	-129.435	0.170	0.023
-165.837	12.599	0.328	0.248
-164.823	20.510	-0.013	-0.010
-163.808	-115.986	0.178	-0.033
-162.793	-200.000	0.020	-0.125
-161.779	108.385	0.123	0.143
-160.764	-164.635	0.184	0.008
-159.750	-200.000	-0.026	0.243
-158.735	-71.274	0.188	-0.069
-157.720	194.746	-0.152	0.226
-156.706	377.010	0.138	0.276
-155.691	-40.147	-0.189	0.096
-154.677	-133.981	0.053	0.006
-153.662	800.000	-0.028	0.108
-152.647	-200.000	0.020	0.090
-151.633	-17.570	0.139	-0.086
-150.618	-25.506	-0.054	-0.031
-149.604	-132.064	0.214	0.027
-148.589	513.955	-0.072	-0.165
-147.574	-200.000	0.304	-0.001
-146.560	-82.600	0.277	-0.088
-145.545	300.958	0.205	0.370
-144.531	20.773	0.379	-0.300
-143.516	-77.564	0.120	0.041
-142.502	134.058	-0.182	-0.231
-141.487	201.468	-0.094	-0.142
-140.472	-20.277	-0.064	-0.039
-139.458	195.340	-0.105	-0.157
-138.443	-200.000	-0.013	-0.250
-137.429	40.689	0.052	0.046
-136.414	800.000	-0.036	-0.131
-135.399	27.254	0.353	0.290
-134.385	-12.267	0.351	0.225
-133.370	195.553	-0.028	-0.041
-132.356	247.436	-0.063	0.103
-131.341	100.224	0.187	-0.212
-130.326	-200.000	-0.064	0.296
-129.312	-67.663	0.296	0.114
-128.297	-200.000	-0.071	0.323
-127.283	-130.361	-0.271	-0.036
-126.268	83.329	0.280	0.299
-125.253	29.421	-0.170	0.141
-124.239	-31.057	-0.158	-0.087
-123.224	-76.655	0.316	-0.108
-122.210	-130.651	0.187	-0.025
-121.195	489.453	-0.090	0.201
-120.180	346.984	0.114	0.219
-119.166	-102.242	-0.047	0.011
-118.151	264.834	-0.136	-0.231
-117.137	138.072	0.056	-0.072
-116.122	485.885	-0.142	0.317
-115.107	287.415	-0.152	-0.269
-114.093	22.962	0.148	0.119
-113.078	7.856	0.031	0.022
-112.064	98.791	0.185	0.209
-111.049	-142.690	-0.259	0.025
-110.034	127.602	0.101	-0.125
-109.020	180.878	0.150	-0.215
-108.005	176.456	-0.129	0.184
-106.991	-80.032	-0.435	0.143
-105.976	800.000	-0.053	0.178
-104.962	12.002	0.299	-0.225
-103.947	149.373	0.053	0.071
-102.932	263.564	-0.083	-0.141
-101.918	125.711	-0.223	-0.275
-100.903	-27.010	0.318	-0.181
-99.889	-200.000	-0.003	-0.054
-98.874	-44.001	0.146	0.072
-97.859	-200.000	0.008	0.185
-96.845	-159.233	-0.262	-0.014
-95.830	-200.000	-0.041	0.411
-94.816	-165.578	0.063	-0.003
-93.801	56.159	-0.138	0.131
-92.786	-67.835	0.151	-0.058
-91.772	-102.524	0.100	-0.023
-90.757	54.410	-0.292	0.275
-89.743	-150.242	-0.307	0.023
-88.728	-200.000	0.063	-0.293
-87.713	-144.136	-0.148	0.014
-86.699	-200.000	0.039	-0.240
-85.684	51.850	-0.224	0.208
-84.670	143.208	-0.192	0.249
-83.655	-200.000	0.052	-0.432
-82.640	-150.191	0.240	-0.018
-81.626	-61.045	0.149	0.061
-80.611	-200.000	-0.030	-0.261
-79.597	-151.744	-0.114	0.008
-78.582	158.427	-0.136	0.185
-77.567	-200.000	-0.068	-0.475
-76.553	7.583	-0.322	0.235
-75.538	-61.405	0.342	0.141
-74.524	385.169	-0.141	0.284
-73.509	-1.898	-0.425	0.292
-72.494	-200.000	0.004	0.145
-71.480	-53.318	0.125	-0.056
-70.465	183.777	0.294	-0.424
-69.451	251.289	-0.191	-0.317
-68.436	-200.000	0.030	-0.204
-67.422	-200.000	0.042	-0.230
-66.407	-139.553	-0.323	0.034
-65.392	252.130	-0.172	-0.285
-64.378	-109.344	0.132	0.027
-63.363	171.415	-0.206	0.288
-62.349	53.952	0.173	0.162
-61.334	93.031	-1.028	-1.134
-60.319	121.468	0.698	0.849
-59.305	453.567	-0.522	-1.128
-58.290	688.934	0.624	1.593
-57.276	622.582	0.685	1.684
-56.261	-200.000	125.282	650.373
-55.246	402.887	1583.710	3250.740
-54.232	140.208	2745.846	3535.011
-53.217	94.799	2169.160	2407.957
-52.203	34.923	1597.076	1364.056
-51.188	26.279	1340.870	1093.154
-50.173	23.923	1302.613	1048.059
-49.159	52.231	1372.409	1276.870
-48.144	48.776	1383.550	1266.289
-47.130	26.580	1332.263	1087.771
-46.115	23.323	1312.522	1052.298
-45.100	23.082	1307.983	1047.190
-44.086	23.118	1304.675	1044.712
-43.071	23.047	1302.915	1042.844
-42.057	23.021	1300.579	1040.778
-41.042	23.080	1299.128	1039.921
-40.027	23.067	1297.448	1038.461
-39.013	23.059	1295.687	1036.962
-37.998	23.112	1293.918	1035.816
-36.984	23.145	1292.244	1034.630
-35.969	23.197	1290.406	1033.420
-34.954	23.143	1288.771	1031.752
-33.940	23.127	1287.753	1030.804
-32.925	23.226	1286.289	1030.169
-31.911	23.218	1284.957	1029.014
-30.896	23.273	1283.401	1028.050
-29.881	23.338	1282.302	1027.504
-28.867	23.314	1280.806	1026.123
-27.852	23.287	1279.560	1024.929
-26.838	23.372	1278.044	1024.167
-25.823	23.310	1276.722	1022.706
-24.809	23.276	1275.273	1021.309
-23.794	23.237	1273.970	1020.002
-22.779	23.291	1272.484	1019.080
-21.765	23.259	1271.318	1017.922
-20.750	23.326	1269.996	1017.211
-19.736	23.229	1268.787	1015.642
-18.721	23.241	1267.164	1014.373
-17.706	23.125	1266.591	1013.211
-16.692	23.071	1265.743	1012.186
-15.677	23.073	1264.501	1011.162
-14.663	23.109	1262.813	1009.975
-13.648	23.079	1262.231	1009.300
-12.633	23.137	1261.235	1008.791
-11.619	23.097	1260.617	1008.032
-10.604	23.186	1259.781	1007.833
-9.590	23.121	1258.464	1006.370
-8.575	23.137	1257.228	1005.429
-7.560	23.166	1256.438	1004.923
-6.546	23.189	1255.955	1004.629
-5.531	23.118	1255.256	1003.624
-4.517	23.176	1254.490	1003.301
-3.502	23.162	1253.711	1002.559
-2.487	23.197	1252.221	1001.524
-1.473	23.021	1248.057	997.161
-0.458	21.468	1233.236	976.619
0.556	16.493	1217.763	940.127
1.571	13.019	1225.570	926.596
2.586	12.365	1240.619	934.174
3.600	12.369	1229.002	925.367
4.615	9.196	1157.780	854.806
5.629	3.206	1086.760	772.314
6.644	0.356	1069.891	746.165
7.659	0.139	1068.584	744.114
8.673	0.138	1067.497	743.288
9.688	0.147	1066.011	742.228
10.702	0.274	1063.669	741.160
11.717	3.899	1068.198	762.132
12.731	10.763	1077.145	802.455
13.746	15.446	1082.648	829.682
14.761	16.688	1083.685	836.547
15.775	16.043	1082.374	832.277
16.790	15.101	1080.052	825.773
17.804	14.370	1078.881	821.203
18.819	13.924	1078.319	818.502
19.834	13.769	1076.775	816.497
20.848	13.646	1075.848	815.114
21.863	13.257	1075.136	812.595
22.877	13.252	1074.472	811.994
23.892	13.117	1073.859	810.797
24.907	13.243	1072.635	810.419
25.921	13.242	1072.153	809.980
26.936	13.275	1071.305	809.427
27.950	13.212	1070.584	808.505
28.965	13.388	1068.721	807.882
29.980	13.291	1067.748	806.603
30.994	13.461	1066.746	806.602
32.009	13.472	1066.035	806.051
33.023	13.337	1065.219	804.703
34.038	13.433	1063.270	803.626
35.053	13.344	1063.038	802.945
36.067	13.373	1062.011	802.241
37.082	13.339	1061.268	801.446
38.096	13.341	1060.674	800.937
39.111	13.321	1060.160	800.381
40.126	13.354	1058.259	799.035
41.140	13.247	1057.116	797.585
42.155	13.204	1056.092	796.531
43.169	13.231	1054.870	795.672
44.184	13.139	1054.231	794.675
45.199	13.148	1053.125	793.813
46.213	13.194	1052.235	793.292
47.228	13.266	1051.093	792.707
48.242	13.245	1050.039	791.744
49.257	13.267	1048.416	790.552
50.271	13.330	1047.778	790.302
51.286	13.344	1047.268	789.917
52.301	13.316	1046.296	788.981
53.315	13.211	1045.258	787.626
54.330	13.203	1044.092	786.642
55.344	13.217	1043.032	785.837
56.359	13.234	1042.370	785.352
57.374	13.240	1041.676	784.787
58.388	13.227	1040.291	783.614
59.403	13.163	1039.897	782.941
60.417	13.103	1039.294	782.134
61.432	13.106	1038.351	781.373
62.447	13.073	1037.725	780.677
63.461	13.092	1036.827	780.021
64.476	13.135	1035.756	779.347
65.490	13.133	1035.329	778.947
66.505	13.095	1034.556	778.118
67.520	13.191	1033.542	777.739
68.534	13.158	1033.000	777.110
69.549	13.150	1032.531	776.646
70.563	13.256	1031.324	776.171
71.578	13.063	1030.697	774.723
72.593	13.051	1030.115	774.159
73.607	13.036	1029.541	773.591
74.622	12.996	1028.811	772.788
75.636	13.040	1027.848	772.203
76.651	13.171	1027.189	772.252
77.666	13.050	1026.907	771.404
78.680	13.116	1025.882	770.873
79.695	13.071	1025.671	770.438
80.709	13.174	1024.588	770.037
81.724	13.156	1024.140	769.547
82.739	13.205	1023.565	769.274
83.753	13.341	1022.159	768.780
84.768	13.390	1021.577	768.502
85.782	13.345	1020.768	767.620
86.797	13.294	1019.998	766.735
87.812	13.281	1018.985	765.846
88.826	13.347	1017.910	765.274
89.841	13.247	1016.954	764.028
90.855	13.403	1015.876	763.870
91.870	13.334	1015.301	763.050
92.884	13.284	1014.526	762.173
93.899	13.386	1013.305	761.657
94.914	13.457	1012.497	761.308
95.928	13.451	1011.857	760.733
96.943	13.334	1011.323	759.725
97.957	13.356	1010.397	759.064
98.972	13.330	1009.570	758.258
99.987	13.420	1008.502	757.797
101.001	13.325	1007.607	756.624
102.016	13.393	1006.445	755.996
103.030	13.362	1006.045	755.487
104.045	13.378	1005.372	754.986
105.060	13.278	1004.951	754.147
106.074	13.346	1003.191	753.071
107.089	13.216	1002.480	751.879
108.103	13.269	1001.503	751.319
109.118	13.202	1000.503	750.202
110.133	13.221	999.709	749.622
111.147	13.237	998.783	748.936
112.162	13.360	997.851	748.728
113.176	13.370	996.928	748.014
114.191	13.405	996.570	747.839
115.206	13.341	995.918	746.994
116.220	13.351	994.929	746.232
117.235	13.276	994.120	745.218
118.249	13.233	993.609	744.577
119.264	13.320	992.493	744.067
120.279	13.334	991.584	743.380
121.293	13.269	990.968	742.561
122.308	13.296	989.937	741.847
123.322	13.290	989.107	741.129
124.337	13.301	987.515	739.921
125.352	13.299	986.986	739.449
126.366	13.271	985.693	738.293
127.381	13.283	984.657	737.503
128.395	13.223	983.924	736.623
129.410	13.220	983.129	735.948
130.424	13.271	982.033	735.291
131.439	13.288	981.180	734.661
132.454	13.233	980.800	734.067
133.468	13.302	979.833	733.585
134.483	13.408	978.522	733.010
135.497	13.346	977.847	732.164
136.512	13.321	976.774	731.184
137.527	13.337	975.994	730.609
138.541	13.272	975.472	729.863
139.556	13.336	975.153	729.842
140.570	13.386	974.025	729.155
141.585	13.563	972.983	729.089
142.600	13.536	972.072	728.222
143.614	13.523	971.180	727.432
144.629	13.502	971.007	727.147
145.643	13.523	970.148	726.533
146.658	13.432	968.889	725.127
147.673	13.296	967.992	723.795
148.687	13.420	966.894	723.451
149.702	13.602	965.716	723.303
150.716	13.453	965.786	722.639
151.731	13.381	964.527	721.319
152.746	13.445	964.311	721.372
153.760	13.583	963.734	721.479
154.775	13.566	963.280	721.001
155.789	13.489	963.095	720.462
156.804	13.550	961.954	719.813
157.819	13.595	961.085	719.294
158.833	13.727	960.139	719.094
159.848	13.794	959.218	718.629
160.862	13.701	958.891	717.918
161.877	13.513	957.726	716.172
162.892	13.581	956.234	715.285
163.906	13.687	955.704	715.284
164.921	13.502	955.065	713.944
165.935	13.613	954.132	713.661
166.950	13.679	953.108	713.115
167.964	13.732	952.180	712.588
168.979	13.719	951.167	711.709
169.994	13.547	950.946	710.743
171.008	13.708	950.179	710.797
172.023	13.725	949.300	710.152
173.037	13.746	948.582	709.637
174.052	13.793	947.821	709.209
175.067	13.799	946.919	708.497
176.081	13.666	946.557	707.595
177.096	13.710	945.949	707.266
178.110	13.697	945.323	706.681
179.125	13.792	944.424	706.351
180.140	13.795	944.290	706.199
181.154	13.721	944.138	705.708
182.169	13.738	943.655	705.355
183.183	13.897	942.337	704.986
184.198	13.979	941.281	704.478
185.213	13.865	941.134	703.824
186.227	13.950	940.013	703.285
187.242	13.964	939.357	702.788
188.256	14.083	939.051	703.004
189.271	13.881	938.334	701.551
190.286	13.841	937.592	700.764
191.300	13.740	937.159	699.954
192.315	13.733	936.558	699.410
193.329	13.827	935.629	699.051
194.344	14.001	935.117	699.339
195.359	13.869	934.369	698.166
196.373	13.883	933.840	697.764
197.388	13.983	933.467	697.847
198.402	14.094	932.626	697.620
199.417	14.349	931.417	697.721
200.432	14.262	931.273	697.187
201.446	14.159	930.858	696.385
202.461	14.264	930.507	696.502
203.475	14.224	929.937	695.845
204.490	14.136	929.193	694.859
205.504	14.202	928.073	694.234
206.519	14.203	927.806	693.979
207.534	14.183	926.977	693.214
208.548	14.218	926.482	692.927
209.563	14.228	925.552	692.212
210.577	14.130	925.092	691.402
211.592	14.355	924.321	691.696
212.607	14.341	923.499	690.964
213.621	14.278	922.942	690.221
214.636	14.372	921.989	689.839
215.650	14.324	921.043	688.871
216.665	14.330	920.510	688.438
217.680	14.493	919.957	688.634
218.694	14.515	919.265	688.149
219.709	14.600	918.376	687.772
220.723	14.328	918.648	686.792
221.738	14.372	917.071	685.734
222.753	14.548	916.383	685.882
223.767	14.589	915.728	685.498
224.782	14.583	915.332	685.118
225.796	14.572	914.738	684.570
226.811	14.521	914.043	683.776
227.826	14.533	913.529	683.383
228.840	14.506	913.087	682.879
229.855	14.542	911.908	682.087
230.869	14.546	911.183	681.498
231.884	14.537	910.391	680.812
232.899	14.508	909.968	680.314
233.913	14.491	909.263	679.659
234.928	14.500	908.333	678.941
235.942	14.473	908.414	678.831
236.957	14.561	907.810	678.675
237.972	14.369	907.038	677.259
238.986	14.570	906.041	677.273
240.001	14.528	905.805	676.865
241.015	14.510	905.076	676.186
242.030	14.684	904.171	676.155
243.045	14.583	904.013	675.570
244.059	14.507	903.411	674.750
245.074	14.752	902.730	675.174
246.088	14.796	901.676	674.503
247.103	14.596	901.448	673.465
248.117	14.768	900.982	673.754
249.132	14.790	900.552	673.459
250.147	14.915	899.253	672.931
251.161	14.890	898.896	672.506
252.176	14.867	898.292	671.902
253.190	15.108	897.393	672.136
254.205	14.985	896.932	671.239
255.220	15.055	896.163	670.882
256.234	14.929	895.756	670.015
257.249	15.029	894.976	669.772
258.263	15.023	894.178	669.090
259.278	15.036	893.388	668.493
260.293	15.113	892.848	668.336
261.307	15.190	892.196	668.096
262.322	15.132	891.670	667.415
263.336	15.225	890.618	666.935
264.351	15.130	889.872	665.943
265.366	15.157	889.605	665.791
266.380	15.218	888.950	665.484
267.395	15.257	888.265	665.067
268.409	15.231	887.160	664.075
269.424	15.284	886.399	663.660
270.439	15.221	886.007	663.057
271.453	15.271	885.157	662.560
272.468	15.112	884.954	661.721
273.482	15.143	884.477	661.427
274.497	15.080	883.818	660.628
275.512	15.383	882.944	661.110
276.526	15.258	882.395	660.148
277.541	15.334	882.137	660.197
278.555	15.453	881.310	659.988
279.570	15.396	880.611	659.181
280.585	15.379	879.930	658.547
281.599	15.366	879.206	657.895
282.614	15.451	878.516	657.655
283.628	15.403	878.075	657.079
284.643	15.523	877.445	657.017
285.657	15.546	876.853	656.607
286.672	15.437	876.193	655.626
287.687	15.560	875.506	655.537
288.701	15.620	874.729	655.131
289.716	15.451	874.082	653.929
290.730	15.572	873.959	654.250
291.745	15.664	872.880	653.743
292.760	15.582	872.434	653.033
293.774	15.752	871.646	653.046
294.789	15.650	871.429	652.430
295.803	15.585	870.566	651.474
296.818	15.654	869.564	650.933
297.833	15.731	868.912	650.686
298.847	15.616	868.439	649.830
299.862	15.682	868.236	649.872
300.876	15.575	867.845	649.110
301.891	15.864	866.589	649.227
302.906	15.849	866.067	648.724
303.920	15.800	865.719	648.214
304.935	15.877	865.115	648.003
305.949	15.988	864.404	647.839
306.964	15.810	863.997	646.794
307.979	15.986	863.210	646.822
308.993	15.852	862.962	646.064
310.008	15.797	862.457	645.416
311.022	15.831	861.482	644.761
312.037	15.932	861.215	644.890
313.052	15.862	860.424	643.973
314.066	15.907	859.668	643.525
315.081	15.853	859.166	642.885
316.095	15.835	858.630	642.357
317.110	15.726	858.818	642.024
318.125	15.859	857.696	641.636
319.139	15.877	857.660	641.623
320.154	15.889	856.301	640.593
321.168	15.946	856.132	640.626
322.183	15.985	855.533	640.271
323.197	15.981	854.816	639.663
324.212	16.106	854.227	639.638
325.227	16.106	853.877	639.320
326.241	15.863	853.362	637.960
327.256	16.136	852.469	638.268
328.270	15.970	852.076	637.290
329.285	16.010	851.294	636.797
330.300	16.067	850.967	636.714
331.314	16.105	850.249	636.261
332.329	16.088	850.198	636.104
333.343	16.010	849.696	635.380
334.358	16.042	849.172	635.050
335.373	16.139	848.654	634.974
336.387	16.334	848.210	635.317
337.402	16.198	848.265	634.790
338.416	16.168	847.775	634.254
339.431	16.231	847.183	633.991
340.446	16.263	847.056	633.962
341.460	16.501	846.341	634.265
342.475	16.343	846.201	633.510
343.489	16.336	845.762	633.099
344.504	16.552	844.794	633.126
345.519	16.496	844.309	632.500
346.533	16.419	844.081	631.983
347.548	16.521	843.300	631.724
348.562	16.303	843.143	630.735
349.577	16.543	842.423	631.038
350.592	16.413	841.334	629.679
351.606	16.391	840.999	629.293
352.621	16.342	841.001	629.055
353.635	16.361	839.885	628.236
354.650	16.485	839.344	628.235
355.665	16.578	838.419	627.833
356.679	16.612	837.819	627.457
357.694	16.535	837.355	626.766
358.708	16.330	836.850	625.573
359.723	16.606	836.188	626.046
360.738	16.579	835.585	625.439
361.752	16.599	835.151	625.131
362.767	16.655	834.264	624.620
363.781	16.629	833.901	624.197
364.796	16.675	833.603	624.087
365.810	16.767	832.863	623.818
366.825	16.727	832.788	623.561
367.840	16.687	832.546	623.175
368.854	16.799	831.760	622.942
369.869	16.730	831.387	622.356
370.883	16.795	830.882	622.162
371.898	16.973	830.391	622.393
372.913	16.910	830.116	621.899
373.927	17.066	829.233	621.753
374.942	17.029	828.873	621.293
375.956	17.027	828.790	621.171
376.971	16.966	828.159	620.418
377.986	16.952	827.743	619.999
379.000	17.038	827.159	619.822
380.015	16.872	826.916	618.979
381.029	17.109	826.285	619.316
382.044	17.072	825.864	618.811
383.059	17.091	824.837	618.058
384.073	17.020	824.367	617.391
385.088	17.155	823.528	617.198
386.102	17.037	823.344	616.578
387.117	17.027	822.549	615.890
388.132	17.142	822.043	615.875
389.146	17.119	821.664	615.453
390.161	17.121	821.323	615.150
391.175	17.148	820.706	614.733
392.190	17.145	820.245	614.321
393.205	17.159	819.738	613.937
394.219	17.136	819.674	613.753
395.234	17.158	818.905	613.204
396.248	17.052	818.503	612.463
397.263	17.123	818.246	612.474
398.278	17.231	817.518	612.264
399.292	17.247	817.154	611.993
400.307	17.047	816.889	611.022
401.321	17.236	816.272	611.185
402.336	17.240	815.848	610.831
403.350	17.236	815.243	610.306
404.365	17.250	815.019	610.137
405.380	17.346	814.425	609.981
406.394	17.281	814.188	609.516
407.409	17.366	813.397	609.177
408.423	17.424	813.215	609.194
409.438	17.457	813.116	609.184
410.453	17.422	812.846	608.801
411.467	17.611	812.137	608.894
412.482	17.404	811.901	607.924
413.496	17.637	811.145	608.134
414.511	17.746	810.978	608.344
415.526	17.550	810.458	607.200
416.540	17.722	809.615	607.130
417.555	17.625	809.050	606.304
418.569	17.639	809.062	606.312
419.584	17.675	808.516	605.975
420.599	17.851	807.660	605.908
421.613	113.895	1299.249	1487.988
422.628	98.391	1370.833	1488.054
