DTS Sentinel unit serial number:	SN413079Multiplexer serial number:	ORYXHardware model number:	OX4-SRSoftware version number:	ORYX F/W v4.00 Oryx Data Collector v3.7.2.0data status	okinstallation	princeton_trtdifferential loss correction	single-endedforward channel	channel 1reverse channel	N/Adate	2019/09/19time	15:42:35forward acquisition time	60.00reverse acquisition time	0.00gamma	496.2192k internal	0.2307k external	0.2307temperature offset calibration	1.0024default loss term (dB/km)	0.3790temperature slope calibration	1.0000multiplexer offset coefficient	1.0000multiplexer slope coefficient	1.0000fibre end	0.00T internal ref (°C)	34.62T ext. ref 1 (°C)	1.17T ext. ref 2 (°C)	32.94length (m)	temperature (°C)	Stokes	anti-Stokes-747.200	486.746	0.033	-0.077
-746.185	-123.676	-0.143	-0.023
-745.171	125.629	-0.168	0.216
-744.156	92.841	0.134	0.153
-743.142	-159.420	-0.095	-0.005
-742.127	-77.595	0.061	-0.021
-741.112	91.905	-0.276	-0.315
-740.098	47.486	-0.198	0.188
-739.083	354.721	0.120	-0.243
-738.069	-200.000	0.021	-0.140
-737.054	-134.186	-0.209	-0.026
-736.039	-200.000	0.040	-0.227
-735.025	-54.636	0.186	0.086
-734.010	285.807	0.044	0.080
-732.996	588.399	0.156	-0.391
-731.981	451.627	0.072	0.162
-730.966	-147.936	0.267	-0.023
-729.952	-169.390	0.277	-0.010
-728.937	-129.532	0.209	-0.029
-727.923	212.834	0.136	0.218
-726.908	-200.000	0.028	-0.148
-725.894	483.023	-0.196	-0.452
-724.879	-49.991	-0.061	0.029
-723.864	404.322	-0.057	-0.121
-722.850	178.944	0.154	-0.229
-721.835	800.000	-0.084	0.259
-720.821	-200.000	0.063	-0.547
-719.806	176.355	-0.234	-0.345
-718.791	207.180	0.192	-0.304
-717.777	-103.755	-0.141	-0.034
-716.762	252.468	0.245	-0.424
-715.748	-84.347	-0.372	0.120
-714.733	-14.209	-0.047	-0.030
-713.718	233.802	0.033	-0.055
-712.704	-110.480	0.269	-0.057
-711.689	107.071	-0.072	0.087
-710.675	18.218	0.242	0.196
-709.660	208.673	0.129	0.205
-708.645	-39.835	0.319	0.169
-707.631	-138.858	-0.090	0.010
-706.616	151.711	-0.072	-0.099
-705.602	-200.000	0.014	0.173
-704.587	-149.292	0.309	0.025
-703.572	-134.115	-0.277	0.035
-702.558	-97.069	0.056	0.015
-701.543	199.375	0.108	0.168
-700.529	-37.032	-0.212	-0.115
-699.514	-128.601	-0.317	-0.046
-698.499	275.644	-0.055	0.099
-697.485	-24.144	-0.345	0.209
-696.470	-137.473	-0.293	0.034
-695.456	800.000	-0.048	0.181
-694.441	113.170	0.093	0.114
-693.426	-23.018	0.232	-0.142
-692.412	-200.000	-0.032	-0.192
-691.397	-200.000	0.071	-0.329
-690.383	61.978	-0.180	-0.182
-689.368	-42.536	0.072	-0.037
-688.354	-183.848	-0.209	-0.004
-687.339	-113.929	-0.280	0.055
-686.324	39.812	-0.225	0.205
-685.310	-200.000	0.033	0.214
-684.295	-63.006	-0.309	-0.130
-683.281	49.425	-0.142	-0.135
-682.266	101.090	-0.025	-0.029
-681.251	-109.183	-0.188	-0.040
-680.237	536.958	0.088	0.212
-679.222	-79.417	-0.182	-0.062
-678.208	800.000	-0.030	-0.125
-677.193	171.781	-0.149	0.217
-676.178	-84.022	-0.362	-0.117
-675.164	12.085	-0.112	0.087
-674.149	-200.000	0.065	0.340
-673.135	25.685	-0.075	-0.063
-672.120	-2.139	-0.216	-0.154
-671.105	11.617	-0.074	-0.057
-670.091	-117.501	-0.325	-0.060
-669.076	800.000	-0.109	-0.393
-668.062	-200.000	-0.041	-0.408
-667.047	-141.157	0.238	-0.025
-666.032	-40.638	-0.139	-0.073
-665.018	-136.066	0.124	0.015
-664.003	-131.301	0.224	-0.030
-662.989	197.937	-0.135	-0.209
-661.974	568.675	-0.056	-0.137
-660.959	-66.075	-0.323	0.131
-659.945	68.652	0.245	-0.254
-658.930	-59.226	-0.269	-0.117
-657.916	800.000	-0.018	0.062
-656.901	2.944	-0.187	-0.138
-655.886	264.137	0.155	-0.273
-654.872	113.627	-0.224	-0.276
-653.857	79.270	-0.057	-0.061
-652.843	800.000	0.041	-0.161
-651.828	-1.866	0.127	-0.091
-650.814	6.857	0.132	-0.100
-649.799	-166.822	0.170	0.007
-648.784	-75.752	-0.129	0.046
-647.770	-63.460	0.128	0.053
-646.755	-89.961	0.125	0.037
-645.741	120.840	-0.143	0.180
-644.726	-119.482	0.208	-0.037
-643.711	-97.429	-0.147	-0.039
-642.697	-200.000	-0.001	-0.200
-641.682	-93.744	-0.173	-0.048
-640.668	351.479	-0.180	0.362
-639.653	341.114	0.194	0.383
-638.638	-100.538	-0.507	0.127
-637.624	-114.160	-0.168	-0.033
-636.609	474.499	0.044	-0.100
-635.595	141.822	0.069	0.093
-634.580	-130.932	0.096	0.013
-633.565	19.123	-0.240	-0.195
-632.551	83.401	-0.118	0.131
-631.536	230.112	-0.083	0.137
-630.522	-200.000	0.021	0.289
-629.507	-106.218	-0.154	-0.035
-628.492	30.277	-0.224	-0.193
-627.478	19.869	0.258	-0.210
-626.463	13.814	0.314	0.247
-625.449	-19.191	0.343	0.216
-624.434	-101.107	-0.043	-0.011
-623.419	-41.400	-0.099	-0.051
-622.405	-64.234	0.136	-0.056
-621.390	568.175	-0.149	0.366
-620.376	-140.261	0.102	-0.011
-619.361	-63.041	-0.131	0.055
-618.346	655.244	-0.014	0.037
-617.332	3.035	-0.237	0.174
-616.317	168.358	0.038	0.054
-615.303	-67.515	0.077	-0.031
-614.288	-94.181	0.159	-0.044
-613.273	-180.887	0.238	0.005
-612.259	800.000	0.079	-0.251
-611.244	800.000	0.043	-0.181
-610.230	58.643	0.190	0.189
-609.215	-6.250	-0.293	-0.202
-608.201	800.000	-0.090	-0.270
-607.186	3.273	0.272	-0.200
-606.171	-10.008	-0.085	-0.057
-605.157	-143.058	0.214	0.021
-604.142	-200.000	-0.016	-0.086
-603.128	207.514	-0.139	0.219
-602.113	-200.000	0.049	0.436
-601.098	436.782	0.033	-0.073
-600.084	505.814	-0.133	0.311
-599.069	-10.920	-0.134	-0.089
-598.055	-200.000	0.020	-0.151
-597.040	-131.679	-0.334	0.044
-596.025	-166.224	-0.343	-0.015
-595.011	650.300	-0.066	0.171
-593.996	-200.000	-0.026	-0.143
-592.982	168.863	-0.087	0.125
-591.967	-200.000	0.050	-0.423
-590.952	-200.000	0.018	-0.294
-589.938	-200.000	-0.003	-0.116
-588.923	-94.728	0.166	-0.046
-587.909	64.263	0.024	-0.024
-586.894	54.873	0.144	0.141
-585.879	-0.456	0.197	-0.142
-584.865	-73.590	0.098	-0.036
-583.850	-200.000	0.010	-0.197
-582.836	90.675	-0.101	0.114
-581.821	507.005	0.091	-0.212
-580.806	344.585	0.029	0.058
-579.792	130.444	0.253	-0.328
-578.777	13.063	0.223	-0.174
-577.763	-200.000	-0.040	0.357
-576.748	-142.876	-0.069	0.007
-575.733	28.260	0.067	-0.057
-574.719	-200.000	-0.005	-0.091
-573.704	-63.446	-0.235	-0.098
-572.690	-50.149	-0.207	0.099
-571.675	-78.096	-0.200	0.070
-570.661	456.891	0.151	-0.339
-569.646	-50.844	0.227	0.108
-568.631	-109.303	0.146	-0.031
-567.617	-36.397	0.043	0.024
-566.602	-48.112	-0.133	-0.065
-565.588	492.287	0.056	0.129
-564.573	-104.509	-0.219	-0.051
-563.558	-98.278	-0.164	0.042
-562.544	704.771	-0.098	-0.262
-561.529	-97.619	0.159	-0.042
-560.515	45.158	-0.110	0.103
-559.500	-102.322	0.308	0.075
-558.485	-6.055	0.148	0.102
-557.471	-2.733	-0.375	0.265
-556.456	800.000	-0.096	-0.347
-555.442	326.032	-0.021	-0.040
-554.427	-74.341	-0.267	0.097
-553.412	-14.373	0.250	0.163
-552.398	-200.000	-0.018	0.263
-551.383	-109.667	-0.102	-0.022
-550.369	48.107	-0.177	-0.167
-549.354	-109.532	0.078	-0.017
-548.339	-42.318	0.117	-0.060
-547.325	-200.000	0.013	0.086
-546.310	51.587	-0.142	-0.137
-545.296	275.849	0.038	0.068
-544.281	-200.000	0.009	-0.361
-543.266	295.678	0.131	-0.241
-542.252	306.362	-0.200	0.375
-541.237	498.419	-0.069	-0.161
-540.223	58.124	-0.256	-0.253
-539.208	236.365	-0.116	-0.194
-538.193	-200.000	0.019	0.117
-537.179	-60.989	0.258	-0.110
-536.164	632.883	0.157	-0.401
-535.150	101.649	0.137	-0.162
-534.135	111.803	0.186	0.227
-533.121	-132.427	-0.272	-0.035
-532.106	-200.000	0.056	0.428
-531.091	-107.667	0.185	-0.041
-530.077	13.571	-0.040	-0.032
-529.062	-49.433	0.187	-0.090
-528.048	-140.413	-0.276	0.029
-527.033	122.796	-0.198	0.249
-526.018	5.813	0.178	-0.133
-525.004	-200.000	0.090	0.430
-523.989	26.425	-0.107	-0.090
-522.975	-95.849	0.124	0.033
-521.960	-200.000	0.006	-0.054
-520.945	-200.000	-0.031	-0.224
-519.931	166.986	0.113	0.162
-518.916	800.000	-0.064	-0.211
-517.902	122.302	0.126	0.159
-516.887	33.433	0.265	0.232
-515.872	-200.000	-0.010	-0.118
-514.858	800.000	0.081	0.237
-513.843	-107.459	-0.064	0.014
-512.829	-200.000	0.018	0.120
-511.814	-39.308	0.185	-0.098
-510.799	-85.652	-0.197	0.062
-509.785	-48.279	-0.131	0.064
-508.770	-200.000	0.024	-0.241
-507.756	-200.000	-0.020	0.086
-506.741	70.385	0.050	-0.052
-505.726	-112.338	-0.198	0.040
-504.712	-150.315	-0.018	0.001
-503.697	-22.890	-0.224	-0.136
-502.683	530.826	0.104	-0.248
-501.668	-163.375	0.277	0.013
-500.653	-23.628	-0.156	0.094
-499.639	-7.287	0.229	-0.156
-498.624	-117.534	0.373	-0.068
-497.610	96.342	-0.105	-0.121
-496.595	-8.437	-0.186	0.126
-495.581	-1.942	0.415	0.294
-494.566	800.000	-0.012	0.051
-493.551	-200.000	-0.026	-0.137
-492.537	107.596	-0.138	-0.165
-491.522	-26.092	-0.074	-0.044
-490.508	-200.000	0.007	0.043
-489.493	-14.361	0.051	0.033
-488.478	-107.989	0.275	-0.060
-487.464	569.345	-0.047	0.116
-486.449	15.965	0.123	-0.097
-485.435	117.070	-0.166	0.205
-484.420	179.073	0.226	0.332
-483.405	-200.000	-0.004	-0.142
-482.391	800.000	0.080	-0.240
-481.376	-29.276	-0.093	-0.054
-480.362	-23.961	0.192	-0.115
-479.347	-200.000	-0.016	0.117
-478.332	-200.000	0.037	-0.188
-477.318	800.000	-0.125	-0.418
-476.303	-102.319	0.248	-0.060
-475.289	-113.012	-0.426	-0.085
-474.274	-58.678	-0.385	0.168
-473.259	55.214	-0.096	0.093
-472.245	-102.279	0.322	-0.078
-471.230	89.539	0.154	-0.173
-470.216	53.984	-0.218	-0.211
-469.201	-23.042	-0.424	0.257
-468.186	597.016	0.061	0.153
-467.172	-200.000	0.021	0.177
-466.157	35.544	0.089	-0.079
-465.143	-200.000	-0.001	0.288
-464.128	800.000	0.087	0.259
-463.113	-93.066	-0.176	-0.049
-462.099	156.263	0.111	-0.154
-461.084	-119.044	-0.109	0.019
-460.070	-55.971	0.226	-0.101
-459.055	20.858	0.194	-0.158
-458.040	-11.741	0.210	-0.138
-457.026	102.239	0.121	-0.142
-456.011	-200.000	-0.010	0.105
-454.997	-62.614	-0.293	0.122
-453.982	-24.979	0.209	0.125
-452.968	290.632	-0.124	0.227
-451.953	-30.885	-0.068	-0.039
-450.938	-12.984	-0.127	0.083
-449.924	-172.147	-0.332	0.011
-448.909	-68.623	-0.208	-0.081
-447.895	-114.979	0.153	-0.029
-446.880	-37.065	-0.299	-0.161
-445.865	-200.000	0.005	0.124
-444.851	-98.835	-0.118	0.030
-443.836	-15.978	-0.164	-0.105
-442.822	-131.926	-0.174	0.023
-441.807	84.442	0.230	-0.253
-440.792	-28.126	0.400	-0.232
-439.778	165.875	0.061	0.086
-438.763	110.085	0.080	0.097
-437.749	-200.000	-0.027	0.334
-436.734	800.000	-0.108	-0.365
-435.719	105.418	-0.224	-0.265
-434.705	-200.000	-0.019	-0.201
-433.690	237.629	-0.054	-0.090
-432.676	235.678	0.149	0.247
-431.661	643.577	0.058	0.149
-430.646	144.099	-0.121	-0.163
-429.632	322.478	0.027	-0.052
-428.617	-59.333	0.206	0.089
-427.603	-174.297	0.083	0.002
-426.588	-104.177	0.066	0.015
-425.573	-98.388	-0.141	-0.036
-424.559	185.953	0.034	0.051
-423.544	-200.000	0.044	0.221
-422.530	265.863	0.045	-0.080
-421.515	128.632	0.068	-0.088
-420.500	-127.850	0.142	0.021
-419.486	56.778	-0.065	0.064
-418.471	-200.000	-0.043	-0.206
-417.457	90.014	0.258	0.289
-416.442	48.739	0.239	-0.225
-415.428	-3.118	-0.390	0.273
-414.413	45.166	0.041	0.038
-413.398	-200.000	-0.036	-0.494
-412.384	246.426	-0.031	0.053
-411.369	800.000	0.040	-0.112
-410.355	-20.072	0.055	0.034
-409.340	800.000	-0.064	-0.201
-408.325	87.358	-0.125	-0.139
-407.311	-200.000	0.043	0.000
-406.296	-79.616	0.273	0.092
-405.282	-119.520	0.341	-0.059
-404.267	-145.905	0.308	0.027
-403.252	29.210	-0.169	0.144
-402.238	90.651	0.162	0.182
-401.223	-52.100	-0.010	0.005
-400.209	-83.351	0.279	-0.090
-399.194	43.753	-0.072	0.066
-398.179	19.326	0.101	0.082
-397.165	-69.712	-0.212	0.081
-396.150	-66.226	0.174	-0.070
-395.136	19.911	-0.234	-0.189
-394.121	31.951	0.329	0.284
-393.106	-62.019	-0.338	-0.142
-392.092	-53.152	0.298	0.137
-391.077	59.525	0.231	0.229
-390.063	-21.445	0.190	0.116
-389.048	-15.892	0.061	0.039
-388.033	-58.000	0.143	0.063
-387.019	800.000	0.063	-0.230
-386.004	-113.153	-0.267	-0.053
-384.990	590.508	0.054	0.135
-383.975	10.936	-0.093	0.071
-382.960	-86.389	-0.339	-0.104
-381.946	-169.598	0.174	0.006
-380.931	800.000	-0.093	-0.372
-379.917	403.242	-0.045	-0.096
-378.902	800.000	-0.138	0.475
-377.888	553.129	-0.141	0.339
-376.873	23.586	0.165	0.136
-375.858	800.000	-0.078	0.281
-374.844	-46.152	0.051	-0.025
-373.829	99.742	0.240	0.279
-372.815	-200.000	0.013	-0.219
-371.800	-200.000	0.015	-0.175
-370.785	490.941	-0.020	0.045
-369.771	-12.186	0.305	-0.200
-368.756	-134.874	-0.308	-0.037
-367.742	800.000	0.071	-0.210
-366.727	-22.712	0.296	-0.179
-365.712	-200.000	0.035	0.286
-364.698	-66.200	-0.154	0.061
-363.683	52.126	-0.083	-0.079
-362.669	124.168	-0.158	-0.199
-361.654	28.973	-0.274	-0.233
-360.639	130.609	-0.116	-0.149
-359.625	800.000	0.079	-0.241
-358.610	-122.657	0.067	-0.011
-357.596	-111.588	-0.125	0.025
-356.581	137.741	-0.145	0.190
-355.566	65.654	-0.117	0.119
-354.552	-153.216	0.319	-0.022
-353.537	-37.451	-0.220	-0.117
-352.523	-200.000	0.003	0.243
-351.508	419.436	-0.090	0.193
-350.493	374.803	0.115	-0.235
-349.479	108.252	0.109	0.131
-348.464	208.287	0.107	0.168
-347.450	-200.000	-0.036	-0.235
-346.435	214.516	-0.093	-0.147
-345.420	800.000	-0.048	0.202
-344.406	-28.484	-0.119	-0.069
-343.391	-164.673	-0.436	0.020
-342.377	90.367	-0.333	0.373
-341.362	800.000	-0.037	-0.132
-340.348	-135.355	-0.401	-0.048
-339.333	-155.268	0.403	0.026
-338.318	-88.524	0.363	0.108
-337.304	15.932	-0.171	-0.135
-336.289	-87.884	-0.057	-0.017
-335.275	130.617	-0.129	-0.166
-334.260	336.436	0.130	-0.252
-333.245	-22.240	0.234	0.142
-332.231	234.003	0.057	-0.093
-331.216	230.050	0.230	0.376
-330.202	17.892	0.046	0.036
-329.187	523.539	-0.101	-0.237
-328.172	-84.899	0.025	-0.008
-327.158	421.746	0.119	-0.255
-326.143	303.662	-0.141	0.262
-325.129	-103.048	-0.121	0.029
-324.114	-152.800	-0.298	-0.021
-323.099	-15.550	-0.164	0.105
-322.085	598.638	0.098	-0.244
-321.070	-143.918	-0.074	0.007
-320.056	22.240	-0.106	-0.086
-319.041	41.186	-0.249	-0.225
-318.026	-177.923	-0.207	0.005
-317.012	-23.541	-0.336	0.201
-315.997	-173.320	-0.179	-0.005
-314.983	-200.000	-0.007	0.042
-313.968	74.114	0.140	-0.147
-312.953	-98.587	0.074	0.019
-311.939	-70.502	0.209	-0.079
-310.924	-8.922	-0.375	0.251
-309.910	-154.875	0.114	-0.008
-308.895	20.573	0.220	0.178
-307.880	-124.070	-0.315	0.049
-306.866	-164.192	-0.112	0.005
-305.851	655.595	-0.031	-0.079
-304.837	800.000	0.052	-0.220
-303.822	-10.544	-0.301	0.199
-302.807	-113.137	0.387	-0.076
-301.793	-101.964	0.180	0.044
-300.778	-200.000	0.017	0.112
-299.764	56.001	-0.180	0.174
-298.749	183.973	-0.176	0.261
-297.735	-200.000	0.017	-0.168
-296.720	-122.533	-0.086	-0.014
-295.705	-161.988	-0.292	0.015
-294.691	-200.000	-0.019	-0.125
-293.676	206.090	0.030	-0.046
-292.662	800.000	0.049	-0.138
-291.647	800.000	0.036	0.106
-290.632	-154.297	-0.191	0.013
-289.618	89.956	0.001	-0.001
-288.603	-70.995	0.342	-0.128
-287.589	156.530	-0.217	0.299
-286.574	207.925	0.076	-0.119
-285.559	255.292	0.246	-0.420
-284.545	95.729	-0.111	-0.127
-283.530	363.506	-0.128	0.256
-282.516	357.338	-0.037	0.073
-281.501	45.864	0.106	0.098
-280.486	-192.560	0.076	0.001
-279.472	761.489	-0.084	-0.228
-278.457	24.165	0.120	0.099
-277.443	50.797	-0.070	0.067
-276.428	41.823	0.232	-0.210
-275.413	162.264	-0.195	0.272
-274.399	42.608	-0.234	-0.213
-273.384	-200.000	-0.011	-0.184
-272.370	105.544	-0.116	-0.137
-271.355	34.656	-0.054	-0.047
-270.340	642.062	0.085	-0.217
-269.326	-145.992	0.388	-0.034
-268.311	-148.878	-0.093	0.008
-267.297	72.328	-0.043	-0.045
-266.282	-200.000	0.056	-0.295
-265.267	658.103	0.065	0.167
-264.253	-200.000	-0.001	0.039
-263.238	273.237	0.050	-0.087
-262.224	800.000	-0.072	-0.206
-261.209	239.506	0.045	0.074
-260.195	-118.903	0.156	-0.027
-259.180	148.429	-0.133	0.179
-258.165	713.537	-0.121	0.319
-257.151	341.439	0.056	-0.110
-256.136	-37.834	-0.206	0.109
-255.122	1.208	0.099	-0.071
-254.107	-45.710	-0.152	-0.075
-253.092	-200.000	0.035	0.176
-252.078	80.585	0.027	-0.029
-251.063	7.375	0.271	-0.202
-250.049	-76.767	-0.323	0.113
-249.034	-129.011	-0.208	-0.029
-248.019	98.240	-0.033	0.038
-247.005	313.218	-0.201	0.377
-245.990	800.000	0.010	0.042
-244.976	800.000	0.036	-0.108
-243.961	-71.169	0.174	-0.065
-242.946	59.198	-0.361	0.355
-241.932	302.317	-0.092	0.169
-240.917	-51.860	-0.222	-0.103
-239.903	581.548	-0.043	0.106
-238.888	1.914	-0.247	0.177
-237.873	169.406	0.185	-0.264
-236.859	5.638	0.175	-0.129
-235.844	777.134	-0.125	0.339
-234.830	159.079	0.162	-0.225
-233.815	62.949	-0.143	-0.142
-232.800	18.554	-0.002	-0.001
-231.786	-200.000	0.066	0.297
-230.771	385.565	0.095	-0.196
-229.757	-88.576	-0.168	0.050
-228.742	36.656	0.431	0.379
-227.727	-84.614	0.121	-0.038
-226.713	110.990	-0.049	-0.058
-225.698	-1.208	-0.133	-0.094
-224.684	-172.528	-0.416	0.013
-223.669	-95.473	0.485	0.130
-222.655	-200.000	0.011	-0.081
-221.640	-105.177	0.270	-0.061
-220.625	79.053	0.054	0.058
-219.611	-50.578	0.312	0.147
-218.596	-66.198	-0.206	-0.082
-217.582	533.985	-0.027	-0.065
-216.567	-200.000	-0.020	0.161
-215.552	-15.559	0.277	0.176
-214.538	77.965	0.214	0.228
-213.523	-52.010	-0.099	0.046
-212.509	-178.278	0.377	0.009
-211.494	-78.394	-0.283	-0.097
-210.479	501.302	-0.082	-0.189
-209.465	208.480	-0.173	-0.269
-208.450	-200.000	-0.038	0.183
-207.436	-162.083	-0.030	-0.002
-206.421	418.769	-0.086	-0.184
-205.406	800.000	0.120	0.334
-204.392	-83.813	-0.248	0.079
-203.377	-133.343	0.027	0.003
-202.363	41.314	-0.087	-0.078
-201.348	-200.000	-0.006	0.046
-200.333	237.384	0.127	-0.209
-199.319	-82.106	0.181	0.059
-198.304	-200.000	-0.009	0.108
-197.290	800.000	0.148	0.447
-196.275	-175.728	0.068	0.002
-195.260	-79.418	0.076	-0.026
-194.246	-200.000	-0.064	0.327
-193.231	-76.094	-0.039	-0.014
-192.217	314.403	0.118	-0.220
-191.202	-114.598	0.285	0.054
-190.187	800.000	0.038	-0.138
-189.173	-147.585	0.087	-0.007
-188.158	-121.877	-0.223	-0.037
-187.144	-76.347	0.268	0.094
-186.129	4.560	-0.220	-0.160
-185.114	727.181	-0.034	-0.091
-184.100	228.032	-0.145	-0.235
-183.085	-200.000	-0.018	-0.227
-182.071	110.221	0.255	-0.304
-181.056	800.000	0.084	-0.305
-180.042	-200.000	0.193	0.001
-179.027	142.773	-0.076	-0.101
-178.012	72.851	0.080	-0.083
-176.998	-200.000	-0.001	0.067
-175.983	-22.802	0.260	0.156
-174.969	31.875	0.057	-0.049
-173.954	-56.094	-0.093	0.041
-172.939	-59.721	0.294	-0.125
-171.925	214.017	-0.069	0.109
-170.910	-145.771	0.445	0.039
-169.896	-131.469	-0.034	0.005
-168.881	-130.826	-0.545	-0.073
-167.866	-84.840	0.196	-0.061
-166.852	-200.000	0.011	-0.106
-165.837	-200.000	0.028	0.526
-164.823	-38.089	0.305	0.161
-163.808	800.000	-0.033	-0.110
-162.793	-81.320	-0.140	-0.046
-161.779	-191.833	-0.203	0.002
-160.764	-200.000	-0.026	0.142
-159.750	57.494	0.380	0.369
-158.735	800.000	-0.046	0.133
-157.720	2.127	-0.140	0.100
-156.706	73.562	0.079	-0.082
-155.691	-63.670	-0.164	0.067
-154.677	-200.000	0.020	0.146
-153.662	78.524	-0.161	0.171
-152.647	-6.946	-0.089	-0.060
-151.633	-169.679	0.176	-0.006
-150.618	78.183	-0.159	0.168
-149.604	-16.969	-0.289	-0.181
-148.589	67.942	0.140	0.142
-147.574	-200.000	0.016	-0.261
-146.560	-56.718	0.123	0.054
-145.545	-139.629	-0.245	-0.026
-144.531	800.000	0.093	0.305
-143.516	-132.668	-0.109	-0.014
-142.502	80.485	0.095	-0.102
-141.487	-56.416	-0.118	-0.052
-140.472	222.892	-0.231	0.369
-139.458	-153.856	-0.194	-0.013
-138.443	217.430	-0.051	-0.080
-137.429	-200.000	-0.024	-0.320
-136.414	114.728	0.134	0.162
-135.399	341.123	-0.137	-0.265
-134.385	528.084	-0.051	-0.120
-133.370	73.145	-0.037	-0.039
-132.356	-140.832	-0.129	-0.013
-131.341	143.761	-0.084	-0.111
-130.326	-200.000	0.021	-0.301
-129.312	-76.029	-0.295	-0.104
-128.297	-89.004	0.222	0.065
-127.283	-200.000	0.032	0.316
-126.268	644.941	-0.046	-0.116
-125.253	800.000	0.041	-0.148
-124.239	-48.607	0.207	0.099
-123.224	111.173	0.101	-0.120
-122.210	-200.000	0.001	-0.370
-121.195	-86.613	0.069	-0.021
-120.180	271.055	-0.218	-0.381
-119.166	31.253	0.178	-0.152
-118.151	10.563	-0.184	0.139
-117.137	-77.870	0.384	0.132
-116.122	-33.082	-0.111	-0.061
-115.107	161.570	-0.102	-0.142
-114.093	105.622	-0.107	-0.126
-113.078	-69.254	-0.161	0.061
-112.064	8.327	-0.130	-0.097
-111.049	-200.000	0.021	-0.253
-110.034	-14.954	-0.263	-0.167
-109.020	-200.000	-0.030	-0.293
-108.005	112.457	-0.221	0.265
-106.991	468.582	0.025	-0.055
-105.976	492.092	0.105	-0.239
-104.962	-20.977	0.217	-0.132
-103.947	21.863	-0.062	0.050
-102.932	-102.167	0.543	0.130
-101.918	33.370	0.214	0.184
-100.903	-147.067	0.050	0.004
-99.889	-200.000	0.022	0.357
-98.874	800.000	-0.192	0.563
-97.859	684.903	-0.102	-0.263
-96.845	-158.749	-0.169	-0.010
-95.830	-200.000	-0.097	-0.423
-94.816	-146.019	0.178	0.016
-93.801	120.931	-0.169	-0.208
-92.786	-7.557	-0.422	-0.283
-91.772	-139.343	0.254	-0.027
-90.757	800.000	0.130	0.487
-89.743	117.372	-0.113	0.138
-88.728	608.262	0.049	0.121
-87.713	-58.624	-0.323	0.139
-86.699	800.000	0.079	0.262
-85.684	692.738	-0.044	0.113
-84.670	-200.000	-0.064	0.331
-83.655	681.812	-0.010	-0.027
-82.640	389.817	-0.084	-0.172
-81.626	800.000	0.067	-0.286
-80.611	445.153	0.120	0.262
-79.597	-101.329	0.258	0.062
-78.582	-67.973	0.346	-0.134
-77.567	56.465	-0.174	-0.168
-76.553	-28.284	-0.239	-0.137
-75.538	-143.722	0.343	0.032
-74.524	102.065	-0.131	-0.152
-73.509	186.878	-0.204	0.302
-72.494	96.192	0.130	-0.147
-71.480	-24.683	0.186	0.109
-70.465	144.005	0.100	-0.132
-69.451	800.000	-0.046	-0.174
-68.436	-103.303	0.303	0.071
-67.422	-0.753	0.069	0.048
-66.407	317.374	0.055	0.103
-65.392	-157.595	0.189	-0.011
-64.378	-200.000	0.004	0.394
-63.363	645.737	-0.036	0.090
-62.349	28.091	0.126	-0.106
-61.334	193.123	-0.856	-1.280
-60.319	-53.579	0.651	0.295
-59.305	-200.000	0.008	-0.988
-58.290	800.000	0.257	1.109
-57.276	800.000	0.444	1.658
-56.261	-200.000	94.194	553.354
-55.246	517.486	1407.254	3258.185
-54.232	143.164	2650.702	3490.345
-53.217	111.790	2236.309	2671.969
-52.203	46.426	1674.256	1536.734
-51.188	38.038	1404.537	1236.276
-50.173	34.831	1360.464	1177.716
-49.159	55.310	1408.756	1348.341
-48.144	59.072	1427.007	1389.316
-47.130	38.419	1381.803	1218.446
-46.115	34.845	1363.420	1180.176
-45.100	34.628	1359.208	1175.142
-44.086	34.509	1356.316	1171.868
-43.071	34.518	1353.658	1169.577
-42.057	34.551	1351.830	1168.154
-41.042	34.573	1349.923	1166.597
-40.027	34.559	1348.275	1165.040
-39.013	34.543	1346.234	1163.131
-37.998	34.640	1343.849	1161.614
-36.984	34.590	1342.695	1160.266
-35.969	34.529	1341.249	1158.603
-34.954	34.755	1339.044	1158.022
-33.940	34.634	1338.288	1156.587
-32.925	34.772	1336.068	1155.457
-31.911	34.777	1334.961	1154.488
-30.896	34.798	1333.239	1153.078
-29.881	34.800	1332.221	1152.165
-28.867	34.791	1330.774	1150.810
-27.852	34.741	1329.261	1149.156
-26.838	34.747	1328.284	1148.301
-25.823	34.733	1326.152	1146.333
-24.809	34.697	1325.210	1145.255
-23.794	34.702	1323.433	1143.703
-22.779	34.682	1322.015	1142.312
-21.765	34.671	1320.926	1141.262
-20.750	34.633	1320.092	1140.267
-19.736	34.566	1318.774	1138.685
-18.721	34.544	1317.460	1137.372
-17.706	34.595	1315.641	1136.060
-16.692	34.579	1314.501	1134.939
-15.677	34.569	1313.512	1133.980
-14.663	34.602	1312.204	1133.004
-13.648	34.497	1311.114	1131.393
-12.633	34.587	1310.845	1131.651
-11.619	34.522	1309.813	1130.325
-10.604	34.495	1308.759	1129.216
-9.590	34.555	1307.447	1128.390
-8.575	34.480	1306.639	1127.208
-7.560	34.551	1305.720	1126.789
-6.546	34.564	1304.873	1126.088
-5.531	34.550	1304.166	1125.353
-4.517	34.518	1303.221	1124.300
-3.502	34.415	1302.808	1123.293
-2.487	34.517	1301.162	1122.433
-1.473	34.739	1297.246	1120.310
-0.458	34.136	1283.435	1104.843
0.556	30.789	1265.737	1069.450
1.571	26.470	1269.874	1047.898
2.586	24.464	1283.753	1047.503
3.600	22.548	1270.997	1025.857
4.615	15.941	1192.689	926.347
5.629	6.120	1110.765	812.109
6.644	1.489	1089.174	772.755
7.659	1.119	1086.738	769.077
8.673	1.053	1085.362	767.703
9.688	1.020	1084.329	766.737
10.702	1.274	1082.502	766.660
11.717	5.930	1088.732	794.621
12.731	13.617	1098.556	840.852
13.746	17.326	1102.481	862.633
14.761	17.642	1103.145	864.683
15.775	16.958	1101.021	859.477
16.790	16.033	1098.708	852.913
17.804	15.192	1097.485	847.637
18.819	14.837	1096.341	844.884
19.834	14.504	1095.052	842.137
20.848	14.349	1094.283	840.685
21.863	14.022	1093.308	838.214
22.877	13.897	1092.808	837.125
23.892	13.857	1091.889	836.148
24.907	13.800	1091.110	835.192
25.921	13.881	1090.401	834.980
26.936	13.927	1089.608	834.530
27.950	14.012	1088.427	833.977
28.965	13.940	1087.230	832.627
29.980	13.984	1085.608	831.532
30.994	14.071	1084.858	831.317
32.009	14.057	1084.243	830.705
33.023	14.209	1082.568	830.105
34.038	14.058	1081.842	828.723
35.053	13.975	1081.127	827.686
36.067	13.977	1079.873	826.664
37.082	14.006	1079.188	826.211
38.096	13.965	1078.774	825.615
39.111	14.003	1077.651	824.875
40.126	13.883	1076.718	823.490
41.140	13.840	1074.829	821.762
42.155	13.910	1074.369	821.683
43.169	13.849	1073.226	820.433
44.184	13.830	1072.403	819.638
45.199	13.892	1071.332	819.054
46.213	13.943	1069.558	817.876
47.228	14.033	1068.559	817.482
48.242	13.958	1067.870	816.515
49.257	13.961	1066.718	815.577
50.271	14.041	1065.636	815.070
51.286	14.032	1064.928	814.412
52.301	13.878	1063.903	812.799
53.315	13.966	1062.701	812.243
54.330	13.959	1061.759	811.413
55.344	13.870	1060.887	810.243
56.359	13.792	1060.161	809.238
57.374	13.809	1059.082	808.422
58.388	13.797	1058.325	807.715
59.403	13.751	1057.691	806.938
60.417	13.909	1056.487	806.714
61.432	13.817	1055.680	805.580
62.447	13.945	1054.632	805.331
63.461	13.797	1054.175	804.194
64.476	13.823	1053.306	803.582
65.490	13.756	1052.202	802.346
66.505	13.818	1052.069	802.472
67.520	13.795	1051.048	801.511
68.534	13.912	1050.342	801.471
69.549	13.939	1049.236	800.687
70.563	13.742	1048.686	799.246
71.578	13.841	1047.889	799.045
72.593	13.695	1047.594	798.043
73.607	13.810	1046.594	797.763
74.622	13.597	1046.266	796.420
75.636	13.755	1045.256	796.342
76.651	13.797	1044.268	795.720
77.666	13.691	1043.559	794.599
78.680	13.704	1043.300	794.396
79.695	13.693	1042.439	793.618
80.709	13.957	1041.422	794.032
81.724	13.906	1040.819	793.258
82.739	13.954	1039.787	792.634
83.753	13.845	1039.587	791.892
84.768	14.014	1038.295	791.643
85.782	14.165	1036.875	791.207
86.797	14.015	1036.282	789.971
87.812	13.931	1035.739	789.088
88.826	13.967	1034.445	788.204
89.841	13.941	1034.167	787.798
90.855	13.949	1033.166	787.003
91.870	13.924	1032.478	786.289
92.884	14.051	1031.018	785.708
93.899	14.018	1030.193	784.856
94.914	14.095	1029.257	784.437
95.928	14.071	1028.655	783.797
96.943	13.966	1027.376	782.259
97.957	13.951	1027.012	781.841
98.972	14.044	1025.877	781.344
99.987	14.055	1024.698	780.431
101.001	14.018	1023.899	779.579
102.016	14.104	1022.832	779.099
103.030	14.065	1022.617	778.683
104.045	14.052	1021.857	777.975
105.060	14.053	1020.460	776.850
106.074	13.969	1019.114	775.361
107.089	13.872	1018.710	774.534
108.103	13.875	1018.304	774.169
109.118	13.931	1016.785	773.207
110.133	13.913	1015.489	772.071
111.147	13.818	1015.247	771.376
112.162	14.019	1014.284	771.511
113.176	13.967	1014.014	770.995
114.191	14.095	1012.457	770.338
115.206	13.947	1012.304	769.464
116.220	13.991	1011.291	768.834
117.235	14.091	1009.671	767.994
118.249	13.991	1008.946	766.915
119.264	14.007	1008.304	766.429
120.279	14.064	1007.623	766.106
121.293	14.014	1006.971	765.316
122.308	13.971	1005.817	764.174
123.322	14.089	1004.759	763.841
124.337	13.992	1003.617	762.463
125.352	13.968	1003.249	762.004
126.366	14.069	1001.627	761.169
127.381	14.002	1000.725	760.111
128.395	13.920	1000.052	759.154
129.410	14.118	999.027	759.216
130.424	14.089	998.386	758.528
131.439	14.221	997.098	758.084
132.454	14.074	996.324	756.761
133.468	13.994	995.740	755.886
134.483	14.177	994.900	756.009
135.497	14.094	993.815	754.742
136.512	14.087	993.195	754.175
137.527	14.112	992.187	753.457
138.541	14.099	991.385	752.722
139.556	14.128	990.658	752.231
140.570	14.134	990.148	751.808
141.585	14.214	989.192	751.377
142.600	14.202	988.374	750.635
143.614	14.208	987.177	749.687
144.629	14.337	986.694	749.831
145.643	14.262	985.494	748.515
146.658	14.195	984.730	747.572
147.673	14.224	983.947	747.037
148.687	14.099	983.075	745.752
149.702	14.284	981.593	745.391
150.716	14.163	980.715	744.113
151.731	14.201	980.619	744.146
152.746	14.282	979.628	743.689
153.760	14.190	978.981	742.724
154.775	14.173	978.551	742.252
155.789	14.104	978.092	741.534
156.804	14.251	976.975	741.277
157.819	14.236	976.481	740.767
158.833	14.348	975.962	740.809
159.848	14.439	974.633	740.138
160.862	14.378	974.243	739.503
161.877	14.371	972.946	738.422
162.892	14.228	972.342	737.267
163.906	14.153	971.627	736.328
164.921	14.415	970.243	736.373
165.935	14.274	969.549	735.157
166.950	14.228	968.940	734.428
167.964	14.334	967.910	734.047
168.979	14.349	966.809	733.213
169.994	14.331	966.147	732.566
171.008	14.279	965.444	731.742
172.023	14.470	964.652	731.915
173.037	14.486	963.551	731.083
174.052	14.511	962.865	730.608
175.067	14.395	962.622	729.852
176.081	14.447	961.727	729.335
177.096	14.429	961.110	728.728
178.110	14.454	960.446	728.267
179.125	14.547	959.648	728.005
180.140	14.511	959.378	727.576
181.154	14.479	958.920	727.024
182.169	14.547	958.345	726.823
183.183	14.519	957.638	726.100
184.198	14.691	956.408	725.852
185.213	14.594	955.981	725.039
186.227	14.656	955.211	724.664
187.242	14.735	954.534	724.428
188.256	14.589	954.281	723.537
189.271	14.587	952.929	722.439
190.286	14.428	952.580	721.424
191.300	14.521	951.882	721.234
192.315	14.640	951.103	721.093
193.329	14.540	950.858	720.413
194.344	14.521	950.355	719.885
195.359	14.576	949.471	719.388
196.373	14.675	948.474	718.994
197.388	14.590	948.613	718.670
198.402	14.816	947.576	718.797
199.417	14.756	947.028	718.059
200.432	14.766	946.495	717.631
201.446	14.828	946.027	717.481
202.461	14.857	945.390	717.058
203.475	14.915	944.733	716.745
204.490	14.882	943.908	715.915
205.504	14.845	943.395	715.302
206.519	14.802	942.534	714.403
207.534	14.911	941.682	714.160
208.548	14.890	941.022	713.506
209.563	14.844	940.532	712.877
210.577	14.731	940.028	711.950
211.592	14.972	938.944	712.090
212.607	15.056	937.870	711.570
213.621	14.973	937.192	710.641
214.636	14.987	936.674	710.246
215.650	14.973	936.321	709.853
216.665	15.090	935.247	709.471
217.680	15.072	934.520	708.781
218.694	15.116	933.661	708.254
219.709	15.052	933.316	707.658
220.723	14.946	932.706	706.687
221.738	15.050	932.033	706.553
222.753	15.170	930.901	706.141
223.767	15.210	930.554	705.982
224.782	15.209	930.017	705.510
225.796	15.146	929.512	704.797
226.811	15.129	928.705	704.050
227.826	15.055	928.336	703.397
228.840	15.146	926.895	702.627
229.855	15.127	926.245	701.990
230.869	15.152	925.603	701.547
231.884	15.223	924.978	701.307
232.899	15.135	924.220	700.303
233.913	15.262	923.436	700.178
234.928	15.220	922.588	699.300
235.942	15.216	922.290	698.994
236.957	15.170	921.897	698.445
237.972	15.204	921.276	698.050
238.986	15.177	920.444	697.250
240.001	15.294	919.696	697.104
241.015	15.299	919.488	696.908
242.030	15.215	919.072	696.182
243.045	15.406	918.070	696.155
244.059	15.350	917.243	695.233
245.074	15.323	916.798	694.721
246.088	15.322	915.855	693.941
247.103	15.301	915.472	693.503
248.117	15.364	914.694	693.111
249.132	15.386	914.227	692.787
250.147	15.543	913.630	692.922
251.161	15.558	912.669	692.195
252.176	15.623	912.094	691.965
253.190	15.638	911.425	691.458
254.205	15.631	910.701	690.819
255.220	15.525	910.190	689.935
256.234	15.589	909.776	689.824
257.249	15.695	908.939	689.561
258.263	15.754	907.853	688.917
259.278	15.594	907.937	688.264
260.293	15.689	907.115	687.971
261.307	15.831	906.097	687.718
262.322	15.723	905.768	686.967
263.336	15.783	904.899	686.490
264.351	15.905	904.056	686.286
265.366	15.780	903.580	685.357
266.380	15.893	902.967	685.290
267.395	15.941	902.094	684.762
268.409	15.908	901.446	684.075
269.424	15.889	900.678	683.357
270.439	15.964	899.912	683.017
271.453	15.975	899.422	682.628
272.468	15.946	898.773	681.961
273.482	15.864	898.274	681.188
274.497	15.935	897.546	680.862
275.512	15.882	897.049	680.212
276.526	16.040	895.951	679.957
277.541	16.080	895.526	679.734
278.555	16.019	895.506	679.414
279.570	16.259	894.348	679.443
280.585	16.019	893.938	678.106
281.599	16.217	892.651	677.863
282.614	16.063	892.307	676.926
283.628	16.062	891.691	676.391
284.643	16.098	891.006	675.960
285.657	16.226	890.455	675.991
286.672	16.083	890.053	675.055
287.687	16.171	889.162	674.670
288.701	16.175	888.657	674.246
289.716	16.192	888.275	673.963
290.730	16.157	887.454	673.140
291.745	16.151	887.112	672.799
292.760	16.288	885.959	672.411
293.774	16.346	884.952	671.819
294.789	16.280	885.071	671.586
295.803	16.134	884.319	670.376
296.818	16.204	883.582	670.034
297.833	16.280	882.895	669.757
298.847	16.307	882.132	669.224
299.862	16.494	881.517	669.439
300.876	16.297	881.302	668.438
301.891	16.479	880.544	668.524
302.906	16.375	880.023	667.656
303.920	16.458	879.603	667.608
304.935	16.536	878.847	667.281
305.949	16.632	877.708	666.736
306.964	16.480	877.659	666.043
307.979	16.601	876.844	665.842
308.993	16.618	876.104	665.287
310.008	16.528	875.892	664.714
311.022	16.646	875.069	664.493
312.037	16.618	874.208	663.671
313.052	16.472	874.127	662.980
314.066	16.563	873.281	662.634
315.081	16.532	872.825	662.108
316.095	16.594	872.588	662.113
317.110	16.598	871.203	661.018
318.125	16.601	870.932	660.764
319.139	16.578	870.429	660.238
320.154	16.638	870.047	660.123
321.168	16.627	869.579	659.667
322.183	16.591	869.134	659.130
323.197	16.532	868.645	658.471
324.212	16.679	867.815	658.356
325.227	16.677	867.240	657.855
326.241	16.739	866.666	657.600
327.256	16.732	866.228	657.181
328.270	16.700	865.631	656.547
329.285	16.649	864.879	655.721
330.300	16.632	864.618	655.399
331.314	16.719	863.912	655.143
332.329	16.907	862.949	655.079
333.343	16.873	863.044	654.965
334.358	16.927	862.446	654.661
335.373	16.946	861.875	654.242
336.387	16.887	861.478	653.656
337.402	16.796	861.655	653.380
338.416	16.930	860.993	653.336
339.431	16.882	860.900	653.024
340.446	16.976	860.246	652.832
341.460	16.969	859.636	652.284
342.475	17.058	859.266	652.287
343.489	16.966	858.959	651.645
344.504	17.112	858.092	651.491
345.519	17.091	858.023	651.300
346.533	17.164	857.464	651.096
347.548	17.163	856.853	650.569
348.562	17.033	856.196	649.515
349.577	16.990	855.696	648.916
350.592	16.990	854.986	648.320
351.606	17.137	854.237	648.254
352.621	17.135	853.507	647.639
353.635	17.117	852.857	647.016
354.650	17.138	852.225	646.561
355.665	17.175	851.709	646.251
356.679	17.169	851.190	645.780
357.694	17.148	850.416	645.055
358.708	17.398	849.653	645.366
359.723	17.293	849.211	644.578
360.738	17.414	847.974	644.039
361.752	17.342	848.132	643.827
362.767	17.267	847.549	643.045
363.781	17.293	846.914	642.606
364.796	17.308	846.728	642.462
365.810	17.432	846.196	642.472
366.825	17.558	845.551	642.402
367.840	17.424	845.168	641.547
368.854	17.569	844.364	641.425
369.869	17.383	844.311	640.629
370.883	17.437	844.111	640.623
371.898	17.527	843.168	640.190
372.913	17.474	843.064	639.855
373.927	17.546	842.428	639.585
374.942	17.641	841.744	639.368
375.956	17.644	841.424	639.076
376.971	17.583	841.009	638.480
377.986	17.606	840.578	638.179
379.000	17.701	839.943	637.997
380.015	17.651	839.632	637.519
381.029	17.729	839.063	637.322
382.044	17.735	838.333	636.732
383.059	17.808	837.695	636.464
384.073	17.564	837.612	635.435
385.088	17.687	836.519	635.007
386.102	17.711	836.300	634.872
387.117	17.717	835.624	634.325
388.132	17.731	834.925	633.791
389.146	17.826	834.239	633.569
390.161	17.833	833.989	633.346
391.175	17.886	833.373	633.020
392.190	17.959	832.676	632.705
393.205	17.908	832.435	632.279
394.219	17.833	832.213	631.777
395.234	17.756	831.964	631.244
396.248	17.755	831.527	630.855
397.263	17.770	830.886	630.367
398.278	17.759	830.458	629.946
399.292	17.857	830.247	630.093
400.307	17.818	829.543	629.360
401.321	17.894	829.057	629.215
402.336	17.869	828.517	628.658
403.350	17.980	828.089	628.685
404.365	17.983	828.144	628.681
405.380	18.000	827.202	627.974
406.394	18.077	826.683	627.807
407.409	18.209	825.874	627.624
408.423	18.095	825.749	627.054
409.438	18.165	825.657	627.183
410.453	18.007	825.430	626.377
411.467	18.123	824.383	625.951
412.482	18.220	824.128	626.060
413.496	18.290	823.804	626.012
414.511	18.281	823.459	625.664
415.526	18.208	823.057	625.035
416.540	18.209	822.360	624.455
417.555	18.297	821.736	624.247
418.569	18.222	821.669	623.865
419.584	18.391	821.031	623.941
420.599	18.310	820.554	623.228
421.613	105.005	1285.434	1442.330
422.628	90.805	1353.157	1442.418
