DTS Sentinel unit serial number:	SN413079Multiplexer serial number:	ORYXHardware model number:	OX4-SRSoftware version number:	ORYX F/W v4.00 Oryx Data Collector v3.7.2.0data status	okinstallation	princeton_trtdifferential loss correction	single-endedforward channel	channel 1reverse channel	N/Adate	2019/09/13time	03:14:35forward acquisition time	60.00reverse acquisition time	0.00gamma	496.2192k internal	0.2332k external	0.2332temperature offset calibration	1.0162default loss term (dB/km)	0.3790temperature slope calibration	1.0000multiplexer offset coefficient	1.0000multiplexer slope coefficient	1.0000fibre end	0.00T internal ref (°C)	27.41T ext. ref 1 (°C)	4.09T ext. ref 2 (°C)	22.14length (m)	temperature (°C)	Stokes	anti-Stokes-747.200	357.468	0.013	-0.026
-746.185	-200.000	-0.030	0.242
-745.171	-35.354	0.213	-0.116
-744.156	800.000	-0.093	-0.293
-743.142	-65.056	-0.218	0.088
-742.127	-148.469	-0.024	0.002
-741.112	735.413	-0.121	-0.326
-740.098	-200.000	-0.048	0.214
-739.083	-53.785	0.163	0.075
-738.069	-13.652	0.027	-0.017
-737.054	190.119	-0.119	-0.180
-736.039	134.386	0.036	-0.046
-735.025	92.856	-0.107	-0.122
-734.010	-118.940	-0.216	0.038
-732.996	33.957	-0.236	-0.207
-731.981	800.000	-0.073	-0.278
-730.966	-102.422	0.623	0.150
-729.952	83.376	-0.253	0.277
-728.937	-117.582	-0.230	-0.042
-727.923	-113.288	-0.229	0.045
-726.908	-140.354	-0.384	-0.040
-725.894	800.000	0.025	0.076
-724.879	-42.560	-0.152	0.078
-723.864	-144.744	-0.340	-0.031
-722.850	-200.000	0.036	0.421
-721.835	-17.492	-0.455	0.288
-720.821	-13.905	0.240	-0.156
-719.806	9.782	-0.218	0.166
-718.791	-23.261	-0.152	0.092
-717.777	-86.333	-0.202	0.063
-716.762	120.965	0.079	0.098
-715.748	153.603	0.241	0.332
-714.733	-88.060	0.470	0.142
-713.718	766.018	0.045	0.122
-712.704	338.263	-0.215	-0.421
-711.689	212.427	0.106	-0.168
-710.675	-100.441	-0.086	0.021
-709.660	800.000	0.059	0.233
-708.645	-200.000	0.029	-0.255
-707.631	-36.601	0.303	-0.164
-706.616	55.487	-0.274	-0.267
-705.602	129.635	0.124	-0.159
-704.587	226.685	-0.060	-0.097
-703.572	-168.218	-0.398	0.015
-702.558	35.098	0.061	0.054
-701.543	155.439	-0.124	0.171
-700.529	685.180	0.035	-0.092
-699.514	-178.188	-0.284	0.007
-698.499	-3.205	-0.146	0.102
-697.485	-119.298	-0.133	0.023
-696.470	211.585	0.184	-0.291
-695.456	9.708	0.129	-0.098
-694.441	-109.751	-0.417	-0.088
-693.426	494.993	0.059	-0.135
-692.412	317.554	0.158	0.300
-691.397	31.100	-0.241	-0.208
-690.383	75.984	-0.099	-0.105
-689.368	-15.278	-0.430	-0.276
-688.354	-101.721	-0.110	0.027
-687.339	800.000	-0.068	-0.211
-686.324	-83.012	0.259	-0.084
-685.310	-200.000	-0.087	-0.557
-684.295	-55.688	-0.118	0.053
-683.281	-121.717	-0.138	0.023
-682.266	-200.000	-0.020	-0.219
-681.251	-200.000	0.038	0.284
-680.237	-200.000	-0.007	-0.073
-679.222	69.477	-0.358	-0.370
-678.208	142.469	0.047	0.063
-677.193	800.000	0.095	0.391
-676.178	-62.631	0.065	0.027
-675.164	30.352	0.122	0.105
-674.149	288.930	-0.077	-0.140
-673.135	-200.000	0.002	-0.126
-672.120	-33.657	-0.109	0.060
-671.105	-200.000	-0.009	-0.061
-670.091	-200.000	-0.011	-0.264
-669.076	163.495	0.128	0.181
-668.062	-200.000	0.060	0.355
-667.047	-200.000	-0.002	0.305
-666.032	-98.574	-0.203	-0.052
-665.018	-108.103	0.387	0.084
-664.003	-58.431	0.154	0.067
-662.989	-200.000	0.059	-0.401
-661.974	605.659	-0.142	-0.354
-660.959	34.423	-0.148	-0.130
-659.945	800.000	0.083	-0.303
-658.930	29.661	0.154	-0.131
-657.916	-178.307	-0.125	-0.003
-656.901	169.777	0.186	0.267
-655.886	800.000	0.026	0.089
-654.872	79.182	-0.112	0.120
-653.857	-75.869	-0.173	0.061
-652.843	-82.752	0.038	0.012
-651.828	87.087	-0.174	-0.193
-650.814	-61.084	0.339	-0.144
-649.799	93.510	0.062	0.071
-648.784	205.123	-0.079	0.123
-647.770	21.371	-0.183	0.149
-646.755	-97.048	-0.099	0.026
-645.741	117.316	0.074	0.091
-644.726	21.609	-0.196	-0.160
-643.711	-9.998	0.256	-0.171
-642.697	-63.256	0.149	-0.062
-641.682	608.665	-0.024	-0.060
-640.668	-63.397	0.141	0.058
-639.653	800.000	0.040	-0.169
-638.638	119.495	0.079	0.098
-637.624	-125.903	-0.393	0.059
-636.609	-100.727	0.105	0.026
-635.595	-76.464	-0.215	-0.076
-634.580	438.864	-0.142	-0.310
-633.565	199.001	-0.112	0.171
-632.551	-94.088	-0.182	-0.050
-631.536	233.881	0.059	-0.098
-630.522	-148.475	0.282	-0.023
-629.507	-200.000	-0.019	0.178
-628.492	-167.274	-0.326	-0.013
-627.478	-128.032	0.134	-0.019
-626.463	115.691	-0.078	-0.095
-625.449	-23.920	-0.094	-0.056
-624.434	275.291	0.089	-0.158
-623.419	643.877	0.154	0.393
-622.405	50.291	-0.236	-0.223
-621.390	19.046	-0.122	0.098
-620.376	-200.000	-0.016	0.251
-619.361	-200.000	-0.021	0.152
-618.346	52.397	-0.202	-0.193
-617.332	-43.663	-0.124	0.063
-616.317	-200.000	0.035	0.380
-615.303	147.853	0.266	0.359
-614.288	447.162	-0.032	-0.070
-613.273	-52.380	0.424	0.197
-612.259	-4.822	-0.093	0.064
-611.244	-152.469	-0.193	0.014
-610.230	-53.527	-0.171	0.078
-609.215	800.000	0.056	0.208
-608.201	-55.216	0.160	0.072
-607.186	-121.134	0.313	-0.053
-606.171	-12.567	-0.180	-0.118
-605.157	-170.205	0.230	-0.008
-604.142	-67.332	-0.553	0.218
-603.128	-4.108	0.153	0.106
-602.113	72.976	0.173	-0.181
-601.098	-173.726	-0.081	0.002
-600.084	-23.334	-0.415	-0.249
-599.069	-200.000	-0.028	0.337
-598.055	800.000	0.084	0.320
-597.040	100.714	-0.035	0.040
-596.025	67.881	-0.155	0.158
-595.011	350.372	0.162	-0.321
-593.996	800.000	-0.017	-0.056
-592.982	60.200	-0.146	-0.144
-591.967	-200.000	-0.006	0.029
-590.952	-200.000	0.042	-0.554
-589.938	-43.147	-0.180	-0.091
-588.923	-129.179	0.356	-0.050
-587.909	151.945	-0.228	-0.311
-586.894	-126.512	-0.351	-0.052
-585.879	-80.440	-0.218	0.073
-584.865	18.981	0.110	-0.088
-583.850	190.552	-0.219	0.329
-582.836	-127.435	-0.231	0.034
-581.821	-200.000	-0.019	0.108
-580.806	384.287	-0.021	0.043
-579.792	225.586	0.179	-0.289
-578.777	166.716	-0.228	0.323
-577.763	-16.733	-0.166	0.105
-576.748	577.043	-0.190	-0.464
-575.733	3.828	-0.295	-0.216
-574.719	-25.536	-0.177	0.104
-573.704	800.000	0.067	-0.245
-572.690	694.208	0.098	0.256
-571.675	-130.086	0.062	0.009
-570.661	-46.672	-0.399	0.196
-569.646	35.835	-0.332	0.292
-568.631	-15.402	-0.197	-0.126
-567.617	55.162	0.370	-0.357
-566.602	200.370	0.058	0.089
-565.588	202.224	-0.135	0.209
-564.573	308.713	-0.027	-0.050
-563.558	-56.545	0.212	0.094
-562.544	114.485	-0.177	0.215
-561.529	-87.697	0.329	0.099
-560.515	-200.000	0.038	-0.173
-559.500	-200.000	-0.023	0.332
-558.485	-81.501	0.159	-0.052
-557.471	381.574	-0.088	-0.180
-556.456	-200.000	0.012	0.156
-555.442	187.846	0.182	0.272
-554.427	-97.056	0.271	0.071
-553.412	-88.781	-0.061	0.018
-552.398	-143.878	-0.254	0.024
-551.383	-74.786	-0.320	0.115
-550.369	158.629	0.126	-0.174
-549.354	-200.000	0.007	-0.271
-548.339	-200.000	0.006	-0.200
-547.325	178.489	-0.055	0.081
-546.310	40.256	0.234	0.210
-545.296	18.090	0.220	0.175
-544.281	86.657	0.085	-0.094
-543.266	21.729	-0.243	-0.198
-542.252	22.744	0.250	-0.204
-541.237	-44.723	0.263	0.131
-540.223	800.000	-0.051	0.215
-539.208	-121.760	-0.287	-0.047
-538.193	-58.465	-0.040	-0.017
-537.179	-91.312	0.301	0.086
-536.164	142.600	-0.195	0.258
-535.150	86.065	0.226	-0.248
-534.135	-22.380	-0.117	-0.071
-533.121	-200.000	-0.008	-0.105
-532.106	457.622	-0.095	-0.210
-531.091	753.000	-0.122	0.328
-530.077	-200.000	-0.038	0.169
-529.062	58.517	0.395	-0.386
-528.048	800.000	0.031	-0.115
-527.033	-48.962	0.313	0.150
-526.018	-81.590	0.315	-0.103
-525.004	-9.668	-0.116	-0.077
-523.989	75.625	-0.102	0.107
-522.975	137.412	0.250	0.326
-521.960	-33.667	-0.135	0.075
-520.945	-200.000	0.003	0.146
-519.931	76.881	0.163	0.173
-518.916	70.383	0.017	0.018
-517.902	-200.000	0.015	0.452
-516.887	-41.184	-0.230	-0.119
-515.872	-31.995	0.249	-0.139
-514.858	-90.549	0.250	0.072
-513.843	-53.066	0.264	-0.121
-512.829	-98.905	0.103	-0.026
-511.814	110.326	0.006	0.008
-510.799	619.530	0.074	0.186
-509.785	182.632	-0.066	0.096
-508.770	528.244	-0.100	-0.234
-507.756	800.000	0.181	-0.505
-506.741	366.098	0.027	0.054
-505.726	-200.000	-0.045	0.238
-504.712	118.380	-0.149	0.184
-503.697	94.400	0.024	0.027
-502.683	-200.000	-0.039	-0.281
-501.668	800.000	-0.108	0.334
-500.653	25.383	-0.313	0.259
-499.639	-72.715	-0.199	0.073
-498.624	-185.998	0.265	0.004
-497.610	800.000	0.028	-0.111
-496.595	-13.946	0.099	0.063
-495.581	-87.784	-0.205	-0.062
-494.566	800.000	0.096	-0.283
-493.551	-97.458	0.390	-0.101
-492.537	-145.449	0.306	-0.027
-491.522	800.000	0.066	0.213
-490.508	-88.573	-0.179	-0.053
-489.493	-133.521	-0.169	0.021
-488.478	-64.059	-0.044	-0.018
-487.464	-50.988	-0.169	-0.079
-486.449	-200.000	-0.002	0.068
-485.435	428.054	0.189	0.407
-484.420	17.359	0.160	-0.127
-483.405	-69.591	-0.104	-0.040
-482.391	-162.583	-0.302	-0.015
-481.376	-134.569	0.093	-0.011
-480.362	-108.394	-0.241	-0.052
-479.347	131.702	0.202	-0.259
-478.332	-151.522	0.168	0.012
-477.318	-200.000	-0.032	0.225
-476.303	-84.048	0.101	-0.032
-475.289	231.555	-0.176	0.287
-474.274	-152.215	-0.244	0.018
-473.259	-89.496	0.351	0.103
-472.245	186.562	0.208	0.308
-471.230	39.604	-0.195	0.174
-470.216	800.000	-0.024	0.069
-469.201	36.549	0.172	0.151
-468.186	410.796	0.107	-0.226
-467.172	800.000	0.039	-0.125
-466.157	705.886	0.108	0.283
-465.143	122.834	0.014	-0.017
-464.128	800.000	-0.057	-0.222
-463.113	245.119	-0.220	-0.368
-462.099	1.754	-0.309	-0.222
-461.084	-111.175	0.211	0.043
-460.070	800.000	-0.060	-0.175
-459.055	-200.000	0.030	-0.341
-458.040	93.625	0.120	0.135
-457.026	-200.000	0.002	0.218
-456.011	61.475	0.043	-0.042
-454.997	-84.204	-0.093	0.029
-453.982	800.000	0.010	0.036
-452.968	181.302	-0.145	0.212
-451.953	-94.847	-0.293	-0.079
-450.938	800.000	0.081	-0.274
-449.924	-76.743	0.073	0.025
-448.909	-83.918	0.283	0.090
-447.895	800.000	-0.086	0.260
-446.880	10.176	-0.077	-0.058
-445.865	800.000	0.027	0.099
-444.851	-200.000	0.036	-0.164
-443.836	-54.670	-0.116	-0.052
-442.822	29.643	-0.158	0.133
-441.807	-144.648	-0.052	0.005
-440.792	-116.746	0.071	-0.013
-439.778	6.211	-0.281	-0.207
-438.763	238.185	0.048	-0.080
-437.749	-0.173	0.076	-0.054
-436.734	-121.911	0.142	-0.023
-435.719	307.249	0.046	0.084
-434.705	-200.000	-0.033	0.170
-433.690	-97.934	0.052	-0.013
-432.676	-30.239	-0.210	-0.119
-431.661	800.000	-0.072	0.203
-430.646	341.031	0.116	0.226
-429.632	295.454	0.143	0.261
-428.617	12.703	-0.239	0.183
-427.603	-175.023	-0.275	0.008
-426.588	357.881	0.200	-0.398
-425.573	-200.000	-0.007	0.078
-424.559	-127.316	0.358	-0.052
-423.544	122.897	0.023	-0.029
-422.530	-1.311	-0.240	-0.168
-421.515	-122.026	0.242	-0.039
-420.500	-66.270	-0.177	0.070
-419.486	-200.000	-0.009	0.153
-418.471	-134.932	-0.183	-0.022
-417.457	-149.859	-0.073	0.006
-416.442	-88.011	0.360	-0.107
-415.428	-154.795	0.227	-0.015
-414.413	186.028	0.092	0.135
-413.398	363.408	-0.104	-0.207
-412.384	-123.820	-0.161	-0.025
-411.369	452.717	0.081	0.177
-410.355	52.208	0.121	0.115
-409.340	397.164	-0.167	-0.347
-408.325	-158.910	-0.128	-0.007
-407.311	-12.140	0.139	0.090
-406.296	-165.787	0.114	-0.005
-405.282	1.068	-0.068	-0.048
-404.267	253.812	0.088	-0.150
-403.252	800.000	0.163	-0.532
-402.238	-8.974	-0.572	-0.380
-401.223	368.669	-0.166	0.334
-400.209	-200.000	0.006	-0.056
-399.194	-140.229	0.343	0.036
-398.179	332.630	0.150	-0.287
-397.165	-45.790	0.110	0.054
-396.150	161.393	0.053	0.074
-395.136	800.000	-0.078	0.293
-394.121	63.608	-0.067	-0.067
-393.106	-200.000	-0.003	-0.124
-392.092	800.000	0.096	-0.367
-391.077	258.603	0.115	-0.197
-390.063	153.007	0.086	0.117
-389.048	-4.546	-0.297	-0.203
-388.033	-200.000	0.022	-0.352
-387.019	-46.805	-0.106	0.051
-386.004	-200.000	0.030	0.216
-384.990	375.817	0.118	0.238
-383.975	800.000	-0.132	0.460
-382.960	52.907	0.304	0.288
-381.946	98.847	-0.030	-0.034
-380.931	-90.118	0.277	-0.080
-379.917	-200.000	-0.028	0.195
-378.902	-200.000	-0.008	0.046
-377.888	800.000	0.071	-0.205
-376.873	395.622	-0.086	-0.178
-375.858	-200.000	-0.008	-0.214
-374.844	-124.856	0.383	0.059
-373.829	-200.000	0.004	0.048
-372.815	-28.767	-0.062	-0.036
-371.800	-71.953	0.097	0.036
-370.785	-167.379	0.204	-0.008
-369.771	-62.342	-0.208	0.086
-368.756	-200.000	0.013	0.059
-367.742	-109.347	0.185	0.039
-366.727	433.704	0.172	0.369
-365.712	19.975	-0.317	-0.253
-364.698	128.863	0.215	-0.271
-363.683	-44.984	-0.241	-0.119
-362.669	150.296	-0.056	0.075
-361.654	-164.787	0.347	0.015
-360.639	19.446	0.075	-0.060
-359.625	800.000	0.031	-0.130
-358.610	102.746	0.257	-0.298
-357.596	277.037	0.134	-0.236
-356.581	305.302	0.111	-0.205
-355.566	-200.000	0.020	0.238
-354.552	-145.106	0.276	-0.025
-353.537	-8.668	-0.107	-0.071
-352.523	509.574	0.098	0.225
-351.508	800.000	0.122	-0.425
-350.493	-75.328	-0.209	-0.074
-349.479	-200.000	-0.033	-0.233
-348.464	8.731	-0.184	-0.137
-347.450	138.350	0.124	0.161
-346.435	-200.000	0.022	-0.132
-345.420	-131.719	0.341	0.044
-344.406	-95.365	0.330	-0.088
-343.391	-140.884	-0.215	-0.022
-342.377	-139.051	0.121	0.013
-341.362	736.051	-0.036	-0.095
-340.348	-93.280	0.122	-0.034
-339.333	59.734	-0.211	0.207
-338.318	-110.469	0.554	-0.114
-337.304	192.060	-0.189	0.283
-336.289	-196.209	-0.179	0.001
-335.275	6.421	-0.139	0.102
-334.260	-131.550	0.148	0.019
-333.245	-200.000	0.047	0.246
-332.231	-39.278	-0.405	-0.210
-331.216	24.053	-0.188	-0.153
-330.202	-85.050	-0.103	-0.032
-329.187	-200.000	0.014	-0.121
-328.172	713.043	0.063	-0.165
-327.158	-124.903	0.346	-0.053
-326.143	-13.260	-0.154	0.099
-325.129	27.172	-0.090	-0.075
-324.114	800.000	-0.018	-0.074
-323.099	-34.356	-0.192	-0.104
-322.085	800.000	-0.060	-0.224
-321.070	800.000	-0.107	0.317
-320.056	5.555	0.103	0.076
-319.041	-200.000	0.012	-0.272
-318.026	6.561	0.222	-0.164
-317.012	583.554	-0.094	0.230
-315.997	-145.942	-0.203	-0.018
-314.983	-23.344	-0.126	-0.075
-313.968	339.575	0.169	0.327
-312.953	313.790	0.085	0.157
-311.939	-200.000	0.022	0.149
-310.924	-137.561	-0.348	-0.039
-309.910	-161.056	-0.264	0.014
-308.895	-45.452	-0.154	0.075
-307.880	800.000	0.121	-0.388
-306.866	-29.348	-0.178	-0.101
-305.851	-18.697	-0.459	0.283
-304.837	372.736	-0.103	-0.207
-303.822	-6.669	0.050	-0.034
-302.807	443.552	0.081	0.176
-301.793	-21.399	-0.282	0.170
-300.778	-131.729	0.240	-0.031
-299.764	255.385	-0.090	0.152
-298.749	-200.000	-0.042	0.268
-297.735	1.605	-0.351	0.250
-296.720	-54.638	0.069	0.031
-295.705	708.766	0.083	-0.216
-294.691	-118.107	-0.142	-0.025
-293.676	-128.474	-0.569	-0.080
-292.662	5.961	-0.067	0.049
-291.647	800.000	-0.071	-0.214
-290.632	-200.000	-0.014	-0.272
-289.618	-175.441	-0.064	-0.002
-288.603	-46.061	0.156	0.076
-287.589	589.823	0.112	0.273
-286.574	133.361	-0.173	0.220
-285.559	-136.225	-0.079	-0.009
-284.545	-13.127	-0.370	0.238
-283.530	-177.018	0.285	-0.007
-282.516	-200.000	-0.061	-0.291
-281.501	-56.831	-0.040	0.017
-280.486	-200.000	-0.005	0.089
-279.472	18.870	-0.134	-0.106
-278.457	31.848	-0.198	0.169
-277.443	-87.833	-0.373	-0.111
-276.428	-140.393	-0.105	-0.011
-275.413	-200.000	-0.005	-0.114
-274.399	78.643	0.302	-0.319
-273.384	425.359	0.042	-0.090
-272.370	-65.878	0.090	0.036
-271.355	8.051	0.236	0.175
-270.340	147.032	-0.158	0.209
-269.326	786.384	-0.072	-0.195
-268.311	-200.000	0.010	-0.270
-267.297	-117.254	-0.413	-0.074
-266.282	-200.000	0.004	0.406
-265.267	127.060	-0.062	0.078
-264.253	-200.000	-0.014	-0.308
-263.238	207.427	-0.129	0.199
-262.224	-63.449	0.329	0.134
-261.209	-200.000	0.086	0.433
-260.195	-200.000	-0.052	0.258
-259.180	-4.882	-0.408	0.278
-258.165	-18.669	-0.021	0.013
-257.151	35.068	-0.165	0.142
-256.136	-29.817	0.301	-0.169
-255.122	-82.940	-0.217	0.069
-254.107	-200.000	0.011	-0.070
-253.092	65.496	0.077	0.077
-252.078	-200.000	-0.015	0.398
-251.063	113.251	0.179	-0.214
-250.049	613.610	0.045	0.111
-249.034	-96.129	0.231	0.060
-248.019	-200.000	-0.003	0.225
-247.005	2.082	-0.043	-0.030
-245.990	-78.533	-0.034	-0.011
-244.976	29.619	-0.247	0.207
-243.961	800.000	0.009	0.031
-242.946	-102.918	0.201	-0.047
-241.932	37.841	-0.184	-0.161
-240.917	-35.368	-0.188	-0.101
-239.903	590.882	-0.051	-0.125
-238.888	800.000	-0.104	0.303
-237.873	800.000	-0.035	-0.149
-236.859	2.649	-0.078	0.056
-235.844	-168.252	0.351	0.013
-234.830	65.998	-0.123	-0.123
-233.815	-200.000	-0.039	-0.172
-232.800	-73.963	-0.247	0.089
-231.786	-54.652	-0.273	-0.122
-230.771	-91.456	0.124	0.035
-229.757	5.362	0.244	0.177
-228.742	-200.000	0.026	-0.130
-227.727	101.034	-0.158	0.181
-226.713	800.000	0.048	0.163
-225.698	-200.000	-0.069	-0.363
-224.684	-20.551	0.200	-0.121
-223.669	-200.000	-0.004	-0.202
-222.655	-19.720	0.206	-0.126
-221.640	47.074	0.166	-0.153
-220.625	800.000	-0.036	-0.124
-219.611	432.619	0.141	0.301
-218.596	-200.000	-0.004	0.153
-217.582	800.000	-0.036	-0.145
-216.567	-119.362	0.151	0.026
-215.552	800.000	0.065	0.270
-214.538	58.766	-0.272	0.264
-213.523	-200.000	-0.040	0.175
-212.509	-49.673	0.164	0.077
-211.494	-45.716	-0.157	0.076
-210.479	-64.804	0.224	0.089
-209.465	647.734	-0.096	-0.241
-208.450	112.751	0.071	-0.085
-207.436	102.869	0.086	-0.099
-206.421	-112.799	-0.311	0.061
-205.406	76.674	0.126	-0.132
-204.392	800.000	0.141	-0.438
-203.377	24.653	0.100	0.082
-202.363	451.896	-0.035	-0.077
-201.348	-192.428	0.222	-0.002
-200.333	94.589	0.045	-0.050
-199.319	75.713	-0.173	-0.180
-198.304	-153.290	0.574	-0.039
-197.290	113.420	0.142	-0.170
-196.275	64.754	-0.201	-0.199
-195.260	-17.950	0.436	-0.269
-194.246	175.156	0.364	-0.520
-193.231	-200.000	-0.026	-0.231
-192.217	-67.438	0.261	0.101
-191.202	528.455	0.062	-0.144
-190.187	133.314	-0.121	0.154
-189.173	800.000	-0.096	-0.320
-188.158	-200.000	0.031	-0.184
-187.144	34.306	0.331	-0.284
-186.129	800.000	0.051	0.176
-185.114	-200.000	0.009	0.140
-184.100	385.541	0.076	0.155
-183.085	-4.972	0.125	0.084
-182.071	-200.000	-0.078	0.392
-181.056	-4.757	-0.165	0.112
-180.042	-58.735	0.339	-0.145
-179.027	-65.148	-0.426	-0.169
-178.012	226.878	-0.032	0.052
-176.998	-12.895	0.121	-0.078
-175.983	-161.842	0.222	-0.011
-174.969	-55.999	0.079	-0.035
-173.954	309.700	-0.063	0.117
-172.939	587.773	-0.013	-0.031
-171.925	-68.376	-0.048	0.018
-170.910	43.116	0.232	0.208
-169.896	95.358	-0.047	0.052
-168.881	800.000	-0.093	0.293
-167.866	-83.644	0.329	-0.103
-166.852	800.000	-0.061	-0.224
-165.837	800.000	-0.015	0.055
-164.823	-71.858	-0.113	0.041
-163.808	419.688	0.092	0.194
-162.793	110.047	0.352	-0.416
-161.779	100.482	0.163	-0.186
-160.764	705.581	-0.063	0.164
-159.750	-200.000	-0.024	-0.267
-158.735	9.723	0.141	-0.105
-157.720	43.419	0.347	-0.312
-156.706	-93.712	-0.380	0.103
-155.691	-51.386	0.183	-0.084
-154.677	800.000	-0.076	0.251
-153.662	-138.827	-0.347	-0.037
-152.647	14.401	-0.219	0.168
-151.633	194.401	0.162	0.241
-150.618	200.134	-0.269	-0.406
-149.604	-168.610	0.092	0.003
-148.589	-200.000	0.090	0.000
-147.574	-77.152	-0.084	0.029
-146.560	343.162	-0.107	0.205
-145.545	-132.593	-0.176	0.022
-144.531	-0.293	0.276	-0.193
-143.516	624.296	0.109	0.269
-142.502	-17.686	0.069	-0.043
-141.487	150.752	-0.193	-0.257
-140.472	-14.381	0.273	-0.173
-139.458	40.126	-0.097	-0.086
-138.443	219.307	0.139	0.219
-137.429	-200.000	-0.031	-0.148
-136.414	141.156	0.171	-0.222
-135.399	73.832	0.256	-0.264
-134.385	-1.695	-0.264	0.182
-133.370	-187.097	-0.239	-0.003
-132.356	-16.277	0.263	-0.164
-131.341	-200.000	0.023	-0.144
-130.326	689.223	0.034	0.088
-129.312	-200.000	0.043	0.222
-128.297	585.622	0.040	0.096
-127.283	363.110	0.139	0.274
-126.268	34.728	-0.254	-0.218
-125.253	-164.806	0.216	0.010
-124.239	63.633	0.083	-0.082
-123.224	55.018	-0.107	0.101
-122.210	800.000	0.154	0.597
-121.195	307.117	0.109	0.200
-120.180	24.911	-0.106	0.086
-119.166	-111.226	0.030	-0.006
-118.151	-6.023	-0.263	0.176
-117.137	-78.665	-0.400	-0.134
-116.122	-120.193	-0.210	-0.035
-115.107	-117.553	-0.446	-0.079
-114.093	49.016	0.261	0.241
-113.078	800.000	-0.143	0.414
-112.064	-3.428	0.245	-0.167
-111.049	-158.389	0.140	-0.008
-110.034	800.000	0.010	0.033
-109.020	65.295	-0.100	0.099
-108.005	581.817	0.160	0.385
-106.991	-200.000	0.017	-0.245
-105.976	36.735	-0.293	0.254
-104.962	124.205	0.136	0.167
-103.947	-200.000	-0.007	0.216
-102.932	73.247	0.197	-0.202
-101.918	76.912	0.150	-0.156
-100.903	-200.000	-0.071	-0.387
-99.889	-49.202	0.093	-0.044
-98.874	54.141	0.152	0.143
-97.859	-200.000	-0.061	0.280
-96.845	800.000	0.062	0.241
-95.830	-43.094	0.166	0.082
-94.816	407.397	0.113	0.235
-93.801	10.301	0.176	0.131
-92.786	581.174	-0.084	0.201
-91.772	-83.714	0.237	0.074
-90.757	417.498	-0.213	-0.446
-89.743	800.000	-0.019	0.069
-88.728	-0.172	-0.047	0.033
-87.713	-200.000	0.061	0.266
-86.699	169.969	-0.142	0.199
-85.684	100.963	0.072	-0.082
-84.670	800.000	-0.018	-0.066
-83.655	66.002	0.133	-0.132
-82.640	5.139	0.088	0.064
-81.626	-145.693	0.144	-0.013
-80.611	-84.850	-0.293	-0.090
-79.597	-128.487	-0.112	-0.016
-78.582	30.317	-0.097	0.081
-77.567	-91.745	0.337	0.094
-76.553	73.555	0.150	-0.154
-75.538	335.387	-0.088	-0.167
-74.524	-200.000	0.050	0.500
-73.509	-87.505	0.158	-0.047
-72.494	-86.621	-0.211	-0.063
-71.480	123.692	0.242	-0.298
-70.465	-24.918	0.467	-0.272
-69.451	-175.085	-0.017	0.000
-68.436	461.357	-0.064	-0.139
-67.422	-200.000	-0.047	-0.343
-66.407	-200.000	0.040	-0.415
-65.392	66.618	0.148	0.147
-64.378	89.334	-0.102	-0.112
-63.363	-84.399	0.156	-0.048
-62.349	178.219	0.058	-0.083
-61.334	67.498	-0.973	-0.973
-60.319	81.064	0.610	0.645
-59.305	385.562	-0.606	-1.224
-58.290	57.280	0.788	0.754
-57.276	800.000	0.389	1.479
-56.261	-200.000	114.862	661.260
-55.246	541.375	1526.392	3562.130
-54.232	177.919	2691.218	3844.038
-53.217	109.758	2150.922	2525.801
-52.203	39.055	1596.281	1397.689
-51.188	30.739	1343.481	1126.230
-50.173	27.817	1305.836	1077.408
-49.159	55.517	1363.276	1292.432
-48.144	53.852	1376.839	1295.242
-47.130	30.988	1331.878	1117.815
-46.115	27.473	1314.201	1082.094
-45.100	27.366	1309.337	1077.417
-44.086	27.310	1306.866	1075.006
-43.071	27.211	1304.701	1072.600
-42.057	27.180	1302.669	1070.703
-41.042	27.338	1300.757	1070.019
-40.027	27.297	1299.649	1068.822
-39.013	27.337	1297.099	1066.918
-37.998	27.263	1295.912	1065.467
-36.984	27.312	1294.081	1064.204
-35.969	27.493	1291.802	1063.344
-34.954	27.493	1290.388	1062.141
-33.940	27.502	1288.861	1060.895
-32.925	27.445	1288.125	1059.917
-31.911	27.399	1286.759	1058.479
-30.896	27.504	1284.951	1057.561
-29.881	27.551	1283.666	1056.734
-28.867	27.529	1282.136	1055.307
-27.852	27.534	1280.500	1053.945
-26.838	27.545	1279.197	1052.896
-25.823	27.572	1277.969	1051.999
-24.809	27.463	1277.044	1050.567
-23.794	27.487	1275.677	1049.541
-22.779	27.523	1273.882	1048.228
-21.765	27.408	1273.263	1047.013
-20.750	27.460	1271.509	1045.828
-19.736	27.507	1270.465	1045.199
-18.721	27.362	1269.265	1043.340
-17.706	27.401	1268.258	1042.695
-16.692	27.412	1267.005	1041.683
-15.677	27.416	1265.850	1040.717
-14.663	27.397	1264.585	1039.528
-13.648	27.274	1263.941	1038.256
-12.633	27.386	1262.849	1037.956
-11.619	27.345	1261.838	1036.850
-10.604	27.294	1261.309	1036.085
-9.590	27.309	1260.138	1035.166
-8.575	27.181	1259.402	1033.794
-7.560	27.369	1257.795	1033.498
-6.546	27.266	1257.824	1032.896
-5.531	27.296	1256.734	1032.133
-4.517	27.355	1255.715	1031.589
-3.502	27.377	1254.835	1030.950
-2.487	27.435	1253.467	1030.111
-1.473	27.319	1249.639	1026.272
-0.458	25.840	1234.410	1005.474
0.556	24.132	1218.241	968.623
1.571	20.460	1224.281	953.232
2.586	19.564	1239.060	959.675
3.600	19.270	1227.438	948.969
4.615	14.733	1156.171	870.209
5.629	7.469	1083.929	780.165
6.644	4.414	1065.545	752.084
7.659	4.151	1063.581	749.358
8.673	3.940	1061.918	747.101
9.688	3.846	1060.856	745.834
10.702	4.334	1058.913	746.750
11.717	8.926	1065.159	773.277
12.731	17.012	1077.015	821.095
13.746	21.910	1082.519	848.982
14.761	22.691	1082.980	853.049
15.775	21.979	1081.915	848.690
16.790	21.051	1079.573	842.300
17.804	20.485	1078.767	838.865
18.819	20.202	1077.474	836.422
19.834	20.291	1076.979	836.392
20.848	20.244	1076.346	835.600
21.863	20.247	1075.078	834.558
22.877	19.937	1074.791	832.769
23.892	19.894	1073.623	831.582
24.907	19.822	1073.232	830.861
25.921	19.643	1072.300	829.208
26.936	19.764	1070.812	828.564
27.950	19.778	1069.383	827.450
28.965	19.881	1067.930	826.747
29.980	20.004	1067.089	826.609
30.994	20.139	1066.182	826.474
32.009	20.243	1064.871	825.880
33.023	20.199	1063.770	824.744
34.038	20.062	1062.979	823.409
35.053	19.882	1062.247	821.916
36.067	19.967	1060.680	821.034
37.082	19.904	1060.574	820.577
38.096	19.966	1059.946	820.314
39.111	20.007	1059.554	820.130
40.126	19.826	1057.444	817.572
41.140	19.693	1055.602	815.448
42.155	19.371	1054.474	812.987
43.169	19.287	1053.836	812.026
44.184	19.242	1052.942	811.052
45.199	19.449	1051.661	810.967
46.213	19.563	1050.976	810.903
47.228	19.804	1050.585	811.662
48.242	19.978	1049.593	811.636
49.257	19.901	1048.534	810.385
50.271	19.951	1048.055	810.181
51.286	20.070	1047.247	810.039
52.301	19.906	1045.854	808.124
53.315	19.793	1044.565	806.532
54.330	19.728	1043.234	805.129
55.344	19.622	1042.892	804.298
56.359	19.607	1041.794	803.310
57.374	19.469	1041.305	802.220
58.388	19.448	1040.238	801.233
59.403	19.397	1039.746	800.546
60.417	19.279	1038.949	799.313
61.432	19.181	1037.962	798.027
62.447	19.186	1036.643	796.967
63.461	19.214	1035.785	796.368
64.476	19.115	1034.998	795.234
65.490	19.171	1034.226	794.829
66.505	19.095	1033.610	793.937
67.520	19.109	1033.210	793.619
68.534	19.218	1031.840	793.001
69.549	19.052	1031.359	791.795
70.563	19.098	1030.050	790.933
71.578	18.815	1029.380	789.049
72.593	18.866	1028.689	788.685
73.607	18.796	1027.833	787.636
74.622	18.793	1027.669	787.429
75.636	18.866	1026.852	787.067
76.651	19.005	1026.269	787.185
77.666	18.925	1026.087	786.614
78.680	18.881	1025.346	785.772
79.695	19.049	1024.244	785.624
80.709	19.322	1023.959	786.585
81.724	19.481	1022.932	786.450
82.739	19.415	1023.090	786.202
83.753	19.841	1022.155	787.351
84.768	20.181	1022.384	789.004
85.782	20.321	1021.596	788.966
86.797	20.226	1020.207	787.391
87.812	19.973	1018.895	785.161
88.826	20.013	1017.968	784.560
89.841	20.180	1017.201	784.653
90.855	20.287	1016.554	784.570
91.870	20.277	1015.639	783.749
92.884	20.238	1014.611	782.710
93.899	20.283	1013.638	782.095
94.914	20.295	1013.131	781.686
95.928	20.279	1011.934	780.620
96.943	20.048	1011.188	778.939
97.957	19.980	1010.262	777.853
98.972	20.049	1008.991	777.114
99.987	20.115	1008.594	777.035
101.001	19.995	1007.641	775.696
102.016	19.968	1006.566	774.676
103.030	20.104	1006.173	774.913
104.045	20.040	1005.778	774.255
105.060	20.023	1004.040	772.775
106.074	19.643	1002.566	769.876
107.089	19.317	1001.668	767.667
108.103	19.153	1000.857	766.247
109.118	19.168	999.467	765.184
110.133	19.229	998.359	764.539
111.147	19.105	997.723	763.434
112.162	19.124	997.227	763.069
113.176	19.376	996.382	763.474
114.191	19.405	995.608	762.939
115.206	19.381	994.912	762.235
116.220	19.314	993.692	760.934
117.235	19.295	992.918	760.191
118.249	19.160	992.305	759.061
119.264	19.194	991.201	758.296
120.279	19.042	990.639	757.132
121.293	19.052	989.254	756.049
122.308	19.052	987.979	755.009
123.322	18.801	987.484	753.463
124.337	18.932	985.916	752.772
125.352	18.756	985.747	751.807
126.366	18.743	984.245	750.539
127.381	18.789	983.823	750.354
128.395	18.890	982.916	750.037
129.410	18.905	981.913	749.267
130.424	19.075	981.183	749.386
131.439	19.269	980.588	749.711
132.454	19.386	979.715	749.483
133.468	19.280	979.212	748.573
134.483	19.157	978.626	747.525
135.497	19.202	977.811	747.030
136.512	19.377	976.909	747.034
137.527	19.453	975.702	746.375
138.541	19.467	974.900	745.755
139.556	19.504	974.656	745.662
140.570	19.721	974.197	746.182
141.585	20.035	972.928	746.497
142.600	19.957	972.487	745.757
143.614	20.266	971.472	746.242
144.629	20.137	970.847	745.138
145.643	19.962	970.026	743.691
146.658	19.853	968.389	741.903
147.673	19.566	967.668	740.058
148.687	19.443	966.694	738.720
149.702	19.314	965.936	737.522
150.716	19.396	965.033	737.117
151.731	19.576	964.238	737.216
152.746	19.571	963.791	736.787
153.760	19.697	963.406	736.964
154.775	19.791	962.684	736.745
155.789	19.848	961.788	736.239
156.804	19.831	961.079	735.561
157.819	19.878	960.875	735.538
158.833	19.979	960.114	735.318
159.848	20.214	959.394	735.698
160.862	19.888	958.276	733.397
161.877	19.476	956.616	730.315
162.892	19.350	955.490	728.861
163.906	19.306	955.032	728.262
164.921	19.391	953.972	727.746
165.935	19.524	953.248	727.692
166.950	19.585	952.520	727.326
167.964	19.619	951.137	726.350
168.979	19.498	950.363	725.188
169.994	19.563	949.541	724.766
171.008	19.645	948.801	724.483
172.023	19.970	948.280	725.380
173.037	20.007	947.862	725.153
174.052	19.855	947.053	723.835
175.067	19.477	945.816	721.245
176.081	19.253	945.363	719.902
177.096	19.247	945.052	719.576
178.110	19.363	944.052	719.233
179.125	19.448	943.798	719.330
180.140	19.509	943.571	719.348
181.154	19.770	943.250	720.126
182.169	19.976	942.761	720.546
183.183	19.982	941.910	719.858
184.198	19.977	941.246	719.265
185.213	19.997	940.581	718.779
186.227	20.040	939.677	718.202
187.242	20.206	938.798	718.155
188.256	20.307	938.776	718.489
189.271	20.363	937.780	717.897
190.286	19.961	936.342	715.073
191.300	19.372	935.375	711.842
192.315	19.180	935.022	710.718
193.329	19.320	934.429	710.782
194.344	19.583	934.005	711.477
195.359	19.697	933.422	711.442
196.373	19.824	932.435	711.147
197.388	19.996	932.728	712.016
198.402	20.334	932.075	712.843
199.417	20.313	931.765	712.456
200.432	20.475	931.443	712.811
201.446	20.712	930.999	713.378
202.461	20.690	930.498	712.843
203.475	20.338	930.441	711.294
204.490	20.041	928.792	708.753
205.504	20.193	927.851	708.596
206.519	20.026	927.272	707.408
207.534	19.906	926.689	706.410
208.548	20.112	925.798	706.511
209.563	20.140	924.937	705.905
210.577	20.100	924.519	705.362
211.592	20.418	924.189	706.340
212.607	20.471	923.718	706.131
213.621	20.346	922.712	704.793
214.636	20.216	921.812	703.516
215.650	20.294	921.498	703.531
216.665	20.534	920.638	703.785
217.680	20.694	919.960	703.850
218.694	20.645	919.484	703.226
219.709	20.628	918.862	702.617
220.723	20.411	918.358	701.296
221.738	20.414	917.519	700.603
222.753	20.361	916.711	699.710
223.767	20.593	915.988	700.034
224.782	20.733	916.151	700.657
225.796	20.804	915.502	700.388
226.811	20.587	914.129	698.405
227.826	20.328	913.877	697.108
228.840	20.397	912.549	696.310
229.855	20.247	912.239	695.412
230.869	20.306	911.286	694.860
231.884	20.142	910.422	693.481
232.899	20.069	909.836	692.683
233.913	20.010	909.136	691.854
234.928	19.917	908.108	690.639
235.942	19.849	907.856	690.116
236.957	19.962	907.640	690.340
237.972	20.043	906.324	689.602
238.986	20.030	906.030	689.263
240.001	20.040	905.315	688.698
241.015	20.089	905.229	688.769
242.030	20.256	904.484	688.801
243.045	20.237	904.258	688.493
244.059	20.313	903.279	687.987
245.074	20.227	903.217	687.538
246.088	20.548	902.453	688.169
247.103	20.842	901.728	688.717
248.117	20.962	901.811	689.195
249.132	21.136	901.803	689.813
250.147	21.429	901.331	690.550
251.161	21.423	900.437	689.781
252.176	21.464	899.735	689.343
253.190	21.433	899.637	689.084
254.205	21.503	898.970	688.787
255.220	21.445	897.849	687.639
256.234	21.478	897.100	687.135
257.249	21.453	896.452	686.479
258.263	21.314	895.884	685.439
259.278	21.418	895.066	685.160
260.293	21.538	894.367	685.036
261.307	21.496	894.434	684.861
262.322	21.622	893.443	684.536
263.336	21.690	892.631	684.118
264.351	21.660	892.143	683.565
265.366	21.551	891.273	682.414
266.380	21.727	890.291	682.285
267.395	21.372	890.247	680.808
268.409	21.396	888.940	679.845
269.424	21.246	888.207	678.639
270.439	21.198	887.694	678.003
271.453	21.238	886.345	677.065
272.468	21.196	886.069	676.635
273.482	21.203	885.739	676.349
274.497	21.221	885.078	675.854
275.512	21.200	884.272	675.096
276.526	21.182	884.373	675.046
277.541	21.323	883.762	675.063
278.555	21.457	883.242	675.122
279.570	21.751	882.630	675.730
280.585	21.702	882.042	675.032
281.599	21.420	880.888	673.002
282.614	21.402	880.042	672.228
283.628	21.272	879.541	671.286
284.643	21.397	878.847	671.177
285.657	21.353	878.315	670.542
286.672	21.372	877.728	670.109
287.687	21.417	876.818	669.525
288.701	21.380	876.433	669.031
289.716	21.473	875.784	668.832
290.730	21.423	875.559	668.411
291.745	21.342	874.975	667.597
292.760	21.504	874.692	667.939
293.774	21.737	874.243	668.425
294.789	21.751	873.250	667.663
295.803	21.390	872.140	665.381
296.818	21.390	871.422	664.775
297.833	21.428	870.701	664.309
298.847	21.264	870.817	663.716
299.862	21.464	870.123	663.885
300.876	21.581	869.693	663.942
301.891	21.710	869.444	664.184
302.906	21.884	869.066	664.496
303.920	22.119	868.387	664.807
304.935	22.231	867.876	664.780
305.949	22.010	866.711	662.995
306.964	21.705	866.352	661.511
307.979	21.756	865.959	661.345
308.993	21.846	865.608	661.356
310.008	21.899	864.845	660.916
311.022	21.702	864.350	659.735
312.037	21.619	863.260	658.533
313.052	21.465	862.465	657.290
314.066	21.373	861.758	656.350
315.081	21.265	860.957	655.276
316.095	21.346	860.573	655.230
317.110	21.452	860.281	655.345
318.125	21.290	859.839	654.345
319.139	21.319	859.038	653.785
320.154	21.440	858.536	653.797
321.168	21.456	858.428	653.719
322.183	21.481	857.982	653.412
323.197	21.597	857.463	653.394
324.212	21.497	856.956	652.577
325.227	21.370	856.501	651.697
326.241	21.406	855.370	650.913
327.256	21.317	854.741	650.047
328.270	21.378	854.185	649.794
329.285	21.474	853.472	649.548
330.300	21.324	853.104	648.657
331.314	21.474	852.560	648.742
332.329	21.677	852.126	649.105
333.343	21.721	852.028	649.138
334.358	21.659	852.003	648.831
335.373	21.833	851.121	648.744
336.387	21.910	851.077	648.940
337.402	22.045	850.798	649.168
338.416	22.206	850.874	649.764
339.431	22.402	850.231	649.940
340.446	22.393	849.834	649.543
341.460	22.508	849.216	649.440
342.475	22.574	849.290	649.681
343.489	22.647	848.815	649.529
344.504	22.692	848.210	649.176
345.519	22.648	848.124	648.890
346.533	22.483	847.400	647.673
347.548	22.296	846.077	645.918
348.562	22.051	845.326	644.387
349.577	21.845	844.939	643.280
350.592	21.731	844.064	642.138
351.606	21.858	842.989	641.727
352.621	21.823	842.342	641.053
353.635	21.916	842.353	641.341
354.650	22.006	841.723	641.135
355.665	22.028	841.249	640.799
356.679	22.212	840.418	640.778
357.694	22.070	839.756	639.698
358.708	22.163	839.089	639.475
359.723	22.209	838.505	639.138
360.738	22.210	838.253	638.893
361.752	22.384	837.433	638.843
362.767	22.301	837.266	638.361
363.781	22.514	837.032	638.898
364.796	22.791	836.249	639.246
365.810	22.896	836.022	639.397
366.825	22.879	835.750	639.072
367.840	22.730	834.989	637.894
368.854	22.615	834.600	637.124
369.869	22.581	833.906	636.414
370.883	22.551	833.564	635.988
371.898	22.801	833.180	636.541
372.913	22.911	833.010	636.751
373.927	22.698	832.050	635.194
374.942	22.738	831.766	635.066
375.956	22.809	831.680	635.199
376.971	22.949	831.188	635.269
377.986	22.983	830.757	635.009
379.000	23.084	830.286	634.954
380.015	23.044	829.342	634.034
381.029	23.088	828.841	633.753
382.044	23.061	828.365	633.233
383.059	23.069	827.622	632.638
384.073	22.901	826.881	631.418
385.088	22.697	826.098	630.032
386.102	22.499	825.700	628.967
387.117	22.515	824.780	628.266
388.132	22.533	824.048	627.719
389.146	22.573	823.875	627.674
390.161	22.709	823.987	628.189
391.175	22.859	823.541	628.327
392.190	22.711	822.491	626.943
393.205	22.461	822.091	625.697
394.219	22.600	821.227	625.474
395.234	22.367	820.984	624.409
396.248	22.414	820.343	624.032
397.263	22.285	819.698	623.028
398.278	22.199	819.333	622.393
399.292	22.280	818.946	622.330
400.307	22.311	818.300	621.893
401.321	22.223	818.317	621.541
402.336	22.458	817.846	621.956
403.350	22.523	817.469	621.845
404.365	22.875	817.157	622.794
405.380	23.023	817.301	623.372
406.394	23.094	816.445	622.915
407.409	23.308	816.053	623.313
408.423	23.200	816.154	622.954
409.438	23.337	815.642	622.989
410.453	23.462	815.217	623.050
411.467	23.375	814.566	622.191
412.482	23.489	814.538	622.514
413.496	23.454	814.295	622.150
414.511	23.494	813.588	621.695
415.526	23.512	812.966	621.230
416.540	23.315	812.145	619.857
417.555	23.396	811.845	619.857
418.569	23.476	811.585	619.884
419.584	23.271	811.035	618.694
420.599	23.507	810.566	619.105
421.613	164.666	1372.799	1797.882
422.628	143.421	1454.699	1797.985
