DTS Sentinel unit serial number:	SN413079Multiplexer serial number:	ORYXHardware model number:	OX4-SRSoftware version number:	ORYX F/W v4.00 Oryx Data Collector v3.7.2.0data status	okinstallation	princeton_trtdifferential loss correction	single-endedforward channel	channel 1reverse channel	N/Adate	2019/09/15time	08:46:36forward acquisition time	60.00reverse acquisition time	0.00gamma	496.2192k internal	0.2317k external	0.2317temperature offset calibration	0.9982default loss term (dB/km)	0.3790temperature slope calibration	1.0000multiplexer offset coefficient	1.0000multiplexer slope coefficient	1.0000fibre end	0.00T internal ref (°C)	32.23T ext. ref 1 (°C)	4.98T ext. ref 2 (°C)	29.53length (m)	temperature (°C)	Stokes	anti-Stokes-747.200	-78.402	-0.067	0.023
-746.185	-6.197	-0.137	0.095
-745.171	62.901	0.030	-0.030
-744.156	800.000	0.110	-0.310
-743.142	0.718	-0.124	0.090
-742.127	-200.000	0.008	0.208
-741.112	209.082	-0.091	0.145
-740.098	-183.019	-0.083	0.001
-739.083	77.788	0.165	0.178
-738.069	-200.000	0.067	0.313
-737.054	-30.291	0.159	-0.092
-736.039	-200.000	0.004	-0.364
-735.025	-126.564	0.140	-0.021
-734.010	-32.212	-0.276	-0.156
-732.996	150.813	-0.219	-0.301
-731.981	-108.959	-0.441	-0.095
-730.966	-200.000	0.046	0.316
-729.952	-200.000	-0.008	-0.149
-728.937	-44.402	0.221	-0.112
-727.923	76.933	0.181	0.195
-726.908	251.356	0.105	-0.181
-725.894	8.567	-0.148	0.113
-724.879	464.596	-0.124	0.280
-723.864	52.916	-0.283	0.274
-722.850	-200.000	0.002	0.032
-721.835	-110.754	-0.233	0.049
-720.821	-200.000	-0.035	-0.159
-719.806	-144.947	-0.418	-0.039
-718.791	704.421	0.089	0.237
-717.777	36.352	-0.230	-0.205
-716.762	274.793	0.144	-0.258
-715.748	-183.808	-0.199	-0.003
-714.733	640.731	-0.055	0.141
-713.718	800.000	-0.060	-0.222
-712.704	-57.146	-0.175	0.078
-711.689	157.893	0.176	-0.247
-710.675	-144.761	0.383	-0.036
-709.660	800.000	-0.034	-0.117
-708.645	-200.000	0.029	-0.308
-707.631	-28.285	0.059	-0.034
-706.616	-117.239	0.020	0.004
-705.602	19.318	0.244	-0.198
-704.587	198.972	-0.101	0.157
-703.572	-200.000	0.044	0.453
-702.558	-200.000	0.023	-0.151
-701.543	-50.017	0.029	0.014
-700.529	-200.000	0.006	-0.260
-699.514	16.953	-0.225	-0.180
-698.499	-31.776	-0.429	-0.243
-697.485	-200.000	-0.015	0.185
-696.470	800.000	-0.024	-0.102
-695.456	-33.168	0.484	-0.271
-694.441	-14.720	-0.245	-0.159
-693.426	275.973	-0.020	-0.037
-692.412	800.000	0.083	0.244
-691.397	-98.355	-0.191	-0.050
-690.383	559.170	0.070	-0.171
-689.368	151.585	-0.318	-0.437
-688.354	-200.000	0.061	0.388
-687.339	-21.836	0.085	0.052
-686.324	72.310	-0.131	0.138
-685.310	-84.329	-0.204	0.065
-684.295	-200.000	0.006	-0.103
-683.281	-5.017	-0.256	-0.178
-682.266	-103.471	0.169	0.040
-681.251	63.390	0.112	0.114
-680.237	78.692	-0.062	0.067
-679.222	236.393	-0.090	0.150
-678.208	109.943	0.305	-0.370
-677.193	24.645	-0.395	0.330
-676.178	211.218	-0.199	0.316
-675.164	563.505	0.045	0.110
-674.149	-200.000	0.055	0.494
-673.135	26.866	-0.181	-0.153
-672.120	-200.000	0.007	0.095
-671.105	-99.797	0.076	-0.019
-670.091	76.387	0.250	0.267
-669.076	317.420	0.110	-0.211
-668.062	-68.901	0.249	0.097
-667.047	-200.000	-0.029	0.203
-666.032	288.120	0.044	-0.081
-665.018	-200.000	0.002	-0.254
-664.003	-165.754	0.132	-0.006
-662.989	800.000	-0.082	0.255
-661.974	-61.049	-0.411	0.175
-660.959	-66.913	0.087	-0.035
-659.945	-174.022	0.220	-0.007
-658.930	79.564	-0.173	0.187
-657.916	-112.992	0.065	-0.013
-656.901	-200.000	-0.028	0.328
-655.886	-104.729	0.203	0.047
-654.872	443.532	0.041	-0.090
-653.857	-161.357	0.305	0.016
-652.843	24.142	-0.364	-0.303
-651.828	26.224	0.087	-0.073
-650.814	45.615	-0.202	-0.188
-649.799	296.507	-0.019	-0.035
-648.784	732.879	0.052	0.141
-647.770	66.047	0.083	0.085
-646.755	-200.000	-0.015	0.196
-645.741	-109.257	0.428	0.092
-644.726	-25.278	0.257	-0.154
-643.711	800.000	0.060	0.209
-642.697	4.228	-0.112	0.083
-641.682	-36.909	-0.111	-0.060
-640.668	100.218	0.098	-0.114
-639.653	451.114	-0.151	-0.336
-638.638	218.696	0.094	-0.152
-637.624	-89.236	-0.479	-0.143
-636.609	13.789	-0.058	-0.046
-635.595	-200.000	0.006	0.148
-634.580	-200.000	0.034	-0.249
-633.565	-83.325	-0.327	0.106
-632.551	-50.379	0.188	-0.089
-631.536	41.518	-0.150	0.137
-630.522	112.921	-0.064	0.078
-629.507	800.000	-0.070	-0.282
-628.492	-86.814	0.358	-0.110
-627.478	-200.000	0.007	-0.246
-626.463	13.396	0.114	0.089
-625.449	-200.000	0.054	0.252
-624.434	-33.220	-0.159	0.089
-623.419	-200.000	0.017	-0.317
-622.405	-118.021	-0.213	0.038
-621.390	-112.039	0.040	-0.008
-620.376	466.162	0.066	-0.148
-619.361	800.000	0.057	-0.230
-618.346	-130.447	0.077	-0.011
-617.332	78.476	-0.229	-0.247
-616.317	-200.000	0.030	0.137
-615.303	-31.525	0.128	0.073
-614.288	-200.000	0.005	-0.164
-613.273	-89.349	-0.400	0.119
-612.259	129.598	-0.098	0.127
-611.244	-141.360	0.141	-0.014
-610.230	-180.162	-0.280	0.006
-609.215	-122.962	-0.145	0.023
-608.201	-98.726	-0.267	-0.069
-607.186	-7.321	-0.268	-0.183
-606.171	134.395	0.092	-0.120
-605.157	-110.196	-0.153	-0.032
-604.142	800.000	0.056	0.171
-603.128	-82.578	-0.325	-0.106
-602.113	800.000	-0.072	-0.216
-601.098	11.824	-0.339	-0.262
-600.084	-49.753	-0.568	0.272
-599.069	-155.180	0.379	-0.025
-598.055	43.741	0.191	-0.176
-597.040	-61.514	-0.179	0.076
-596.025	627.735	0.053	0.136
-595.011	9.346	0.197	0.150
-593.996	-52.716	-0.212	-0.098
-592.982	-170.794	-0.173	0.006
-591.967	-14.885	-0.262	-0.169
-590.952	154.922	0.150	-0.208
-589.938	257.448	0.111	0.192
-588.923	72.761	-0.059	-0.062
-587.909	129.491	-0.116	-0.149
-586.894	-193.298	0.071	0.001
-585.879	489.987	0.105	0.242
-584.865	43.410	-0.159	-0.146
-583.850	23.410	-0.061	0.050
-582.836	-200.000	0.013	0.081
-581.821	-114.945	-0.126	0.024
-580.806	464.511	0.086	0.193
-579.792	-200.000	0.021	0.264
-578.777	-56.313	0.348	0.156
-577.763	-200.000	0.031	-0.332
-576.748	221.794	-0.117	0.188
-575.733	-18.849	-0.191	0.120
-574.719	31.665	0.192	0.166
-573.704	-43.227	-0.354	0.180
-572.690	-72.634	-0.032	0.012
-571.675	217.816	-0.034	-0.054
-570.661	-52.386	-0.338	-0.157
-569.646	800.000	0.031	0.129
-568.631	-52.037	-0.123	0.057
-567.617	-46.493	-0.189	-0.093
-566.602	-23.506	-0.104	-0.063
-565.588	-134.662	-0.217	0.027
-564.573	-115.777	0.176	0.033
-563.558	-169.869	0.346	0.012
-562.544	-200.000	-0.001	0.093
-561.529	14.808	-0.118	-0.093
-560.515	125.489	-0.111	-0.140
-559.500	197.381	-0.144	0.221
-558.485	6.649	-0.147	0.110
-557.471	-200.000	0.007	-0.116
-556.456	-18.804	0.079	-0.049
-555.442	295.456	0.080	0.148
-554.427	69.880	-0.090	-0.093
-553.412	-90.732	0.417	0.121
-552.398	-26.588	-0.399	0.235
-551.383	-7.499	0.211	0.143
-550.369	781.795	-0.121	-0.334
-549.354	135.904	-0.236	0.309
-548.339	68.986	-0.186	0.192
-547.325	23.652	-0.229	-0.189
-546.310	216.479	-0.024	-0.039
-545.296	418.545	-0.073	0.156
-544.281	55.977	0.175	0.170
-543.266	-200.000	-0.010	0.100
-542.252	-46.026	-0.205	0.102
-541.237	-47.208	-0.295	-0.144
-540.223	-172.234	-0.208	0.007
-539.208	54.624	0.184	0.178
-538.193	32.479	0.301	0.261
-537.179	103.199	0.109	-0.129
-536.164	-54.097	-0.371	0.170
-535.150	42.827	0.233	-0.213
-534.135	22.970	-0.079	-0.065
-533.121	130.841	-0.018	0.023
-532.106	-104.780	-0.156	0.036
-531.091	-99.957	-0.087	0.022
-530.077	314.408	-0.079	-0.148
-529.062	-10.783	-0.053	0.035
-528.048	135.896	0.162	-0.211
-527.033	-141.225	0.289	-0.030
-526.018	800.000	0.111	0.376
-525.004	552.803	0.111	-0.267
-523.989	14.984	0.156	0.123
-522.975	439.606	-0.091	-0.199
-521.960	557.475	0.071	0.173
-520.945	-78.412	-0.182	-0.062
-519.931	800.000	-0.097	-0.274
-518.916	36.579	0.274	0.242
-517.902	-140.550	-0.127	0.013
-516.887	-200.000	0.033	0.160
-515.872	-50.381	-0.249	0.118
-514.858	287.431	-0.081	-0.147
-513.843	304.486	-0.157	-0.292
-512.829	-148.706	-0.215	-0.018
-511.814	-2.273	0.172	-0.121
-510.799	-107.063	-0.145	-0.032
-509.785	800.000	0.073	0.275
-508.770	153.399	-0.066	-0.090
-507.756	27.282	0.078	0.066
-506.741	-97.000	0.405	0.106
-505.726	280.106	0.163	0.292
-504.712	331.921	-0.104	-0.202
-503.697	-112.396	0.242	0.049
-502.683	3.740	-0.145	0.106
-501.668	159.841	-0.237	-0.331
-500.653	89.473	-0.240	0.269
-499.639	566.847	0.131	0.320
-498.624	-200.000	-0.006	-0.132
-497.610	-49.136	0.179	-0.086
-496.595	215.198	-0.122	-0.194
-495.581	-144.448	0.190	0.018
-494.566	-200.000	0.034	0.208
-493.551	-200.000	-0.011	0.102
-492.537	-100.358	-0.280	0.070
-491.522	77.270	0.077	0.082
-490.508	360.533	0.092	0.184
-489.493	98.496	-0.103	-0.119
-488.478	12.608	-0.166	0.128
-487.464	-116.792	0.339	0.062
-486.449	379.469	0.149	-0.307
-485.435	-101.471	-0.520	-0.127
-484.420	135.662	0.086	0.112
-483.405	-200.000	0.038	-0.247
-482.391	216.050	0.073	0.117
-481.376	69.624	-0.093	0.096
-480.362	-200.000	0.003	-0.047
-479.347	140.818	-0.197	-0.261
-478.332	-200.000	0.015	0.122
-477.318	-80.720	0.105	0.035
-476.303	-9.439	0.354	0.237
-475.289	-88.755	-0.338	-0.100
-474.274	56.754	-0.215	0.210
-473.259	160.764	-0.003	0.004
-472.245	-166.248	0.067	0.003
-471.230	-200.000	-0.011	0.245
-470.216	-200.000	-0.029	0.169
-469.201	131.564	0.149	0.191
-468.186	99.278	-0.054	-0.062
-467.172	-95.847	0.196	0.052
-466.157	59.627	0.149	0.147
-465.143	262.068	-0.158	-0.274
-464.128	12.012	-0.281	-0.217
-463.113	-200.000	0.017	-0.346
-462.099	-112.337	0.179	0.036
-461.084	55.018	0.069	-0.067
-460.070	78.231	-0.130	0.139
-459.055	-148.726	0.298	0.024
-458.040	195.477	0.062	-0.095
-457.026	-200.000	0.022	-0.096
-456.011	-143.327	-0.152	-0.015
-454.997	-106.926	0.380	-0.084
-453.982	-69.403	0.174	-0.067
-452.968	-200.000	0.040	0.337
-451.953	-34.610	0.140	0.076
-450.938	8.536	-0.024	0.018
-449.924	-174.857	0.395	-0.011
-448.909	144.808	0.147	-0.196
-447.895	-200.000	0.037	-0.375
-446.880	-197.978	0.453	0.003
-445.865	134.637	-0.164	0.213
-444.851	4.343	0.103	-0.075
-443.836	277.912	-0.157	0.279
-442.822	-12.041	-0.124	0.081
-441.807	282.049	-0.148	-0.265
-440.792	206.090	0.147	-0.230
-439.778	124.966	-0.073	-0.091
-438.763	-200.000	-0.010	-0.239
-437.749	-200.000	-0.042	-0.377
-436.734	-90.628	-0.298	0.086
-435.719	397.696	-0.124	-0.259
-434.705	69.455	0.045	0.047
-433.690	-8.640	0.152	0.102
-432.676	-200.000	-0.021	-0.304
-431.661	800.000	0.071	-0.301
-430.646	783.022	0.084	0.231
-429.632	-200.000	-0.038	-0.229
-428.617	438.690	0.077	-0.168
-427.603	70.380	0.114	0.118
-426.588	208.742	-0.093	0.145
-425.573	800.000	-0.162	-0.614
-424.559	-159.415	0.109	-0.006
-423.544	154.898	-0.085	0.117
-422.530	-128.947	0.114	0.016
-421.515	-94.753	0.178	-0.048
-420.500	23.305	0.273	-0.224
-419.486	800.000	-0.020	-0.073
-418.471	757.429	0.099	0.267
-417.457	89.224	0.142	0.158
-416.442	-95.398	-0.377	-0.101
-415.428	132.104	-0.215	-0.277
-414.413	-111.401	-0.153	-0.031
-413.398	800.000	0.050	-0.174
-412.384	-52.645	0.190	0.087
-411.369	597.429	-0.142	-0.352
-410.355	-69.242	-0.239	0.092
-409.340	-104.277	0.117	0.027
-408.325	74.486	-0.045	0.047
-407.311	-75.226	-0.420	-0.150
-406.296	-111.419	-0.092	-0.019
-405.282	-163.367	0.408	0.019
-404.267	58.045	0.192	0.188
-403.252	103.579	0.007	-0.008
-402.238	-171.153	0.131	-0.004
-401.223	386.761	0.167	0.345
-400.209	-16.304	0.166	-0.106
-399.194	-25.432	0.360	-0.213
-398.179	-9.107	0.230	0.154
-397.165	-95.024	-0.210	0.057
-396.150	-41.913	0.064	0.033
-395.136	663.726	-0.087	0.224
-394.121	357.672	0.029	-0.058
-393.106	14.456	0.080	-0.062
-392.092	-34.318	-0.200	-0.109
-391.077	64.886	0.199	0.201
-390.063	127.690	0.022	0.028
-389.048	322.475	-0.037	-0.070
-388.033	329.034	-0.031	-0.060
-387.019	237.212	0.043	-0.072
-386.004	-78.272	0.388	-0.133
-384.990	88.766	-0.166	0.184
-383.975	135.456	0.248	-0.321
-382.960	-53.750	-0.265	0.121
-381.946	49.789	0.118	0.111
-380.931	319.242	0.164	0.310
-379.917	-9.834	-0.174	-0.116
-378.902	353.923	-0.086	-0.171
-377.888	-29.384	0.052	-0.030
-376.873	-200.000	-0.018	-0.366
-375.858	-85.607	0.219	0.068
-374.844	55.931	0.196	-0.190
-373.829	104.824	0.159	0.187
-372.815	-49.220	0.250	0.119
-371.800	-129.828	-0.177	-0.024
-370.785	-200.000	-0.015	0.253
-369.771	-163.907	0.469	0.022
-368.756	-200.000	-0.001	0.088
-367.742	-132.336	-0.194	-0.025
-366.727	800.000	0.045	0.165
-365.712	-200.000	-0.005	-0.205
-364.698	120.264	0.146	-0.180
-363.683	-11.119	-0.179	0.118
-362.669	435.216	0.014	0.031
-361.654	-41.378	-0.243	-0.125
-360.639	-97.596	-0.290	0.075
-359.625	31.788	-0.433	-0.372
-358.610	-82.485	-0.184	-0.060
-357.596	-154.944	0.120	0.008
-356.581	-62.723	0.250	-0.103
-355.566	-200.000	-0.015	-0.082
-354.552	-200.000	0.065	-0.592
-353.537	34.136	0.036	-0.031
-352.523	135.360	0.040	0.052
-351.508	-35.871	-0.084	-0.045
-350.493	-200.000	-0.001	0.299
-349.479	-92.980	-0.395	0.110
-348.464	-56.431	0.295	-0.130
-347.450	23.667	0.219	0.179
-346.435	-105.112	0.244	0.056
-345.420	-200.000	-0.036	-0.370
-344.406	-49.206	0.007	0.003
-343.391	-136.289	-0.122	-0.014
-342.377	-106.154	0.166	-0.037
-341.362	270.946	0.183	-0.320
-340.348	800.000	-0.095	0.270
-339.333	-36.542	-0.122	0.066
-338.318	-200.000	-0.033	0.489
-337.304	142.454	0.185	0.245
-336.289	-200.000	-0.009	-0.223
-335.275	-28.597	-0.146	0.084
-334.260	-200.000	0.055	0.415
-333.245	800.000	-0.028	0.080
-332.231	-200.000	-0.008	-0.120
-331.216	-149.606	-0.104	0.008
-330.202	135.667	0.264	0.343
-329.187	-200.000	-0.018	-0.107
-328.172	6.897	-0.371	-0.275
-327.158	495.868	0.127	0.290
-326.143	-200.000	0.032	-0.216
-325.129	-5.099	-0.228	0.156
-324.114	-200.000	-0.014	-0.258
-323.099	-60.749	-0.242	-0.102
-322.085	-132.002	-0.298	0.039
-321.070	-129.854	-0.094	-0.013
-320.056	-200.000	0.039	-0.312
-319.041	296.298	0.081	-0.148
-318.026	21.203	-0.048	0.039
-317.012	-192.260	0.239	0.002
-315.997	-96.529	0.147	-0.039
-314.983	49.250	0.125	0.117
-313.968	173.588	-0.104	0.149
-312.953	800.000	-0.126	0.419
-311.939	33.252	-0.235	0.203
-310.924	-200.000	0.017	-0.176
-309.910	518.728	-0.103	0.239
-308.895	217.923	-0.101	0.160
-307.880	-200.000	-0.064	-0.286
-306.866	-147.460	0.142	0.012
-305.851	-200.000	0.019	0.153
-304.837	359.987	0.110	-0.220
-303.822	105.623	0.177	-0.209
-302.807	-200.000	0.038	0.179
-301.793	800.000	0.124	0.350
-300.778	125.090	0.231	0.290
-299.764	490.528	0.049	0.111
-298.749	800.000	0.109	-0.346
-297.735	233.098	-0.108	-0.177
-296.720	-200.000	-0.000	0.187
-295.705	-200.000	0.010	0.129
-294.691	75.356	-0.109	0.114
-293.676	-85.391	0.300	-0.093
-292.662	151.204	-0.223	0.302
-291.647	-51.879	0.196	0.091
-290.632	-149.199	-0.450	0.036
-289.618	-200.000	0.021	-0.339
-288.603	-55.149	0.328	-0.147
-287.589	72.358	0.244	0.253
-286.574	800.000	0.036	0.155
-285.559	-39.062	0.063	-0.033
-284.545	-200.000	-0.008	-0.043
-283.530	-95.959	-0.126	-0.033
-282.516	13.226	0.222	-0.171
-281.501	188.989	-0.100	-0.148
-280.486	-185.605	-0.097	-0.001
-279.472	-84.939	0.121	-0.038
-278.457	-104.860	0.180	0.041
-277.443	339.953	-0.123	-0.238
-276.428	39.926	0.082	0.073
-275.413	-127.973	0.136	-0.019
-274.399	282.219	0.131	-0.233
-273.384	426.141	-0.166	0.355
-272.370	-200.000	-0.012	0.192
-271.355	-129.923	-0.107	0.015
-270.340	-70.452	0.063	-0.024
-269.326	683.216	0.116	0.301
-268.311	285.967	-0.066	-0.119
-267.297	-142.655	-0.287	0.028
-266.282	-184.354	0.175	0.003
-265.267	-200.000	0.026	-0.317
-264.253	125.299	0.099	0.124
-263.238	800.000	0.071	-0.273
-262.224	2.373	0.280	-0.201
-261.209	-200.000	0.022	-0.248
-260.195	318.157	-0.133	-0.250
-259.180	800.000	-0.072	-0.207
-258.165	351.854	-0.025	0.050
-257.151	-79.840	-0.263	-0.088
-256.136	24.416	-0.178	0.146
-255.122	97.546	0.142	-0.162
-254.107	340.913	0.143	0.277
-253.092	44.251	-0.378	-0.344
-252.078	800.000	0.029	-0.111
-251.063	-149.240	0.064	0.005
-250.049	-200.000	0.046	-0.305
-249.034	-200.000	-0.055	0.243
-248.019	81.802	-0.196	-0.211
-247.005	-127.101	0.246	0.036
-245.990	399.010	0.074	-0.154
-244.976	800.000	-0.023	-0.069
-243.961	-200.000	-0.000	0.097
-242.946	-115.989	0.139	0.026
-241.932	-35.651	0.129	-0.069
-240.917	-122.860	0.230	-0.037
-239.903	-33.237	0.351	0.193
-238.888	300.630	-0.041	-0.075
-237.873	-200.000	-0.003	0.022
-236.859	369.511	0.184	0.370
-235.844	82.919	-0.106	0.114
-234.830	-94.556	0.092	0.025
-233.815	76.285	-0.169	-0.177
-232.800	-100.792	-0.137	-0.033
-231.786	40.178	-0.220	0.196
-230.771	168.278	-0.073	0.103
-229.757	-65.471	0.415	0.165
-228.742	-200.000	0.032	0.424
-227.727	-133.109	0.090	0.011
-226.713	34.788	0.199	-0.173
-225.698	800.000	0.034	-0.107
-224.684	-200.000	-0.059	-0.285
-223.669	221.465	0.019	-0.031
-222.655	193.278	0.094	-0.141
-221.640	65.268	0.182	-0.182
-220.625	402.580	-0.069	-0.144
-219.611	-200.000	-0.015	-0.080
-218.596	-200.000	-0.054	0.426
-217.582	35.351	-0.203	-0.177
-216.567	800.000	-0.008	0.026
-215.552	147.321	0.032	0.043
-214.538	-84.541	0.112	-0.035
-213.523	226.336	-0.279	-0.449
-212.509	-59.430	0.307	0.131
-211.494	-200.000	-0.015	0.139
-210.479	-86.962	-0.413	-0.125
-209.465	-200.000	-0.005	0.211
-208.450	622.597	0.028	0.070
-207.436	77.342	0.085	0.089
-206.421	-6.186	-0.088	-0.060
-205.406	-152.300	0.108	-0.008
-204.392	55.764	-0.139	0.133
-203.377	24.392	-0.120	-0.098
-202.363	-121.288	-0.090	0.015
-201.348	333.849	0.089	-0.171
-200.333	44.246	0.230	0.209
-199.319	49.248	0.120	-0.112
-198.304	-5.766	-0.055	-0.037
-197.290	-31.978	-0.182	0.101
-196.275	-84.826	0.143	0.044
-195.260	-121.594	-0.296	-0.049
-194.246	31.882	0.233	0.199
-193.231	-200.000	0.005	0.093
-192.217	-81.387	-0.150	-0.049
-191.202	262.821	-0.102	0.175
-190.187	4.901	-0.265	-0.193
-189.173	22.992	0.058	-0.047
-188.158	-148.974	0.091	-0.007
-187.144	0.376	-0.300	0.212
-186.129	161.762	0.108	-0.150
-185.114	-158.403	0.256	0.015
-184.100	27.044	-0.175	-0.146
-183.085	669.599	0.046	0.119
-182.071	59.848	0.122	0.120
-181.056	-153.838	-0.158	0.011
-180.042	46.523	0.286	-0.263
-179.027	481.224	0.082	0.183
-178.012	-22.946	-0.224	0.133
-176.998	4.956	0.301	-0.219
-175.983	58.940	-0.206	0.201
-174.969	800.000	0.088	0.261
-173.954	49.808	0.170	-0.159
-172.939	512.633	0.255	0.588
-171.925	33.743	0.166	-0.143
-170.910	87.377	0.169	0.185
-169.896	-200.000	-0.003	0.084
-168.881	-0.271	-0.124	0.087
-167.866	800.000	0.053	0.217
-166.852	225.761	0.058	0.093
-165.837	-200.000	0.005	0.123
-164.823	800.000	0.023	-0.067
-163.808	17.856	0.311	0.245
-162.793	172.914	0.130	-0.186
-161.779	-24.473	-0.062	0.036
-160.764	800.000	-0.037	-0.112
-159.750	94.332	-0.036	-0.041
-158.735	6.750	-0.193	0.142
-157.720	171.312	-0.166	0.236
-156.706	-85.843	-0.049	0.015
-155.691	34.774	-0.219	0.189
-154.677	215.263	0.018	-0.029
-153.662	-200.000	-0.069	-0.411
-152.647	-200.000	0.009	0.175
-151.633	-200.000	0.009	0.345
-150.618	119.766	0.093	0.114
-149.604	-73.626	0.074	-0.027
-148.589	-29.938	-0.239	-0.134
-147.574	-200.000	0.060	-0.566
-146.560	69.280	-0.196	-0.199
-145.545	-15.221	-0.128	-0.081
-144.531	-0.195	-0.122	0.086
-143.516	698.005	0.129	0.335
-142.502	-39.141	-0.133	0.069
-141.487	-87.928	-0.143	-0.042
-140.472	470.835	-0.092	-0.205
-139.458	225.104	0.102	0.163
-138.443	-200.000	-0.033	0.246
-137.429	-79.413	0.173	0.058
-136.414	412.978	-0.042	-0.089
-135.399	-69.230	0.135	-0.051
-134.385	-200.000	0.041	0.204
-133.370	-105.751	0.104	0.023
-132.356	-77.028	0.257	-0.089
-131.341	-200.000	-0.004	0.021
-130.326	-151.685	0.228	-0.017
-129.312	800.000	0.013	-0.044
-128.297	800.000	0.042	-0.140
-127.283	-156.045	0.285	0.018
-126.268	-200.000	0.017	-0.141
-125.253	396.945	-0.132	0.273
-124.239	-200.000	0.060	0.292
-123.224	800.000	-0.039	0.109
-122.210	-200.000	0.076	-0.399
-121.195	-200.000	0.056	0.309
-120.180	-72.395	0.098	0.036
-119.166	789.448	0.036	-0.098
-118.151	800.000	-0.054	0.170
-117.137	26.809	-0.149	-0.123
-116.122	152.593	0.268	-0.362
-115.107	97.494	-0.150	0.171
-114.093	361.176	0.166	0.329
-113.078	-129.619	0.180	-0.024
-112.064	-121.633	-0.099	-0.016
-111.049	122.579	-0.094	0.117
-110.034	30.416	0.040	-0.034
-109.020	-200.000	0.039	-0.274
-108.005	64.865	0.201	-0.200
-106.991	-200.000	0.027	-0.142
-105.976	189.592	0.270	-0.400
-104.962	147.750	0.079	0.105
-103.947	-23.656	-0.084	0.050
-102.932	-24.814	-0.026	0.015
-101.918	-200.000	-0.026	0.308
-100.903	314.645	-0.115	0.213
-99.889	-95.074	-0.223	0.060
-98.874	70.958	0.207	-0.212
-97.859	319.748	-0.050	0.093
-96.845	36.130	0.261	-0.227
-95.830	-43.625	0.454	-0.226
-94.816	87.060	-0.271	0.295
-93.801	-200.000	-0.013	0.209
-92.786	127.400	0.096	-0.120
-91.772	800.000	-0.085	0.331
-90.757	800.000	0.172	0.544
-89.743	116.637	0.102	-0.123
-88.728	-200.000	0.013	0.117
-87.713	57.538	0.254	-0.245
-86.699	-25.423	-0.137	-0.080
-85.684	467.429	-0.107	0.236
-84.670	-92.373	0.216	-0.060
-83.655	68.697	0.140	-0.142
-82.640	382.265	-0.085	0.172
-81.626	397.441	-0.100	-0.207
-80.611	-114.163	0.284	-0.054
-79.597	7.252	0.238	-0.176
-78.582	-82.284	0.187	-0.060
-77.567	800.000	0.109	0.406
-76.553	-200.000	-0.001	0.256
-75.538	-200.000	-0.035	-0.195
-74.524	269.405	-0.170	-0.294
-73.509	-31.605	-0.074	0.041
-72.494	-116.881	-0.153	0.028
-71.480	-147.185	0.249	0.021
-70.465	-145.680	-0.096	0.008
-69.451	65.762	-0.192	-0.192
-68.436	-33.957	0.268	0.145
-67.422	2.435	0.147	0.105
-66.407	800.000	0.099	0.342
-65.392	-72.367	0.183	0.067
-64.378	-171.035	0.248	0.008
-63.363	-63.018	-0.432	-0.176
-62.349	-121.958	0.171	0.028
-61.334	145.831	-0.699	-0.924
-60.319	75.412	0.469	0.488
-59.305	-200.000	-0.149	-1.141
-58.290	512.133	0.445	1.021
-57.276	376.121	0.856	1.722
-56.261	-200.000	97.255	594.724
-55.246	638.189	1407.534	3525.861
-54.232	191.031	2590.677	3840.641
-53.217	121.046	2164.873	2654.481
-52.203	44.333	1616.983	1462.643
-51.188	35.778	1352.373	1171.422
-50.173	32.500	1310.193	1115.458
-49.159	56.040	1356.799	1297.286
-48.144	58.018	1373.350	1324.933
-47.130	36.060	1332.275	1155.523
-46.115	32.491	1314.690	1119.055
-45.100	32.241	1310.148	1113.667
-44.086	32.181	1307.685	1111.173
-43.071	32.087	1305.451	1108.674
-42.057	32.068	1303.236	1106.640
-41.042	32.068	1301.590	1105.197
-40.027	32.235	1299.717	1104.544
-39.013	32.196	1297.627	1102.497
-37.998	32.156	1296.175	1100.983
-36.984	32.140	1294.697	1099.589
-35.969	32.232	1293.051	1098.685
-34.954	32.282	1291.375	1097.510
-33.940	32.382	1289.908	1096.806
-32.925	32.393	1288.497	1095.627
-31.911	32.380	1286.934	1094.176
-30.896	32.384	1285.103	1092.598
-29.881	32.450	1283.675	1091.727
-28.867	32.365	1282.918	1090.543
-27.852	32.320	1281.271	1088.843
-26.838	32.294	1279.896	1087.480
-25.823	32.296	1278.277	1086.076
-24.809	32.269	1277.133	1084.903
-23.794	32.264	1275.905	1083.788
-22.779	32.292	1274.455	1082.671
-21.765	32.183	1273.434	1081.139
-20.750	32.336	1272.020	1080.773
-19.736	32.206	1270.988	1079.103
-18.721	32.175	1269.525	1077.640
-17.706	32.189	1268.724	1077.002
-16.692	32.208	1267.015	1075.618
-15.677	32.194	1266.013	1074.645
-14.663	32.136	1265.031	1073.434
-13.648	32.114	1263.967	1072.363
-12.633	32.307	1262.601	1072.265
-11.619	32.199	1262.204	1071.265
-10.604	32.092	1261.502	1070.022
-9.590	32.191	1260.079	1069.334
-8.575	32.096	1259.569	1068.318
-7.560	32.155	1258.618	1067.805
-6.546	32.195	1257.444	1066.992
-5.531	32.131	1256.275	1065.593
-4.517	32.149	1255.751	1065.212
-3.502	32.152	1255.074	1064.612
-2.487	32.140	1253.951	1063.547
-1.473	32.128	1249.993	1060.082
-0.458	31.276	1235.896	1043.330
0.556	27.008	1219.254	1008.980
1.571	23.620	1225.932	995.452
2.586	22.779	1241.650	1003.347
3.600	21.887	1230.804	989.464
4.615	17.023	1158.287	905.204
5.629	8.861	1083.898	806.093
6.644	5.272	1063.361	773.016
7.659	4.961	1060.933	769.645
8.673	4.940	1059.646	768.542
9.688	4.748	1058.661	766.811
10.702	5.047	1057.186	767.147
11.717	10.186	1063.991	797.400
12.731	17.220	1074.178	839.848
13.746	19.212	1075.755	850.858
14.761	18.092	1073.605	843.558
15.775	16.839	1071.654	835.777
16.790	15.833	1069.163	828.806
17.804	15.089	1067.538	823.816
18.819	14.895	1066.636	822.091
19.834	14.572	1065.946	819.899
20.848	14.223	1064.903	817.314
21.863	14.192	1063.801	816.242
22.877	14.007	1063.349	814.914
23.892	13.987	1062.486	814.085
24.907	14.031	1061.699	813.623
25.921	14.010	1060.684	812.670
26.936	14.018	1059.583	811.794
27.950	14.158	1057.667	810.939
28.965	14.110	1056.632	809.839
29.980	14.232	1054.979	809.096
30.994	14.312	1054.076	808.718
32.009	14.374	1052.922	808.061
33.023	14.207	1051.859	806.367
34.038	14.261	1050.807	805.748
35.053	14.033	1050.141	804.065
36.067	14.045	1049.139	803.286
37.082	14.112	1048.601	803.127
38.096	14.265	1047.319	802.808
39.111	14.190	1046.790	801.970
40.126	14.046	1045.708	800.378
41.140	13.911	1044.523	798.750
42.155	13.966	1042.880	797.689
43.169	14.003	1041.679	796.878
44.184	13.837	1041.002	795.494
45.199	13.844	1039.996	794.690
46.213	13.891	1038.805	793.934
47.228	14.011	1037.825	793.688
48.242	14.158	1036.445	793.259
49.257	14.012	1035.640	791.880
50.271	14.099	1035.015	791.747
51.286	14.078	1034.393	791.101
52.301	14.027	1033.253	789.916
53.315	13.964	1032.096	788.663
54.330	13.978	1031.110	787.907
55.344	13.914	1030.277	786.897
56.359	13.920	1029.205	786.037
57.374	13.919	1028.604	785.505
58.388	14.009	1027.142	784.743
59.403	13.917	1026.615	783.836
60.417	13.841	1026.318	783.180
61.432	13.818	1025.475	782.360
62.447	13.900	1024.158	781.671
63.461	13.742	1023.659	780.481
64.476	13.757	1023.139	780.084
65.490	13.828	1022.001	779.481
66.505	13.931	1020.997	779.130
67.520	13.857	1020.405	778.261
68.534	13.914	1019.936	778.101
69.549	13.843	1019.236	777.167
70.563	13.789	1018.404	776.211
71.578	13.847	1017.055	775.382
72.593	13.775	1016.444	774.512
73.607	13.725	1016.030	773.894
74.622	13.761	1015.390	773.508
75.636	13.647	1014.673	772.365
76.651	13.832	1013.528	772.283
77.666	13.758	1013.549	771.889
78.680	13.702	1013.182	771.278
79.695	13.747	1012.085	770.583
80.709	13.807	1011.875	770.638
81.724	13.793	1011.166	769.960
82.739	13.965	1010.134	769.904
83.753	14.182	1009.379	770.265
84.768	14.267	1008.167	769.668
85.782	14.198	1007.781	768.985
86.797	14.238	1006.775	768.334
87.812	14.147	1005.636	766.979
88.826	14.080	1004.877	766.022
89.841	14.083	1003.874	765.205
90.855	14.115	1003.256	764.813
91.870	14.173	1002.132	764.153
92.884	14.187	1001.500	763.667
93.899	14.311	1000.687	763.549
94.914	14.278	999.819	762.667
95.928	14.282	998.949	761.957
96.943	14.153	998.610	761.040
97.957	14.170	997.206	759.980
98.972	14.282	995.900	759.430
99.987	14.325	995.478	759.234
101.001	14.124	994.834	757.763
102.016	14.121	993.797	756.891
103.030	14.217	992.687	756.415
104.045	14.233	992.056	755.939
105.060	14.292	991.187	755.476
106.074	14.001	990.562	753.617
107.089	14.001	989.326	752.609
108.103	13.861	988.591	751.349
109.118	14.010	987.306	750.978
110.133	13.909	986.798	750.069
111.147	13.901	985.804	749.210
112.162	13.956	984.922	748.723
113.176	14.031	984.315	748.535
114.191	14.021	984.136	748.286
115.206	14.071	982.622	747.293
116.220	14.049	982.019	746.672
117.235	14.033	981.025	745.777
118.249	14.079	980.007	745.144
119.264	14.081	979.254	744.513
120.279	13.988	978.517	743.472
121.293	13.897	977.631	742.327
122.308	13.842	976.974	741.514
123.322	13.897	975.940	740.911
124.337	13.854	974.561	739.606
125.352	13.897	973.308	738.780
126.366	13.944	972.717	738.476
127.381	13.991	971.766	737.896
128.395	13.848	971.159	736.735
129.410	13.955	970.054	736.307
130.424	13.961	969.122	735.562
131.439	14.094	968.160	735.356
132.454	14.067	967.811	734.904
133.468	14.077	967.051	734.308
134.483	14.020	966.363	733.467
135.497	14.157	965.279	733.186
136.512	14.029	964.453	731.927
137.527	14.166	963.879	732.030
138.541	14.108	962.706	730.819
139.556	14.245	962.074	730.877
140.570	14.169	961.662	730.168
141.585	14.211	961.023	729.803
142.600	14.289	959.890	729.220
143.614	14.387	958.888	728.820
144.629	14.268	957.980	727.544
145.643	14.430	956.936	727.394
146.658	14.316	956.051	726.160
147.673	14.106	955.267	724.587
148.687	14.121	954.614	724.094
149.702	14.208	953.656	723.682
150.716	14.038	952.957	722.348
151.731	14.136	952.267	722.185
152.746	14.203	951.834	722.084
153.760	14.137	951.420	721.419
154.775	14.250	950.763	721.348
155.789	14.262	950.167	720.885
156.804	14.250	949.541	720.295
157.819	14.262	948.935	719.820
158.833	14.327	948.156	719.446
159.848	14.456	946.998	719.062
160.862	14.398	946.011	718.001
161.877	14.320	945.096	716.905
162.892	14.129	944.282	715.404
163.906	14.274	943.117	715.082
164.921	14.252	942.245	714.261
165.935	14.303	941.372	713.756
166.950	14.377	940.548	713.382
167.964	14.393	939.732	712.772
168.979	14.216	939.350	711.661
169.994	14.219	938.331	710.837
171.008	14.328	937.501	710.611
172.023	14.323	936.811	710.003
173.037	14.560	936.383	710.626
174.052	14.512	935.816	709.930
175.067	14.415	934.906	708.765
176.081	14.285	934.457	707.810
177.096	14.313	934.012	707.527
178.110	14.331	933.190	706.919
179.125	14.324	932.932	706.630
180.140	14.397	932.092	706.242
181.154	14.405	931.956	706.109
182.169	14.547	931.273	706.132
183.183	14.569	930.408	705.507
184.198	14.640	929.628	705.151
185.213	14.586	929.180	704.520
186.227	14.580	928.406	703.847
187.242	14.769	927.427	703.838
188.256	14.743	927.129	703.443
189.271	14.678	926.283	702.464
190.286	14.572	925.495	701.357
191.300	14.441	924.615	700.080
192.315	14.292	924.280	699.137
193.329	14.272	923.438	698.354
194.344	14.521	922.998	699.005
195.359	14.425	922.672	698.293
196.373	14.591	921.938	698.371
197.388	14.697	921.531	698.445
198.402	14.802	920.741	698.224
199.417	14.882	920.619	698.404
200.432	14.995	919.823	698.207
201.446	15.013	919.119	697.687
202.461	14.942	918.921	697.179
203.475	14.782	918.518	696.144
204.490	14.843	917.174	695.319
205.504	14.793	916.634	694.639
206.519	14.815	915.889	694.107
207.534	14.757	915.176	693.261
208.548	14.918	914.366	693.256
209.563	14.883	913.638	692.497
210.577	14.865	913.288	692.094
211.592	14.843	912.866	691.622
212.607	15.023	911.756	691.464
213.621	15.073	910.700	690.808
214.636	15.001	910.486	690.290
215.650	14.996	909.682	689.601
216.665	15.007	909.110	689.149
217.680	15.105	908.485	689.019
218.694	15.163	907.681	688.588
219.709	15.060	907.408	687.894
220.723	15.117	906.630	687.479
221.738	15.125	906.092	687.040
222.753	15.117	905.156	686.239
223.767	15.008	905.108	685.694
224.782	15.163	904.312	685.663
225.796	15.174	903.978	685.396
226.811	15.226	903.073	684.862
227.826	15.238	902.195	684.184
228.840	15.123	901.034	682.774
229.855	15.130	900.359	682.232
230.869	15.235	899.955	682.292
231.884	15.137	899.112	681.196
232.899	15.167	898.498	680.792
233.913	15.070	897.628	679.678
234.928	15.115	897.142	679.432
235.942	15.075	896.824	678.969
236.957	15.150	895.831	678.460
237.972	15.076	895.598	677.925
238.986	15.068	895.104	677.458
240.001	15.055	894.478	676.871
241.015	15.259	893.468	676.871
242.030	15.395	892.531	676.649
243.045	15.297	892.336	676.047
244.059	15.286	892.029	675.709
245.074	15.317	891.032	675.022
246.088	15.396	890.403	674.803
247.103	15.375	889.885	674.267
248.117	15.473	889.534	674.335
249.132	15.587	888.399	673.872
250.147	15.790	888.062	674.368
251.161	15.612	887.854	673.437
252.176	15.760	886.776	673.155
253.190	15.761	886.136	672.612
254.205	15.798	885.441	672.174
255.220	15.822	884.841	671.753
256.234	15.740	884.445	671.065
257.249	15.826	883.521	670.648
258.263	15.663	883.163	669.668
259.278	15.781	882.141	669.303
260.293	15.836	881.873	669.260
261.307	15.831	881.277	668.728
262.322	15.935	880.437	668.444
263.336	15.896	879.947	667.858
264.351	16.002	879.115	667.586
265.366	16.041	878.275	667.048
266.380	15.938	878.058	666.414
267.395	15.991	876.962	665.731
268.409	15.896	876.336	664.825
269.424	15.853	875.908	664.271
270.439	15.940	874.620	663.577
271.453	15.910	873.816	662.790
272.468	15.873	874.186	662.869
273.482	15.870	873.374	662.181
274.497	15.886	872.804	661.755
275.512	15.785	872.420	661.006
276.526	15.935	872.082	661.281
277.541	15.890	871.791	660.825
278.555	16.025	870.579	660.379
279.570	16.114	869.779	660.061
280.585	16.198	868.969	659.717
281.599	15.879	868.539	658.083
282.614	16.064	867.636	658.063
283.628	15.960	867.394	657.418
284.643	16.087	866.663	657.297
285.657	16.099	865.962	656.755
286.672	16.236	865.134	656.602
287.687	16.202	864.357	655.822
288.701	16.054	864.293	655.143
289.716	16.076	864.031	654.972
290.730	16.145	863.227	654.570
291.745	16.291	862.520	654.542
292.760	16.157	862.090	653.641
293.774	16.312	861.350	653.620
294.789	16.204	860.709	652.658
295.803	16.163	860.111	651.987
296.818	16.353	859.188	651.964
297.833	16.282	858.556	651.155
298.847	16.341	857.714	650.683
299.862	16.357	857.798	650.753
300.876	16.415	857.080	650.373
301.891	16.328	856.645	649.653
302.906	16.560	855.855	649.887
303.920	16.526	855.501	649.430
304.935	16.570	854.801	649.011
305.949	16.604	854.335	648.728
306.964	16.508	853.984	648.036
307.979	16.573	852.937	647.432
308.993	16.657	852.092	647.056
310.008	16.595	851.912	646.625
311.022	16.521	851.600	646.049
312.037	16.481	851.022	645.401
313.052	16.423	849.842	644.229
314.066	16.522	849.328	644.159
315.081	16.486	849.174	643.845
316.095	16.430	848.356	642.957
317.110	16.630	847.544	643.043
318.125	16.477	847.616	642.461
319.139	16.483	846.918	641.898
320.154	16.468	846.531	641.491
321.168	16.427	846.014	640.886
322.183	16.468	845.564	640.643
323.197	16.601	844.681	640.424
324.212	16.474	844.446	639.706
325.227	16.530	843.512	639.156
326.241	16.461	843.083	638.513
327.256	16.405	842.613	637.888
328.270	16.571	841.868	637.895
329.285	16.606	841.009	637.317
330.300	16.538	840.949	636.960
331.314	16.546	840.635	636.696
332.329	16.787	839.884	636.976
333.343	16.742	839.300	636.308
334.358	16.767	838.991	636.113
335.373	16.884	838.542	636.154
336.387	16.701	838.000	635.001
337.402	16.719	838.077	635.070
338.416	16.953	837.655	635.572
339.431	16.860	837.310	634.904
340.446	16.953	836.996	634.957
341.460	16.930	836.588	634.505
342.475	16.968	836.206	634.303
343.489	17.005	835.605	633.929
344.504	17.074	835.129	633.769
345.519	17.089	834.776	633.504
346.533	17.129	834.180	633.144
347.548	17.154	833.261	632.484
348.562	16.904	832.782	631.134
349.577	17.021	832.426	631.241
350.592	16.945	831.344	630.085
351.606	16.894	830.956	629.543
352.621	17.019	830.209	629.387
353.635	16.970	829.692	628.757
354.650	17.015	829.206	628.500
355.665	17.092	828.631	628.294
356.679	16.955	828.368	627.531
357.694	16.937	827.489	626.744
358.708	17.253	826.722	627.274
359.723	17.171	826.085	626.431
360.738	17.151	825.714	626.022
361.752	17.148	824.978	625.397
362.767	17.316	824.092	625.287
363.781	17.270	823.853	624.882
364.796	17.409	823.585	625.136
365.810	17.415	823.403	624.962
366.825	17.387	823.059	624.545
367.840	17.388	822.319	623.930
368.854	17.270	821.762	623.020
369.869	17.518	821.347	623.560
370.883	17.430	820.994	622.914
371.898	17.349	820.737	622.368
372.913	17.480	820.373	622.515
373.927	17.582	819.298	622.019
374.942	17.461	819.484	621.663
375.956	17.562	819.286	621.824
376.971	17.571	818.576	621.264
377.986	17.747	817.853	621.300
379.000	17.688	817.384	620.676
380.015	17.702	816.997	620.379
381.029	17.606	816.426	619.541
382.044	17.710	815.793	619.383
383.059	17.618	815.351	618.657
384.073	17.679	814.661	618.303
385.088	17.644	813.967	617.593
386.102	17.546	813.505	616.834
387.117	17.681	812.738	616.686
388.132	17.502	812.546	615.837
389.146	17.607	812.096	615.821
390.161	17.782	811.256	615.761
391.175	17.733	810.977	615.320
392.190	17.731	810.478	614.878
393.205	17.686	809.973	614.280
394.219	17.634	809.442	613.634
395.234	17.669	809.152	613.485
396.248	17.555	808.770	612.733
397.263	17.544	808.370	612.337
398.278	17.647	807.868	612.273
399.292	17.648	807.496	611.938
400.307	17.450	807.154	610.912
401.321	17.653	806.540	611.123
402.336	17.729	805.954	610.898
403.350	17.757	805.648	610.713
404.365	17.787	805.537	610.681
405.380	17.962	804.626	610.564
406.394	17.989	804.330	610.381
407.409	17.909	803.940	609.746
408.423	17.872	803.451	609.188
409.438	17.960	803.273	609.313
410.453	18.046	802.947	609.316
411.467	18.018	802.422	608.767
412.482	18.151	801.901	608.790
413.496	18.196	801.442	608.548
414.511	18.287	801.199	608.633
415.526	18.160	800.899	607.900
416.540	18.165	800.336	607.435
417.555	18.253	799.529	607.083
418.569	18.181	799.162	606.494
419.584	18.267	798.882	606.533
420.599	18.233	798.845	606.330
421.613	155.246	1370.638	1793.388
422.628	134.535	1453.911	1793.476
