DTS Sentinel unit serial number:	SN413079Multiplexer serial number:	ORYXHardware model number:	OX4-SRSoftware version number:	ORYX F/W v4.00 Oryx Data Collector v3.7.2.0data status	okinstallation	princeton_trtdifferential loss correction	single-endedforward channel	channel 1reverse channel	N/Adate	2019/09/14time	16:30:35forward acquisition time	60.00reverse acquisition time	0.00gamma	496.2192k internal	0.2295k external	0.2295temperature offset calibration	1.0058default loss term (dB/km)	0.3790temperature slope calibration	1.0000multiplexer offset coefficient	1.0000multiplexer slope coefficient	1.0000fibre end	0.00T internal ref (°C)	38.00T ext. ref 1 (°C)	5.06T ext. ref 2 (°C)	33.78length (m)	temperature (°C)	Stokes	anti-Stokes-747.200	-171.544	0.227	-0.008
-746.185	152.626	-0.023	-0.032
-745.171	-52.870	-0.084	-0.040
-744.156	1.923	-0.287	0.211
-743.142	527.529	-0.066	-0.158
-742.127	143.934	0.129	0.176
-741.112	-46.445	0.208	0.104
-740.098	-93.975	-0.164	0.046
-739.083	-79.135	-0.345	0.120
-738.069	-200.000	0.065	-0.000
-737.054	-35.592	-0.443	0.246
-736.039	-44.886	-0.083	-0.042
-735.025	276.586	-0.049	-0.089
-734.010	-95.683	-0.263	-0.072
-732.996	-170.019	-0.237	0.009
-731.981	-98.804	-0.042	-0.011
-730.966	-43.137	-0.169	0.088
-729.952	-100.774	-0.164	-0.041
-728.937	-5.083	0.096	0.068
-727.923	800.000	-0.013	-0.039
-726.908	-139.476	-0.357	-0.039
-725.894	-145.181	-0.330	-0.031
-724.879	1.275	0.210	-0.154
-723.864	206.193	0.039	0.063
-722.850	-128.494	-0.331	0.048
-721.835	800.000	-0.016	-0.064
-720.821	56.227	-0.240	-0.238
-719.806	-19.258	0.312	-0.198
-718.791	249.542	0.126	-0.218
-717.777	72.382	-0.085	0.090
-716.762	168.064	0.100	0.145
-715.748	109.344	-0.223	0.273
-714.733	-5.349	-0.255	-0.179
-713.718	-180.681	0.199	0.004
-712.704	-200.000	0.017	-0.174
-711.689	48.622	0.243	0.232
-710.675	64.108	0.119	-0.122
-709.660	245.437	-0.315	-0.541
-708.645	-107.178	-0.374	-0.084
-707.631	-200.000	0.025	0.287
-706.616	15.717	0.080	-0.064
-705.602	-200.000	0.011	0.157
-704.587	-100.505	0.345	0.087
-703.572	62.738	-0.032	-0.033
-702.558	-60.187	-0.365	-0.159
-701.543	-139.794	-0.407	0.044
-700.529	-82.890	0.131	-0.043
-699.514	268.934	0.136	0.244
-698.499	-200.000	-0.012	0.079
-697.485	152.036	-0.252	0.351
-696.470	800.000	-0.136	0.388
-695.456	6.703	0.098	-0.074
-694.441	-31.173	-0.132	-0.076
-693.426	214.323	-0.123	-0.198
-692.412	-41.048	-0.552	-0.291
-691.397	28.281	0.081	0.070
-690.383	44.445	0.259	-0.243
-689.368	800.000	0.085	-0.258
-688.354	415.242	-0.079	-0.171
-687.339	-79.719	0.135	-0.046
-686.324	-132.044	0.058	-0.008
-685.310	-90.980	-0.106	-0.031
-684.295	12.590	0.061	-0.048
-683.281	-200.000	-0.018	0.138
-682.266	-200.000	0.006	-0.043
-681.251	43.052	0.205	-0.191
-680.237	-61.471	-0.172	0.074
-679.222	-200.000	-0.045	-0.250
-678.208	-96.245	-0.177	-0.048
-677.193	262.850	-0.043	0.076
-676.178	-22.573	-0.268	0.165
-675.164	-159.528	-0.154	-0.009
-674.149	-30.770	0.127	-0.073
-673.135	-79.285	0.269	0.093
-672.120	-62.598	0.456	-0.193
-671.105	-200.000	-0.011	-0.315
-670.091	-104.925	-0.365	0.085
-669.076	224.302	0.119	0.197
-668.062	-42.707	0.284	-0.147
-667.047	83.395	0.056	0.062
-666.032	-146.295	-0.299	0.027
-665.018	238.893	0.165	-0.280
-664.003	582.965	-0.037	-0.092
-662.989	35.545	-0.185	-0.166
-661.974	-130.776	-0.215	0.029
-660.959	-105.343	-0.113	-0.026
-659.945	211.819	0.112	-0.179
-658.930	-151.294	0.178	0.014
-657.916	-119.449	-0.431	-0.076
-656.901	-88.643	-0.134	-0.041
-655.886	-34.716	0.312	0.174
-654.872	-0.854	-0.213	0.154
-653.857	370.220	-0.051	-0.106
-652.843	800.000	0.053	0.170
-651.828	-200.000	-0.041	-0.231
-650.814	394.200	0.145	-0.307
-649.799	-115.125	-0.204	-0.039
-648.784	313.704	-0.060	-0.115
-647.770	1.099	-0.122	0.089
-646.755	-126.001	-0.133	0.020
-645.741	66.059	-0.036	-0.037
-644.726	-6.373	-0.236	-0.164
-643.711	139.153	0.141	-0.189
-642.697	-126.202	-0.452	-0.069
-641.682	-29.050	0.274	-0.160
-640.668	-200.000	-0.230	0.001
-639.653	590.706	0.106	0.267
-638.638	21.468	-0.244	-0.202
-637.624	77.351	-0.069	0.074
-636.609	61.353	0.331	-0.335
-635.595	498.941	0.104	0.244
-634.580	148.648	-0.289	0.398
-633.565	672.345	0.110	-0.290
-632.551	187.791	-0.273	-0.415
-631.536	-200.000	-0.023	-0.117
-630.522	800.000	-0.067	0.294
-629.507	-200.000	-0.025	-0.225
-628.492	-111.497	-0.038	0.008
-627.478	154.621	-0.112	0.157
-626.463	74.113	-0.017	0.018
-625.449	-200.000	-0.018	-0.131
-624.434	-200.000	0.013	-0.201
-623.419	59.055	0.120	-0.120
-622.405	-79.737	-0.142	0.049
-621.390	-170.205	0.165	0.006
-620.376	800.000	0.048	-0.184
-619.361	-61.281	0.131	0.056
-618.346	637.984	-0.112	0.290
-617.332	586.079	0.119	0.297
-616.317	-200.000	-0.003	-0.176
-615.303	-116.526	-0.327	0.061
-614.288	-20.650	0.166	0.104
-613.273	781.621	-0.104	-0.290
-612.259	-52.111	0.246	-0.116
-611.244	-61.754	0.187	-0.080
-610.230	-200.000	-0.026	0.323
-609.215	81.609	-0.055	0.061
-608.201	154.237	0.126	-0.176
-607.186	-40.224	-0.167	-0.089
-606.171	437.376	0.126	-0.280
-605.157	-71.968	-0.244	0.092
-604.142	-133.548	0.267	0.034
-603.128	455.616	-0.054	-0.122
-602.113	-87.709	-0.258	0.079
-601.098	-200.000	-0.033	-0.176
-600.084	12.078	0.092	-0.072
-599.069	100.910	0.153	0.181
-598.055	123.938	-0.033	0.042
-597.040	-153.739	-0.631	-0.044
-596.025	429.481	-0.055	0.121
-595.011	19.076	0.083	0.067
-593.996	-118.825	-0.070	-0.012
-592.982	-200.000	0.020	0.391
-591.967	-21.140	-0.218	-0.136
-590.952	-86.559	-0.187	-0.058
-589.938	-43.313	-0.057	0.029
-588.923	6.551	0.178	0.135
-587.909	-200.000	0.053	-0.255
-586.894	547.351	0.108	0.262
-585.879	-200.000	0.037	0.271
-584.865	-200.000	0.008	0.272
-583.850	-121.332	0.223	-0.038
-582.836	-200.000	0.026	-0.296
-581.821	116.247	-0.253	-0.315
-580.806	118.269	0.024	0.030
-579.792	-5.674	-0.250	-0.174
-578.777	380.995	-0.062	-0.129
-577.763	-59.608	0.124	-0.054
-576.748	800.000	-0.111	0.331
-575.733	67.314	-0.225	0.233
-574.719	-200.000	-0.006	-0.167
-573.704	-117.059	-0.327	-0.061
-572.690	178.041	-0.144	0.214
-571.675	0.028	0.297	-0.215
-570.661	-43.181	-0.230	-0.118
-569.646	-89.889	0.279	-0.083
-568.631	66.466	-0.321	-0.331
-567.617	203.672	0.116	0.183
-566.602	-193.472	0.117	-0.001
-565.588	-109.319	-0.361	-0.078
-564.573	625.400	-0.069	-0.178
-563.558	-102.841	-0.284	-0.069
-562.544	-137.730	0.068	0.008
-561.529	-48.623	0.169	-0.082
-560.515	-56.029	-0.183	0.083
-559.500	133.041	0.078	-0.102
-558.485	-139.410	-0.305	-0.033
-557.471	-200.000	0.017	0.157
-556.456	162.127	-0.152	0.216
-555.442	124.422	-0.242	-0.309
-554.427	570.131	0.154	-0.380
-553.412	-120.395	0.053	-0.009
-552.398	103.127	0.206	-0.245
-551.383	800.000	0.023	-0.078
-550.369	301.133	0.088	-0.165
-549.354	-12.409	-0.218	-0.144
-548.339	-64.946	0.175	0.072
-547.325	800.000	-0.021	-0.091
-546.310	87.080	-0.148	-0.166
-545.296	-88.018	-0.237	-0.072
-544.281	285.833	0.112	0.205
-543.266	-200.000	-0.138	0.000
-542.252	800.000	0.077	0.304
-541.237	-88.479	0.325	0.098
-540.223	-49.710	-0.017	-0.008
-539.208	-139.829	-0.264	-0.028
-538.193	-20.416	0.193	-0.120
-537.179	-10.049	-0.250	0.169
-536.164	94.475	-0.068	-0.079
-535.150	-200.000	-0.052	0.260
-534.135	-200.000	-0.018	0.112
-533.121	51.876	-0.222	0.215
-532.106	-198.584	0.413	-0.002
-531.091	93.962	-0.002	-0.003
-530.077	34.925	-0.100	0.088
-529.062	30.193	0.247	0.214
-528.048	-200.000	-0.023	-0.188
-527.033	167.457	0.201	0.290
-526.018	-19.130	-0.149	0.094
-525.004	-200.000	-0.047	-0.249
-523.989	19.836	-0.089	-0.073
-522.975	56.180	-0.293	0.288
-521.960	-200.000	-0.037	-0.271
-520.945	31.337	-0.114	0.099
-519.931	-200.000	0.035	0.256
-518.916	-54.746	0.443	0.203
-517.902	800.000	-0.079	-0.236
-516.887	800.000	0.040	-0.131
-515.872	469.927	-0.150	-0.342
-514.858	-96.109	-0.145	0.039
-513.843	-70.673	-0.243	-0.093
-512.829	249.880	0.075	0.130
-511.814	-4.710	-0.193	-0.135
-510.799	-3.071	0.055	-0.039
-509.785	800.000	-0.071	0.297
-508.770	-200.000	-0.001	-0.213
-507.756	64.252	0.173	0.177
-506.741	81.823	-0.108	-0.119
-505.726	800.000	-0.088	-0.301
-504.712	-156.208	-0.252	0.016
-503.697	-108.619	-0.201	-0.044
-502.683	-94.606	-0.151	0.042
-501.668	-31.487	0.271	0.154
-500.653	7.536	-0.143	0.108
-499.639	-116.653	0.212	-0.039
-498.624	428.403	0.185	-0.404
-497.610	-200.000	0.011	0.192
-496.595	58.291	0.269	0.267
-495.581	-33.345	0.045	-0.025
-494.566	21.285	-0.158	-0.130
-493.551	800.000	0.091	-0.302
-492.537	338.860	0.119	0.236
-491.522	382.981	0.009	0.018
-490.508	-65.293	-0.090	0.037
-489.493	-2.637	-0.314	-0.222
-488.478	31.078	-0.214	-0.186
-487.464	-200.000	-0.008	0.135
-486.449	-7.410	0.035	0.024
-485.435	66.311	0.254	-0.261
-484.420	81.188	0.090	-0.098
-483.405	800.000	0.013	-0.044
-482.391	-200.000	-0.025	-0.262
-481.376	23.692	-0.125	-0.104
-480.362	366.977	-0.156	0.319
-479.347	-96.154	0.220	-0.059
-478.332	-200.000	0.001	0.085
-477.318	-200.000	-0.002	0.013
-476.303	2.772	0.127	0.093
-475.289	800.000	0.072	-0.278
-474.274	-42.254	-0.203	0.105
-473.259	52.351	-0.190	0.183
-472.245	-150.577	-0.119	-0.009
-471.230	-200.000	-0.072	-0.353
-470.216	-18.182	0.099	0.063
-469.201	168.616	-0.074	-0.107
-468.186	339.597	-0.104	-0.205
-467.172	152.778	-0.051	0.070
-466.157	253.686	-0.052	0.090
-465.143	-109.285	-0.285	-0.061
-464.128	537.454	0.103	0.246
-463.113	-71.387	0.310	-0.117
-462.099	2.775	-0.056	0.041
-461.084	-130.052	0.134	-0.019
-460.070	-200.000	-0.053	0.480
-459.055	-25.281	-0.087	-0.052
-458.040	94.316	-0.121	0.139
-457.026	-200.000	0.032	-0.149
-456.011	-62.495	0.107	-0.045
-454.997	-48.185	-0.188	0.092
-453.982	-81.237	0.254	0.085
-452.968	-145.612	0.249	-0.023
-451.953	55.822	0.157	0.154
-450.938	500.349	0.062	0.145
-449.924	-200.000	0.003	-0.101
-448.909	105.793	0.152	-0.181
-447.895	-9.155	-0.278	0.188
-446.880	-40.438	-0.203	0.107
-445.865	-200.000	-0.017	-0.119
-444.851	38.516	0.087	0.078
-443.836	-86.683	-0.198	0.061
-442.822	-19.011	-0.175	-0.110
-441.807	88.622	0.213	-0.239
-440.792	-193.137	0.167	0.001
-439.778	-119.824	0.112	0.019
-438.763	462.797	-0.115	-0.259
-437.749	742.999	-0.074	0.202
-436.734	56.584	0.299	0.294
-435.719	-146.614	-0.472	-0.041
-434.705	-137.677	-0.088	0.010
-433.690	-101.496	0.112	-0.028
-432.676	800.000	-0.091	-0.335
-431.661	168.355	-0.194	0.279
-430.646	-200.000	0.032	-0.330
-429.632	79.360	0.130	0.141
-428.617	-77.997	-0.431	0.150
-427.603	800.000	-0.063	-0.266
-426.588	247.631	-0.015	0.026
-425.573	245.175	0.189	0.321
-424.559	441.720	-0.128	0.282
-423.544	800.000	-0.040	-0.175
-422.530	-48.577	0.123	-0.060
-421.515	-12.886	0.163	-0.107
-420.500	-200.000	0.030	-0.268
-419.486	156.103	0.270	0.376
-418.471	246.046	-0.098	-0.167
-417.457	-83.511	0.297	-0.096
-416.442	208.739	0.030	-0.048
-415.428	-94.986	-0.285	0.078
-414.413	44.048	-0.112	0.104
-413.398	109.382	0.114	-0.138
-412.384	800.000	-0.043	-0.175
-411.369	-106.281	0.201	0.045
-410.355	-82.541	0.113	0.037
-409.340	-29.080	-0.142	-0.082
-408.325	520.698	-0.100	0.237
-407.311	-170.152	0.390	-0.014
-406.296	-116.223	0.075	0.014
-405.282	-200.000	0.009	-0.429
-404.267	800.000	0.131	-0.444
-403.252	-200.000	0.057	-0.621
-402.238	31.604	0.181	0.157
-401.223	161.711	0.167	0.236
-400.209	-200.000	0.009	-0.046
-399.194	215.164	0.061	-0.098
-398.179	-129.980	0.285	0.039
-397.165	-112.880	-0.162	0.032
-396.150	-200.000	0.004	-0.022
-395.136	-112.525	-0.127	-0.026
-394.121	16.297	0.343	-0.273
-393.106	112.981	0.124	-0.151
-392.092	60.226	-0.155	-0.155
-391.077	12.829	0.112	-0.087
-390.063	-67.802	-0.139	-0.055
-389.048	-200.000	-0.026	0.183
-388.033	307.923	0.129	0.243
-387.019	410.447	0.034	-0.073
-386.004	742.873	-0.036	0.096
-384.990	-42.600	0.093	0.048
-383.975	-200.000	-0.048	-0.222
-382.960	564.776	0.030	0.074
-381.946	235.753	0.084	-0.140
-380.931	-200.000	-0.011	0.381
-379.917	222.949	0.151	0.246
-378.902	162.314	0.191	0.270
-377.888	-136.226	0.084	-0.010
-376.873	41.069	0.136	-0.124
-375.858	-7.424	0.207	0.141
-374.844	-128.514	0.496	0.071
-373.829	-200.000	-0.045	-0.342
-372.815	-90.544	-0.352	0.103
-371.800	-73.668	0.164	0.060
-370.785	-61.951	0.270	-0.114
-369.771	779.379	-0.133	0.366
-368.756	800.000	-0.033	0.100
-367.742	800.000	-0.109	-0.460
-366.727	-78.745	-0.341	0.117
-365.712	-200.000	-0.019	0.099
-364.698	-30.565	-0.137	0.078
-363.683	28.544	0.054	-0.046
-362.669	248.915	0.180	0.308
-361.654	-105.498	0.173	-0.040
-360.639	278.684	-0.111	0.199
-359.625	-200.000	-0.025	-0.185
-358.610	-158.025	0.043	0.003
-357.596	212.653	-0.178	-0.282
-356.581	-200.000	0.003	-0.206
-355.566	800.000	0.074	-0.277
-354.552	800.000	0.035	0.121
-353.537	-200.000	-0.025	0.117
-352.523	522.117	0.102	-0.240
-351.508	44.989	-0.093	0.086
-350.493	238.216	-0.079	-0.133
-349.479	-6.985	-0.079	-0.054
-348.464	32.284	0.135	-0.117
-347.450	-200.000	0.001	-0.126
-346.435	460.996	0.063	-0.141
-345.420	800.000	0.064	0.258
-344.406	800.000	0.031	0.090
-343.391	311.142	-0.097	0.183
-342.377	-116.989	0.203	-0.037
-341.362	171.145	0.138	-0.198
-340.348	210.130	0.152	0.239
-339.333	800.000	0.028	0.121
-338.318	214.736	-0.079	0.125
-337.304	255.962	0.187	0.323
-336.289	37.960	0.096	0.086
-335.275	-18.093	0.197	-0.124
-334.260	66.062	-0.162	0.166
-333.245	85.371	-0.192	0.212
-332.231	-200.000	0.001	-0.090
-331.216	142.804	0.168	0.224
-330.202	800.000	-0.078	0.275
-329.187	-126.667	-0.446	-0.066
-328.172	678.861	-0.051	-0.134
-327.158	54.094	-0.189	0.183
-326.143	-128.366	0.101	0.014
-325.129	-102.699	0.147	0.035
-324.114	800.000	-0.138	0.385
-323.099	128.085	-0.075	0.096
-322.085	-200.000	-0.010	0.086
-321.070	-97.614	-0.098	0.026
-320.056	-144.125	0.166	0.016
-319.041	68.559	-0.130	0.134
-318.026	788.541	0.076	0.211
-317.012	-187.535	0.090	0.001
-315.997	-200.000	0.001	0.194
-314.983	79.901	0.246	0.266
-313.968	-66.947	-0.082	0.033
-312.953	-200.000	0.023	-0.163
-311.939	-27.138	0.121	0.071
-310.924	16.815	0.123	-0.098
-309.910	40.026	-0.140	-0.126
-308.895	358.182	-0.122	0.245
-307.880	-33.437	-0.307	0.170
-306.866	71.679	-0.115	0.120
-305.851	800.000	0.103	-0.326
-304.837	234.951	0.079	-0.131
-303.822	-200.000	0.001	0.096
-302.807	-47.221	-0.114	-0.056
-301.793	-100.643	0.292	-0.073
-300.778	-94.046	-0.244	-0.067
-299.764	114.385	0.166	-0.203
-298.749	70.918	-0.110	0.115
-297.735	-200.000	0.083	-0.548
-296.720	177.627	-0.120	0.176
-295.705	661.842	0.088	0.228
-294.691	-150.925	0.182	0.014
-293.676	105.222	-0.168	-0.199
-292.662	-11.208	0.124	0.082
-291.647	-159.642	-0.301	-0.017
-290.632	-109.775	0.315	0.066
-289.618	27.055	0.179	-0.151
-288.603	-110.978	-0.316	0.065
-287.589	85.809	0.098	0.108
-286.574	8.105	-0.273	-0.206
-285.559	-22.646	0.154	0.094
-284.545	322.169	-0.060	0.114
-283.530	239.610	-0.300	-0.502
-282.516	-97.507	0.192	0.050
-281.501	371.119	-0.148	-0.300
-280.486	394.152	-0.145	-0.304
-279.472	-200.000	0.005	0.150
-278.457	-111.471	0.214	0.044
-277.443	-49.298	-0.237	0.113
-276.428	173.754	0.104	-0.150
-275.413	-200.000	0.008	0.233
-274.399	275.807	0.154	0.275
-273.384	-3.719	-0.235	-0.164
-272.370	800.000	-0.073	-0.213
-271.355	-139.871	-0.362	-0.038
-270.340	-14.312	-0.045	0.029
-269.326	-200.000	0.005	0.281
-268.311	95.213	0.309	0.353
-267.297	56.143	-0.261	-0.255
-266.282	-93.303	-0.224	-0.062
-265.267	-73.418	0.149	-0.055
-264.253	348.067	0.101	-0.200
-263.238	-200.000	0.004	0.160
-262.224	5.598	-0.296	-0.219
-261.209	800.000	0.066	-0.201
-260.195	283.605	-0.124	0.223
-259.180	106.874	0.207	-0.247
-258.165	800.000	-0.042	-0.120
-257.151	-53.909	-0.064	0.029
-256.136	46.718	-0.097	-0.091
-255.122	-200.000	-0.072	-0.341
-254.107	394.252	-0.089	-0.185
-253.092	-200.000	0.026	-0.476
-252.078	-7.430	0.172	-0.117
-251.063	-71.533	0.166	0.062
-250.049	145.823	-0.038	-0.051
-249.034	-94.226	-0.270	-0.074
-248.019	-156.383	0.274	-0.017
-247.005	-200.000	0.012	-0.229
-245.990	-147.419	0.290	-0.025
-244.976	110.886	0.364	0.439
-243.961	340.612	-0.071	0.139
-242.946	317.846	-0.145	0.275
-241.932	-200.000	0.010	0.194
-240.917	5.913	0.472	0.350
-239.903	621.514	-0.141	0.356
-238.888	119.367	0.210	0.261
-237.873	-200.000	0.030	-0.262
-236.859	-191.336	0.246	-0.003
-235.844	674.708	0.090	0.233
-234.830	45.539	0.212	-0.196
-233.815	-200.000	0.029	0.184
-232.800	95.306	0.065	-0.074
-231.786	-200.000	0.046	-0.238
-230.771	-200.000	-0.014	-0.121
-229.757	236.129	0.118	0.195
-228.742	800.000	0.028	0.112
-227.727	-40.570	0.203	0.105
-226.713	222.554	-0.255	-0.411
-225.698	642.439	-0.042	0.107
-224.684	12.979	-0.198	-0.153
-223.669	41.253	0.174	0.158
-222.655	33.904	0.223	0.194
-221.640	418.422	0.102	0.218
-220.625	-200.000	0.010	0.199
-219.611	30.930	0.211	0.181
-218.596	-150.869	0.569	0.043
-217.582	144.781	0.076	0.101
-216.567	189.119	-0.044	0.066
-215.552	115.394	-0.032	0.039
-214.538	14.438	0.266	-0.208
-213.523	-34.731	0.179	0.098
-212.509	301.642	0.088	-0.163
-211.494	-97.374	-0.249	-0.065
-210.479	143.162	-0.171	-0.227
-209.465	254.266	-0.125	0.215
-208.450	-91.587	0.274	-0.078
-207.436	239.977	0.092	0.154
-206.421	-41.735	-0.351	-0.181
-205.406	-3.010	0.156	0.109
-204.392	-110.947	0.390	0.080
-203.377	35.461	-0.294	0.258
-202.363	-162.634	-0.181	0.009
-201.348	47.890	0.018	0.017
-200.333	243.742	-0.053	0.089
-199.319	800.000	-0.069	0.291
-198.304	-200.000	0.039	0.257
-197.290	-96.500	-0.085	0.022
-196.275	-200.000	0.018	0.306
-195.260	800.000	0.050	0.144
-194.246	-200.000	-0.030	0.277
-193.231	-79.559	0.046	0.016
-192.217	-160.351	-0.093	-0.005
-191.202	-121.587	-0.445	-0.074
-190.187	5.290	0.334	-0.246
-189.173	-200.000	0.021	0.190
-188.158	-200.000	-0.053	-0.337
-187.144	-140.148	0.167	0.018
-186.129	-35.815	-0.184	-0.100
-185.114	-80.876	0.109	-0.036
-184.100	-60.448	0.298	0.127
-183.085	-53.968	0.433	0.197
-182.071	-67.116	-0.235	-0.093
-181.056	-117.301	0.491	-0.089
-180.042	-150.830	-0.121	-0.009
-179.027	93.920	-0.236	-0.268
-178.012	89.255	0.316	-0.353
-176.998	800.000	-0.042	0.178
-175.983	219.535	-0.144	0.230
-174.969	-77.760	0.115	-0.040
-173.954	163.505	-0.077	0.109
-172.939	81.872	-0.214	0.232
-171.925	-200.000	-0.045	0.341
-170.910	-45.394	-0.289	0.143
-169.896	254.648	0.052	-0.089
-168.881	-72.413	-0.059	0.022
-167.866	336.487	0.113	-0.218
-166.852	-179.541	0.198	0.004
-165.837	-42.753	0.206	0.105
-164.823	-49.704	-0.395	-0.188
-163.808	135.275	0.059	0.077
-162.793	-13.094	-0.234	-0.152
-161.779	-141.249	0.184	0.019
-160.764	-4.906	0.235	-0.162
-159.750	-200.000	-0.034	-0.170
-158.735	-200.000	0.006	-0.136
-157.720	161.263	0.216	-0.302
-156.706	121.099	-0.150	0.186
-155.691	79.576	-0.104	-0.111
-154.677	-200.000	-0.063	0.365
-153.662	-200.000	0.023	0.517
-152.647	-98.245	0.492	-0.126
-151.633	-88.948	-0.288	0.085
-150.618	-55.811	-0.138	-0.062
-149.604	54.031	0.186	-0.178
-148.589	132.128	0.179	-0.231
-147.574	-176.880	-0.077	0.002
-146.560	-126.860	0.340	0.050
-145.545	-200.000	-0.021	-0.160
-144.531	-200.000	-0.002	-0.215
-143.516	-46.830	0.187	0.092
-142.502	-200.000	0.008	-0.166
-141.487	53.741	0.031	-0.030
-140.472	68.194	0.092	-0.094
-139.458	-93.394	-0.208	-0.058
-138.443	-72.309	-0.205	-0.076
-137.429	135.372	0.068	-0.089
-136.414	-197.169	-0.165	0.001
-135.399	295.722	-0.134	0.246
-134.385	-13.781	0.377	0.243
-133.370	6.655	-0.139	-0.103
-132.356	-62.511	-0.413	0.171
-131.341	19.678	-0.285	-0.229
-130.326	-19.206	0.154	0.096
-129.312	-127.108	0.251	0.037
-128.297	397.895	0.073	-0.151
-127.283	-82.269	-0.182	0.059
-126.268	126.684	-0.155	0.196
-125.253	-156.423	-0.217	0.014
-124.239	-0.035	0.154	-0.109
-123.224	96.570	0.262	-0.299
-122.210	-173.702	-0.254	-0.008
-121.195	29.013	0.036	-0.031
-120.180	-200.000	-0.036	-0.309
-119.166	40.380	0.069	-0.062
-118.151	71.905	0.177	-0.184
-117.137	800.000	-0.085	0.304
-116.122	73.591	0.205	-0.214
-115.107	-56.373	0.266	-0.118
-114.093	-162.470	0.381	-0.019
-113.078	327.964	0.143	0.274
-112.064	800.000	-0.046	-0.168
-111.049	366.383	0.064	-0.128
-110.034	-200.000	-0.002	0.010
-109.020	239.696	-0.107	0.178
-108.005	52.006	0.216	-0.205
-106.991	29.969	-0.088	0.075
-105.976	-23.917	-0.175	0.104
-104.962	-24.303	0.119	0.071
-103.947	800.000	-0.046	-0.147
-102.932	258.675	-0.122	0.210
-101.918	32.853	0.173	0.150
-100.903	-84.257	0.161	0.051
-99.889	260.466	0.149	-0.257
-98.874	-153.951	0.098	0.007
-97.859	-12.322	-0.172	0.112
-96.845	-22.217	-0.154	-0.093
-95.830	-78.245	-0.372	-0.127
-94.816	-20.695	0.325	0.199
-93.801	684.624	0.060	0.156
-92.786	-200.000	0.025	0.163
-91.772	17.594	-0.077	0.061
-90.757	-140.547	0.330	-0.034
-89.743	371.670	0.085	0.173
-88.728	-200.000	0.050	0.309
-87.713	124.622	-0.292	-0.366
-86.699	115.884	0.150	-0.183
-85.684	90.100	0.126	-0.141
-84.670	787.402	0.033	-0.091
-83.655	-114.218	0.511	-0.098
-82.640	-165.799	-0.041	-0.002
-81.626	-119.903	-0.267	-0.046
-80.611	-58.936	0.139	0.060
-79.597	22.587	-0.128	-0.105
-78.582	-200.000	0.008	0.135
-77.567	-46.605	0.219	0.107
-76.553	149.114	-0.034	0.045
-75.538	178.025	-0.093	0.135
-74.524	65.696	0.110	0.111
-73.509	123.138	-0.069	0.086
-72.494	196.099	-0.084	-0.128
-71.480	-145.694	0.466	0.041
-70.465	165.031	-0.105	0.147
-69.451	110.453	-0.144	0.172
-68.436	278.527	0.203	0.359
-67.422	4.117	0.197	0.143
-66.407	-39.897	-0.104	0.054
-65.392	86.052	-0.047	-0.051
-64.378	89.164	0.100	-0.111
-63.363	716.466	-0.073	-0.193
-62.349	-200.000	0.054	-0.301
-61.334	123.140	-0.551	-0.687
-60.319	162.196	0.159	0.222
-59.305	454.768	-0.308	-0.679
-58.290	166.790	0.689	0.973
-57.276	196.231	0.886	1.342
-56.261	-200.000	86.282	496.026
-55.246	530.256	1382.708	3250.609
-54.232	183.610	2599.488	3824.116
-53.217	118.564	2221.193	2728.138
-52.203	48.789	1670.868	1559.432
-51.188	41.310	1402.589	1261.874
-50.173	37.956	1358.306	1201.376
-49.159	56.498	1400.962	1355.353
-48.144	61.574	1419.730	1405.168
-47.130	41.973	1377.441	1243.177
-46.115	38.178	1360.071	1204.113
-45.100	37.840	1355.695	1198.112
-44.086	37.657	1353.254	1194.788
-43.071	37.772	1350.450	1192.968
-42.057	37.726	1348.769	1191.153
-41.042	37.862	1346.650	1190.066
-40.027	37.870	1345.345	1188.912
-39.013	37.858	1343.605	1187.258
-37.998	37.953	1341.006	1185.489
-36.984	38.060	1339.373	1184.646
-35.969	38.026	1337.649	1182.873
-34.954	37.991	1335.836	1181.008
-33.940	38.165	1334.426	1180.767
-32.925	37.961	1333.044	1178.262
-31.911	38.021	1331.821	1177.502
-30.896	38.103	1330.436	1176.724
-29.881	38.192	1328.666	1175.645
-28.867	38.184	1327.220	1174.274
-27.852	38.104	1326.162	1172.806
-26.838	38.070	1324.903	1171.445
-25.823	38.092	1323.321	1170.134
-24.809	38.117	1321.681	1168.787
-23.794	38.118	1320.527	1167.722
-22.779	38.130	1319.266	1166.635
-21.765	38.120	1317.953	1165.366
-20.750	38.098	1316.599	1163.989
-19.736	37.921	1315.418	1161.849
-18.721	37.961	1313.875	1160.677
-17.706	37.920	1313.237	1159.825
-16.692	37.851	1312.041	1158.310
-15.677	38.047	1310.399	1157.976
-14.663	38.035	1309.130	1156.741
-13.648	38.039	1307.825	1155.566
-12.633	37.829	1307.360	1153.863
-11.619	37.947	1306.019	1153.332
-10.604	37.924	1305.496	1152.690
-9.590	37.826	1304.956	1151.587
-8.575	37.886	1303.847	1150.918
-7.560	37.887	1302.476	1149.669
-6.546	37.910	1301.598	1148.981
-5.531	37.900	1300.509	1147.914
-4.517	37.887	1299.895	1147.253
-3.502	37.916	1299.159	1146.729
-2.487	37.989	1298.068	1146.148
-1.473	38.147	1293.730	1143.197
-0.458	36.820	1278.614	1122.115
0.556	33.231	1258.412	1079.187
1.571	28.930	1262.656	1058.051
2.586	27.521	1276.847	1061.642
3.600	26.064	1264.298	1042.700
4.615	19.364	1188.767	943.782
5.629	9.665	1108.154	829.988
6.644	5.147	1086.062	790.525
7.659	4.973	1082.611	787.069
8.673	5.081	1081.571	786.784
9.688	5.049	1080.651	785.888
10.702	5.152	1078.830	785.009
11.717	10.417	1087.397	817.805
12.731	18.804	1098.916	868.997
13.746	20.964	1100.309	880.953
14.761	19.536	1097.668	871.555
15.775	18.415	1095.560	864.153
16.790	17.362	1093.571	857.201
17.804	16.558	1092.111	851.934
18.819	16.314	1091.121	849.863
19.834	15.910	1090.028	846.901
20.848	15.677	1089.121	844.951
21.863	15.564	1088.406	843.756
22.877	15.388	1088.011	842.490
23.892	15.336	1086.724	841.161
24.907	15.486	1085.860	841.165
25.921	15.350	1084.963	839.718
26.936	15.414	1083.745	839.017
27.950	15.431	1082.040	837.711
28.965	15.482	1080.927	837.028
29.980	15.681	1079.069	836.507
30.994	15.708	1077.631	835.450
32.009	15.634	1077.133	834.621
33.023	15.718	1075.729	833.878
34.038	15.641	1074.637	832.579
35.053	15.371	1074.186	830.819
36.067	15.556	1073.184	830.883
37.082	15.587	1072.165	830.177
38.096	15.657	1071.715	830.098
39.111	15.676	1070.806	829.413
40.126	15.412	1069.743	827.217
41.140	15.384	1068.022	825.677
42.155	15.320	1066.916	824.431
43.169	15.279	1065.716	823.233
44.184	15.241	1064.452	821.994
45.199	15.221	1063.801	821.323
46.213	15.380	1062.694	821.173
47.228	15.445	1061.871	820.780
48.242	15.438	1060.820	819.864
49.257	15.402	1059.916	818.917
50.271	15.364	1059.271	818.160
51.286	15.646	1057.566	818.144
52.301	15.526	1056.996	817.046
53.315	15.321	1055.659	814.945
54.330	15.285	1054.616	813.894
55.344	15.395	1053.664	813.619
56.359	15.504	1052.674	813.309
57.374	15.347	1051.917	811.892
58.388	15.169	1051.210	810.416
59.403	15.158	1050.674	809.876
60.417	15.172	1049.751	809.159
61.432	15.182	1049.122	808.651
62.447	15.211	1047.841	807.736
63.461	15.194	1047.057	806.977
64.476	15.098	1045.763	805.446
65.490	15.073	1045.351	804.939
66.505	15.262	1044.333	804.988
67.520	15.193	1043.922	804.270
68.534	15.289	1043.051	803.990
69.549	15.201	1041.886	802.600
70.563	15.084	1041.482	801.655
71.578	15.069	1040.638	800.865
72.593	15.061	1039.643	799.987
73.607	15.001	1039.488	799.514
74.622	15.003	1038.614	798.779
75.636	15.082	1037.782	798.447
76.651	15.049	1036.809	797.467
77.666	15.033	1036.313	796.940
78.680	15.106	1035.454	796.557
79.695	15.141	1034.763	796.123
80.709	15.223	1034.254	796.050
81.724	15.391	1033.842	796.458
82.739	15.448	1033.192	796.156
83.753	15.506	1032.192	795.591
84.768	15.709	1031.529	795.969
85.782	15.555	1030.775	794.591
86.797	15.654	1029.995	794.384
87.812	15.551	1028.626	792.772
88.826	15.443	1027.675	791.462
89.841	15.554	1026.848	791.280
90.855	15.650	1025.942	790.961
91.870	15.646	1024.822	790.009
92.884	15.768	1023.997	789.876
93.899	15.715	1023.106	788.872
94.914	15.801	1022.656	788.857
95.928	15.699	1021.908	787.734
96.943	15.594	1020.920	786.408
97.957	15.597	1019.777	785.476
98.972	15.556	1019.108	784.698
99.987	15.570	1018.185	783.983
101.001	15.564	1017.307	783.209
102.016	15.600	1016.313	782.544
103.030	15.610	1015.497	781.892
104.045	15.601	1014.783	781.231
105.060	15.468	1014.045	779.974
106.074	15.526	1012.819	779.234
107.089	15.299	1011.450	777.058
108.103	15.239	1010.845	776.245
109.118	15.225	1010.132	775.567
110.133	15.308	1008.790	774.853
111.147	15.088	1008.167	773.288
112.162	15.173	1007.666	773.227
113.176	15.258	1006.878	772.946
114.191	15.409	1005.793	772.740
115.206	15.466	1005.340	772.586
116.220	15.368	1004.031	771.062
117.235	15.287	1003.311	770.068
118.249	15.347	1002.524	769.671
119.264	15.234	1001.846	768.563
120.279	15.185	1000.938	767.577
121.293	15.229	999.966	766.963
122.308	15.179	999.355	766.200
123.322	15.210	998.184	765.372
124.337	15.186	997.420	764.612
125.352	15.074	995.981	762.932
126.366	15.154	995.164	762.601
127.381	15.078	994.020	761.310
128.395	15.228	993.019	761.159
129.410	15.328	992.021	760.781
130.424	15.372	991.311	760.366
131.439	15.544	990.237	760.255
132.454	15.509	989.823	759.710
133.468	15.495	988.497	758.563
134.483	15.521	988.092	758.302
135.497	15.420	987.505	757.328
136.512	15.444	986.558	756.642
137.527	15.433	985.539	755.749
138.541	15.523	984.638	755.395
139.556	15.574	984.265	755.270
140.570	15.546	983.583	754.554
141.585	15.791	982.573	754.813
142.600	15.844	981.681	754.297
143.614	15.771	981.014	753.394
144.629	15.736	980.403	752.699
145.643	15.705	978.954	751.382
146.658	15.705	977.915	750.519
147.673	15.631	976.866	749.314
148.687	15.617	976.128	748.623
149.702	15.528	975.161	747.416
150.716	15.487	974.371	746.561
151.731	15.424	974.126	746.028
152.746	15.512	973.026	745.511
153.760	15.553	972.698	745.374
154.775	15.581	972.197	745.049
155.789	15.707	971.312	744.864
156.804	15.720	970.533	744.259
157.819	15.743	969.590	743.571
158.833	15.795	969.426	743.609
159.848	15.788	968.727	742.977
160.862	15.787	967.676	742.102
161.877	15.591	966.217	740.054
162.892	15.566	965.102	739.024
163.906	15.470	964.476	738.058
164.921	15.640	963.311	737.844
165.935	15.627	962.828	737.356
166.950	15.783	961.775	737.166
167.964	15.679	960.978	736.034
168.979	15.583	960.260	735.000
169.994	15.530	959.738	734.304
171.008	15.798	958.691	734.610
172.023	15.843	958.027	734.232
173.037	15.923	957.454	734.074
174.052	15.865	956.200	732.795
175.067	15.655	956.028	731.684
176.081	15.642	955.373	731.061
177.096	15.577	954.926	730.372
178.110	15.680	953.892	729.963
179.125	15.697	953.530	729.699
180.140	15.748	952.882	729.360
181.154	15.769	952.592	729.161
182.169	15.983	952.095	729.646
183.183	15.928	951.554	728.930
184.198	15.870	950.892	728.105
185.213	15.907	949.913	727.453
186.227	15.899	949.160	726.774
187.242	15.966	948.768	726.700
188.256	16.049	948.303	726.637
189.271	16.032	947.136	725.604
190.286	15.913	946.235	724.338
191.300	15.712	945.081	722.528
192.315	15.581	944.941	721.794
193.329	15.634	944.299	721.467
194.344	15.484	944.327	720.780
195.359	15.947	942.951	721.653
196.373	15.818	942.385	720.603
197.388	15.964	942.513	721.262
198.402	16.082	941.863	721.206
199.417	16.245	940.836	721.052
200.432	16.295	940.487	720.932
201.446	16.314	939.870	720.477
202.461	16.301	939.814	720.316
203.475	16.403	938.645	719.792
204.490	16.073	938.303	718.057
205.504	16.008	937.488	717.097
206.519	16.059	936.344	716.374
207.534	16.099	935.932	716.164
208.548	16.167	935.048	715.716
209.563	16.138	934.407	715.036
210.577	16.180	933.524	714.477
211.592	16.364	932.911	714.722
212.607	16.427	931.920	714.167
213.621	16.385	931.098	713.294
214.636	16.261	930.669	712.378
215.650	16.387	929.564	712.004
216.665	16.419	929.367	711.924
217.680	16.531	928.775	711.878
218.694	16.452	928.070	710.944
219.709	16.314	927.727	710.039
220.723	16.459	926.626	709.739
221.738	16.534	925.972	709.493
222.753	16.377	925.329	708.277
223.767	16.470	924.684	708.112
224.782	16.425	924.323	707.584
225.796	16.496	923.692	707.333
226.811	16.430	923.261	706.668
227.826	16.543	921.981	706.095
228.840	16.496	921.322	705.334
229.855	16.375	920.550	704.176
230.869	16.362	919.761	703.454
231.884	16.530	918.957	703.474
232.899	16.310	918.470	702.128
233.913	16.324	917.688	701.525
234.928	16.371	917.123	701.226
235.942	16.357	916.409	700.561
236.957	16.312	915.614	699.706
237.972	16.299	915.506	699.508
238.986	16.328	914.487	698.785
240.001	16.324	913.652	698.068
241.015	16.426	913.488	698.304
242.030	16.570	912.372	697.981
243.045	16.594	911.834	697.607
244.059	16.554	911.791	697.350
245.074	16.530	911.166	696.709
246.088	16.622	910.077	696.195
247.103	16.666	909.364	695.767
248.117	16.787	909.438	696.261
249.132	17.038	908.754	696.706
250.147	17.090	908.172	696.413
251.161	17.066	907.483	695.725
252.176	16.970	906.910	694.830
253.190	17.076	906.064	694.551
254.205	17.229	905.702	694.841
255.220	17.131	904.977	693.823
256.234	17.137	904.297	693.263
257.249	17.143	903.596	692.690
258.263	17.163	902.483	691.855
259.278	17.021	902.331	691.100
260.293	17.196	901.469	691.092
261.307	17.055	901.338	690.354
262.322	17.282	900.204	690.348
263.336	17.319	899.875	690.184
264.351	17.339	898.717	689.315
265.366	17.407	897.790	688.820
266.380	17.366	897.955	688.718
267.395	17.312	897.136	687.812
268.409	17.157	896.056	686.298
269.424	17.306	895.036	686.055
270.439	17.343	894.080	685.413
271.453	17.242	893.599	684.577
272.468	17.191	893.247	684.040
273.482	17.259	892.213	683.461
274.497	17.193	892.238	683.155
275.512	17.222	891.299	682.490
276.526	17.335	890.969	682.630
277.541	17.224	890.711	681.928
278.555	17.434	890.051	682.204
279.570	17.498	889.512	681.986
280.585	17.552	888.685	681.509
281.599	17.333	888.177	680.184
282.614	17.467	887.140	679.866
283.628	17.320	886.707	678.884
284.643	17.313	886.412	678.573
285.657	17.471	885.304	678.292
286.672	17.348	885.188	677.655
287.687	17.417	884.291	677.182
288.701	17.333	883.835	676.439
289.716	17.370	882.859	675.778
290.730	17.401	882.441	675.524
291.745	17.554	881.883	675.644
292.760	17.364	881.502	674.538
293.774	17.512	880.734	674.477
294.789	17.597	880.056	674.234
295.803	17.607	878.994	673.402
296.818	17.461	878.680	672.525
297.833	17.527	878.109	672.286
298.847	17.627	876.771	671.598
299.862	17.591	876.521	671.207
300.876	17.568	876.689	671.185
301.891	17.847	875.655	671.430
302.906	17.842	874.581	670.527
303.920	17.909	874.603	670.747
304.935	18.020	873.765	670.481
305.949	17.854	873.370	669.470
306.964	17.825	872.364	668.527
307.979	17.798	872.057	668.123
308.993	17.937	871.362	668.077
310.008	17.932	870.833	667.592
311.022	17.852	870.046	666.616
312.037	17.851	869.610	666.222
313.052	17.679	869.283	665.240
314.066	17.691	868.436	664.579
315.081	17.546	868.108	663.706
316.095	17.698	867.207	663.550
317.110	17.683	866.780	663.104
318.125	17.671	866.172	662.534
319.139	17.718	865.802	662.377
320.154	17.757	865.524	662.256
321.168	17.895	864.332	661.819
322.183	17.798	864.272	661.341
323.197	17.888	863.412	660.972
324.212	17.767	863.431	660.458
325.227	17.840	862.273	659.796
326.241	17.812	862.129	659.521
327.256	17.800	861.308	658.790
328.270	17.917	860.369	658.462
329.285	17.773	860.465	657.921
330.300	17.784	859.640	657.275
331.314	17.717	859.547	656.888
332.329	17.915	858.697	656.943
333.343	18.040	858.194	656.982
334.358	18.013	857.936	656.622
335.373	17.995	857.785	656.379
336.387	18.151	856.856	656.208
337.402	18.205	856.929	656.413
338.416	18.134	856.750	655.944
339.431	18.351	856.342	656.406
340.446	18.374	855.698	655.943
341.460	18.377	855.175	655.497
342.475	18.486	855.090	655.788
343.489	18.337	854.509	654.717
344.504	18.549	853.929	655.024
345.519	18.511	853.474	654.471
346.533	18.403	852.988	653.629
347.548	18.387	852.609	653.221
348.562	18.252	851.522	651.815
349.577	18.159	851.224	651.176
350.592	18.267	850.250	650.783
351.606	18.231	849.648	650.127
352.621	18.227	848.789	649.400
353.635	18.183	848.468	648.928
354.650	18.323	847.733	648.840
355.665	18.368	846.935	648.342
356.679	18.438	846.483	648.202
357.694	18.380	845.920	647.494
358.708	18.413	845.371	647.144
359.723	18.421	844.507	646.455
360.738	18.484	843.789	646.085
361.752	18.498	843.457	645.824
362.767	18.543	842.832	645.460
363.781	18.623	842.518	645.462
364.796	18.745	842.243	645.652
365.810	18.869	841.925	645.818
366.825	18.814	841.588	645.296
367.840	18.819	840.830	644.675
368.854	18.815	840.071	644.024
369.869	18.711	839.747	643.327
370.883	18.680	839.285	642.800
371.898	18.858	838.854	643.079
372.913	18.825	838.422	642.570
373.927	18.925	837.931	642.509
374.942	18.960	837.527	642.272
375.956	18.766	837.371	641.372
376.971	19.076	836.512	641.814
377.986	19.033	836.328	641.457
379.000	19.000	835.865	640.920
380.015	19.041	835.028	640.375
381.029	19.016	834.606	639.901
382.044	18.833	834.292	638.925
383.059	18.978	833.350	638.685
384.073	19.117	832.631	638.593
385.088	18.928	832.053	637.391
386.102	18.729	832.034	636.585
387.117	18.948	830.908	636.477
388.132	18.943	830.417	636.024
389.146	19.013	829.960	635.876
390.161	19.059	829.782	635.854
391.175	18.944	829.420	635.097
392.190	19.092	828.288	634.721
393.205	19.020	828.150	634.291
394.219	19.022	827.881	634.038
395.234	18.924	827.630	633.426
396.248	18.987	826.796	632.965
397.263	18.911	826.016	632.034
398.278	18.885	826.102	631.946
399.292	18.813	825.751	631.358
400.307	18.900	824.948	631.009
401.321	18.891	824.804	630.810
402.336	19.090	824.081	630.931
403.350	18.968	823.802	630.212
404.365	19.074	823.075	629.989
405.380	19.252	822.673	630.276
406.394	19.248	822.178	629.827
407.409	19.238	821.655	629.335
408.423	19.388	821.510	629.715
409.438	19.451	821.130	629.600
410.453	19.477	820.573	629.212
411.467	19.440	820.267	628.785
412.482	19.471	819.853	628.527
413.496	19.605	819.185	628.444
414.511	19.580	818.882	628.067
415.526	19.405	818.938	627.416
416.540	19.309	818.426	626.620
417.555	19.551	817.422	626.674
418.569	19.538	817.343	626.513
419.584	19.502	816.876	625.967
420.599	19.606	816.158	625.739
421.613	151.693	1368.455	1776.961
422.628	131.933	1448.939	1777.113
