DTS Sentinel unit serial number:	SN413079Multiplexer serial number:	ORYXHardware model number:	OX4-SRSoftware version number:	ORYX F/W v4.00 Oryx Data Collector v3.7.2.0data status	okinstallation	princeton_trtdifferential loss correction	single-endedforward channel	channel 1reverse channel	N/Adate	2019/09/12time	19:31:34forward acquisition time	15.00reverse acquisition time	0.00gamma	496.2192k internal	0.2322k external	0.2322temperature offset calibration	1.0126default loss term (dB/km)	0.3790temperature slope calibration	1.0000multiplexer offset coefficient	1.0000multiplexer slope coefficient	1.0000fibre end	0.00T internal ref (°C)	32.25T ext. ref 1 (°C)	3.34T ext. ref 2 (°C)	26.74length (m)	temperature (°C)	Stokes	anti-Stokes-747.200	-90.434	-0.410	-0.120
-746.185	800.000	0.070	-0.225
-745.171	-73.807	0.175	-0.064
-744.156	-200.000	0.142	0.717
-743.142	-200.000	-0.598	0.002
-742.127	47.204	0.466	-0.438
-741.112	-200.000	-0.007	-0.467
-740.098	-200.000	0.154	-0.764
-739.083	25.462	-0.718	0.603
-738.069	800.000	0.224	0.644
-737.054	111.753	0.469	0.571
-736.039	-71.225	-0.227	-0.086
-735.025	6.641	0.768	0.577
-734.010	104.860	-0.434	-0.517
-732.996	-32.577	0.656	0.369
-731.981	800.000	0.147	0.613
-730.966	-200.000	-0.004	-0.231
-729.952	29.091	0.258	-0.221
-728.937	5.458	0.349	0.260
-727.923	-134.540	0.661	0.081
-726.908	497.551	-0.440	1.023
-725.894	368.700	-0.175	-0.357
-724.879	800.000	0.147	-0.514
-723.864	-96.955	-0.810	-0.214
-722.850	528.972	0.146	-0.347
-721.835	-117.521	-0.157	0.029
-720.821	-200.000	-0.017	-0.643
-719.806	-8.019	-0.564	0.384
-718.791	34.167	-0.386	0.339
-717.777	90.128	-0.446	0.503
-716.762	-200.000	0.062	-0.322
-715.748	-39.753	-0.440	-0.232
-714.733	-52.557	0.770	0.359
-713.718	-102.014	0.244	-0.059
-712.704	-91.328	-0.691	0.199
-711.689	-80.076	0.650	-0.220
-710.675	-200.000	0.079	0.577
-709.660	-77.323	0.123	0.043
-708.645	800.000	0.224	0.894
-707.631	55.931	0.266	0.261
-706.616	-200.000	-0.032	-0.556
-705.602	800.000	-0.180	0.537
-704.587	800.000	-0.068	-0.289
-703.572	-83.218	0.348	-0.113
-702.558	6.294	-0.492	0.368
-701.543	-118.621	0.595	-0.106
-700.529	-200.000	0.020	-0.089
-699.514	-200.000	-0.175	-0.917
-698.499	62.979	-0.033	-0.033
-697.485	-42.468	0.437	-0.224
-696.470	1.714	0.461	0.335
-695.456	22.311	-0.378	0.311
-694.441	-147.308	-0.296	-0.025
-693.426	376.524	0.085	0.175
-692.412	42.940	-0.232	-0.214
-691.397	-43.253	-0.622	0.317
-690.383	54.559	-0.863	-0.839
-689.368	14.983	0.435	-0.343
-688.354	-169.930	-0.234	0.008
-687.339	-95.574	0.243	0.066
-686.324	22.058	-0.384	0.316
-685.310	110.118	-0.019	-0.023
-684.295	800.000	-0.301	-1.073
-683.281	-62.234	0.302	-0.127
-682.266	-151.731	-0.412	-0.031
-681.251	-200.000	0.020	0.443
-680.237	428.689	-0.381	0.830
-679.222	307.750	-0.341	0.641
-678.208	-52.024	0.285	-0.133
-677.193	-42.936	0.168	0.086
-676.178	-54.741	0.910	-0.414
-675.164	-22.141	-0.412	-0.252
-674.149	51.540	-0.731	-0.700
-673.135	123.343	0.273	0.345
-672.120	56.393	0.324	0.317
-671.105	-44.858	-0.373	0.187
-670.091	-98.443	-0.655	0.169
-669.076	-200.000	-0.002	-0.640
-668.062	-200.000	0.137	-0.706
-667.047	-87.182	0.261	-0.080
-666.032	-121.384	-1.262	0.212
-665.018	-156.605	1.263	0.079
-664.003	-47.745	-0.785	-0.383
-662.989	-145.207	-0.506	-0.046
-661.974	800.000	-0.193	-0.537
-660.959	800.000	-0.118	0.403
-659.945	116.845	-0.161	-0.199
-658.930	-133.805	0.296	-0.037
-657.916	-200.000	0.143	-0.898
-656.901	-200.000	-0.006	-0.519
-655.886	-200.000	0.077	-0.365
-654.872	306.591	-0.046	0.087
-653.857	188.782	-0.388	-0.584
-652.843	800.000	0.152	0.503
-651.828	14.789	0.446	-0.351
-650.814	-47.727	0.185	-0.090
-649.799	-161.735	0.696	-0.036
-648.784	-200.000	0.103	0.588
-647.770	330.451	-0.142	-0.275
-646.755	91.498	-0.464	-0.525
-645.741	318.142	0.382	0.728
-644.726	335.863	0.472	0.921
-643.711	-200.000	-0.017	0.114
-642.697	74.535	0.319	-0.338
-641.682	-200.000	0.046	-0.547
-640.668	594.868	-0.195	-0.487
-639.653	-200.000	0.028	-0.460
-638.638	202.984	-0.377	-0.585
-637.624	580.080	-0.363	0.895
-636.609	80.084	-0.452	-0.489
-635.595	611.286	0.191	0.481
-634.580	-99.137	-0.684	-0.174
-633.565	-124.416	0.166	0.026
-632.551	32.014	0.335	-0.291
-631.536	-91.050	-0.049	0.014
-630.522	19.645	-0.439	0.356
-629.507	-200.000	-0.085	-0.658
-628.492	-200.000	-0.119	-0.554
-627.478	-110.183	-0.449	-0.094
-626.463	208.079	0.101	-0.158
-625.449	-200.000	-0.014	-0.736
-624.434	-200.000	0.120	-0.539
-623.419	-108.972	-0.224	0.048
-622.405	63.233	-0.217	-0.219
-621.390	-128.105	0.345	-0.050
-620.376	-156.398	0.326	0.020
-619.361	180.246	-0.124	-0.183
-618.346	34.147	0.399	0.349
-617.332	-116.433	0.199	0.037
-616.317	-25.779	-0.609	0.361
-615.303	-59.532	-0.931	-0.402
-614.288	590.434	0.059	0.147
-613.273	-46.605	0.511	0.252
-612.259	-67.817	0.473	0.186
-611.244	-114.306	0.342	-0.066
-610.230	-200.000	-0.010	0.123
-609.215	141.487	-0.290	-0.385
-608.201	83.831	-0.557	0.611
-607.186	-137.544	-0.754	0.086
-606.171	-86.277	-0.595	-0.184
-605.157	800.000	0.132	0.402
-604.142	-200.000	0.093	0.468
-603.128	-200.000	0.131	0.816
-602.113	200.681	0.364	-0.563
-601.098	14.794	-0.746	-0.586
-600.084	230.466	-0.566	-0.931
-599.069	-22.909	-0.521	-0.315
-598.055	162.192	0.476	-0.670
-597.040	106.891	-0.435	0.519
-596.025	-141.324	0.508	0.052
-595.011	-68.341	0.285	-0.111
-593.996	46.544	0.947	-0.883
-592.982	-66.380	0.368	-0.147
-591.967	29.246	0.348	0.297
-590.952	-16.472	0.363	0.231
-589.938	-2.791	-0.399	-0.280
-588.923	-132.936	-0.881	-0.113
-587.909	-103.375	0.060	0.014
-586.894	-200.000	0.050	0.387
-585.879	133.184	-0.249	-0.323
-584.865	95.829	-0.198	-0.227
-583.850	200.521	-0.290	0.448
-582.836	-98.730	-0.432	0.110
-581.821	-95.805	0.275	-0.074
-580.806	-91.282	0.887	0.255
-579.792	-102.231	-0.721	0.174
-578.777	-42.220	0.928	0.476
-577.763	19.935	0.597	0.483
-576.748	-77.863	-0.443	0.154
-575.733	138.008	0.376	0.494
-574.719	-134.454	-0.424	-0.052
-573.704	-164.499	-0.671	-0.031
-572.690	-125.765	-0.204	-0.031
-571.675	386.840	0.283	-0.586
-570.661	246.335	0.143	0.241
-569.646	172.846	0.596	-0.861
-568.631	-78.951	0.323	-0.110
-567.617	-161.516	0.192	0.010
-566.602	-89.371	-0.392	-0.116
-565.588	800.000	-0.097	0.405
-564.573	158.738	0.500	-0.697
-563.558	-200.000	0.039	-0.185
-562.544	-93.962	-0.041	-0.011
-561.529	-81.273	-1.050	0.348
-560.515	-200.000	0.048	0.439
-559.500	454.502	0.133	0.295
-558.485	-134.795	0.212	-0.026
-557.471	-94.843	-0.082	-0.022
-556.456	495.284	0.339	0.782
-555.442	63.290	-0.277	0.279
-554.427	42.641	0.557	-0.509
-553.412	-167.769	-0.405	-0.016
-552.398	-151.607	0.554	0.041
-551.383	-11.033	-0.188	-0.125
-550.369	-200.000	0.173	0.884
-549.354	-105.080	-0.602	0.138
-548.339	76.096	0.382	0.406
-547.325	206.221	0.174	0.271
-546.310	-200.000	0.164	-0.925
-545.296	-200.000	-0.054	-0.402
-544.281	-99.888	0.472	0.118
-543.266	-36.399	-0.444	-0.240
-542.252	614.029	0.079	-0.198
-541.237	122.011	-0.131	0.164
-540.223	-82.929	-0.376	0.122
-539.208	72.175	0.343	-0.358
-538.193	-200.000	0.062	-0.372
-537.179	-200.000	0.028	0.471
-536.164	-200.000	-0.112	0.736
-535.150	-36.076	-0.385	-0.209
-534.135	800.000	-0.049	-0.200
-533.121	317.281	-0.314	0.595
-532.106	10.636	-0.087	0.066
-531.091	24.700	0.148	-0.123
-530.077	393.006	-0.394	-0.821
-529.062	85.820	-0.261	0.287
-528.048	-67.567	0.314	-0.123
-527.033	-26.091	-0.815	0.480
-526.018	70.093	0.198	-0.204
-525.004	-117.693	-0.250	-0.045
-523.989	-11.326	-0.730	0.482
-522.975	-160.378	0.136	0.007
-521.960	-200.000	0.022	-0.249
-520.945	-167.133	0.905	-0.037
-519.931	800.000	-0.264	-1.015
-518.916	-55.385	0.261	0.117
-517.902	-103.035	-0.138	0.033
-516.887	-37.939	0.620	0.330
-515.872	-69.527	-0.882	-0.338
-514.858	-95.433	0.848	-0.228
-513.843	11.916	-0.229	-0.176
-512.829	-200.000	-0.112	0.721
-511.814	-200.000	-0.004	0.376
-510.799	-77.352	-0.881	-0.307
-509.785	-136.262	0.800	-0.093
-508.770	104.297	-0.362	-0.427
-507.756	-200.000	0.007	-0.498
-506.741	741.861	-0.251	0.675
-505.726	380.059	0.139	-0.285
-504.712	-11.967	-0.404	-0.265
-503.697	800.000	0.176	-0.706
-502.683	45.140	-0.163	0.151
-501.668	-200.000	0.071	0.866
-500.653	-16.276	-0.612	-0.389
-499.639	-22.120	-0.591	-0.359
-498.624	-2.737	-0.610	0.427
-497.610	-200.000	-0.188	-1.222
-496.595	-200.000	-0.104	-0.722
-495.581	-118.801	-0.540	-0.095
-494.566	360.518	-0.459	0.919
-493.551	-179.666	0.307	0.007
-492.537	-24.484	-0.426	-0.254
-491.522	-71.857	0.371	0.138
-490.508	800.000	-0.078	0.244
-489.493	166.431	-0.338	-0.478
-488.478	-200.000	0.079	0.501
-487.464	-200.000	-0.047	-0.672
-486.449	65.223	-0.697	-0.705
-485.435	-65.401	-0.484	0.195
-484.420	-84.341	-0.178	-0.056
-483.405	40.466	-0.210	-0.189
-482.391	318.104	0.294	-0.556
-481.376	-131.190	-0.474	0.063
-480.362	-24.205	0.593	-0.354
-479.347	80.413	-0.139	-0.150
-478.332	270.802	-0.191	-0.335
-477.318	25.076	-0.258	0.214
-476.303	-78.535	0.526	0.180
-475.289	270.324	0.223	0.393
-474.274	61.765	-0.366	0.364
-473.259	-115.304	-0.684	0.129
-472.245	-35.845	0.144	0.078
-471.230	11.751	0.553	-0.424
-470.216	176.890	0.083	-0.121
-469.201	-57.672	-1.009	-0.442
-468.186	800.000	0.252	0.864
-467.172	229.724	0.243	-0.397
-466.157	-30.776	-0.350	0.198
-465.143	72.607	0.064	0.067
-464.128	-73.559	0.841	-0.306
-463.113	-19.134	-0.903	0.560
-462.099	-200.000	-0.087	0.802
-461.084	764.195	-0.277	0.751
-460.070	23.759	-0.431	-0.355
-459.055	-60.537	0.436	-0.185
-458.040	-22.789	0.532	0.321
-457.026	282.943	-0.518	0.929
-456.011	-74.604	0.308	-0.111
-454.997	-137.318	0.087	-0.010
-453.982	-200.000	0.025	0.527
-452.968	11.809	0.146	0.112
-451.953	587.655	0.233	-0.573
-450.938	63.823	0.259	0.260
-449.924	100.361	0.294	-0.341
-448.909	-152.270	0.753	-0.054
-447.895	172.098	-0.609	-0.874
-446.880	-69.297	-0.332	0.127
-445.865	-66.148	0.632	0.252
-444.851	-200.000	-0.030	0.678
-443.836	-200.000	-0.047	-0.589
-442.822	-96.628	-0.706	-0.186
-441.807	-3.891	0.168	-0.116
-440.792	16.369	0.464	0.366
-439.778	-49.233	-0.359	-0.171
-438.763	27.203	-0.415	-0.348
-437.749	-145.820	0.644	0.057
-436.734	-57.896	0.366	0.160
-435.719	-57.192	-0.499	-0.219
-434.705	64.009	0.292	-0.293
-433.690	9.531	0.257	0.194
-432.676	-200.000	0.039	-0.386
-431.661	183.132	0.117	-0.172
-430.646	236.642	0.173	-0.285
-429.632	-90.632	0.185	0.053
-428.617	800.000	0.182	0.531
-427.603	-193.982	0.608	-0.005
-426.588	-89.522	-1.353	0.397
-425.573	-22.612	0.234	0.141
-424.559	-139.901	-1.089	0.115
-423.544	-167.009	0.367	0.015
-422.530	-103.149	0.554	-0.131
-421.515	424.348	0.214	-0.459
-420.500	-152.925	-0.748	0.053
-419.486	38.238	-0.640	-0.568
-418.471	131.932	0.215	0.276
-417.457	219.522	-0.369	0.588
-416.442	800.000	0.322	-1.105
-415.428	-133.886	-0.214	-0.027
-414.413	637.470	-0.153	0.388
-413.398	800.000	-0.137	0.460
-412.384	-87.316	-0.776	0.235
-411.369	-200.000	-0.107	-0.587
-410.355	-200.000	0.059	-0.554
-409.340	-103.854	-0.960	0.224
-408.325	-94.447	0.626	0.170
-407.311	122.228	0.034	-0.042
-406.296	34.417	0.128	0.111
-405.282	-146.150	-0.302	-0.027
-404.267	254.227	0.251	-0.428
-403.252	4.371	0.375	-0.274
-402.238	-57.629	-0.507	-0.222
-401.223	-22.524	-0.451	0.272
-400.209	-119.651	-1.170	0.202
-399.194	-58.466	-0.074	0.032
-398.179	800.000	-0.168	0.600
-397.165	-200.000	-0.114	0.539
-396.150	109.261	0.583	0.695
-395.136	154.084	0.157	0.214
-394.121	231.356	0.469	-0.765
-393.106	242.714	-0.332	-0.553
-392.092	145.813	0.329	0.440
-391.077	800.000	0.203	0.742
-390.063	-200.000	-0.071	1.118
-389.048	800.000	-0.056	0.213
-388.033	800.000	-0.178	-0.605
-387.019	574.938	-0.221	0.538
-386.004	-200.000	-0.083	-0.508
-384.990	-80.572	0.388	0.129
-383.975	6.486	-0.697	0.516
-382.960	-200.000	-0.012	0.270
-381.946	-200.000	0.168	-0.879
-380.931	800.000	-0.241	-1.023
-379.917	166.893	0.177	0.250
-378.902	-168.736	0.629	-0.024
-377.888	-200.000	0.033	-0.483
-376.873	231.959	0.192	0.313
-375.858	67.685	0.593	0.604
-374.844	-200.000	-0.016	0.146
-373.829	375.756	-0.412	-0.836
-372.815	-126.163	0.115	-0.017
-371.800	7.578	0.289	-0.215
-370.785	126.061	0.220	-0.277
-369.771	152.593	0.335	0.455
-368.756	677.024	-0.184	-0.475
-367.742	27.344	0.316	-0.265
-366.727	-136.226	0.456	0.053
-365.712	-17.068	-0.399	-0.250
-364.698	-200.000	0.003	0.073
-363.683	107.791	-0.310	0.367
-362.669	800.000	-0.153	-0.555
-361.654	132.914	0.281	0.361
-360.639	800.000	0.081	-0.237
-359.625	214.141	-0.364	0.574
-358.610	498.392	-0.306	-0.700
-357.596	107.809	0.303	-0.359
-356.581	16.429	-0.035	0.028
-355.566	-136.579	0.792	0.091
-354.552	189.974	0.411	0.613
-353.537	304.613	-0.083	0.153
-352.523	54.847	-0.745	0.716
-351.508	-112.310	0.416	0.083
-350.493	107.218	-0.445	-0.526
-349.479	-26.676	-0.204	-0.119
-348.464	-33.171	0.697	-0.384
-347.450	51.427	0.269	-0.255
-346.435	18.289	0.134	0.107
-345.420	22.986	-0.225	-0.184
-344.406	-68.775	-0.067	-0.026
-343.391	-107.157	-0.588	-0.129
-342.377	313.334	-0.058	0.108
-341.362	138.045	-0.338	0.441
-340.348	481.658	-0.078	0.176
-339.333	-96.412	-0.617	-0.162
-338.318	-100.061	-0.352	0.087
-337.304	36.515	0.541	-0.475
-336.289	-132.848	-0.429	-0.054
-335.275	-200.000	0.041	0.258
-334.260	-52.748	0.788	0.361
-333.245	-55.249	-0.605	0.270
-332.231	430.729	0.170	0.365
-331.216	800.000	0.097	0.372
-330.202	-50.724	0.274	0.128
-329.187	-11.181	0.315	0.206
-328.172	287.178	-0.745	-1.338
-327.158	-200.000	-0.190	0.837
-326.143	-200.000	0.075	0.335
-325.129	-153.321	-0.134	-0.009
-324.114	-200.000	0.022	0.237
-323.099	-200.000	-0.074	-0.540
-322.085	800.000	-0.154	-0.593
-321.070	-145.007	0.508	0.046
-320.056	800.000	-0.062	-0.209
-319.041	123.765	-0.430	0.537
-318.026	-60.511	-0.260	-0.110
-317.012	-92.768	0.396	-0.110
-315.997	-95.397	-0.449	0.120
-314.983	186.228	0.189	-0.280
-313.968	99.870	-0.579	-0.666
-312.953	193.467	-0.398	0.598
-311.939	800.000	0.242	0.877
-310.924	170.164	0.334	0.474
-309.910	-155.125	-0.482	-0.031
-308.895	319.821	-0.182	0.343
-307.880	157.787	0.267	0.368
-306.866	187.895	0.213	0.316
-305.851	-200.000	0.121	0.830
-304.837	-200.000	-0.054	0.457
-303.822	-158.549	0.457	0.026
-302.807	-151.396	0.663	-0.049
-301.793	201.071	-0.575	-0.878
-300.778	-67.674	0.147	-0.057
-299.764	800.000	0.222	0.705
-298.749	21.857	0.627	0.507
-297.735	178.268	0.236	0.342
-296.720	-151.317	0.704	0.052
-295.705	-200.000	0.003	-1.426
-294.691	-200.000	-0.147	-1.220
-293.676	119.559	0.560	-0.689
-292.662	800.000	-0.234	0.752
-291.647	-200.000	0.119	0.650
-290.632	164.775	-0.682	-0.954
-289.618	-200.000	0.036	0.665
-288.603	-50.928	0.281	-0.131
-287.589	-121.661	0.924	0.152
-286.574	203.309	-0.085	0.131
-285.559	21.274	-0.150	0.121
-284.545	-6.854	0.237	0.160
-283.530	89.196	-0.260	-0.288
-282.516	800.000	-0.136	-0.540
-281.501	-41.225	0.497	0.254
-280.486	800.000	0.201	-0.597
-279.472	458.910	-0.064	-0.141
-278.457	-199.227	-1.302	0.007
-277.443	-35.967	0.738	-0.396
-276.428	-146.412	0.853	-0.074
-275.413	263.433	-0.216	-0.373
-274.399	196.684	-0.322	-0.486
-273.384	-20.760	-0.773	0.470
-272.370	248.139	0.306	0.513
-271.355	296.447	0.268	0.488
-270.340	79.812	-0.391	-0.416
-269.326	-174.735	0.689	0.019
-268.311	-200.000	-0.025	-0.940
-267.297	22.751	0.278	0.225
-266.282	215.169	-0.076	-0.119
-265.267	-34.116	-0.454	0.247
-264.253	-31.076	0.262	0.146
-263.238	-19.656	-0.829	-0.508
-262.224	-154.966	0.901	-0.059
-261.209	800.000	0.102	0.414
-260.195	800.000	-0.018	-0.069
-259.180	800.000	0.105	0.365
-258.165	-134.077	0.409	0.050
-257.151	318.108	-0.548	1.029
-256.136	-48.584	0.145	-0.069
-255.122	-27.991	-0.508	0.292
-254.107	-144.996	-1.072	0.097
-253.092	-200.000	0.273	-1.292
-252.078	107.233	-0.087	-0.102
-251.063	-22.740	-0.487	0.292
-250.049	-200.000	0.009	-0.622
-249.034	-158.503	0.901	0.052
-248.019	71.799	-0.604	-0.622
-247.005	495.691	0.421	-0.959
-245.990	26.231	-0.405	-0.335
-244.976	604.558	-0.249	-0.613
-243.961	44.291	0.221	-0.201
-242.946	156.424	0.288	-0.394
-241.932	-1.243	0.289	0.202
-240.917	-200.000	-0.006	-0.598
-239.903	4.985	0.328	0.239
-238.888	216.715	-0.100	-0.158
-237.873	98.179	-0.024	-0.027
-236.859	-26.013	0.125	0.073
-235.844	800.000	-0.016	-0.050
-234.830	0.897	0.245	0.174
-233.815	-113.691	-1.008	0.195
-232.800	800.000	0.200	0.756
-231.786	-103.409	0.064	0.015
-230.771	581.987	0.067	0.164
-229.757	122.048	0.335	0.414
-228.742	800.000	-0.062	-0.234
-227.727	282.461	-0.455	-0.808
-226.713	-178.672	-0.440	-0.010
-225.698	-200.000	0.564	-0.002
-224.684	800.000	0.157	0.515
-223.669	36.841	0.656	-0.574
-222.655	-102.836	0.346	0.081
-221.640	800.000	0.404	1.169
-220.625	-101.422	0.116	0.028
-219.611	-39.996	0.992	-0.512
-218.596	-117.624	-1.380	-0.246
-217.582	-66.102	-0.293	-0.116
-216.567	-135.041	0.494	-0.059
-215.552	80.120	-0.319	0.339
-214.538	-200.000	0.046	0.596
-213.523	117.219	-0.193	-0.235
-212.509	-200.000	-0.012	-0.535
-211.494	458.096	0.219	0.481
-210.479	19.747	-0.414	0.330
-209.465	244.367	0.456	0.758
-208.450	-55.088	0.531	-0.236
-207.436	-23.077	-0.585	0.349
-206.421	-30.715	-0.671	0.376
-205.406	-86.915	0.337	0.102
-204.392	211.252	-0.289	0.450
-203.377	131.511	0.703	-0.894
-202.363	4.697	0.076	0.055
-201.348	800.000	-0.091	-0.299
-200.333	29.263	0.472	-0.396
-199.319	2.369	0.201	0.144
-198.304	150.465	-0.446	0.599
-197.290	-53.038	0.112	-0.051
-196.275	-49.541	0.620	-0.292
-195.260	-170.596	-0.266	0.009
-194.246	89.432	-0.454	0.501
-193.231	220.685	0.476	0.755
-192.217	800.000	0.173	-0.540
-191.202	73.375	0.228	0.236
-190.187	176.891	0.190	0.273
-189.173	-200.000	0.028	0.570
-188.158	613.547	0.087	0.216
-187.144	-97.171	-0.991	0.256
-186.129	593.577	0.189	-0.461
-185.114	-31.250	-0.434	0.242
-184.100	-18.835	0.409	-0.252
-183.085	-87.010	-0.605	0.182
-182.071	156.676	0.166	-0.227
-181.056	-128.060	0.311	-0.044
-180.042	162.624	-0.190	-0.263
-179.027	-200.000	-0.047	-0.307
-178.012	-4.231	0.575	0.393
-176.998	113.154	0.196	0.234
-175.983	-73.814	0.404	0.145
-174.969	-10.040	0.539	0.354
-173.954	20.133	0.518	0.413
-172.939	15.439	0.083	0.065
-171.925	-13.677	-0.764	0.488
-170.910	164.346	0.309	0.430
-169.896	-200.000	-0.033	0.255
-168.881	212.396	0.392	0.610
-167.866	-74.133	0.451	0.161
-166.852	800.000	-0.156	-0.592
-165.837	44.801	0.437	0.397
-164.823	7.980	0.221	-0.163
-163.808	246.332	-0.443	0.737
-162.793	-45.278	0.587	0.288
-161.779	100.144	0.154	-0.176
-160.764	-134.362	0.338	0.041
-159.750	241.004	0.171	-0.281
-158.735	-164.707	0.603	0.027
-157.720	-56.746	0.672	-0.293
-156.706	-30.769	-0.506	0.283
-155.691	-25.435	1.066	-0.622
-154.677	-132.590	0.441	-0.056
-153.662	76.704	0.245	0.257
-152.647	87.349	0.481	-0.525
-151.633	32.948	0.232	0.198
-150.618	-200.000	0.084	0.540
-149.604	43.462	0.087	0.079
-148.589	-30.726	-0.622	0.348
-147.574	82.199	0.239	0.255
-146.560	88.321	-0.216	0.237
-145.545	-200.000	0.052	0.404
-144.531	800.000	0.342	-1.137
-143.516	-103.149	-0.410	0.096
-142.502	28.034	0.450	-0.374
-141.487	800.000	0.179	-0.534
-140.472	-95.352	0.799	-0.212
-139.458	800.000	0.093	-0.322
-138.443	21.310	-0.259	0.207
-137.429	-13.760	0.761	-0.486
-136.414	-173.612	0.744	-0.022
-135.399	78.694	0.109	0.115
-134.385	30.368	0.208	0.176
-133.370	800.000	0.079	0.339
-132.356	-82.750	0.195	-0.062
-131.341	-82.592	0.806	0.258
-130.326	217.326	0.357	0.560
-129.312	-15.514	0.468	-0.294
-128.297	47.849	-0.638	0.587
-127.283	-200.000	0.003	0.115
-126.268	-176.668	-0.631	-0.016
-125.253	86.321	-0.214	-0.233
-124.239	800.000	0.127	0.533
-123.224	-39.175	-0.111	-0.057
-122.210	80.782	0.407	-0.433
-121.195	-200.000	-0.032	0.322
-120.180	166.901	0.122	0.170
-119.166	120.695	-0.102	0.125
-118.151	-200.000	-0.292	1.287
-117.137	3.311	0.954	0.684
-116.122	4.263	-0.152	-0.110
-115.107	-200.000	-0.119	-1.080
-114.093	-200.000	0.026	0.163
-113.078	48.609	-0.731	-0.675
-112.064	116.349	0.259	0.313
-111.049	47.282	0.562	-0.516
-110.034	-27.694	0.868	0.496
-109.020	-52.053	-0.403	0.185
-108.005	315.323	0.374	0.695
-106.991	-200.000	-0.044	0.550
-105.976	-117.038	-0.703	-0.126
-104.962	627.638	-0.121	0.302
-103.947	-100.832	-0.470	-0.114
-102.932	800.000	0.130	0.395
-101.918	-168.418	0.567	-0.021
-100.903	-69.694	0.596	0.225
-99.889	240.250	0.267	0.438
-98.874	-28.562	-0.652	-0.370
-97.859	10.540	-0.581	-0.436
-96.845	-92.730	0.888	0.245
-95.830	354.282	0.119	0.234
-94.816	-200.000	0.028	0.424
-93.801	-200.000	-0.027	-1.449
-92.786	-57.739	0.530	0.229
-91.772	-83.795	-0.305	-0.096
-90.757	42.545	-0.294	-0.263
-89.743	8.046	0.222	0.164
-88.728	6.610	-0.049	0.036
-87.713	-176.380	0.287	0.007
-86.699	124.873	0.460	-0.571
-85.684	-200.000	0.130	-0.734
-84.670	-58.409	-1.412	0.604
-83.655	154.064	0.607	-0.820
-82.640	800.000	-0.176	0.740
-81.626	-154.101	-0.626	-0.042
-80.611	87.517	-0.133	-0.145
-79.597	52.567	0.377	-0.354
-78.582	-114.623	-0.523	0.099
-77.567	-52.640	-0.226	-0.103
-76.553	-23.404	0.136	-0.081
-75.538	8.291	0.573	-0.424
-74.524	-200.000	0.076	-0.395
-73.509	455.218	-0.077	0.168
-72.494	36.267	-0.174	0.151
-71.480	-84.568	-0.448	-0.139
-70.465	-81.464	0.377	-0.122
-69.451	49.443	-0.583	0.540
-68.436	-200.000	-0.148	0.663
-67.422	-200.000	0.093	-1.348
-66.407	78.576	0.305	0.321
-65.392	-115.815	0.293	0.054
-64.378	733.246	-0.154	0.406
-63.363	35.637	0.476	0.411
-62.349	-200.000	-0.005	0.312
-61.334	-31.522	-1.120	-0.619
-60.319	458.201	0.717	1.567
-59.305	-200.000	0.018	-0.713
-58.290	-4.427	1.569	1.067
-57.276	-200.000	0.245	1.401
-56.261	-200.000	96.420	599.139
-55.246	671.095	1354.521	3450.720
-54.232	204.777	2517.065	3839.852
-53.217	119.334	2117.517	2576.711
-52.203	44.194	1588.390	1432.743
-51.188	35.847	1330.615	1150.542
-50.173	32.540	1288.954	1095.278
-49.159	55.484	1338.611	1273.924
-48.144	56.663	1355.456	1296.885
-47.130	35.923	1313.879	1136.337
-46.115	32.452	1296.055	1100.623
-45.100	32.092	1291.883	1094.938
-44.086	32.321	1288.374	1093.253
-43.071	32.108	1286.207	1090.136
-42.057	31.785	1284.340	1086.638
-41.042	32.076	1283.128	1087.253
-40.027	32.475	1279.176	1086.167
-39.013	32.152	1279.472	1084.511
-37.998	32.288	1277.199	1083.324
-36.984	32.328	1274.930	1081.586
-35.969	32.065	1274.643	1079.787
-34.954	32.219	1272.307	1078.651
-33.940	32.405	1270.848	1078.436
-32.925	32.510	1269.182	1077.580
-31.911	32.027	1268.980	1074.602
-30.896	32.160	1266.565	1073.270
-29.881	32.502	1264.558	1073.478
-28.867	32.226	1264.312	1071.658
-27.852	32.254	1262.133	1069.924
-26.838	32.523	1260.421	1069.958
-25.823	32.445	1259.012	1068.281
-24.809	32.213	1258.408	1066.409
-23.794	32.317	1257.530	1066.212
-22.779	32.449	1255.981	1065.603
-21.765	32.384	1254.091	1063.589
-20.750	32.254	1253.881	1062.636
-19.736	32.177	1253.035	1061.443
-18.721	32.092	1250.926	1059.132
-17.706	32.369	1249.282	1059.256
-16.692	32.275	1247.964	1057.568
-15.677	32.145	1247.122	1056.084
-14.663	32.003	1246.858	1055.022
-13.648	32.245	1245.427	1055.127
-12.633	32.037	1244.629	1053.240
-11.619	32.114	1244.886	1053.847
-10.604	32.318	1242.831	1053.212
-9.590	32.295	1242.437	1052.706
-8.575	32.222	1239.219	1049.532
-7.560	32.185	1240.146	1050.065
-6.546	32.356	1239.096	1050.093
-5.531	32.188	1238.115	1048.281
-4.517	32.330	1236.342	1047.531
-3.502	32.114	1237.270	1047.069
-2.487	32.196	1234.412	1045.067
-1.473	32.175	1231.566	1042.497
-0.458	30.575	1216.534	1020.953
0.556	28.227	1199.148	982.736
1.571	24.210	1204.508	965.329
2.586	23.541	1218.784	973.014
3.600	22.941	1206.328	959.725
4.615	17.113	1136.669	874.307
5.629	7.691	1061.850	771.162
6.644	3.820	1041.357	737.768
7.659	3.457	1039.305	734.520
8.673	3.055	1038.101	731.693
9.688	3.030	1036.813	730.601
10.702	3.936	1034.412	733.138
11.717	9.528	1042.307	765.303
12.731	18.639	1056.988	819.740
13.746	23.700	1061.065	847.034
14.761	24.336	1062.130	850.845
15.775	24.486	1060.912	850.506
16.790	23.935	1059.820	846.932
17.804	23.423	1060.070	844.621
18.819	23.392	1059.266	843.757
19.834	23.526	1057.908	843.238
20.848	23.581	1058.513	843.907
21.863	23.602	1056.819	842.581
22.877	23.509	1056.370	841.709
23.892	23.616	1054.896	840.967
24.907	23.317	1055.705	840.120
25.921	23.428	1053.310	838.663
26.936	23.328	1051.909	836.999
27.950	23.103	1051.703	835.699
28.965	22.931	1050.221	833.638
29.980	23.267	1048.134	833.489
30.994	23.572	1048.133	834.848
32.009	23.764	1046.365	834.267
33.023	23.523	1045.056	832.023
34.038	23.428	1045.188	831.607
35.053	23.180	1043.835	829.295
36.067	23.034	1044.358	828.954
37.082	23.026	1042.499	827.367
38.096	23.086	1041.779	827.004
39.111	23.580	1041.212	828.786
40.126	23.409	1039.256	826.357
41.140	22.875	1038.543	823.229
42.155	22.635	1037.017	820.833
43.169	22.955	1035.530	821.070
44.184	22.419	1036.056	818.921
45.199	22.699	1034.183	818.667
46.213	22.953	1033.245	819.029
47.228	23.563	1032.521	821.207
48.242	23.459	1032.932	820.980
49.257	23.253	1031.710	818.984
50.271	23.403	1030.426	818.587
51.286	23.560	1030.581	819.362
52.301	23.240	1029.105	816.640
53.315	23.292	1028.440	816.281
54.330	23.162	1028.298	815.495
55.344	23.343	1026.153	814.555
56.359	23.025	1025.979	812.881
57.374	22.673	1025.658	810.939
58.388	22.700	1023.430	809.226
59.403	22.596	1023.367	808.631
60.417	22.959	1021.576	808.804
61.432	22.882	1021.002	807.927
62.447	22.589	1021.537	806.935
63.461	23.018	1018.509	806.430
64.476	22.886	1017.681	805.105
65.490	22.757	1017.239	804.095
66.505	22.970	1017.723	805.377
67.520	22.950	1015.714	803.626
68.534	22.521	1015.543	801.465
69.549	22.250	1015.619	800.224
70.563	22.196	1014.378	798.931
71.578	21.831	1013.716	796.678
72.593	21.855	1011.869	795.268
73.607	22.082	1010.933	795.489
74.622	22.118	1012.279	796.642
75.636	22.272	1011.696	796.809
76.651	22.135	1010.548	795.212
77.666	22.153	1009.001	794.008
78.680	22.412	1007.952	794.281
79.695	22.180	1008.451	793.555
80.709	22.855	1006.856	795.272
81.724	22.918	1005.889	794.722
82.739	23.031	1005.902	795.168
83.753	23.116	1005.934	795.505
84.768	23.905	1004.409	797.773
85.782	24.057	1004.258	798.260
86.797	23.707	1002.848	795.506
87.812	23.447	1002.199	793.754
88.826	23.442	1001.344	792.983
89.841	23.757	1001.386	794.357
90.855	23.626	999.495	792.200
91.870	23.572	998.981	791.482
92.884	23.717	997.795	791.120
93.899	23.896	996.273	790.637
94.914	23.808	995.716	789.736
95.928	23.508	995.522	788.179
96.943	23.511	994.334	787.183
97.957	23.226	993.398	785.109
98.972	23.439	992.237	785.064
99.987	23.731	991.969	786.073
101.001	23.173	991.038	782.801
102.016	23.707	989.707	784.038
103.030	23.467	988.977	782.330
104.045	23.427	988.799	781.945
105.060	23.275	987.917	780.509
106.074	23.124	987.271	779.261
107.089	23.160	986.207	778.512
108.103	23.066	984.032	776.317
109.118	23.086	982.504	775.128
110.133	22.316	982.239	771.474
111.147	22.403	980.972	770.795
112.162	22.403	980.596	770.429
113.176	22.719	980.103	771.354
114.191	22.963	978.810	771.336
115.206	22.532	978.560	769.189
116.220	22.564	978.193	768.973
117.235	22.857	976.516	768.863
118.249	22.685	974.347	766.338
119.264	22.371	975.204	765.580
120.279	22.112	974.069	763.493
121.293	22.233	972.908	763.043
122.308	22.237	972.039	762.311
123.322	22.025	971.016	760.522
124.337	22.214	968.821	759.554
125.352	22.113	968.689	758.947
126.366	21.951	968.459	757.998
127.381	22.855	966.518	760.308
128.395	22.631	966.766	759.469
129.410	22.765	966.619	759.865
130.424	22.621	965.595	758.375
131.439	22.900	964.753	758.842
132.454	22.771	963.611	757.323
133.468	22.586	964.120	756.865
134.483	22.852	962.459	756.632
135.497	22.563	962.918	755.686
136.512	22.978	961.418	756.219
137.527	23.114	959.458	755.191
138.541	22.938	959.094	754.088
139.556	23.154	958.309	754.325
140.570	23.358	957.791	754.720
141.585	23.295	957.836	754.421
142.600	23.681	955.947	754.504
143.614	23.911	955.421	755.000
144.629	24.212	954.110	755.173
145.643	23.737	953.632	752.716
146.658	23.433	952.275	750.291
147.673	23.552	951.383	750.027
148.687	23.472	950.101	748.613
149.702	23.276	949.238	747.036
150.716	23.257	948.768	746.523
151.731	23.268	949.118	746.776
152.746	22.892	948.328	744.504
153.760	23.264	947.460	745.326
154.775	23.145	947.354	744.673
155.789	23.534	946.165	745.306
156.804	23.238	944.594	742.762
157.819	23.301	944.173	742.629
158.833	23.684	943.336	743.509
159.848	23.893	942.722	743.836
160.862	23.390	942.340	741.364
161.877	23.277	940.170	739.118
162.892	23.012	939.638	737.529
163.906	23.164	937.644	736.535
164.921	23.275	937.589	736.886
165.935	22.699	937.367	734.248
166.950	23.232	936.966	736.090
167.964	23.402	934.517	734.804
168.979	23.029	934.255	732.988
169.994	22.998	933.224	731.986
171.008	23.581	932.176	733.507
172.023	23.737	932.317	734.198
173.037	23.606	931.817	733.201
174.052	23.728	929.679	731.956
175.067	23.289	928.934	729.495
176.081	23.148	927.588	727.794
177.096	22.699	928.062	726.253
178.110	22.906	926.404	725.741
179.125	22.531	927.683	725.137
180.140	22.984	927.690	726.940
181.154	23.138	926.194	726.339
182.169	23.587	925.628	727.673
183.183	23.895	924.488	727.971
184.198	23.227	925.339	725.841
185.213	23.517	923.866	725.807
186.227	23.516	923.497	725.450
187.242	23.925	922.785	726.497
188.256	23.765	922.433	725.500
189.271	23.754	920.929	724.210
190.286	23.583	919.199	722.088
191.300	22.902	919.360	719.382
192.315	22.437	918.454	716.715
193.329	22.201	918.608	715.811
194.344	22.703	918.840	717.973
195.359	23.137	917.543	718.659
196.373	23.151	918.348	719.284
197.388	23.583	917.058	719.963
198.402	24.085	916.129	721.202
199.417	23.947	915.755	720.286
200.432	23.964	916.571	720.934
201.446	24.099	915.100	720.258
202.461	24.214	914.235	719.977
203.475	23.845	913.521	717.864
204.490	23.467	911.735	714.871
205.504	23.556	911.505	714.986
206.519	23.438	910.654	713.779
207.534	23.492	910.464	713.786
208.548	23.509	910.075	713.486
209.563	23.573	909.149	712.952
210.577	23.861	908.172	713.281
211.592	24.047	908.862	714.507
212.607	23.936	908.288	713.548
213.621	23.925	907.192	712.577
214.636	24.089	905.702	712.000
215.650	23.824	905.126	710.425
216.665	23.921	904.273	710.079
217.680	24.117	903.083	709.863
218.694	23.550	903.832	708.127
219.709	23.609	903.632	708.144
220.723	23.584	902.260	706.907
221.738	23.275	900.540	704.270
222.753	23.446	901.514	705.650
223.767	23.641	900.560	705.613
224.782	23.531	901.036	705.487
225.796	24.063	899.804	706.573
226.811	23.656	898.215	703.649
227.826	23.195	897.877	701.495
228.840	23.562	897.120	702.296
229.855	23.381	896.042	700.672
230.869	23.469	894.789	699.980
231.884	23.640	894.520	700.381
232.899	23.337	894.849	699.380
233.913	23.080	893.652	697.371
234.928	23.191	892.847	697.117
235.942	22.892	892.487	695.595
236.957	23.042	891.229	695.145
237.972	22.858	891.693	694.723
238.986	22.924	890.776	694.205
240.001	22.908	890.576	693.925
241.015	22.905	890.388	693.705
242.030	23.327	890.031	695.021
243.045	23.504	888.045	694.103
244.059	23.459	887.758	693.639
245.074	23.468	887.108	693.107
246.088	23.814	887.084	694.379
247.103	23.935	887.202	694.883
248.117	24.122	887.194	695.546
249.132	24.774	886.626	697.582
250.147	24.882	885.601	697.135
251.161	24.981	884.761	696.796
252.176	24.897	884.556	696.248
253.190	24.743	884.947	695.893
254.205	24.626	884.035	694.660
255.220	24.765	882.851	694.206
256.234	24.589	882.773	693.400
257.249	24.310	882.976	692.418
258.263	24.506	880.366	691.068
259.278	24.315	880.266	690.190
260.293	24.544	880.025	690.824
261.307	24.712	878.514	690.227
262.322	24.748	878.309	690.144
263.336	24.730	877.696	689.531
264.351	24.244	877.509	687.448
265.366	24.268	876.944	687.037
266.380	24.631	876.456	687.994
267.395	24.529	875.637	686.895
268.409	24.480	874.560	685.802
269.424	24.347	873.854	684.677
270.439	24.661	872.995	685.148
271.453	24.138	872.680	682.833
272.468	24.355	872.378	683.372
273.482	24.634	871.159	683.421
274.497	24.450	870.150	681.866
275.512	24.179	870.440	680.998
276.526	24.508	870.007	681.856
277.541	24.674	869.822	682.285
278.555	24.803	869.865	682.749
279.570	24.635	869.007	681.375
280.585	25.067	867.165	681.515
281.599	24.540	867.565	679.763
282.614	24.044	866.149	676.710
283.628	24.403	864.601	676.800
284.643	24.437	863.758	676.211
285.657	24.182	863.961	675.343
286.672	24.334	863.669	675.632
287.687	24.480	862.858	675.489
288.701	24.368	863.564	675.559
289.716	24.132	862.503	673.773
290.730	24.471	861.564	674.264
291.745	24.590	860.632	673.921
292.760	24.694	860.783	674.373
293.774	24.954	860.453	675.037
294.789	24.742	860.146	673.936
295.803	24.599	859.144	672.554
296.818	24.376	858.115	670.848
297.833	24.420	857.283	670.304
298.847	24.294	856.818	669.409
299.862	24.623	856.511	670.346
300.876	24.404	857.051	669.887
301.891	24.998	855.343	670.715
302.906	25.161	855.015	671.011
303.920	25.100	854.559	670.365
304.935	25.322	854.511	671.097
305.949	24.938	852.719	668.197
306.964	24.736	851.668	666.561
307.979	24.917	851.258	666.857
308.993	24.885	851.378	666.771
310.008	25.086	851.055	667.208
311.022	24.684	851.125	665.707
312.037	24.462	850.318	664.193
313.052	24.601	848.078	662.900
314.066	23.708	848.121	659.559
315.081	24.279	847.655	661.259
316.095	24.329	847.352	661.149
317.110	24.636	845.849	661.051
318.125	24.304	845.350	659.377
319.139	23.595	845.097	656.498
320.154	23.994	844.772	657.662
321.168	24.190	845.345	658.777
322.183	24.133	844.643	657.961
323.197	24.127	844.379	657.676
324.212	24.382	842.103	656.782
325.227	24.246	842.357	656.421
326.241	24.185	841.713	655.636
327.256	24.149	840.920	654.830
328.270	24.037	840.231	653.822
329.285	23.889	839.263	652.468
330.300	23.663	839.522	651.783
331.314	24.157	838.094	652.428
332.329	24.519	837.944	653.577
333.343	24.360	838.432	653.318
334.358	24.489	838.321	653.646
335.373	24.555	838.087	653.647
336.387	24.552	838.276	653.727
337.402	24.737	837.043	653.381
338.416	24.692	838.079	653.967
339.431	25.315	837.905	656.052
340.446	25.770	836.077	656.222
341.460	25.300	836.832	655.041
342.475	25.500	836.528	655.475
343.489	25.366	836.515	654.919
344.504	25.466	835.886	654.731
345.519	25.658	835.291	654.908
346.533	25.148	834.484	652.362
347.548	25.332	833.391	652.116
348.562	25.044	832.187	650.073
349.577	24.796	832.275	649.185
350.592	24.794	831.066	648.178
351.606	24.735	830.669	647.597
352.621	24.608	829.398	646.088
353.635	24.842	827.831	645.655
354.650	24.840	826.965	644.916
355.665	25.034	827.447	645.932
356.679	25.350	827.423	646.996
357.694	24.786	826.874	644.478
358.708	24.968	826.303	644.630
359.723	24.591	825.311	642.445
360.738	24.757	825.016	642.755
361.752	24.831	824.804	642.799
362.767	25.347	823.288	643.411
363.781	25.694	823.653	644.883
364.796	25.182	824.546	643.688
365.810	25.868	823.040	644.910
366.825	25.849	822.052	644.014
367.840	25.715	822.151	643.555
368.854	25.315	821.919	641.884
369.869	25.252	820.528	640.516
370.883	25.367	820.039	640.490
371.898	25.810	820.153	642.103
372.913	25.395	820.588	640.904
373.927	25.078	818.951	638.438
374.942	25.344	818.330	638.845
375.956	25.608	817.876	639.374
376.971	25.735	818.105	639.948
377.986	25.309	818.820	638.934
379.000	25.874	817.636	639.959
380.015	26.060	815.702	639.048
381.029	25.630	816.574	638.153
382.044	25.901	815.633	638.319
383.059	25.889	814.970	637.701
384.073	25.748	815.233	637.353
385.088	25.495	813.567	635.099
386.102	25.022	812.336	632.414
387.117	24.883	812.065	631.655
388.132	24.815	811.329	630.788
389.146	25.158	810.809	631.537
390.161	25.426	810.593	632.255
391.175	25.609	810.833	633.029
392.190	25.820	809.397	632.594
393.205	25.039	808.530	629.119
394.219	24.460	808.445	626.964
395.234	24.654	806.296	625.922
396.248	25.147	806.676	627.888
397.263	25.109	807.385	628.251
398.278	24.355	807.024	625.271
399.292	24.707	805.982	625.644
400.307	24.535	805.330	624.481
401.321	24.869	804.862	625.228
402.336	25.005	804.311	625.220
403.350	25.618	804.669	627.581
404.365	25.562	804.511	627.209
405.380	25.851	804.548	628.187
406.394	26.036	804.395	628.658
407.409	25.913	803.841	627.742
408.423	26.169	803.216	628.088
409.438	26.042	803.181	627.565
410.453	25.745	802.651	626.062
411.467	26.053	801.441	626.130
412.482	26.027	801.227	625.818
413.496	26.088	801.026	625.817
414.511	26.244	800.306	625.742
415.526	26.147	799.161	624.456
416.540	25.808	799.755	623.691
417.555	26.086	798.657	623.739
418.569	25.930	798.296	622.864
419.584	26.071	798.173	623.199
420.599	26.020	797.780	622.661
421.613	161.208	1371.266	1793.285
422.628	139.873	1454.820	1793.369
