DTS Sentinel unit serial number:	SN413079Multiplexer serial number:	ORYXHardware model number:	OX4-SRSoftware version number:	ORYX F/W v4.00 Oryx Data Collector v3.7.2.0data status	okinstallation	princeton_trtdifferential loss correction	single-endedforward channel	channel 1reverse channel	N/Adate	2019/09/19time	00:42:35forward acquisition time	60.00reverse acquisition time	0.00gamma	496.2192k internal	0.2343k external	0.2343temperature offset calibration	1.0020default loss term (dB/km)	0.3790temperature slope calibration	1.0000multiplexer offset coefficient	1.0000multiplexer slope coefficient	1.0000fibre end	0.00T internal ref (°C)	22.25T ext. ref 1 (°C)	0.72T ext. ref 2 (°C)	15.45length (m)	temperature (°C)	Stokes	anti-Stokes-747.200	-60.895	0.143	0.061
-746.185	-159.440	-0.183	0.010
-745.171	212.663	-0.129	-0.204
-744.156	785.433	-0.050	0.137
-743.142	142.038	-0.122	-0.162
-742.127	-200.000	-0.003	-0.298
-741.112	185.071	0.068	0.101
-740.098	161.397	0.265	-0.372
-739.083	-18.516	-0.154	0.096
-738.069	-200.000	-0.310	0.001
-737.054	22.371	0.131	0.107
-736.039	-161.372	-0.106	0.005
-735.025	-57.147	0.376	0.166
-734.010	-200.000	0.008	0.178
-732.996	-200.000	0.049	-0.235
-731.981	66.643	-0.256	-0.261
-730.966	468.641	-0.099	0.222
-729.952	-42.894	-0.178	0.091
-728.937	-79.574	-0.298	-0.101
-727.923	-137.538	0.374	0.042
-726.908	92.660	-0.182	-0.206
-725.894	-160.232	-0.297	-0.016
-724.879	-200.000	0.020	0.182
-723.864	-109.456	-0.265	-0.056
-722.850	151.146	-0.077	-0.104
-721.835	-105.525	0.130	0.030
-720.821	5.459	-0.151	-0.111
-719.806	-4.420	0.097	-0.067
-718.791	800.000	-0.035	-0.120
-717.777	-56.699	-0.199	-0.088
-716.762	-200.000	-0.029	-0.277
-715.748	-200.000	-0.002	-0.158
-714.733	170.149	-0.058	0.083
-713.718	38.902	0.072	-0.064
-712.704	-1.131	-0.227	0.160
-711.689	800.000	-0.071	0.267
-710.675	87.009	-0.244	0.270
-709.660	20.862	-0.346	-0.281
-708.645	-200.000	-0.008	-0.270
-707.631	-120.997	0.298	0.050
-706.616	29.192	0.328	0.278
-705.602	-200.000	0.031	0.192
-704.587	89.583	-0.284	-0.317
-703.572	-200.000	-0.012	0.204
-702.558	-63.467	-0.165	-0.068
-701.543	-200.000	0.004	-0.022
-700.529	-76.664	-0.032	0.011
-699.514	-200.000	-0.014	-0.197
-698.499	378.138	0.119	-0.243
-697.485	51.456	-0.171	0.163
-696.470	-73.258	0.032	0.012
-695.456	730.773	0.043	-0.116
-694.441	70.139	0.078	-0.081
-693.426	462.059	0.090	-0.200
-692.412	-10.653	-0.506	0.334
-691.397	493.718	-0.136	0.313
-690.383	-200.000	-0.020	0.148
-689.368	-200.000	0.012	0.124
-688.354	-200.000	0.012	-0.172
-687.339	-200.000	-0.069	0.403
-686.324	55.493	-0.047	-0.046
-685.310	-200.000	-0.019	0.368
-684.295	-108.625	0.313	-0.067
-683.281	-200.000	0.042	0.304
-682.266	-127.719	0.248	0.036
-681.251	-68.300	-0.411	0.159
-680.237	255.383	0.162	0.278
-679.222	800.000	0.117	-0.445
-678.208	258.335	0.063	0.108
-677.193	-200.000	-0.025	0.118
-676.178	-200.000	0.005	0.142
-675.164	-200.000	0.043	-0.207
-674.149	13.012	0.152	-0.118
-673.135	196.761	0.112	-0.170
-672.120	133.238	-0.079	-0.102
-671.105	157.353	-0.194	-0.268
-670.091	-99.990	-0.568	0.142
-669.076	-35.965	0.069	0.037
-668.062	-13.318	0.193	-0.125
-667.047	6.671	0.050	0.037
-666.032	-150.572	-0.276	-0.021
-665.018	800.000	0.086	0.345
-664.003	-34.541	0.203	0.111
-662.989	800.000	-0.070	-0.244
-661.974	28.766	-0.045	0.038
-660.959	-200.000	-0.019	0.121
-659.945	800.000	-0.112	0.398
-658.930	-54.985	-0.112	-0.050
-657.916	58.236	-0.173	-0.169
-656.901	-44.995	-0.224	-0.111
-655.886	-200.000	0.049	0.297
-654.872	24.340	-0.112	0.092
-653.857	264.705	-0.115	0.200
-652.843	135.994	0.118	-0.153
-651.828	-91.375	-0.158	-0.045
-650.814	-95.442	-0.011	0.003
-649.799	-200.000	0.007	-0.285
-648.784	-200.000	-0.005	-0.235
-647.770	-151.137	-0.345	-0.026
-646.755	-39.951	0.105	0.055
-645.741	-74.765	-0.294	0.105
-644.726	-200.000	0.022	0.127
-643.711	-93.299	-0.188	0.052
-642.697	-20.012	-0.184	0.113
-641.682	-34.198	-0.239	-0.131
-640.668	-200.000	-0.175	0.000
-639.653	-105.748	-0.133	0.030
-638.638	281.481	-0.092	0.164
-637.624	-41.601	0.199	0.102
-636.609	800.000	0.122	0.496
-635.595	800.000	0.063	-0.212
-634.580	-29.263	0.241	-0.137
-633.565	-101.849	-0.271	0.065
-632.551	299.822	-0.158	0.290
-631.536	800.000	0.091	0.362
-630.522	-200.000	-0.004	-0.594
-629.507	234.630	0.079	-0.130
-628.492	-86.576	0.117	-0.036
-627.478	-200.000	-0.010	-0.191
-626.463	89.549	-0.240	-0.267
-625.449	-200.000	-0.030	-0.313
-624.434	12.790	-0.263	-0.202
-623.419	503.348	-0.112	0.258
-622.405	-200.000	0.002	-0.332
-621.390	-200.000	0.015	-0.226
-620.376	800.000	0.084	0.235
-619.361	-21.037	-0.168	0.102
-618.346	142.728	-0.182	0.241
-617.332	9.854	-0.085	-0.064
-616.317	-85.640	-0.238	-0.074
-615.303	45.008	0.125	-0.114
-614.288	41.988	0.111	-0.100
-613.273	-200.000	-0.020	0.098
-612.259	20.672	0.078	-0.063
-611.244	75.070	-0.148	-0.156
-610.230	-41.429	-0.129	-0.066
-609.215	29.624	-0.254	-0.216
-608.201	-200.000	-0.023	-0.343
-607.186	159.661	-0.175	0.242
-606.171	10.718	0.119	0.090
-605.157	-61.113	-0.211	0.089
-604.142	-100.472	-0.311	-0.077
-603.128	800.000	-0.032	0.117
-602.113	100.373	0.062	-0.072
-601.098	-190.173	0.214	0.002
-600.084	98.262	-0.215	0.247
-599.069	800.000	-0.056	0.213
-598.055	270.096	0.185	-0.323
-597.040	389.209	-0.029	-0.059
-596.025	31.086	0.122	0.104
-595.011	-200.000	0.049	-0.302
-593.996	63.879	-0.250	0.250
-592.982	302.794	-0.187	-0.344
-591.967	240.509	0.103	0.171
-590.952	-5.249	0.135	-0.092
-589.938	796.360	0.062	0.170
-588.923	-139.838	0.144	-0.015
-587.909	-58.242	-0.353	0.153
-586.894	-110.651	-0.155	0.032
-585.879	-108.316	0.173	0.037
-584.865	-45.847	0.270	0.133
-583.850	-70.311	0.185	-0.070
-582.836	182.829	0.185	-0.271
-581.821	-200.000	-0.010	0.097
-580.806	800.000	0.033	0.094
-579.792	-48.982	-0.371	-0.177
-578.777	282.751	0.061	-0.108
-577.763	299.219	-0.097	-0.178
-576.748	-186.489	-0.323	0.005
-575.733	-98.891	-0.115	-0.029
-574.719	130.139	0.245	-0.312
-573.704	145.156	0.144	0.192
-572.690	191.713	-0.046	0.069
-571.675	-200.000	-0.047	-0.282
-570.661	-200.000	0.005	-0.212
-569.646	-200.000	0.020	-0.288
-568.631	494.259	0.091	-0.207
-567.617	800.000	-0.120	-0.402
-566.602	58.552	0.262	-0.255
-565.588	-183.626	0.216	0.004
-564.573	-200.000	-0.044	0.196
-563.558	-155.414	0.189	0.012
-562.544	-143.278	0.083	-0.008
-561.529	800.000	0.055	-0.230
-560.515	-143.395	-0.102	-0.010
-559.500	129.577	0.012	0.015
-558.485	-200.000	-0.026	-0.193
-557.471	-200.000	0.002	-0.045
-556.456	-24.517	-0.117	0.069
-555.442	-38.000	0.285	0.150
-554.427	-109.293	-0.445	-0.094
-553.412	-200.000	0.091	-0.445
-552.398	24.630	0.163	-0.134
-551.383	800.000	0.123	-0.364
-550.369	-16.808	0.122	-0.077
-549.354	115.802	-0.190	-0.231
-548.339	-77.685	0.299	0.103
-547.325	-103.042	0.364	0.086
-546.310	-21.340	0.134	-0.081
-545.296	516.352	0.049	-0.113
-544.281	52.073	-0.040	-0.038
-543.266	-200.000	0.024	0.127
-542.252	-113.818	-0.393	0.076
-541.237	129.650	0.067	-0.085
-540.223	-51.211	-0.295	-0.137
-539.208	-95.381	-0.238	-0.063
-538.193	800.000	0.020	0.078
-537.179	-6.321	-0.195	0.132
-536.164	-127.298	-0.205	0.030
-535.150	312.659	0.158	-0.295
-534.135	141.075	-0.112	0.147
-533.121	127.750	-0.162	-0.204
-532.106	-120.590	0.315	-0.053
-531.091	432.559	-0.175	-0.376
-530.077	622.845	-0.071	-0.177
-529.062	-105.120	0.402	-0.091
-528.048	87.455	0.040	-0.044
-527.033	157.611	0.149	0.205
-526.018	-50.392	-0.135	0.063
-525.004	133.522	-0.118	0.152
-523.989	-132.296	0.198	0.025
-522.975	739.913	0.055	0.147
-521.960	-81.604	0.293	-0.096
-520.945	237.604	0.196	-0.322
-519.931	-35.451	0.318	-0.171
-518.916	190.297	-0.107	0.160
-517.902	40.070	-0.080	-0.072
-516.887	-21.423	-0.057	0.035
-515.872	-162.929	0.142	-0.007
-514.858	254.483	-0.171	0.290
-513.843	-200.000	-0.045	0.322
-512.829	-54.213	-0.227	0.102
-511.814	-200.000	0.034	0.283
-510.799	-200.000	0.009	-0.097
-509.785	391.707	0.084	-0.172
-508.770	-104.642	-0.285	-0.065
-507.756	-200.000	0.006	-0.162
-506.741	-200.000	-0.023	-0.234
-505.726	-42.675	-0.151	-0.076
-504.712	-145.703	-0.129	-0.011
-503.697	-92.510	0.086	0.024
-502.683	315.320	-0.117	-0.218
-501.668	-101.781	-0.158	0.038
-500.653	-32.921	0.145	0.080
-499.639	-8.381	0.175	0.117
-498.624	-123.084	0.139	-0.022
-497.610	-36.618	0.109	-0.058
-496.595	-149.491	0.034	-0.003
-495.581	-200.000	-0.039	0.268
-494.566	-200.000	-0.007	0.224
-493.551	26.489	0.077	0.064
-492.537	-200.000	-0.032	-0.479
-491.522	-61.027	0.095	0.040
-490.508	136.637	0.187	0.242
-489.493	59.306	-0.023	0.023
-488.478	-200.000	0.039	0.223
-487.464	69.741	-0.182	-0.186
-486.449	7.447	-0.188	0.139
-485.435	259.311	0.136	0.233
-484.420	-200.000	0.037	0.167
-483.405	-2.062	-0.253	-0.176
-482.391	-200.000	-0.072	-0.485
-481.376	-200.000	0.101	-0.448
-480.362	-100.969	-0.229	-0.056
-479.347	-200.000	0.053	-0.272
-478.332	253.094	0.078	-0.132
-477.318	-116.855	-0.227	-0.041
-476.303	-200.000	0.056	-0.247
-475.289	16.751	0.079	-0.062
-474.274	729.679	-0.078	0.206
-473.259	-100.108	-0.474	-0.117
-472.245	-64.917	-0.116	0.046
-471.230	-76.004	0.170	0.060
-470.216	-25.744	-0.042	-0.025
-469.201	-200.000	0.092	0.000
-468.186	800.000	0.032	-0.125
-467.172	102.609	0.108	-0.125
-466.157	-200.000	0.034	0.208
-465.143	381.465	-0.053	-0.108
-464.128	323.598	-0.058	0.110
-463.113	64.567	-0.232	0.232
-462.099	800.000	0.068	0.242
-461.084	800.000	-0.050	0.173
-460.070	-50.367	0.290	0.136
-459.055	-58.431	-0.396	-0.170
-458.040	-124.186	0.106	0.016
-457.026	119.543	-0.226	0.277
-456.011	128.996	-0.080	-0.101
-454.997	800.000	0.033	0.114
-453.982	-133.837	-0.080	-0.010
-452.968	800.000	-0.091	-0.338
-451.953	52.872	-0.131	-0.124
-450.938	129.208	-0.054	0.069
-449.924	-200.000	-0.023	0.129
-448.909	-56.047	-0.231	-0.102
-447.895	496.063	0.055	0.126
-446.880	-78.780	-0.270	0.091
-445.865	-31.874	-0.358	0.198
-444.851	81.022	0.248	-0.265
-443.836	135.201	-0.198	0.255
-442.822	-48.745	-0.082	0.039
-441.807	317.668	0.113	0.212
-440.792	49.426	0.254	-0.237
-439.778	-39.038	0.211	-0.110
-438.763	41.281	-0.163	0.146
-437.749	-85.816	-0.088	0.027
-436.734	-200.000	-0.028	0.290
-435.719	-8.029	0.203	0.136
-434.705	614.352	-0.150	-0.371
-433.690	98.740	-0.098	0.112
-432.676	-188.240	0.484	0.006
-431.661	633.027	0.054	0.136
-430.646	-122.108	-0.393	-0.064
-429.632	429.299	0.068	0.145
-428.617	-200.000	-0.000	0.120
-427.603	164.525	0.070	-0.097
-426.588	297.065	-0.069	-0.125
-425.573	105.867	0.156	0.182
-424.559	-200.000	0.002	-0.116
-423.544	-8.393	-0.190	-0.127
-422.530	38.865	-0.144	-0.127
-421.515	-175.976	-0.306	-0.008
-420.500	-115.075	0.195	0.037
-419.486	-128.003	-0.156	-0.022
-418.471	131.830	0.051	-0.065
-417.457	138.514	0.309	0.401
-416.442	80.386	0.188	0.201
-415.428	-105.856	-0.210	0.047
-414.413	75.538	0.186	0.194
-413.398	278.788	-0.067	0.118
-412.384	25.077	-0.100	0.082
-411.369	159.827	-0.088	0.121
-410.355	-11.990	0.309	0.200
-409.340	97.321	-0.208	0.236
-408.325	-200.000	-0.007	0.258
-407.311	-4.790	0.221	-0.151
-406.296	-32.423	-0.047	-0.026
-405.282	-200.000	-0.007	-0.129
-404.267	4.032	-0.007	-0.005
-403.252	-84.895	-0.051	-0.016
-402.238	-93.635	-0.227	-0.062
-401.223	735.596	-0.177	0.469
-400.209	-132.468	0.207	-0.026
-399.194	185.481	0.109	0.160
-398.179	187.721	0.218	0.321
-397.165	-88.592	0.280	-0.082
-396.150	-3.182	-0.235	-0.162
-395.136	289.263	0.109	-0.195
-394.121	519.161	-0.094	0.218
-393.106	525.742	-0.148	-0.345
-392.092	-200.000	0.061	0.476
-391.077	311.423	-0.063	0.117
-390.063	-200.000	-0.017	-0.246
-389.048	-146.159	-0.398	0.035
-388.033	118.924	-0.279	0.340
-387.019	-71.486	0.406	-0.150
-386.004	196.962	-0.102	-0.154
-384.990	85.904	-0.079	-0.086
-383.975	33.694	0.135	-0.116
-382.960	-59.304	0.100	0.042
-381.946	-126.863	0.325	-0.047
-380.931	-140.431	0.244	0.025
-379.917	-11.779	0.229	0.148
-378.902	145.237	0.293	0.387
-377.888	231.410	-0.092	-0.149
-376.873	800.000	-0.058	-0.185
-375.858	-200.000	-0.000	-0.176
-374.844	-22.353	0.039	-0.023
-373.829	163.459	-0.270	0.375
-372.815	-200.000	-0.033	0.162
-371.800	-27.981	-0.230	0.132
-370.785	-41.569	-0.159	0.081
-369.771	-200.000	0.008	0.138
-368.756	326.243	0.138	-0.262
-367.742	239.071	0.085	0.139
-366.727	-179.311	-0.087	0.002
-365.712	80.833	0.078	0.083
-364.698	-200.000	-0.050	0.403
-363.683	-200.000	-0.001	0.084
-362.669	677.646	-0.111	0.286
-361.654	-200.000	0.125	0.603
-360.639	-200.000	-0.001	-0.068
-359.625	800.000	0.065	0.235
-358.610	164.126	0.069	-0.096
-357.596	-137.149	-0.202	0.023
-356.581	-61.695	0.172	0.071
-355.566	-95.519	-0.111	0.029
-354.552	-124.571	0.394	0.060
-353.537	-131.312	-0.084	0.011
-352.523	-98.570	-0.108	0.027
-351.508	680.182	-0.109	-0.280
-350.493	-200.000	0.000	-0.146
-349.479	-116.912	0.275	0.050
-348.464	-200.000	-0.021	0.171
-347.450	-70.942	0.224	-0.083
-346.435	392.714	0.096	-0.198
-345.420	-200.000	0.018	0.152
-344.406	690.329	0.090	0.232
-343.391	-28.429	-0.405	0.231
-342.377	-124.816	0.147	-0.022
-341.362	117.243	0.083	0.101
-340.348	-56.910	-0.126	0.055
-339.333	-22.296	-0.167	0.100
-338.318	-4.952	0.114	0.077
-337.304	-49.676	0.158	0.074
-336.289	-104.432	0.262	-0.060
-335.275	-115.492	-0.194	0.036
-334.260	-200.000	0.008	-0.286
-333.245	-108.908	0.174	-0.037
-332.231	-200.000	-0.005	0.117
-331.216	98.670	-0.188	-0.213
-330.202	3.380	0.359	0.258
-329.187	-200.000	-0.029	-0.172
-328.172	81.648	0.073	-0.078
-327.158	226.903	-0.054	-0.086
-326.143	56.144	-0.153	-0.146
-325.129	9.902	0.150	0.112
-324.114	162.229	-0.027	0.038
-323.099	0.169	-0.270	0.190
-322.085	404.168	0.131	-0.272
-321.070	-32.894	0.187	0.102
-320.056	-200.000	0.001	0.153
-319.041	24.049	0.292	-0.238
-318.026	-142.921	-0.346	0.033
-317.012	-91.087	0.234	-0.066
-315.997	522.314	-0.094	0.216
-314.983	-22.335	-0.079	0.047
-313.968	800.000	0.040	0.166
-312.953	800.000	-0.124	0.357
-311.939	-107.980	0.263	0.056
-310.924	419.576	-0.074	0.157
-309.910	178.447	-0.126	-0.181
-308.895	-99.136	0.153	0.038
-307.880	800.000	-0.061	-0.167
-306.866	800.000	-0.049	0.190
-305.851	50.395	-0.277	-0.258
-304.837	-138.050	0.306	0.034
-303.822	800.000	-0.024	-0.088
-302.807	-2.744	-0.132	-0.091
-301.793	749.436	-0.097	-0.258
-300.778	-200.000	-0.009	0.174
-299.764	800.000	-0.120	-0.337
-298.749	-200.000	0.008	-0.103
-297.735	-25.917	-0.173	-0.100
-296.720	40.317	-0.337	0.298
-295.705	-200.000	-0.004	0.134
-294.691	32.448	0.086	-0.073
-293.676	-200.000	0.060	0.294
-292.662	285.033	0.100	0.177
-291.647	3.898	0.075	0.054
-290.632	161.797	-0.138	0.190
-289.618	800.000	0.017	-0.050
-288.603	-85.093	0.174	-0.053
-287.589	-42.387	0.227	-0.114
-286.574	-32.372	-0.198	-0.108
-285.559	-15.260	-0.159	0.100
-284.545	-200.000	-0.027	0.293
-283.530	-200.000	0.007	-0.150
-282.516	-86.175	0.003	-0.001
-281.501	-200.000	0.011	-0.307
-280.486	-200.000	-0.015	-0.239
-279.472	165.020	-0.074	-0.102
-278.457	-128.830	0.246	0.034
-277.443	-200.000	-0.030	0.133
-276.428	-153.020	0.197	-0.014
-275.413	52.327	-0.146	0.137
-274.399	-200.000	0.035	0.187
-273.384	-200.000	-0.023	0.256
-272.370	-33.565	0.374	-0.203
-271.355	-138.930	-0.129	-0.014
-270.340	103.321	0.203	0.234
-269.326	-200.000	-0.045	0.555
-268.311	783.286	0.131	-0.352
-267.297	171.907	-0.046	-0.065
-266.282	-32.440	0.122	-0.067
-265.267	-200.000	0.026	0.186
-264.253	164.317	-0.239	0.331
-263.238	85.805	-0.236	-0.255
-262.224	800.000	0.127	0.402
-261.209	77.770	-0.139	0.145
-260.195	-200.000	-0.016	-0.076
-259.180	-38.638	-0.069	0.036
-258.165	-7.351	0.452	0.301
-257.151	47.797	0.073	-0.067
-256.136	478.362	0.077	-0.171
-255.122	113.816	0.251	-0.299
-254.107	448.939	0.131	-0.284
-253.092	11.158	0.085	0.064
-252.078	800.000	-0.025	-0.105
-251.063	500.072	-0.116	0.263
-250.049	-200.000	0.010	-0.213
-249.034	-71.704	0.314	0.115
-248.019	39.276	-0.034	0.030
-247.005	800.000	-0.016	0.052
-245.990	-87.607	-0.078	0.023
-244.976	360.873	-0.108	-0.213
-243.961	453.126	0.048	-0.105
-242.946	-200.000	-0.042	0.288
-241.932	17.541	-0.033	0.026
-240.917	-79.877	-0.204	0.067
-239.903	104.636	0.135	0.156
-238.888	-200.000	0.345	-0.002
-237.873	63.933	-0.107	-0.105
-236.859	-115.176	0.114	-0.021
-235.844	117.325	0.181	-0.218
-234.830	345.727	-0.028	0.054
-233.815	-5.973	0.128	0.086
-232.800	800.000	-0.084	-0.273
-231.786	119.349	0.185	-0.224
-230.771	-126.647	0.027	0.004
-229.757	-200.000	0.070	-0.351
-228.742	-108.710	0.279	-0.059
-227.727	185.769	-0.148	-0.216
-226.713	64.030	0.131	-0.130
-225.698	-116.901	0.287	0.051
-224.684	-200.000	-0.041	0.185
-223.669	14.980	-0.309	0.237
-222.655	428.681	0.165	0.351
-221.640	-79.887	-0.335	-0.111
-220.625	-159.208	-0.287	0.016
-219.611	54.334	0.151	0.143
-218.596	800.000	0.068	-0.232
-217.582	259.349	-0.087	-0.148
-216.567	-200.000	0.002	-0.155
-215.552	-200.000	-0.018	0.107
-214.538	800.000	0.029	0.090
-213.523	-200.000	-0.003	-0.100
-212.509	278.693	-0.035	-0.061
-211.494	34.312	0.085	-0.072
-210.479	402.693	0.061	0.125
-209.465	116.346	0.144	-0.173
-208.450	270.419	0.120	-0.206
-207.436	-139.117	0.277	-0.029
-206.421	-200.000	0.026	0.182
-205.406	-200.000	0.057	-0.321
-204.392	-72.199	0.260	0.095
-203.377	-200.000	-0.015	-0.070
-202.363	-43.292	0.119	-0.059
-201.348	-200.000	0.079	-0.343
-200.333	-200.000	-0.062	-0.350
-199.319	800.000	-0.056	-0.198
-198.304	-200.000	0.000	0.097
-197.290	800.000	0.128	0.407
-196.275	-130.626	-0.276	-0.036
-195.260	-115.465	0.498	-0.092
-194.246	-143.437	-0.299	0.028
-193.231	440.536	0.054	0.117
-192.217	-102.418	-0.111	-0.026
-191.202	98.085	-0.141	-0.159
-190.187	187.137	0.089	-0.130
-189.173	800.000	-0.048	-0.202
-188.158	79.527	0.155	-0.163
-187.144	-93.717	-0.088	-0.024
-186.129	16.063	0.054	-0.042
-185.114	-3.340	-0.261	-0.178
-184.100	-142.397	-0.027	0.003
-183.085	-200.000	-0.031	0.345
-182.071	-70.929	0.239	0.088
-181.056	62.809	0.046	-0.045
-180.042	5.494	0.211	0.152
-179.027	53.165	0.082	0.077
-178.012	800.000	-0.050	0.141
-176.998	5.388	0.046	-0.033
-175.983	222.806	-0.178	-0.281
-174.969	-84.784	-0.190	0.059
-173.954	-35.061	0.185	0.099
-172.939	228.353	-0.059	0.094
-171.925	800.000	0.011	0.036
-170.910	-120.762	-0.375	-0.062
-169.896	-21.627	0.091	-0.054
-168.881	114.103	-0.124	-0.148
-167.866	114.899	-0.125	-0.150
-166.852	-85.576	0.053	-0.016
-165.837	629.718	0.016	0.040
-164.823	-178.482	0.274	0.006
-163.808	-200.000	-0.008	0.456
-162.793	800.000	-0.136	0.552
-161.779	-1.630	0.236	0.163
-160.764	-44.083	-0.193	-0.095
-159.750	371.394	0.097	-0.194
-158.735	74.976	0.147	0.152
-157.720	-200.000	0.034	-0.173
-156.706	-86.557	0.151	0.045
-155.691	284.283	0.083	0.146
-154.677	-200.000	0.005	0.042
-153.662	-7.081	-0.110	-0.073
-152.647	74.977	0.284	0.293
-151.633	-25.571	-0.166	0.096
-150.618	155.606	0.196	0.264
-149.604	-200.000	-0.006	0.239
-148.589	-38.251	-0.131	0.068
-147.574	-20.339	-0.363	-0.218
-146.560	800.000	0.108	-0.313
-145.545	-99.066	0.387	-0.096
-144.531	-200.000	-0.019	0.291
-143.516	-43.930	-0.212	0.104
-142.502	-127.909	0.296	-0.042
-141.487	-1.654	0.202	-0.139
-140.472	252.474	-0.114	-0.190
-139.458	318.618	-0.166	0.308
-138.443	10.396	-0.101	0.075
-137.429	-93.201	0.219	-0.060
-136.414	88.863	-0.034	0.037
-135.399	15.461	0.195	-0.149
-134.385	-87.424	-0.113	-0.034
-133.370	-116.239	-0.047	-0.008
-132.356	358.095	0.125	-0.243
-131.341	-102.761	0.259	0.060
-130.326	-41.048	-0.130	-0.066
-129.312	-200.000	-0.021	0.201
-128.297	1.486	-0.131	-0.092
-127.283	-200.000	0.066	-0.304
-126.268	-22.225	-0.305	0.180
-125.253	-144.179	-0.164	-0.015
-124.239	262.498	-0.157	-0.266
-123.224	-108.203	0.199	0.042
-122.210	23.812	-0.191	-0.154
-121.195	165.708	-0.069	0.095
-120.180	800.000	0.035	-0.119
-119.166	-161.335	0.264	0.013
-118.151	-113.534	-0.188	-0.036
-117.137	800.000	-0.008	0.026
-116.122	-156.088	-0.351	-0.022
-115.107	-32.846	0.197	0.107
-114.093	-200.000	0.001	-0.152
-113.078	800.000	0.022	0.081
-112.064	-200.000	-0.001	-0.118
-111.049	165.395	-0.140	-0.193
-110.034	-131.490	0.146	-0.019
-109.020	-16.575	0.111	0.069
-108.005	66.862	-0.222	-0.220
-106.991	454.850	-0.156	-0.338
-105.976	136.162	-0.210	-0.267
-104.962	-29.853	0.440	-0.245
-103.947	-66.935	-0.354	0.136
-102.932	18.230	0.253	0.197
-101.918	-26.547	-0.294	0.168
-100.903	-63.492	-0.084	-0.034
-99.889	89.529	0.124	0.135
-98.874	5.791	0.241	0.174
-97.859	-95.327	-0.363	0.095
-96.845	-159.300	0.173	0.009
-95.830	-200.000	-0.027	0.446
-94.816	-116.688	0.117	-0.021
-93.801	-23.353	0.033	0.019
-92.786	800.000	0.077	0.241
-91.772	-169.371	0.369	-0.013
-90.757	723.942	0.039	0.102
-89.743	242.783	0.043	-0.069
-88.728	-93.279	0.115	-0.031
-87.713	202.063	-0.107	0.161
-86.699	-31.616	-0.197	-0.108
-85.684	-49.739	-0.061	0.028
-84.670	800.000	-0.056	-0.184
-83.655	239.231	0.169	-0.274
-82.640	43.104	-0.234	0.209
-81.626	127.486	0.161	-0.199
-80.611	39.591	-0.175	-0.153
-79.597	12.728	0.113	0.085
-78.582	20.816	0.054	-0.042
-77.567	-109.412	0.322	-0.066
-76.553	-0.448	-0.192	0.133
-75.538	-52.477	-0.314	-0.142
-74.524	800.000	0.087	0.286
-73.509	68.249	-0.063	-0.063
-72.494	-111.462	0.106	-0.021
-71.480	-200.000	-0.029	0.182
-70.465	-132.557	-0.261	-0.033
-69.451	0.330	0.297	0.207
-68.436	-200.000	-0.007	-0.132
-67.422	231.870	0.163	0.260
-66.407	22.774	-0.101	0.080
-65.392	800.000	-0.045	0.126
-64.378	160.793	-0.012	0.017
-63.363	455.924	0.037	-0.079
-62.349	303.417	-0.131	0.236
-61.334	124.139	-1.046	-1.281
-60.319	-31.849	0.723	0.395
-59.305	359.312	-0.557	-1.086
-58.290	147.239	1.162	1.524
-57.276	733.810	0.677	1.766
-56.261	-200.000	133.032	696.216
-55.246	365.401	1658.918	3256.717
-54.232	134.420	2800.071	3538.684
-53.217	93.077	2166.405	2386.189
-52.203	33.770	1593.554	1350.847
-51.188	25.522	1340.070	1086.325
-50.173	23.230	1302.270	1042.162
-49.159	51.206	1376.196	1272.370
-48.144	47.654	1385.817	1259.694
-47.130	25.666	1332.117	1080.571
-46.115	22.395	1313.645	1046.142
-45.100	22.257	1307.917	1040.721
-44.086	22.138	1305.597	1038.129
-43.071	22.110	1303.107	1035.946
-42.057	22.037	1301.198	1033.956
-41.042	22.173	1299.064	1033.019
-40.027	22.055	1297.927	1031.381
-39.013	22.145	1295.918	1030.269
-37.998	22.150	1294.292	1028.966
-36.984	22.176	1292.542	1027.686
-35.969	22.293	1290.952	1027.066
-34.954	22.225	1288.886	1024.982
-33.940	22.283	1287.562	1024.229
-32.925	22.309	1286.227	1023.279
-31.911	22.333	1284.603	1022.081
-30.896	22.367	1283.296	1021.200
-29.881	22.383	1282.380	1020.525
-28.867	22.382	1280.846	1019.257
-27.852	22.385	1279.243	1017.958
-26.838	22.453	1278.576	1017.780
-25.823	22.357	1277.172	1016.070
-24.809	22.352	1275.714	1014.839
-23.794	22.278	1274.771	1013.620
-22.779	22.350	1273.664	1013.113
-21.765	22.240	1272.229	1011.299
-20.750	22.304	1270.841	1010.524
-19.736	22.290	1269.153	1009.065
-18.721	22.300	1268.128	1008.263
-17.706	22.189	1266.993	1006.687
-16.692	22.168	1266.567	1006.189
-15.677	22.119	1265.210	1004.792
-14.663	22.087	1264.124	1003.707
-13.648	22.264	1262.382	1003.291
-12.633	22.278	1261.544	1002.667
-11.619	22.235	1260.879	1001.850
-10.604	22.281	1260.070	1001.433
-9.590	22.193	1259.379	1000.344
-8.575	22.084	1258.479	998.968
-7.560	22.222	1256.994	998.531
-6.546	22.117	1257.178	998.042
-5.531	22.133	1255.924	997.098
-4.517	22.221	1254.750	996.628
-3.502	22.090	1254.140	995.363
-2.487	22.176	1253.093	994.976
-1.473	22.229	1248.567	991.640
-0.458	20.438	1233.611	969.734
0.556	15.917	1217.488	931.654
1.571	12.140	1226.025	917.028
2.586	11.479	1241.596	924.847
3.600	11.325	1229.589	914.958
4.615	8.623	1159.042	848.079
5.629	3.341	1089.900	771.038
6.644	0.753	1073.825	746.823
7.659	0.735	1071.631	745.148
8.673	0.678	1071.037	744.386
9.688	0.704	1069.634	743.473
10.702	0.762	1067.548	742.240
11.717	4.018	1070.627	760.328
12.731	10.630	1079.158	798.957
13.746	15.751	1085.783	829.098
14.761	17.164	1087.524	837.325
15.775	16.623	1085.744	833.217
16.790	15.528	1084.129	826.519
17.804	14.862	1082.578	821.986
18.819	14.675	1081.214	819.963
19.834	14.419	1080.070	817.763
20.848	14.081	1079.389	815.520
21.863	13.951	1078.553	814.177
22.877	13.716	1077.865	812.436
23.892	13.757	1076.907	811.842
24.907	13.712	1076.223	811.033
25.921	13.808	1075.371	810.790
26.936	13.879	1074.259	810.226
27.950	13.681	1073.883	808.905
28.965	13.802	1072.550	808.420
29.980	13.905	1071.330	807.928
30.994	13.814	1070.414	806.726
32.009	13.902	1069.586	806.458
33.023	13.880	1068.582	805.523
34.038	13.864	1067.288	804.397
35.053	13.846	1066.968	803.998
36.067	13.845	1065.521	802.830
37.082	13.887	1065.004	802.576
38.096	13.820	1064.275	801.631
39.111	13.851	1063.611	801.209
40.126	13.934	1062.257	800.518
41.140	13.720	1061.342	798.725
42.155	13.701	1060.192	797.697
43.169	13.724	1058.655	796.584
44.184	13.761	1057.884	796.108
45.199	13.672	1056.887	794.863
46.213	13.792	1055.677	794.455
47.228	13.730	1054.931	793.528
48.242	13.715	1053.726	792.479
49.257	13.853	1052.408	792.077
50.271	14.001	1051.324	791.898
51.286	13.908	1050.671	790.893
52.301	13.836	1050.014	789.983
53.315	13.792	1048.947	788.901
54.330	13.770	1048.137	788.120
55.344	13.729	1047.199	787.150
56.359	13.882	1045.861	786.800
57.374	13.827	1045.178	785.957
58.388	13.678	1044.320	784.536
59.403	13.724	1043.292	783.914
60.417	13.630	1042.757	782.995
61.432	13.659	1042.103	782.573
62.447	13.561	1041.186	781.351
63.461	13.630	1040.303	780.945
64.476	13.475	1039.492	779.541
65.490	13.681	1038.396	779.616
66.505	13.657	1037.624	778.855
67.520	13.632	1037.382	778.485
68.534	13.590	1036.321	777.423
69.549	13.655	1035.873	777.325
70.563	13.633	1034.621	776.212
71.578	13.587	1034.359	775.734
72.593	13.446	1033.710	774.517
73.607	13.632	1032.962	774.757
74.622	13.601	1032.154	773.939
75.636	13.476	1031.577	772.855
76.651	13.613	1030.331	772.493
77.666	13.638	1029.688	772.056
78.680	13.683	1028.982	771.668
79.695	13.634	1028.766	771.212
80.709	13.619	1028.445	770.832
81.724	13.741	1027.327	770.492
82.739	13.747	1026.537	769.858
83.753	13.746	1025.979	769.370
84.768	13.837	1024.804	768.842
85.782	13.870	1023.975	768.305
86.797	13.860	1023.610	767.916
87.812	13.840	1022.247	766.730
88.826	13.832	1021.551	766.108
89.841	13.819	1020.608	765.271
90.855	13.777	1019.901	764.478
91.870	13.756	1018.764	763.462
92.884	14.032	1017.426	763.663
93.899	13.930	1017.023	762.825
94.914	13.973	1015.904	762.112
95.928	13.873	1015.463	761.258
96.943	13.904	1014.620	760.700
97.957	13.844	1013.697	759.667
98.972	13.895	1012.884	759.223
99.987	13.898	1012.005	758.510
101.001	13.884	1010.613	757.335
102.016	13.854	1010.289	756.889
103.030	14.030	1009.137	756.760
104.045	13.909	1008.573	755.718
105.060	13.831	1007.607	754.574
106.074	13.848	1006.449	753.718
107.089	13.788	1005.666	752.791
108.103	13.945	1004.398	752.489
109.118	13.787	1003.525	751.050
110.133	13.790	1002.615	750.319
111.147	13.789	1001.720	749.579
112.162	13.912	1001.203	749.681
113.176	13.876	1000.586	748.989
114.191	13.793	999.703	747.887
115.206	13.759	998.817	747.006
116.220	13.838	998.033	746.707
117.235	13.816	996.575	745.454
118.249	13.871	995.566	744.879
119.264	13.859	995.138	744.438
120.279	13.826	994.485	743.738
121.293	13.816	993.557	742.932
122.308	13.880	992.653	742.476
123.322	13.785	991.713	741.285
124.337	13.844	990.775	740.780
125.352	13.846	989.230	739.566
126.366	13.808	988.152	738.528
127.381	13.939	986.898	738.108
128.395	13.781	986.752	737.229
129.410	13.911	985.610	736.891
130.424	13.819	984.599	735.659
131.439	13.815	984.295	735.350
132.454	13.777	983.641	734.629
133.468	13.807	982.765	734.040
134.483	13.892	981.475	733.387
135.497	13.840	980.893	732.658
136.512	13.850	979.650	731.710
137.527	13.814	979.428	731.322
138.541	13.853	978.133	730.463
139.556	13.811	977.544	729.774
140.570	13.835	976.911	729.342
141.585	14.002	976.035	729.357
142.600	14.040	975.273	728.886
143.614	14.008	974.318	727.968
144.629	14.087	973.397	727.562
145.643	14.008	972.451	726.447
146.658	13.924	971.762	725.502
147.673	13.875	970.842	724.537
148.687	13.866	970.350	724.066
149.702	14.074	969.179	724.032
150.716	13.965	968.598	723.059
151.731	14.061	967.872	722.872
152.746	13.843	967.334	721.457
153.760	14.097	966.142	721.609
154.775	14.083	965.927	721.324
155.789	14.255	964.883	721.226
156.804	14.138	964.599	720.441
157.819	14.094	964.076	719.799
158.833	14.217	963.352	719.724
159.848	14.096	962.382	718.415
160.862	14.151	961.433	717.879
161.877	14.114	960.313	716.819
162.892	14.090	959.264	715.868
163.906	14.077	958.135	714.909
164.921	13.951	958.192	714.346
165.935	14.172	956.629	714.065
166.950	14.115	955.860	713.184
167.964	14.209	954.887	712.798
168.979	14.149	954.470	712.167
169.994	14.127	953.346	711.172
171.008	14.120	952.785	710.660
172.023	14.226	952.009	710.472
173.037	14.308	951.064	710.051
174.052	14.242	950.747	709.472
175.067	14.163	950.088	708.579
176.081	14.164	949.050	707.748
177.096	14.107	948.972	707.386
178.110	14.418	947.927	707.862
179.125	14.317	947.463	707.026
180.140	14.212	947.126	706.268
181.154	14.277	946.514	706.024
182.169	14.476	945.455	706.015
183.183	14.403	945.229	705.474
184.198	14.441	944.447	704.989
185.213	14.339	943.911	704.095
186.227	14.397	942.976	703.581
187.242	14.524	942.344	703.582
188.256	14.569	941.523	703.095
189.271	14.434	940.992	702.070
190.286	14.348	940.397	701.201
191.300	14.340	939.626	700.532
192.315	14.401	938.606	699.966
193.329	14.501	937.701	699.648
194.344	14.297	937.791	698.798
195.359	14.421	936.602	698.366
196.373	14.478	936.706	698.621
197.388	14.386	936.364	697.921
198.402	14.643	935.051	697.955
199.417	14.533	934.548	697.059
200.432	14.645	934.050	697.093
201.446	14.664	933.981	697.059
202.461	14.878	932.750	696.971
203.475	14.624	932.571	695.717
204.490	14.668	931.741	695.218
205.504	14.727	930.923	694.792
206.519	14.601	930.414	693.827
207.534	14.627	929.411	693.124
208.548	14.713	928.920	693.057
209.563	14.835	927.979	692.798
210.577	14.817	927.245	692.114
211.592	14.821	926.561	691.559
212.607	14.934	925.878	691.456
213.621	14.896	925.412	690.890
214.636	14.894	924.668	690.263
215.650	14.855	923.931	689.493
216.665	14.897	923.347	689.170
217.680	14.913	922.284	688.378
218.694	15.000	921.977	688.446
219.709	14.867	921.110	687.191
220.723	14.854	920.942	686.951
221.738	14.918	919.795	686.301
222.753	14.902	919.319	685.819
223.767	14.973	918.559	685.482
224.782	14.945	918.265	685.087
225.796	15.012	917.679	684.863
226.811	14.987	917.065	684.240
227.826	15.017	916.297	683.730
228.840	15.092	914.982	682.996
229.855	15.061	914.120	682.164
230.869	15.088	913.751	681.940
231.884	15.024	912.717	680.848
232.899	15.048	912.204	680.502
233.913	15.038	911.565	679.925
234.928	15.081	911.293	679.833
235.942	15.157	910.227	679.290
236.957	15.004	909.946	678.396
237.972	15.084	909.417	678.266
238.986	15.124	908.386	677.600
240.001	15.127	908.102	677.342
241.015	15.131	907.045	676.510
242.030	15.137	906.598	676.140
243.045	15.263	905.941	676.100
244.059	15.133	905.752	675.371
245.074	15.118	905.090	674.757
246.088	15.110	903.944	673.812
247.103	15.192	903.917	674.061
248.117	15.268	903.625	674.090
249.132	15.410	902.402	673.689
250.147	15.415	901.419	672.916
251.161	15.509	901.064	672.969
252.176	15.513	900.302	672.356
253.190	15.408	900.084	671.714
254.205	15.561	898.888	671.371
255.220	15.593	898.441	671.107
256.234	15.417	898.347	670.276
257.249	15.450	897.433	669.665
258.263	15.578	896.215	669.206
259.278	15.633	895.776	669.039
260.293	15.693	895.366	668.912
261.307	15.702	894.568	668.294
262.322	15.770	893.829	667.953
263.336	15.768	893.596	667.710
264.351	15.705	892.505	666.585
265.366	15.677	892.117	666.125
266.380	15.726	891.205	665.581
267.395	15.704	891.011	665.288
268.409	15.882	889.868	665.079
269.424	15.738	889.023	663.821
270.439	15.748	888.491	663.407
271.453	15.835	887.493	662.946
272.468	15.857	887.104	662.682
273.482	15.728	886.955	662.003
274.497	15.826	886.128	661.713
275.512	15.707	885.679	660.852
276.526	15.820	885.046	660.764
277.541	15.876	884.251	660.332
278.555	15.882	884.008	660.116
279.570	16.048	882.759	659.773
280.585	16.089	882.295	659.530
281.599	16.037	881.436	658.625
282.614	15.948	880.580	657.582
283.628	15.898	880.338	657.146
284.643	16.008	879.717	657.055
285.657	16.088	878.932	656.723
286.672	15.904	878.405	655.553
287.687	16.059	877.705	655.576
288.701	16.065	877.108	655.095
289.716	15.918	876.743	654.192
290.730	15.952	876.250	653.898
291.745	16.189	875.400	654.126
292.760	16.084	874.885	653.278
293.774	16.007	874.372	652.537
294.789	16.065	873.394	651.974
295.803	16.138	872.951	651.870
296.818	16.157	872.170	651.300
297.833	16.180	871.540	650.863
298.847	16.154	871.087	650.364
299.862	16.175	870.467	649.928
300.876	16.274	869.719	649.692
301.891	16.291	868.970	649.139
302.906	16.386	868.514	649.107
303.920	16.429	868.063	648.878
304.935	16.388	867.727	648.409
305.949	16.371	867.053	647.786
306.964	16.383	866.496	647.356
307.979	16.329	865.964	646.697
308.993	16.339	865.548	646.365
310.008	16.404	864.812	646.009
311.022	16.405	863.986	645.338
312.037	16.384	863.640	644.941
313.052	16.409	862.866	644.401
314.066	16.434	862.289	644.009
315.081	16.462	861.527	643.488
316.095	16.489	860.758	642.962
317.110	16.389	860.690	642.475
318.125	16.380	860.166	641.991
319.139	16.470	859.805	642.009
320.154	16.473	859.352	641.622
321.168	16.451	858.864	641.117
322.183	16.470	858.064	640.537
323.197	16.496	857.391	640.075
324.212	16.633	856.963	640.220
325.227	16.465	856.483	639.167
326.241	16.459	855.912	638.663
327.256	16.498	855.411	638.378
328.270	16.599	854.461	637.994
329.285	16.554	854.343	637.682
330.300	16.627	853.273	637.100
331.314	16.554	853.048	636.602
332.329	16.609	852.708	636.496
333.343	16.569	852.458	636.106
334.358	16.674	851.870	636.005
335.373	16.685	851.611	635.797
336.387	16.672	851.154	635.349
337.402	16.752	851.077	635.536
338.416	16.628	850.570	634.638
339.431	16.791	849.772	634.594
340.446	16.887	849.360	634.589
341.460	16.803	849.039	633.982
342.475	17.003	848.275	634.100
343.489	16.970	848.194	633.862
344.504	16.823	847.725	632.905
345.519	17.011	847.299	633.233
346.533	16.971	846.964	632.777
347.548	16.957	846.387	632.238
348.562	17.006	845.714	631.863
349.577	16.845	845.286	630.887
350.592	16.931	844.604	630.641
351.606	16.898	843.771	629.842
352.621	16.872	843.325	629.357
353.635	17.032	842.532	629.302
354.650	16.959	841.643	628.311
355.665	17.078	841.069	628.271
356.679	17.127	840.804	628.197
357.694	17.133	840.157	627.678
358.708	17.153	839.296	627.056
359.723	17.062	838.745	626.254
360.738	17.167	838.146	626.137
361.752	17.228	837.369	625.728
362.767	17.122	837.093	625.074
363.781	17.156	836.666	624.824
364.796	17.285	836.088	624.812
365.810	17.262	835.292	624.079
366.825	17.399	835.157	624.423
367.840	17.297	835.011	623.884
368.854	17.313	834.114	623.218
369.869	17.421	833.852	623.363
370.883	17.327	833.185	622.466
371.898	17.311	833.378	622.497
372.913	17.339	832.542	621.919
373.927	17.391	832.484	622.010
374.942	17.462	831.599	621.555
375.956	17.435	831.208	621.107
376.971	17.457	830.841	620.858
377.986	17.445	830.373	620.412
379.000	17.474	829.786	620.022
380.015	17.591	829.424	620.123
381.029	17.687	828.452	619.690
382.044	17.658	827.879	619.102
383.059	17.643	827.503	618.713
384.073	17.690	827.143	618.560
385.088	17.644	826.333	617.732
386.102	17.530	825.867	616.914
387.117	17.628	825.024	616.584
388.132	17.580	824.665	616.091
389.146	17.567	823.738	615.295
390.161	17.735	823.791	615.887
391.175	17.674	823.498	615.395
392.190	17.786	822.728	615.166
393.205	17.674	822.309	614.394
394.219	17.671	821.986	614.090
395.234	17.656	821.394	613.540
396.248	17.628	821.141	613.194
397.263	17.695	820.367	612.803
398.278	17.605	820.326	612.394
399.292	17.785	820.011	612.751
400.307	17.785	819.506	612.323
401.321	17.768	818.670	611.580
402.336	17.815	818.244	611.376
403.350	17.824	818.117	611.260
404.365	17.816	817.655	610.833
405.380	17.796	817.050	610.253
406.394	17.907	816.178	609.947
407.409	17.822	816.550	609.867
408.423	17.977	815.850	609.842
409.438	18.037	815.547	609.776
410.453	18.074	814.720	609.235
411.467	18.085	814.481	609.042
412.482	17.824	814.500	608.073
413.496	18.069	813.692	608.288
414.511	18.151	813.251	608.196
415.526	18.014	812.870	607.370
416.540	18.289	811.955	607.611
417.555	18.228	811.688	607.137
418.569	18.313	811.170	606.998
419.584	18.095	811.158	606.162
420.599	18.288	810.602	606.379
421.613	116.142	1299.869	1491.659
422.628	100.537	1371.114	1491.723
