DTS Sentinel unit serial number:	SN413079Multiplexer serial number:	ORYXHardware model number:	OX4-SRSoftware version number:	ORYX F/W v4.00 Oryx Data Collector v3.7.2.0data status	okinstallation	princeton_trtdifferential loss correction	single-endedforward channel	channel 1reverse channel	N/Adate	2019/09/15time	00:42:35forward acquisition time	60.00reverse acquisition time	0.00gamma	496.2192k internal	0.2320k external	0.2320temperature offset calibration	0.9994default loss term (dB/km)	0.3790temperature slope calibration	1.0000multiplexer offset coefficient	1.0000multiplexer slope coefficient	1.0000fibre end	0.00T internal ref (°C)	32.06T ext. ref 1 (°C)	4.58T ext. ref 2 (°C)	27.03length (m)	temperature (°C)	Stokes	anti-Stokes-747.200	-18.465	-0.185	-0.117
-746.185	800.000	-0.072	0.280
-745.171	662.499	0.139	0.362
-744.156	169.044	-0.104	0.149
-743.142	123.204	0.156	0.197
-742.127	800.000	0.183	0.547
-741.112	-94.015	-0.147	0.041
-740.098	800.000	0.037	0.114
-739.083	-118.822	0.214	0.038
-738.069	-200.000	-0.006	0.075
-737.054	800.000	-0.073	0.209
-736.039	-0.868	-0.301	0.216
-735.025	57.526	0.175	-0.173
-734.010	-21.879	-0.272	0.167
-732.996	-153.456	-0.456	0.032
-731.981	-200.000	-0.023	-0.171
-730.966	-19.945	0.031	-0.020
-729.952	105.983	-0.234	-0.280
-728.937	-200.000	-0.034	-0.187
-727.923	-200.000	-0.033	-0.315
-726.908	-62.100	0.127	-0.054
-725.894	-13.232	-0.217	0.142
-724.879	-130.136	-0.182	-0.025
-723.864	-36.704	0.062	-0.034
-722.850	800.000	-0.052	0.188
-721.835	-85.975	0.221	-0.069
-720.821	-165.814	0.067	-0.003
-719.806	-200.000	-0.011	-0.188
-718.791	-47.105	-0.056	0.028
-717.777	800.000	0.044	-0.167
-716.762	800.000	0.084	-0.323
-715.748	33.013	-0.084	0.073
-714.733	550.682	0.081	-0.198
-713.718	-124.676	0.396	-0.062
-712.704	15.760	-0.045	0.036
-711.689	-114.110	-0.141	0.027
-710.675	77.563	-0.184	0.198
-709.660	-75.406	-0.090	0.032
-708.645	-68.768	0.244	-0.095
-707.631	-114.424	-0.194	-0.038
-706.616	-83.824	-0.160	0.051
-705.602	42.620	0.092	-0.084
-704.587	800.000	0.149	0.430
-703.572	83.024	0.047	-0.052
-702.558	43.190	-0.178	0.164
-701.543	800.000	-0.064	0.190
-700.529	48.547	-0.142	0.135
-699.514	-77.208	0.057	-0.020
-698.499	112.291	0.269	0.328
-697.485	56.596	-0.328	0.322
-696.470	-200.000	-0.001	0.240
-695.456	166.594	-0.065	-0.093
-694.441	-96.403	-0.300	0.080
-693.426	-200.000	-0.012	0.224
-692.412	40.327	0.218	0.198
-691.397	-200.000	-0.050	-0.328
-690.383	43.404	-0.121	-0.111
-689.368	800.000	0.044	-0.181
-688.354	14.104	0.018	-0.014
-687.339	-99.706	0.047	-0.012
-686.324	-143.735	-0.080	-0.008
-685.310	-109.859	-0.420	-0.089
-684.295	310.915	-0.035	0.066
-683.281	-200.000	0.010	0.206
-682.266	736.946	0.065	0.177
-681.251	800.000	-0.091	0.275
-680.237	-200.000	-0.023	0.136
-679.222	-83.593	0.266	-0.086
-678.208	662.519	0.065	0.169
-677.193	800.000	-0.079	-0.245
-676.178	6.282	0.351	-0.263
-675.164	-139.621	-0.193	0.021
-674.149	626.012	0.088	-0.223
-673.135	800.000	-0.086	-0.277
-672.120	-79.220	0.188	-0.064
-671.105	25.159	0.207	0.173
-670.091	800.000	-0.025	-0.102
-669.076	800.000	0.027	0.114
-668.062	147.525	-0.121	0.164
-667.047	-48.195	0.173	-0.084
-666.032	-86.947	-0.194	0.060
-665.018	-123.265	-0.250	-0.040
-664.003	591.248	0.136	0.339
-662.989	800.000	0.056	0.161
-661.974	124.197	-0.124	-0.157
-660.959	-142.328	-0.079	-0.008
-659.945	-138.312	-0.078	-0.009
-658.930	800.000	0.056	0.212
-657.916	-200.000	-0.020	-0.333
-656.901	-200.000	-0.018	-0.141
-655.886	274.990	-0.005	0.008
-654.872	-75.758	-0.323	0.116
-653.857	-23.865	0.093	0.056
-652.843	800.000	-0.074	-0.213
-651.828	-44.050	0.219	-0.111
-650.814	-4.135	-0.222	0.155
-649.799	84.502	-0.338	0.372
-648.784	199.718	-0.150	-0.231
-647.770	800.000	0.033	0.108
-646.755	800.000	-0.117	-0.332
-645.741	-122.970	-0.207	-0.033
-644.726	224.070	0.200	-0.326
-643.711	800.000	-0.079	-0.255
-642.697	-200.000	-0.035	0.175
-641.682	94.552	0.170	0.195
-640.668	472.581	0.142	-0.323
-639.653	542.520	-0.058	-0.139
-638.638	614.422	0.081	-0.204
-637.624	365.081	0.080	0.163
-636.609	-113.847	-0.158	-0.031
-635.595	-15.572	-0.236	-0.151
-634.580	41.274	-0.065	0.059
-633.565	-5.487	-0.065	0.045
-632.551	-77.152	0.135	-0.047
-631.536	-8.314	-0.246	0.167
-630.522	-86.076	0.126	-0.039
-629.507	241.430	0.135	0.227
-628.492	25.298	0.310	-0.260
-627.478	-148.227	0.215	0.018
-626.463	144.662	0.054	-0.073
-625.449	205.737	-0.152	-0.238
-624.434	-200.000	-0.018	0.119
-623.419	108.621	-0.035	0.042
-622.405	-118.185	-0.147	0.026
-621.390	-122.725	-0.177	0.029
-620.376	4.368	-0.159	-0.118
-619.361	92.312	-0.039	-0.045
-618.346	800.000	-0.054	-0.236
-617.332	581.404	0.197	0.485
-616.317	217.049	0.101	-0.161
-615.303	-200.000	0.003	-0.164
-614.288	63.306	0.141	0.143
-613.273	3.647	0.237	-0.174
-612.259	-200.000	0.011	0.246
-611.244	-175.924	-0.096	0.003
-610.230	88.943	0.092	-0.103
-609.215	-200.000	-0.000	-0.027
-608.201	-29.428	0.269	-0.155
-607.186	92.671	-0.268	0.304
-606.171	253.645	-0.113	-0.194
-605.157	-150.999	-0.115	-0.009
-604.142	-200.000	0.017	0.306
-603.128	30.428	0.112	0.096
-602.113	-60.117	-0.202	0.087
-601.098	-70.232	0.363	-0.139
-600.084	53.919	-0.140	-0.135
-599.069	423.885	-0.027	0.058
-598.055	-81.788	-0.440	-0.145
-597.040	800.000	0.037	0.125
-596.025	-180.267	0.233	0.005
-595.011	800.000	0.072	-0.237
-593.996	-200.000	-0.011	-0.237
-592.982	39.928	-0.281	0.254
-591.967	-147.948	0.302	0.025
-590.952	-200.000	-0.007	-0.194
-589.938	-200.000	0.043	-0.202
-588.923	-84.283	-0.164	-0.052
-587.909	-200.000	0.022	0.101
-586.894	33.329	-0.060	0.052
-585.879	-125.542	0.263	-0.040
-584.865	-200.000	-0.012	-0.070
-583.850	139.935	0.139	-0.184
-582.836	-66.623	0.313	-0.125
-581.821	187.315	0.123	0.184
-580.806	-29.903	0.146	0.083
-579.792	13.060	0.164	-0.128
-578.777	177.718	-0.151	-0.221
-577.763	-40.016	-0.296	0.155
-576.748	32.668	0.121	0.105
-575.733	-84.325	-0.258	0.082
-574.719	-200.000	-0.261	-0.001
-573.704	577.358	-0.018	0.044
-572.690	-200.000	0.113	-0.572
-571.675	-200.000	-0.021	0.106
-570.661	-55.021	0.331	-0.150
-569.646	778.264	-0.094	-0.258
-568.631	110.248	-0.152	0.183
-567.617	87.897	0.053	0.059
-566.602	-0.940	-0.114	0.081
-565.588	-32.281	-0.133	0.075
-564.573	715.375	0.039	-0.103
-563.558	-107.877	-0.124	0.027
-562.544	320.844	-0.127	-0.242
-561.529	11.676	-0.229	-0.177
-560.515	-131.002	0.123	0.017
-559.500	-85.737	0.141	-0.044
-558.485	280.008	0.078	0.141
-557.471	103.350	0.161	0.189
-556.456	-200.000	0.021	0.190
-555.442	800.000	-0.088	-0.306
-554.427	-200.000	-0.007	0.102
-553.412	-117.252	-0.186	0.034
-552.398	-200.000	-0.034	-0.268
-551.383	-73.828	0.517	-0.188
-550.369	391.783	-0.172	-0.358
-549.354	-53.696	-0.212	0.097
-548.339	-94.570	0.134	-0.037
-547.325	701.556	-0.061	-0.162
-546.310	571.410	0.031	-0.077
-545.296	195.429	-0.067	-0.103
-544.281	139.204	-0.213	-0.281
-543.266	147.998	-0.111	0.150
-542.252	-200.000	-0.005	0.124
-541.237	-130.689	0.151	0.020
-540.223	-200.000	0.010	0.127
-539.208	118.667	0.239	-0.296
-538.193	-110.263	-0.264	-0.055
-537.179	-100.076	0.176	0.044
-536.164	426.193	-0.118	0.254
-535.150	-81.009	-0.209	-0.069
-534.135	-7.753	0.194	-0.132
-533.121	-42.506	0.242	0.124
-532.106	-119.192	0.107	-0.019
-531.091	-64.489	-0.146	0.060
-530.077	-33.326	0.189	-0.105
-529.062	450.310	-0.108	0.238
-528.048	-200.000	-0.000	0.309
-527.033	-200.000	0.021	0.292
-526.018	-19.306	-0.092	-0.057
-525.004	8.850	0.284	-0.215
-523.989	-4.635	-0.221	0.153
-522.975	224.083	-0.073	0.118
-521.960	-43.190	-0.073	0.037
-520.945	273.987	-0.103	0.183
-519.931	189.896	0.022	-0.033
-518.916	-200.000	-0.011	0.077
-517.902	-200.000	0.001	-0.059
-516.887	-200.000	-0.012	-0.101
-515.872	800.000	0.059	0.193
-514.858	-200.000	-0.007	-0.192
-513.843	563.550	-0.048	-0.117
-512.829	800.000	0.047	-0.182
-511.814	88.715	-0.131	-0.146
-510.799	57.984	-0.051	-0.050
-509.785	90.616	-0.203	0.228
-508.770	514.890	0.131	-0.308
-507.756	-84.627	0.056	-0.018
-506.741	332.215	0.114	-0.221
-505.726	33.947	0.131	-0.114
-504.712	-200.000	-0.001	-0.083
-503.697	-33.401	-0.230	0.127
-502.683	-200.000	-0.017	-0.099
-501.668	-162.235	-0.275	-0.014
-500.653	800.000	-0.093	0.336
-499.639	-70.430	-0.168	-0.064
-498.624	239.603	0.168	-0.280
-497.610	302.716	-0.167	-0.310
-496.595	48.864	-0.038	0.035
-495.581	614.082	0.096	-0.241
-494.566	-91.928	-0.274	-0.078
-493.551	59.187	-0.066	-0.065
-492.537	-77.797	0.175	-0.061
-491.522	38.565	0.070	-0.062
-490.508	-52.019	-0.136	-0.063
-489.493	-57.879	0.354	0.155
-488.478	-200.000	-0.048	-0.214
-487.464	800.000	-0.082	-0.239
-486.449	-200.000	0.004	-0.094
-485.435	-159.140	-0.157	-0.009
-484.420	-110.482	0.131	-0.027
-483.405	131.077	0.117	0.150
-482.391	-200.000	0.074	0.331
-481.376	-200.000	-0.004	0.124
-480.362	-78.590	0.176	-0.060
-479.347	-200.000	-0.018	-0.162
-478.332	-85.632	-0.099	-0.031
-477.318	800.000	0.095	-0.375
-476.303	219.166	0.070	0.113
-475.289	-74.199	-0.319	-0.115
-474.274	729.779	-0.063	-0.169
-473.259	421.891	-0.065	0.139
-472.245	27.592	0.276	-0.233
-471.230	140.829	-0.130	-0.172
-470.216	-41.747	-0.371	0.191
-469.201	800.000	-0.131	-0.418
-468.186	13.965	0.111	-0.087
-467.172	372.555	-0.076	-0.154
-466.157	353.763	-0.182	0.361
-465.143	29.044	0.112	-0.095
-464.128	-95.098	0.331	-0.089
-463.113	-200.000	0.007	0.117
-462.099	-74.788	0.333	-0.119
-461.084	50.679	0.239	0.227
-460.070	-23.388	0.193	0.116
-459.055	-111.985	-0.302	-0.061
-458.040	-200.000	0.019	-0.088
-457.026	326.359	0.055	-0.105
-456.011	-47.698	-0.162	-0.078
-454.997	-3.824	-0.225	0.156
-453.982	-111.160	0.323	0.066
-452.968	-148.053	-0.115	0.010
-451.953	-109.624	-0.117	0.025
-450.938	-118.954	0.057	-0.010
-449.924	-104.519	0.190	0.044
-448.909	-66.255	0.266	-0.106
-447.895	-85.883	-0.229	0.071
-446.880	800.000	-0.099	-0.330
-445.865	-136.046	-0.191	0.022
-444.851	-200.000	-0.013	-0.075
-443.836	123.065	-0.218	0.273
-442.822	147.256	0.061	0.082
-441.807	164.268	0.217	0.306
-440.792	92.694	-0.096	-0.108
-439.778	311.121	0.179	-0.336
-438.763	-200.000	0.026	0.253
-437.749	521.246	0.113	0.264
-436.734	-200.000	-0.022	-0.313
-435.719	120.600	-0.019	-0.023
-434.705	237.304	-0.094	0.156
-433.690	183.211	0.241	-0.356
-432.676	212.011	0.109	0.172
-431.661	-22.772	0.132	0.080
-430.646	317.077	-0.121	-0.229
-429.632	88.121	-0.058	-0.065
-428.617	-21.504	0.167	0.102
-427.603	800.000	-0.064	-0.240
-426.588	-86.569	0.084	0.026
-425.573	1.157	-0.229	0.164
-424.559	135.316	0.043	0.056
-423.544	-23.721	0.264	-0.158
-422.530	-52.822	0.089	-0.041
-421.515	198.308	-0.111	0.170
-420.500	-130.494	-0.098	-0.013
-419.486	-51.037	0.361	-0.169
-418.471	-200.000	0.001	-0.413
-417.457	-158.731	0.402	-0.023
-416.442	-78.368	0.282	-0.097
-415.428	-17.927	-0.130	-0.082
-414.413	128.341	0.187	-0.238
-413.398	633.884	-0.083	-0.210
-412.384	-119.237	-0.208	-0.036
-411.369	19.915	0.234	0.189
-410.355	395.731	0.161	0.336
-409.340	800.000	0.030	-0.129
-408.325	201.942	-0.133	0.204
-407.311	403.446	0.069	0.145
-406.296	-200.000	-0.022	0.113
-405.282	184.498	0.127	-0.188
-404.267	-200.000	-0.001	0.090
-403.252	-43.298	-0.113	-0.057
-402.238	235.115	0.159	0.261
-401.223	-200.000	0.138	0.605
-400.209	516.682	0.186	-0.434
-399.194	67.609	0.063	-0.065
-398.179	-31.345	-0.190	0.107
-397.165	-200.000	0.176	0.000
-396.150	800.000	-0.083	-0.243
-395.136	-87.009	-0.214	-0.065
-394.121	-174.381	0.239	0.007
-393.106	-19.923	0.338	0.208
-392.092	-57.786	0.259	0.113
-391.077	80.231	0.135	0.144
-390.063	216.186	0.248	-0.393
-389.048	34.284	0.141	0.123
-388.033	81.296	-0.092	0.099
-387.019	-14.879	-0.186	-0.119
-386.004	-121.930	0.209	-0.034
-384.990	424.992	-0.104	-0.224
-383.975	-121.495	-0.206	-0.034
-382.960	1.036	-0.163	0.116
-381.946	-46.582	0.164	0.080
-380.931	-200.000	-0.048	-0.446
-379.917	-20.793	-0.146	-0.089
-378.902	69.933	-0.217	0.224
-377.888	48.953	-0.063	-0.059
-376.873	-62.709	-0.426	-0.176
-375.858	33.960	0.121	0.105
-374.844	232.916	0.035	0.057
-373.829	-200.000	-0.005	0.337
-372.815	160.813	0.146	0.203
-371.800	-48.126	0.302	-0.146
-370.785	560.077	-0.052	-0.126
-369.771	314.150	-0.233	0.437
-368.756	489.386	-0.098	0.224
-367.742	-200.000	0.020	-0.154
-366.727	-35.369	0.227	0.123
-365.712	-159.289	0.673	0.038
-364.698	-142.285	-0.186	0.018
-363.683	-103.716	-0.150	-0.035
-362.669	-2.272	-0.272	-0.190
-361.654	273.452	0.136	0.239
-360.639	742.351	0.204	-0.547
-359.625	-200.000	0.027	0.124
-358.610	-200.000	-0.135	-0.000
-357.596	414.528	-0.192	-0.407
-356.581	-97.574	-0.061	0.016
-355.566	-153.314	-0.308	0.021
-354.552	-200.000	0.045	0.250
-353.537	16.957	0.334	-0.263
-352.523	-200.000	-0.011	0.085
-351.508	-150.251	0.164	0.013
-350.493	800.000	0.021	-0.080
-349.479	189.174	0.161	-0.240
-348.464	196.195	0.141	0.214
-347.450	-33.254	-0.210	-0.116
-346.435	-35.250	0.178	0.096
-345.420	646.973	-0.050	-0.126
-344.406	800.000	-0.111	0.322
-343.391	-56.429	-0.175	-0.077
-342.377	513.980	0.073	-0.169
-341.362	-200.000	-0.006	-0.095
-340.348	39.270	-0.077	-0.069
-339.333	190.853	0.169	-0.253
-338.318	48.364	-0.315	-0.294
-337.304	-122.751	0.227	0.037
-336.289	3.217	-0.167	0.121
-335.275	-200.000	-0.022	-0.266
-334.260	-185.067	-0.230	0.004
-333.245	-70.096	-0.008	0.003
-332.231	-46.989	0.143	-0.070
-331.216	40.292	0.120	-0.107
-330.202	-34.631	-0.298	0.162
-329.187	800.000	-0.051	0.208
-328.172	-200.000	-0.023	-0.120
-327.158	23.917	-0.082	0.068
-326.143	59.465	0.037	-0.036
-325.129	110.665	0.104	0.124
-324.114	198.862	0.124	0.189
-323.099	-42.776	0.084	0.043
-322.085	11.822	0.159	-0.122
-321.070	-13.978	0.201	0.129
-320.056	37.671	0.230	-0.203
-319.041	674.672	0.037	0.094
-318.026	83.179	-0.105	-0.114
-317.012	-200.000	-0.033	0.231
-315.997	800.000	0.070	-0.195
-314.983	-34.595	0.136	0.074
-313.968	589.084	-0.072	0.175
-312.953	-171.225	-0.101	-0.003
-311.939	138.911	-0.046	-0.060
-310.924	42.970	0.356	0.323
-309.910	81.930	-0.173	0.186
-308.895	-200.000	-0.016	0.225
-307.880	-200.000	-0.007	0.183
-306.866	-174.339	0.133	-0.004
-305.851	-92.389	0.142	-0.040
-304.837	-144.386	-0.124	0.011
-303.822	570.385	-0.108	-0.261
-302.807	800.000	-0.076	-0.233
-301.793	176.336	-0.203	0.293
-300.778	-200.000	-0.043	0.518
-299.764	-200.000	-0.005	-0.109
-298.749	-103.617	0.141	0.033
-297.735	51.128	-0.084	-0.079
-296.720	-131.963	0.094	0.012
-295.705	-113.275	0.339	-0.066
-294.691	-45.252	0.087	-0.043
-293.676	800.000	0.064	0.264
-292.662	-62.894	0.323	-0.133
-291.647	-200.000	-0.019	0.160
-290.632	167.618	0.083	-0.117
-289.618	-108.102	0.193	-0.042
-288.603	-15.139	0.167	-0.106
-287.589	211.866	-0.077	0.120
-286.574	122.055	-0.244	0.303
-285.559	138.332	-0.074	-0.096
-284.545	800.000	0.012	-0.039
-283.530	-73.303	-0.336	0.122
-282.516	-106.233	0.138	0.031
-281.501	-200.000	0.039	0.358
-280.486	-115.028	-0.080	-0.015
-279.472	-200.000	-0.033	0.328
-278.457	-85.843	0.021	-0.006
-277.443	-14.651	-0.097	-0.062
-276.428	124.640	0.098	-0.122
-275.413	3.757	-0.120	-0.087
-274.399	-45.012	0.057	0.028
-273.384	354.312	0.074	-0.145
-272.370	37.924	-0.228	0.202
-271.355	24.585	-0.109	-0.090
-270.340	-53.046	0.236	-0.108
-269.326	-200.000	-0.017	0.305
-268.311	94.341	0.080	0.090
-267.297	-200.000	0.029	0.189
-266.282	177.709	-0.085	-0.122
-265.267	-7.045	-0.103	-0.069
-264.253	-119.019	-0.355	-0.062
-263.238	-120.190	-0.321	0.054
-262.224	98.489	-0.151	0.172
-261.209	-200.000	-0.012	0.143
-260.195	-51.802	-0.191	-0.088
-259.180	800.000	0.083	-0.258
-258.165	-64.638	0.195	-0.079
-257.151	800.000	-0.054	0.208
-256.136	800.000	-0.045	0.144
-255.122	469.405	0.165	0.369
-254.107	59.110	-0.052	-0.051
-253.092	63.779	-0.148	0.148
-252.078	-109.700	-0.201	-0.042
-251.063	-160.582	-0.288	-0.015
-250.049	158.051	-0.267	0.367
-249.034	333.161	0.090	0.173
-248.019	-29.770	-0.196	-0.111
-247.005	-69.979	-0.165	-0.062
-245.990	-200.000	-0.031	-0.223
-244.976	405.036	0.101	0.211
-243.961	-8.802	-0.270	0.180
-242.946	-157.479	0.078	0.005
-241.932	-200.000	0.042	-0.271
-240.917	-16.304	-0.072	-0.045
-239.903	-84.892	0.198	0.062
-238.888	800.000	-0.091	0.322
-237.873	41.000	-0.273	0.244
-236.859	-200.000	0.005	-0.237
-235.844	-73.125	-0.251	-0.091
-234.830	-102.382	0.064	-0.015
-233.815	800.000	0.041	-0.142
-232.800	-97.382	0.201	-0.052
-231.786	-200.000	0.017	-0.087
-230.771	-75.429	-0.183	0.065
-229.757	176.417	0.183	0.264
-228.742	800.000	-0.055	-0.193
-227.727	-132.520	-0.290	0.037
-226.713	-137.972	-0.412	0.046
-225.698	-150.947	-0.231	-0.017
-224.684	205.975	-0.141	-0.217
-223.669	343.138	-0.170	0.330
-222.655	259.304	0.259	0.443
-221.640	-200.000	0.010	0.090
-220.625	242.982	-0.317	0.527
-219.611	16.718	0.062	0.048
-218.596	-49.713	0.205	-0.097
-217.582	-95.651	-0.308	-0.082
-216.567	-34.559	0.145	-0.079
-215.552	-79.772	0.198	0.066
-214.538	-24.314	-0.113	-0.067
-213.523	-139.535	-0.064	0.007
-212.509	607.654	0.104	-0.256
-211.494	-32.104	-0.196	0.109
-210.479	800.000	-0.067	0.212
-209.465	66.591	0.115	-0.116
-208.450	-67.545	-0.137	-0.053
-207.436	58.109	0.238	0.231
-206.421	-133.574	-0.303	0.038
-205.406	471.840	-0.137	-0.304
-204.392	-165.759	-0.438	0.019
-203.377	800.000	0.037	-0.109
-202.363	-149.041	0.143	-0.011
-201.348	-104.877	-0.205	-0.047
-200.333	-100.278	0.226	0.056
-199.319	117.219	0.067	0.082
-198.304	-148.671	-0.230	-0.019
-197.290	-200.000	-0.021	-0.146
-196.275	-22.023	0.309	0.186
-195.260	-200.000	-0.005	0.068
-194.246	280.425	-0.032	-0.057
-193.231	-200.000	0.021	0.132
-192.217	374.209	0.134	-0.269
-191.202	174.575	0.121	-0.174
-190.187	-200.000	-0.008	-0.158
-189.173	-108.774	0.246	0.052
-188.158	1.853	0.298	0.213
-187.144	-27.165	0.166	-0.096
-186.129	800.000	-0.124	0.353
-185.114	206.736	-0.149	0.230
-184.100	101.117	-0.174	-0.200
-183.085	-121.079	0.141	0.023
-182.071	-165.531	-0.196	-0.008
-181.056	697.289	-0.196	0.510
-180.042	-167.187	0.118	-0.005
-179.027	-43.547	0.047	0.023
-178.012	-200.000	-0.016	0.162
-176.998	-48.902	-0.136	0.064
-175.983	-200.000	-0.079	-0.000
-174.969	-200.000	0.054	0.463
-173.954	-110.841	0.268	0.055
-172.939	48.002	0.105	0.097
-171.925	800.000	-0.037	0.106
-170.910	-124.427	0.141	-0.022
-169.896	22.329	-0.232	0.188
-168.881	655.270	0.031	0.079
-167.866	59.494	0.139	0.135
-166.852	-25.646	-0.209	-0.122
-165.837	8.671	0.361	0.269
-164.823	-64.246	0.214	0.086
-163.808	-23.573	0.304	0.180
-162.793	-140.406	0.197	-0.020
-161.779	-63.418	-0.140	0.057
-160.764	-29.515	0.171	0.096
-159.750	-68.703	0.125	-0.048
-158.735	-24.806	0.113	-0.067
-157.720	-169.770	-0.303	-0.011
-156.706	-200.000	0.023	-0.172
-155.691	38.695	-0.054	0.048
-154.677	-152.591	-0.041	-0.003
-153.662	225.566	0.114	-0.182
-152.647	193.847	0.174	0.261
-151.633	-80.265	-0.331	-0.110
-150.618	-200.000	0.010	0.088
-149.604	-200.000	0.006	0.210
-148.589	-27.350	0.123	0.071
-147.574	165.815	0.119	-0.166
-146.560	800.000	0.033	-0.117
-145.545	-43.579	0.193	-0.096
-144.531	-47.537	0.468	-0.225
-143.516	139.150	-0.030	-0.039
-142.502	-43.500	-0.221	-0.110
-141.487	-186.959	0.389	-0.005
-140.472	210.798	-0.104	-0.162
-139.458	-59.490	0.306	-0.130
-138.443	273.657	-0.051	-0.089
-137.429	-89.061	0.084	0.025
-136.414	-134.230	-0.369	0.045
-135.399	-141.208	0.326	0.033
-134.385	440.910	0.097	-0.210
-133.370	800.000	-0.022	-0.070
-132.356	87.691	-0.219	0.239
-131.341	800.000	0.081	0.239
-130.326	-105.345	-0.270	0.061
-129.312	-200.000	0.006	-0.450
-128.297	127.845	-0.164	0.205
-127.283	16.021	-0.165	-0.129
-126.268	511.371	0.069	0.159
-125.253	9.024	-0.184	0.137
-124.239	-3.794	0.163	0.112
-123.224	-68.314	-0.129	0.049
-122.210	-66.431	0.158	0.062
-121.195	97.349	-0.068	0.077
-120.180	-1.103	0.179	-0.125
-119.166	538.897	0.106	0.249
-118.151	-16.776	0.345	-0.215
-117.137	-200.000	0.007	-0.224
-116.122	328.127	0.119	0.226
-115.107	-23.790	-0.245	-0.145
-114.093	-130.405	0.389	-0.052
-113.078	-195.018	-0.396	0.003
-112.064	388.061	-0.046	-0.094
-111.049	60.638	-0.061	0.060
-110.034	785.979	0.045	-0.122
-109.020	-53.086	0.245	-0.111
-108.005	-73.819	-0.527	0.189
-106.991	26.607	-0.141	0.117
-105.976	36.976	0.098	-0.086
-104.962	110.188	0.050	0.060
-103.947	-32.417	0.230	0.127
-102.932	69.468	-0.056	0.056
-101.918	-200.000	0.020	0.233
-100.903	33.339	0.191	0.164
-99.889	26.785	0.101	-0.084
-98.874	-51.525	-0.209	0.096
-97.859	24.274	0.104	-0.084
-96.845	149.028	0.096	-0.128
-95.830	800.000	-0.032	-0.092
-94.816	-200.000	0.018	-0.122
-93.801	31.556	0.120	0.101
-92.786	-83.740	-0.293	0.092
-91.772	-113.609	-0.046	-0.009
-90.757	201.260	0.189	0.287
-89.743	-79.886	-0.252	-0.084
-88.728	-200.000	-0.013	0.131
-87.713	8.720	0.030	0.023
-86.699	-200.000	-0.017	0.303
-85.684	-47.270	-0.181	-0.087
-84.670	207.265	-0.148	-0.228
-83.655	-200.000	0.011	-0.151
-82.640	114.393	0.070	-0.084
-81.626	98.190	-0.260	0.295
-80.611	800.000	0.138	0.393
-79.597	-13.482	-0.124	-0.079
-78.582	800.000	-0.066	0.182
-77.567	75.151	0.078	0.081
-76.553	-120.051	-0.199	-0.034
-75.538	521.610	0.054	-0.126
-74.524	65.324	-0.148	-0.147
-73.509	-36.599	0.160	-0.085
-72.494	-200.000	0.045	-0.197
-71.480	59.473	-0.290	0.282
-70.465	-144.928	0.386	-0.035
-69.451	-71.499	0.067	0.025
-68.436	800.000	0.091	-0.261
-67.422	-68.216	0.262	0.100
-66.407	800.000	0.068	0.195
-65.392	158.902	0.114	0.156
-64.378	4.175	0.068	0.049
-63.363	-79.539	0.194	-0.065
-62.349	800.000	-0.069	0.205
-61.334	21.373	-0.986	-0.789
-60.319	110.519	0.498	0.590
-59.305	800.000	-0.294	-1.012
-58.290	32.596	0.777	0.661
-57.276	382.135	0.728	1.472
-56.261	-200.000	95.262	593.380
-55.246	659.272	1367.146	3463.736
-54.232	200.149	2540.725	3841.216
-53.217	120.524	2138.118	2614.750
-52.203	44.083	1602.577	1446.418
-51.188	35.564	1341.101	1159.236
-50.173	32.499	1298.721	1104.610
-49.159	54.797	1345.660	1278.058
-48.144	56.902	1362.819	1306.860
-47.130	35.774	1322.230	1143.991
-46.115	32.307	1304.435	1108.163
-45.100	32.062	1299.579	1102.554
-44.086	31.997	1297.181	1100.094
-43.071	31.999	1294.478	1097.773
-42.057	31.928	1292.592	1095.716
-41.042	31.956	1290.816	1094.330
-40.027	31.952	1289.425	1093.086
-39.013	32.037	1287.458	1091.869
-37.998	32.023	1285.383	1089.982
-36.984	31.850	1284.753	1088.398
-35.969	32.072	1281.936	1087.258
-34.954	32.043	1280.642	1085.947
-33.940	32.120	1279.288	1085.202
-32.925	32.118	1277.740	1083.837
-31.911	32.172	1276.098	1082.708
-30.896	32.197	1274.833	1081.735
-29.881	32.082	1273.609	1079.994
-28.867	32.159	1272.354	1079.331
-27.852	32.160	1270.872	1078.033
-26.838	32.232	1269.355	1077.120
-25.823	32.216	1267.828	1075.688
-24.809	32.057	1267.085	1074.108
-23.794	32.219	1265.380	1073.546
-22.779	32.115	1264.388	1072.065
-21.765	32.079	1263.200	1070.813
-20.750	32.205	1261.077	1069.686
-19.736	32.033	1260.625	1068.280
-18.721	32.048	1259.135	1067.061
-17.706	32.034	1258.280	1066.217
-16.692	32.040	1256.922	1065.055
-15.677	32.097	1255.838	1064.421
-14.663	32.118	1254.730	1063.555
-13.648	31.971	1253.127	1061.322
-12.633	32.091	1252.267	1061.230
-11.619	31.993	1251.714	1060.169
-10.604	31.920	1250.906	1059.026
-9.590	31.938	1249.828	1058.177
-8.575	32.034	1248.422	1057.486
-7.560	31.826	1248.266	1056.137
-6.546	32.010	1247.175	1056.210
-5.531	32.039	1245.931	1055.275
-4.517	31.904	1245.470	1054.085
-3.502	32.084	1244.175	1053.960
-2.487	31.970	1243.494	1052.700
-1.473	32.034	1239.134	1049.323
-0.458	30.598	1224.372	1028.844
0.556	26.018	1207.113	991.412
1.571	22.291	1212.547	975.163
2.586	21.328	1227.244	981.493
3.600	20.892	1216.246	970.184
4.615	15.903	1145.776	887.655
5.629	8.242	1071.359	792.032
6.644	4.778	1052.530	761.129
7.659	4.487	1049.792	757.660
8.673	4.504	1049.310	757.333
9.688	4.541	1048.007	756.504
10.702	4.740	1045.421	755.534
11.717	9.060	1051.815	781.153
12.731	16.225	1061.478	823.333
13.746	18.890	1064.276	838.450
14.761	18.093	1062.823	833.349
15.775	17.134	1060.421	826.724
16.790	16.023	1058.416	819.687
17.804	15.281	1057.090	814.984
18.819	14.989	1055.818	812.511
19.834	14.827	1054.831	810.893
20.848	14.466	1053.734	808.228
21.863	14.379	1053.120	807.263
22.877	14.219	1052.234	805.738
23.892	14.245	1051.364	805.129
24.907	14.183	1051.111	804.564
25.921	14.205	1050.327	803.997
26.936	14.169	1049.010	802.744
27.950	14.204	1047.314	801.547
28.965	14.346	1046.024	801.172
29.980	14.389	1044.390	800.053
30.994	14.365	1043.864	799.465
32.009	14.424	1042.089	798.317
33.023	14.356	1041.409	797.402
34.038	14.270	1040.558	796.269
35.053	14.339	1039.605	795.798
36.067	14.143	1039.089	794.396
37.082	14.332	1037.708	794.169
38.096	14.380	1036.957	793.754
39.111	14.365	1036.201	793.036
40.126	14.389	1034.847	792.041
41.140	14.174	1033.611	790.006
42.155	13.857	1032.665	787.707
43.169	14.012	1031.171	787.234
44.184	14.051	1030.515	786.847
45.199	14.081	1029.386	786.058
46.213	14.020	1028.439	784.978
47.228	14.075	1027.953	784.796
48.242	14.318	1026.571	784.819
49.257	14.269	1025.470	783.674
50.271	14.297	1024.711	783.158
51.286	14.421	1023.961	783.100
52.301	14.231	1023.165	781.528
53.315	14.210	1021.963	780.442
54.330	14.076	1021.183	779.148
55.344	14.173	1019.726	778.423
56.359	14.078	1019.398	777.659
57.374	14.042	1018.602	776.816
58.388	14.052	1017.708	776.109
59.403	13.956	1016.669	774.804
60.417	14.010	1015.762	774.293
61.432	13.956	1015.201	773.546
62.447	13.956	1013.949	772.524
63.461	13.882	1013.390	771.686
64.476	13.902	1012.500	771.033
65.490	13.987	1011.547	770.635
66.505	14.014	1011.097	770.347
67.520	14.077	1010.440	770.071
68.534	14.010	1009.493	768.973
69.549	14.050	1008.786	768.550
70.563	13.978	1008.057	767.591
71.578	13.992	1006.902	766.712
72.593	13.820	1006.811	765.778
73.607	13.772	1006.311	765.111
74.622	13.870	1005.160	764.621
75.636	13.867	1004.548	764.071
76.651	13.936	1003.674	763.658
77.666	13.934	1003.005	763.070
78.680	13.945	1002.640	762.776
79.695	13.815	1002.304	761.856
80.709	13.974	1001.429	761.854
81.724	14.080	1000.947	761.906
82.739	14.170	1000.128	761.627
83.753	14.255	999.628	761.565
84.768	14.399	998.564	761.347
85.782	14.418	997.553	760.596
86.797	14.369	996.642	759.608
87.812	14.340	995.401	758.464
88.826	14.249	994.996	757.676
89.841	14.308	993.944	757.073
90.855	14.344	992.950	756.416
91.870	14.480	992.042	756.273
92.884	14.464	991.437	755.673
93.899	14.545	990.163	755.003
94.914	14.571	989.505	754.549
95.928	14.496	988.964	753.732
96.943	14.348	988.419	752.583
97.957	14.370	986.940	751.488
98.972	14.479	986.552	751.617
99.987	14.384	985.756	750.516
101.001	14.353	984.973	749.714
102.016	14.302	984.121	748.769
103.030	14.498	983.005	748.734
104.045	14.463	982.083	747.809
105.060	14.292	981.565	746.583
106.074	14.097	980.900	745.137
107.089	14.164	978.991	743.922
108.103	14.091	978.410	743.085
109.118	14.088	977.119	742.026
110.133	13.986	976.644	741.147
111.147	14.224	975.471	741.248
112.162	14.115	974.883	740.252
113.176	14.157	974.787	740.300
114.191	14.129	974.153	739.630
115.206	14.163	972.883	738.750
116.220	14.038	972.393	737.760
117.235	14.133	971.061	737.103
118.249	14.172	970.313	736.643
119.264	14.021	969.844	735.555
120.279	14.003	968.853	734.659
121.293	14.112	968.365	734.704
122.308	14.127	967.013	733.679
123.322	13.940	966.356	732.293
124.337	14.011	965.419	731.829
125.352	14.035	964.270	731.000
126.366	13.968	963.399	729.981
127.381	14.060	962.669	729.764
128.395	14.115	961.409	728.986
129.410	14.097	960.728	728.328
130.424	14.150	959.730	727.741
131.439	14.177	959.394	727.536
132.454	14.164	958.347	726.623
133.468	14.262	957.716	726.506
134.483	14.292	956.339	725.528
135.497	14.113	955.914	724.364
136.512	14.158	955.238	723.984
137.527	14.234	954.522	723.707
138.541	14.108	953.968	722.676
139.556	14.293	953.135	722.784
140.570	14.333	952.613	722.495
141.585	14.328	952.039	721.975
142.600	14.485	950.963	721.777
143.614	14.532	949.805	721.035
144.629	14.616	949.079	720.784
145.643	14.580	947.973	719.725
146.658	14.406	947.283	718.389
147.673	14.375	945.952	717.181
148.687	14.343	945.342	716.518
149.702	14.266	944.714	715.648
150.716	14.365	943.684	715.229
151.731	14.337	942.958	714.495
152.746	14.168	942.634	713.462
153.760	14.317	941.953	713.521
154.775	14.329	941.547	713.204
155.789	14.392	940.774	712.822
156.804	14.492	939.622	712.314
157.819	14.406	939.385	711.706
158.833	14.431	938.573	711.133
159.848	14.608	937.967	711.365
160.862	14.554	936.626	710.056
161.877	14.522	935.876	709.286
162.892	14.446	935.084	708.302
163.906	14.355	934.109	707.117
164.921	14.388	933.156	706.472
165.935	14.518	931.988	706.073
166.950	14.433	931.738	705.464
167.964	14.313	931.053	704.374
168.979	14.334	929.697	703.376
169.994	14.325	928.819	702.608
171.008	14.513	928.154	702.838
172.023	14.601	927.640	702.758
173.037	14.727	926.764	702.560
174.052	14.545	926.285	701.370
175.067	14.440	925.767	700.473
176.081	14.369	925.218	699.699
177.096	14.481	924.200	699.338
178.110	14.533	923.411	698.896
179.125	14.456	923.169	698.327
180.140	14.497	922.683	698.070
181.154	14.530	922.464	697.983
182.169	14.714	921.834	698.212
183.183	14.702	920.953	697.435
184.198	14.694	920.112	696.702
185.213	14.683	919.387	696.044
186.227	14.714	919.039	695.849
187.242	14.809	918.379	695.683
188.256	14.815	917.741	695.165
189.271	14.779	916.869	694.291
190.286	14.527	916.520	692.921
191.300	14.481	915.037	691.548
192.315	14.584	914.447	691.468
193.329	14.548	914.194	691.064
194.344	14.621	913.417	690.718
195.359	14.515	913.354	690.171
196.373	14.762	912.632	690.585
197.388	14.772	912.213	690.248
198.402	14.986	911.729	690.704
199.417	14.969	910.981	690.007
200.432	14.995	910.633	689.789
201.446	15.121	910.336	690.022
202.461	15.058	909.760	689.266
203.475	15.150	908.802	688.856
204.490	15.192	907.878	688.270
205.504	14.991	907.253	686.907
206.519	15.009	906.284	686.187
207.534	15.029	905.586	685.682
208.548	14.923	905.058	684.787
209.563	14.923	904.754	684.494
210.577	15.032	904.008	684.315
211.592	15.091	903.280	683.945
212.607	15.130	902.783	683.669
213.621	15.040	902.171	682.775
214.636	15.116	901.371	682.419
215.650	15.118	900.782	681.922
216.665	15.189	899.668	681.309
217.680	15.262	899.046	681.075
218.694	15.237	898.561	680.545
219.709	15.195	897.948	679.848
220.723	15.248	897.394	679.585
221.738	15.147	896.674	678.570
222.753	15.126	896.071	677.969
223.767	15.224	895.402	677.797
224.782	15.379	895.068	678.112
225.796	15.444	894.444	677.841
226.811	15.320	893.634	676.666
227.826	15.265	892.822	675.773
228.840	15.321	891.930	675.263
229.855	15.223	891.347	674.367
230.869	15.184	890.831	673.761
231.884	15.244	890.151	673.427
232.899	15.211	889.388	672.657
233.913	15.239	888.464	672.012
234.928	15.209	887.977	671.462
235.942	15.123	887.565	670.748
236.957	15.152	887.045	670.414
237.972	15.233	886.324	670.130
238.986	15.255	885.486	669.526
240.001	15.161	885.267	668.926
241.015	15.338	884.265	668.817
242.030	15.263	883.852	668.144
243.045	15.311	883.487	668.001
244.059	15.352	882.532	667.383
245.074	15.408	882.069	667.196
246.088	15.472	881.354	666.852
247.103	15.560	880.863	666.770
248.117	15.585	880.549	666.575
249.132	15.853	880.079	667.221
250.147	15.833	879.247	666.450
251.161	15.790	878.723	665.826
252.176	15.933	877.859	665.675
253.190	15.895	876.825	664.685
254.205	15.959	876.394	664.551
255.220	15.875	876.091	663.930
256.234	15.880	875.763	663.642
257.249	15.840	875.026	662.868
258.263	15.838	874.098	662.099
259.278	15.980	873.272	661.972
260.293	16.024	872.503	661.504
261.307	16.116	872.315	661.662
262.322	16.035	871.531	660.693
263.336	16.097	870.627	660.191
264.351	16.179	869.941	659.935
265.366	16.161	869.602	659.549
266.380	16.039	869.208	658.714
267.395	15.940	868.401	657.659
268.409	16.097	867.366	657.429
269.424	16.103	867.043	657.148
270.439	16.031	865.593	655.714
271.453	16.080	865.084	655.457
272.468	16.123	864.796	655.351
273.482	15.957	864.473	654.400
274.497	15.993	863.883	654.036
275.512	15.986	863.215	653.448
276.526	16.046	862.723	653.248
277.541	16.153	861.981	653.044
278.555	16.158	861.426	652.586
279.570	16.315	861.041	652.840
280.585	16.365	860.149	652.299
281.599	16.170	859.519	651.012
282.614	16.314	858.501	650.738
283.628	16.165	858.425	650.050
284.643	16.161	857.967	649.629
285.657	16.245	857.234	649.342
286.672	16.259	856.353	648.671
287.687	16.301	855.634	648.229
288.701	16.208	855.529	647.736
289.716	16.293	854.786	647.442
290.730	16.209	854.194	646.615
291.745	16.577	853.668	647.569
292.760	16.342	853.114	646.189
293.774	16.398	852.423	645.824
294.789	16.347	851.913	645.184
295.803	16.292	851.411	644.539
296.818	16.313	850.536	643.899
297.833	16.399	849.788	643.605
298.847	16.493	848.875	643.214
299.862	16.432	848.769	642.843
300.876	16.609	848.169	643.003
301.891	16.518	847.695	642.243
302.906	16.633	847.244	642.283
303.920	16.726	846.889	642.308
304.935	16.701	845.741	641.285
305.949	16.645	845.576	640.891
306.964	16.616	844.704	640.064
307.979	16.732	844.289	640.132
308.993	16.672	843.633	639.353
310.008	16.783	842.961	639.204
311.022	16.709	842.908	638.829
312.037	16.535	842.360	637.701
313.052	16.462	841.477	636.703
314.066	16.530	840.722	636.328
315.081	16.617	840.670	636.562
316.095	16.485	840.030	635.523
317.110	16.449	839.495	634.928
318.125	16.538	838.906	634.761
319.139	16.547	838.043	634.086
320.154	16.693	837.969	634.520
321.168	16.672	837.015	633.661
322.183	16.649	836.529	633.153
323.197	16.658	836.318	632.970
324.212	16.701	835.745	632.643
325.227	16.693	834.889	631.908
326.241	16.668	834.400	631.390
327.256	16.712	833.618	630.904
328.270	16.680	833.264	630.460
329.285	16.640	832.881	629.965
330.300	16.724	832.164	629.681
331.314	16.710	831.660	629.194
332.329	16.822	831.329	629.300
333.343	16.839	830.990	629.053
334.358	16.824	830.760	628.767
335.373	16.834	830.381	628.463
336.387	16.918	829.991	628.424
337.402	17.093	829.590	628.713
338.416	17.077	829.136	628.254
339.431	17.058	828.726	627.818
340.446	17.043	828.585	627.597
341.460	17.121	828.054	627.430
342.475	17.263	827.494	627.473
343.489	17.220	826.986	626.872
344.504	17.268	827.147	627.117
345.519	17.458	825.992	626.886
346.533	17.124	825.739	625.408
347.548	17.077	825.028	624.643
348.562	17.298	824.306	624.851
349.577	17.233	823.487	623.938
350.592	17.085	823.387	623.264
351.606	17.150	822.695	622.922
352.621	17.145	821.547	621.982
353.635	17.201	821.115	621.804
354.650	17.224	820.706	621.523
355.665	17.154	819.730	620.473
356.679	17.118	819.792	620.335
357.694	17.293	818.748	620.126
358.708	17.374	818.409	620.111
359.723	17.290	817.507	619.067
360.738	17.337	817.038	618.829
361.752	17.224	816.755	618.147
362.767	17.280	816.402	618.029
363.781	17.423	815.763	618.010
364.796	17.576	815.228	618.106
365.810	17.629	814.847	617.955
366.825	17.538	814.820	617.547
367.840	17.533	814.641	617.342
368.854	17.619	813.690	616.878
369.869	17.572	813.135	616.230
370.883	17.485	812.680	615.519
371.898	17.613	812.647	615.901
372.913	17.742	811.821	615.685
373.927	17.732	811.015	614.983
374.942	17.670	811.387	614.989
375.956	17.648	810.854	614.452
376.971	17.650	810.377	614.043
377.986	17.879	809.632	614.247
379.000	17.843	809.254	613.776
380.015	17.839	809.040	613.546
381.029	17.902	808.226	613.101
382.044	17.904	807.616	612.589
383.059	17.819	806.778	611.595
384.073	17.837	806.517	611.407
385.088	17.625	805.934	610.153
386.102	17.751	805.238	610.021
387.117	17.691	804.597	609.268
388.132	17.722	803.943	608.831
389.146	17.870	803.428	608.915
390.161	17.695	803.442	608.245
391.175	17.923	803.053	608.710
392.190	17.876	802.259	607.889
393.205	17.737	801.927	607.088
394.219	17.839	801.271	606.899
395.234	17.736	801.099	606.349
396.248	17.718	800.574	605.836
397.263	17.679	800.011	605.218
398.278	17.754	799.628	605.140
399.292	17.831	799.262	605.084
400.307	17.791	798.809	604.545
401.321	17.679	798.645	603.971
402.336	17.672	798.285	603.619
403.350	17.842	797.582	603.636
404.365	17.938	797.344	603.742
405.380	17.985	796.574	603.272
406.394	18.153	795.623	603.091
407.409	18.163	795.476	602.959
408.423	18.211	795.485	603.084
409.438	18.195	795.149	602.720
410.453	18.341	794.768	602.891
411.467	18.237	794.418	602.208
412.482	18.269	794.132	602.048
413.496	18.281	793.611	601.643
414.511	18.403	793.102	601.631
415.526	18.315	792.752	601.005
416.540	18.219	792.248	600.232
417.555	18.222	791.695	599.771
418.569	18.445	791.450	600.315
419.584	18.454	790.604	599.651
420.599	18.499	790.599	599.750
421.613	156.289	1370.214	1794.135
422.628	135.205	1454.642	1794.211
