DTS Sentinel unit serial number:	SN413079Multiplexer serial number:	ORYXHardware model number:	OX4-SRSoftware version number:	ORYX F/W v4.00 Oryx Data Collector v3.7.2.0data status	okinstallation	princeton_trtdifferential loss correction	single-endedforward channel	channel 1reverse channel	N/Adate	2019/09/14time	08:50:35forward acquisition time	60.00reverse acquisition time	0.00gamma	496.2192k internal	0.2325k external	0.2325temperature offset calibration	1.0067default loss term (dB/km)	0.3790temperature slope calibration	1.0000multiplexer offset coefficient	1.0000multiplexer slope coefficient	1.0000fibre end	0.00T internal ref (°C)	29.39T ext. ref 1 (°C)	3.70T ext. ref 2 (°C)	27.25length (m)	temperature (°C)	Stokes	anti-Stokes-747.200	19.369	0.162	0.131
-746.185	-90.235	-0.131	0.038
-745.171	21.051	-0.069	-0.056
-744.156	-200.000	0.010	-0.110
-743.142	-23.200	0.250	-0.152
-742.127	713.171	-0.079	0.210
-741.112	257.514	0.141	-0.244
-740.098	56.051	-0.180	-0.177
-739.083	-200.000	0.012	0.280
-738.069	-89.685	-0.145	0.043
-737.054	47.634	-0.173	-0.163
-736.039	1.765	-0.033	-0.024
-735.025	-40.821	-0.135	-0.071
-734.010	-68.997	-0.129	-0.050
-732.996	-99.939	-0.530	0.133
-731.981	-60.678	-0.201	0.086
-730.966	-97.287	-0.251	-0.066
-729.952	-16.285	-0.157	-0.100
-728.937	188.418	-0.154	-0.232
-727.923	-78.524	0.103	-0.036
-726.908	-168.321	-0.114	0.004
-725.894	-60.420	0.154	0.066
-724.879	-116.556	-0.166	0.031
-723.864	446.152	-0.053	0.118
-722.850	800.000	0.061	-0.191
-721.835	-126.817	0.326	0.049
-720.821	161.787	-0.158	0.223
-719.806	47.755	-0.093	0.087
-718.791	-58.599	-0.102	0.045
-717.777	-121.780	-0.337	-0.056
-716.762	-200.000	-0.003	-0.113
-715.748	360.706	0.196	0.396
-714.733	0.934	0.099	-0.071
-713.718	355.561	0.032	-0.063
-712.704	-20.120	-0.234	-0.145
-711.689	-42.319	0.234	0.120
-710.675	-200.000	-0.032	0.434
-709.660	-92.908	-0.234	-0.066
-708.645	345.770	0.060	-0.119
-707.631	41.631	-0.252	-0.230
-706.616	185.661	0.234	-0.351
-705.602	-7.584	0.081	0.055
-704.587	127.181	0.076	-0.097
-703.572	-15.363	0.299	-0.192
-702.558	625.089	-0.084	-0.212
-701.543	-200.000	-0.011	0.176
-700.529	-55.849	0.253	0.114
-699.514	800.000	-0.108	0.411
-698.499	-113.478	-0.320	-0.063
-697.485	-69.368	-0.270	0.104
-696.470	62.898	0.203	0.205
-695.456	-200.000	0.012	-0.089
-694.441	-200.000	0.028	-0.288
-693.426	800.000	0.064	-0.217
-692.412	-97.118	-0.449	-0.118
-691.397	22.102	0.130	0.106
-690.383	-13.394	0.236	-0.154
-689.368	-99.734	0.277	0.070
-688.354	-58.491	-0.047	-0.020
-687.339	-200.000	0.013	-0.061
-686.324	-49.370	0.257	0.124
-685.310	-200.000	-0.009	-0.302
-684.295	-96.783	-0.062	-0.016
-683.281	800.000	-0.104	0.355
-682.266	63.913	-0.052	-0.053
-681.251	-20.079	-0.263	-0.163
-680.237	145.105	0.043	0.058
-679.222	800.000	0.037	0.147
-678.208	-114.646	0.212	-0.041
-677.193	2.215	-0.347	-0.252
-676.178	532.830	-0.053	-0.127
-675.164	-200.000	0.028	0.193
-674.149	-200.000	-0.042	-0.292
-673.135	125.128	0.131	0.167
-672.120	-191.970	-0.348	0.003
-671.105	-200.000	-0.042	0.348
-670.091	-200.000	0.012	0.232
-669.076	-128.553	0.078	-0.011
-668.062	-80.610	-0.198	-0.066
-667.047	297.160	-0.242	-0.447
-666.032	23.630	0.241	-0.199
-665.018	557.558	0.097	-0.235
-664.003	-200.000	0.006	-0.056
-662.989	-111.511	0.131	0.027
-661.974	-66.940	-0.272	-0.108
-660.959	-175.884	0.458	-0.012
-659.945	-200.000	0.024	-0.215
-658.930	-19.591	-0.057	-0.036
-657.916	-12.672	-0.173	0.113
-656.901	-14.693	0.134	0.087
-655.886	-143.304	0.502	-0.048
-654.872	-7.934	-0.301	-0.204
-653.857	-37.352	0.256	-0.138
-652.843	-155.270	-0.163	-0.011
-651.828	-200.000	0.021	-0.108
-650.814	-200.000	-0.022	0.148
-649.799	-10.660	-0.074	0.049
-648.784	-122.701	0.048	0.008
-647.770	6.888	-0.482	-0.361
-646.755	-75.447	0.116	0.042
-645.741	530.021	0.180	0.428
-644.726	308.586	0.175	0.328
-643.711	287.900	-0.056	-0.102
-642.697	-97.783	-0.103	0.027
-641.682	-200.000	-0.015	-0.173
-640.668	-200.000	0.025	-0.243
-639.653	369.038	-0.080	0.164
-638.638	444.348	-0.061	0.134
-637.624	-200.000	-0.010	-0.048
-636.609	48.478	-0.348	0.327
-635.595	-74.301	0.082	-0.030
-634.580	-200.000	0.012	-0.072
-633.565	-200.000	0.010	0.059
-632.551	699.137	-0.006	0.016
-631.536	800.000	0.045	-0.176
-630.522	800.000	-0.083	-0.264
-629.507	-187.055	-0.256	0.004
-628.492	-200.000	-0.057	-0.320
-627.478	-200.000	-0.001	-0.105
-626.463	-112.603	0.086	0.017
-625.449	85.867	-0.184	0.203
-624.434	54.017	0.197	0.190
-623.419	-25.096	0.272	0.162
-622.405	-19.150	0.302	0.188
-621.390	-41.036	0.082	0.042
-620.376	-200.000	-0.044	-0.282
-619.361	150.260	0.069	-0.094
-618.346	735.534	-0.077	0.206
-617.332	193.440	0.091	-0.139
-616.317	-95.441	0.272	-0.073
-615.303	58.235	-0.029	0.028
-614.288	82.275	-0.038	-0.041
-613.273	11.570	0.188	0.145
-612.259	800.000	-0.090	0.250
-611.244	-200.000	0.014	-0.199
-610.230	-54.480	-0.116	0.053
-609.215	-9.772	-0.081	0.054
-608.201	665.671	-0.044	-0.114
-607.186	252.446	0.057	-0.098
-606.171	-75.849	0.276	0.098
-605.157	133.819	0.099	-0.129
-604.142	800.000	0.095	-0.306
-603.128	45.175	0.246	0.227
-602.113	9.334	-0.102	-0.077
-601.098	679.530	-0.067	0.176
-600.084	800.000	-0.064	-0.246
-599.069	416.747	0.096	-0.205
-598.055	537.143	0.060	-0.142
-597.040	-200.000	-0.062	-0.401
-596.025	-200.000	-0.011	0.120
-595.011	-88.925	0.027	-0.008
-593.996	-149.787	0.156	-0.012
-592.982	-89.189	0.199	-0.059
-591.967	418.679	0.071	0.153
-590.952	-200.000	-0.014	0.084
-589.938	183.349	-0.075	0.110
-588.923	-110.992	0.342	0.070
-587.909	10.329	0.088	0.067
-586.894	-119.088	0.359	-0.063
-585.879	800.000	-0.043	0.121
-584.865	51.320	0.102	-0.097
-583.850	-200.000	0.000	-0.085
-582.836	142.713	-0.227	0.303
-581.821	57.526	-0.247	0.242
-580.806	800.000	-0.030	-0.106
-579.792	-89.138	0.161	0.048
-578.777	36.127	0.084	0.074
-577.763	-167.812	0.149	-0.006
-576.748	-200.000	-0.009	-0.171
-575.733	-107.678	-0.113	0.025
-574.719	-21.951	-0.160	0.098
-573.704	373.554	-0.041	0.084
-572.690	389.492	0.141	0.292
-571.675	77.653	0.069	0.074
-570.661	-123.904	-0.211	-0.033
-569.646	-126.482	0.512	0.076
-568.631	160.723	0.151	-0.211
-567.617	281.269	0.070	0.126
-566.602	-76.199	-0.186	-0.066
-565.588	-200.000	0.007	0.136
-564.573	-70.596	-0.190	-0.072
-563.558	736.925	-0.151	0.407
-562.544	60.292	0.187	0.185
-561.529	800.000	0.097	-0.354
-560.515	-200.000	0.018	-0.320
-559.500	11.424	-0.065	-0.050
-558.485	-200.000	-0.029	0.138
-557.471	99.483	0.303	-0.351
-556.456	425.989	0.064	-0.138
-555.442	4.637	0.196	-0.144
-554.427	-129.060	-0.275	0.039
-553.412	-106.307	-0.071	0.016
-552.398	-69.729	0.219	-0.084
-551.383	-200.000	-0.060	-0.269
-550.369	-125.875	-0.341	-0.052
-549.354	16.286	-0.014	0.011
-548.339	311.593	-0.156	-0.294
-547.325	-67.345	-0.048	0.019
-546.310	-41.202	-0.274	0.141
-545.296	800.000	-0.084	-0.245
-544.281	-79.513	-0.129	0.043
-543.266	300.041	-0.041	0.075
-542.252	23.583	0.158	0.131
-541.237	-34.308	-0.257	-0.141
-540.223	18.162	0.252	-0.201
-539.208	-51.165	0.166	-0.078
-538.193	151.076	-0.083	-0.114
-537.179	96.218	-0.323	-0.370
-536.164	-102.606	-0.207	-0.049
-535.150	487.514	-0.086	0.196
-534.135	-200.000	0.021	0.117
-533.121	-49.263	-0.160	-0.077
-532.106	8.949	-0.034	-0.026
-531.091	-97.826	0.229	-0.059
-530.077	92.138	-0.087	-0.098
-529.062	15.506	-0.202	0.158
-528.048	-200.000	-0.021	0.117
-527.033	-164.440	0.090	-0.004
-526.018	-115.284	0.178	-0.034
-525.004	155.868	-0.077	0.106
-523.989	-200.000	0.027	-0.127
-522.975	-141.818	0.097	0.010
-521.960	800.000	0.054	-0.180
-520.945	111.036	0.221	-0.266
-519.931	-10.499	0.153	-0.101
-518.916	-77.759	-0.297	0.103
-517.902	-64.102	-0.167	-0.068
-516.887	-200.000	0.026	-0.307
-515.872	17.917	-0.300	-0.239
-514.858	80.333	0.306	0.329
-513.843	677.582	-0.143	0.373
-512.829	7.210	-0.159	0.118
-511.814	-200.000	-0.013	0.333
-510.799	-30.709	-0.069	0.039
-509.785	-200.000	-0.031	-0.660
-508.770	-200.000	-0.058	-0.442
-507.756	-11.709	-0.045	0.030
-506.741	433.167	0.176	0.381
-505.726	576.720	-0.084	0.206
-504.712	-40.500	-0.106	0.055
-503.697	800.000	-0.009	0.039
-502.683	-200.000	-0.028	-0.140
-501.668	-133.788	0.174	-0.022
-500.653	27.435	-0.212	-0.178
-499.639	30.426	-0.259	-0.221
-498.624	800.000	-0.023	0.101
-497.610	-123.327	0.330	0.053
-496.595	-141.141	0.283	-0.029
-495.581	26.599	0.156	-0.130
-494.566	-200.000	-0.259	-0.001
-493.551	-28.890	-0.486	0.279
-492.537	800.000	0.033	-0.092
-491.522	-200.000	0.009	-0.122
-490.508	68.277	-0.055	-0.056
-489.493	-200.000	0.009	0.105
-488.478	-27.285	-0.425	0.247
-487.464	-22.665	0.123	0.074
-486.449	-123.472	0.240	0.038
-485.435	-104.674	0.085	0.020
-484.420	35.513	0.151	0.133
-483.405	191.567	-0.134	0.201
-482.391	151.635	0.207	0.282
-481.376	-200.000	-0.048	-0.216
-480.362	267.554	-0.190	0.331
-479.347	-94.710	-0.102	-0.028
-478.332	-37.808	0.134	0.071
-477.318	-130.980	-0.563	-0.075
-476.303	-120.791	0.288	-0.048
-475.289	177.058	0.125	0.182
-474.274	800.000	-0.089	-0.287
-473.259	-106.071	0.126	0.028
-472.245	191.094	-0.136	0.204
-471.230	-48.111	0.145	-0.070
-470.216	285.327	0.032	-0.058
-469.201	-112.094	0.086	0.017
-468.186	-13.445	0.117	0.076
-467.172	47.064	-0.239	0.222
-466.157	285.450	-0.209	-0.375
-465.143	-63.392	-0.128	-0.053
-464.128	-111.122	0.311	0.064
-463.113	-50.258	-0.273	0.129
-462.099	-75.517	-0.356	-0.126
-461.084	-27.449	0.144	-0.083
-460.070	151.138	0.178	-0.241
-459.055	-200.000	-0.004	-0.179
-458.040	800.000	0.061	0.205
-457.026	-200.000	0.376	0.000
-456.011	-68.431	-0.098	-0.038
-454.997	-200.000	-0.030	0.494
-453.982	2.903	-0.113	-0.082
-452.968	-200.000	0.033	0.287
-451.953	26.715	-0.287	-0.240
-450.938	-84.579	0.089	-0.028
-449.924	127.171	0.025	-0.031
-448.909	-49.045	0.252	-0.120
-447.895	-200.000	0.024	0.278
-446.880	-101.313	-0.138	-0.034
-445.865	352.876	0.057	0.112
-444.851	33.122	0.040	0.034
-443.836	301.478	-0.032	-0.058
-442.822	-41.357	-0.295	-0.152
-441.807	-81.941	-0.121	-0.040
-440.792	-19.594	0.081	0.050
-439.778	146.437	0.075	0.100
-438.763	-116.599	0.082	0.015
-437.749	17.255	0.134	-0.106
-436.734	800.000	0.009	0.025
-435.719	-200.000	0.005	-0.168
-434.705	800.000	0.113	-0.378
-433.690	171.442	0.223	-0.319
-432.676	-200.000	-0.103	-0.491
-431.661	39.533	-0.252	-0.225
-430.646	-195.944	-0.039	0.000
-429.632	523.696	0.094	0.221
-428.617	157.248	-0.150	0.207
-427.603	761.568	0.043	-0.117
-426.588	99.158	0.172	0.198
-425.573	800.000	-0.098	-0.275
-424.559	800.000	0.068	-0.228
-423.544	77.579	0.169	0.180
-422.530	800.000	-0.079	0.292
-421.515	-69.557	-0.119	0.046
-420.500	-91.555	0.186	-0.053
-419.486	-121.885	-0.163	-0.027
-418.471	-1.087	-0.298	0.210
-417.457	541.218	0.137	-0.326
-416.442	220.407	-0.183	0.293
-415.428	-136.061	-0.254	0.030
-414.413	-200.000	-0.072	-0.340
-413.398	231.279	0.124	-0.203
-412.384	795.025	-0.029	0.081
-411.369	-47.195	0.063	0.031
-410.355	37.647	0.228	0.202
-409.340	-138.806	0.141	-0.015
-408.325	-7.779	0.206	0.139
-407.311	-0.516	-0.422	0.298
-406.296	54.162	-0.057	0.054
-405.282	-110.088	0.385	0.080
-404.267	51.565	0.124	-0.118
-403.252	44.895	-0.209	-0.191
-402.238	-190.137	-0.216	-0.002
-401.223	617.218	-0.116	0.290
-400.209	115.510	0.089	0.108
-399.194	60.429	-0.102	0.100
-398.179	-200.000	0.046	-0.216
-397.165	67.974	0.146	-0.149
-396.150	-18.912	0.169	-0.105
-395.136	96.337	0.137	0.155
-394.121	-54.157	-0.240	-0.108
-393.106	25.446	0.259	0.214
-392.092	-146.637	-0.184	-0.016
-391.077	-62.960	0.202	0.083
-390.063	376.601	0.028	-0.058
-389.048	-200.000	-0.013	-0.346
-388.033	-200.000	0.002	-0.213
-387.019	-200.000	-0.022	-0.097
-386.004	50.634	-0.257	0.242
-384.990	-111.470	0.224	-0.045
-383.975	16.633	-0.104	-0.082
-382.960	-128.445	0.289	0.041
-381.946	263.589	0.105	-0.182
-380.931	-200.000	0.024	0.169
-379.917	-200.000	0.037	-0.242
-378.902	-200.000	-0.010	0.059
-377.888	-200.000	0.017	0.106
-376.873	96.557	-0.095	-0.108
-375.858	132.692	0.139	0.179
-374.844	-200.000	0.006	0.059
-373.829	-200.000	-0.047	-0.314
-372.815	-200.000	0.020	0.110
-371.800	800.000	-0.023	0.093
-370.785	-89.152	0.212	-0.062
-369.771	540.240	0.096	0.227
-368.756	-113.124	-0.138	-0.027
-367.742	418.287	-0.072	-0.154
-366.727	800.000	-0.063	-0.224
-365.712	22.990	0.259	-0.211
-364.698	-39.699	0.055	-0.029
-363.683	321.809	0.043	0.081
-362.669	-152.807	-0.085	0.006
-361.654	-41.107	0.358	0.184
-360.639	-26.128	-0.220	0.128
-359.625	-56.964	-0.248	0.109
-358.610	-61.771	0.059	0.025
-357.596	99.691	-0.107	-0.123
-356.581	-98.639	-0.178	-0.045
-355.566	182.587	0.081	0.119
-354.552	-200.000	-0.011	-0.152
-353.537	-99.799	-0.159	-0.039
-352.523	-93.953	0.240	0.065
-351.508	30.466	0.127	0.108
-350.493	-79.692	0.543	0.182
-349.479	-1.949	0.182	-0.127
-348.464	64.130	-0.171	-0.171
-347.450	-200.000	-0.025	0.286
-346.435	-107.222	0.255	-0.056
-345.420	60.701	-0.318	0.313
-344.406	615.833	-0.178	-0.443
-343.391	-200.000	-0.014	-0.197
-342.377	-42.084	-0.121	-0.062
-341.362	134.833	0.100	-0.130
-340.348	-76.469	0.262	-0.092
-339.333	165.335	0.144	-0.202
-338.318	-200.000	0.016	0.518
-337.304	-200.000	0.016	-0.229
-336.289	-169.366	-0.245	0.009
-335.275	6.997	0.191	-0.141
-334.260	7.247	0.186	0.138
-333.245	-48.411	-0.212	0.101
-332.231	800.000	0.026	0.090
-331.216	-104.423	0.107	-0.025
-330.202	-54.940	-0.327	-0.146
-329.187	-89.663	-0.057	0.016
-328.172	-169.644	-0.425	0.015
-327.158	57.868	-0.130	0.126
-326.143	219.244	0.164	0.261
-325.129	-138.839	0.220	-0.024
-324.114	-200.000	-0.056	-0.249
-323.099	446.022	-0.039	-0.086
-322.085	-4.754	-0.230	0.157
-321.070	-200.000	-0.048	0.280
-320.056	-200.000	0.020	0.264
-319.041	-0.976	0.081	0.057
-318.026	102.284	-0.102	-0.118
-317.012	-151.540	0.174	-0.013
-315.997	-200.000	-0.063	-0.292
-314.983	265.487	-0.123	-0.213
-313.968	-200.000	-0.052	-0.335
-312.953	-142.007	0.284	0.028
-311.939	19.577	0.264	0.211
-310.924	-30.604	-0.175	-0.099
-309.910	800.000	-0.019	0.061
-308.895	339.503	-0.159	0.307
-307.880	25.627	0.058	0.048
-306.866	-200.000	0.034	0.204
-305.851	-200.000	0.015	-0.211
-304.837	45.554	0.169	-0.155
-303.822	800.000	0.076	-0.275
-302.807	-200.000	0.021	0.149
-301.793	375.815	0.161	0.325
-300.778	258.907	0.106	0.181
-299.764	-171.735	0.350	-0.011
-298.749	249.325	-0.148	0.248
-297.735	405.809	0.025	0.053
-296.720	-200.000	0.020	-0.124
-295.705	33.578	-0.087	0.075
-294.691	583.106	0.149	0.361
-293.676	-165.189	0.064	-0.003
-292.662	800.000	0.080	0.251
-291.647	-131.140	0.221	-0.029
-290.632	662.471	0.114	0.292
-289.618	-110.242	-0.369	0.076
-288.603	-94.446	0.277	-0.075
-287.589	-92.101	-0.364	-0.102
-286.574	-144.696	0.278	-0.025
-285.559	-173.061	0.084	0.003
-284.545	-125.360	-0.247	0.037
-283.530	-37.722	0.174	-0.092
-282.516	-151.541	0.224	0.016
-281.501	442.893	0.024	-0.051
-280.486	800.000	-0.112	0.368
-279.472	-89.450	0.570	-0.166
-278.457	100.472	0.036	-0.041
-277.443	-51.391	0.053	0.025
-276.428	-200.000	0.001	0.061
-275.413	-200.000	0.020	0.247
-274.399	390.313	0.024	0.049
-273.384	154.141	-0.189	-0.257
-272.370	128.240	0.039	0.049
-271.355	131.874	0.078	-0.100
-270.340	-200.000	0.008	-0.386
-269.326	-60.761	-0.294	0.123
-268.311	-172.961	0.271	0.008
-267.297	-5.029	0.238	-0.162
-266.282	-57.395	-0.262	0.114
-265.267	113.824	-0.056	-0.067
-264.253	302.791	-0.086	-0.158
-263.238	-29.289	-0.011	0.006
-262.224	-41.474	0.131	0.067
-261.209	-79.373	-0.485	0.163
-260.195	108.029	-0.185	-0.219
-259.180	-31.744	-0.091	0.051
-258.165	-87.197	-0.147	-0.044
-257.151	458.109	-0.044	0.096
-256.136	800.000	-0.051	-0.156
-255.122	-200.000	0.005	0.082
-254.107	-108.458	0.087	-0.019
-253.092	-200.000	0.000	-0.180
-252.078	30.966	0.108	-0.092
-251.063	-52.133	0.307	-0.141
-250.049	26.634	0.141	0.117
-249.034	-200.000	0.027	-0.160
-248.019	-40.012	0.059	0.030
-247.005	-23.440	-0.209	-0.124
-245.990	800.000	-0.050	0.165
-244.976	-175.916	-0.367	0.010
-243.961	-200.000	-0.019	-0.155
-242.946	-48.856	-0.124	0.059
-241.932	91.426	0.144	-0.160
-240.917	552.229	-0.043	-0.102
-239.903	345.311	0.052	-0.101
-238.888	670.310	-0.089	-0.227
-237.873	491.571	-0.107	-0.242
-236.859	720.403	0.072	-0.190
-235.844	-200.000	0.002	-0.071
-234.830	-46.445	0.135	-0.066
-233.815	80.919	0.146	-0.156
-232.800	-58.446	0.061	0.026
-231.786	104.823	-0.203	0.237
-230.771	183.521	-0.202	0.296
-229.757	-200.000	0.028	-0.203
-228.742	501.936	0.126	-0.288
-227.727	-109.622	-0.305	0.064
-226.713	92.748	0.048	0.053
-225.698	800.000	-0.093	-0.301
-224.684	5.858	-0.175	0.128
-223.669	-95.336	0.281	0.075
-222.655	-200.000	-0.003	-0.042
-221.640	-60.326	0.471	-0.198
-220.625	-200.000	0.003	-0.038
-219.611	303.115	-0.105	-0.192
-218.596	35.638	0.284	0.246
-217.582	-200.000	0.033	0.180
-216.567	800.000	-0.026	0.112
-215.552	-111.817	0.103	-0.020
-214.538	444.716	0.097	-0.210
-213.523	-45.910	0.219	0.107
-212.509	800.000	-0.068	-0.216
-211.494	-20.413	0.175	0.107
-210.479	-59.494	-0.179	0.076
-209.465	800.000	0.039	0.111
-208.450	497.553	-0.087	0.197
-207.436	-53.610	-0.131	-0.059
-206.421	225.502	-0.224	0.358
-205.406	366.935	-0.025	0.049
-204.392	59.388	-0.108	-0.105
-203.377	-92.098	-0.178	-0.050
-202.363	8.045	-0.108	0.080
-201.348	70.883	-0.136	-0.140
-200.333	-48.103	-0.148	-0.071
-199.319	-137.703	0.110	-0.012
-198.304	689.491	0.058	0.151
-197.290	385.413	0.180	0.366
-196.275	-169.851	-0.122	0.004
-195.260	339.612	-0.115	0.222
-194.246	-182.026	-0.161	0.003
-193.231	143.534	-0.204	0.269
-192.217	800.000	0.072	-0.207
-191.202	800.000	0.010	0.036
-190.187	67.537	0.181	-0.182
-189.173	82.995	0.074	0.079
-188.158	707.706	-0.141	0.367
-187.144	151.262	-0.085	0.115
-186.129	-200.000	-0.036	0.275
-185.114	354.065	0.118	0.232
-184.100	510.538	0.046	-0.105
-183.085	-140.741	-0.355	0.036
-182.071	-43.050	-0.184	0.092
-181.056	60.733	-0.131	0.128
-180.042	-55.520	0.252	-0.112
-179.027	-200.000	0.026	0.115
-178.012	139.865	0.103	0.134
-176.998	-108.858	-0.167	0.035
-175.983	88.673	-0.161	-0.177
-174.969	-200.000	0.020	-0.261
-173.954	-148.534	0.148	0.012
-172.939	800.000	0.037	-0.141
-171.925	-76.681	-0.302	0.104
-170.910	-100.900	-0.214	0.052
-169.896	172.662	-0.090	0.128
-168.881	800.000	0.067	-0.221
-167.866	-200.000	-0.002	-0.121
-166.852	10.097	-0.158	-0.118
-165.837	800.000	0.031	0.126
-164.823	397.379	-0.043	0.089
-163.808	331.572	-0.028	0.053
-162.793	93.222	-0.082	0.092
-161.779	54.754	0.149	0.141
-160.764	470.046	0.087	0.193
-159.750	800.000	0.050	0.177
-158.735	-15.900	-0.027	-0.017
-157.720	-123.442	0.395	0.062
-156.706	309.358	0.033	-0.061
-155.691	800.000	-0.122	0.438
-154.677	107.249	-0.113	-0.133
-153.662	-187.812	-0.256	0.003
-152.647	800.000	0.048	-0.146
-151.633	-200.000	-0.018	0.261
-150.618	-43.118	-0.201	0.101
-149.604	-161.752	0.307	-0.015
-148.589	-200.000	-0.018	0.324
-147.574	-130.937	0.279	0.037
-146.560	-41.264	-0.103	-0.052
-145.545	-117.597	0.119	0.021
-144.531	167.460	0.291	0.407
-143.516	-118.575	-0.281	0.049
-142.502	800.000	0.037	0.129
-141.487	-114.588	0.266	-0.050
-140.472	62.002	0.150	-0.148
-139.458	800.000	0.028	-0.091
-138.443	-183.704	-0.122	0.002
-137.429	-112.101	0.112	-0.022
-136.414	541.345	-0.198	-0.464
-135.399	-21.925	0.094	-0.056
-134.385	422.941	-0.077	-0.163
-133.370	-20.933	-0.323	-0.195
-132.356	1.504	0.283	0.200
-131.341	380.426	-0.176	0.355
-130.326	321.991	-0.083	-0.155
-129.312	67.512	-0.052	0.053
-128.297	197.241	-0.101	0.152
-127.283	-63.456	-0.132	0.053
-126.268	800.000	0.071	0.195
-125.253	446.927	-0.021	0.046
-124.239	-200.000	-0.017	-0.088
-123.224	-107.547	-0.270	0.058
-122.210	-200.000	0.052	0.271
-121.195	316.605	0.132	0.245
-120.180	4.568	0.088	-0.063
-119.166	-90.580	0.137	-0.039
-118.151	108.803	0.198	-0.233
-117.137	-200.000	-0.025	-0.203
-116.122	-90.681	-0.542	0.154
-115.107	53.324	-0.278	0.263
-114.093	-175.402	0.021	0.001
-113.078	2.608	-0.034	0.024
-112.064	800.000	0.031	0.120
-111.049	-103.278	-0.211	0.049
-110.034	-200.000	-0.017	-0.166
-109.020	-191.385	0.309	-0.003
-108.005	-73.627	0.044	0.016
-106.991	-183.865	0.248	-0.004
-105.976	81.762	0.143	-0.153
-104.962	104.565	0.148	0.171
-103.947	391.389	0.061	0.124
-102.932	127.815	0.215	-0.269
-101.918	182.262	0.167	0.242
-100.903	-27.472	-0.242	0.139
-99.889	-200.000	0.001	-0.152
-98.874	800.000	-0.039	-0.130
-97.859	-16.963	-0.080	-0.050
-96.845	435.663	0.064	-0.136
-95.830	800.000	-0.093	-0.259
-94.816	-128.086	0.132	-0.019
-93.801	-45.499	0.189	0.092
-92.786	-200.000	0.006	-0.189
-91.772	-96.716	0.099	-0.026
-90.757	518.064	0.058	0.133
-89.743	-72.912	0.269	-0.097
-88.728	74.283	0.279	-0.288
-87.713	-59.804	-0.437	0.184
-86.699	246.158	0.019	-0.031
-85.684	-38.964	0.208	0.108
-84.670	-98.210	0.391	-0.099
-83.655	253.570	0.125	-0.210
-82.640	-200.000	0.015	0.100
-81.626	47.517	0.139	-0.127
-80.611	137.785	0.056	-0.072
-79.597	-87.164	-0.148	0.044
-78.582	-12.798	0.127	-0.081
-77.567	-119.695	-0.338	0.057
-76.553	254.904	0.101	-0.171
-75.538	149.489	0.090	-0.120
-74.524	800.000	0.072	0.270
-73.509	-200.000	0.033	-0.179
-72.494	-4.279	0.194	-0.132
-71.480	800.000	0.082	0.268
-70.465	-200.000	0.015	-0.216
-69.451	-54.833	0.093	-0.041
-68.436	-108.192	-0.381	0.081
-67.422	-17.853	0.079	-0.048
-66.407	-109.277	-0.222	0.046
-65.392	103.810	0.169	0.195
-64.378	557.762	0.083	0.196
-63.363	214.717	-0.144	0.224
-62.349	-84.967	0.114	0.035
-61.334	110.794	-0.870	-1.028
-60.319	165.831	0.327	0.455
-59.305	-200.000	-0.149	-0.923
-58.290	89.482	0.945	1.035
-57.276	800.000	0.409	1.201
-56.261	-200.000	103.873	586.031
-55.246	515.940	1469.704	3372.395
-54.232	178.778	2676.561	3841.641
-53.217	113.658	2174.043	2593.649
-52.203	41.350	1609.258	1429.408
-51.188	32.824	1341.104	1139.939
-50.173	29.746	1299.726	1086.673
-49.159	54.873	1352.193	1281.647
-48.144	54.845	1367.835	1296.252
-47.130	33.129	1323.526	1126.640
-46.115	29.634	1305.405	1090.584
-45.100	29.361	1301.265	1085.474
-44.086	29.293	1298.279	1082.541
-43.071	29.338	1296.103	1080.946
-42.057	29.245	1294.005	1078.613
-41.042	29.354	1291.918	1077.467
-40.027	29.302	1290.921	1076.290
-39.013	29.230	1288.804	1074.058
-37.998	29.242	1287.013	1072.593
-36.984	29.460	1285.087	1072.214
-35.969	29.422	1283.461	1070.595
-34.954	29.519	1281.610	1069.570
-33.940	29.417	1280.364	1067.895
-32.925	29.426	1278.968	1066.742
-31.911	29.480	1277.664	1065.925
-30.896	29.483	1276.132	1064.622
-29.881	29.557	1274.699	1063.809
-28.867	29.484	1273.664	1062.481
-27.852	29.477	1272.252	1061.221
-26.838	29.534	1270.655	1060.178
-25.823	29.554	1269.195	1059.030
-24.809	29.468	1268.146	1057.622
-23.794	29.454	1267.188	1056.700
-22.779	29.461	1265.557	1055.335
-21.765	29.516	1264.175	1054.456
-20.750	29.541	1263.019	1053.597
-19.736	29.470	1261.237	1051.660
-18.721	29.356	1260.654	1050.487
-17.706	29.350	1259.393	1049.357
-16.692	29.413	1257.853	1048.390
-15.677	29.293	1257.737	1047.573
-14.663	29.334	1256.144	1046.437
-13.648	29.266	1255.035	1045.083
-12.633	29.300	1253.994	1044.368
-11.619	29.249	1253.302	1043.462
-10.604	29.380	1251.972	1043.052
-9.590	29.261	1251.442	1041.899
-8.575	29.352	1249.856	1041.048
-7.560	29.316	1249.449	1040.469
-6.546	29.186	1248.815	1039.163
-5.531	29.261	1247.763	1038.671
-4.517	29.388	1247.031	1038.733
-3.502	29.403	1246.099	1038.001
-2.487	29.357	1245.157	1036.920
-1.473	29.432	1240.576	1033.485
-0.458	28.620	1227.527	1018.068
0.556	26.181	1211.481	986.252
1.571	23.063	1217.404	973.842
2.586	22.142	1232.480	980.675
3.600	21.195	1219.620	965.126
4.615	15.450	1146.866	877.526
5.629	7.281	1073.587	781.255
6.644	3.874	1054.412	750.720
7.659	3.556	1052.241	747.563
8.673	3.641	1051.248	747.203
9.688	3.720	1049.659	746.391
10.702	3.863	1047.903	745.768
11.717	8.741	1054.173	773.780
12.731	16.579	1065.411	820.097
13.746	19.745	1069.063	838.213
14.761	19.571	1068.135	836.569
15.775	18.635	1066.319	830.541
16.790	17.500	1064.305	823.414
17.804	16.866	1062.584	818.949
18.819	16.603	1061.594	816.842
19.834	16.477	1060.778	815.535
20.848	16.185	1060.273	813.668
21.863	16.010	1059.556	812.201
22.877	15.918	1058.574	810.934
23.892	15.972	1057.544	810.332
24.907	15.834	1057.286	809.400
25.921	15.710	1056.257	807.943
26.936	15.815	1054.974	807.392
27.950	15.980	1053.266	806.807
28.965	16.105	1052.080	806.427
29.980	16.039	1050.608	804.908
30.994	16.196	1049.525	804.756
32.009	16.163	1048.695	803.892
33.023	16.110	1047.450	802.615
34.038	16.135	1045.843	801.431
35.053	15.982	1045.092	800.057
36.067	15.961	1044.662	799.558
37.082	15.977	1043.906	798.983
38.096	16.146	1043.249	799.214
39.111	16.096	1042.264	798.150
40.126	16.018	1041.097	796.817
41.140	15.772	1039.917	794.683
42.155	15.680	1038.358	792.987
43.169	15.718	1037.061	792.104
44.184	15.717	1036.257	791.415
45.199	15.707	1035.263	790.541
46.213	15.783	1034.503	790.245
47.228	15.868	1034.091	790.259
48.242	16.073	1032.086	789.621
49.257	15.990	1031.332	788.582
50.271	16.026	1030.672	788.180
51.286	16.103	1029.800	787.799
52.301	15.941	1028.860	786.255
53.315	15.958	1028.067	785.660
54.330	15.939	1026.417	784.243
55.344	15.884	1025.989	783.588
56.359	15.976	1024.802	783.042
57.374	15.751	1024.404	781.622
58.388	15.672	1023.469	780.474
59.403	15.637	1022.730	779.679
60.417	15.729	1021.867	779.379
61.432	15.668	1020.746	778.171
62.447	15.704	1019.999	777.700
63.461	15.610	1018.913	776.368
64.476	15.570	1018.293	775.642
65.490	15.620	1017.527	775.221
66.505	15.585	1016.794	774.432
67.520	15.600	1016.282	774.042
68.534	15.627	1015.329	773.374
69.549	15.559	1014.859	772.635
70.563	15.609	1013.526	771.778
71.578	15.477	1012.510	770.331
72.593	15.398	1012.314	769.751
73.607	15.341	1012.052	769.222
74.622	15.463	1010.875	768.818
75.636	15.345	1010.867	768.205
76.651	15.503	1009.679	767.957
77.666	15.571	1009.041	767.716
78.680	15.476	1008.197	766.569
79.695	15.529	1007.826	766.461
80.709	15.554	1007.680	766.397
81.724	15.583	1006.806	765.797
82.739	15.870	1005.526	766.062
83.753	15.895	1005.028	765.727
84.768	16.121	1004.130	766.002
85.782	16.113	1003.402	765.344
86.797	16.025	1002.449	764.153
87.812	15.940	1002.113	763.443
88.826	15.914	1000.665	762.153
89.841	15.994	999.978	761.924
90.855	16.185	998.988	761.966
91.870	16.160	998.389	761.329
92.884	16.148	997.205	760.306
93.899	16.216	996.676	760.141
94.914	16.251	995.770	759.540
95.928	16.121	995.219	758.465
96.943	16.057	994.201	757.337
97.957	16.131	993.312	756.927
98.972	16.105	992.204	755.898
99.987	16.096	991.553	755.292
101.001	16.116	990.656	754.636
102.016	16.199	989.562	754.104
103.030	16.184	988.944	753.502
104.045	16.104	988.342	752.617
105.060	16.023	987.173	751.298
106.074	15.835	986.375	749.790
107.089	15.747	985.243	748.470
108.103	15.689	984.341	747.458
109.118	15.635	983.631	746.617
110.133	15.803	982.181	746.195
111.147	15.762	981.824	745.673
112.162	15.671	981.050	744.617
113.176	15.830	980.258	744.654
114.191	15.939	979.738	744.674
115.206	15.925	978.502	743.610
116.220	15.903	977.796	742.908
117.235	15.703	977.053	741.395
118.249	15.709	976.201	740.712
119.264	15.712	975.445	740.085
120.279	15.628	974.990	739.305
121.293	15.758	973.454	738.645
122.308	15.428	973.165	736.913
123.322	15.596	971.896	736.623
124.337	15.581	970.804	735.666
125.352	15.640	969.773	735.076
126.366	15.534	969.071	734.015
127.381	15.629	967.848	733.440
128.395	15.630	967.257	732.931
129.410	15.706	966.222	732.412
130.424	15.733	965.666	732.044
131.439	15.829	965.071	731.945
132.454	15.835	964.226	731.267
133.468	15.863	963.392	730.690
134.483	15.978	962.200	730.220
135.497	15.988	961.390	729.582
136.512	15.723	961.095	728.148
137.527	15.840	960.015	727.773
138.541	15.881	959.333	727.369
139.556	15.794	959.275	726.885
140.570	16.087	957.794	726.961
141.585	16.074	957.175	726.372
142.600	16.133	956.502	726.048
143.614	16.323	955.133	725.763
144.629	16.225	955.338	725.433
145.643	16.196	953.880	724.136
146.658	15.983	953.078	722.550
147.673	15.983	951.871	721.570
148.687	16.028	951.221	721.209
149.702	15.901	950.578	720.112
150.716	15.936	949.457	719.348
151.731	15.927	948.687	718.663
152.746	15.949	948.131	718.275
153.760	16.021	947.424	717.980
154.775	16.023	947.246	717.790
155.789	16.235	946.089	717.754
156.804	16.184	945.325	716.892
157.819	16.112	945.086	716.344
158.833	16.280	944.056	716.210
159.848	16.349	943.547	716.052
160.862	16.181	942.356	714.374
161.877	16.077	941.514	713.236
162.892	16.052	940.067	711.970
163.906	15.981	939.071	710.852
164.921	16.040	938.160	710.351
165.935	16.070	937.887	710.207
166.950	16.129	937.232	709.894
167.964	15.978	936.806	708.875
168.979	16.133	935.145	708.205
169.994	16.106	934.202	707.315
171.008	16.220	933.527	707.220
172.023	16.287	932.826	706.908
173.037	16.321	932.709	706.897
174.052	16.180	931.830	705.578
175.067	15.997	931.230	704.296
176.081	15.883	930.873	703.490
177.096	16.064	929.912	703.458
178.110	16.041	929.642	703.095
179.125	16.077	929.044	702.727
180.140	16.181	928.461	702.658
181.154	16.313	927.982	702.784
182.169	16.293	927.806	702.506
183.183	16.391	926.940	702.194
184.198	16.373	926.144	701.454
185.213	16.390	925.259	700.792
186.227	16.262	924.935	699.953
187.242	16.491	924.120	700.224
188.256	16.687	923.502	700.505
189.271	16.484	922.823	699.089
190.286	16.319	921.501	697.345
191.300	16.103	920.828	695.882
192.315	16.031	920.071	694.951
193.329	15.888	920.207	694.405
194.344	16.165	919.381	694.860
195.359	16.340	918.748	695.041
196.373	16.415	918.116	694.809
197.388	16.649	917.637	695.347
198.402	16.670	917.029	694.910
199.417	16.786	916.331	694.797
200.432	16.651	916.359	694.200
201.446	16.709	916.034	694.132
202.461	16.741	915.530	693.817
203.475	16.877	914.440	693.489
204.490	16.607	913.692	691.756
205.504	16.600	913.098	691.217
206.519	16.658	912.072	690.615
207.534	16.637	911.558	690.082
208.548	16.516	910.785	688.940
209.563	16.634	910.248	688.955
210.577	16.595	909.737	688.348
211.592	16.849	908.977	688.744
212.607	16.789	908.188	687.841
213.621	16.748	907.579	687.151
214.636	16.925	906.633	687.094
215.650	16.903	906.120	686.556
216.665	16.884	905.517	685.960
217.680	16.875	905.317	685.711
218.694	17.088	904.096	685.585
219.709	17.008	903.374	684.654
220.723	17.070	902.708	684.338
221.738	16.963	902.258	683.507
222.753	16.930	901.800	682.968
223.767	16.963	901.309	682.668
224.782	17.098	900.717	682.702
225.796	17.111	900.602	682.606
226.811	17.011	899.838	681.565
227.826	16.987	898.576	680.453
228.840	16.982	897.915	679.872
229.855	16.894	897.257	678.961
230.869	16.752	896.752	677.951
231.884	16.761	895.841	677.239
232.899	16.813	895.244	676.932
233.913	16.680	894.613	675.865
234.928	16.800	893.874	675.727
235.942	16.686	893.191	674.697
236.957	16.869	892.528	674.866
237.972	16.839	892.342	674.546
238.986	16.843	891.309	673.720
240.001	16.897	890.862	673.538
241.015	16.828	890.197	672.702
242.030	17.012	889.544	672.879
243.045	16.975	888.857	672.152
244.059	16.980	888.864	672.117
245.074	16.956	887.757	671.127
246.088	17.117	886.651	670.867
247.103	17.296	886.318	671.262
248.117	17.277	885.847	670.773
249.132	17.346	885.857	670.993
250.147	17.546	885.043	671.102
251.161	17.626	884.296	670.793
252.176	17.569	883.821	670.148
253.190	17.749	882.866	670.074
254.205	17.597	882.413	669.073
255.220	17.692	881.522	668.711
256.234	17.607	881.270	668.125
257.249	17.733	880.325	667.843
258.263	17.643	879.651	666.921
259.278	17.573	879.073	666.150
260.293	17.737	878.539	666.330
261.307	17.924	877.950	666.555
262.322	17.737	877.452	665.387
263.336	17.701	876.690	664.608
264.351	17.833	875.957	664.508
265.366	17.750	875.618	663.870
266.380	17.896	874.547	663.568
267.395	17.691	874.495	662.670
268.409	17.751	873.361	661.987
269.424	17.861	872.327	661.570
270.439	17.659	871.971	660.461
271.453	17.614	871.459	659.840
272.468	17.573	870.962	659.248
273.482	17.707	870.115	659.064
274.497	17.618	869.516	658.208
275.512	17.568	869.241	657.749
276.526	17.735	868.559	657.820
277.541	17.781	867.861	657.411
278.555	17.856	867.528	657.387
279.570	17.958	867.030	657.345
280.585	18.061	865.932	656.850
281.599	17.816	865.299	655.372
282.614	17.734	864.737	654.574
283.628	17.808	864.507	654.624
284.643	17.884	863.771	654.300
285.657	17.990	862.758	653.882
286.672	17.789	862.768	653.061
287.687	17.957	861.593	652.756
288.701	17.868	861.063	651.959
289.716	17.936	860.457	651.701
290.730	17.979	859.846	651.343
291.745	18.013	859.142	650.882
292.760	17.939	859.056	650.477
293.774	18.192	858.138	650.689
294.789	18.114	857.388	649.767
295.803	17.978	856.623	648.613
296.818	17.936	856.364	648.197
297.833	17.946	855.428	647.471
298.847	17.942	855.372	647.358
299.862	18.156	854.445	647.406
300.876	18.060	854.009	646.657
301.891	18.199	853.299	646.587
302.906	18.173	852.812	646.062
303.920	18.292	852.578	646.276
304.935	18.396	851.786	646.013
305.949	18.303	851.037	645.037
306.964	18.306	850.587	644.649
307.979	18.259	849.987	643.962
308.993	18.271	849.588	643.646
310.008	18.404	848.798	643.492
311.022	18.371	848.104	642.785
312.037	18.247	847.340	641.685
313.052	18.161	846.985	641.036
314.066	18.112	846.452	640.391
315.081	18.014	846.235	639.804
316.095	17.986	845.576	639.145
317.110	18.134	844.522	638.844
318.125	18.108	844.230	638.470
319.139	18.240	843.593	638.424
320.154	18.238	843.229	638.083
321.168	18.239	842.854	637.747
322.183	18.253	842.073	637.154
323.197	18.251	842.192	637.178
324.212	18.335	841.008	636.541
325.227	18.238	840.530	635.760
326.241	18.348	840.003	635.715
327.256	18.316	839.536	635.186
328.270	18.207	838.673	634.073
329.285	18.240	838.485	633.996
330.300	18.137	838.069	633.246
331.314	18.287	837.280	633.146
332.329	18.426	836.912	633.325
333.343	18.347	837.159	633.165
334.358	18.405	836.277	632.657
335.373	18.526	835.871	632.742
336.387	18.614	835.285	632.566
337.402	18.547	835.511	632.431
338.416	18.675	834.703	632.238
339.431	18.786	834.463	632.408
340.446	18.888	834.090	632.444
341.460	18.824	833.767	631.910
342.475	19.001	833.202	632.073
343.489	18.853	832.990	631.315
344.504	18.846	832.709	631.021
345.519	18.879	832.159	630.667
346.533	18.987	831.298	630.356
347.548	18.761	830.801	629.093
348.562	18.681	830.410	628.450
349.577	18.669	829.861	627.935
350.592	18.519	829.281	626.892
351.606	18.575	828.272	626.277
352.621	18.738	827.434	626.184
353.635	18.687	826.893	625.535
354.650	18.848	826.008	625.395
355.665	18.868	825.550	625.067
356.679	18.861	825.225	624.740
357.694	18.998	824.309	624.489
358.708	18.866	823.808	623.575
359.723	18.839	823.489	623.180
360.738	18.893	822.901	622.874
361.752	18.825	822.527	622.290
362.767	18.885	821.839	621.933
363.781	19.046	821.457	622.169
364.796	19.208	820.779	622.186
365.810	19.197	820.698	622.029
366.825	19.312	820.302	622.092
367.840	19.316	819.720	621.608
368.854	19.133	819.192	620.495
369.869	19.064	818.906	619.975
370.883	19.050	818.302	619.410
371.898	19.211	817.789	619.546
372.913	19.347	817.374	619.667
373.927	19.280	817.238	619.266
374.942	19.306	816.616	618.834
375.956	19.351	816.076	618.532
376.971	19.416	815.651	618.387
377.986	19.525	815.262	618.430
379.000	19.589	814.792	618.249
380.015	19.473	814.622	617.650
381.029	19.422	813.711	616.719
382.044	19.464	813.219	616.444
383.059	19.570	812.652	616.337
384.073	19.458	812.211	615.550
385.088	19.340	811.371	614.436
386.102	19.305	810.857	613.868
387.117	19.325	810.391	613.532
388.132	19.388	809.696	613.176
389.146	19.465	808.779	612.702
390.161	19.364	809.111	612.538
391.175	19.557	807.951	612.291
392.190	19.526	807.454	611.751
393.205	19.432	807.061	611.066
394.219	19.368	806.890	610.657
395.234	19.290	806.603	610.110
396.248	19.268	805.872	609.423
397.263	19.345	805.237	609.164
398.278	19.194	805.030	608.417
399.292	19.189	804.629	608.044
400.307	19.207	804.506	607.962
401.321	19.306	803.893	607.791
402.336	19.284	803.311	607.223
403.350	19.560	802.762	607.724
404.365	19.541	802.688	607.547
405.380	19.603	802.237	607.372
406.394	19.710	801.360	607.028
407.409	19.732	801.178	606.914
408.423	19.801	801.296	607.192
409.438	19.830	800.485	606.624
410.453	19.908	799.984	606.464
411.467	20.013	799.072	606.090
412.482	19.929	799.156	605.803
413.496	20.087	798.889	606.100
414.511	20.014	798.680	605.635
415.526	19.929	798.127	604.863
416.540	20.041	797.592	604.794
417.555	19.942	796.928	603.892
418.569	19.945	796.684	603.666
419.584	19.941	796.312	603.315
420.599	19.969	795.677	602.878
421.613	160.041	1370.251	1794.677
422.628	138.761	1453.994	1794.770
