DTS Sentinel unit serial number:	SN413079Multiplexer serial number:	ORYXHardware model number:	OX4-SRSoftware version number:	ORYX F/W v4.00 Oryx Data Collector v3.7.2.0data status	okinstallation	princeton_trtdifferential loss correction	single-endedforward channel	channel 1reverse channel	N/Adate	2019/09/12time	18:15:34forward acquisition time	15.00reverse acquisition time	0.00gamma	496.2192k internal	0.2317k external	0.2317temperature offset calibration	1.0107default loss term (dB/km)	0.3790temperature slope calibration	1.0000multiplexer offset coefficient	1.0000multiplexer slope coefficient	1.0000fibre end	0.00T internal ref (°C)	33.50T ext. ref 1 (°C)	2.93T ext. ref 2 (°C)	28.03length (m)	temperature (°C)	Stokes	anti-Stokes-747.200	-107.393	0.355	-0.079
-746.185	-150.164	0.489	-0.038
-745.171	-61.045	0.582	0.249
-744.156	-140.982	-0.799	-0.083
-743.142	-17.129	-0.175	0.112
-742.127	495.760	-0.124	-0.289
-741.112	52.708	0.380	-0.368
-740.098	-200.000	-0.162	1.151
-739.083	-45.014	0.644	0.325
-738.069	20.685	-0.412	0.338
-737.054	-177.185	0.684	-0.017
-736.039	460.312	-0.053	-0.118
-735.025	-89.334	0.588	0.175
-734.010	465.820	-0.067	-0.151
-732.996	604.089	0.509	1.283
-731.981	119.113	0.375	-0.470
-730.966	-200.000	-0.038	0.281
-729.952	-76.693	0.039	-0.014
-728.937	-68.073	0.504	0.199
-727.923	46.462	0.165	0.155
-726.908	598.080	0.284	0.712
-725.894	-118.029	-0.571	-0.103
-724.879	300.751	-0.339	-0.632
-723.864	36.913	0.265	-0.237
-722.850	-200.000	-0.093	-0.944
-721.835	83.665	0.315	-0.347
-720.821	-200.000	-0.029	0.275
-719.806	-181.998	0.989	0.019
-718.791	-89.391	-0.490	-0.146
-717.777	800.000	0.204	-0.819
-716.762	-200.000	0.016	0.095
-715.748	-136.532	-1.064	0.125
-714.733	-10.088	0.338	-0.227
-713.718	-72.437	-0.154	-0.058
-712.704	-200.000	0.094	-0.664
-711.689	-58.157	-0.627	-0.276
-710.675	-200.000	0.006	0.358
-709.660	-175.738	-0.308	0.008
-708.645	23.173	0.366	0.304
-707.631	320.327	-0.181	-0.347
-706.616	-200.000	0.238	1.160
-705.602	152.895	0.271	-0.375
-704.587	624.857	0.144	-0.367
-703.572	-16.523	-0.399	-0.256
-702.558	-200.000	-0.042	0.943
-701.543	-157.981	-0.799	-0.048
-700.529	40.815	-0.195	-0.177
-699.514	-57.871	-0.622	0.275
-698.499	-3.030	0.241	-0.170
-697.485	-106.398	0.268	0.060
-696.470	99.146	0.387	0.452
-695.456	31.768	-0.520	0.453
-694.441	355.278	-0.054	-0.108
-693.426	-200.000	-0.068	0.871
-692.412	-102.257	-0.473	0.115
-691.397	-72.064	-0.627	0.235
-690.383	174.798	-0.246	0.360
-689.368	-200.000	0.473	0.001
-688.354	187.740	-0.135	-0.203
-687.339	-80.159	-0.490	0.166
-686.324	57.012	0.134	-0.132
-685.310	-200.000	0.068	0.605
-684.295	33.994	0.569	0.501
-683.281	-200.000	-0.009	-0.276
-682.266	800.000	-0.165	0.497
-681.251	526.978	0.155	0.368
-680.237	-0.530	-0.527	0.378
-679.222	43.950	0.214	-0.198
-678.208	411.397	0.191	-0.410
-677.193	-169.152	0.405	0.015
-676.178	-56.096	0.426	-0.191
-675.164	-200.000	-0.042	-0.376
-674.149	374.718	0.190	-0.391
-673.135	41.429	0.281	-0.256
-672.120	-92.609	-0.406	-0.115
-671.105	-139.658	0.659	-0.071
-670.091	28.404	-0.287	-0.245
-669.076	49.442	-0.738	-0.701
-668.062	800.000	0.043	-0.126
-667.047	506.175	-0.272	0.637
-666.032	-71.944	-0.522	0.196
-665.018	13.672	0.471	-0.370
-664.003	11.922	-0.586	-0.454
-662.989	63.765	0.309	0.313
-661.974	-11.020	0.461	0.307
-660.959	800.000	0.055	0.200
-659.945	142.304	0.496	0.664
-658.930	137.410	-0.319	0.421
-657.916	-76.094	0.292	0.104
-656.901	-162.407	0.748	0.037
-655.886	166.655	0.360	-0.514
-654.872	-84.794	-0.417	-0.132
-653.857	800.000	-0.168	0.541
-652.843	800.000	0.183	-0.535
-651.828	88.153	0.130	-0.146
-650.814	194.607	0.271	0.415
-649.799	376.867	-0.275	0.567
-648.784	-151.358	0.952	-0.072
-647.770	-74.131	0.496	0.181
-646.755	-200.000	-0.024	-0.692
-645.741	-18.943	0.255	0.160
-644.726	-200.000	-0.014	-0.442
-643.711	-13.199	-0.448	-0.294
-642.697	800.000	-0.274	0.947
-641.682	800.000	-0.113	-0.409
-640.668	800.000	-0.176	-0.550
-639.653	-1.425	0.792	0.563
-638.638	-143.484	0.058	-0.006
-637.624	-200.000	-0.004	0.162
-636.609	-129.837	-0.517	-0.072
-635.595	-142.378	-0.776	0.077
-634.580	28.737	0.256	0.218
-633.565	-78.354	-0.596	0.206
-632.551	120.308	0.437	0.547
-631.536	37.060	0.170	-0.151
-630.522	148.032	-0.125	-0.169
-629.507	-200.000	0.155	0.697
-628.492	-200.000	0.092	-0.637
-627.478	142.934	-0.622	-0.833
-626.463	85.802	-0.460	-0.509
-625.449	-110.638	-0.644	-0.134
-624.434	15.993	0.605	0.480
-623.419	-194.965	0.859	-0.007
-622.405	-78.283	-0.248	0.086
-621.390	546.267	0.189	-0.454
-620.376	-200.000	0.056	-0.430
-619.361	221.928	0.268	0.435
-618.346	-0.668	-0.833	-0.595
-617.332	-121.921	0.548	-0.091
-616.317	24.901	-0.613	0.512
-615.303	506.576	-0.128	-0.299
-614.288	185.694	0.523	-0.783
-613.273	-25.101	0.426	0.255
-612.259	148.563	0.700	0.952
-611.244	-101.056	0.910	-0.225
-610.230	68.440	-0.435	0.449
-609.215	-119.617	-0.101	-0.018
-608.201	-157.026	-0.408	-0.025
-607.186	28.545	-0.346	-0.295
-606.171	153.228	-0.093	0.128
-605.157	-147.218	-0.201	-0.017
-604.142	-129.433	0.697	0.097
-603.128	652.569	0.171	-0.443
-602.113	511.572	0.372	-0.873
-601.098	-63.898	0.047	-0.019
-600.084	-25.869	-0.361	-0.214
-599.069	-64.295	0.914	-0.375
-598.055	800.000	0.106	-0.403
-597.040	-165.859	-0.752	-0.033
-596.025	108.074	0.519	0.623
-595.011	189.482	0.372	-0.561
-593.996	501.813	0.277	-0.645
-592.982	-37.706	1.003	0.537
-591.967	-115.354	-0.522	-0.099
-590.952	108.936	0.661	-0.795
-589.938	800.000	-0.133	-0.563
-588.923	658.511	0.282	-0.729
-587.909	590.586	0.224	-0.556
-586.894	-200.000	0.168	0.775
-585.879	93.827	-0.564	0.643
-584.865	-200.000	0.066	-0.586
-583.850	-200.000	0.075	-0.520
-582.836	800.000	-0.164	0.506
-581.821	91.978	-0.157	-0.178
-580.806	-171.699	-0.931	-0.031
-579.792	-150.683	-0.426	-0.033
-578.777	291.473	-0.332	-0.608
-577.763	-200.000	0.043	0.201
-576.748	209.510	-0.317	0.500
-575.733	-118.382	0.435	0.078
-574.719	-118.263	0.452	-0.081
-573.704	-158.963	-0.461	-0.026
-572.690	800.000	-0.336	1.079
-571.675	181.619	0.013	0.019
-570.661	450.579	-0.432	-0.958
-569.646	-164.648	-1.216	0.055
-568.631	800.000	0.227	-0.763
-567.617	179.371	-0.437	-0.643
-566.602	98.183	0.192	-0.222
-565.588	417.816	0.262	-0.563
-564.573	-109.819	0.203	-0.043
-563.558	245.314	-0.165	0.279
-562.544	800.000	-0.122	0.371
-561.529	-45.540	0.626	0.311
-560.515	-135.406	-0.126	-0.015
-559.500	-163.493	-0.351	0.017
-558.485	-44.946	-0.893	0.447
-557.471	-182.544	-0.472	-0.009
-556.456	-42.981	-0.532	-0.271
-555.442	-127.224	0.600	-0.088
-554.427	-140.926	-0.710	0.073
-553.412	-51.581	0.706	0.331
-552.398	800.000	-0.155	0.538
-551.383	23.937	-0.579	0.479
-550.369	-127.939	0.630	-0.091
-549.354	800.000	0.151	0.560
-548.339	116.916	0.313	-0.386
-547.325	55.849	-0.464	-0.452
-546.310	-81.447	0.511	-0.169
-545.296	-33.401	-0.515	-0.286
-544.281	-87.843	-0.608	-0.184
-543.266	-170.509	-0.131	-0.005
-542.252	174.009	-0.585	-0.849
-541.237	-100.309	-0.156	-0.039
-540.223	791.529	0.097	0.267
-539.208	-98.861	0.191	-0.049
-538.193	800.000	0.148	0.422
-537.179	267.901	0.395	-0.694
-536.164	-23.967	-0.470	-0.282
-535.150	-163.684	-0.854	-0.040
-534.135	139.151	-0.275	-0.363
-533.121	38.140	0.398	0.355
-532.106	-60.083	-0.486	-0.208
-531.091	-200.000	0.078	0.782
-530.077	22.708	0.294	0.242
-529.062	800.000	0.107	0.337
-528.048	13.117	-0.217	0.168
-527.033	800.000	0.179	-0.577
-526.018	-185.937	0.147	-0.002
-525.004	-200.000	-0.005	0.976
-523.989	-125.094	-0.597	0.092
-522.975	-200.000	-0.121	0.565
-521.960	-200.000	0.174	0.890
-520.945	84.817	0.256	-0.281
-519.931	338.866	0.279	0.545
-518.916	-200.000	-0.106	-0.777
-517.902	-200.000	-0.095	-0.499
-516.887	322.183	-0.023	-0.043
-515.872	-200.000	0.059	-0.517
-514.858	-200.000	0.049	0.584
-513.843	32.389	0.302	-0.262
-512.829	-67.998	0.249	-0.098
-511.814	50.544	-0.136	-0.129
-510.799	-13.353	0.523	-0.341
-509.785	-129.132	-0.573	0.080
-508.770	-172.457	-0.582	0.019
-507.756	536.922	-0.102	0.242
-506.741	47.183	-0.339	0.317
-505.726	-114.122	0.434	-0.084
-504.712	-200.000	-0.049	0.337
-503.697	587.202	0.273	0.675
-502.683	97.594	0.642	-0.740
-501.668	-186.746	0.407	0.006
-500.653	371.084	0.067	-0.136
-499.639	-107.006	-0.904	0.200
-498.624	165.309	-0.404	0.573
-497.610	-200.000	-0.114	0.572
-496.595	-144.887	-0.715	0.066
-495.581	-102.091	0.549	-0.133
-494.566	412.203	-0.162	0.344
-493.551	-120.789	-0.509	-0.086
-492.537	-200.000	-0.072	-0.643
-491.522	361.001	0.056	0.112
-490.508	-5.141	0.761	-0.525
-489.493	562.318	0.185	0.447
-488.478	128.409	0.336	0.429
-487.464	800.000	-0.336	1.001
-486.449	-56.248	-0.567	0.253
-485.435	800.000	-0.159	-0.636
-484.420	-200.000	-0.221	1.315
-483.405	-9.986	0.607	0.405
-482.391	63.503	-0.467	-0.469
-481.376	-0.422	0.590	0.420
-480.362	-0.791	0.474	-0.337
-479.347	51.303	0.527	0.501
-478.332	-1.009	0.941	-0.667
-477.318	-38.288	-0.233	-0.124
-476.303	402.260	0.034	-0.072
-475.289	94.299	-0.257	0.292
-474.274	157.743	-0.308	-0.428
-473.259	-182.012	0.933	-0.018
-472.245	130.447	0.378	-0.485
-471.230	800.000	-0.129	0.402
-470.216	-18.797	-0.283	0.176
-469.201	-45.576	0.617	0.306
-468.186	-158.533	0.098	0.006
-467.172	-11.656	-0.387	-0.255
-466.157	41.020	-0.423	0.382
-465.143	119.454	-0.488	0.605
-464.128	140.521	-0.291	-0.384
-463.113	-124.308	0.615	0.096
-462.099	-72.392	0.749	-0.278
-461.084	-70.016	-0.411	0.157
-460.070	101.334	-0.261	0.304
-459.055	-200.000	0.019	-0.556
-458.040	-162.613	0.095	-0.005
-457.026	60.386	0.285	0.283
-456.011	-47.517	-0.494	-0.240
-454.997	127.044	-0.255	-0.324
-453.982	-173.710	0.583	0.017
-452.968	193.302	-0.312	0.473
-451.953	-200.000	-0.090	0.694
-450.938	-3.886	-0.391	0.272
-449.924	-200.000	-0.002	-0.038
-448.909	17.568	0.382	0.303
-447.895	-83.555	0.580	0.186
-446.880	328.686	-0.131	-0.252
-445.865	800.000	-0.157	0.499
-444.851	-200.000	0.021	-0.652
-443.836	-124.593	0.219	-0.034
-442.822	75.203	-0.495	-0.522
-441.807	-200.000	0.077	-0.380
-440.792	-72.220	-0.830	-0.308
-439.778	306.871	-0.396	0.738
-438.763	207.124	0.245	0.382
-437.749	99.179	0.079	0.091
-436.734	63.641	0.189	0.190
-435.719	9.730	-0.760	0.576
-434.705	-25.830	-1.006	-0.593
-433.690	-99.002	0.193	0.049
-432.676	60.062	0.380	0.376
-431.661	48.195	-0.401	0.375
-430.646	-40.177	0.357	0.186
-429.632	-200.000	0.017	-0.596
-428.617	-163.293	-0.746	0.036
-427.603	-170.419	-0.870	0.030
-426.588	380.104	-0.224	-0.460
-425.573	443.827	0.084	-0.184
-424.559	800.000	-0.286	-1.002
-423.544	96.509	0.351	-0.402
-422.530	36.839	0.394	-0.348
-421.515	-128.284	0.407	-0.058
-420.500	-16.134	-0.390	-0.247
-419.486	430.376	-0.252	-0.545
-418.471	-38.861	0.800	0.421
-417.457	311.012	-0.125	-0.233
-416.442	694.360	-0.143	0.376
-415.428	800.000	0.204	-0.575
-414.413	-51.953	-0.072	-0.033
-413.398	88.412	0.409	-0.454
-412.384	-98.419	-0.867	-0.222
-411.369	-37.678	-0.552	0.294
-410.355	133.329	0.435	-0.562
-409.340	289.988	0.321	-0.582
-408.325	246.700	0.615	1.036
-407.311	800.000	0.178	0.598
-406.296	-25.813	-0.257	0.151
-405.282	10.286	0.294	-0.223
-404.267	-29.228	0.340	0.195
-403.252	67.694	0.900	0.919
-402.238	-200.000	-0.022	-0.296
-401.223	170.830	-0.080	0.114
-400.209	800.000	0.058	-0.244
-399.194	29.855	-0.538	-0.458
-398.179	-4.201	-0.373	-0.258
-397.165	-2.342	0.153	-0.107
-396.150	-84.298	-0.117	-0.037
-395.136	800.000	0.146	0.500
-394.121	-101.285	0.549	0.134
-393.106	326.294	-0.209	-0.400
-392.092	562.930	-0.241	0.582
-391.077	-96.260	0.651	-0.172
-390.063	91.006	-0.339	0.380
-389.048	166.938	0.464	-0.657
-388.033	256.236	-0.393	-0.673
-387.019	-1.748	-0.786	0.552
-386.004	-153.779	-0.274	0.019
-384.990	107.118	-0.266	-0.316
-383.975	81.208	-0.343	0.370
-382.960	131.450	0.419	-0.538
-381.946	790.461	-0.236	-0.648
-380.931	-38.445	-0.357	-0.188
-379.917	-116.103	-0.213	-0.040
-378.902	-137.034	0.127	-0.014
-377.888	-146.063	1.060	-0.093
-376.873	-59.629	-0.384	-0.164
-375.858	-38.011	-0.559	0.296
-374.844	-125.060	-0.208	-0.032
-373.829	-16.350	0.340	0.215
-372.815	-200.000	-0.101	0.561
-371.800	-29.026	0.390	-0.223
-370.785	579.020	0.239	0.584
-369.771	800.000	0.165	0.498
-368.756	-85.386	-0.262	-0.081
-367.742	24.824	-0.377	0.311
-366.727	45.662	0.602	0.555
-365.712	-200.000	-0.067	0.392
-364.698	800.000	0.133	0.560
-363.683	287.257	0.442	0.797
-362.669	-60.132	-0.791	0.336
-361.654	-43.848	0.924	0.464
-360.639	188.831	0.468	0.699
-359.625	-64.463	-0.207	0.084
-358.610	-53.777	-0.244	-0.111
-357.596	-4.170	-0.407	0.281
-356.581	-200.000	0.005	0.136
-355.566	62.062	0.358	0.356
-354.552	800.000	0.125	0.380
-353.537	0.463	-0.467	0.333
-352.523	800.000	-0.093	-0.407
-351.508	-200.000	-0.042	0.642
-350.493	-200.000	-0.030	0.441
-349.479	-36.167	0.709	0.381
-348.464	800.000	-0.398	1.116
-347.450	-40.484	-0.072	0.037
-346.435	-119.521	-1.000	0.173
-345.420	-44.191	-0.260	0.130
-344.406	711.015	-0.085	0.225
-343.391	800.000	-0.096	-0.312
-342.377	-66.948	-0.925	-0.364
-341.362	-39.531	-0.405	0.212
-340.348	-124.616	0.459	-0.071
-339.333	-118.997	-0.343	-0.060
-338.318	0.485	-0.428	0.305
-337.304	140.658	0.254	-0.335
-336.289	4.666	0.431	-0.315
-335.275	-6.740	-0.299	0.202
-334.260	8.732	-0.856	-0.643
-333.245	-169.198	-0.104	0.004
-332.231	-54.115	-0.172	0.078
-331.216	800.000	-0.143	0.528
-330.202	-49.593	0.218	-0.103
-329.187	800.000	-0.415	-1.191
-328.172	543.784	0.240	-0.570
-327.158	155.073	-0.447	0.613
-326.143	-200.000	-0.047	0.444
-325.129	-35.126	-0.572	-0.310
-324.114	147.672	0.245	0.329
-323.099	414.551	-0.460	0.974
-322.085	19.491	0.715	-0.573
-321.070	57.430	-0.353	-0.343
-320.056	641.261	0.042	-0.106
-319.041	-200.000	0.192	-1.416
-318.026	-25.975	-0.861	-0.504
-317.012	-170.693	0.890	0.031
-315.997	577.147	0.151	-0.368
-314.983	252.675	0.232	0.393
-313.968	-134.136	0.345	0.042
-312.953	254.853	0.094	0.160
-311.939	-32.514	0.417	-0.231
-310.924	-200.000	-0.053	-0.480
-309.910	-89.143	-0.141	0.041
-308.895	35.900	-0.398	0.348
-307.880	88.092	-0.416	-0.459
-306.866	-24.339	0.472	0.280
-305.851	-21.860	0.339	0.205
-304.837	127.695	-0.037	0.047
-303.822	800.000	-0.205	-0.566
-302.807	-39.199	0.745	-0.389
-301.793	446.050	-0.155	0.339
-300.778	561.805	-0.281	-0.676
-299.764	800.000	-0.076	-0.215
-298.749	278.917	-0.188	-0.334
-297.735	-121.604	0.495	0.082
-296.720	-200.000	0.107	-0.640
-295.705	800.000	-0.106	-0.305
-294.691	-154.581	0.288	-0.019
-293.676	86.788	0.160	-0.175
-292.662	223.655	-0.078	-0.126
-291.647	363.039	-0.154	-0.308
-290.632	-200.000	0.078	-0.618
-289.618	332.195	-0.195	0.374
-288.603	-200.000	-0.101	0.523
-287.589	-79.550	-0.089	0.030
-286.574	523.451	0.402	-0.939
-285.559	162.199	0.165	0.231
-284.545	184.028	-0.231	0.340
-283.530	-144.177	-0.124	0.011
-282.516	-70.065	1.465	0.554
-281.501	261.138	0.563	0.968
-280.486	800.000	0.172	0.654
-279.472	536.314	-0.119	0.281
-278.457	-24.780	-0.356	-0.210
-277.443	123.222	0.488	-0.608
-276.428	-140.224	0.341	0.035
-275.413	-200.000	-0.135	0.604
-274.399	-190.142	-0.378	0.004
-273.384	-107.418	0.293	0.064
-272.370	-195.012	0.405	-0.003
-271.355	-127.900	-0.263	0.038
-270.340	-193.965	-0.841	0.007
-269.326	-94.142	-0.365	0.099
-268.311	-200.000	-0.016	-0.364
-267.297	-111.341	0.500	-0.101
-266.282	-60.469	-0.375	0.158
-265.267	154.727	0.194	0.264
-264.253	175.460	-0.390	-0.562
-263.238	80.714	-0.815	-0.873
-262.224	265.760	0.399	-0.692
-261.209	-151.684	1.495	0.109
-260.195	800.000	-0.132	0.429
-259.180	31.022	0.503	-0.428
-258.165	-5.192	0.521	-0.356
-257.151	-200.000	-0.016	0.094
-256.136	62.731	-0.796	-0.790
-255.122	-200.000	0.042	0.521
-254.107	-21.625	-0.323	0.196
-253.092	-200.000	0.428	0.002
-252.078	-70.425	0.399	0.150
-251.063	-66.235	-0.785	-0.310
-250.049	357.712	-0.174	-0.345
-249.034	45.385	0.133	-0.122
-248.019	-58.249	0.350	0.151
-247.005	-46.890	0.646	0.313
-245.990	423.834	-0.189	-0.403
-244.976	-200.000	-0.034	-0.296
-243.961	-200.000	0.082	0.392
-242.946	-147.636	0.627	-0.052
-241.932	-200.000	0.053	-1.007
-240.917	800.000	0.272	-0.876
-239.903	20.999	-0.210	0.169
-238.888	-86.103	-0.152	0.046
-237.873	383.978	0.366	0.748
-236.859	99.025	-0.191	-0.219
-235.844	-186.616	-0.322	-0.005
-234.830	-39.802	-0.379	0.196
-233.815	262.568	-0.214	-0.369
-232.800	84.559	-0.194	-0.211
-231.786	800.000	0.261	0.827
-230.771	-200.000	-0.028	0.430
-229.757	128.519	0.214	0.270
-228.742	-137.956	-0.273	-0.030
-227.727	-200.000	0.067	-0.895
-226.713	62.556	-0.310	0.308
-225.698	111.196	-0.294	-0.351
-224.684	539.099	-0.024	0.058
-223.669	216.453	-0.456	0.719
-222.655	-2.493	0.299	-0.208
-221.640	118.223	0.344	-0.421
-220.625	574.325	0.137	-0.332
-219.611	-65.906	0.746	-0.296
-218.596	50.279	-0.082	-0.076
-217.582	74.541	0.446	0.465
-216.567	176.117	-0.175	-0.253
-215.552	-86.348	-0.569	0.174
-214.538	-27.311	-0.460	-0.266
-213.523	-48.273	0.585	-0.280
-212.509	450.826	-0.316	0.692
-211.494	-200.000	0.082	0.393
-210.479	800.000	0.181	-0.530
-209.465	150.781	0.340	-0.458
-208.450	105.021	-0.338	0.395
-207.436	-130.001	0.692	-0.094
-206.421	669.714	-0.123	-0.315
-205.406	-37.777	-0.422	0.222
-204.392	800.000	0.151	0.494
-203.377	800.000	0.240	-0.757
-202.363	-121.353	0.359	0.059
-201.348	-32.118	0.197	0.109
-200.333	-132.706	0.765	0.097
-199.319	-200.000	-0.078	-0.419
-198.304	-100.846	0.504	-0.123
-197.290	-21.107	0.121	-0.074
-196.275	-44.164	0.256	0.127
-195.260	103.059	-0.600	0.696
-194.246	355.008	-0.410	0.809
-193.231	-111.574	0.587	-0.118
-192.217	-121.705	-0.289	-0.047
-191.202	-200.000	0.046	0.626
-190.187	7.862	-0.491	0.364
-189.173	-200.000	0.049	0.685
-188.158	-88.516	-0.507	-0.150
-187.144	1.903	-0.073	-0.052
-186.129	-165.205	0.076	-0.003
-185.114	-51.390	0.268	0.124
-184.100	53.629	0.486	-0.462
-183.085	34.602	-0.055	0.048
-182.071	-200.000	-0.103	0.783
-181.056	-36.338	0.731	-0.390
-180.042	-128.920	1.219	0.170
-179.027	-17.935	-0.780	-0.484
-178.012	-114.960	-0.455	-0.086
-176.998	-23.763	1.000	0.593
-175.983	-90.511	-0.560	-0.160
-174.969	93.803	0.290	0.325
-173.954	800.000	0.200	0.761
-172.939	-61.387	-0.228	-0.095
-171.925	-26.402	-0.163	-0.095
-170.910	360.031	-0.223	-0.441
-169.896	800.000	-0.290	0.854
-168.881	306.109	0.353	0.651
-167.866	-200.000	0.011	0.108
-166.852	-23.505	-0.189	-0.112
-165.837	-83.684	-0.245	0.077
-164.823	89.103	-0.228	-0.251
-163.808	42.738	0.220	0.198
-162.793	-13.597	-0.516	-0.331
-161.779	779.022	-0.069	0.187
-160.764	-127.497	-0.686	-0.099
-159.750	-62.888	-0.381	-0.156
-158.735	-200.000	0.122	0.760
-157.720	800.000	0.261	-0.823
-156.706	-200.000	0.166	-1.049
-155.691	-58.242	0.684	-0.294
-154.677	-149.088	0.344	0.027
-153.662	-107.003	0.509	0.111
-152.647	-200.000	0.028	-0.284
-151.633	-27.800	0.865	0.496
-150.618	-91.857	0.420	0.118
-149.604	98.882	0.273	0.312
-148.589	-200.000	1.017	-0.004
-147.574	-200.000	-0.007	-0.602
-146.560	-200.000	0.095	-0.793
-145.545	-200.000	0.004	-0.503
-144.531	-161.499	-0.262	0.013
-143.516	-200.000	0.021	-0.580
-142.502	-63.768	0.592	0.240
-141.487	-104.987	-0.792	0.179
-140.472	105.655	0.476	-0.557
-139.458	109.345	0.176	-0.208
-138.443	217.267	-0.509	-0.802
-137.429	63.799	0.329	-0.327
-136.414	-144.110	0.958	-0.089
-135.399	-138.599	-0.875	-0.095
-134.385	189.965	-0.490	0.727
-133.370	26.831	-0.481	0.399
-132.356	-138.092	-0.337	0.037
-131.341	-1.157	-0.266	-0.186
-130.326	516.892	0.073	0.169
-129.312	77.361	0.815	0.857
-128.297	199.112	0.475	0.719
-127.283	-200.000	0.037	-0.710
-126.268	800.000	0.188	-0.722
-125.253	209.347	-0.587	-0.909
-124.239	378.645	0.194	-0.393
-123.224	-130.442	-1.177	-0.157
-122.210	568.604	0.428	1.028
-121.195	-73.121	-0.527	-0.191
-120.180	-69.063	-0.589	0.224
-119.166	800.000	-0.058	0.183
-118.151	-200.000	0.065	0.466
-117.137	-35.904	0.264	-0.141
-116.122	800.000	-0.120	-0.359
-115.107	78.702	0.307	0.325
-114.093	67.181	-0.171	-0.172
-113.078	761.772	-0.039	-0.105
-112.064	800.000	-0.086	-0.336
-111.049	-33.796	-0.506	0.275
-110.034	93.327	0.293	0.328
-109.020	-128.945	0.164	0.023
-108.005	-79.520	0.660	0.220
-106.991	208.857	0.338	0.523
-105.976	138.814	-0.116	-0.150
-104.962	-200.000	0.005	-1.044
-103.947	-75.901	-1.136	-0.397
-102.932	28.031	-0.121	0.101
-101.918	800.000	0.085	-0.273
-100.903	137.512	0.433	-0.560
-99.889	-200.000	-0.054	0.589
-98.874	74.021	0.309	0.320
-97.859	-105.906	0.630	0.140
-96.845	-200.000	0.001	0.271
-95.830	4.842	0.351	0.255
-94.816	-94.732	0.634	-0.170
-93.801	55.733	-0.536	0.512
-92.786	-169.545	0.186	-0.007
-91.772	-63.117	0.556	0.226
-90.757	-166.241	-0.377	-0.016
-89.743	341.613	-0.158	-0.306
-88.728	-50.429	0.747	0.348
-87.713	-182.651	-0.829	-0.015
-86.699	-11.617	0.558	-0.362
-85.684	-40.041	0.650	0.334
-84.670	-63.487	0.616	0.250
-83.655	187.141	-0.371	-0.545
-82.640	-200.000	-0.100	-0.489
-81.626	-68.343	-0.339	0.130
-80.611	327.343	0.220	0.415
-79.597	33.113	0.407	0.348
-78.582	-64.683	0.647	-0.259
-77.567	7.662	0.130	0.096
-76.553	800.000	0.122	0.511
-75.538	-55.782	0.070	0.031
-74.524	-13.256	0.307	0.196
-73.509	-134.206	0.707	0.086
-72.494	-13.560	-0.919	-0.587
-71.480	54.035	-0.439	0.417
-70.465	162.683	0.427	-0.591
-69.451	201.514	-0.258	-0.392
-68.436	-92.196	-0.407	0.113
-67.422	57.303	0.205	-0.198
-66.407	-200.000	-0.031	-0.476
-65.392	-19.321	0.350	0.214
-64.378	418.186	0.338	-0.711
-63.363	359.180	-0.172	0.338
-62.349	-73.638	0.191	-0.068
-61.334	-200.000	-0.341	-1.608
-60.319	-108.384	0.638	0.136
-59.305	-200.000	0.017	-1.355
-58.290	475.161	0.628	1.396
-57.276	502.712	0.537	1.224
-56.261	-200.000	95.602	571.853
-55.246	627.420	1377.148	3427.135
-54.232	198.268	2547.290	3838.553
-53.217	117.733	2133.514	2588.104
-52.203	45.019	1599.733	1451.826
-51.188	36.974	1339.810	1167.678
-50.173	33.877	1298.869	1113.828
-49.159	56.914	1347.860	1293.809
-48.144	58.301	1364.309	1317.816
-47.130	37.063	1321.971	1152.477
-46.115	33.612	1304.987	1117.339
-45.100	33.773	1299.062	1113.167
-44.086	33.395	1297.120	1109.240
-43.071	33.187	1295.063	1106.224
-42.057	33.387	1292.150	1104.859
-41.042	33.538	1290.064	1103.911
-40.027	33.204	1289.879	1101.761
-39.013	33.359	1287.937	1100.964
-37.998	33.599	1284.890	1099.705
-36.984	33.481	1284.069	1098.277
-35.969	33.269	1283.242	1096.297
-34.954	33.595	1281.551	1096.695
-33.940	33.458	1279.464	1094.074
-32.925	33.497	1279.287	1094.105
-31.911	33.584	1276.950	1092.563
-30.896	33.801	1274.527	1091.696
-29.881	33.655	1273.463	1089.898
-28.867	33.542	1273.814	1089.508
-27.852	33.526	1271.066	1087.024
-26.838	33.661	1269.540	1086.446
-25.823	33.728	1268.567	1085.957
-24.809	33.642	1267.208	1084.256
-23.794	33.731	1266.078	1083.757
-22.779	33.631	1264.972	1082.196
-21.765	33.848	1262.194	1081.014
-20.750	33.556	1261.849	1079.013
-19.736	33.497	1261.414	1078.261
-18.721	33.496	1259.690	1076.736
-17.706	33.642	1258.952	1076.894
-16.692	33.536	1256.555	1074.201
-15.677	33.403	1256.857	1073.662
-14.663	33.143	1257.272	1072.497
-13.648	33.309	1253.843	1070.472
-12.633	33.510	1253.798	1071.527
-11.619	33.334	1253.356	1070.109
-10.604	33.527	1251.405	1069.492
-9.590	33.161	1251.619	1067.564
-8.575	33.191	1249.912	1066.237
-7.560	33.556	1249.259	1067.694
-6.546	33.480	1248.280	1066.385
-5.531	33.290	1247.661	1064.748
-4.517	33.740	1245.117	1065.063
-3.502	33.432	1246.031	1064.070
-2.487	33.244	1244.990	1062.084
-1.473	33.242	1241.179	1058.779
-0.458	32.043	1225.839	1039.022
0.556	29.138	1207.467	998.397
1.571	25.014	1213.039	980.398
2.586	24.017	1227.121	986.169
3.600	23.525	1216.453	974.805
4.615	17.248	1144.531	884.530
5.629	7.745	1068.224	779.113
6.644	2.976	1049.112	742.116
7.659	3.021	1045.523	739.728
8.673	2.785	1044.714	737.958
9.688	2.938	1042.267	736.897
10.702	3.209	1042.054	737.981
11.717	9.262	1050.025	772.733
12.731	19.308	1063.364	831.164
13.746	24.706	1071.038	863.226
14.761	25.724	1072.394	869.161
15.775	25.884	1071.190	868.880
16.790	26.144	1069.361	868.572
17.804	25.782	1070.026	867.289
18.819	25.887	1069.421	867.229
19.834	26.222	1069.238	868.613
20.848	26.030	1069.473	867.806
21.863	25.900	1068.286	866.142
22.877	26.009	1067.115	865.635
23.892	25.914	1067.202	865.177
24.907	25.791	1066.376	863.841
25.921	26.120	1065.079	864.287
26.936	26.122	1062.749	862.332
27.950	25.917	1062.442	861.025
28.965	25.726	1060.672	858.601
29.980	25.894	1059.998	858.782
30.994	26.035	1057.786	857.583
32.009	25.813	1058.251	856.831
33.023	25.903	1056.950	856.127
34.038	25.691	1055.899	854.194
35.053	25.837	1054.454	853.643
36.067	26.090	1054.017	854.410
37.082	26.122	1053.642	854.186
38.096	25.819	1053.414	852.491
39.111	26.246	1051.198	852.637
40.126	26.057	1050.641	851.216
41.140	25.645	1049.711	848.448
42.155	25.528	1046.456	845.189
43.169	25.363	1047.033	844.807
44.184	25.418	1046.694	844.715
45.199	25.518	1044.732	843.527
46.213	25.835	1044.313	844.603
47.228	25.981	1043.211	844.317
48.242	25.652	1043.895	843.255
49.257	25.822	1042.899	843.172
50.271	26.032	1042.071	843.413
51.286	25.855	1040.060	840.883
52.301	26.411	1038.920	842.478
53.315	26.175	1039.333	841.636
54.330	25.958	1037.600	839.152
55.344	25.954	1036.623	838.265
56.359	25.988	1036.045	837.883
57.374	25.619	1036.264	836.272
58.388	25.688	1034.466	835.066
59.403	25.727	1033.904	834.718
60.417	25.479	1033.235	832.957
61.432	25.747	1032.309	833.378
62.447	25.766	1031.528	832.760
63.461	25.685	1030.969	831.864
64.476	25.715	1029.566	830.794
65.490	25.580	1029.758	830.252
66.505	25.952	1027.639	830.185
67.520	25.798	1027.351	829.167
68.534	25.624	1027.268	828.228
69.549	25.171	1026.471	825.427
70.563	25.295	1024.851	824.623
71.578	24.977	1024.371	822.700
72.593	25.141	1022.257	821.681
73.607	25.119	1023.650	822.629
74.622	25.682	1022.255	824.013
75.636	25.866	1020.723	823.545
76.651	25.564	1021.205	822.482
77.666	25.430	1020.209	820.995
78.680	25.518	1020.079	821.220
79.695	25.314	1019.543	819.784
80.709	25.722	1018.435	820.683
81.724	25.402	1017.949	818.758
82.739	25.710	1017.002	819.327
83.753	26.231	1015.521	820.428
84.768	26.356	1015.609	820.993
85.782	26.368	1014.266	819.889
86.797	26.311	1014.196	819.501
87.812	26.114	1012.883	817.476
88.826	26.126	1011.780	816.569
89.841	25.937	1011.912	815.750
90.855	26.317	1009.469	815.419
91.870	26.261	1008.524	814.332
92.884	26.223	1008.482	814.055
93.899	26.219	1006.868	812.663
94.914	26.675	1005.840	813.810
95.928	26.149	1005.838	811.373
96.943	25.931	1005.217	809.819
97.957	25.663	1003.757	807.370
98.972	25.594	1003.196	806.540
99.987	25.729	1001.439	805.661
101.001	26.227	1000.390	806.968
102.016	25.872	999.783	804.824
103.030	26.023	998.483	804.381
104.045	26.127	997.882	804.289
105.060	25.910	997.031	802.563
106.074	26.067	996.141	802.474
107.089	25.985	996.575	802.388
108.103	25.899	994.583	800.330
109.118	25.770	993.893	799.132
110.133	25.558	993.359	797.695
111.147	25.944	990.929	797.381
112.162	25.819	989.316	795.458
113.176	25.765	990.300	795.942
114.191	25.790	989.333	795.203
115.206	25.107	989.759	792.460
116.220	25.208	987.904	791.346
117.235	25.567	986.538	791.766
118.249	25.378	985.568	790.084
119.264	25.387	985.733	790.188
120.279	25.317	984.517	788.833
121.293	25.423	984.096	788.891
122.308	25.347	983.669	788.149
123.322	25.559	981.886	787.580
124.337	25.414	980.626	785.863
125.352	24.853	979.097	782.119
126.366	24.776	978.712	781.405
127.381	25.546	978.290	784.357
128.395	26.214	978.139	787.080
129.410	25.976	977.066	785.109
130.424	25.831	975.821	783.411
131.439	25.773	975.608	782.920
132.454	26.090	974.030	782.959
133.468	25.837	974.145	781.883
134.483	26.349	972.717	782.886
135.497	26.149	972.911	782.108
136.512	25.996	972.058	780.691
137.527	26.506	970.162	781.301
138.541	26.447	968.887	779.953
139.556	26.174	968.903	778.715
140.570	26.469	968.802	779.841
141.585	26.401	967.265	778.241
142.600	26.256	966.014	776.543
143.614	26.342	966.067	776.886
144.629	26.655	964.586	776.968
145.643	26.610	963.691	775.987
146.658	26.478	961.995	773.988
147.673	26.117	961.605	772.061
148.687	26.250	959.530	770.895
149.702	26.266	958.761	770.276
150.716	25.856	959.247	768.849
151.731	26.074	958.289	768.943
152.746	26.547	957.440	770.208
153.760	26.543	956.598	769.442
154.775	26.652	956.805	770.004
155.789	26.386	955.390	767.669
156.804	26.404	954.074	766.619
157.819	26.463	953.899	766.664
158.833	26.804	953.067	767.368
159.848	26.629	952.303	765.946
160.862	26.479	950.630	763.900
161.877	26.705	949.720	764.055
162.892	26.482	949.932	763.215
163.906	26.202	948.928	761.162
164.921	26.607	946.925	761.191
165.935	26.738	945.791	760.761
166.950	26.510	945.343	759.379
167.964	26.562	945.353	759.535
168.979	26.226	943.860	756.864
169.994	26.222	942.667	755.822
171.008	26.293	942.838	756.192
172.023	26.454	941.655	755.846
173.037	26.715	940.376	755.841
174.052	26.164	939.497	752.772
175.067	26.338	939.212	753.203
176.081	26.355	938.777	752.855
177.096	26.283	938.514	752.280
178.110	25.883	936.970	749.315
179.125	25.644	936.420	747.813
180.140	26.059	935.303	748.578
181.154	25.868	936.004	748.279
182.169	26.609	935.767	751.099
183.183	26.602	934.481	749.971
184.198	26.561	933.739	749.140
185.213	26.169	934.270	747.877
186.227	26.438	932.948	747.864
187.242	26.611	931.618	747.446
188.256	26.728	930.798	747.206
189.271	26.567	930.253	746.039
190.286	26.347	928.724	743.840
191.300	25.782	927.832	740.737
192.315	25.182	925.827	736.607
193.329	25.096	925.087	735.601
194.344	25.825	926.751	739.853
195.359	26.527	927.067	742.925
196.373	26.321	926.686	741.706
197.388	26.366	925.907	741.200
198.402	26.540	924.588	740.793
199.417	26.603	923.753	740.316
200.432	25.958	923.421	737.346
201.446	26.047	924.011	738.118
202.461	25.896	922.937	736.578
203.475	25.303	920.258	731.955
204.490	24.381	919.575	727.590
205.504	25.591	919.137	732.108
206.519	25.838	919.600	733.418
207.534	25.937	919.375	733.575
208.548	26.274	919.342	734.855
209.563	26.558	917.550	734.510
210.577	26.688	917.094	734.610
211.592	26.733	916.287	734.080
212.607	26.450	916.121	732.735
213.621	26.764	916.168	733.980
214.636	26.609	915.246	732.548
215.650	26.544	913.555	730.867
216.665	26.806	913.122	731.516
217.680	26.662	912.562	730.422
218.694	26.416	911.599	728.596
219.709	26.408	910.126	727.320
220.723	26.195	910.643	726.811
221.738	26.319	909.806	726.577
222.753	26.300	909.294	726.029
223.767	26.583	909.116	726.961
224.782	26.463	909.248	726.516
225.796	26.830	907.667	726.660
226.811	26.094	906.410	722.643
227.826	25.733	904.789	719.844
228.840	25.601	905.000	719.422
229.855	25.507	904.951	718.942
230.869	25.458	902.941	717.087
231.884	25.838	903.038	718.617
232.899	26.176	903.646	720.386
233.913	26.406	902.579	720.390
234.928	26.384	902.071	719.829
235.942	26.298	901.365	718.861
236.957	25.899	901.289	717.149
237.972	25.770	900.661	716.072
238.986	26.460	898.553	717.073
240.001	25.914	899.699	715.755
241.015	26.007	899.639	716.012
242.030	26.648	898.285	717.413
243.045	26.244	897.934	715.469
244.059	26.628	897.358	716.467
245.074	26.256	896.465	714.218
246.088	25.603	895.927	711.145
247.103	26.666	894.365	714.035
248.117	26.873	894.923	715.233
249.132	26.941	895.196	715.656
250.147	27.049	894.926	715.805
251.161	27.827	893.198	717.419
252.176	27.450	892.597	715.391
253.190	27.513	892.291	715.327
254.205	27.446	892.498	715.167
255.220	27.574	891.185	714.556
256.234	27.187	890.899	712.746
257.249	27.091	889.998	711.586
258.263	27.207	888.670	710.915
259.278	27.197	888.906	710.999
260.293	27.421	887.592	710.763
261.307	27.715	887.112	711.459
262.322	27.204	886.677	709.056
263.336	26.439	884.813	704.526
264.351	25.349	883.094	698.855
265.366	25.509	883.618	699.829
266.380	26.330	884.418	703.598
267.395	26.985	883.316	705.207
268.409	26.910	882.528	704.225
269.424	27.081	881.378	703.905
270.439	27.006	881.447	703.610
271.453	26.817	881.968	703.229
272.468	27.608	880.164	704.787
273.482	27.478	880.320	704.347
274.497	27.020	878.050	700.701
275.512	26.634	878.421	699.445
276.526	26.969	878.603	700.820
277.541	27.424	877.914	701.965
278.555	26.742	877.762	699.154
279.570	26.761	876.555	698.201
280.585	26.960	875.706	698.228
281.599	26.420	875.854	696.206
282.614	26.500	873.221	694.360
283.628	26.332	873.699	694.035
284.643	27.022	872.223	695.444
285.657	26.287	872.592	692.858
286.672	26.186	871.104	691.231
287.687	26.654	870.914	692.807
288.701	26.874	870.161	692.987
289.716	26.412	869.955	690.997
290.730	26.325	868.946	689.802
291.745	26.120	868.346	688.487
292.760	26.104	868.666	688.616
293.774	27.276	868.943	693.245
294.789	27.938	867.188	694.300
295.803	27.599	867.649	693.319
296.818	28.119	865.573	693.570
297.833	27.002	866.304	689.856
298.847	27.017	864.494	688.410
299.862	27.255	865.245	689.848
300.876	27.767	864.904	691.455
301.891	27.658	863.518	689.876
302.906	27.227	863.014	687.782
303.920	27.643	862.330	688.745
304.935	27.761	861.958	688.834
305.949	27.483	862.395	688.073
306.964	27.457	861.050	686.842
307.979	27.349	860.608	686.020
308.993	28.029	860.291	688.270
310.008	27.707	860.634	687.268
311.022	27.219	860.266	685.074
312.037	27.078	858.821	683.335
313.052	27.118	857.336	682.242
314.066	26.556	855.546	678.650
315.081	26.343	854.558	677.010
316.095	27.161	854.887	680.272
317.110	27.466	855.632	681.949
318.125	26.539	854.082	677.185
319.139	25.583	852.860	672.586
320.154	25.454	852.173	671.501
321.168	26.442	852.211	675.160
322.183	27.003	852.438	677.376
323.197	27.160	852.715	678.120
324.212	27.568	850.986	678.203
325.227	27.721	850.213	678.099
326.241	27.056	850.468	675.769
327.256	26.891	849.881	674.628
328.270	27.538	848.929	676.215
329.285	26.753	848.541	672.932
330.300	26.873	847.664	672.624
331.314	27.126	847.450	673.329
332.329	27.245	847.781	673.975
333.343	27.545	847.217	674.577
334.358	27.697	846.799	674.747
335.373	27.741	846.363	674.503
336.387	27.945	846.193	675.060
337.402	28.236	845.175	675.266
338.416	27.857	845.371	673.963
339.431	27.835	844.960	673.494
340.446	28.327	845.333	675.548
341.460	27.876	844.695	673.313
342.475	27.637	844.456	672.181
343.489	28.054	843.423	672.836
344.504	28.243	843.407	673.461
345.519	28.350	843.582	673.932
346.533	28.162	842.401	672.239
347.548	28.268	842.369	672.545
348.562	28.294	842.026	672.306
349.577	28.319	840.238	670.911
350.592	27.997	840.759	670.089
351.606	28.232	839.399	669.805
352.621	28.198	838.541	668.937
353.635	27.889	837.709	667.084
354.650	27.262	836.671	663.910
355.665	26.252	835.601	659.318
356.679	27.362	834.886	662.740
357.694	27.613	834.384	663.196
358.708	27.596	833.853	662.656
359.723	27.766	833.175	662.674
360.738	27.940	832.985	663.097
361.752	28.148	832.873	663.705
362.767	28.380	832.439	664.141
363.781	28.470	832.766	664.668
364.796	28.454	832.600	664.420
365.810	28.892	831.629	665.169
366.825	28.732	831.191	664.183
367.840	28.424	830.166	662.193
368.854	27.928	829.010	659.422
369.869	28.384	828.359	660.490
370.883	27.952	828.808	659.230
371.898	28.097	828.653	659.570
372.913	28.233	828.021	659.499
373.927	27.955	828.019	658.441
374.942	27.916	828.060	658.271
375.956	28.451	826.562	658.947
376.971	28.899	825.565	659.701
377.986	28.588	826.131	658.980
379.000	28.719	825.029	658.512
380.015	28.589	824.664	657.697
381.029	28.358	824.700	656.840
382.044	28.617	823.479	656.734
383.059	28.574	823.178	656.282
384.073	28.944	822.299	656.847
385.088	28.566	822.527	655.618
386.102	28.373	821.677	654.193
387.117	28.646	819.932	653.720
388.132	28.354	817.975	651.064
389.146	27.752	818.383	649.192
390.161	28.322	818.508	651.259
391.175	28.322	818.592	651.270
392.190	28.061	817.630	649.517
393.205	26.763	815.742	643.357
394.219	25.399	813.414	636.637
395.234	25.210	813.443	635.930
396.248	26.672	814.628	641.986
397.263	28.299	815.424	648.323
398.278	28.374	815.027	648.214
399.292	27.933	814.858	646.463
400.307	27.976	814.292	646.107
401.321	28.135	813.382	645.892
402.336	28.287	813.230	646.250
403.350	28.999	813.240	648.714
404.365	29.069	813.375	649.009
405.380	29.400	812.818	649.675
406.394	29.519	812.534	649.808
407.409	29.119	811.807	647.762
408.423	29.405	810.714	647.837
409.438	29.272	811.493	647.933
410.453	29.629	810.377	648.237
411.467	29.257	810.749	647.175
412.482	29.582	809.987	647.648
413.496	29.721	809.851	647.967
414.511	29.434	809.380	646.529
415.526	29.378	809.274	646.191
416.540	29.355	807.928	644.980
417.555	28.715	807.981	642.724
418.569	29.200	807.147	643.700
419.584	29.289	806.055	643.081
420.599	28.886	806.261	641.785
421.613	159.504	1371.705	1792.844
422.628	138.627	1454.005	1792.897
