DTS Sentinel unit serial number:	SN413079Multiplexer serial number:	ORYXHardware model number:	OX4-SRSoftware version number:	ORYX F/W v4.00 Oryx Data Collector v3.7.2.0data status	okinstallation	princeton_trtdifferential loss correction	single-endedforward channel	channel 1reverse channel	N/Adate	2019/09/12time	13:44:11forward acquisition time	60.00reverse acquisition time	0.00gamma	496.2192k internal	0.2292k external	0.2292temperature offset calibration	1.0053default loss term (dB/km)	0.3790temperature slope calibration	1.0000multiplexer offset coefficient	1.0000multiplexer slope coefficient	1.0000fibre end	0.00T internal ref (°C)	41.00T ext. ref 1 (°C)	2.16T ext. ref 2 (°C)	35.52length (m)	temperature (°C)	Stokes	anti-Stokes-747.200	139.227	0.094	-0.127
-746.185	63.194	0.259	0.266
-745.171	-117.453	-0.183	-0.034
-744.156	800.000	0.016	-0.070
-743.142	27.783	-0.140	0.121
-742.127	8.050	-0.089	-0.068
-741.112	-90.624	-0.111	-0.033
-740.098	87.698	0.222	0.252
-739.083	-123.993	-0.213	-0.034
-738.069	-12.820	0.281	0.188
-737.054	119.087	-0.177	-0.224
-736.039	-53.708	0.149	-0.070
-735.025	50.389	0.131	0.127
-734.010	-85.245	-0.291	-0.093
-732.996	-32.204	-0.161	-0.092
-731.981	-161.907	0.257	-0.013
-730.966	28.516	0.129	-0.111
-729.952	-17.632	-0.129	0.083
-728.937	800.000	-0.014	-0.062
-727.923	116.496	-0.086	0.108
-726.908	122.995	-0.070	0.089
-725.894	-104.673	0.191	0.045
-724.879	-42.671	-0.235	-0.123
-723.864	-58.018	-0.155	-0.069
-722.850	-75.039	-0.436	-0.160
-721.835	-151.717	-0.275	0.021
-720.821	236.618	-0.115	-0.196
-719.806	-134.197	-0.143	0.018
-718.791	-84.248	0.253	-0.082
-717.777	-133.219	0.114	-0.015
-716.762	800.000	0.021	-0.065
-715.748	41.382	-0.152	0.140
-714.733	-50.613	0.157	0.076
-713.718	110.289	-0.163	0.200
-712.704	-48.278	-0.181	0.089
-711.689	-88.281	-0.094	-0.029
-710.675	800.000	0.048	-0.142
-709.660	-200.000	-0.004	-0.036
-708.645	59.379	0.230	-0.231
-707.631	32.588	0.118	-0.104
-706.616	-200.000	-0.028	-0.207
-705.602	755.028	0.009	0.024
-704.587	-35.205	0.034	0.019
-703.572	579.534	-0.050	0.125
-702.558	120.343	-0.024	-0.031
-701.543	111.470	-0.128	0.158
-700.529	-200.000	0.017	0.247
-699.514	-111.365	-0.148	-0.031
-698.499	247.831	0.088	-0.152
-697.485	22.428	0.338	-0.283
-696.470	97.193	0.154	-0.181
-695.456	-200.000	-0.038	-0.321
-694.441	308.591	0.055	0.104
-693.426	-116.530	-0.471	-0.089
-692.412	91.056	-0.213	0.244
-691.397	215.926	-0.106	-0.173
-690.383	-200.000	-0.017	-0.117
-689.368	-37.094	0.178	0.097
-688.354	-88.493	-0.166	0.051
-687.339	-153.591	0.027	-0.002
-686.324	83.346	0.081	-0.090
-685.310	150.164	-0.175	-0.242
-684.295	-17.269	-0.240	0.155
-683.281	20.845	-0.228	0.189
-682.266	-168.501	0.177	0.007
-681.251	-200.000	-0.012	-0.118
-680.237	-133.563	-0.159	0.020
-679.222	0.788	-0.299	0.219
-678.208	-200.000	0.010	-0.127
-677.193	-200.000	-0.005	-0.366
-676.178	-67.001	-0.394	0.159
-675.164	32.728	0.127	0.112
-674.149	-155.786	0.181	0.012
-673.135	384.294	0.160	0.337
-672.120	195.697	-0.034	-0.052
-671.105	-53.717	-0.063	-0.029
-670.091	120.249	-0.079	-0.100
-669.076	245.593	0.212	-0.364
-668.062	800.000	-0.099	-0.297
-667.047	149.786	-0.181	-0.251
-666.032	32.602	-0.110	-0.097
-665.018	277.043	0.040	-0.073
-664.003	-191.302	0.449	-0.005
-662.989	-200.000	0.015	-0.118
-661.974	-5.606	-0.057	-0.040
-660.959	119.036	-0.078	0.099
-659.945	-112.274	0.390	0.080
-658.930	-200.000	0.030	-0.281
-657.916	-200.000	-0.025	0.140
-656.901	-86.453	0.364	-0.114
-655.886	338.128	0.100	0.199
-654.872	-200.000	0.024	0.217
-653.857	302.065	-0.135	0.254
-652.843	446.519	0.067	0.151
-651.828	-108.257	0.175	-0.038
-650.814	30.745	0.104	0.091
-649.799	-108.537	-0.236	-0.052
-648.784	-148.403	-0.191	-0.016
-647.770	-35.187	-0.334	-0.185
-646.755	800.000	0.075	-0.260
-645.741	-37.742	0.076	0.041
-644.726	-54.449	0.291	-0.135
-643.711	-67.486	-0.119	0.048
-642.697	-116.193	0.219	0.041
-641.682	-65.841	0.307	0.125
-640.668	-159.814	0.326	0.018
-639.653	359.559	-0.167	-0.340
-638.638	800.000	0.089	-0.265
-637.624	68.461	-0.180	0.188
-636.609	-86.085	-0.119	0.038
-635.595	-13.633	-0.194	-0.128
-634.580	800.000	-0.044	0.137
-633.565	115.859	0.097	-0.121
-632.551	-200.000	0.024	-0.183
-631.536	-84.376	-0.140	-0.045
-630.522	28.371	0.154	0.132
-629.507	-12.327	0.250	0.167
-628.492	-15.516	0.137	-0.089
-627.478	228.652	0.209	-0.347
-626.463	213.894	0.059	0.095
-625.449	-171.481	0.129	0.004
-624.434	-200.000	-0.030	-0.300
-623.419	321.808	0.019	-0.037
-622.405	163.154	-0.204	-0.292
-621.390	-200.000	-0.020	-0.153
-620.376	-84.747	0.135	0.043
-619.361	-80.016	0.193	-0.066
-618.346	-200.000	-0.013	-0.167
-617.332	-106.077	-0.346	0.079
-616.317	-98.793	-0.251	0.065
-615.303	-200.000	0.030	0.183
-614.288	-143.736	-0.194	0.019
-613.273	-155.062	0.321	0.021
-612.259	322.688	0.088	-0.171
-611.244	-200.000	-0.002	0.294
-610.230	19.271	-0.138	-0.113
-609.215	800.000	-0.044	0.146
-608.201	-200.000	0.018	0.297
-607.186	121.862	0.125	-0.159
-606.171	95.621	-0.209	0.242
-605.157	31.362	-0.214	0.187
-604.142	200.151	-0.102	-0.159
-603.128	-129.046	-0.445	0.063
-602.113	273.610	-0.054	0.097
-601.098	-200.000	0.012	0.130
-600.084	1.367	-0.133	-0.097
-599.069	-200.000	-0.006	0.088
-598.055	131.717	0.213	0.278
-597.040	7.707	-0.246	0.188
-596.025	469.986	0.203	0.464
-595.011	18.311	-0.216	0.176
-593.996	717.514	0.064	0.172
-592.982	364.972	-0.048	-0.099
-591.967	123.480	0.042	-0.053
-590.952	-92.178	-0.204	0.059
-589.938	-200.000	-0.014	-0.196
-588.923	-108.219	-0.416	0.092
-587.909	32.941	-0.153	0.135
-586.894	-200.000	0.003	0.254
-585.879	-61.822	-0.092	0.039
-584.865	201.238	0.136	0.213
-583.850	-75.670	-0.394	-0.142
-582.836	648.803	-0.020	0.051
-581.821	-17.609	0.156	-0.100
-580.806	-200.000	-0.005	0.283
-579.792	236.667	-0.114	-0.192
-578.777	-125.670	-0.068	-0.010
-577.763	-43.350	-0.128	0.066
-576.748	183.106	-0.257	-0.386
-575.733	298.925	-0.174	0.326
-574.719	61.284	-0.136	0.138
-573.704	-200.000	-0.024	0.257
-572.690	-87.312	0.235	0.072
-571.675	536.203	-0.085	-0.204
-570.661	-200.000	0.023	-0.130
-569.646	-164.388	-0.234	0.011
-568.631	800.000	-0.032	-0.110
-567.617	69.031	-0.125	-0.130
-566.602	144.702	-0.107	0.145
-565.588	757.081	-0.176	-0.484
-564.573	364.904	0.060	0.124
-563.558	348.157	-0.124	0.249
-562.544	44.567	0.376	0.351
-561.529	717.717	0.053	0.143
-560.515	153.825	-0.147	0.204
-559.500	-81.402	0.396	-0.133
-558.485	-121.450	0.344	0.058
-557.471	42.234	-0.107	-0.099
-556.456	-96.839	0.175	-0.047
-555.442	14.410	0.213	0.169
-554.427	-115.483	0.385	-0.074
-553.412	-200.000	0.072	-0.339
-552.398	163.532	-0.083	-0.118
-551.383	-2.678	-0.071	-0.051
-550.369	-200.000	-0.056	0.291
-549.354	-41.665	-0.396	0.207
-548.339	-134.190	0.260	-0.033
-547.325	421.409	0.060	-0.131
-546.310	617.390	-0.083	-0.211
-545.296	-126.911	-0.074	-0.011
-544.281	12.093	0.126	0.099
-543.266	-27.036	-0.157	0.093
-542.252	-158.579	0.186	-0.011
-541.237	-91.407	0.452	0.131
-540.223	-109.532	0.231	0.049
-539.208	41.040	0.083	-0.076
-538.193	82.231	-0.188	0.207
-537.179	-200.000	0.059	-0.376
-536.164	343.612	0.106	0.211
-535.150	53.365	0.109	0.106
-534.135	44.170	-0.448	-0.417
-533.121	-106.622	-0.084	0.019
-532.106	42.279	0.321	-0.297
-531.091	-200.000	-0.002	0.196
-530.077	735.197	0.031	0.085
-529.062	156.301	0.106	0.149
-528.048	473.087	-0.115	0.264
-527.033	13.487	0.230	0.181
-526.018	48.030	-0.400	-0.379
-525.004	-106.105	-0.271	-0.062
-523.989	-36.374	0.088	0.048
-522.975	-14.211	0.089	-0.058
-521.960	-104.975	0.312	0.073
-520.945	114.367	0.256	0.317
-519.931	-200.000	-0.021	0.171
-518.916	-71.802	0.204	-0.077
-517.902	332.228	0.140	-0.275
-516.887	-64.742	-0.171	0.070
-515.872	512.374	-0.114	0.269
-514.858	-23.728	0.073	0.045
-513.843	-50.681	-0.196	0.094
-512.829	-200.000	-0.050	0.328
-511.814	-66.789	-0.123	0.049
-510.799	800.000	-0.069	0.276
-509.785	265.190	-0.051	-0.089
-508.770	-112.090	-0.161	-0.033
-507.756	-103.425	-0.264	-0.063
-506.741	61.191	-0.107	0.108
-505.726	-200.000	-0.016	-0.520
-504.712	365.082	-0.094	-0.191
-503.697	3.554	-0.072	0.053
-502.683	-121.823	0.153	0.026
-501.668	333.049	0.048	-0.094
-500.653	133.245	0.073	0.096
-499.639	341.901	0.104	0.207
-498.624	-189.138	0.164	0.002
-497.610	-109.245	0.231	0.050
-496.595	-55.644	-0.100	0.045
-495.581	-98.046	-0.400	0.104
-494.566	-37.812	-0.119	-0.064
-493.551	-200.000	0.038	0.190
-492.537	-52.189	-0.337	-0.159
-491.522	-2.338	0.227	0.161
-490.508	-102.760	0.183	-0.044
-489.493	-200.000	0.040	-0.179
-488.478	-123.277	0.113	-0.018
-487.464	141.237	0.075	-0.101
-486.449	78.863	-0.333	-0.361
-485.435	-200.000	-0.014	-0.061
-484.420	-64.521	0.384	0.158
-483.405	-93.872	0.056	0.016
-482.391	-200.000	-0.021	-0.364
-481.376	762.661	-0.063	-0.174
-480.362	-200.000	-0.004	-0.045
-479.347	308.877	0.099	-0.188
-478.332	-101.565	0.182	-0.045
-477.318	233.299	-0.032	-0.053
-476.303	379.056	-0.258	0.536
-475.289	19.787	-0.217	-0.177
-474.274	-200.000	0.029	0.450
-473.259	-200.000	-0.044	0.383
-472.245	135.059	0.064	-0.084
-471.230	91.731	0.216	0.246
-470.216	800.000	0.096	-0.343
-469.201	204.573	-0.173	0.272
-468.186	-52.624	-0.058	0.027
-467.172	-123.409	-0.174	0.028
-466.157	4.249	-0.257	0.191
-465.143	800.000	0.023	-0.094
-464.128	131.298	0.185	-0.240
-463.113	52.152	0.160	-0.155
-462.099	100.263	0.067	-0.078
-461.084	-71.164	-0.331	-0.126
-460.070	777.107	-0.093	-0.258
-459.055	800.000	0.053	-0.172
-458.040	-200.000	-0.062	-0.280
-457.026	-180.824	-0.119	-0.002
-456.011	-146.580	0.202	-0.018
-454.997	0.515	-0.387	0.280
-453.982	800.000	0.063	-0.270
-452.968	56.697	-0.153	-0.151
-451.953	-200.000	-0.003	0.417
-450.938	226.596	0.210	0.345
-449.924	31.471	-0.077	0.067
-448.909	-72.437	0.356	0.133
-447.895	2.413	0.241	-0.177
-446.880	229.692	-0.087	0.143
-445.865	-87.449	0.159	0.049
-444.851	-108.856	0.099	-0.021
-443.836	9.192	0.232	0.177
-442.822	139.686	-0.181	0.242
-441.807	123.412	-0.140	0.178
-440.792	-200.000	-0.013	-0.252
-439.778	75.094	-0.109	-0.116
-438.763	-200.000	0.012	-0.156
-437.749	296.793	-0.051	-0.094
-436.734	409.382	0.100	-0.215
-435.719	-200.000	-0.005	-0.124
-434.705	-70.081	-0.093	0.036
-433.690	-200.000	0.008	-0.187
-432.676	-41.409	0.307	-0.160
-431.661	-58.418	0.221	0.097
-430.646	-200.000	-0.002	-0.027
-429.632	-36.040	-0.167	0.091
-428.617	-140.289	-0.064	0.007
-427.603	-47.455	0.170	0.084
-426.588	175.635	0.076	-0.112
-425.573	261.844	-0.172	0.302
-424.559	-200.000	-0.007	-0.152
-423.544	-74.660	-0.217	-0.079
-422.530	49.241	-0.132	-0.126
-421.515	-200.000	-0.023	-0.349
-420.500	-200.000	-0.022	0.159
-419.486	-200.000	-0.009	0.239
-418.471	15.498	-0.288	-0.228
-417.457	-151.140	-0.130	0.010
-416.442	-33.947	0.189	0.105
-415.428	55.877	0.100	-0.098
-414.413	-101.232	-0.135	0.033
-413.398	-200.000	0.047	0.408
-412.384	-200.000	-0.014	0.268
-411.369	-68.390	-0.322	-0.126
-410.355	-199.224	0.070	-0.000
-409.340	-200.000	0.024	0.144
-408.325	4.572	-0.266	0.197
-407.311	634.173	-0.189	-0.484
-406.296	-65.040	-0.211	-0.086
-405.282	-165.387	0.108	0.005
-404.267	-200.000	-0.038	0.333
-403.252	800.000	0.099	-0.320
-402.238	-200.000	0.030	-0.527
-401.223	-91.368	-0.292	0.084
-400.209	354.677	0.188	0.377
-399.194	87.624	0.248	0.278
-398.179	-95.852	-0.182	-0.049
-397.165	800.000	-0.079	0.346
-396.150	78.323	0.176	0.190
-395.136	-199.975	0.284	-0.001
-394.121	-190.041	0.073	-0.001
-393.106	533.031	0.121	0.290
-392.092	214.055	-0.185	0.296
-391.077	120.007	-0.190	-0.238
-390.063	-200.000	-0.084	-0.399
-389.048	85.328	0.135	-0.150
-388.033	-61.965	-0.120	0.050
-387.019	-20.437	0.081	-0.050
-386.004	196.342	0.126	0.194
-384.990	234.777	-0.259	-0.432
-383.975	33.881	0.044	-0.038
-382.960	800.000	0.067	0.236
-381.946	-132.694	0.155	0.020
-380.931	-28.933	-0.379	0.220
-379.917	-200.000	0.002	-0.341
-378.902	9.766	-0.242	-0.185
-377.888	-60.392	0.064	-0.028
-376.873	543.284	0.090	-0.217
-375.858	800.000	0.060	0.229
-374.844	232.665	-0.054	0.089
-373.829	-200.000	-0.006	-0.098
-372.815	-200.000	-0.012	-0.124
-371.800	229.638	-0.102	-0.169
-370.785	-45.792	-0.155	0.077
-369.771	800.000	-0.014	0.056
-368.756	58.196	0.044	-0.044
-367.742	-104.054	0.028	0.007
-366.727	307.838	-0.096	-0.180
-365.712	800.000	-0.075	-0.289
-364.698	-200.000	0.037	-0.286
-363.683	-50.159	0.129	0.062
-362.669	20.543	-0.235	0.192
-361.654	31.738	0.166	0.144
-360.639	72.304	0.218	-0.229
-359.625	-19.049	0.060	-0.037
-358.610	-120.603	-0.171	-0.029
-357.596	14.822	0.035	-0.028
-356.581	221.338	0.165	0.268
-355.566	-98.633	-0.128	0.033
-354.552	-129.603	-0.210	0.029
-353.537	-200.000	-0.004	0.316
-352.523	267.933	-0.056	0.099
-351.508	506.898	-0.031	0.073
-350.493	12.340	-0.198	-0.153
-349.479	800.000	-0.156	0.546
-348.464	-157.908	-0.305	0.018
-347.450	26.310	0.257	-0.217
-346.435	369.788	-0.085	-0.174
-345.420	470.493	-0.010	-0.023
-344.406	208.767	-0.189	-0.298
-343.391	214.365	0.058	-0.093
-342.377	18.140	0.152	0.123
-341.362	223.063	0.167	0.271
-340.348	68.267	0.085	0.087
-339.333	-200.000	-0.067	0.336
-338.318	14.107	-0.255	0.200
-337.304	-105.703	-0.145	0.033
-336.289	800.000	0.118	0.408
-335.275	800.000	-0.114	-0.377
-334.260	-9.286	0.165	-0.111
-333.245	257.305	0.197	0.341
-332.231	167.211	-0.161	0.230
-331.216	67.234	-0.091	-0.094
-330.202	-101.881	-0.351	-0.086
-329.187	-112.746	-0.151	0.030
-328.172	-200.000	0.008	0.076
-327.158	-8.818	-0.074	0.050
-326.143	420.972	-0.067	0.144
-325.129	-50.802	-0.121	0.057
-324.114	544.122	-0.047	0.114
-323.099	225.179	0.073	-0.118
-322.085	-177.908	-0.201	-0.005
-321.070	-200.000	0.021	0.110
-320.056	562.123	-0.171	-0.418
-319.041	-11.846	0.039	-0.026
-318.026	-46.409	0.306	-0.151
-317.012	79.067	0.065	0.070
-315.997	73.682	0.328	0.346
-314.983	800.000	0.098	0.355
-313.968	-117.324	0.319	-0.058
-312.953	-62.929	-0.191	0.080
-311.939	2.697	0.113	-0.083
-310.924	-200.000	0.040	0.385
-309.910	47.972	0.114	0.107
-308.895	-120.197	0.349	-0.060
-307.880	193.748	0.175	0.267
-306.866	108.362	-0.066	-0.079
-305.851	520.061	-0.157	-0.370
-304.837	6.426	0.079	-0.059
-303.822	43.514	0.049	-0.045
-302.807	-148.140	0.115	0.010
-301.793	800.000	-0.109	0.352
-300.778	800.000	-0.078	-0.239
-299.764	686.163	-0.038	0.100
-298.749	-200.000	-0.007	-0.068
-297.735	-66.619	0.081	0.032
-296.720	800.000	-0.046	-0.163
-295.705	80.296	-0.060	0.065
-294.691	293.101	0.127	0.232
-293.676	57.626	0.207	-0.204
-292.662	-63.783	0.209	-0.086
-291.647	-23.449	-0.256	-0.155
-290.632	17.124	0.202	-0.161
-289.618	7.575	-0.040	-0.030
-288.603	-127.183	-0.374	0.055
-287.589	200.187	-0.110	-0.171
-286.574	612.991	0.179	-0.451
-285.559	57.918	0.267	-0.263
-284.545	-76.704	-0.298	-0.105
-283.530	-26.275	-0.189	-0.112
-282.516	24.337	0.166	-0.138
-281.501	-96.127	0.577	-0.154
-280.486	56.042	0.273	0.266
-279.472	-30.472	0.087	-0.050
-278.457	205.486	0.132	-0.206
-277.443	-200.000	0.008	0.076
-276.428	498.326	0.130	-0.300
-275.413	92.654	-0.078	0.088
-274.399	-156.764	-0.250	-0.016
-273.384	85.470	-0.239	0.264
-272.370	104.415	-0.172	-0.204
-271.355	800.000	0.018	-0.065
-270.340	800.000	-0.117	-0.402
-269.326	-200.000	0.010	0.100
-268.311	-200.000	0.020	0.100
-267.297	-63.701	-0.296	0.122
-266.282	-200.000	-0.006	-0.052
-265.267	-120.878	0.109	0.018
-264.253	363.477	0.201	0.406
-263.238	-101.159	-0.326	-0.080
-262.224	-200.000	-0.006	0.225
-261.209	-200.000	0.001	-0.021
-260.195	-119.672	-0.199	-0.034
-259.180	159.748	0.137	0.191
-258.165	-26.370	0.210	-0.124
-257.151	-126.108	-0.110	-0.017
-256.136	800.000	-0.072	-0.218
-255.122	-124.792	-0.093	-0.014
-254.107	58.289	0.268	-0.264
-253.092	-7.485	0.174	-0.118
-252.078	-135.664	0.199	-0.024
-251.063	-200.000	0.004	0.408
-250.049	-200.000	-0.092	0.526
-249.034	-79.169	-0.300	0.102
-248.019	-200.000	-0.000	-0.210
-247.005	-79.078	0.157	-0.054
-245.990	124.471	-0.107	-0.135
-244.976	-108.621	0.218	-0.047
-243.961	156.728	-0.049	-0.067
-242.946	100.218	-0.102	-0.119
-241.932	800.000	0.075	-0.211
-240.917	610.338	-0.039	-0.099
-239.903	9.068	-0.111	-0.084
-238.888	139.431	-0.093	-0.122
-237.873	13.006	-0.116	0.090
-236.859	49.494	-0.074	0.070
-235.844	256.209	-0.207	-0.357
-234.830	366.704	-0.110	0.223
-233.815	-113.461	0.140	0.028
-232.800	-169.131	-0.121	0.005
-231.786	634.110	-0.031	-0.078
-230.771	-134.975	0.248	-0.030
-229.757	-97.070	-0.062	0.016
-228.742	-3.752	-0.202	0.141
-227.727	576.333	-0.050	-0.122
-226.713	800.000	-0.054	-0.177
-225.698	-200.000	-0.035	-0.168
-224.684	435.542	-0.040	0.088
-223.669	366.834	0.025	-0.050
-222.655	-52.758	0.023	-0.011
-221.640	-69.805	-0.254	-0.097
-220.625	215.685	0.187	0.298
-219.611	-47.133	-0.257	-0.126
-218.596	4.723	0.215	0.158
-217.582	-16.132	0.427	0.272
-216.567	-104.358	0.282	0.066
-215.552	-102.685	-0.198	0.047
-214.538	-78.547	0.237	-0.081
-213.523	-44.930	-0.122	0.061
-212.509	597.169	-0.043	0.107
-211.494	-35.917	0.178	0.096
-210.479	-200.000	0.044	0.279
-209.465	-62.176	0.063	-0.026
-208.450	4.203	0.169	-0.124
-207.436	346.450	-0.133	0.261
-206.421	-30.134	0.357	0.203
-205.406	-88.672	0.173	0.052
-204.392	58.023	0.076	-0.074
-203.377	800.000	0.067	0.188
-202.363	-200.000	0.013	0.297
-201.348	56.407	0.125	-0.122
-200.333	800.000	-0.020	-0.070
-199.319	-134.294	0.415	0.051
-198.304	-200.000	0.021	-0.270
-197.290	-26.663	-0.262	-0.154
-196.275	-200.000	-0.018	0.180
-195.260	800.000	0.053	-0.219
-194.246	2.998	0.403	-0.293
-193.231	-200.000	0.022	-0.251
-192.217	231.888	0.036	0.059
-191.202	748.102	-0.042	-0.113
-190.187	-67.130	0.115	0.045
-189.173	78.938	0.093	-0.100
-188.158	-16.706	-0.142	0.090
-187.144	-116.466	0.133	-0.025
-186.129	93.322	-0.071	0.080
-185.114	-180.903	0.194	-0.004
-184.100	66.215	-0.014	-0.015
-183.085	800.000	-0.031	-0.087
-182.071	-37.333	-0.326	-0.175
-181.056	-116.597	0.309	0.057
-180.042	-49.483	0.219	0.105
-179.027	159.797	0.222	-0.310
-178.012	546.230	0.075	-0.180
-176.998	-9.680	-0.178	0.119
-175.983	95.157	0.194	0.221
-174.969	-78.429	-0.089	0.031
-173.954	436.782	-0.113	-0.246
-172.939	-137.548	0.322	0.036
-171.925	-75.221	0.239	-0.085
-170.910	419.590	-0.195	-0.418
-169.896	-85.196	0.180	-0.056
-168.881	-0.998	-0.222	-0.157
-167.866	146.674	0.038	0.052
-166.852	-47.542	-0.128	0.062
-165.837	52.310	-0.198	0.189
-164.823	-67.870	0.287	0.112
-163.808	38.813	-0.206	0.184
-162.793	-14.907	0.148	0.095
-161.779	-29.061	0.118	-0.068
-160.764	542.347	-0.022	-0.052
-159.750	-25.253	0.116	-0.069
-158.735	-52.234	0.259	-0.120
-157.720	-124.596	-0.087	-0.014
-156.706	-200.000	-0.049	0.263
-155.691	5.848	-0.246	-0.182
-154.677	25.913	0.065	-0.054
-153.662	-200.000	0.052	-0.568
-152.647	-3.079	-0.079	-0.055
-151.633	-131.914	0.517	0.068
-150.618	78.687	0.160	0.171
-149.604	-142.893	-0.166	0.016
-148.589	-128.573	-0.111	0.016
-147.574	-52.904	0.231	0.107
-146.560	-26.643	0.022	-0.013
-145.545	143.801	-0.125	-0.167
-144.531	-145.679	-0.117	0.010
-143.516	-79.974	0.018	-0.006
-142.502	362.189	0.162	0.325
-141.487	-92.424	0.098	0.027
-140.472	-19.938	-0.245	0.151
-139.458	-3.264	-0.368	-0.257
-138.443	-131.203	0.292	0.039
-137.429	800.000	0.077	0.259
-136.414	-200.000	0.008	0.169
-135.399	-124.535	0.112	-0.017
-134.385	285.334	-0.063	-0.114
-133.370	-136.644	-0.102	0.012
-132.356	-143.359	-0.126	-0.012
-131.341	-107.373	-0.148	-0.032
-130.326	-48.467	0.358	-0.172
-129.312	221.826	-0.128	0.206
-128.297	-100.520	-0.261	0.065
-127.283	93.417	0.086	0.098
-126.268	-87.054	0.050	-0.015
-125.253	267.632	0.227	0.398
-124.239	-186.139	-0.269	0.004
-123.224	-157.857	-0.161	0.010
-122.210	112.493	0.216	0.261
-121.195	13.725	0.266	0.206
-120.180	800.000	-0.103	-0.403
-119.166	34.286	0.172	-0.150
-118.151	471.077	0.026	-0.059
-117.137	160.002	0.396	0.551
-116.122	-53.486	-0.062	-0.028
-115.107	-129.105	0.320	0.045
-114.093	-36.177	0.233	-0.125
-113.078	137.083	-0.109	-0.142
-112.064	328.448	0.025	0.049
-111.049	-85.764	-0.381	0.118
-110.034	-63.912	0.341	0.139
-109.020	-152.458	0.353	-0.025
-108.005	130.890	-0.089	0.114
-106.991	-151.991	0.092	0.007
-105.976	800.000	0.144	0.528
-104.962	-200.000	0.004	0.333
-103.947	298.496	-0.125	0.230
-102.932	800.000	-0.068	-0.199
-101.918	34.938	0.143	0.125
-100.903	-200.000	0.079	0.000
-99.889	-200.000	0.060	0.319
-98.874	12.450	-0.088	-0.068
-97.859	800.000	-0.045	-0.189
-96.845	-80.474	-0.135	-0.045
-95.830	161.455	-0.154	-0.215
-94.816	191.844	0.106	-0.160
-93.801	-100.245	0.203	-0.050
-92.786	-200.000	0.006	0.081
-91.772	-13.167	-0.316	-0.205
-90.757	476.975	-0.072	0.162
-89.743	83.692	-0.162	-0.177
-88.728	-75.572	0.306	-0.109
-87.713	674.686	0.128	0.332
-86.699	-123.059	0.277	0.044
-85.684	95.935	-0.044	0.050
-84.670	-154.856	-0.401	0.026
-83.655	5.894	-0.094	0.070
-82.640	-149.280	0.124	0.010
-81.626	-130.392	-0.134	0.018
-80.611	119.961	-0.172	0.212
-79.597	151.964	0.234	0.319
-78.582	-76.570	-0.336	0.118
-77.567	-123.533	0.135	0.021
-76.553	199.855	0.062	0.095
-75.538	379.765	-0.031	-0.063
-74.524	128.193	-0.092	-0.117
-73.509	-109.605	-0.217	-0.046
-72.494	275.069	0.044	-0.077
-71.480	-200.000	-0.016	-0.288
-70.465	-45.245	0.035	0.017
-69.451	-177.788	-0.200	0.005
-68.436	67.166	-0.129	0.132
-67.422	263.355	0.122	0.211
-66.407	-16.393	-0.274	0.173
-65.392	-200.000	0.004	-0.136
-64.378	-200.000	0.063	0.490
-63.363	121.576	-0.059	0.073
-62.349	-88.369	0.228	0.068
-61.334	-42.562	-0.904	-0.459
-60.319	435.523	0.336	0.729
-59.305	-200.000	0.074	-0.482
-58.290	447.655	0.472	1.035
-57.276	-200.000	0.335	1.588
-56.261	-200.000	76.338	514.594
-55.246	525.294	1326.181	3110.451
-54.232	146.543	2556.265	3421.625
-53.217	118.108	2226.204	2734.366
-52.203	52.936	1672.445	1594.199
-51.188	44.765	1397.334	1280.817
-50.173	41.189	1351.116	1216.611
-49.159	59.706	1385.994	1362.515
-48.144	66.458	1405.050	1422.746
-47.130	45.223	1367.794	1256.360
-46.115	41.139	1351.071	1216.073
-45.100	40.867	1347.184	1210.866
-44.086	40.782	1344.373	1207.775
-43.071	40.820	1341.646	1205.511
-42.057	40.698	1339.614	1202.898
-41.042	40.901	1337.986	1202.616
-40.027	40.839	1336.784	1201.111
-39.013	40.873	1334.335	1199.071
-37.998	40.953	1332.714	1198.049
-36.984	40.891	1331.156	1196.225
-35.969	40.961	1329.302	1194.933
-34.954	40.894	1327.709	1193.051
-33.940	41.039	1326.177	1192.493
-32.925	41.016	1324.638	1190.928
-31.911	41.136	1323.362	1190.450
-30.896	41.126	1321.532	1188.698
-29.881	41.169	1319.793	1187.345
-28.867	41.100	1319.074	1186.238
-27.852	41.181	1317.289	1185.066
-26.838	41.166	1315.887	1183.668
-25.823	41.114	1314.847	1182.375
-24.809	41.114	1313.475	1181.100
-23.794	41.089	1311.641	1179.256
-22.779	41.108	1310.830	1178.592
-21.765	41.177	1309.094	1177.388
-20.750	41.057	1308.058	1175.702
-19.736	40.868	1306.977	1173.567
-18.721	41.019	1305.261	1172.869
-17.706	41.017	1303.936	1171.621
-16.692	40.988	1302.514	1170.126
-15.677	40.956	1301.978	1169.410
-14.663	40.915	1300.852	1168.115
-13.648	40.913	1299.694	1167.012
-12.633	41.011	1298.525	1166.496
-11.619	40.926	1297.765	1165.265
-10.604	40.895	1296.999	1164.348
-9.590	40.976	1295.849	1163.746
-8.575	40.940	1295.010	1162.735
-7.560	40.964	1293.813	1161.753
-6.546	40.913	1293.010	1160.693
-5.531	40.791	1292.531	1159.504
-4.517	40.886	1291.830	1159.381
-3.502	41.006	1290.225	1158.594
-2.487	40.923	1289.464	1157.380
-1.473	40.963	1285.664	1154.157
-0.458	39.630	1269.924	1132.332
0.556	35.614	1249.488	1087.215
1.571	31.129	1252.623	1064.331
2.586	29.901	1267.292	1069.608
3.600	28.646	1256.668	1053.349
4.615	20.840	1179.879	946.656
5.629	8.585	1095.069	816.342
6.644	2.674	1070.998	768.756
7.659	2.166	1068.470	764.331
8.673	1.964	1066.854	762.096
9.688	1.848	1065.493	760.481
10.702	2.357	1064.284	762.085
11.717	9.206	1074.338	803.569
12.731	20.298	1090.655	871.724
13.746	25.388	1096.215	901.717
14.761	25.500	1097.091	902.920
15.775	25.540	1096.223	902.330
16.790	25.323	1095.249	900.356
17.804	25.224	1094.420	899.098
18.819	25.395	1093.980	899.515
19.834	25.562	1093.886	900.193
20.848	25.555	1093.378	899.662
21.863	25.435	1092.450	898.220
22.877	25.479	1092.081	898.058
23.892	25.251	1091.495	896.355
24.907	25.395	1090.404	896.100
25.921	25.348	1089.463	895.012
26.936	25.503	1087.901	894.420
27.950	25.285	1086.591	892.184
28.965	25.265	1084.933	890.641
29.980	25.298	1083.570	889.609
30.994	25.419	1082.537	889.281
32.009	25.450	1081.800	888.749
33.023	25.136	1080.472	886.028
34.038	25.289	1079.278	885.728
35.053	25.418	1078.599	885.725
36.067	25.515	1077.738	885.420
37.082	25.490	1077.518	885.036
38.096	25.698	1076.481	885.133
39.111	25.812	1075.699	884.967
40.126	25.581	1074.482	882.756
41.140	25.191	1072.577	879.204
42.155	24.999	1071.594	877.376
43.169	25.136	1070.473	877.054
44.184	25.027	1069.742	875.841
45.199	25.023	1068.447	874.684
46.213	25.028	1068.037	874.299
47.228	25.171	1067.383	874.384
48.242	25.259	1066.401	873.928
49.257	25.354	1066.198	874.149
50.271	25.417	1065.011	873.402
51.286	25.548	1064.200	873.296
52.301	25.514	1063.234	872.263
53.315	25.452	1061.817	870.723
54.330	25.324	1061.560	869.813
55.344	25.381	1060.738	869.340
56.359	25.374	1059.891	868.534
57.374	25.196	1058.532	866.484
58.388	25.140	1058.460	866.081
59.403	25.133	1057.357	865.067
60.417	24.905	1056.281	863.011
61.432	25.073	1055.593	863.181
62.447	25.214	1054.982	863.285
63.461	25.233	1054.170	862.632
64.476	25.091	1053.444	861.278
65.490	25.037	1052.352	860.052
66.505	24.965	1051.821	859.197
67.520	25.052	1051.314	859.123
68.534	24.960	1050.149	857.657
69.549	24.663	1048.582	854.883
70.563	24.611	1048.519	854.505
71.578	24.591	1047.101	853.179
72.593	24.380	1046.096	851.276
73.607	24.562	1045.537	851.614
74.622	24.883	1045.566	853.090
75.636	24.932	1044.984	852.776
76.651	24.814	1044.045	851.371
77.666	24.745	1042.977	850.096
78.680	24.857	1042.414	850.096
79.695	24.886	1042.060	849.870
80.709	25.052	1041.270	849.938
81.724	25.031	1040.113	848.817
82.739	25.022	1039.349	848.076
83.753	25.350	1039.409	849.604
84.768	25.735	1038.898	850.932
85.782	25.836	1037.497	850.183
86.797	25.735	1036.515	848.827
87.812	25.605	1035.408	847.236
88.826	25.730	1034.677	847.150
89.841	25.756	1033.657	846.360
90.855	25.794	1032.484	845.503
91.870	25.717	1031.417	844.198
92.884	25.496	1030.699	842.500
93.899	25.543	1029.535	841.691
94.914	25.688	1029.205	842.024
95.928	25.485	1027.864	839.906
96.943	25.365	1027.017	838.581
97.957	25.101	1025.642	836.153
98.972	25.005	1024.410	834.625
99.987	25.090	1024.175	834.755
101.001	25.387	1023.160	835.234
102.016	25.368	1022.249	834.331
103.030	25.211	1021.423	832.855
104.045	25.163	1020.217	831.576
105.060	25.035	1019.706	830.490
106.074	25.103	1019.110	830.245
107.089	25.466	1018.604	831.440
108.103	25.368	1017.515	830.024
109.118	25.112	1016.486	827.928
110.133	25.137	1015.054	826.808
111.147	24.773	1014.594	824.682
112.162	24.930	1012.906	823.958
113.176	25.055	1012.875	824.436
114.191	24.964	1012.129	823.336
115.206	24.592	1010.781	820.460
116.220	24.684	1009.886	820.081
117.235	24.863	1009.450	820.478
118.249	24.766	1008.534	819.216
119.264	24.670	1007.498	817.859
120.279	24.779	1006.604	817.563
121.293	24.770	1006.049	816.999
122.308	24.857	1005.309	816.721
123.322	24.750	1004.032	815.123
124.337	24.579	1003.138	813.547
125.352	24.190	1001.162	810.105
126.366	24.025	1000.680	808.892
127.381	24.734	1000.469	811.873
128.395	25.268	1000.020	813.856
129.410	25.294	999.435	813.427
130.424	25.469	997.753	812.778
131.439	25.442	997.045	812.006
132.454	25.379	996.275	811.024
133.468	25.282	995.422	809.819
134.483	25.417	995.013	810.025
135.497	25.671	993.961	810.242
136.512	25.473	993.087	808.565
137.527	25.536	992.304	808.137
138.541	25.718	991.655	808.358
139.556	25.621	990.792	807.149
140.570	25.744	989.994	806.976
141.585	25.755	989.234	806.336
142.600	25.663	988.074	804.905
143.614	25.861	987.392	805.164
144.629	25.898	986.620	804.627
145.643	25.693	985.625	802.831
146.658	25.598	984.204	801.178
147.673	25.664	982.477	799.999
148.687	25.488	981.978	798.738
149.702	25.337	980.857	797.087
150.716	25.382	979.814	796.365
151.731	25.458	979.243	796.167
152.746	25.684	978.520	796.511
153.760	25.808	978.229	796.752
154.775	25.857	977.579	796.369
155.789	25.878	976.279	795.334
156.804	25.755	975.450	794.041
157.819	25.772	974.718	793.453
158.833	25.834	974.270	793.289
159.848	25.937	972.949	792.597
160.862	25.776	971.717	790.818
161.877	25.731	970.912	789.892
162.892	25.850	969.791	789.436
163.906	25.682	968.779	787.804
164.921	25.676	968.103	787.158
165.935	25.735	967.205	786.617
166.950	25.656	966.455	785.591
167.964	25.749	965.259	784.959
168.979	25.426	964.655	782.987
169.994	25.542	963.398	782.406
171.008	25.749	963.096	782.992
172.023	25.677	962.752	782.329
173.037	25.616	961.019	780.587
174.052	25.393	960.417	779.063
175.067	25.585	959.475	779.060
176.081	25.667	959.012	778.968
177.096	25.515	958.476	777.808
178.110	25.232	957.665	775.856
179.125	25.154	956.220	774.281
180.140	25.168	955.959	774.062
181.154	25.260	956.134	774.531
182.169	25.603	955.917	775.765
183.183	25.684	955.696	775.868
184.198	25.709	954.268	774.747
185.213	25.593	953.514	773.569
186.227	25.811	953.243	774.216
187.242	25.827	952.002	773.209
188.256	25.851	951.635	772.947
189.271	25.826	951.034	772.285
190.286	25.612	949.647	770.173
191.300	25.028	948.178	766.414
192.315	24.328	946.401	761.920
193.329	24.022	946.409	760.555
194.344	25.026	946.945	765.206
195.359	25.535	947.004	767.361
196.373	25.685	946.355	767.404
197.388	25.631	945.649	766.536
198.402	25.663	945.133	766.184
199.417	25.783	944.369	766.007
200.432	25.360	943.830	763.705
201.446	25.326	942.439	762.365
202.461	25.324	942.214	762.110
203.475	24.504	940.250	756.977
204.490	23.652	938.980	752.280
205.504	24.504	939.253	756.043
206.519	25.401	938.889	759.477
207.534	25.513	938.386	759.474
208.548	25.728	938.399	760.330
209.563	25.506	937.567	758.647
210.577	25.449	936.822	757.739
211.592	25.935	936.544	759.497
212.607	25.889	935.817	758.646
213.621	25.939	934.819	757.979
214.636	25.902	934.606	757.581
215.650	25.797	933.843	756.456
216.665	25.895	933.279	756.345
217.680	25.895	932.194	755.397
218.694	25.407	931.212	752.493
219.709	25.257	930.691	751.375
220.723	25.465	930.522	752.045
221.738	25.676	929.789	752.268
222.753	25.678	928.829	751.431
223.767	25.790	928.713	751.740
224.782	26.000	928.397	752.293
225.796	25.974	927.534	751.419
226.811	25.329	926.504	747.832
227.826	24.537	925.032	743.284
228.840	24.840	924.426	743.992
229.855	24.893	923.879	743.707
230.869	24.587	922.718	741.437
231.884	24.894	922.782	742.695
232.899	25.670	922.939	745.973
233.913	25.597	922.225	745.029
234.928	25.448	921.932	744.109
235.942	25.380	921.117	743.104
236.957	25.263	919.934	741.599
237.972	25.153	919.613	740.820
238.986	25.188	919.119	740.501
240.001	25.408	918.340	740.715
241.015	25.410	918.006	740.388
242.030	25.516	918.046	740.791
243.045	25.609	917.340	740.539
244.059	25.719	916.844	740.529
245.074	25.605	915.617	739.003
246.088	25.230	914.858	736.787
247.103	25.445	914.581	737.381
248.117	26.169	914.311	740.063
249.132	26.328	914.057	740.446
250.147	26.523	913.470	740.701
251.161	26.550	913.145	740.482
252.176	26.568	912.370	739.863
253.190	26.575	912.040	739.558
254.205	26.611	911.803	739.450
255.220	26.647	910.851	738.758
256.234	26.632	909.822	737.796
257.249	26.386	909.339	736.336
258.263	26.499	908.473	736.030
259.278	26.589	907.892	735.861
260.293	26.640	907.128	735.382
261.307	26.561	906.553	734.533
262.322	26.291	905.828	732.784
263.336	25.597	903.844	728.307
264.351	24.648	901.901	722.840
265.366	24.760	901.786	723.136
266.380	25.749	902.236	727.433
267.395	26.154	902.357	729.101
268.409	26.122	901.373	728.111
269.424	26.271	901.333	728.616
270.439	26.234	900.557	727.774
271.453	26.383	899.614	727.549
272.468	26.480	899.559	727.832
273.482	26.700	898.969	728.174
274.497	26.174	897.673	724.945
275.512	25.806	897.006	722.867
276.526	26.170	897.123	724.360
277.541	26.441	896.381	724.782
278.555	26.235	895.600	723.259
279.570	26.117	895.077	722.304
280.585	26.342	894.144	722.384
281.599	26.309	893.273	721.486
282.614	25.752	891.985	718.162
283.628	25.659	891.803	717.579
284.643	25.978	891.315	718.393
285.657	25.570	890.386	715.960
286.672	25.250	889.598	713.989
287.687	26.013	889.128	716.579
288.701	25.929	889.022	716.099
289.716	25.562	887.979	713.740
290.730	25.582	887.385	713.278
291.745	25.332	886.334	711.380
292.760	25.493	886.735	712.275
293.774	26.519	887.408	716.819
294.789	26.974	886.527	717.844
295.803	26.883	885.870	716.891
296.818	26.855	885.456	716.379
297.833	26.358	884.166	713.314
298.847	26.305	883.283	712.330
299.862	26.711	883.296	713.876
300.876	26.868	883.080	714.256
301.891	26.693	882.371	712.928
302.906	26.466	881.059	710.916
303.920	26.492	881.261	711.120
304.935	27.022	880.530	712.546
305.949	26.872	880.041	711.499
306.964	26.634	879.542	710.097
307.979	26.628	878.556	709.216
308.993	27.106	878.305	710.823
310.008	27.053	877.911	710.234
311.022	26.708	877.407	708.415
312.037	26.551	876.660	707.133
313.052	26.161	875.988	705.006
314.066	25.423	874.118	700.564
315.081	25.046	873.213	698.308
316.095	25.864	873.785	701.889
317.110	26.438	873.614	703.927
318.125	25.680	871.835	699.486
319.139	24.619	870.265	694.047
320.154	24.551	870.120	693.605
321.168	25.466	870.813	697.649
322.183	26.240	870.330	700.204
323.197	26.375	870.403	700.721
324.212	26.545	870.011	701.004
325.227	26.700	869.325	700.987
326.241	26.532	868.837	699.885
327.256	26.388	868.106	698.677
328.270	26.442	867.123	698.031
329.285	26.164	866.420	696.331
330.300	25.905	865.656	694.659
331.314	26.180	865.579	695.595
332.329	26.598	865.314	696.927
333.343	26.887	864.738	697.516
334.358	26.653	864.508	696.367
335.373	26.795	864.156	696.569
336.387	26.920	864.646	697.384
337.402	27.137	864.428	697.979
338.416	26.986	863.770	696.807
339.431	27.222	863.338	697.299
340.446	27.450	863.080	697.905
341.460	27.291	862.402	696.685
342.475	27.002	862.036	695.221
343.489	27.075	861.638	695.119
344.504	27.416	861.225	696.027
345.519	27.646	860.928	696.605
346.533	27.624	860.481	696.097
347.548	27.567	860.002	695.431
348.562	27.475	859.582	694.678
349.577	27.591	858.334	694.049
350.592	27.503	857.700	693.144
351.606	27.377	857.162	692.166
352.621	27.261	856.299	690.968
353.635	27.323	855.690	690.648
354.650	26.678	854.268	686.996
355.665	25.639	852.635	681.689
356.679	26.003	852.565	682.950
357.694	26.700	851.758	684.880
358.708	26.353	851.657	683.425
359.723	26.704	851.486	684.555
360.738	26.981	851.286	685.379
361.752	27.316	850.798	686.189
362.767	27.580	850.186	686.630
363.781	27.955	849.936	687.778
364.796	27.942	849.525	687.336
365.810	27.905	849.100	686.794
366.825	27.919	848.735	686.488
367.840	27.596	847.919	684.557
368.854	27.199	847.051	682.303
369.869	27.349	846.571	682.420
370.883	27.304	845.839	681.602
371.898	27.225	845.566	681.025
372.913	27.172	845.766	680.926
373.927	27.379	844.940	680.975
374.942	27.584	844.611	681.417
375.956	27.675	844.234	681.393
376.971	27.773	843.480	681.091
377.986	27.899	843.268	681.329
379.000	27.874	842.870	680.855
380.015	27.738	842.003	679.585
381.029	27.824	841.639	679.552
382.044	27.993	841.118	679.703
383.059	27.931	840.414	678.843
384.073	27.974	839.998	678.604
385.088	27.912	839.203	677.672
386.102	27.691	838.291	676.056
387.117	27.631	837.727	675.322
388.132	27.186	836.991	673.021
389.146	26.708	835.715	670.168
390.161	27.167	835.713	671.804
391.175	27.676	835.579	673.517
392.190	27.298	834.506	671.197
393.205	25.874	832.435	664.227
394.219	24.272	830.733	656.915
395.234	24.318	830.296	656.677
396.248	25.832	831.765	663.363
397.263	27.360	832.896	669.835
398.278	27.467	832.416	669.781
399.292	27.058	831.869	667.779
400.307	27.030	831.309	667.168
401.321	27.179	830.855	667.293
402.336	27.573	830.686	668.544
403.350	27.977	830.648	669.935
404.365	28.313	830.716	671.161
405.380	28.559	830.001	671.426
406.394	28.775	829.402	671.670
407.409	28.587	829.116	670.694
408.423	28.489	828.608	669.866
409.438	28.590	828.391	669.998
410.453	28.583	828.210	669.768
411.467	28.705	827.221	669.352
412.482	28.683	826.852	668.914
413.496	28.792	826.908	669.296
414.511	28.572	826.517	668.120
415.526	28.610	825.796	667.618
416.540	28.500	824.944	666.470
417.555	28.335	824.009	665.058
418.569	28.288	824.122	664.919
419.584	28.341	823.562	664.600
420.599	27.949	823.129	662.769
421.613	94.573	1265.624	1373.524
422.628	81.559	1330.104	1373.653
