DTS Sentinel unit serial number:	SN413079Multiplexer serial number:	ORYXHardware model number:	OX4-SRSoftware version number:	ORYX F/W v4.00 Oryx Data Collector v3.7.2.0data status	okinstallation	princeton_trtdifferential loss correction	single-endedforward channel	channel 1reverse channel	N/Adate	2019/09/17time	20:10:35forward acquisition time	60.00reverse acquisition time	0.00gamma	496.2192k internal	0.2327k external	0.2327temperature offset calibration	0.9979default loss term (dB/km)	0.3790temperature slope calibration	1.0000multiplexer offset coefficient	1.0000multiplexer slope coefficient	1.0000fibre end	0.00T internal ref (°C)	32.28T ext. ref 1 (°C)	0.22T ext. ref 2 (°C)	22.37length (m)	temperature (°C)	Stokes	anti-Stokes-747.200	352.352	0.037	0.074
-746.185	130.658	-0.134	0.173
-745.171	-103.829	0.303	0.071
-744.156	-6.628	-0.157	-0.108
-743.142	51.670	-0.117	-0.112
-742.127	800.000	0.103	0.401
-741.112	57.346	0.072	-0.071
-740.098	-13.331	-0.214	0.140
-739.083	359.907	-0.077	0.156
-738.069	-200.000	0.049	0.463
-737.054	4.989	-0.217	-0.161
-736.039	-168.337	-0.417	0.016
-735.025	800.000	-0.054	-0.179
-734.010	-94.506	-0.489	-0.134
-732.996	-200.000	-0.012	0.087
-731.981	-116.728	-0.183	0.034
-730.966	-41.327	-0.161	-0.084
-729.952	270.163	-0.042	-0.074
-728.937	-200.000	0.018	-0.157
-727.923	-147.543	0.145	0.012
-726.908	196.142	-0.146	-0.224
-725.894	-200.000	-0.003	0.126
-724.879	-141.714	-0.045	0.005
-723.864	-200.000	-0.180	0.000
-722.850	224.182	-0.025	-0.041
-721.835	19.820	-0.224	0.181
-720.821	-118.700	0.305	-0.054
-719.806	-7.652	0.131	-0.089
-718.791	-85.076	-0.210	0.066
-717.777	-200.000	0.021	0.117
-716.762	-200.000	-0.064	-0.393
-715.748	-32.526	0.168	0.094
-714.733	-200.000	-0.001	-0.103
-713.718	-93.110	0.214	-0.060
-712.704	138.862	0.077	0.103
-711.689	800.000	0.092	0.287
-710.675	66.064	-0.142	0.145
-709.660	40.402	0.275	-0.250
-708.645	117.258	0.196	-0.242
-707.631	-116.227	-0.130	0.024
-706.616	-49.731	0.199	-0.095
-705.602	-37.699	-0.315	-0.169
-704.587	8.300	0.227	0.172
-703.572	-85.282	-0.115	-0.036
-702.558	800.000	0.060	0.195
-701.543	-35.243	0.159	-0.087
-700.529	-200.000	0.027	0.144
-699.514	-24.677	-0.210	-0.126
-698.499	800.000	0.145	-0.436
-697.485	-88.838	0.165	-0.049
-696.470	479.788	-0.217	-0.496
-695.456	180.597	-0.153	-0.227
-694.441	227.027	0.070	0.115
-693.426	-149.613	-0.387	-0.031
-692.412	800.000	-0.093	-0.388
-691.397	-200.000	0.026	0.311
-690.383	-63.274	0.197	-0.082
-689.368	7.739	0.250	-0.188
-688.354	-136.969	0.095	0.011
-687.339	-131.981	-0.185	0.024
-686.324	-200.000	0.021	0.373
-685.310	63.882	0.192	0.194
-684.295	800.000	-0.056	-0.204
-683.281	74.943	0.143	0.152
-682.266	-200.000	-0.010	-0.072
-681.251	316.227	-0.027	0.051
-680.237	-143.247	-0.305	0.029
-679.222	-143.215	-0.160	0.015
-678.208	152.287	0.101	0.139
-677.193	70.899	-0.236	-0.246
-676.178	266.259	0.249	-0.437
-675.164	-139.481	-0.155	-0.017
-674.149	800.000	0.031	-0.105
-673.135	-200.000	0.049	-0.406
-672.120	11.268	-0.222	0.171
-671.105	61.695	0.233	0.233
-670.091	800.000	-0.004	-0.014
-669.076	-127.860	0.135	0.020
-668.062	16.036	0.039	0.031
-667.047	-200.000	-0.021	0.206
-666.032	-36.775	0.602	-0.325
-665.018	-12.933	-0.127	-0.083
-664.003	299.107	-0.095	-0.175
-662.989	-41.006	0.427	-0.222
-661.974	-29.967	-0.413	0.237
-660.959	-90.514	-0.023	-0.007
-659.945	-17.584	0.421	0.266
-658.930	-122.911	0.087	-0.014
-657.916	249.742	0.110	0.188
-656.901	-44.131	-0.048	0.024
-655.886	-200.000	-0.052	0.289
-654.872	401.837	-0.028	-0.059
-653.857	55.550	-0.274	0.266
-652.843	-69.465	-0.280	0.108
-651.828	-178.222	0.228	-0.005
-650.814	-82.569	0.322	-0.105
-649.799	3.989	-0.239	0.175
-648.784	64.966	-0.206	0.209
-647.770	-102.024	0.316	0.077
-646.755	-77.891	-0.302	-0.105
-645.741	-42.750	-0.088	-0.045
-644.726	-200.000	0.035	-0.538
-643.711	622.098	0.143	-0.362
-642.697	501.528	0.118	-0.273
-641.682	103.256	0.060	0.071
-640.668	-200.000	-0.056	-0.372
-639.653	50.289	0.074	-0.070
-638.638	34.097	0.166	0.145
-637.624	800.000	0.019	0.073
-636.609	-200.000	-0.030	-0.315
-635.595	-142.027	-0.174	-0.017
-634.580	158.664	-0.123	0.171
-633.565	100.657	0.164	0.191
-632.551	-200.000	-0.025	0.284
-631.536	-70.067	-0.230	-0.088
-630.522	67.367	0.044	0.045
-629.507	198.268	0.074	-0.113
-628.492	207.584	0.187	0.293
-627.478	138.537	0.087	-0.115
-626.463	-8.780	-0.405	0.273
-625.449	566.916	0.082	0.199
-624.434	67.689	0.271	-0.278
-623.419	17.030	-0.197	-0.156
-622.405	-200.000	-0.029	0.149
-621.390	372.464	-0.084	0.172
-620.376	325.375	-0.026	-0.050
-619.361	-2.822	-0.095	-0.066
-618.346	-180.108	0.063	-0.001
-617.332	168.793	0.045	0.065
-616.317	-43.257	0.012	-0.006
-615.303	-109.361	-0.232	0.049
-614.288	453.772	-0.036	-0.080
-613.273	-84.218	-0.266	-0.085
-612.259	177.182	0.053	0.077
-611.244	-167.813	-0.483	0.019
-610.230	-140.462	0.219	0.023
-609.215	-200.000	-0.018	-0.381
-608.201	-32.094	-0.091	-0.051
-607.186	6.670	-0.231	-0.172
-606.171	800.000	-0.144	-0.413
-605.157	-200.000	0.023	0.157
-604.142	-40.826	-0.124	-0.065
-603.128	-200.000	0.014	0.215
-602.113	-137.997	-0.149	0.017
-601.098	-144.634	-0.250	0.023
-600.084	-166.729	0.229	-0.010
-599.069	800.000	-0.110	0.359
-598.055	-99.564	0.121	0.030
-597.040	-200.000	0.004	-0.128
-596.025	277.334	-0.054	0.096
-595.011	-200.000	-0.045	0.209
-593.996	468.130	0.157	0.352
-592.982	800.000	0.092	0.282
-591.967	-141.893	-0.181	-0.018
-590.952	56.495	0.189	0.184
-589.938	17.367	0.407	-0.324
-588.923	308.284	0.037	-0.070
-587.909	800.000	0.028	-0.094
-586.894	747.709	-0.182	0.492
-585.879	-58.808	0.062	-0.027
-584.865	163.628	0.029	0.040
-583.850	-81.369	-0.097	0.032
-582.836	-135.344	0.242	-0.029
-581.821	800.000	-0.125	-0.350
-580.806	-129.184	0.308	-0.043
-579.792	526.091	-0.052	0.122
-578.777	71.268	0.191	-0.199
-577.763	-2.215	0.137	0.096
-576.748	25.802	0.203	-0.170
-575.733	-138.375	-0.395	-0.044
-574.719	1.038	0.080	-0.058
-573.704	-200.000	-0.016	-0.137
-572.690	-176.349	-0.271	0.007
-571.675	466.545	0.123	-0.277
-570.661	-93.015	-0.072	0.020
-569.646	-200.000	-0.007	-0.151
-568.631	233.171	0.150	0.246
-567.617	550.168	-0.106	0.254
-566.602	50.830	0.275	-0.261
-565.588	214.379	0.142	-0.224
-564.573	-44.998	-0.074	0.037
-563.558	-45.435	-0.042	-0.021
-562.544	-14.865	0.045	-0.029
-561.529	-97.886	-0.214	-0.055
-560.515	-88.079	0.196	-0.059
-559.500	-81.848	-0.398	-0.130
-558.485	-57.957	0.228	0.100
-557.471	-119.769	0.315	0.054
-556.456	166.443	0.044	0.063
-555.442	-132.186	0.335	0.043
-554.427	199.362	-0.261	-0.400
-553.412	353.961	-0.016	-0.031
-552.398	457.634	0.081	-0.179
-551.383	-200.000	0.047	-0.343
-550.369	-13.724	-0.215	-0.139
-549.354	-55.833	0.216	-0.097
-548.339	623.599	0.051	0.128
-547.325	-10.473	-0.030	-0.020
-546.310	-121.970	-0.140	0.023
-545.296	-93.585	0.111	-0.031
-544.281	-200.000	0.026	-0.266
-543.266	212.262	-0.194	-0.305
-542.252	16.001	-0.137	-0.108
-541.237	249.504	0.168	0.284
-540.223	800.000	-0.047	0.139
-539.208	-172.652	-0.217	0.007
-538.193	-200.000	-0.002	0.169
-537.179	-200.000	-0.045	-0.405
-536.164	259.722	0.125	-0.216
-535.150	147.192	0.075	0.101
-534.135	-200.000	0.021	-0.165
-533.121	390.117	0.114	0.237
-532.106	7.681	-0.006	0.005
-531.091	-66.340	0.223	0.089
-530.077	-200.000	0.019	0.327
-529.062	573.422	0.152	0.371
-528.048	-200.000	0.030	-0.169
-527.033	-150.481	-0.184	-0.014
-526.018	-186.379	-0.162	0.002
-525.004	20.070	-0.021	-0.017
-523.989	800.000	0.015	0.059
-522.975	-34.985	0.105	0.057
-521.960	363.216	-0.045	-0.091
-520.945	498.768	-0.122	0.281
-519.931	-150.784	-0.015	0.001
-518.916	192.966	-0.181	-0.274
-517.902	-200.000	-0.027	-0.269
-516.887	156.388	0.150	0.207
-515.872	-200.000	-0.001	0.090
-514.858	-200.000	-0.004	0.023
-513.843	-78.278	-0.143	0.049
-512.829	220.658	0.178	0.286
-511.814	194.278	0.153	0.232
-510.799	138.715	0.145	-0.190
-509.785	-32.353	0.112	-0.062
-508.770	-110.742	0.305	-0.063
-507.756	-130.199	0.170	-0.023
-506.741	212.908	-0.045	-0.071
-505.726	402.633	-0.266	-0.559
-504.712	-200.000	0.004	-0.056
-503.697	800.000	0.095	-0.373
-502.683	487.978	-0.086	-0.197
-501.668	-140.734	-0.185	-0.019
-500.653	14.996	-0.080	0.062
-499.639	-200.000	0.018	0.269
-498.624	49.027	0.152	-0.143
-497.610	124.235	0.104	-0.131
-496.595	173.509	0.131	-0.189
-495.581	-105.436	-0.118	0.027
-494.566	135.759	0.178	0.231
-493.551	-1.424	0.177	-0.125
-492.537	-69.835	-0.183	0.070
-491.522	72.585	0.121	0.126
-490.508	-38.463	0.101	-0.054
-489.493	-122.019	0.094	0.015
-488.478	15.474	-0.292	-0.229
-487.464	-28.082	0.361	0.208
-486.449	-78.220	-0.406	0.139
-485.435	-128.498	-0.480	0.068
-484.420	17.951	0.232	-0.185
-483.405	111.583	-0.129	-0.155
-482.391	-200.000	-0.055	0.262
-481.376	-21.006	0.406	-0.248
-480.362	12.314	0.353	-0.271
-479.347	-35.677	-0.242	0.131
-478.332	-135.179	0.219	-0.026
-477.318	-200.000	-0.055	-0.392
-476.303	159.137	0.352	0.488
-475.289	800.000	-0.086	-0.293
-474.274	-200.000	-0.024	-0.188
-473.259	24.741	-0.181	0.150
-472.245	182.725	0.017	0.025
-471.230	58.358	0.125	0.123
-470.216	44.618	-0.104	0.095
-469.201	56.737	0.038	0.037
-468.186	-200.000	-0.014	-0.179
-467.172	0.899	0.265	-0.189
-466.157	-90.933	-0.222	0.064
-465.143	-200.000	0.012	-0.156
-464.128	31.290	-0.206	0.177
-463.113	-20.581	0.207	0.127
-462.099	-114.897	-0.181	0.034
-461.084	-200.000	-0.088	0.437
-460.070	-34.800	-0.337	0.183
-459.055	-136.115	0.255	0.030
-458.040	10.622	0.182	-0.139
-457.026	-200.000	-0.001	0.167
-456.011	512.026	-0.111	0.258
-454.997	-143.173	-0.143	-0.014
-453.982	-24.083	0.118	-0.070
-452.968	23.621	-0.174	-0.143
-451.953	145.892	0.079	-0.105
-450.938	134.928	-0.157	-0.204
-449.924	-181.665	-0.370	0.007
-448.909	-96.099	0.049	0.013
-447.895	-200.000	0.019	-0.100
-446.880	-200.000	0.006	-0.167
-445.865	800.000	0.040	0.153
-444.851	-200.000	-0.026	0.255
-443.836	281.256	0.021	0.038
-442.822	800.000	0.080	0.348
-441.807	-13.292	0.272	0.176
-440.792	800.000	0.029	0.111
-439.778	111.738	0.084	0.102
-438.763	-14.883	-0.095	-0.061
-437.749	800.000	-0.066	0.203
-436.734	-200.000	0.181	0.000
-435.719	-56.389	0.287	0.127
-434.705	60.603	-0.182	0.180
-433.690	800.000	-0.032	-0.128
-432.676	190.432	0.015	0.023
-431.661	-157.476	0.074	-0.004
-430.646	-9.483	0.366	0.243
-429.632	110.686	-0.157	-0.188
-428.617	162.251	-0.136	-0.190
-427.603	-119.924	0.178	0.030
-426.588	-200.000	-0.014	-0.173
-425.573	-77.527	-0.124	-0.043
-424.559	800.000	0.033	-0.113
-423.544	-99.606	-0.295	-0.074
-422.530	524.127	0.064	-0.149
-421.515	484.390	-0.134	-0.303
-420.500	-134.469	0.322	-0.039
-419.486	-200.000	-0.030	0.302
-418.471	8.675	-0.230	0.173
-417.457	-200.000	-0.020	-0.199
-416.442	16.625	0.116	-0.091
-415.428	-200.000	0.000	-0.294
-414.413	800.000	0.078	-0.224
-413.398	146.738	-0.111	-0.149
-412.384	-56.560	-0.294	0.130
-411.369	-105.979	-0.148	0.033
-410.355	-145.550	0.205	-0.018
-409.340	310.679	-0.069	-0.128
-408.325	91.458	-0.252	-0.282
-407.311	-12.327	0.221	0.144
-406.296	-115.499	0.103	-0.019
-405.282	149.984	-0.132	-0.178
-404.267	-200.000	0.025	0.295
-403.252	-200.000	0.025	0.319
-402.238	392.620	0.098	-0.203
-401.223	52.152	0.117	0.111
-400.209	-200.000	-0.043	0.418
-399.194	-115.900	-0.217	0.040
-398.179	-125.671	0.113	0.017
-397.165	-171.795	-0.210	-0.007
-396.150	88.349	-0.075	-0.082
-395.136	123.843	0.151	0.189
-394.121	37.312	-0.218	0.192
-393.106	244.949	0.175	0.292
-392.092	-94.354	0.200	-0.054
-391.077	-143.249	-0.197	0.019
-390.063	143.513	-0.198	-0.262
-389.048	-144.485	-0.195	-0.018
-388.033	234.477	0.268	0.440
-387.019	-200.000	-0.001	-0.162
-386.004	-104.362	-0.615	0.142
-384.990	-200.000	0.015	-0.151
-383.975	-116.248	-0.173	-0.032
-382.960	-56.722	0.187	0.082
-381.946	42.341	0.270	0.244
-380.931	-2.816	0.059	0.041
-379.917	0.307	0.089	0.063
-378.902	800.000	0.051	-0.150
-377.888	-200.000	-0.052	-0.358
-376.873	-130.069	0.152	0.021
-375.858	98.843	0.199	-0.228
-374.844	-91.881	0.430	-0.121
-373.829	198.455	0.185	0.280
-372.815	-33.460	0.141	-0.077
-371.800	488.477	-0.090	-0.204
-370.785	146.703	0.213	-0.285
-369.771	-200.000	-0.061	-0.598
-368.756	-112.230	0.084	0.017
-367.742	-200.000	0.020	-0.154
-366.727	-200.000	-0.052	0.511
-365.712	584.314	0.093	0.226
-364.698	160.067	-0.065	0.090
-363.683	-116.836	-0.113	0.021
-362.669	-200.000	-0.010	0.141
-361.654	-96.351	0.308	0.081
-360.639	-200.000	0.008	-0.317
-359.625	34.792	-0.237	0.206
-358.610	200.581	-0.119	0.182
-357.596	-91.624	-0.202	0.057
-356.581	-151.344	-0.072	0.005
-355.566	-45.408	0.046	0.023
-354.552	61.579	0.169	-0.167
-353.537	-200.000	0.064	0.300
-352.523	-99.002	0.130	-0.033
-351.508	1.369	0.056	-0.040
-350.493	-200.000	-0.011	-0.421
-349.479	-141.540	-0.108	0.011
-348.464	-120.831	-0.144	-0.024
-347.450	-193.043	0.056	-0.000
-346.435	-90.748	0.139	0.040
-345.420	160.149	-0.140	-0.193
-344.406	800.000	-0.060	-0.180
-343.391	24.815	-0.303	-0.249
-342.377	498.325	-0.078	-0.178
-341.362	800.000	-0.064	0.233
-340.348	-200.000	0.018	0.156
-339.333	0.497	0.151	0.107
-338.318	72.110	-0.265	-0.274
-337.304	584.460	-0.094	-0.229
-336.289	375.548	-0.069	-0.139
-335.275	113.876	-0.017	0.021
-334.260	-40.709	-0.536	0.275
-333.245	-112.262	0.314	-0.063
-332.231	17.645	-0.290	-0.229
-331.216	-111.679	-0.139	0.028
-330.202	-55.484	0.178	0.079
-329.187	-182.000	-0.298	0.006
-328.172	800.000	0.030	0.109
-327.158	475.452	0.089	0.199
-326.143	13.030	0.087	-0.066
-325.129	15.402	-0.230	0.179
-324.114	38.585	0.221	-0.195
-323.099	304.272	0.269	-0.494
-322.085	-109.276	0.205	-0.043
-321.070	166.021	-0.102	0.143
-320.056	-200.000	0.025	0.259
-319.041	-51.939	0.325	0.150
-318.026	4.669	0.098	0.071
-317.012	-165.213	-0.195	0.009
-315.997	800.000	0.082	-0.228
-314.983	123.743	0.086	0.107
-313.968	273.167	-0.101	0.177
-312.953	207.209	0.185	0.285
-311.939	-200.000	0.018	0.124
-310.924	250.674	0.087	0.147
-309.910	543.246	-0.106	-0.252
-308.895	-200.000	-0.025	-0.155
-307.880	244.545	0.039	0.065
-306.866	-77.219	0.114	0.039
-305.851	30.435	-0.199	-0.168
-304.837	800.000	-0.123	0.368
-303.822	-200.000	-0.050	0.313
-302.807	-75.465	0.196	-0.069
-301.793	354.826	-0.125	-0.247
-300.778	-200.000	-0.036	-0.326
-299.764	-200.000	-0.015	0.291
-298.749	462.506	0.147	0.326
-297.735	800.000	-0.143	-0.484
-296.720	-200.000	-0.052	-0.344
-295.705	-200.000	-0.018	0.133
-294.691	800.000	0.079	0.263
-293.676	-133.257	0.215	-0.027
-292.662	-200.000	0.001	-0.102
-291.647	-150.232	-0.331	0.025
-290.632	800.000	0.075	0.320
-289.618	47.369	-0.154	-0.142
-288.603	-103.113	-0.133	-0.031
-287.589	-150.009	0.223	-0.017
-286.574	75.161	-0.008	-0.008
-285.559	800.000	-0.057	-0.191
-284.545	500.242	0.163	-0.372
-283.530	29.094	0.107	-0.090
-282.516	581.653	0.105	-0.255
-281.501	-134.995	-0.075	-0.009
-280.486	-68.047	0.119	-0.046
-279.472	-200.000	0.002	0.156
-278.457	-102.102	-0.046	0.011
-277.443	-200.000	-0.047	-0.246
-276.428	-104.237	-0.111	0.025
-275.413	403.272	0.060	0.125
-274.399	-118.244	-0.205	0.036
-273.384	-175.729	0.050	-0.001
-272.370	31.024	-0.224	-0.190
-271.355	-96.903	0.212	0.055
-270.340	-124.778	0.257	0.039
-269.326	-200.000	-0.045	0.362
-268.311	-200.000	-0.050	-0.314
-267.297	3.551	-0.364	0.262
-266.282	123.050	0.214	-0.265
-265.267	-28.243	0.232	0.133
-264.253	-200.000	-0.008	-0.070
-263.238	-200.000	-0.007	0.163
-262.224	-32.347	0.178	-0.098
-261.209	-56.784	0.180	0.079
-260.195	-168.911	0.153	-0.006
-259.180	-200.000	0.112	0.516
-258.165	-171.876	-0.098	-0.003
-257.151	-82.940	-0.295	-0.094
-256.136	97.381	-0.045	0.051
-255.122	800.000	0.080	-0.229
-254.107	-44.872	-0.185	0.091
-253.092	-90.597	0.365	0.104
-252.078	58.896	0.280	0.272
-251.063	29.553	-0.093	0.078
-250.049	-12.665	0.141	0.091
-249.034	81.225	0.203	0.217
-248.019	93.984	-0.096	-0.108
-247.005	-160.578	0.565	-0.030
-245.990	263.709	0.069	0.118
-244.976	30.634	-0.464	0.393
-243.961	-122.707	0.104	0.017
-242.946	800.000	-0.062	-0.229
-241.932	-164.846	-0.215	-0.010
-240.917	42.859	0.280	-0.252
-239.903	-116.755	0.139	-0.025
-238.888	-148.560	-0.386	0.031
-237.873	-138.930	-0.518	0.056
-236.859	-200.000	0.053	0.445
-235.844	234.887	-0.076	0.125
-234.830	-164.319	0.229	-0.010
-233.815	-88.525	0.130	0.038
-232.800	370.328	0.083	-0.167
-231.786	800.000	0.036	-0.153
-230.771	-20.706	-0.081	0.049
-229.757	800.000	0.076	0.208
-228.742	-146.060	-0.512	0.045
-227.727	290.116	0.082	0.146
-226.713	800.000	-0.140	0.547
-225.698	491.659	-0.125	-0.282
-224.684	300.187	-0.019	-0.034
-223.669	21.542	0.168	0.135
-222.655	-142.949	0.372	-0.036
-221.640	35.829	0.275	-0.239
-220.625	99.062	0.073	-0.083
-219.611	-58.731	0.145	-0.062
-218.596	-200.000	0.002	0.309
-217.582	800.000	0.071	-0.254
-216.567	74.132	-0.157	-0.163
-215.552	-200.000	0.285	0.001
-214.538	-176.526	-0.058	0.001
-213.523	-16.140	-0.474	0.297
-212.509	283.970	0.149	0.265
-211.494	187.189	-0.116	0.171
-210.479	-65.698	-0.117	-0.046
-209.465	286.890	-0.004	0.008
-208.450	-200.000	0.037	0.237
-207.436	-189.795	-0.163	-0.002
-206.421	-159.422	-0.337	-0.019
-205.406	800.000	-0.077	-0.254
-204.392	327.546	-0.083	-0.156
-203.377	-134.043	0.150	-0.018
-202.363	800.000	-0.040	-0.150
-201.348	-200.000	-0.081	0.435
-200.333	-103.897	0.466	0.107
-199.319	758.733	0.132	0.353
-198.304	-200.000	-0.077	-0.484
-197.290	83.215	-0.065	0.070
-196.275	-127.613	0.104	-0.015
-195.260	17.609	0.181	0.142
-194.246	-179.340	0.265	0.006
-193.231	334.421	-0.161	0.307
-192.217	105.110	-0.188	0.219
-191.202	-86.514	0.207	-0.063
-190.187	56.469	0.262	0.251
-189.173	337.741	-0.123	-0.236
-188.158	559.068	0.032	-0.077
-187.144	-151.317	-0.214	-0.016
-186.129	-200.000	0.015	-0.134
-185.114	27.636	0.143	-0.119
-184.100	337.714	0.146	0.280
-183.085	63.909	-0.195	0.194
-182.071	75.825	-0.132	0.138
-181.056	526.277	-0.238	-0.554
-180.042	143.554	-0.071	0.094
-179.027	-140.807	-0.292	0.030
-178.012	-62.712	-0.121	-0.050
-176.998	-44.338	0.115	-0.057
-175.983	-168.004	-0.173	0.007
-174.969	44.918	0.045	-0.040
-173.954	-142.185	-0.158	0.015
-172.939	-200.000	-0.035	0.165
-171.925	-200.000	0.007	0.035
-170.910	-136.459	0.136	0.016
-169.896	-200.000	-0.047	0.208
-168.881	234.986	-0.152	0.246
-167.866	197.649	-0.119	0.179
-166.852	76.689	0.174	-0.182
-165.837	188.297	0.160	-0.236
-164.823	165.706	0.113	0.157
-163.808	-0.404	-0.241	0.168
-162.793	800.000	0.035	0.137
-161.779	-103.774	0.180	-0.041
-160.764	-14.364	-0.106	-0.067
-159.750	-146.811	0.096	0.008
-158.735	380.229	-0.114	-0.230
-157.720	291.276	0.100	-0.179
-156.706	-31.412	-0.185	0.103
-155.691	95.180	-0.129	-0.144
-154.677	44.658	0.103	0.093
-153.662	-35.852	-0.334	0.178
-152.647	124.973	-0.052	-0.064
-151.633	-200.000	0.042	-0.270
-150.618	-200.000	-0.061	0.339
-149.604	118.073	-0.151	-0.183
-148.589	13.146	0.148	-0.113
-147.574	296.391	-0.055	-0.100
-146.560	192.458	-0.233	0.347
-145.545	101.869	0.074	-0.085
-144.531	94.751	-0.159	0.178
-143.516	-200.000	0.058	0.333
-142.502	-189.244	0.123	0.001
-141.487	-200.000	0.013	0.108
-140.472	93.272	0.261	0.290
-139.458	308.156	0.121	0.222
-138.443	800.000	-0.047	0.195
-137.429	-42.252	-0.147	0.074
-136.414	-89.599	0.291	0.084
-135.399	-97.162	-0.247	-0.064
-134.385	-64.694	0.488	-0.195
-133.370	35.622	-0.156	-0.135
-132.356	-200.000	-0.001	0.173
-131.341	210.725	-0.039	-0.060
-130.326	429.687	0.057	-0.121
-129.312	-105.487	0.282	-0.063
-128.297	48.958	0.135	0.125
-127.283	-118.846	0.204	-0.035
-126.268	-125.985	-0.114	0.017
-125.253	138.792	-0.311	0.402
-124.239	232.473	-0.080	0.129
-123.224	93.835	0.103	-0.115
-122.210	-200.000	0.016	-0.242
-121.195	50.694	-0.197	0.184
-120.180	602.404	-0.046	0.112
-119.166	563.868	-0.057	0.136
-118.151	-177.796	0.391	-0.009
-117.137	25.762	0.224	0.183
-116.122	55.898	-0.230	0.219
-115.107	-37.942	0.086	-0.045
-114.093	-137.431	-0.242	-0.027
-113.078	33.428	0.083	0.071
-112.064	-12.898	0.240	0.154
-111.049	-105.707	0.368	-0.082
-110.034	-126.771	0.489	-0.071
-109.020	-200.000	-0.002	0.067
-108.005	-200.000	0.015	0.540
-106.991	88.319	-0.079	-0.086
-105.976	329.677	-0.133	0.252
-104.962	-49.357	0.146	0.069
-103.947	-41.780	0.121	0.061
-102.932	-134.837	-0.278	0.033
-101.918	800.000	0.075	0.208
-100.903	800.000	-0.069	0.287
-99.889	-200.000	-0.030	-0.148
-98.874	193.508	-0.195	-0.290
-97.859	800.000	0.048	0.206
-96.845	-177.256	0.244	0.006
-95.830	-187.966	0.191	-0.002
-94.816	13.217	-0.050	0.038
-93.801	243.593	-0.067	0.111
-92.786	715.988	-0.086	0.225
-91.772	184.682	0.164	0.239
-90.757	-88.827	0.229	0.067
-89.743	111.984	-0.102	0.121
-88.728	222.880	-0.027	-0.043
-87.713	555.694	0.102	-0.240
-86.699	-200.000	0.007	-0.047
-85.684	-118.643	0.401	0.070
-84.670	-138.045	-0.160	-0.018
-83.655	800.000	0.056	0.203
-82.640	-72.329	-0.148	0.054
-81.626	-200.000	0.036	0.223
-80.611	-27.090	-0.297	0.170
-79.597	421.972	0.088	-0.186
-78.582	-166.509	0.062	-0.003
-77.567	-200.000	-0.027	-0.211
-76.553	-97.406	0.206	0.053
-75.538	-200.000	0.026	-0.166
-74.524	206.104	-0.174	-0.266
-73.509	-122.534	-0.372	-0.059
-72.494	-84.744	0.314	-0.097
-71.480	-200.000	-0.025	0.217
-70.465	-200.000	0.048	-0.497
-69.451	96.804	0.164	-0.185
-68.436	44.759	0.191	0.173
-67.422	27.723	0.212	0.175
-66.407	169.437	-0.029	-0.041
-65.392	86.522	-0.073	0.079
-64.378	800.000	-0.021	0.063
-63.363	380.936	0.090	0.181
-62.349	800.000	-0.038	0.143
-61.334	-15.133	-1.109	-0.697
-60.319	202.924	0.468	0.710
-59.305	-200.000	-0.197	-0.990
-58.290	769.598	0.546	1.460
-57.276	450.366	0.660	1.430
-56.261	-200.000	99.423	565.984
-55.246	488.596	1421.516	3186.321
-54.232	156.133	2594.554	3511.404
-53.217	110.670	2143.329	2529.458
-52.203	43.714	1602.343	1438.905
-51.188	35.777	1341.091	1156.759
-50.173	32.609	1299.444	1102.298
-49.159	55.032	1348.918	1278.397
-48.144	56.907	1365.619	1305.338
-47.130	35.985	1322.732	1141.976
-46.115	32.527	1305.444	1106.727
-45.100	32.177	1300.970	1100.842
-44.086	32.173	1297.944	1098.211
-43.071	32.070	1296.572	1096.407
-42.057	32.147	1293.914	1094.566
-41.042	32.207	1292.327	1093.530
-40.027	32.153	1290.354	1091.498
-39.013	32.228	1289.019	1090.765
-37.998	32.245	1286.868	1088.999
-36.984	32.175	1285.699	1087.560
-35.969	32.357	1283.208	1086.460
-34.954	32.399	1281.558	1085.261
-33.940	32.239	1280.831	1083.683
-32.925	32.247	1279.260	1082.357
-31.911	32.347	1277.810	1081.660
-30.896	32.393	1276.327	1080.626
-29.881	32.435	1274.747	1079.487
-28.867	32.464	1273.792	1078.803
-27.852	32.413	1272.629	1077.486
-26.838	32.501	1270.667	1076.285
-25.823	32.483	1269.214	1074.905
-24.809	32.411	1267.857	1073.306
-23.794	32.379	1266.866	1072.241
-22.779	32.261	1265.497	1070.366
-21.765	32.280	1264.370	1069.480
-20.750	32.202	1263.018	1067.849
-19.736	32.232	1261.684	1066.851
-18.721	32.188	1260.389	1065.462
-17.706	32.318	1259.132	1065.092
-16.692	32.257	1258.150	1063.878
-15.677	32.164	1257.385	1062.659
-14.663	32.196	1255.796	1061.459
-13.648	32.215	1254.992	1060.845
-12.633	32.221	1254.109	1060.086
-11.619	32.207	1253.072	1059.088
-10.604	32.145	1252.691	1058.375
-9.590	32.326	1251.119	1058.027
-8.575	32.251	1250.277	1056.848
-7.560	32.150	1249.889	1055.913
-6.546	32.165	1249.392	1055.535
-5.531	32.300	1248.079	1055.141
-4.517	32.297	1247.120	1054.271
-3.502	32.346	1245.735	1053.331
-2.487	32.223	1245.298	1052.231
-1.473	32.087	1240.515	1047.393
-0.458	29.590	1223.747	1019.431
0.556	22.749	1204.120	969.240
1.571	17.693	1206.665	943.296
2.586	16.210	1221.823	946.750
3.600	15.833	1210.728	935.973
4.615	11.828	1140.991	860.954
5.629	4.351	1067.230	768.318
6.644	0.635	1047.614	736.049
7.659	0.105	1045.938	732.225
8.673	0.032	1044.554	730.837
9.688	0.120	1043.275	730.307
10.702	0.431	1041.457	730.473
11.717	4.739	1046.743	755.054
12.731	12.321	1056.797	799.261
13.746	16.539	1061.300	823.167
14.761	16.925	1061.757	825.326
15.775	16.253	1059.046	819.885
16.790	15.115	1057.634	813.196
17.804	14.406	1056.106	808.510
18.819	14.144	1054.985	806.308
19.834	13.795	1054.414	804.110
20.848	13.544	1053.401	802.053
21.863	13.247	1052.732	800.034
22.877	13.337	1051.628	799.558
23.892	13.214	1050.574	798.092
24.907	13.077	1050.681	797.442
25.921	13.175	1049.461	796.917
26.936	13.245	1048.630	796.557
27.950	13.229	1047.507	795.553
28.965	13.276	1046.507	794.952
29.980	13.341	1045.645	794.537
30.994	13.508	1043.840	793.898
32.009	13.361	1043.141	792.590
33.023	13.423	1042.171	792.078
34.038	13.290	1041.187	790.627
35.053	13.248	1040.478	789.817
36.067	13.227	1039.868	789.183
37.082	13.323	1038.988	788.903
38.096	13.405	1038.121	788.566
39.111	13.311	1037.394	787.495
40.126	13.245	1036.442	786.392
41.140	13.131	1035.263	784.883
42.155	13.069	1034.339	783.820
43.169	13.202	1032.862	783.263
44.184	13.141	1031.677	782.006
45.199	13.159	1031.151	781.624
46.213	13.208	1029.900	780.836
47.228	13.235	1028.936	780.164
48.242	13.259	1028.194	779.649
49.257	13.239	1027.138	778.683
50.271	13.229	1026.265	777.905
51.286	13.286	1025.330	777.395
52.301	13.212	1024.729	776.521
53.315	13.278	1023.514	775.844
54.330	13.125	1022.411	774.220
55.344	13.221	1021.406	773.839
56.359	13.247	1020.649	773.321
57.374	13.331	1019.471	772.754
58.388	13.288	1018.536	771.773
59.403	13.225	1018.122	771.100
60.417	13.203	1016.761	769.898
61.432	13.196	1016.361	769.492
62.447	13.118	1015.599	768.485
63.461	13.161	1014.890	768.080
64.476	13.177	1013.803	767.266
65.490	13.173	1012.918	766.508
66.505	13.027	1012.544	765.479
67.520	13.195	1012.015	765.792
68.534	13.155	1011.020	764.788
69.549	13.242	1010.202	764.502
70.563	13.150	1009.551	763.515
71.578	13.109	1009.004	762.845
72.593	13.152	1007.860	762.110
73.607	13.055	1008.084	761.764
74.622	13.075	1007.077	761.032
75.636	13.197	1005.783	760.548
76.651	13.048	1005.682	759.717
77.666	13.100	1005.167	759.502
78.680	13.109	1004.224	758.763
79.695	13.172	1003.633	758.537
80.709	13.157	1002.835	757.798
81.724	13.178	1002.456	757.539
82.739	13.244	1001.703	757.207
83.753	13.387	1000.472	756.863
84.768	13.343	1000.013	756.249
85.782	13.245	999.390	755.264
86.797	13.319	998.107	754.565
87.812	13.302	997.334	753.833
88.826	13.280	996.362	752.932
89.841	13.355	995.079	752.241
90.855	13.394	994.575	751.968
91.870	13.295	993.823	750.883
92.884	13.534	992.620	750.990
93.899	13.379	992.246	749.942
94.914	13.512	990.957	749.503
95.928	13.490	990.902	749.293
96.943	13.369	989.652	747.738
97.957	13.343	989.192	747.203
98.972	13.500	988.046	746.981
99.987	13.385	987.511	745.992
101.001	13.493	985.981	745.257
102.016	13.355	985.732	744.382
103.030	13.319	984.956	743.566
104.045	13.385	984.060	743.121
105.060	13.365	982.815	742.026
106.074	13.290	982.014	741.021
107.089	13.222	981.190	740.026
108.103	13.132	980.393	738.959
109.118	13.203	979.722	738.704
110.133	13.239	978.727	738.050
111.147	13.247	977.517	737.108
112.162	13.273	976.853	736.659
113.176	13.357	976.044	736.358
114.191	13.332	975.622	735.860
115.206	13.234	974.943	734.851
116.220	13.301	973.644	734.101
117.235	13.457	972.505	733.872
118.249	13.329	971.974	732.836
119.264	13.416	971.310	732.659
120.279	13.370	970.704	731.934
121.293	13.226	969.895	730.621
122.308	13.252	969.161	730.118
123.322	13.320	967.904	729.406
124.337	13.208	967.020	728.181
125.352	13.288	966.035	727.727
126.366	13.320	964.883	726.935
127.381	13.210	964.066	725.773
128.395	13.275	963.105	725.269
129.410	13.285	962.059	724.462
130.424	13.411	961.337	724.405
131.439	13.408	960.788	723.915
132.454	13.330	960.172	723.047
133.468	13.316	959.344	722.300
134.483	13.412	958.352	721.904
135.497	13.359	957.466	720.943
136.512	13.337	957.106	720.514
137.527	13.360	955.990	719.710
138.541	13.391	955.456	719.377
139.556	13.521	954.160	718.902
140.570	13.631	953.139	718.549
141.585	13.609	952.475	717.889
142.600	13.604	951.561	717.113
143.614	13.565	951.257	716.652
144.629	13.477	950.672	715.767
145.643	13.552	949.473	715.127
146.658	13.431	948.651	713.921
147.673	13.608	947.440	713.709
148.687	13.439	946.876	712.493
149.702	13.503	946.057	712.090
150.716	13.433	945.521	711.324
151.731	13.389	944.973	710.658
152.746	13.527	944.197	710.607
153.760	13.493	943.470	709.849
154.775	13.524	942.696	709.336
155.789	13.644	942.041	709.294
156.804	13.560	941.488	708.457
157.819	13.464	940.782	707.451
158.833	13.691	939.986	707.760
159.848	13.692	939.609	707.415
160.862	13.764	938.125	706.543
161.877	13.629	937.512	705.445
162.892	13.431	936.782	703.990
163.906	13.709	935.061	703.817
164.921	13.714	934.803	703.581
165.935	13.599	934.290	702.644
166.950	13.690	933.060	702.044
167.964	13.641	932.471	701.329
168.979	13.673	931.722	700.840
169.994	13.670	930.863	700.119
171.008	13.606	930.381	699.424
172.023	13.690	929.626	699.148
173.037	13.771	928.577	698.642
174.052	13.680	928.176	697.893
175.067	13.724	927.370	697.412
176.081	13.692	926.809	696.792
177.096	13.703	926.634	696.645
178.110	13.781	925.766	696.259
179.125	13.730	925.074	695.464
180.140	13.830	924.552	695.426
181.154	13.744	924.190	694.734
182.169	13.894	923.633	694.881
183.183	13.909	923.209	694.565
184.198	13.870	922.141	693.537
185.213	13.837	921.716	693.017
186.227	13.854	920.957	692.455
187.242	13.929	919.993	691.981
188.256	14.034	919.426	691.932
189.271	14.042	918.726	691.378
190.286	13.786	918.194	689.850
191.300	13.831	917.527	689.478
192.315	13.849	916.751	688.905
193.329	13.684	916.629	688.070
194.344	13.852	915.878	688.139
195.359	13.969	914.839	687.783
196.373	13.828	914.718	687.050
197.388	14.004	914.221	687.341
198.402	14.071	913.675	687.148
199.417	14.057	913.059	686.568
200.432	14.162	912.324	686.385
201.446	14.148	911.940	685.980
202.461	14.274	911.383	686.020
203.475	14.190	910.622	685.040
204.490	14.263	909.924	684.755
205.504	14.262	909.359	684.264
206.519	14.014	908.443	682.494
207.534	14.073	907.818	682.207
208.548	14.355	906.871	682.590
209.563	14.319	906.508	682.110
210.577	14.313	905.644	681.374
211.592	14.397	905.045	681.209
212.607	14.249	904.903	680.435
213.621	14.282	903.519	679.469
214.636	14.353	902.696	679.081
215.650	14.328	902.551	678.811
216.665	14.516	901.230	678.519
217.680	14.483	900.780	677.987
218.694	14.475	900.206	677.464
219.709	14.407	899.975	676.954
220.723	14.391	899.244	676.279
221.738	14.499	898.223	675.888
222.753	14.429	897.730	675.172
223.767	14.458	897.533	675.082
224.782	14.534	896.510	674.560
225.796	14.432	896.378	673.989
226.811	14.510	895.649	673.699
227.826	14.548	894.665	673.050
228.840	14.607	893.889	672.645
229.855	14.487	893.192	671.577
230.869	14.499	892.798	671.270
231.884	14.556	891.919	670.778
232.899	14.514	890.783	669.698
233.913	14.358	890.321	668.667
234.928	14.481	890.019	668.873
235.942	14.483	889.536	668.458
236.957	14.474	889.012	667.967
237.972	14.549	888.073	667.506
238.986	14.614	887.480	667.258
240.001	14.666	886.831	666.919
241.015	14.589	886.156	666.046
242.030	14.561	885.803	665.609
243.045	14.563	885.334	665.209
244.059	14.607	884.655	664.814
245.074	14.553	884.191	664.190
246.088	14.646	883.399	663.909
247.103	14.780	882.211	663.489
248.117	14.932	881.814	663.735
249.132	14.781	881.751	663.030
250.147	14.899	880.804	662.724
251.161	14.923	880.306	662.388
252.176	14.883	879.603	661.642
253.190	14.976	879.107	661.576
254.205	15.113	878.295	661.449
255.220	15.040	877.556	660.548
256.234	15.094	876.983	660.268
257.249	14.965	876.481	659.325
258.263	15.134	875.331	659.067
259.278	15.075	875.000	658.526
260.293	15.018	874.678	658.000
261.307	15.110	873.944	657.753
262.322	15.178	872.932	657.199
263.336	15.332	872.184	657.183
264.351	15.058	872.365	656.184
265.366	15.297	871.241	656.220
266.380	15.336	870.938	656.085
267.395	15.187	870.076	654.796
268.409	15.135	869.271	653.927
269.424	15.346	868.151	653.849
270.439	15.286	867.616	653.156
271.453	15.183	866.976	652.215
272.468	15.181	866.518	651.806
273.482	15.256	866.283	651.861
274.497	15.135	865.500	650.745
275.512	15.207	865.023	650.609
276.526	15.325	864.245	650.424
277.541	15.330	864.227	650.373
278.555	15.350	863.454	649.809
279.570	15.512	862.446	649.622
280.585	15.318	862.138	648.582
281.599	15.409	860.938	647.971
282.614	15.408	860.622	647.675
283.628	15.456	859.955	647.298
284.643	15.399	859.706	646.835
285.657	15.379	858.944	646.126
286.672	15.284	858.269	645.197
287.687	15.507	857.632	645.517
288.701	15.595	856.702	645.099
289.716	15.487	856.395	644.396
290.730	15.467	856.196	644.112
291.745	15.562	855.326	643.766
292.760	15.683	854.501	643.549
293.774	15.640	853.871	642.856
294.789	15.671	853.318	642.499
295.803	15.533	852.854	641.565
296.818	15.601	852.031	641.149
297.833	15.705	851.064	640.762
298.847	15.574	851.073	640.214
299.862	15.685	850.526	640.167
300.876	15.660	849.405	639.171
301.891	15.769	849.094	639.294
302.906	15.772	848.392	638.721
303.920	15.859	848.148	638.810
304.935	15.823	847.491	638.126
305.949	15.903	846.516	637.637
306.964	15.923	846.438	637.598
307.979	15.859	845.866	636.869
308.993	15.771	845.233	636.004
310.008	15.806	844.847	635.787
311.022	15.866	844.045	635.354
312.037	15.806	843.666	634.787
313.052	15.868	842.708	634.244
314.066	15.865	842.294	633.863
315.081	15.997	841.590	633.774
316.095	15.809	841.520	632.958
317.110	15.748	840.779	632.118
318.125	15.903	840.219	632.221
319.139	15.918	839.971	632.033
320.154	15.841	839.396	631.259
321.168	15.857	838.650	630.699
322.183	15.855	838.284	630.362
323.197	15.954	837.842	630.346
324.212	15.945	837.185	629.761
325.227	15.942	836.638	629.281
326.241	15.897	836.195	628.725
327.256	16.052	835.640	628.831
328.270	15.885	835.047	627.706
329.285	16.026	834.350	627.651
330.300	16.143	833.777	627.602
331.314	15.980	833.305	626.585
332.329	16.118	832.633	626.536
333.343	16.245	831.991	626.470
334.358	16.077	832.117	625.883
335.373	16.064	831.522	625.335
336.387	16.144	831.395	625.480
337.402	16.117	831.169	625.155
338.416	16.207	830.832	625.180
339.431	16.140	830.234	624.426
340.446	16.315	829.726	624.636
341.460	16.254	829.503	624.186
342.475	16.357	829.192	624.280
343.489	16.331	828.446	623.566
344.504	16.317	828.032	623.145
345.519	16.357	827.536	622.864
346.533	16.490	827.040	622.927
347.548	16.356	826.412	621.905
348.562	16.307	825.996	621.358
349.577	16.438	825.244	621.219
350.592	16.489	824.445	620.748
351.606	16.436	824.148	620.278
352.621	16.357	823.640	619.548
353.635	16.454	823.022	619.387
354.650	16.494	822.178	618.841
355.665	16.592	821.358	618.529
356.679	16.688	821.027	618.575
357.694	16.667	820.301	617.898
358.708	16.502	819.901	616.937
359.723	16.558	819.522	616.804
360.738	16.595	818.675	616.247
361.752	16.518	818.412	615.711
362.767	16.695	817.598	615.689
363.781	16.744	817.081	615.425
364.796	16.792	816.298	614.954
365.810	16.675	816.363	614.525
366.825	16.890	815.729	614.772
367.840	16.793	815.289	614.034
368.854	16.791	814.844	613.637
369.869	16.681	814.723	613.093
370.883	16.782	813.801	612.710
371.898	16.795	813.727	612.650
372.913	16.961	813.355	612.914
373.927	16.981	812.562	612.335
374.942	16.903	812.535	611.977
375.956	16.991	811.767	611.664
376.971	16.930	811.455	611.153
377.986	17.027	811.187	611.246
379.000	16.938	810.847	610.615
380.015	16.935	810.231	610.086
381.029	16.988	809.650	609.785
382.044	17.015	809.005	609.343
383.059	17.036	807.990	608.601
384.073	17.056	807.778	608.459
385.088	16.976	807.209	607.689
386.102	17.068	806.491	607.426
387.117	17.190	805.789	607.279
388.132	17.112	805.635	606.830
389.146	17.101	805.147	606.371
390.161	17.044	804.396	605.548
391.175	17.106	804.360	605.688
392.190	17.173	803.495	605.222
393.205	17.117	803.182	604.732
394.219	17.182	802.596	604.469
395.234	17.061	802.532	603.938
396.248	17.136	801.697	603.521
397.263	17.104	801.600	603.280
398.278	17.099	801.326	603.004
399.292	17.349	800.606	603.297
400.307	17.158	800.305	602.337
401.321	17.109	799.730	601.680
402.336	17.229	799.371	601.782
403.350	17.291	798.822	601.534
404.365	17.312	798.372	601.213
405.380	17.399	797.973	601.169
406.394	17.402	797.229	600.566
407.409	17.397	797.008	600.330
408.423	17.319	796.999	599.994
409.438	17.391	796.568	599.870
410.453	17.487	796.160	599.847
411.467	17.480	795.424	599.216
412.482	17.376	795.309	598.710
413.496	17.476	794.982	598.762
414.511	17.617	794.510	598.851
415.526	17.648	793.722	598.313
416.540	17.632	793.436	597.986
417.555	17.629	792.963	597.568
418.569	17.607	792.650	597.202
419.584	17.718	792.056	597.091
420.599	17.664	791.912	596.738
421.613	109.391	1290.097	1463.461
422.628	93.947	1362.661	1463.549
