DTS Sentinel unit serial number:	SN413079Multiplexer serial number:	ORYXHardware model number:	OX4-SRSoftware version number:	ORYX F/W v4.00 Oryx Data Collector v3.7.2.0data status	okinstallation	princeton_trtdifferential loss correction	single-endedforward channel	channel 1reverse channel	N/Adate	2019/09/12time	18:59:34forward acquisition time	15.00reverse acquisition time	0.00gamma	496.2192k internal	0.2320k external	0.2320temperature offset calibration	1.0111default loss term (dB/km)	0.3790temperature slope calibration	1.0000multiplexer offset coefficient	1.0000multiplexer slope coefficient	1.0000fibre end	0.00T internal ref (°C)	32.81T ext. ref 1 (°C)	3.03T ext. ref 2 (°C)	27.34length (m)	temperature (°C)	Stokes	anti-Stokes-747.200	-158.736	0.780	-0.045
-746.185	651.075	-0.439	1.136
-745.171	62.416	-0.295	-0.298
-744.156	-36.087	0.312	-0.170
-743.142	-5.363	0.609	0.423
-742.127	-200.000	-0.092	-0.515
-741.112	-26.937	0.697	-0.411
-740.098	-45.104	-0.235	0.118
-739.083	10.917	-0.127	0.098
-738.069	-17.011	-0.087	0.056
-737.054	-200.000	-0.057	-0.857
-736.039	-85.470	0.389	-0.122
-735.025	-141.072	0.569	-0.059
-734.010	-54.287	0.304	-0.139
-732.996	54.382	-0.391	-0.381
-731.981	372.278	0.301	-0.619
-730.966	-50.347	0.503	0.240
-729.952	-40.699	-0.583	0.305
-728.937	-200.000	0.007	0.376
-727.923	-45.805	0.479	-0.239
-726.908	800.000	-0.267	-0.778
-725.894	-90.860	0.720	0.210
-724.879	94.061	0.408	0.468
-723.864	-200.000	-0.091	0.448
-722.850	800.000	0.109	0.340
-721.835	94.178	0.380	0.435
-720.821	-48.074	0.691	-0.337
-719.806	202.938	0.262	0.409
-718.791	-25.933	-0.195	0.116
-717.777	-65.076	0.593	-0.242
-716.762	-90.698	-0.950	-0.277
-715.748	77.149	-0.202	-0.217
-714.733	-1.945	0.465	-0.330
-713.718	-200.000	0.095	0.464
-712.704	121.619	-0.176	-0.222
-711.689	-133.214	0.673	-0.086
-710.675	-200.000	0.015	-0.476
-709.660	800.000	0.043	0.124
-708.645	-162.475	0.261	-0.013
-707.631	223.505	-0.273	-0.444
-706.616	800.000	-0.241	-0.777
-705.602	46.998	0.612	-0.575
-704.587	-170.301	-0.303	0.011
-703.572	-200.000	-0.021	0.822
-702.558	-21.473	0.166	-0.102
-701.543	597.110	0.188	-0.470
-700.529	-49.575	-0.613	-0.295
-699.514	260.719	0.401	-0.700
-698.499	-72.121	-0.671	0.252
-697.485	-112.400	-0.617	-0.125
-696.470	-200.000	-0.055	-0.569
-695.456	-200.000	-0.011	-0.483
-694.441	800.000	-0.075	-0.287
-693.426	-67.447	-0.351	-0.139
-692.412	23.505	-0.046	0.039
-691.397	196.652	-0.163	-0.251
-690.383	-200.000	0.021	-0.455
-689.368	183.062	0.512	-0.762
-688.354	-13.893	-0.099	-0.065
-687.339	264.727	-0.239	-0.420
-686.324	762.967	0.200	-0.547
-685.310	138.891	-0.439	-0.582
-684.295	156.884	-0.649	0.905
-683.281	-144.587	0.926	0.086
-682.266	-152.375	0.860	0.062
-681.251	-200.000	-0.126	-0.663
-680.237	-200.000	0.087	0.643
-679.222	-200.000	0.049	-0.244
-678.208	-200.000	-0.084	0.434
-677.193	30.653	0.352	-0.303
-676.178	595.628	-0.314	0.783
-675.164	800.000	0.338	1.056
-674.149	212.282	-0.406	-0.645
-673.135	-180.253	0.159	0.003
-672.120	-200.000	0.114	0.687
-671.105	-200.000	-0.071	-0.416
-670.091	-109.991	0.536	-0.113
-669.076	69.493	0.347	-0.360
-668.062	-68.339	-0.101	-0.039
-667.047	-29.134	0.729	0.422
-666.032	37.790	-0.503	0.450
-665.018	245.847	0.321	0.546
-664.003	-146.840	-0.634	-0.055
-662.989	-40.111	-0.465	0.244
-661.974	17.907	0.314	0.252
-660.959	125.405	-0.187	-0.238
-659.945	-97.676	-0.122	-0.032
-658.930	-49.963	0.877	0.419
-657.916	-174.047	0.243	0.007
-656.901	-105.617	0.283	-0.065
-655.886	82.949	-0.252	-0.276
-654.872	-74.042	-0.314	-0.115
-653.857	239.241	-0.372	-0.624
-652.843	-200.000	-0.022	-0.662
-651.828	-122.541	-0.475	-0.078
-650.814	800.000	0.185	0.526
-649.799	613.844	0.179	0.452
-648.784	115.163	-0.346	0.425
-647.770	194.863	-0.482	0.736
-646.755	258.982	-0.168	-0.293
-645.741	1.108	0.238	-0.172
-644.726	-200.000	0.091	-0.994
-643.711	-125.253	0.736	-0.113
-642.697	721.750	-0.052	0.139
-641.682	800.000	0.109	-0.329
-640.668	-29.395	0.407	-0.235
-639.653	-200.000	0.004	0.244
-638.638	800.000	0.176	0.763
-637.624	-200.000	0.070	0.453
-636.609	170.957	0.139	-0.200
-635.595	800.000	-0.252	-0.758
-634.580	800.000	-0.047	0.164
-633.565	6.597	-0.337	0.252
-632.551	-200.000	0.088	0.423
-631.536	-154.469	-0.814	-0.055
-630.522	-34.874	-0.798	-0.438
-629.507	-100.946	-0.922	0.228
-628.492	-51.152	-0.378	-0.178
-627.478	165.977	0.483	0.689
-626.463	3.451	-0.544	-0.399
-625.449	117.205	-0.208	0.257
-624.434	-57.272	0.769	0.340
-623.419	162.975	-0.220	0.311
-622.405	52.213	-0.352	0.337
-621.390	236.647	-0.237	0.396
-620.376	445.369	-0.259	0.573
-619.361	563.560	0.062	0.151
-618.346	-46.992	0.459	0.226
-617.332	-20.016	0.320	-0.199
-616.317	-163.789	-0.493	0.023
-615.303	-82.905	-0.304	-0.099
-614.288	95.704	-0.321	-0.369
-613.273	79.625	0.485	-0.524
-612.259	-175.307	0.716	-0.020
-611.244	-112.673	-0.920	0.184
-610.230	800.000	-0.028	-0.106
-609.215	336.949	-0.181	0.353
-608.201	-118.404	0.070	-0.012
-607.186	64.749	0.511	-0.518
-606.171	278.407	0.148	0.265
-605.157	200.664	-0.150	-0.231
-604.142	14.027	0.346	0.271
-603.128	47.685	0.400	-0.376
-602.113	89.845	0.366	0.411
-601.098	-92.421	-0.129	0.037
-600.084	172.637	-0.371	-0.538
-599.069	168.280	-0.086	-0.123
-598.055	389.542	-0.290	-0.604
-597.040	189.197	0.477	0.719
-596.025	-200.000	-0.157	-0.777
-595.011	800.000	-0.237	0.739
-593.996	15.096	-0.290	-0.229
-592.982	-118.608	0.348	0.062
-591.967	-130.709	-0.712	0.096
-590.952	155.668	0.530	0.734
-589.938	-58.701	-0.597	-0.260
-588.923	-118.242	-0.912	0.163
-587.909	-101.909	0.831	0.202
-586.894	-119.841	-0.087	0.015
-585.879	-200.000	-0.013	0.317
-584.865	-19.350	-0.904	-0.563
-583.850	53.595	-0.787	-0.759
-582.836	-200.000	0.002	-0.310
-581.821	47.441	-0.450	0.421
-580.806	-11.066	-0.695	-0.461
-579.792	284.889	-0.467	-0.844
-578.777	800.000	0.120	0.391
-577.763	82.917	-0.390	0.427
-576.748	-157.396	0.397	-0.024
-575.733	-200.000	0.088	0.395
-574.719	113.432	-0.277	-0.338
-573.704	-53.062	0.463	-0.214
-572.690	83.060	0.047	0.051
-571.675	31.422	-0.142	0.123
-570.661	115.477	-0.138	0.169
-569.646	-11.139	0.281	-0.186
-568.631	494.333	-0.259	-0.598
-567.617	-31.411	0.675	0.381
-566.602	-52.980	-0.127	0.059
-565.588	144.490	-0.412	0.553
-564.573	-45.588	0.531	0.264
-563.558	-17.089	0.085	-0.054
-562.544	-3.220	0.369	0.259
-561.529	-51.296	0.978	-0.460
-560.515	-100.717	-0.600	0.148
-559.500	95.217	-0.271	-0.310
-558.485	153.611	-0.303	0.416
-557.471	23.327	-0.060	-0.049
-556.456	-40.675	0.372	0.193
-555.442	25.184	0.330	0.275
-554.427	-52.556	-0.459	0.213
-553.412	35.508	0.406	0.358
-552.398	82.609	-0.461	-0.502
-551.383	186.008	-0.181	-0.271
-550.369	225.845	0.332	0.540
-549.354	-127.515	-0.708	0.103
-548.339	800.000	0.116	-0.505
-547.325	-200.000	-0.040	-0.264
-546.310	31.374	0.144	-0.124
-545.296	-81.046	0.565	0.187
-544.281	-200.000	0.052	0.252
-543.266	31.099	0.457	-0.393
-542.252	7.637	-0.370	0.278
-541.237	-200.000	-0.035	-0.200
-540.223	-84.052	-0.468	0.149
-539.208	-9.558	0.639	0.427
-538.193	-87.834	-0.691	0.209
-537.179	-94.082	0.195	-0.054
-536.164	124.263	0.341	-0.430
-535.150	-200.000	-0.056	-0.584
-534.135	-155.747	-0.286	-0.018
-533.121	-144.641	0.873	-0.081
-532.106	-10.123	0.554	-0.369
-531.091	-200.000	-0.065	-0.713
-530.077	-96.892	0.566	-0.149
-529.062	-191.842	-0.536	0.005
-528.048	-78.908	0.868	-0.296
-527.033	-108.161	-0.167	-0.036
-526.018	196.658	0.111	0.170
-525.004	48.537	0.652	0.613
-523.989	142.465	0.469	-0.624
-522.975	-200.000	0.002	0.144
-521.960	-35.747	0.378	0.206
-520.945	265.328	0.105	0.183
-519.931	-96.782	0.435	-0.115
-518.916	-200.000	0.139	-1.028
-517.902	-200.000	0.043	0.219
-516.887	-200.000	0.071	-0.368
-515.872	14.759	0.323	-0.253
-514.858	-63.422	0.400	0.165
-513.843	-5.315	-0.123	-0.085
-512.829	229.744	-0.096	-0.157
-511.814	800.000	-0.085	0.246
-510.799	-71.053	0.208	-0.079
-509.785	-200.000	0.009	-0.357
-508.770	26.388	0.451	-0.378
-507.756	159.842	0.450	0.627
-506.741	-80.059	0.076	0.026
-505.726	92.323	-0.256	-0.290
-504.712	-4.948	-0.247	-0.171
-503.697	251.295	-0.216	0.368
-502.683	-77.295	0.356	0.124
-501.668	-109.292	-0.831	0.176
-500.653	43.730	0.301	-0.276
-499.639	-125.305	0.571	-0.087
-498.624	-200.000	0.163	0.944
-497.610	51.013	0.229	-0.218
-496.595	691.409	0.105	0.276
-495.581	-200.000	-0.064	0.392
-494.566	-13.451	-0.400	-0.260
-493.551	-146.406	0.491	-0.043
-492.537	156.684	-0.502	0.694
-491.522	10.665	-0.249	0.190
-490.508	-127.603	-0.527	-0.077
-489.493	113.198	-0.605	-0.735
-488.478	-80.968	-0.196	-0.065
-487.464	-12.891	0.323	-0.210
-486.449	40.607	-0.231	0.208
-485.435	90.929	0.890	0.999
-484.420	-17.997	-0.210	0.131
-483.405	-200.000	-0.005	-0.424
-482.391	38.043	0.720	0.641
-481.376	-89.470	0.207	-0.061
-480.362	-120.106	0.522	-0.089
-479.347	-172.823	-0.865	0.027
-478.332	-200.000	0.011	-0.479
-477.318	-200.000	-0.086	0.539
-476.303	-200.000	-0.053	-0.324
-475.289	121.925	0.113	-0.141
-474.274	275.265	-0.235	0.417
-473.259	70.950	-0.417	-0.432
-472.245	-49.030	0.114	-0.054
-471.230	-27.027	0.413	-0.241
-470.216	66.373	0.110	-0.112
-469.201	-200.000	-0.144	-0.716
-468.186	197.811	0.142	-0.217
-467.172	-135.441	-0.070	-0.008
-466.157	179.794	-0.058	-0.085
-465.143	169.438	-0.369	-0.527
-464.128	-175.216	0.227	0.006
-463.113	-200.000	-0.098	-0.577
-462.099	-15.768	-0.413	0.263
-461.084	-200.000	-0.170	0.774
-460.070	-143.548	-0.881	0.084
-459.055	151.043	0.122	-0.166
-458.040	-56.695	-0.273	0.121
-457.026	49.948	0.160	0.151
-456.011	800.000	-0.081	-0.238
-454.997	-115.900	-0.552	0.103
-453.982	-200.000	0.037	1.351
-452.968	-31.289	0.435	0.245
-451.953	-200.000	0.151	-0.801
-450.938	-200.000	0.105	0.801
-449.924	547.047	0.223	-0.532
-448.909	35.947	0.516	-0.454
-447.895	-36.106	-0.865	-0.467
-446.880	-139.461	-0.296	-0.032
-445.865	800.000	-0.014	0.052
-444.851	-145.638	0.542	-0.048
-443.836	480.199	0.098	0.222
-442.822	22.345	0.625	-0.510
-441.807	-200.000	-0.063	-0.321
-440.792	-134.092	-0.570	-0.070
-439.778	264.492	-0.137	-0.237
-438.763	155.865	-0.112	0.154
-437.749	-1.500	0.363	0.256
-436.734	407.481	-0.293	-0.619
-435.719	800.000	-0.172	-0.557
-434.705	384.052	-0.144	0.297
-433.690	645.199	-0.325	0.830
-432.676	8.757	0.590	0.444
-431.661	109.111	0.148	-0.176
-430.646	116.722	0.306	0.375
-429.632	800.000	0.156	-0.514
-428.617	313.513	0.198	-0.371
-427.603	184.541	-0.264	0.391
-426.588	-114.403	-0.673	0.129
-425.573	-54.865	0.369	-0.166
-424.559	-30.156	-0.467	0.265
-423.544	-100.886	0.566	0.139
-422.530	232.989	-0.026	-0.043
-421.515	675.203	-0.213	0.553
-420.500	144.866	-0.199	0.265
-419.486	-19.316	-0.806	0.499
-418.471	163.687	-0.419	0.589
-417.457	-52.472	-0.520	0.240
-416.442	-200.000	0.070	-0.610
-415.428	-200.000	-0.099	-1.000
-414.413	-200.000	0.077	0.505
-413.398	-200.000	-0.066	-0.782
-412.384	7.990	-0.566	-0.423
-411.369	-200.000	-0.053	-0.594
-410.355	15.676	0.373	0.293
-409.340	-108.624	-0.300	0.064
-408.325	-200.000	-0.118	0.801
-407.311	-200.000	0.088	0.816
-406.296	800.000	0.062	-0.200
-405.282	-86.612	-0.484	-0.148
-404.267	63.815	-0.513	-0.514
-403.252	-21.393	0.740	-0.451
-402.238	246.250	0.326	-0.548
-401.223	233.214	-0.510	-0.836
-400.209	23.233	0.310	0.254
-399.194	-200.000	-0.052	0.275
-398.179	-45.367	0.150	-0.074
-397.165	-175.850	0.361	-0.010
-396.150	800.000	-0.125	0.348
-395.136	-200.000	0.012	0.606
-394.121	-186.947	-0.617	0.009
-393.106	166.593	0.235	-0.333
-392.092	-23.649	-0.599	0.358
-391.077	441.847	0.024	-0.051
-390.063	-200.000	0.006	-0.554
-389.048	487.111	0.260	0.591
-388.033	49.357	0.510	-0.478
-387.019	-109.431	-0.596	-0.126
-386.004	471.770	-0.072	-0.162
-384.990	-137.718	-0.735	0.082
-383.975	800.000	-0.140	0.405
-382.960	56.479	-0.243	0.236
-381.946	800.000	0.207	0.692
-380.931	36.163	-0.715	0.628
-379.917	800.000	-0.117	-0.394
-378.902	289.662	-0.228	0.413
-377.888	489.954	0.457	1.042
-376.873	-197.877	-1.008	-0.006
-375.858	147.616	-0.180	0.241
-374.844	-200.000	0.029	0.308
-373.829	-200.000	-0.037	0.954
-372.815	-200.000	-0.031	0.675
-371.800	8.515	0.539	-0.404
-370.785	800.000	0.177	-0.766
-369.771	-135.657	-0.704	0.083
-368.756	-13.748	-0.347	-0.223
-367.742	-160.440	1.134	-0.061
-366.727	-172.683	1.106	0.035
-365.712	337.600	0.191	-0.369
-364.698	507.457	0.416	-0.961
-363.683	100.841	-0.758	0.878
-362.669	800.000	-0.078	-0.237
-361.654	-200.000	-0.201	-0.953
-360.639	65.494	-0.578	0.583
-359.625	-165.965	0.657	0.028
-358.610	800.000	-0.043	-0.134
-357.596	737.199	-0.090	0.241
-356.581	-200.000	0.028	-0.399
-355.566	214.086	0.133	0.210
-354.552	-39.962	-0.687	0.357
-353.537	-200.000	0.097	0.440
-352.523	-86.205	-0.449	0.138
-351.508	-96.010	-0.251	-0.067
-350.493	-97.110	-0.763	0.199
-349.479	800.000	-0.086	-0.321
-348.464	-200.000	0.252	-1.121
-347.450	-29.780	0.196	-0.111
-346.435	105.783	0.240	-0.283
-345.420	-6.574	-1.014	-0.687
-344.406	-19.566	0.356	-0.220
-343.391	18.788	0.862	-0.687
-342.377	-105.655	0.570	-0.129
-341.362	410.402	0.230	0.484
-340.348	378.989	0.194	-0.396
-339.333	-179.740	0.667	0.014
-338.318	-144.638	-0.662	0.061
-337.304	-96.335	-0.382	0.101
-336.289	-51.360	-0.501	0.233
-335.275	377.825	0.309	0.628
-334.260	21.710	0.513	0.415
-333.245	398.077	0.150	0.312
-332.231	800.000	0.117	0.367
-331.216	285.980	0.209	-0.376
-330.202	237.335	0.105	0.174
-329.187	33.778	0.460	-0.398
-328.172	235.123	-0.303	0.498
-327.158	-200.000	-0.053	0.513
-326.143	-200.000	0.017	-0.137
-325.129	80.375	-0.525	-0.563
-324.114	112.967	-0.326	0.393
-323.099	510.219	-0.306	0.707
-322.085	-200.000	0.011	-0.296
-321.070	95.995	-0.237	-0.270
-320.056	800.000	0.190	-0.731
-319.041	62.874	-0.276	-0.275
-318.026	-39.348	-0.659	-0.344
-317.012	2.450	0.456	-0.328
-315.997	310.387	-0.463	0.862
-314.983	596.002	0.178	-0.439
-313.968	-200.000	0.052	0.866
-312.953	-2.122	0.543	0.379
-311.939	-200.000	-0.053	0.276
-310.924	181.098	-1.156	-1.689
-309.910	-161.492	1.146	0.059
-308.895	-84.941	0.658	0.205
-307.880	126.145	0.172	-0.217
-306.866	93.714	-0.626	0.705
-305.851	-0.757	0.808	-0.569
-304.837	543.776	-0.110	0.260
-303.822	59.518	0.449	0.440
-302.807	-62.264	0.295	0.122
-301.793	-200.000	-0.038	0.300
-300.778	-79.332	0.421	0.142
-299.764	791.733	-0.105	0.288
-298.749	-51.317	-0.359	-0.167
-297.735	-55.560	-0.451	-0.201
-296.720	242.165	0.102	-0.170
-295.705	73.648	0.124	-0.129
-294.691	-41.445	-0.348	-0.178
-293.676	-134.072	-0.218	0.027
-292.662	-95.816	0.586	0.156
-291.647	-151.525	0.865	-0.064
-290.632	800.000	-0.330	-1.312
-289.618	800.000	0.283	-1.031
-288.603	142.691	-0.747	-0.986
-287.589	-200.000	0.013	0.419
-286.574	-200.000	-0.034	-0.459
-285.559	67.434	-0.314	-0.319
-284.545	108.858	-0.370	0.440
-283.530	4.922	0.320	-0.233
-282.516	-20.919	-0.886	0.539
-281.501	466.749	-0.231	0.514
-280.486	-8.273	1.279	0.855
-279.472	-128.958	-0.576	-0.080
-278.457	62.285	-0.098	-0.097
-277.443	-118.884	0.713	-0.124
-276.428	427.536	0.093	0.199
-275.413	213.788	0.221	-0.347
-274.399	699.847	-0.203	-0.531
-273.384	-145.751	0.321	-0.028
-272.370	-136.196	0.384	-0.045
-271.355	-200.000	-0.045	-0.655
-270.340	12.814	-0.602	-0.461
-269.326	31.867	-0.495	-0.423
-268.311	-200.000	0.179	-1.019
-267.297	-74.230	0.563	-0.202
-266.282	800.000	-0.147	0.459
-265.267	-99.656	-0.598	-0.149
-264.253	-66.952	0.223	0.087
-263.238	-200.000	-0.076	0.464
-262.224	386.053	0.556	1.139
-261.209	683.608	0.316	0.817
-260.195	-27.180	-0.519	-0.300
-259.180	236.942	0.149	-0.244
-258.165	-48.880	-0.644	0.306
-257.151	-200.000	0.073	0.434
-256.136	322.895	-0.248	0.468
-255.122	7.112	-0.384	0.284
-254.107	197.525	0.255	0.386
-253.092	-200.000	0.103	-0.926
-252.078	-66.984	-0.473	0.185
-251.063	-105.820	0.371	0.083
-250.049	-39.934	-0.405	0.210
-249.034	253.624	0.340	-0.575
-248.019	14.153	-0.814	-0.629
-247.005	-29.174	0.348	-0.198
-245.990	20.930	0.544	-0.437
-244.976	-80.847	-0.363	0.119
-243.961	410.250	0.042	-0.088
-242.946	-90.495	0.980	0.281
-241.932	143.716	0.452	0.597
-240.917	-200.000	-0.196	-0.982
-239.903	389.873	0.174	-0.358
-238.888	31.022	-0.305	0.259
-237.873	-61.271	0.971	0.405
-236.859	-150.045	-0.439	-0.034
-235.844	82.948	-0.110	0.118
-234.830	63.274	-0.022	0.022
-233.815	662.998	0.146	0.373
-232.800	177.926	-0.097	0.141
-231.786	-61.478	0.164	-0.068
-230.771	-75.075	-0.469	0.166
-229.757	272.660	0.113	-0.198
-228.742	-200.000	0.010	0.248
-227.727	-66.845	-0.220	0.086
-226.713	-78.798	-0.436	0.147
-225.698	-192.714	-0.810	-0.007
-224.684	-200.000	0.117	0.552
-223.669	157.051	0.327	0.447
-222.655	-132.539	-0.335	-0.043
-221.640	284.261	0.443	-0.790
-220.625	-93.163	0.791	-0.218
-219.611	293.723	0.532	-0.963
-218.596	-49.290	-0.626	0.296
-217.582	-56.370	0.194	-0.086
-216.567	-200.000	0.149	0.902
-215.552	-45.474	-0.368	0.181
-214.538	1.811	-0.592	0.423
-213.523	-90.449	0.808	-0.232
-212.509	162.765	0.568	-0.790
-211.494	-59.617	0.468	-0.199
-210.479	-200.000	-0.015	0.907
-209.465	338.341	0.364	0.702
-208.450	-44.468	0.657	0.325
-207.436	800.000	0.073	-0.235
-206.421	174.846	-0.372	-0.532
-205.406	800.000	0.097	-0.318
-204.392	480.359	0.220	0.493
-203.377	-73.219	-0.283	-0.103
-202.363	245.607	-0.414	0.690
-201.348	-19.696	-0.254	-0.156
-200.333	149.884	0.293	0.394
-199.319	349.703	-0.343	0.671
-198.304	26.709	-0.813	-0.674
-197.290	-94.495	0.334	0.090
-196.275	800.000	0.135	-0.370
-195.260	-154.770	-0.378	-0.025
-194.246	-125.540	-0.271	-0.041
-193.231	376.659	0.224	-0.452
-192.217	-200.000	-0.028	-0.492
-191.202	110.433	0.340	0.404
-190.187	-105.714	-0.949	-0.213
-189.173	-200.000	0.012	-0.514
-188.158	-170.347	0.583	-0.020
-187.144	425.964	-0.073	-0.155
-186.129	-19.897	0.855	0.522
-185.114	800.000	-0.050	0.165
-184.100	-200.000	0.025	-0.460
-183.085	185.184	0.236	0.346
-182.071	-113.310	0.611	0.119
-181.056	-106.178	-0.457	0.101
-180.042	-200.000	0.086	1.474
-179.027	-79.660	-0.169	-0.056
-178.012	-123.831	-1.096	0.171
-176.998	-131.962	1.020	-0.132
-175.983	800.000	-0.117	-0.360
-174.969	-16.816	0.221	-0.138
-173.954	-10.225	0.214	0.141
-172.939	800.000	0.048	-0.165
-171.925	-55.884	-0.751	0.331
-170.910	163.032	0.381	-0.529
-169.896	115.932	0.159	0.193
-168.881	-57.896	-0.720	-0.311
-167.866	-48.769	0.966	0.459
-166.852	-105.355	-0.557	-0.125
-165.837	20.040	0.674	-0.537
-164.823	-118.522	-0.353	-0.062
-163.808	800.000	0.349	1.007
-162.793	800.000	0.113	-0.332
-161.779	179.468	0.525	-0.760
-160.764	120.314	-0.109	0.133
-159.750	-175.167	0.556	0.015
-158.735	-70.475	0.355	-0.133
-157.720	16.433	-0.111	0.086
-156.706	-200.000	-0.058	-0.401
-155.691	103.061	0.545	0.631
-154.677	-109.881	0.221	-0.046
-153.662	-200.000	-0.076	-0.501
-152.647	135.055	0.499	0.640
-151.633	-96.147	0.741	-0.194
-150.618	191.792	-0.397	0.591
-149.604	-76.867	0.569	0.197
-148.589	-64.693	-0.089	0.036
-147.574	98.573	0.290	0.331
-146.560	691.576	-0.226	0.585
-145.545	-200.000	-0.029	-0.403
-144.531	800.000	0.215	0.692
-143.516	-15.030	-0.261	-0.165
-142.502	-12.307	0.968	-0.625
-141.487	644.874	-0.228	-0.574
-140.472	-149.524	-0.548	0.043
-139.458	800.000	0.225	-0.800
-138.443	-200.000	-0.134	-0.796
-137.429	-200.000	-0.027	0.130
-136.414	-200.000	0.143	0.819
-135.399	392.019	-0.420	0.861
-134.385	-200.000	-0.019	-0.280
-133.370	800.000	-0.128	0.475
-132.356	-18.986	0.334	0.205
-131.341	22.862	0.622	0.503
-130.326	0.513	-0.744	-0.525
-129.312	0.607	0.622	0.439
-128.297	-200.000	-0.035	0.652
-127.283	-49.492	0.537	0.253
-126.268	793.046	0.143	0.387
-125.253	-9.433	-0.603	-0.397
-124.239	9.909	0.621	-0.465
-123.224	-200.000	0.043	-0.241
-122.210	-45.798	-0.876	-0.427
-121.195	-200.000	0.004	-1.283
-120.180	190.724	0.101	0.149
-119.166	-0.916	0.693	0.484
-118.151	800.000	0.069	-0.192
-117.137	-5.557	-0.287	-0.195
-116.122	-38.196	-0.380	-0.199
-115.107	-18.929	0.396	0.243
-114.093	545.572	0.319	0.753
-113.078	75.248	-0.138	0.143
-112.064	-151.870	-0.278	-0.020
-111.049	269.349	-0.191	0.330
-110.034	800.000	0.064	0.240
-109.020	175.401	-0.258	-0.368
-108.005	8.626	0.641	-0.476
-106.991	800.000	-0.238	-0.938
-105.976	-23.360	-0.173	-0.103
-104.962	-140.573	0.708	0.072
-103.947	-60.030	0.192	0.081
-102.932	13.861	0.426	-0.327
-101.918	-12.205	0.026	0.017
-100.903	-98.245	-0.489	-0.124
-99.889	4.715	0.581	-0.421
-98.874	41.179	-0.489	-0.436
-97.859	148.562	0.436	-0.581
-96.845	-200.000	-0.013	0.349
-95.830	126.148	0.709	0.884
-94.816	171.933	0.130	0.184
-93.801	-89.090	-0.504	0.147
-92.786	142.949	0.085	0.111
-91.772	800.000	0.265	0.728
-90.757	-68.937	1.250	-0.475
-89.743	-8.005	-0.525	-0.349
-88.728	367.102	0.152	0.303
-87.713	-55.094	0.326	0.145
-86.699	800.000	-0.074	0.279
-85.684	63.552	0.160	-0.158
-84.670	-140.785	0.753	-0.077
-83.655	-200.000	-0.024	0.391
-82.640	-200.000	-0.033	0.206
-81.626	-160.758	-1.060	-0.055
-80.611	800.000	0.038	-0.144
-79.597	-105.538	-1.238	0.277
-78.582	86.183	-0.308	0.334
-77.567	54.413	-0.301	0.286
-76.553	-92.898	-0.653	0.180
-75.538	638.970	-0.090	-0.226
-74.524	63.556	0.422	-0.417
-73.509	41.514	0.571	-0.509
-72.494	800.000	0.138	-0.413
-71.480	96.700	-0.227	0.257
-70.465	-50.993	-0.217	-0.101
-69.451	60.185	-0.721	0.702
-68.436	800.000	0.226	0.645
-67.422	-39.409	0.310	0.160
-66.407	800.000	-0.184	0.522
-65.392	800.000	0.135	-0.409
-64.378	256.255	-0.665	-1.123
-63.363	63.653	0.035	-0.035
-62.349	6.730	0.825	-0.605
-61.334	800.000	-0.524	-2.061
-60.319	185.878	-0.246	0.360
-59.305	-200.000	0.244	-1.148
-58.290	800.000	-0.243	0.796
-57.276	183.615	0.891	1.296
-56.261	-200.000	95.137	582.029
-55.246	664.337	1358.133	3450.096
-54.232	203.728	2520.409	3839.807
-53.217	119.035	2123.499	2583.940
-52.203	44.405	1593.690	1440.379
-51.188	36.536	1333.899	1158.607
-50.173	33.190	1293.023	1103.569
-49.159	56.403	1342.512	1284.244
-48.144	57.434	1358.846	1305.935
-47.130	36.186	1318.345	1142.842
-46.115	32.953	1300.271	1108.190
-45.100	32.855	1293.909	1102.150
-44.086	32.662	1293.381	1100.534
-43.071	32.506	1291.683	1098.135
-42.057	32.616	1288.315	1095.865
-41.042	32.722	1286.041	1094.502
-40.027	32.786	1284.557	1093.567
-39.013	32.757	1282.169	1091.323
-37.998	32.723	1281.909	1090.861
-36.984	32.950	1279.266	1089.880
-35.969	32.746	1277.914	1087.509
-34.954	32.710	1276.453	1086.016
-33.940	32.722	1275.416	1085.158
-32.925	33.005	1272.799	1084.517
-31.911	32.715	1272.791	1082.798
-30.896	33.056	1269.568	1081.969
-29.881	32.849	1268.991	1080.247
-28.867	33.150	1267.250	1080.447
-27.852	32.880	1266.577	1078.285
-26.838	32.845	1265.788	1077.373
-25.823	32.734	1263.665	1074.886
-24.809	33.004	1261.802	1074.798
-23.794	32.745	1260.658	1072.307
-22.779	32.797	1260.080	1072.067
-21.765	32.631	1258.431	1069.681
-20.750	32.959	1257.066	1070.339
-19.736	32.794	1255.581	1068.095
-18.721	32.733	1254.506	1066.796
-17.706	32.940	1253.434	1067.009
-16.692	32.667	1252.948	1065.012
-15.677	32.731	1251.502	1064.105
-14.663	32.729	1250.602	1063.283
-13.648	32.742	1249.522	1062.396
-12.633	32.865	1247.501	1061.330
-11.619	32.809	1247.832	1061.253
-10.604	32.856	1246.901	1060.683
-9.590	32.598	1246.112	1058.519
-8.575	32.805	1245.141	1058.813
-7.560	32.884	1243.467	1057.792
-6.546	32.959	1242.246	1057.133
-5.531	32.768	1242.615	1056.337
-4.517	33.033	1239.999	1055.551
-3.502	32.923	1240.990	1055.739
-2.487	32.709	1239.469	1053.207
-1.473	32.704	1235.028	1049.363
-0.458	31.367	1219.995	1029.190
0.556	28.652	1201.857	989.638
1.571	24.751	1207.780	973.244
2.586	23.732	1222.456	979.369
3.600	23.063	1210.643	966.168
4.615	16.995	1138.717	877.401
5.629	7.547	1063.684	773.671
6.644	3.353	1044.349	739.445
7.659	3.066	1041.894	736.266
8.673	2.748	1040.303	733.556
9.688	2.954	1038.530	733.222
10.702	3.065	1037.320	732.834
11.717	9.169	1045.567	767.846
12.731	18.593	1059.529	823.484
13.746	24.052	1064.910	853.856
14.761	24.556	1066.002	857.076
15.775	24.492	1064.510	855.495
16.790	23.925	1064.517	852.704
17.804	23.571	1064.063	850.568
18.819	23.986	1062.480	851.215
19.834	23.923	1062.522	850.870
20.848	23.832	1062.395	850.261
21.863	23.918	1060.641	849.189
22.877	23.791	1059.909	847.923
23.892	23.992	1059.275	848.298
24.907	23.779	1059.087	847.058
25.921	23.891	1057.551	846.291
26.936	23.834	1055.814	844.551
27.950	23.855	1054.647	843.645
28.965	23.760	1053.275	842.025
29.980	23.876	1052.319	841.733
30.994	24.106	1051.320	841.945
32.009	23.963	1050.456	840.507
33.023	24.270	1049.105	840.799
34.038	23.782	1048.893	838.251
35.053	23.958	1047.869	838.191
36.067	23.812	1046.416	836.266
37.082	23.607	1045.863	834.784
38.096	23.746	1046.236	835.661
39.111	23.717	1045.106	834.552
40.126	23.928	1043.697	834.342
41.140	23.870	1041.094	831.913
42.155	23.481	1040.118	829.243
43.169	23.392	1040.272	828.875
44.184	23.598	1038.117	828.047
45.199	23.139	1038.232	825.925
46.213	23.274	1037.542	825.933
47.228	23.674	1037.678	827.832
48.242	24.133	1035.420	828.094
49.257	24.037	1034.867	827.130
50.271	23.897	1033.922	825.653
51.286	24.343	1033.834	827.578
52.301	23.996	1033.289	825.458
53.315	24.006	1031.500	824.001
54.330	24.122	1030.473	823.648
55.344	23.836	1030.925	822.610
56.359	23.977	1029.019	821.667
57.374	23.498	1029.597	819.845
58.388	24.008	1026.757	819.859
59.403	23.640	1025.938	817.442
60.417	23.589	1026.270	817.399
61.432	23.659	1025.011	816.644
62.447	23.617	1024.312	815.823
63.461	23.568	1023.168	814.614
64.476	23.936	1021.509	814.905
65.490	23.516	1020.902	812.425
66.505	23.470	1021.005	812.225
67.520	23.565	1019.996	811.788
68.534	23.350	1019.754	810.539
69.549	23.087	1019.170	808.802
70.563	23.346	1017.161	808.316
71.578	23.057	1016.380	806.308
72.593	22.890	1015.148	804.496
73.607	22.443	1015.975	803.043
74.622	23.110	1015.133	805.345
75.636	23.105	1014.240	804.543
76.651	23.301	1012.816	804.233
77.666	23.135	1013.724	804.129
78.680	23.056	1012.372	802.625
79.695	23.174	1011.083	802.067
80.709	23.261	1011.119	802.417
81.724	23.337	1010.723	802.379
82.739	23.463	1009.623	802.005
83.753	23.786	1009.616	803.387
84.768	24.298	1008.748	804.938
85.782	24.538	1007.357	804.837
86.797	24.054	1007.605	802.782
87.812	24.075	1006.552	801.969
88.826	24.042	1005.611	801.001
89.841	24.061	1004.464	800.098
90.855	24.140	1003.643	799.731
91.870	24.146	1002.828	799.038
92.884	24.292	1001.278	798.385
93.899	24.337	1000.695	798.050
94.914	24.237	1000.132	797.083
95.928	24.029	999.734	795.764
96.943	24.112	997.862	794.577
97.957	24.159	997.172	794.168
98.972	23.908	996.309	792.292
99.987	24.195	995.356	792.738
101.001	24.176	994.727	792.082
102.016	24.057	993.438	790.457
103.030	24.113	993.299	790.527
104.045	24.343	992.148	790.563
105.060	24.367	990.891	789.596
106.074	24.072	991.171	788.441
107.089	23.812	990.178	786.432
108.103	23.909	988.762	785.665
109.118	23.583	987.127	782.858
110.133	23.473	985.798	781.254
111.147	23.373	984.777	779.933
112.162	23.232	985.246	779.616
113.176	23.521	983.352	779.317
114.191	23.786	982.987	780.124
115.206	23.522	982.613	778.598
116.220	23.436	981.782	777.493
117.235	23.494	980.352	776.545
118.249	23.157	979.901	774.645
119.264	23.323	978.627	774.295
120.279	22.919	978.671	772.494
121.293	23.070	977.591	772.234
122.308	23.062	976.482	771.257
123.322	23.237	974.698	770.540
124.337	22.799	974.909	768.731
125.352	23.105	973.011	768.496
126.366	22.942	972.218	767.094
127.381	23.017	972.849	767.851
128.395	23.722	970.976	769.358
129.410	23.798	970.850	769.521
130.424	23.668	970.533	768.638
131.439	24.028	968.798	768.752
132.454	23.896	967.915	767.414
133.468	23.643	967.147	765.643
134.483	24.104	965.836	766.524
135.497	23.880	965.421	765.164
136.512	23.705	964.856	763.898
137.527	23.705	963.976	763.130
138.541	23.635	964.366	763.071
139.556	24.150	962.466	763.709
140.570	23.979	963.084	763.397
141.585	24.007	962.334	762.856
142.600	24.609	960.156	763.636
143.614	24.577	958.993	762.508
144.629	24.651	959.111	762.849
145.643	24.461	957.682	760.835
146.658	23.988	956.369	757.710
147.673	23.919	955.904	756.980
148.687	24.026	954.350	756.141
149.702	23.787	953.090	754.060
150.716	23.801	952.132	753.296
151.731	24.082	951.876	754.214
152.746	23.982	951.726	753.607
153.760	23.914	950.885	752.588
154.775	24.073	950.887	753.195
155.789	24.500	948.669	753.171
156.804	24.279	948.715	752.208
157.819	23.962	948.775	750.854
158.833	24.537	947.224	751.983
159.848	24.395	946.420	750.678
160.862	24.157	945.317	748.739
161.877	24.154	943.436	747.170
162.892	24.194	943.164	747.054
163.906	24.135	942.809	746.462
164.921	23.771	941.647	743.949
165.935	24.109	940.474	744.373
166.950	24.086	940.756	744.435
167.964	24.214	938.795	743.350
168.979	23.897	938.266	741.543
169.994	23.808	936.686	739.857
171.008	24.306	936.433	741.665
172.023	24.544	935.376	741.751
173.037	24.282	934.682	740.045
174.052	24.163	934.272	739.164
175.067	23.779	933.651	737.016
176.081	23.501	932.523	734.908
177.096	23.849	931.378	735.380
178.110	23.008	932.138	732.429
179.125	23.304	930.731	732.486
180.140	23.495	929.820	732.494
181.154	23.754	931.307	734.671
182.169	24.053	930.349	735.083
183.183	24.147	929.362	734.626
184.198	24.284	928.465	734.419
185.213	24.512	926.974	734.112
186.227	24.278	927.998	733.891
187.242	24.563	926.638	733.923
188.256	24.514	926.302	733.391
189.271	24.163	925.867	731.541
190.286	24.119	924.181	729.965
191.300	23.782	922.459	727.160
192.315	23.194	922.108	724.412
193.329	23.016	922.169	723.667
194.344	23.627	921.351	725.459
195.359	24.054	921.572	727.314
196.373	24.105	922.023	727.813
197.388	24.399	920.112	727.443
198.402	24.611	920.594	728.624
199.417	24.362	920.150	727.191
200.432	24.487	918.933	726.675
201.446	24.688	918.953	727.446
202.461	24.432	918.715	726.150
203.475	24.246	916.413	723.512
204.490	23.844	915.164	720.833
205.504	24.017	914.211	720.716
206.519	24.164	914.336	721.347
207.534	24.461	912.861	721.323
208.548	24.318	913.837	721.449
209.563	24.418	911.760	720.150
210.577	24.170	912.658	719.795
211.592	24.637	912.267	721.307
212.607	24.802	911.363	721.193
213.621	24.575	909.866	719.032
214.636	24.154	909.762	717.190
215.650	24.059	909.838	716.806
216.665	24.346	908.810	717.084
217.680	24.529	907.702	716.881
218.694	24.497	906.936	716.084
219.709	24.349	905.591	714.366
220.723	24.346	905.370	714.118
221.738	24.527	904.269	713.911
222.753	24.178	903.984	712.226
223.767	24.200	904.311	712.510
224.782	24.438	904.297	713.388
225.796	25.027	903.019	714.667
226.811	24.316	902.028	710.985
227.826	23.818	901.133	708.231
228.840	24.177	900.410	709.031
229.855	24.236	899.275	708.310
230.869	24.104	899.061	707.552
231.884	23.965	899.583	707.347
232.899	24.325	898.616	707.955
233.913	23.756	897.900	705.068
234.928	24.070	896.576	705.211
235.942	23.508	896.630	702.964
236.957	23.434	895.898	702.037
237.972	23.780	895.084	702.706
238.986	23.476	895.035	701.401
240.001	23.854	893.552	701.670
241.015	23.909	892.743	701.190
242.030	23.742	893.689	701.213
243.045	23.765	892.280	700.136
244.059	23.729	892.175	699.850
245.074	23.951	891.602	700.211
246.088	24.256	891.122	700.971
247.103	24.381	891.294	701.538
248.117	24.817	890.383	702.470
249.132	25.295	890.704	704.537
250.147	25.058	890.621	703.477
251.161	25.036	889.588	702.516
252.176	25.318	889.128	703.194
253.190	25.309	888.768	702.812
254.205	25.245	887.620	701.592
255.220	25.104	886.444	700.049
256.234	24.972	886.437	699.467
257.249	25.138	885.441	699.268
258.263	25.037	884.290	697.903
259.278	24.616	884.656	696.487
260.293	25.287	883.493	698.123
261.307	25.263	882.159	696.912
262.322	25.071	882.619	696.468
263.336	25.059	881.178	695.223
264.351	24.896	879.730	693.387
265.366	24.759	879.649	692.733
266.380	25.593	878.834	695.255
267.395	25.242	878.755	693.775
268.409	25.289	877.918	693.235
269.424	24.990	877.971	692.059
270.439	24.952	876.925	691.025
271.453	25.138	875.803	690.799
272.468	25.208	875.029	690.394
273.482	24.891	875.704	689.646
274.497	25.142	874.399	689.522
275.512	25.081	873.168	688.257
276.526	24.814	874.324	688.079
277.541	25.121	872.981	688.143
278.555	25.219	872.951	688.434
279.570	25.317	872.806	688.632
280.585	25.455	871.816	688.322
281.599	25.026	870.525	685.597
282.614	24.456	870.142	683.055
283.628	24.906	868.135	683.138
284.643	24.789	868.319	682.774
285.657	24.881	867.555	682.463
286.672	24.916	866.849	681.984
287.687	25.252	865.841	682.408
288.701	25.027	865.927	681.560
289.716	24.789	865.851	680.533
290.730	25.126	864.902	681.010
291.745	25.120	863.206	679.589
292.760	25.303	863.753	680.652
293.774	25.449	864.514	681.747
294.789	25.679	862.716	681.141
295.803	25.534	861.212	679.346
296.818	25.277	860.811	677.995
297.833	24.992	860.315	676.470
298.847	24.735	861.106	676.061
299.862	25.098	860.313	676.748
300.876	25.413	860.362	677.915
301.891	25.552	859.320	677.558
302.906	25.605	858.269	676.870
303.920	25.815	857.366	676.885
304.935	25.669	857.794	676.615
305.949	25.527	856.559	675.048
306.964	25.326	855.203	673.167
307.979	25.027	855.638	672.327
308.993	25.331	856.012	673.704
310.008	25.704	855.191	674.394
311.022	25.586	853.548	672.598
312.037	25.327	853.034	671.165
313.052	24.877	853.257	669.599
314.066	24.600	851.072	666.793
315.081	24.433	851.696	666.598
316.095	24.917	851.206	667.961
317.110	24.670	850.323	666.291
318.125	24.620	849.048	665.047
319.139	24.478	847.902	663.563
320.154	24.241	847.841	662.575
321.168	24.793	847.298	664.141
322.183	24.874	847.002	664.152
323.197	24.815	847.435	664.212
324.212	25.056	846.020	663.938
325.227	24.775	846.553	663.253
326.241	24.841	846.113	663.097
327.256	24.783	843.980	661.153
328.270	24.788	844.035	661.154
329.285	24.231	844.236	659.192
330.300	24.071	843.309	657.821
331.314	24.641	842.960	659.595
332.329	24.828	842.384	659.774
333.343	24.872	842.734	660.153
334.358	25.149	841.097	659.834
335.373	24.845	841.624	659.068
336.387	25.373	840.791	660.300
337.402	25.639	840.782	661.212
338.416	25.512	841.192	661.009
339.431	25.884	839.965	661.349
340.446	25.738	840.052	660.825
341.460	25.772	840.118	660.943
342.475	25.748	839.112	660.004
343.489	26.222	838.426	661.143
344.504	26.317	838.294	661.329
345.519	25.872	838.473	659.781
346.533	26.089	837.636	659.860
347.548	25.943	836.921	658.703
348.562	25.768	836.140	657.391
349.577	25.683	835.310	656.371
350.592	25.578	834.756	655.493
351.606	25.507	833.788	654.419
352.621	25.174	833.981	653.297
353.635	25.379	832.091	652.504
354.650	25.332	831.465	651.786
355.665	25.330	830.517	650.980
356.679	25.244	831.058	651.034
357.694	25.440	829.267	650.281
358.708	25.055	829.881	649.311
359.723	25.080	828.202	648.030
360.738	25.267	828.099	648.567
361.752	25.339	828.134	648.797
362.767	25.787	826.579	649.136
363.781	26.083	827.041	650.509
364.796	26.099	826.494	650.081
365.810	26.188	826.546	650.383
366.825	25.796	825.744	648.283
367.840	25.786	826.042	648.425
368.854	25.708	824.458	646.844
369.869	25.457	824.565	645.970
370.883	26.085	824.182	647.865
371.898	25.835	823.730	646.558
372.913	26.069	822.726	646.551
373.927	25.640	822.721	644.952
374.942	25.452	822.877	644.343
375.956	25.833	821.854	644.849
376.971	25.831	821.218	644.287
377.986	26.115	820.930	645.018
379.000	25.899	819.669	643.199
380.015	26.176	820.011	644.399
381.029	26.328	819.193	644.241
382.044	26.111	819.552	643.692
383.059	26.487	817.873	643.656
384.073	26.573	816.738	643.011
385.088	26.040	816.544	640.908
386.102	25.619	816.186	639.075
387.117	25.668	814.809	638.115
388.132	25.646	813.488	636.944
389.146	25.495	813.329	636.228
390.161	25.918	814.640	638.700
391.175	26.270	813.512	639.004
392.190	25.928	812.780	637.162
393.205	25.788	812.130	636.102
394.219	24.898	810.854	631.906
395.234	24.461	811.064	630.473
396.248	25.110	810.837	632.531
397.263	25.526	809.954	633.251
398.278	25.428	809.525	632.515
399.292	24.811	809.548	630.304
400.307	24.876	808.247	629.462
401.321	24.842	808.732	629.664
402.336	25.388	807.867	630.855
403.350	25.937	808.412	633.152
404.365	25.910	807.689	632.436
405.380	26.486	807.051	633.901
406.394	26.615	806.918	634.191
407.409	26.299	806.406	632.625
408.423	26.267	806.824	632.787
409.438	26.319	805.873	632.164
410.453	26.502	805.641	632.568
411.467	26.387	804.744	631.406
412.482	25.972	804.757	629.910
413.496	26.169	804.051	629.988
414.511	26.413	804.024	630.764
415.526	26.212	803.006	629.211
416.540	26.563	801.288	629.028
417.555	26.137	802.056	628.092
418.569	26.677	801.000	629.085
419.584	26.500	800.927	628.357
420.599	26.008	801.439	626.994
421.613	160.333	1371.212	1793.427
422.628	139.202	1454.251	1793.513
