DTS Sentinel unit serial number:	SN413079Multiplexer serial number:	ORYXHardware model number:	OX4-SRSoftware version number:	ORYX F/W v4.00 Oryx Data Collector v3.7.2.0data status	okinstallation	princeton_trtdifferential loss correction	single-endedforward channel	channel 1reverse channel	N/Adate	2019/09/13time	14:22:35forward acquisition time	60.00reverse acquisition time	0.00gamma	496.2192k internal	0.2303k external	0.2303temperature offset calibration	1.0162default loss term (dB/km)	0.3790temperature slope calibration	1.0000multiplexer offset coefficient	1.0000multiplexer slope coefficient	1.0000fibre end	0.00T internal ref (°C)	35.28T ext. ref 1 (°C)	4.61T ext. ref 2 (°C)	30.92length (m)	temperature (°C)	Stokes	anti-Stokes-747.200	-60.199	-0.121	0.053
-746.185	85.731	-0.219	0.245
-745.171	-116.356	0.207	0.039
-744.156	14.028	0.058	0.046
-743.142	-200.000	0.039	0.321
-742.127	-120.691	0.143	0.025
-741.112	31.356	0.038	0.033
-740.098	4.811	-0.379	-0.284
-739.083	-200.000	-0.006	0.049
-738.069	800.000	-0.045	0.129
-737.054	106.640	-0.132	-0.159
-736.039	322.253	0.019	-0.037
-735.025	-82.081	-0.303	-0.101
-734.010	-56.636	-0.342	0.154
-732.996	-200.000	-0.042	-0.189
-731.981	-200.000	0.011	-0.196
-730.966	800.000	0.087	-0.272
-729.952	-200.000	0.035	-0.353
-728.937	257.130	-0.031	0.054
-727.923	3.164	0.219	-0.162
-726.908	-155.379	-0.360	-0.024
-725.894	-200.000	0.004	0.139
-724.879	-35.079	-0.263	-0.146
-723.864	7.446	0.124	0.095
-722.850	-111.675	-0.246	0.051
-721.835	-77.530	-0.222	0.078
-720.821	-116.337	0.424	-0.080
-719.806	-116.770	0.486	0.091
-718.791	3.080	0.126	0.093
-717.777	-79.226	0.199	-0.069
-716.762	800.000	0.010	0.038
-715.748	-59.463	0.106	0.046
-714.733	-135.425	-0.185	-0.022
-713.718	117.785	-0.125	-0.157
-712.704	-90.248	0.164	-0.048
-711.689	-200.000	0.025	0.210
-710.675	736.001	0.114	-0.311
-709.660	429.467	-0.126	-0.276
-708.645	-105.553	0.124	-0.029
-707.631	-200.000	-0.003	0.132
-706.616	-18.778	0.232	-0.147
-705.602	-67.815	-0.373	0.148
-704.587	157.906	0.347	0.489
-703.572	-81.213	-0.066	-0.022
-702.558	68.665	0.096	0.100
-701.543	4.844	0.302	-0.226
-700.529	-200.000	-0.013	0.269
-699.514	56.978	0.048	-0.048
-698.499	224.287	-0.060	-0.099
-697.485	37.827	0.511	-0.462
-696.470	-22.321	-0.246	-0.152
-695.456	113.928	-0.192	-0.238
-694.441	-129.864	-0.207	0.029
-693.426	800.000	0.133	0.403
-692.412	800.000	-0.108	-0.413
-691.397	217.918	-0.149	-0.241
-690.383	189.868	0.048	0.074
-689.368	800.000	-0.027	0.083
-688.354	73.803	-0.087	0.093
-687.339	-78.094	0.214	-0.075
-686.324	185.597	-0.310	0.468
-685.310	81.145	0.174	-0.191
-684.295	-96.014	-0.159	0.043
-683.281	375.257	-0.151	0.314
-682.266	-200.000	0.053	0.243
-681.251	-145.606	-0.288	0.026
-680.237	-105.688	-0.103	-0.024
-679.222	-200.000	0.026	0.115
-678.208	-200.000	0.044	0.295
-677.193	76.132	-0.136	-0.146
-676.178	38.550	0.173	-0.157
-675.164	800.000	-0.051	-0.161
-674.149	-8.437	-0.229	0.156
-673.135	-200.000	-0.031	0.187
-672.120	78.355	0.102	-0.111
-671.105	-200.000	0.010	-0.204
-670.091	-146.110	-0.108	-0.010
-669.076	-125.329	-0.255	0.040
-668.062	-200.000	0.056	-0.437
-667.047	162.246	0.122	-0.174
-666.032	-165.902	-0.345	-0.015
-665.018	251.544	0.177	-0.306
-664.003	-123.978	0.170	-0.027
-662.989	-51.309	-0.202	-0.096
-661.974	-147.185	0.372	0.032
-660.959	-96.048	0.193	0.052
-659.945	800.000	0.164	0.505
-658.930	-200.000	-0.048	-0.240
-657.916	163.716	0.177	0.253
-656.901	-200.000	0.008	-0.181
-655.886	-200.000	-0.007	-0.176
-654.872	-200.000	0.042	-0.251
-653.857	-25.662	0.159	-0.095
-652.843	-56.271	-0.192	0.087
-651.828	-54.598	0.225	-0.103
-650.814	-76.057	0.096	-0.035
-649.799	-200.000	0.029	0.185
-648.784	15.949	0.233	0.186
-647.770	566.697	-0.090	-0.221
-646.755	-6.839	-0.086	-0.059
-645.741	-23.933	-0.328	0.199
-644.726	-55.009	-0.142	0.065
-643.711	191.602	0.169	-0.258
-642.697	-48.658	-0.358	0.174
-641.682	192.021	0.092	-0.140
-640.668	-200.000	-0.024	-0.287
-639.653	68.443	0.027	-0.028
-638.638	-26.907	0.260	-0.154
-637.624	-200.000	-0.012	-0.117
-636.609	27.344	0.106	-0.090
-635.595	168.094	-0.092	0.133
-634.580	-98.746	-0.065	-0.017
-633.565	34.298	-0.165	0.146
-632.551	79.740	-0.157	-0.171
-631.536	-200.000	0.002	0.043
-630.522	624.320	-0.050	0.127
-629.507	-87.630	-0.283	-0.087
-628.492	-43.715	-0.106	0.054
-627.478	32.209	-0.088	0.077
-626.463	110.457	0.061	-0.075
-625.449	-115.898	-0.083	0.016
-624.434	-200.000	0.016	0.262
-623.419	-49.431	0.343	-0.166
-622.405	800.000	0.037	0.108
-621.390	-200.000	0.023	-0.157
-620.376	-200.000	0.055	0.395
-619.361	-132.320	0.331	-0.043
-618.346	185.493	-0.196	-0.294
-617.332	-103.602	-0.168	0.040
-616.317	-85.234	-0.404	-0.128
-615.303	-200.000	-0.006	0.234
-614.288	-79.965	-0.180	0.061
-613.273	37.606	0.162	0.146
-612.259	64.473	0.138	0.141
-611.244	-200.000	-0.054	-0.260
-610.230	-33.476	-0.087	0.049
-609.215	-99.862	-0.080	0.020
-608.201	-169.965	0.184	0.007
-607.186	-80.806	0.330	0.111
-606.171	800.000	0.081	0.290
-605.157	94.478	-0.178	-0.204
-604.142	78.530	0.019	0.021
-603.128	25.777	-0.070	0.059
-602.113	800.000	0.119	-0.339
-601.098	-69.972	0.180	-0.069
-600.084	783.075	0.095	-0.265
-599.069	612.201	0.026	0.066
-598.055	333.704	-0.097	-0.191
-597.040	-122.474	0.257	0.042
-596.025	-27.130	0.111	0.066
-595.011	-200.000	0.029	0.169
-593.996	179.316	-0.075	0.111
-592.982	184.679	-0.076	0.114
-591.967	-95.172	-0.110	0.030
-590.952	-99.258	0.335	0.086
-589.938	519.098	0.084	-0.200
-588.923	-56.451	-0.156	0.070
-587.909	12.564	0.071	0.055
-586.894	800.000	-0.060	-0.235
-585.879	800.000	-0.030	0.103
-584.865	79.175	-0.142	-0.154
-583.850	-49.225	0.203	-0.098
-582.836	-41.460	-0.089	-0.046
-581.821	800.000	-0.034	-0.140
-580.806	107.937	-0.044	0.053
-579.792	-200.000	-0.000	-0.170
-578.777	264.447	-0.124	-0.218
-577.763	35.873	-0.077	0.069
-576.748	-200.000	0.013	-0.204
-575.733	71.335	-0.243	-0.256
-574.719	-103.648	-0.196	-0.046
-573.704	120.553	0.089	0.112
-572.690	158.754	-0.087	0.122
-571.675	-200.000	0.027	0.156
-570.661	259.942	0.310	-0.542
-569.646	-67.112	0.109	-0.043
-568.631	272.727	-0.204	0.365
-567.617	580.044	-0.051	0.126
-566.602	218.838	0.139	0.224
-565.588	800.000	0.059	-0.184
-564.573	-91.594	-0.220	-0.063
-563.558	-200.000	-0.017	0.158
-562.544	-41.332	0.263	0.137
-561.529	136.719	-0.095	-0.126
-560.515	-21.711	0.308	-0.190
-559.500	695.668	-0.010	-0.027
-558.485	-20.530	0.312	-0.194
-557.471	317.883	-0.256	-0.490
-556.456	4.917	0.143	-0.107
-555.442	-200.000	0.009	0.042
-554.427	800.000	0.081	-0.268
-553.412	-140.302	0.352	-0.037
-552.398	94.245	-0.022	-0.025
-551.383	161.588	-0.150	-0.213
-550.369	800.000	-0.020	-0.086
-549.354	15.055	0.208	-0.165
-548.339	800.000	-0.021	0.085
-547.325	-79.958	-0.164	-0.056
-546.310	114.494	0.122	-0.150
-545.296	-100.963	0.030	-0.007
-544.281	-200.000	-0.025	-0.356
-543.266	-135.038	-0.374	0.046
-542.252	-31.851	0.140	0.079
-541.237	276.556	-0.093	-0.168
-540.223	-200.000	0.032	-0.162
-539.208	-200.000	0.003	0.032
-538.193	74.791	-0.113	0.121
-537.179	29.957	-0.127	0.110
-536.164	800.000	-0.027	0.090
-535.150	-107.761	0.283	0.062
-534.135	52.317	-0.276	0.266
-533.121	-26.805	-0.506	0.299
-532.106	-148.413	-0.152	0.013
-531.091	474.706	-0.138	-0.315
-530.077	-91.959	0.204	0.058
-529.062	-78.615	0.101	0.035
-528.048	-63.436	0.041	-0.017
-527.033	53.492	0.047	-0.046
-526.018	19.481	0.187	0.152
-525.004	3.972	0.229	-0.169
-523.989	-70.730	0.292	-0.111
-522.975	-41.153	-0.187	-0.097
-521.960	-112.672	-0.429	0.086
-520.945	42.438	0.218	0.201
-519.931	226.678	0.162	0.266
-518.916	800.000	-0.097	-0.277
-517.902	253.219	-0.104	-0.179
-516.887	-200.000	-0.034	-0.176
-515.872	208.360	-0.050	0.079
-514.858	-200.000	-0.021	-0.289
-513.843	242.626	-0.127	0.215
-512.829	27.963	-0.150	-0.128
-511.814	92.935	0.216	0.246
-510.799	171.749	0.072	0.104
-509.785	-47.582	-0.311	0.153
-508.770	36.232	-0.246	0.219
-507.756	-59.647	0.265	0.115
-506.741	-200.000	-0.021	0.352
-505.726	-47.311	-0.128	-0.063
-504.712	263.627	0.247	0.433
-503.697	-122.843	-0.172	-0.028
-502.683	-131.371	0.354	0.047
-501.668	97.897	-0.123	0.143
-500.653	-112.901	0.363	0.073
-499.639	-8.140	-0.242	-0.165
-498.624	-9.566	-0.108	-0.073
-497.610	-15.119	-0.250	0.161
-496.595	270.114	0.160	-0.283
-495.581	800.000	-0.129	-0.372
-494.566	-91.476	-0.127	-0.037
-493.551	201.748	-0.022	0.034
-492.537	616.707	0.018	0.047
-491.522	800.000	-0.051	0.183
-490.508	335.258	0.119	-0.232
-489.493	-132.452	0.155	-0.020
-488.478	-200.000	-0.017	0.116
-487.464	-31.267	0.176	-0.100
-486.449	378.157	0.075	0.155
-485.435	329.320	-0.142	0.276
-484.420	-86.198	-0.199	-0.062
-483.405	800.000	-0.134	-0.591
-482.391	-66.666	-0.141	-0.056
-481.376	-79.449	-0.172	0.059
-480.362	471.545	0.158	0.358
-479.347	-63.859	-0.204	-0.084
-478.332	-151.931	-0.310	-0.023
-477.318	-20.573	0.343	-0.212
-476.303	-200.000	-0.002	0.014
-475.289	31.666	0.214	0.186
-474.274	-120.140	-0.202	0.035
-473.259	800.000	-0.065	-0.228
-472.245	-200.000	0.004	0.048
-471.230	-83.074	-0.093	0.030
-470.216	8.928	0.184	-0.140
-469.201	-86.514	-0.040	0.012
-468.186	73.186	0.171	0.180
-467.172	197.826	-0.145	-0.224
-466.157	-200.000	-0.025	0.228
-465.143	-98.312	0.060	-0.016
-464.128	-141.216	0.120	0.012
-463.113	-200.000	0.027	0.417
-462.099	-46.359	0.109	0.054
-461.084	200.670	0.062	-0.096
-460.070	-90.308	0.248	0.073
-459.055	256.073	0.219	0.378
-458.040	-101.505	0.184	-0.045
-457.026	-7.129	-0.265	-0.181
-456.011	800.000	-0.059	0.219
-454.997	-124.585	-0.028	-0.004
-453.982	223.721	0.079	-0.129
-452.968	-23.694	0.320	0.193
-451.953	246.319	0.088	0.150
-450.938	43.428	-0.160	-0.148
-449.924	-6.768	-0.091	0.062
-448.909	96.060	0.059	0.068
-447.895	-3.230	0.307	-0.215
-446.880	13.109	0.171	0.134
-445.865	-166.389	-0.315	0.013
-444.851	243.048	-0.105	-0.178
-443.836	-95.097	0.282	0.077
-442.822	42.147	0.133	-0.121
-441.807	-124.677	0.349	0.054
-440.792	-144.308	-0.164	0.015
-439.778	535.773	0.084	0.201
-438.763	-102.521	0.113	-0.027
-437.749	-109.179	-0.134	-0.029
-436.734	-29.735	-0.269	-0.154
-435.719	-198.430	-0.029	-0.000
-434.705	89.263	0.063	-0.070
-433.690	-200.000	-0.002	-0.122
-432.676	-137.791	-0.430	-0.049
-431.661	34.438	-0.086	0.075
-430.646	800.000	-0.083	-0.356
-429.632	248.459	-0.022	0.037
-428.617	30.298	-0.298	0.256
-427.603	-200.000	-0.030	-0.308
-426.588	-85.925	0.255	-0.079
-425.573	233.172	-0.126	0.208
-424.559	135.691	0.068	0.089
-423.544	284.744	0.159	-0.287
-422.530	-86.993	-0.107	-0.033
-421.515	-78.378	-0.053	-0.018
-420.500	-163.825	-0.130	-0.006
-419.486	-72.174	0.239	-0.089
-418.471	-1.328	-0.275	-0.196
-417.457	-26.008	0.181	-0.107
-416.442	-79.535	0.317	-0.108
-415.428	800.000	-0.052	0.207
-414.413	101.349	0.054	0.063
-413.398	51.389	-0.050	0.048
-412.384	-75.092	-0.224	0.081
-411.369	-200.000	0.044	0.342
-410.355	341.163	-0.127	0.249
-409.340	-12.479	0.134	0.088
-408.325	-29.587	0.151	-0.087
-407.311	157.170	-0.135	0.188
-406.296	800.000	0.031	0.116
-405.282	14.749	0.407	-0.320
-404.267	14.493	0.238	0.186
-403.252	-200.000	0.020	-0.101
-402.238	-46.932	0.105	-0.052
-401.223	-138.085	-0.046	0.005
-400.209	-32.335	-0.283	0.159
-399.194	55.240	-0.215	-0.209
-398.179	-54.256	0.162	-0.074
-397.165	800.000	-0.052	0.149
-396.150	-165.981	0.079	0.003
-395.136	219.466	-0.062	0.099
-394.121	683.868	0.075	-0.198
-393.106	518.686	-0.127	-0.299
-392.092	-47.251	-0.239	-0.117
-391.077	-39.980	0.056	-0.029
-390.063	800.000	-0.033	-0.138
-389.048	800.000	0.064	-0.212
-388.033	43.109	0.078	-0.071
-387.019	-18.807	0.114	0.071
-386.004	145.756	-0.075	0.101
-384.990	-200.000	0.071	-0.354
-383.975	-153.652	-0.217	-0.015
-382.960	468.579	-0.121	0.272
-381.946	-200.000	-0.020	-0.122
-380.931	-52.551	-0.152	-0.071
-379.917	-60.162	-0.171	-0.073
-378.902	-21.431	0.285	0.175
-377.888	-200.000	0.050	0.235
-376.873	-124.026	-0.424	0.067
-375.858	800.000	0.062	0.184
-374.844	137.900	-0.151	0.199
-373.829	-36.576	0.150	0.081
-372.815	-41.800	-0.144	-0.074
-371.800	-124.859	0.236	-0.037
-370.785	36.376	-0.193	0.171
-369.771	95.548	0.193	-0.221
-368.756	217.033	0.102	0.164
-367.742	-200.000	0.017	0.128
-366.727	-200.000	-0.027	-0.174
-365.712	268.940	0.069	-0.122
-364.698	87.149	-0.113	-0.125
-363.683	22.291	-0.165	-0.135
-362.669	-92.102	0.350	-0.099
-361.654	609.944	0.095	0.238
-360.639	-82.285	0.520	0.170
-359.625	-89.082	-0.217	0.064
-358.610	800.000	0.056	0.178
-357.596	22.183	0.249	-0.204
-356.581	7.204	0.246	-0.184
-355.566	-1.811	-0.114	-0.081
-354.552	-200.000	-0.039	0.342
-353.537	369.580	-0.116	0.236
-352.523	800.000	0.017	0.074
-351.508	130.729	-0.083	0.106
-350.493	-33.456	0.296	-0.164
-349.479	-52.422	0.242	0.112
-348.464	720.835	-0.038	0.101
-347.450	7.486	-0.091	-0.068
-346.435	-200.000	0.348	0.001
-345.420	-180.479	0.078	0.002
-344.406	-129.905	-0.259	0.036
-343.391	-120.245	0.085	0.015
-342.377	274.920	0.063	0.111
-341.362	-97.557	0.071	-0.018
-340.348	800.000	-0.089	-0.294
-339.333	671.957	0.093	0.242
-338.318	101.961	-0.051	0.060
-337.304	-200.000	-0.031	0.161
-336.289	506.157	0.171	-0.398
-335.275	49.592	0.169	-0.159
-334.260	-153.744	-0.177	-0.012
-333.245	214.940	-0.179	0.284
-332.231	-200.000	0.007	-0.097
-331.216	-6.339	-0.075	-0.051
-330.202	-120.775	-0.180	0.030
-329.187	12.148	-0.199	0.154
-328.172	-101.836	-0.081	0.020
-327.158	-46.273	0.114	0.056
-326.143	287.083	0.034	-0.061
-325.129	125.990	0.104	-0.132
-324.114	136.594	-0.125	0.164
-323.099	-43.907	0.424	0.214
-322.085	-105.068	-0.135	0.031
-321.070	-97.344	-0.122	0.032
-320.056	-28.403	-0.289	-0.167
-319.041	126.202	-0.020	0.026
-318.026	302.251	-0.146	0.270
-317.012	-200.000	0.021	-0.168
-315.997	-91.414	0.289	-0.083
-314.983	800.000	-0.063	0.200
-313.968	-17.247	0.241	0.152
-312.953	638.126	-0.033	0.085
-311.939	-200.000	-0.005	0.160
-310.924	-102.275	-0.323	0.078
-309.910	-200.000	-0.034	0.169
-308.895	-170.467	0.288	0.010
-307.880	292.404	-0.112	-0.205
-306.866	192.105	-0.106	-0.159
-305.851	-200.000	-0.019	0.205
-304.837	-8.331	-0.313	0.211
-303.822	-200.000	-0.005	-0.185
-302.807	493.191	-0.148	0.340
-301.793	140.407	-0.160	0.211
-300.778	-22.168	0.041	-0.025
-299.764	-61.033	-0.048	-0.020
-298.749	207.811	0.090	-0.141
-297.735	292.088	-0.092	-0.168
-296.720	800.000	-0.048	-0.192
-295.705	-200.000	0.004	-0.207
-294.691	800.000	0.108	0.377
-293.676	-133.617	0.191	0.024
-292.662	800.000	0.067	0.219
-291.647	-77.883	-0.444	-0.153
-290.632	84.004	-0.107	-0.117
-289.618	-140.136	-0.220	-0.023
-288.603	300.846	-0.015	-0.027
-287.589	195.225	0.210	-0.319
-286.574	-200.000	0.038	-0.344
-285.559	367.173	-0.113	-0.229
-284.545	-67.316	-0.217	-0.085
-283.530	-200.000	0.026	0.361
-282.516	-74.869	-0.252	-0.090
-281.501	800.000	-0.050	0.219
-280.486	-200.000	0.009	0.143
-279.472	-200.000	0.034	0.182
-278.457	78.109	-0.119	-0.127
-277.443	-63.153	-0.292	-0.120
-276.428	31.452	0.187	0.161
-275.413	-200.000	0.021	0.366
-274.399	120.963	0.162	0.201
-273.384	-165.083	-0.298	-0.013
-272.370	-200.000	0.013	-0.276
-271.355	-118.148	-0.154	-0.027
-270.340	-77.447	-0.367	-0.127
-269.326	-35.128	0.150	-0.081
-268.311	391.907	0.030	-0.062
-267.297	-200.000	-0.001	0.139
-266.282	800.000	0.048	0.192
-265.267	-150.972	0.158	-0.012
-264.253	46.057	-0.296	0.274
-263.238	444.124	0.133	0.291
-262.224	-32.213	0.317	0.177
-261.209	71.271	0.097	-0.100
-260.195	-200.000	-0.043	-0.208
-259.180	-150.928	-0.114	0.009
-258.165	-200.000	-0.022	0.170
-257.151	800.000	0.104	-0.395
-256.136	-78.465	0.377	-0.129
-255.122	-71.558	-0.062	-0.023
-254.107	-113.189	-0.139	0.027
-253.092	130.466	-0.093	0.119
-252.078	621.107	0.050	-0.127
-251.063	-112.053	-0.348	-0.070
-250.049	194.831	-0.103	-0.156
-249.034	800.000	0.096	0.322
-248.019	-40.759	-0.225	-0.116
-247.005	-155.022	0.213	-0.014
-245.990	46.101	0.069	0.064
-244.976	-200.000	-0.028	0.206
-243.961	19.054	0.241	-0.193
-242.946	-173.942	0.434	-0.013
-241.932	194.721	-0.147	-0.223
-240.917	158.719	0.080	0.112
-239.903	800.000	0.075	-0.211
-238.888	71.903	-0.122	0.127
-237.873	-127.199	0.274	0.040
-236.859	82.135	0.179	0.194
-235.844	-70.053	0.111	0.042
-234.830	780.779	0.096	-0.264
-233.815	-131.762	0.305	0.040
-232.800	-200.000	-0.016	0.191
-231.786	-175.804	0.284	-0.008
-230.771	58.155	-0.124	0.121
-229.757	-200.000	0.012	-0.191
-228.742	-45.269	-0.289	-0.143
-227.727	75.834	0.231	0.244
-226.713	-19.313	-0.240	-0.148
-225.698	257.980	0.132	-0.228
-224.684	-29.730	0.214	0.122
-223.669	-200.000	0.008	-0.099
-222.655	-87.735	0.131	0.039
-221.640	-115.918	0.202	-0.038
-220.625	79.611	-0.077	-0.083
-219.611	-156.187	0.194	-0.012
-218.596	321.201	0.107	0.204
-217.582	108.803	0.082	0.097
-216.567	-200.000	0.022	-0.144
-215.552	-158.585	-0.343	0.020
-214.538	523.572	-0.135	-0.318
-213.523	-200.000	0.028	0.454
-212.509	-149.960	0.261	0.020
-211.494	55.430	0.097	-0.094
-210.479	675.589	-0.105	-0.271
-209.465	96.911	0.118	-0.135
-208.450	-200.000	0.015	0.365
-207.436	800.000	-0.081	0.278
-206.421	40.414	-0.191	0.171
-205.406	800.000	0.116	0.343
-204.392	152.412	-0.173	0.236
-203.377	-22.205	-0.354	-0.214
-202.363	13.631	0.110	-0.085
-201.348	-22.764	-0.146	-0.088
-200.333	-7.213	0.225	-0.152
-199.319	224.421	0.116	0.188
-198.304	800.000	-0.022	0.075
-197.290	-65.810	0.394	-0.157
-196.275	800.000	0.055	-0.166
-195.260	194.972	0.043	-0.066
-194.246	-65.698	0.395	0.158
-193.231	-70.312	-0.192	0.073
-192.217	4.302	-0.205	-0.150
-191.202	-54.632	-0.213	-0.096
-190.187	800.000	0.022	0.087
-189.173	155.912	-0.044	-0.061
-188.158	718.408	0.086	0.227
-187.144	-80.459	-0.278	0.092
-186.129	84.199	0.153	0.166
-185.114	19.868	0.055	-0.044
-184.100	214.140	-0.208	-0.328
-183.085	326.321	-0.145	-0.276
-182.071	-199.119	-0.142	-0.001
-181.056	-106.611	-0.209	0.046
-180.042	1.088	-0.107	0.077
-179.027	800.000	-0.073	0.282
-178.012	-200.000	-0.043	0.339
-176.998	350.449	0.081	-0.160
-175.983	-86.907	-0.308	-0.094
-174.969	-200.000	0.020	0.297
-173.954	800.000	-0.098	-0.410
-172.939	-24.633	0.157	-0.093
-171.925	-200.000	0.115	0.000
-170.910	-200.000	-0.035	-0.252
-169.896	-65.782	0.110	0.044
-168.881	-156.324	-0.424	-0.026
-167.866	-200.000	0.009	0.056
-166.852	800.000	-0.038	0.114
-165.837	-200.000	0.018	0.186
-164.823	-74.886	-0.078	0.028
-163.808	-6.050	0.128	-0.087
-162.793	58.100	-0.184	0.179
-161.779	19.872	-0.311	-0.249
-160.764	-105.061	0.404	0.092
-159.750	-38.172	-0.295	-0.156
-158.735	-170.129	0.172	0.006
-157.720	800.000	0.062	-0.245
-156.706	52.640	-0.106	-0.101
-155.691	-52.629	0.144	0.066
-154.677	-200.000	-0.012	0.053
-153.662	800.000	0.122	-0.412
-152.647	-129.667	0.377	-0.052
-151.633	68.047	0.262	0.267
-150.618	48.205	0.129	0.120
-149.604	596.575	0.027	-0.067
-148.589	17.528	-0.165	-0.131
-147.574	-169.339	-0.082	-0.003
-146.560	140.814	0.223	-0.294
-145.545	166.029	0.228	-0.321
-144.531	-84.231	0.276	-0.087
-143.516	273.198	0.173	-0.304
-142.502	83.379	-0.243	0.264
-141.487	-200.000	0.011	0.110
-140.472	-88.874	0.298	0.088
-139.458	151.309	0.070	0.095
-138.443	74.036	0.068	0.071
-137.429	233.964	-0.048	-0.079
-136.414	-110.122	-0.070	0.015
-135.399	-30.202	-0.170	-0.096
-134.385	10.332	-0.190	0.143
-133.370	-5.129	0.240	-0.164
-132.356	-52.515	0.245	0.113
-131.341	-94.837	-0.160	-0.043
-130.326	-78.753	0.155	0.053
-129.312	129.643	0.111	-0.141
-128.297	800.000	0.127	0.369
-127.283	-100.766	-0.333	0.082
-126.268	-81.279	0.259	-0.085
-125.253	163.108	-0.117	-0.164
-124.239	-119.985	0.071	0.012
-123.224	-200.000	-0.009	0.073
-122.210	-17.501	0.207	-0.130
-121.195	208.166	0.002	-0.003
-120.180	-122.354	-0.475	-0.077
-119.166	29.636	-0.062	0.052
-118.151	403.438	0.129	-0.269
-117.137	100.250	-0.180	0.208
-116.122	-91.328	-0.300	0.085
-115.107	563.525	0.118	-0.283
-114.093	-177.556	0.142	-0.003
-113.078	179.693	-0.048	-0.070
-112.064	-57.191	0.101	0.044
-111.049	149.634	0.168	0.226
-110.034	800.000	-0.015	-0.057
-109.020	36.044	0.169	-0.148
-108.005	-200.000	0.016	-0.076
-106.991	-21.722	0.085	0.052
-105.976	-23.354	-0.137	-0.082
-104.962	60.766	-0.248	0.244
-103.947	35.073	-0.164	0.143
-102.932	-13.140	0.112	-0.072
-101.918	-200.000	-0.041	-0.323
-100.903	378.340	-0.152	0.309
-99.889	69.459	0.106	0.108
-98.874	90.887	0.160	-0.178
-97.859	146.642	-0.113	0.150
-96.845	-200.000	0.037	0.513
-95.830	452.342	-0.131	0.287
-94.816	-78.425	0.497	0.169
-93.801	-90.426	-0.228	-0.066
-92.786	-157.304	0.074	-0.004
-91.772	20.409	0.330	-0.265
-90.757	491.389	0.100	-0.227
-89.743	91.993	-0.041	0.046
-88.728	-190.864	-0.385	-0.004
-87.713	-23.460	0.190	0.113
-86.699	-200.000	-0.022	0.227
-85.684	-200.000	-0.031	0.180
-84.670	207.309	0.187	-0.289
-83.655	-132.849	-0.171	-0.022
-82.640	-50.350	-0.039	0.018
-81.626	800.000	-0.058	0.220
-80.611	-92.593	0.321	0.089
-79.597	8.706	-0.138	-0.103
-78.582	157.187	-0.120	0.165
-77.567	731.975	0.151	-0.400
-76.553	800.000	-0.060	-0.255
-75.538	188.565	-0.133	0.198
-74.524	53.593	-0.211	-0.201
-73.509	-10.148	0.066	-0.043
-72.494	-45.215	0.161	0.079
-71.480	-200.000	-0.056	0.393
-70.465	3.336	0.313	-0.226
-69.451	-122.022	-0.264	0.043
-68.436	-89.978	-0.312	-0.090
-67.422	-125.949	0.198	0.030
-66.407	299.444	0.107	-0.196
-65.392	-191.015	0.231	-0.002
-64.378	191.623	-0.120	0.179
-63.363	3.719	0.147	0.106
-62.349	7.317	0.079	-0.058
-61.334	-19.491	-0.770	-0.473
-60.319	59.799	0.426	0.417
-59.305	450.933	-0.341	-0.747
-58.290	560.126	0.442	1.059
-57.276	800.000	0.365	1.422
-56.261	-200.000	94.666	560.548
-55.246	632.804	1382.540	3473.520
-54.232	186.256	2601.015	3837.063
-53.217	123.098	2195.185	2726.088
-52.203	47.291	1646.062	1519.971
-51.188	38.826	1380.035	1221.840
-50.173	35.515	1337.519	1164.119
-49.159	55.901	1386.193	1332.781
-48.144	60.352	1404.034	1377.325
-47.130	39.149	1358.347	1204.426
-46.115	35.448	1340.768	1166.353
-45.100	35.300	1335.271	1160.631
-44.086	35.062	1333.476	1157.585
-43.071	35.162	1330.873	1155.882
-42.057	35.119	1328.833	1153.804
-41.042	35.129	1327.198	1152.400
-40.027	35.219	1325.590	1151.501
-39.013	35.145	1323.580	1149.262
-37.998	35.202	1321.642	1147.875
-36.984	35.382	1319.193	1146.779
-35.969	35.222	1317.772	1144.544
-34.954	35.363	1315.914	1143.729
-33.940	35.392	1315.053	1143.104
-32.925	35.502	1313.349	1142.233
-31.911	35.498	1311.771	1140.790
-30.896	35.402	1310.452	1139.029
-29.881	35.390	1309.420	1138.015
-28.867	35.420	1307.708	1136.658
-27.852	35.382	1306.183	1135.066
-26.838	35.312	1305.078	1133.645
-25.823	35.421	1303.715	1133.058
-24.809	35.414	1302.422	1131.851
-23.794	35.403	1300.754	1130.292
-22.779	35.452	1299.377	1129.336
-21.765	35.367	1298.540	1128.065
-20.750	35.328	1296.964	1126.422
-19.736	35.303	1295.474	1124.941
-18.721	35.140	1294.565	1123.148
-17.706	35.118	1293.188	1121.779
-16.692	35.162	1292.206	1121.140
-15.677	35.249	1290.352	1119.996
-14.663	35.194	1289.611	1118.986
-13.648	35.150	1289.052	1118.200
-12.633	35.183	1287.819	1117.280
-11.619	35.209	1286.756	1116.467
-10.604	35.256	1285.663	1115.747
-9.590	35.180	1284.793	1114.504
-8.575	35.173	1283.989	1113.722
-7.560	35.159	1283.125	1112.846
-6.546	35.196	1281.910	1111.965
-5.531	35.127	1281.318	1111.006
-4.517	35.139	1280.872	1110.645
-3.502	35.232	1279.316	1109.788
-2.487	35.278	1278.799	1109.562
-1.473	35.254	1274.630	1105.762
-0.458	33.731	1259.650	1084.033
0.556	31.805	1239.474	1040.535
1.571	27.186	1243.217	1017.793
2.586	25.575	1257.447	1020.221
3.600	23.914	1245.008	1000.698
4.615	18.014	1170.977	909.790
5.629	9.142	1094.598	806.022
6.644	4.984	1073.134	769.654
7.659	4.683	1070.261	766.045
8.673	4.368	1069.294	763.734
9.688	4.407	1067.962	762.906
10.702	5.051	1066.755	765.138
11.717	10.848	1075.030	799.594
12.731	19.304	1086.696	850.079
13.746	22.408	1089.923	867.856
14.761	21.866	1088.809	864.220
15.775	21.012	1086.946	858.466
16.790	19.969	1085.238	851.910
17.804	19.314	1083.481	847.236
18.819	18.971	1082.379	844.616
19.834	18.822	1081.886	843.424
20.848	18.764	1080.927	842.319
21.863	18.540	1080.322	840.675
22.877	18.523	1079.142	839.599
23.892	18.329	1078.754	838.275
24.907	18.267	1078.166	837.439
25.921	18.361	1076.912	836.850
26.936	18.375	1075.668	835.878
27.950	18.422	1074.223	834.911
28.965	18.393	1073.206	833.902
29.980	18.660	1071.078	833.476
30.994	18.713	1070.249	833.014
32.009	18.704	1069.512	832.323
33.023	18.722	1068.252	831.353
34.038	18.563	1067.615	830.014
35.053	18.524	1066.323	828.749
36.067	18.328	1065.390	827.005
37.082	18.495	1064.983	827.421
38.096	18.630	1064.160	827.358
39.111	18.672	1063.470	826.950
40.126	18.410	1062.217	824.642
41.140	18.231	1060.601	822.456
42.155	18.081	1058.931	820.368
43.169	17.979	1058.508	819.480
44.184	18.085	1056.998	818.744
45.199	18.179	1056.424	818.677
46.213	18.144	1055.748	817.916
47.228	18.389	1054.590	818.114
48.242	18.481	1053.372	817.539
49.257	18.508	1052.915	817.240
50.271	18.494	1052.261	816.590
51.286	18.532	1051.109	815.805
52.301	18.551	1049.775	814.789
53.315	18.520	1048.415	813.514
54.330	18.239	1047.701	811.557
55.344	18.240	1046.932	810.891
56.359	18.236	1046.479	810.452
57.374	18.197	1045.370	809.336
58.388	18.067	1044.298	807.820
59.403	18.103	1043.250	807.110
60.417	18.051	1042.496	806.207
61.432	17.905	1041.754	804.873
62.447	17.882	1041.382	804.408
63.461	17.827	1040.600	803.475
64.476	17.862	1039.186	802.477
65.490	17.843	1038.533	801.813
66.505	17.944	1037.476	801.398
67.520	17.915	1037.027	800.844
68.534	17.913	1035.976	799.952
69.549	17.850	1035.261	799.035
70.563	17.774	1034.429	797.965
71.578	17.701	1033.864	797.120
72.593	17.652	1032.655	795.886
73.607	17.662	1032.282	795.577
74.622	17.687	1031.580	795.078
75.636	17.705	1031.052	794.687
76.651	17.702	1030.257	793.990
77.666	17.841	1029.455	793.946
78.680	17.816	1028.820	793.271
79.695	17.868	1027.925	792.754
80.709	18.031	1027.567	793.166
81.724	18.022	1026.990	792.604
82.739	18.041	1026.656	792.366
83.753	18.528	1025.623	793.756
84.768	18.640	1025.356	793.996
85.782	18.849	1024.263	794.046
86.797	18.605	1023.683	792.398
87.812	18.550	1022.223	790.942
88.826	18.555	1021.216	790.118
89.841	18.607	1020.427	789.677
90.855	18.618	1019.877	789.231
91.870	18.569	1019.135	788.363
92.884	18.709	1017.976	788.040
93.899	18.691	1016.970	787.109
94.914	18.762	1016.075	786.673
95.928	18.745	1015.281	785.908
96.943	18.675	1014.510	784.923
97.957	18.586	1013.337	783.541
98.972	18.660	1012.607	783.245
99.987	18.781	1011.350	782.755
101.001	18.607	1010.680	781.372
102.016	18.521	1009.928	780.329
103.030	18.696	1009.266	780.546
104.045	18.622	1008.705	779.708
105.060	18.451	1007.488	777.923
106.074	18.220	1006.191	775.805
107.089	18.171	1004.880	774.501
108.103	17.985	1003.937	772.865
109.118	17.973	1003.025	772.040
110.133	17.927	1002.314	771.219
111.147	18.121	1000.998	771.011
112.162	17.989	1000.678	770.104
113.176	18.195	1000.043	770.474
114.191	18.321	999.423	770.496
115.206	18.278	998.529	769.545
116.220	18.150	997.666	768.237
117.235	18.151	996.652	767.390
118.249	18.046	995.866	766.248
119.264	18.036	995.064	765.516
120.279	18.052	994.361	764.981
121.293	17.900	993.452	763.533
122.308	17.731	992.870	762.263
123.322	17.844	991.194	761.413
124.337	17.789	990.671	760.698
125.352	17.849	989.266	759.821
126.366	17.764	988.732	758.965
127.381	17.665	987.705	757.670
128.395	17.794	986.883	757.544
129.410	17.904	985.719	757.074
130.424	18.077	984.660	756.958
131.439	18.137	984.440	756.986
132.454	18.262	983.485	756.739
133.468	18.204	982.822	755.903
134.483	18.305	981.765	755.473
135.497	18.272	981.299	754.900
136.512	18.175	980.101	753.483
137.527	18.087	979.504	752.571
138.541	18.241	978.639	752.520
139.556	18.229	978.062	751.955
140.570	18.400	977.345	752.088
141.585	18.766	976.377	752.882
142.600	18.618	975.979	751.858
143.614	18.794	974.708	751.585
144.629	18.748	974.002	750.773
145.643	18.696	973.082	749.771
146.658	18.477	971.802	747.760
147.673	18.457	970.872	746.892
148.687	18.254	970.223	745.444
149.702	18.211	969.274	744.459
150.716	18.204	968.444	743.729
151.731	18.084	967.906	742.726
152.746	18.094	967.445	742.349
153.760	18.383	966.476	742.793
154.775	18.271	966.283	742.097
155.789	18.438	965.300	741.998
156.804	18.413	964.491	741.203
157.819	18.489	964.140	741.194
158.833	18.683	963.512	741.484
159.848	18.771	962.402	740.947
160.862	18.595	961.552	739.468
161.877	18.468	959.999	737.659
162.892	18.280	958.945	735.977
163.906	18.169	958.172	734.843
164.921	18.266	957.329	734.547
165.935	18.377	956.425	734.262
166.950	18.431	955.363	733.613
167.964	18.518	954.488	733.252
168.979	18.357	953.351	731.626
169.994	18.378	952.458	730.965
171.008	18.416	952.182	730.847
172.023	18.599	951.770	731.248
173.037	18.769	951.048	731.353
174.052	18.608	950.240	729.980
175.067	18.344	949.295	728.068
176.081	18.263	948.348	726.934
177.096	18.120	948.448	726.338
178.110	18.334	947.748	726.648
179.125	18.203	947.234	725.634
180.140	18.514	946.334	726.198
181.154	18.650	945.864	726.349
182.169	18.636	945.678	726.083
183.183	18.654	945.386	725.871
184.198	18.666	944.517	725.189
185.213	18.731	943.330	724.489
186.227	18.716	943.020	724.121
187.242	18.865	942.246	724.091
188.256	19.099	941.569	724.491
189.271	18.986	940.930	723.460
190.286	18.570	940.246	721.124
191.300	18.220	938.941	718.588
192.315	18.173	937.995	717.603
193.329	18.247	937.819	717.714
194.344	18.364	937.252	717.708
195.359	18.430	936.671	717.476
196.373	18.714	935.803	717.935
197.388	18.918	935.934	718.827
198.402	18.909	935.878	718.681
199.417	19.134	935.038	718.913
200.432	19.345	934.199	719.082
201.446	19.159	934.302	718.324
202.461	19.205	933.965	718.192
203.475	19.195	932.856	717.236
204.490	19.019	931.633	715.497
205.504	18.954	930.742	714.483
206.519	18.878	930.184	713.676
207.534	18.912	929.624	713.324
208.548	18.906	928.863	712.651
209.563	18.966	928.331	712.429
210.577	18.949	927.689	711.801
211.592	19.241	927.062	712.464
212.607	19.260	926.576	712.107
213.621	19.035	925.794	710.514
214.636	18.999	925.355	709.964
215.650	19.089	924.291	709.459
216.665	19.243	923.812	709.660
217.680	19.399	922.920	709.554
218.694	19.462	922.201	709.200
219.709	19.387	921.487	708.279
220.723	19.254	921.124	707.393
221.738	19.185	920.365	706.465
222.753	19.211	919.756	706.041
223.767	19.324	919.545	706.280
224.782	19.442	918.854	706.168
225.796	19.442	918.318	705.692
226.811	19.447	917.211	704.800
227.826	19.326	916.245	703.501
228.840	19.229	915.803	702.703
229.855	19.269	915.167	702.316
230.869	19.186	914.525	701.425
231.884	19.083	913.743	700.343
232.899	19.048	912.767	699.393
233.913	18.901	912.298	698.373
234.928	18.932	911.150	697.560
235.942	19.049	910.508	697.481
236.957	18.924	910.086	696.588
237.972	19.097	909.417	696.714
238.986	18.985	908.769	695.704
240.001	18.919	908.741	695.354
241.015	19.153	907.904	695.597
242.030	19.214	907.515	695.486
243.045	19.172	906.717	694.643
244.059	19.260	906.122	694.481
245.074	19.429	905.573	694.680
246.088	19.376	905.390	694.263
247.103	19.641	904.087	694.266
248.117	19.674	904.176	694.405
249.132	19.781	904.503	695.027
250.147	19.992	903.413	694.975
251.161	20.043	902.696	694.567
252.176	20.155	901.929	694.362
253.190	20.141	901.315	693.773
254.205	20.178	900.670	693.362
255.220	20.005	900.319	692.341
256.234	20.058	899.691	692.008
257.249	20.068	899.224	691.624
258.263	20.065	897.839	690.488
259.278	20.032	897.087	689.716
260.293	20.069	897.023	689.752
261.307	20.246	896.391	689.910
262.322	20.324	895.396	689.393
263.336	20.358	894.378	688.682
264.351	20.331	893.953	688.188
265.366	20.251	893.508	687.468
266.380	20.314	892.771	687.090
267.395	20.191	892.260	686.151
268.409	20.183	891.066	685.140
269.424	20.153	890.381	684.434
270.439	20.054	889.864	683.583
271.453	19.845	889.180	682.175
272.468	19.923	888.703	682.056
273.482	19.854	888.206	681.343
274.497	19.884	887.489	680.849
275.512	20.033	886.824	680.866
276.526	19.925	886.239	679.930
277.541	20.066	885.967	680.216
278.555	20.227	885.421	680.370
279.570	20.352	884.874	680.377
280.585	20.440	884.094	680.063
281.599	20.242	883.106	678.469
282.614	20.278	882.133	677.803
283.628	20.136	881.727	676.874
284.643	20.196	881.043	676.523
285.657	20.136	880.475	675.793
286.672	20.098	880.100	675.298
287.687	20.229	879.404	675.214
288.701	20.160	878.821	674.439
289.716	20.187	878.222	674.023
290.730	19.982	877.887	672.910
291.745	20.166	877.332	673.139
292.760	20.280	876.925	673.209
293.774	20.470	876.102	673.256
294.789	20.402	875.495	672.465
295.803	20.215	874.576	670.976
296.818	20.157	873.809	670.104
297.833	20.256	873.292	670.032
298.847	20.242	872.771	669.521
299.862	20.392	872.304	669.679
300.876	20.428	871.710	669.302
301.891	20.598	871.467	669.713
302.906	20.620	871.183	669.518
303.920	20.792	870.448	669.559
304.935	20.916	869.685	669.386
305.949	20.665	869.006	667.841
306.964	20.557	868.590	667.051
307.979	20.614	867.996	666.752
308.993	20.725	867.419	666.674
310.008	20.751	866.845	666.276
311.022	20.647	866.146	665.281
312.037	20.549	865.207	664.125
313.052	20.368	864.697	662.986
314.066	20.240	864.219	662.071
315.081	20.328	863.823	662.046
316.095	20.174	863.197	660.919
317.110	20.209	862.525	660.481
318.125	20.402	861.801	660.600
319.139	20.444	861.428	660.419
320.154	20.348	861.219	659.832
321.168	20.503	860.441	659.768
322.183	20.473	859.875	659.162
323.197	20.450	859.240	658.531
324.212	20.521	858.924	658.499
325.227	20.343	858.423	657.381
326.241	20.443	857.550	657.034
327.256	20.410	857.070	656.483
328.270	20.299	856.425	655.509
329.285	20.454	855.780	655.542
330.300	20.398	855.280	654.891
331.314	20.505	854.712	654.802
332.329	20.553	854.600	654.839
333.343	20.692	854.119	654.935
334.358	20.554	853.678	654.020
335.373	20.574	853.708	654.062
336.387	20.697	852.955	653.889
337.402	20.893	852.474	654.198
338.416	20.903	852.555	654.241
339.431	21.019	852.030	654.212
340.446	21.208	851.552	654.498
341.460	21.355	850.952	654.528
342.475	21.188	850.996	653.878
343.489	21.316	850.544	653.952
344.504	21.336	850.110	653.636
345.519	21.329	849.672	653.215
346.533	21.412	848.874	652.855
347.548	21.186	848.410	651.597
348.562	20.981	847.654	650.193
349.577	20.987	846.850	649.543
350.592	20.801	846.158	648.261
351.606	20.815	845.769	647.958
352.621	20.906	845.039	647.678
353.635	21.003	844.085	647.251
354.650	20.950	843.761	646.748
355.665	20.954	843.174	646.255
356.679	21.132	842.632	646.442
357.694	21.035	841.809	645.397
358.708	21.164	841.013	645.206
359.723	21.198	840.680	645.017
360.738	21.210	840.011	644.494
361.752	21.262	839.392	644.150
362.767	21.280	838.837	643.735
363.781	21.478	838.595	644.224
364.796	21.562	838.443	644.356
365.810	21.502	838.206	643.896
366.825	21.696	837.720	644.182
367.840	21.629	837.076	643.381
368.854	21.465	836.288	642.116
369.869	21.403	836.218	641.780
370.883	21.461	835.705	641.542
371.898	21.665	835.227	641.867
372.913	21.580	835.001	641.326
373.927	21.526	834.424	640.627
374.942	21.680	833.726	640.596
375.956	21.749	833.188	640.378
376.971	21.695	833.369	640.263
377.986	21.859	832.639	640.244
379.000	21.979	832.086	640.201
380.015	21.933	831.378	639.430
381.029	21.796	830.851	638.472
382.044	21.911	830.231	638.355
383.059	21.838	829.761	637.673
384.073	21.696	828.822	636.379
385.088	21.590	828.124	635.403
386.102	21.471	827.814	634.676
387.117	21.541	827.034	634.275
388.132	21.598	826.288	633.856
389.146	21.656	825.772	633.612
390.161	21.768	825.813	633.994
391.175	21.929	824.981	633.879
392.190	21.585	824.998	632.596
393.205	21.655	824.035	632.051
394.219	21.692	823.574	631.775
395.234	21.575	823.305	631.091
396.248	21.309	822.851	629.730
397.263	21.366	822.401	629.534
398.278	21.163	822.094	628.513
399.292	21.400	821.534	628.880
400.307	21.380	821.224	628.517
401.321	21.403	820.325	627.856
402.336	21.444	820.158	627.819
403.350	21.617	819.814	628.123
404.365	21.763	819.389	628.264
405.380	21.842	819.108	628.277
406.394	21.864	818.284	627.666
407.409	22.153	817.746	628.232
408.423	22.025	817.801	627.760
409.438	22.037	817.540	627.548
410.453	22.269	817.034	627.934
411.467	22.166	816.357	626.991
412.482	22.270	816.343	627.294
413.496	22.346	815.879	627.154
414.511	22.272	815.162	626.281
415.526	22.083	815.017	625.444
416.540	22.188	814.398	625.286
417.555	22.248	813.725	624.928
418.569	22.280	813.094	624.499
419.584	22.288	812.792	624.242
420.599	22.331	812.547	624.151
421.613	159.025	1369.691	1789.408
422.628	138.435	1450.875	1789.506
