DTS Sentinel unit serial number:	SN413079Multiplexer serial number:	ORYXHardware model number:	OX4-SRSoftware version number:	ORYX F/W v4.00 Oryx Data Collector v3.7.2.0data status	okinstallation	princeton_trtdifferential loss correction	single-endedforward channel	channel 1reverse channel	N/Adate	2019/09/12time	10:04:11forward acquisition time	60.00reverse acquisition time	0.00gamma	496.2192k internal	0.2299k external	0.2299temperature offset calibration	1.0050default loss term (dB/km)	0.3790temperature slope calibration	1.0000multiplexer offset coefficient	1.0000multiplexer slope coefficient	1.0000fibre end	0.00T internal ref (°C)	36.30T ext. ref 1 (°C)	1.85T ext. ref 2 (°C)	33.19length (m)	temperature (°C)	Stokes	anti-Stokes-747.200	-151.343	0.231	0.018
-746.185	105.282	0.286	0.345
-745.171	800.000	-0.053	0.187
-744.156	-184.967	-0.410	0.007
-743.142	-125.025	0.236	0.037
-742.127	-168.500	-0.067	-0.003
-741.112	-53.397	-0.053	0.025
-740.098	-102.343	-0.578	-0.142
-739.083	-1.948	-0.219	0.157
-738.069	93.105	0.182	0.210
-737.054	214.480	0.275	-0.445
-736.039	-120.290	-0.111	0.019
-735.025	303.531	0.025	0.048
-734.010	-14.245	-0.233	-0.153
-732.996	-200.000	-0.043	-0.270
-731.981	-110.225	0.131	0.028
-730.966	800.000	0.064	-0.235
-729.952	-48.969	0.261	-0.128
-728.937	25.527	0.151	0.128
-727.923	232.316	0.178	-0.297
-726.908	123.384	0.046	-0.058
-725.894	-200.000	0.008	0.087
-724.879	260.322	-0.099	-0.175
-723.864	125.325	0.139	-0.178
-722.850	-37.802	-0.183	0.099
-721.835	57.878	0.077	0.077
-720.821	-147.468	0.187	0.016
-719.806	-115.247	-0.264	-0.051
-718.791	273.361	-0.144	-0.260
-717.777	235.386	0.024	-0.041
-716.762	800.000	0.088	0.354
-715.748	-40.167	0.293	-0.156
-714.733	108.173	0.170	-0.206
-713.718	-90.417	-0.313	0.093
-712.704	-147.018	-0.437	-0.038
-711.689	-200.000	-0.040	0.254
-710.675	114.508	-0.109	0.136
-709.660	800.000	-0.015	-0.062
-708.645	-200.000	0.017	-0.178
-707.631	33.504	0.180	-0.159
-706.616	-163.576	-0.311	-0.015
-705.602	-94.030	-0.337	-0.094
-704.587	250.728	-0.097	-0.168
-703.572	667.585	-0.069	-0.182
-702.558	-200.000	0.015	-0.258
-701.543	-128.795	0.206	0.030
-700.529	360.419	0.121	0.246
-699.514	-35.663	-0.161	-0.089
-698.499	-29.195	-0.396	-0.231
-697.485	293.479	-0.067	0.125
-696.470	11.688	-0.099	-0.078
-695.456	-200.000	0.021	-0.183
-694.441	-73.425	0.182	0.068
-693.426	-11.008	-0.304	-0.204
-692.412	447.982	-0.116	-0.259
-691.397	-200.000	-0.010	-0.067
-690.383	-166.729	-0.204	-0.009
-689.368	-37.094	0.318	-0.173
-688.354	-134.433	0.265	-0.033
-687.339	-65.855	0.086	-0.035
-686.324	-200.000	-0.027	0.332
-685.310	116.362	0.159	0.199
-684.295	110.492	0.134	0.164
-683.281	-72.933	-0.188	-0.071
-682.266	-60.060	0.157	-0.068
-681.251	800.000	0.003	-0.008
-680.237	166.923	0.285	0.412
-679.222	-45.093	-0.258	-0.130
-678.208	139.178	0.107	-0.144
-677.193	-66.558	-0.227	0.092
-676.178	800.000	-0.111	-0.361
-675.164	-41.438	-0.320	-0.168
-674.149	-90.107	0.362	-0.107
-673.135	25.418	-0.356	-0.301
-672.120	-128.964	0.162	-0.023
-671.105	-45.658	0.203	0.102
-670.091	325.635	-0.171	-0.332
-669.076	7.561	-0.151	0.115
-668.062	800.000	0.046	0.132
-667.047	-200.000	0.022	0.340
-666.032	-200.000	0.042	-0.281
-665.018	800.000	0.045	0.137
-664.003	719.501	-0.092	-0.249
-662.989	-14.786	-0.443	0.289
-661.974	-93.963	0.502	-0.140
-660.959	-190.844	-0.299	-0.003
-659.945	184.845	0.143	0.216
-658.930	800.000	-0.067	-0.285
-657.916	31.066	-0.384	-0.335
-656.901	-200.000	0.017	-0.173
-655.886	800.000	-0.136	0.385
-654.872	416.288	-0.137	-0.298
-653.857	-3.492	0.035	0.025
-652.843	-155.302	0.042	-0.003
-651.828	8.996	0.021	-0.016
-650.814	775.982	0.036	-0.101
-649.799	16.205	-0.148	-0.119
-648.784	523.191	0.079	-0.188
-647.770	123.758	0.154	-0.197
-646.755	228.714	0.123	0.204
-645.741	-120.818	0.232	0.040
-644.726	79.241	0.106	-0.116
-643.711	-200.000	-0.019	-0.224
-642.697	-157.067	-0.236	0.015
-641.682	33.083	-0.201	-0.177
-640.668	-34.954	-0.247	0.137
-639.653	576.732	-0.047	0.116
-638.638	505.748	0.075	0.176
-637.624	110.965	0.213	-0.261
-636.609	-64.586	-0.187	-0.077
-635.595	-59.780	-0.247	-0.108
-634.580	-108.042	0.043	-0.009
-633.565	78.587	-0.120	-0.130
-632.551	800.000	0.032	-0.138
-631.536	800.000	0.032	-0.102
-630.522	245.766	-0.087	0.149
-629.507	50.760	-0.112	-0.108
-628.492	-38.204	0.163	-0.088
-627.478	-180.998	0.341	-0.007
-626.463	-144.954	-0.391	0.036
-625.449	-29.678	-0.328	-0.190
-624.434	567.442	-0.088	-0.218
-623.419	723.382	-0.111	-0.299
-622.405	-61.596	0.328	-0.140
-621.390	-42.813	0.217	-0.112
-620.376	-200.000	-0.038	0.366
-619.361	219.286	0.116	-0.188
-618.346	66.563	-0.174	-0.179
-617.332	241.963	0.089	0.151
-616.317	-200.000	0.043	0.207
-615.303	294.373	0.149	-0.276
-614.288	94.782	0.255	-0.295
-613.273	34.228	-0.217	0.192
-612.259	92.004	0.121	0.139
-611.244	220.322	-0.101	-0.164
-610.230	-23.925	0.195	0.118
-609.215	-77.494	-0.140	0.049
-608.201	-39.507	0.151	-0.080
-607.186	-95.859	0.236	-0.064
-606.171	42.644	0.157	0.145
-605.157	800.000	0.110	0.384
-604.142	-29.103	0.086	-0.050
-603.128	800.000	0.048	-0.195
-602.113	759.556	-0.047	-0.129
-601.098	476.915	0.123	-0.281
-600.084	33.185	-0.363	-0.319
-599.069	-200.000	0.008	0.119
-598.055	800.000	0.114	-0.340
-597.040	143.640	0.099	0.133
-596.025	800.000	-0.014	-0.058
-595.011	16.023	0.075	0.060
-593.996	-200.000	0.015	-0.098
-592.982	-200.000	-0.041	-0.347
-591.967	-87.121	-0.475	0.147
-590.952	474.159	-0.102	-0.233
-589.938	800.000	0.040	0.150
-588.923	-79.811	-0.366	0.125
-587.909	265.103	-0.197	-0.349
-586.894	84.358	0.078	-0.087
-585.879	-92.668	0.374	-0.106
-584.865	24.622	0.147	-0.123
-583.850	-157.186	0.047	-0.003
-582.836	-200.000	-0.026	0.266
-581.821	780.225	0.059	0.163
-580.806	-134.241	-0.101	-0.013
-579.792	-74.482	0.167	0.061
-578.777	-168.382	0.121	-0.005
-577.763	-161.575	0.230	0.012
-576.748	-66.030	-0.266	-0.108
-575.733	-200.000	-0.038	-0.463
-574.719	-200.000	-0.006	0.095
-573.704	-200.000	0.027	-0.192
-572.690	-200.000	-0.005	-0.342
-571.675	32.543	-0.116	0.102
-570.661	-200.000	-0.013	-0.146
-569.646	303.654	0.091	0.172
-568.631	-200.000	-0.038	0.514
-567.617	450.264	-0.059	0.133
-566.602	244.232	0.059	-0.101
-565.588	800.000	0.018	-0.066
-564.573	-127.728	-0.385	0.056
-563.558	-117.765	-0.107	-0.020
-562.544	580.921	-0.098	-0.243
-561.529	36.280	0.124	0.111
-560.515	151.896	-0.148	0.204
-559.500	63.790	-0.066	0.067
-558.485	-78.012	0.258	-0.090
-557.471	-163.436	0.106	0.005
-556.456	10.867	0.201	0.155
-555.442	-66.373	0.206	-0.083
-554.427	163.377	0.081	-0.115
-553.412	-25.003	-0.275	-0.165
-552.398	-200.000	0.028	0.193
-551.383	-56.375	-0.202	-0.091
-550.369	68.192	0.126	-0.130
-549.354	-200.000	0.090	-0.543
-548.339	-196.579	0.201	0.001
-547.325	-200.000	0.011	0.055
-546.310	-110.686	0.140	0.029
-545.296	88.109	0.018	0.020
-544.281	-23.268	-0.186	0.113
-543.266	800.000	0.073	0.225
-542.252	177.820	0.125	0.185
-541.237	153.687	-0.227	0.315
-540.223	66.682	-0.177	0.182
-539.208	103.297	0.279	0.332
-538.193	-142.598	-0.213	-0.021
-537.179	-184.660	-0.152	-0.002
-536.164	-104.810	0.325	0.076
-535.150	-200.000	-0.051	-0.230
-534.135	91.683	-0.038	-0.043
-533.121	-200.000	0.035	-0.267
-532.106	202.717	0.136	-0.212
-531.091	-150.517	-0.179	0.014
-530.077	-46.505	-0.175	0.087
-529.062	800.000	-0.094	0.300
-528.048	-0.787	-0.148	-0.106
-527.033	-160.856	0.179	0.010
-526.018	75.876	0.125	0.134
-525.004	800.000	-0.116	-0.368
-523.989	6.754	0.248	-0.186
-522.975	-112.879	-0.155	0.031
-521.960	6.055	0.148	0.111
-520.945	-200.000	0.042	-0.266
-519.931	-92.121	0.343	-0.098
-518.916	22.206	0.378	0.313
-517.902	-29.832	-0.239	-0.138
-516.887	-126.089	0.209	-0.032
-515.872	-200.000	-0.027	0.146
-514.858	-81.213	-0.124	0.042
-513.843	-29.858	0.129	0.074
-512.829	-35.528	0.175	0.096
-511.814	-200.000	0.011	-0.396
-510.799	-38.288	-0.157	0.084
-509.785	-47.908	0.104	-0.051
-508.770	144.584	0.149	0.201
-507.756	-11.231	0.178	-0.119
-506.741	-200.000	0.030	-0.327
-505.726	800.000	-0.177	-0.505
-504.712	-99.840	0.192	-0.049
-503.697	-163.808	-0.264	0.013
-502.683	800.000	-0.085	-0.370
-501.668	-64.549	0.049	-0.020
-500.653	-200.000	-0.009	0.216
-499.639	-24.699	0.134	-0.081
-498.624	-129.718	0.040	0.006
-497.610	7.208	-0.296	-0.223
-496.595	-150.889	-0.275	-0.021
-495.581	-74.034	0.079	-0.029
-494.566	36.707	0.300	-0.268
-493.551	-157.035	-0.328	0.020
-492.537	106.665	-0.237	0.284
-491.522	4.211	0.197	0.146
-490.508	800.000	-0.008	-0.027
-489.493	800.000	-0.127	0.461
-488.478	-47.379	-0.196	-0.096
-487.464	-3.661	0.245	-0.172
-486.449	800.000	0.028	0.116
-485.435	-99.753	-0.252	-0.064
-484.420	-117.864	0.178	0.032
-483.405	132.715	0.121	0.158
-482.391	-121.622	0.238	-0.040
-481.376	800.000	-0.037	-0.141
-480.362	-200.000	-0.032	-0.195
-479.347	-149.712	-0.213	-0.017
-478.332	-43.845	0.248	-0.126
-477.318	41.735	0.190	-0.174
-476.303	232.311	0.100	-0.165
-475.289	181.438	0.201	-0.298
-474.274	-200.000	-0.006	0.055
-473.259	-113.489	-0.216	-0.043
-472.245	-200.000	0.041	0.204
-471.230	-32.812	-0.063	-0.035
-470.216	-122.939	-0.469	0.076
-469.201	-167.528	-0.155	0.006
-468.186	322.932	-0.105	0.202
-467.172	533.920	0.107	-0.256
-466.157	800.000	0.050	-0.177
-465.143	-112.085	-0.063	-0.013
-464.128	125.267	-0.151	0.193
-463.113	-8.361	-0.209	0.142
-462.099	800.000	0.092	0.364
-461.084	237.717	0.080	-0.134
-460.070	-26.861	0.416	-0.245
-459.055	-200.000	0.010	0.236
-458.040	117.505	-0.026	-0.032
-457.026	32.541	0.142	0.124
-456.011	702.318	0.056	-0.149
-454.997	-34.063	-0.321	0.178
-453.982	135.826	0.041	0.053
-452.968	800.000	-0.078	-0.248
-451.953	91.221	-0.212	-0.240
-450.938	520.987	0.086	0.203
-449.924	-64.976	-0.243	0.099
-448.909	-200.000	-0.024	0.291
-447.895	-23.738	-0.317	0.192
-446.880	45.762	-0.100	0.093
-445.865	707.497	-0.131	0.348
-444.851	83.855	-0.057	0.063
-443.836	-152.031	-0.282	-0.021
-442.822	-200.000	0.006	0.151
-441.807	-0.191	-0.116	0.083
-440.792	-8.237	0.071	0.048
-439.778	77.375	0.057	0.061
-438.763	717.218	0.123	0.329
-437.749	800.000	-0.012	0.049
-436.734	7.852	-0.180	0.136
-435.719	422.971	0.092	-0.199
-434.705	-200.000	0.018	-0.188
-433.690	-200.000	-0.015	0.089
-432.676	188.676	-0.089	-0.134
-431.661	151.335	0.135	0.185
-430.646	-98.401	0.313	-0.081
-429.632	-118.519	0.085	-0.015
-428.617	-8.552	-0.303	0.205
-427.603	376.065	-0.131	-0.269
-426.588	7.425	0.263	0.198
-425.573	3.441	0.102	0.075
-424.559	-181.907	-0.133	0.003
-423.544	-200.000	0.019	-0.153
-422.530	800.000	-0.036	-0.115
-421.515	800.000	0.034	-0.113
-420.500	-136.025	0.312	-0.037
-419.486	53.282	-0.116	-0.112
-418.471	-200.000	-0.015	-0.169
-417.457	234.244	-0.217	0.360
-416.442	4.421	0.195	-0.144
-415.428	21.021	-0.407	-0.332
-414.413	-151.523	0.300	-0.022
-413.398	-80.705	0.172	0.058
-412.384	-200.000	0.018	-0.133
-411.369	-24.551	0.323	0.194
-410.355	20.699	0.148	0.121
-409.340	-20.331	-0.108	-0.067
-408.325	205.519	-0.073	-0.115
-407.311	59.788	-0.325	-0.323
-406.296	98.127	0.238	0.276
-405.282	379.974	-0.053	-0.108
-404.267	216.008	-0.150	0.240
-403.252	-53.873	0.147	-0.068
-402.238	-49.173	0.091	-0.044
-401.223	188.787	0.131	0.197
-400.209	354.787	0.020	0.041
-399.194	68.306	-0.155	0.160
-398.179	-108.625	-0.272	0.059
-397.165	42.062	0.124	-0.113
-396.150	292.575	-0.221	0.406
-395.136	-163.383	-0.051	0.002
-394.121	-59.088	0.268	0.116
-393.106	-70.966	-0.219	0.083
-392.092	-20.727	-0.166	-0.103
-391.077	121.144	-0.095	0.118
-390.063	361.245	-0.132	0.265
-389.048	-178.929	0.135	-0.003
-388.033	125.219	0.150	0.191
-387.019	-200.000	0.001	-0.276
-386.004	-68.999	0.253	-0.098
-384.990	61.587	-0.109	0.109
-383.975	11.142	-0.295	-0.227
-382.960	-190.841	-0.383	0.004
-381.946	54.131	-0.113	0.109
-380.931	11.615	0.130	0.100
-379.917	284.108	0.104	-0.188
-378.902	270.352	-0.094	0.167
-377.888	55.668	-0.037	0.036
-376.873	-200.000	-0.008	0.071
-375.858	143.714	0.208	-0.279
-374.844	-37.915	-0.411	-0.220
-373.829	-200.000	-0.033	0.298
-372.815	5.898	-0.047	-0.035
-371.800	187.606	-0.127	0.190
-370.785	-200.000	0.023	-0.194
-369.771	122.465	0.221	-0.278
-368.756	-200.000	0.017	-0.096
-367.742	-8.687	0.381	-0.257
-366.727	-113.220	-0.280	-0.056
-365.712	-102.015	-0.031	-0.008
-364.698	620.270	0.057	-0.145
-363.683	86.131	0.216	-0.239
-362.669	-200.000	0.029	-0.220
-361.654	174.934	0.065	-0.094
-360.639	-70.310	-0.416	-0.159
-359.625	766.497	-0.085	0.232
-358.610	-95.189	0.202	0.055
-357.596	-107.859	-0.164	-0.036
-356.581	-40.661	-0.216	0.113
-355.566	-143.562	0.174	0.017
-354.552	-49.614	-0.253	0.121
-353.537	800.000	-0.108	-0.375
-352.523	800.000	0.027	-0.113
-351.508	-36.065	0.142	0.077
-350.493	-200.000	-0.050	-0.265
-349.479	90.183	-0.134	-0.150
-348.464	-200.000	0.033	-0.167
-347.450	160.946	0.086	0.121
-346.435	-12.045	-0.152	-0.100
-345.420	800.000	0.038	0.109
-344.406	597.042	0.083	-0.205
-343.391	-133.774	-0.502	0.063
-342.377	510.637	0.114	0.267
-341.362	-200.000	-0.021	-0.313
-340.348	-151.108	0.444	-0.034
-339.333	-41.604	-0.458	-0.237
-338.318	-153.177	-0.286	0.020
-337.304	-200.000	-0.032	0.365
-336.289	307.707	0.135	0.253
-335.275	259.177	-0.162	-0.280
-334.260	800.000	-0.077	-0.232
-333.245	-81.347	0.347	-0.115
-332.231	-123.922	0.138	-0.022
-331.216	-200.000	0.031	-0.139
-330.202	261.709	0.073	0.127
-329.187	-82.373	-0.329	0.107
-328.172	-162.025	-0.034	-0.002
-327.158	6.022	0.069	0.051
-326.143	333.515	0.049	-0.096
-325.129	2.007	0.183	-0.133
-324.114	-200.000	0.002	0.359
-323.099	113.744	0.094	-0.114
-322.085	-200.000	-0.009	0.332
-321.070	250.342	0.096	0.163
-320.056	-200.000	0.055	0.473
-319.041	800.000	0.090	0.318
-318.026	-98.443	0.368	-0.095
-317.012	308.092	0.020	0.037
-315.997	66.617	0.180	-0.184
-314.983	-94.487	-0.222	0.061
-313.968	690.881	0.135	0.355
-312.953	-200.000	0.010	0.217
-311.939	-3.176	-0.284	0.199
-310.924	-110.019	0.193	0.041
-309.910	-103.204	-0.421	-0.100
-308.895	-200.000	0.032	0.258
-307.880	-188.223	-0.159	-0.002
-306.866	-200.000	0.009	-0.088
-305.851	-57.719	0.256	0.113
-304.837	80.216	0.226	0.244
-303.822	695.016	-0.155	-0.409
-302.807	-118.579	0.143	0.025
-301.793	-110.825	0.189	0.039
-300.778	-88.921	-0.084	-0.025
-299.764	-200.000	-0.050	0.239
-298.749	447.217	-0.015	-0.033
-297.735	-141.488	0.218	-0.022
-296.720	102.551	-0.094	0.111
-295.705	-200.000	0.024	-0.324
-294.691	187.762	0.078	0.116
-293.676	-160.138	-0.143	0.008
-292.662	-200.000	-0.065	0.325
-291.647	111.486	0.153	-0.185
-290.632	-96.466	-0.506	0.134
-289.618	-106.918	0.037	-0.008
-288.603	179.756	0.101	-0.148
-287.589	-22.536	0.288	0.175
-286.574	-92.646	0.006	-0.002
-285.559	-136.198	0.329	0.039
-284.545	38.509	0.061	-0.055
-283.530	76.269	0.083	-0.088
-282.516	-76.780	-0.229	0.080
-281.501	58.468	-0.198	0.194
-280.486	-31.286	0.300	-0.170
-279.472	707.983	0.076	0.202
-278.457	256.374	-0.197	0.340
-277.443	-84.891	-0.116	-0.036
-276.428	800.000	-0.062	-0.190
-275.413	800.000	-0.029	-0.124
-274.399	540.040	0.111	0.265
-273.384	409.311	0.180	0.382
-272.370	-160.214	-0.206	0.011
-271.355	53.404	-0.210	-0.202
-270.340	-200.000	-0.023	0.206
-269.326	800.000	-0.026	-0.072
-268.311	-168.081	0.140	-0.005
-267.297	-116.908	0.154	0.028
-266.282	-105.041	-0.131	-0.030
-265.267	-133.709	-0.244	0.031
-264.253	411.026	-0.169	0.360
-263.238	394.729	-0.076	0.158
-262.224	-80.568	0.202	0.067
-261.209	-82.635	0.074	0.024
-260.195	-200.000	-0.013	0.118
-259.180	150.838	0.161	-0.220
-258.165	-43.560	-0.124	0.063
-257.151	800.000	0.002	-0.006
-256.136	-32.362	-0.200	-0.112
-255.122	-78.763	0.146	-0.050
-254.107	-44.686	-0.075	0.037
-253.092	291.006	-0.104	-0.190
-252.078	3.870	-0.124	-0.091
-251.063	256.474	-0.045	0.077
-250.049	38.594	-0.266	-0.237
-249.034	300.673	-0.019	-0.035
-248.019	362.452	-0.186	0.374
-247.005	102.803	-0.213	-0.250
-245.990	9.468	-0.138	0.104
-244.976	800.000	0.074	0.230
-243.961	-200.000	0.006	-0.085
-242.946	298.549	0.117	0.216
-241.932	-200.000	0.001	0.029
-240.917	-130.638	-0.242	0.033
-239.903	22.925	0.159	-0.131
-238.888	16.934	-0.035	0.028
-237.873	800.000	0.105	0.409
-236.859	252.474	0.223	0.381
-235.844	-34.741	0.270	-0.148
-234.830	-200.000	-0.064	-0.417
-233.815	26.314	-0.279	0.233
-232.800	96.116	-0.147	0.168
-231.786	-103.112	0.147	-0.035
-230.771	358.042	-0.113	0.225
-229.757	-200.000	-0.038	-0.241
-228.742	-142.883	0.102	0.010
-227.727	-200.000	-0.011	0.100
-226.713	-54.902	0.096	-0.043
-225.698	23.026	0.171	-0.140
-224.684	-143.682	0.247	-0.023
-223.669	-200.000	-0.016	-0.084
-222.655	20.444	0.377	0.305
-221.640	197.659	0.069	0.105
-220.625	20.515	-0.014	0.011
-219.611	165.842	-0.148	-0.209
-218.596	63.795	0.163	0.163
-217.582	220.670	-0.214	-0.344
-216.567	166.572	0.060	0.085
-215.552	800.000	0.030	-0.098
-214.538	-116.806	-0.287	0.053
-213.523	-175.111	-0.192	-0.005
-212.509	93.332	0.166	0.187
-211.494	-200.000	-0.009	0.141
-210.479	800.000	-0.031	0.091
-209.465	-200.000	0.011	-0.281
-208.450	-93.405	-0.232	-0.064
-207.436	-162.987	0.249	0.012
-206.421	-200.000	-0.075	-0.345
-205.406	95.625	-0.156	0.177
-204.392	-200.000	-0.012	0.052
-203.377	-72.831	0.182	0.067
-202.363	221.001	0.127	-0.204
-201.348	20.399	0.411	-0.332
-200.333	-200.000	-0.010	-0.310
-199.319	-52.028	0.250	0.116
-198.304	94.890	-0.036	-0.041
-197.290	-11.913	-0.125	-0.082
-196.275	-49.983	-0.238	-0.113
-195.260	-200.000	0.001	0.092
-194.246	-99.497	-0.392	0.099
-193.231	800.000	0.045	0.140
-192.217	-200.000	0.004	-0.223
-191.202	-200.000	-0.017	-0.093
-190.187	-48.554	0.255	0.123
-189.173	70.752	-0.272	0.282
-188.158	166.110	0.173	0.245
-187.144	-153.625	0.367	0.025
-186.129	-94.208	-0.244	-0.067
-185.114	135.884	-0.183	0.238
-184.100	323.565	0.209	0.399
-183.085	226.678	-0.344	0.558
-182.071	-200.000	0.001	-0.067
-181.056	-106.212	-0.200	0.045
-180.042	-53.334	0.373	0.170
-179.027	323.368	-0.171	-0.326
-178.012	-24.066	-0.355	-0.212
-176.998	-109.789	0.186	-0.039
-175.983	164.101	-0.126	-0.178
-174.969	-30.408	-0.136	-0.077
-173.954	-200.000	0.044	-0.213
-172.939	91.182	0.070	0.079
-171.925	-200.000	-0.032	-0.170
-170.910	111.218	0.115	0.138
-169.896	45.315	0.173	-0.160
-168.881	18.650	-0.270	-0.216
-167.866	36.127	-0.189	0.166
-166.852	-9.020	0.142	0.095
-165.837	-200.000	0.005	0.118
-164.823	6.619	0.346	-0.257
-163.808	800.000	0.038	0.145
-162.793	-200.000	0.030	-0.131
-161.779	-53.222	0.262	0.120
-160.764	800.000	-0.079	0.263
-159.750	800.000	0.067	0.238
-158.735	-200.000	-0.048	0.224
-157.720	-191.230	0.140	-0.001
-156.706	31.720	0.057	-0.049
-155.691	69.051	0.250	0.256
-154.677	-10.840	0.305	0.201
-153.662	11.513	0.182	0.139
-152.647	-151.745	0.118	0.009
-151.633	-163.325	0.245	-0.012
-150.618	-200.000	0.072	-0.417
-149.604	-129.228	0.575	0.080
-148.589	-200.000	0.034	0.247
-147.574	-200.000	-0.042	-0.369
-146.560	444.975	-0.095	0.207
-145.545	-84.911	0.298	-0.093
-144.531	800.000	0.051	-0.154
-143.516	-200.000	0.028	0.423
-142.502	324.258	0.073	0.140
-141.487	-187.587	-0.308	0.004
-140.472	-98.625	0.058	-0.015
-139.458	22.404	-0.127	-0.104
-138.443	-160.226	-0.358	-0.019
-137.429	274.118	-0.314	-0.553
-136.414	285.254	-0.131	0.235
-135.399	800.000	0.076	-0.329
-134.385	541.799	0.082	-0.196
-133.370	800.000	0.025	-0.069
-132.356	-156.572	-0.096	-0.006
-131.341	-200.000	-0.031	-0.160
-130.326	18.133	0.133	0.105
-129.312	95.359	-0.067	0.076
-128.297	-58.711	-0.192	0.083
-127.283	633.201	-0.132	-0.334
-126.268	-91.891	-0.154	-0.044
-125.253	-108.377	0.101	0.022
-124.239	4.752	0.109	-0.080
-123.224	-30.715	0.207	0.117
-122.210	-104.504	0.260	0.060
-121.195	72.555	0.057	0.059
-120.180	-47.484	-0.280	0.135
-119.166	32.206	0.154	0.132
-118.151	-90.724	-0.206	0.059
-117.137	29.771	0.245	0.208
-116.122	157.631	0.099	0.136
-115.107	-83.410	0.271	-0.086
-114.093	299.671	0.103	0.189
-113.078	703.159	0.038	0.101
-112.064	-200.000	0.000	-0.144
-111.049	-141.143	0.166	-0.017
-110.034	-120.183	0.081	-0.014
-109.020	154.426	-0.021	-0.028
-108.005	-125.309	0.231	0.035
-106.991	55.812	0.085	0.082
-105.976	-200.000	0.060	0.325
-104.962	-125.454	0.216	0.033
-103.947	-49.193	0.198	-0.094
-102.932	59.859	-0.222	-0.218
-101.918	800.000	0.017	0.065
-100.903	73.648	0.227	-0.237
-99.889	100.006	0.068	0.078
-98.874	-200.000	0.015	0.150
-97.859	800.000	-0.083	-0.302
-96.845	-165.274	-0.344	0.015
-95.830	99.557	-0.135	0.156
-94.816	800.000	0.042	0.160
-93.801	-102.790	0.019	0.004
-92.786	-115.701	-0.157	0.029
-91.772	-200.000	0.015	0.160
-90.757	800.000	-0.036	0.122
-89.743	250.119	-0.080	0.134
-88.728	33.594	-0.272	0.235
-87.713	-160.013	0.101	-0.005
-86.699	226.373	0.150	0.243
-85.684	-200.000	-0.055	-0.286
-84.670	6.394	0.103	0.076
-83.655	-200.000	-0.030	0.179
-82.640	-75.511	-0.083	-0.029
-81.626	138.666	0.071	0.092
-80.611	49.668	0.132	0.123
-79.597	-50.382	0.306	0.144
-78.582	-125.922	0.053	0.008
-77.567	-87.626	-0.126	0.038
-76.553	-200.000	0.038	0.296
-75.538	218.296	-0.069	0.110
-74.524	800.000	0.036	0.106
-73.509	19.305	-0.105	-0.084
-72.494	52.698	-0.272	-0.259
-71.480	130.555	0.063	-0.080
-70.465	-73.008	0.120	-0.044
-69.451	-141.963	-0.352	-0.035
-68.436	-110.619	-0.072	-0.015
-67.422	-200.000	0.025	0.398
-66.407	56.338	-0.182	-0.175
-65.392	91.458	0.021	0.024
-64.378	-139.462	-0.199	-0.021
-63.363	-36.473	0.457	-0.245
-62.349	634.118	-0.047	0.118
-61.334	119.428	-0.759	-0.933
-60.319	56.272	0.291	0.281
-59.305	135.832	-0.317	-0.410
-58.290	436.776	0.541	1.170
-57.276	588.534	0.536	1.312
-56.261	-200.000	89.320	505.958
-55.246	460.681	1394.945	3087.608
-54.232	146.414	2606.680	3476.694
-53.217	110.487	2207.647	2635.657
-52.203	47.062	1653.421	1527.774
-51.188	39.635	1384.527	1233.051
-50.173	36.413	1341.281	1174.924
-49.159	55.758	1386.883	1334.932
-48.144	60.391	1405.364	1381.310
-47.130	40.112	1361.915	1215.649
-46.115	36.429	1344.412	1177.580
-45.100	36.183	1339.676	1171.887
-44.086	36.196	1336.672	1169.295
-43.071	36.176	1334.612	1167.323
-42.057	36.200	1332.212	1165.327
-41.042	36.178	1330.690	1163.813
-40.027	36.168	1329.107	1162.324
-39.013	36.209	1327.065	1160.734
-37.998	36.131	1325.572	1158.915
-36.984	36.273	1323.771	1158.149
-35.969	36.313	1321.592	1156.433
-34.954	36.423	1319.255	1155.001
-33.940	36.418	1317.928	1153.768
-32.925	36.438	1316.834	1152.884
-31.911	36.357	1315.646	1151.311
-30.896	36.436	1313.632	1149.977
-29.881	36.442	1312.947	1149.363
-28.867	36.480	1311.156	1147.978
-27.852	36.484	1309.432	1146.448
-26.838	36.363	1308.128	1144.544
-25.823	36.322	1306.942	1143.217
-24.809	36.473	1304.820	1142.206
-23.794	36.478	1304.038	1141.504
-22.779	36.343	1302.940	1139.701
-21.765	36.302	1300.937	1137.667
-20.750	36.263	1300.235	1136.775
-19.736	36.168	1298.758	1134.877
-18.721	36.228	1297.344	1133.950
-17.706	36.288	1296.004	1133.088
-16.692	36.300	1294.954	1132.193
-15.677	36.349	1293.772	1131.403
-14.663	36.266	1292.744	1129.975
-13.648	36.178	1291.473	1128.302
-12.633	36.305	1290.221	1127.910
-11.619	36.250	1289.665	1127.056
-10.604	36.121	1288.870	1125.566
-9.590	36.272	1287.662	1125.343
-8.575	36.200	1287.191	1124.469
-7.560	36.141	1286.180	1123.196
-6.546	36.177	1285.422	1122.702
-5.531	36.134	1284.604	1121.690
-4.517	36.169	1283.158	1120.589
-3.502	36.327	1281.911	1120.373
-2.487	36.262	1281.212	1119.336
-1.473	36.189	1277.624	1115.735
-0.458	35.251	1262.506	1097.126
0.556	31.978	1244.294	1059.131
1.571	28.277	1249.136	1042.141
2.586	27.235	1264.559	1048.906
3.600	26.219	1252.478	1032.986
4.615	18.705	1175.847	929.189
5.629	7.257	1094.142	806.571
6.644	2.160	1072.586	765.127
7.659	1.912	1069.209	761.411
8.673	1.642	1067.644	758.885
9.688	1.677	1066.329	758.054
10.702	1.959	1065.047	758.477
11.717	8.500	1074.827	798.116
12.731	19.259	1090.661	864.040
13.746	24.585	1096.545	895.395
14.761	25.266	1097.063	899.156
15.775	25.180	1097.191	898.750
16.790	25.022	1095.939	896.852
17.804	24.979	1095.475	896.176
18.819	25.028	1095.245	896.158
19.834	25.134	1094.850	896.281
20.848	25.206	1094.324	896.134
21.863	25.267	1093.472	895.661
22.877	25.185	1092.664	894.511
23.892	25.143	1092.004	893.684
24.907	25.211	1091.197	893.281
25.921	25.126	1090.215	891.976
26.936	25.114	1088.764	890.648
27.950	25.106	1087.231	889.278
28.965	24.880	1085.887	886.978
29.980	25.075	1084.040	886.357
30.994	25.265	1083.286	886.602
32.009	25.097	1082.478	885.033
33.023	24.989	1081.000	883.212
34.038	25.085	1080.507	883.203
35.053	25.103	1080.148	882.920
36.067	25.210	1078.328	881.879
37.082	25.281	1077.942	881.835
38.096	25.362	1077.786	882.027
39.111	25.427	1076.612	881.306
40.126	25.304	1075.146	879.428
41.140	24.859	1074.030	876.258
42.155	24.778	1072.062	874.181
43.169	24.744	1071.389	873.389
44.184	24.729	1070.749	872.716
45.199	24.683	1069.799	871.641
46.213	24.844	1068.181	871.030
47.228	24.974	1067.669	871.165
48.242	24.950	1067.413	870.764
49.257	25.167	1066.117	870.685
50.271	25.186	1065.559	870.240
51.286	25.203	1064.800	869.627
52.301	25.179	1063.568	868.428
53.315	25.241	1062.598	867.859
54.330	25.145	1061.389	866.334
55.344	25.190	1060.727	865.930
56.359	25.067	1060.320	864.931
57.374	24.973	1059.392	863.644
58.388	25.016	1058.220	862.819
59.403	24.813	1057.469	861.151
60.417	24.719	1056.857	860.126
61.432	24.695	1056.196	859.394
62.447	24.869	1055.750	859.792
63.461	24.862	1054.729	858.853
64.476	24.941	1053.435	858.101
65.490	24.765	1052.587	856.493
66.505	24.886	1052.407	856.850
67.520	24.892	1051.602	856.144
68.534	24.583	1050.584	853.766
69.549	24.371	1049.344	851.668
70.563	24.373	1048.703	851.085
71.578	24.384	1047.761	850.296
72.593	24.226	1046.929	848.793
73.607	24.427	1046.238	849.117
74.622	24.651	1046.108	849.999
75.636	24.827	1045.007	849.865
76.651	24.677	1044.271	848.482
77.666	24.456	1043.457	846.696
78.680	24.589	1042.949	846.837
79.695	24.647	1042.230	846.456
80.709	24.740	1041.745	846.424
81.724	24.707	1040.779	845.413
82.739	24.656	1039.924	844.400
83.753	25.266	1039.469	846.834
84.768	25.450	1038.705	847.006
85.782	25.493	1038.310	846.811
86.797	25.388	1037.235	845.366
87.812	25.277	1036.109	843.852
88.826	25.378	1034.800	843.182
89.841	25.458	1034.338	843.108
90.855	25.431	1033.526	842.246
91.870	25.375	1032.422	841.007
92.884	25.256	1031.114	839.315
93.899	25.322	1030.062	838.689
94.914	25.410	1029.481	838.555
95.928	25.289	1028.769	837.334
96.943	24.950	1027.197	834.405
97.957	24.756	1025.996	832.451
98.972	24.720	1024.851	831.283
99.987	24.873	1024.280	831.454
101.001	25.056	1023.544	831.635
102.016	24.993	1022.613	830.512
103.030	24.955	1021.956	829.730
104.045	24.857	1020.726	828.203
105.060	24.823	1019.618	827.072
106.074	24.795	1019.229	826.556
107.089	25.017	1019.009	827.329
108.103	25.076	1017.458	826.268
109.118	24.823	1015.813	823.693
110.133	24.844	1014.982	823.042
111.147	24.676	1013.878	821.304
112.162	24.581	1012.785	819.912
113.176	24.756	1012.758	820.621
114.191	24.635	1011.967	819.349
115.206	24.385	1010.656	817.071
116.220	24.429	1009.532	816.295
117.235	24.576	1009.143	816.575
118.249	24.607	1008.035	815.752
119.264	24.563	1006.899	814.560
120.279	24.458	1006.691	813.838
121.293	24.600	1005.823	813.712
122.308	24.573	1005.181	812.996
123.322	24.593	1003.772	811.877
124.337	24.347	1002.731	809.848
125.352	23.794	1001.069	805.927
126.366	23.882	999.806	805.236
127.381	24.626	1000.087	808.759
128.395	25.014	999.653	810.092
129.410	25.246	998.500	810.133
130.424	25.083	997.463	808.486
131.439	24.918	997.112	807.386
132.454	25.073	995.850	806.989
133.468	24.843	995.224	805.374
134.483	25.052	994.546	805.698
135.497	25.278	993.628	805.898
136.512	25.294	993.436	805.742
137.527	25.354	992.198	804.933
138.541	25.396	991.260	804.290
139.556	25.390	990.635	803.685
140.570	25.367	990.133	803.104
141.585	25.401	988.996	802.265
142.600	25.204	988.123	800.603
143.614	25.698	987.015	801.839
144.629	25.764	986.171	801.376
145.643	25.493	985.206	799.313
146.658	25.317	983.692	797.236
147.673	25.214	982.486	795.727
148.687	25.051	981.811	794.388
149.702	25.049	980.791	793.486
150.716	25.019	980.015	792.656
151.731	25.212	979.213	792.790
152.746	25.473	978.640	793.409
153.760	25.354	978.415	792.632
154.775	25.542	977.414	792.578
155.789	25.553	976.780	792.043
156.804	25.453	975.725	790.678
157.819	25.488	975.206	790.337
158.833	25.542	974.657	790.064
159.848	25.708	973.004	789.380
160.862	25.444	972.130	787.446
161.877	25.406	971.072	786.349
162.892	25.586	970.383	786.509
163.906	25.381	969.044	784.459
164.921	25.408	968.388	783.980
165.935	25.617	967.146	783.815
166.950	25.488	966.723	782.841
167.964	25.519	965.669	782.053
168.979	25.348	964.636	780.403
169.994	25.204	963.869	779.089
171.008	25.471	963.508	779.885
172.023	25.537	962.382	779.193
173.037	25.262	961.370	777.112
174.052	25.284	960.245	776.229
175.067	25.223	959.843	775.572
176.081	25.213	959.324	775.040
177.096	25.267	958.654	774.667
178.110	24.877	958.080	772.449
179.125	24.867	956.550	771.103
180.140	24.987	956.454	771.476
181.154	25.101	956.191	771.687
182.169	25.423	956.215	773.024
183.183	25.642	955.446	773.275
184.198	25.398	954.789	771.627
185.213	25.406	953.834	770.820
186.227	25.472	953.290	770.597
187.242	25.452	952.615	769.897
188.256	25.626	951.575	769.730
189.271	25.587	951.109	769.119
190.286	25.288	949.891	766.792
191.300	24.549	948.492	762.440
192.315	23.709	946.929	757.537
193.329	23.764	946.420	757.296
194.344	24.710	946.942	761.679
195.359	25.346	946.489	763.955
196.373	25.486	946.121	764.184
197.388	25.263	945.830	762.933
198.402	25.223	945.269	762.242
199.417	25.325	944.580	762.053
200.432	25.142	943.315	760.188
201.446	25.019	942.826	759.206
202.461	25.165	942.308	759.340
203.475	24.114	940.604	753.456
204.490	23.402	938.929	749.041
205.504	24.371	939.148	753.244
206.519	24.973	939.305	755.842
207.534	25.053	938.696	755.624
208.548	25.442	938.775	757.261
209.563	25.079	937.653	754.762
210.577	25.164	937.081	754.591
211.592	25.587	937.003	756.241
212.607	25.601	935.500	755.019
213.621	25.643	935.074	754.782
214.636	25.542	934.405	753.753
215.650	25.488	933.528	752.754
216.665	25.783	933.121	753.595
217.680	25.557	932.509	752.086
218.694	25.133	930.929	748.976
219.709	25.034	930.290	747.983
220.723	25.270	930.243	748.862
221.738	25.315	929.754	748.592
222.753	25.269	929.115	747.817
223.767	25.425	928.658	748.032
224.782	25.629	928.528	748.712
225.796	25.524	927.804	747.625
226.811	25.003	926.071	744.001
227.826	24.306	924.860	740.070
228.840	24.589	924.112	740.576
229.855	24.703	923.292	740.327
230.869	24.328	922.400	737.994
231.884	24.553	923.032	739.366
232.899	25.349	922.627	742.269
233.913	25.317	921.740	741.357
234.928	25.145	921.467	740.362
235.942	25.183	920.753	739.882
236.957	25.003	919.561	738.115
237.972	24.949	919.093	737.454
238.986	24.936	918.640	736.971
240.001	24.945	918.638	736.939
241.015	25.085	917.739	736.728
242.030	25.301	917.242	737.152
243.045	25.362	916.978	737.126
244.059	25.524	916.282	737.166
245.074	25.471	915.092	735.927
246.088	25.035	914.254	733.403
247.103	25.265	914.102	734.156
248.117	25.822	914.050	736.327
249.132	25.958	913.853	736.659
250.147	26.135	913.433	736.980
251.161	26.256	913.090	737.129
252.176	26.190	912.198	736.074
253.190	26.265	911.492	735.748
254.205	26.472	911.151	736.250
255.220	26.397	910.635	735.460
256.234	26.176	909.987	733.976
257.249	26.056	909.261	732.837
258.263	26.279	908.220	732.836
259.278	26.411	907.674	732.868
260.293	26.302	907.124	731.916
261.307	26.255	906.220	730.931
262.322	26.111	905.756	729.909
263.336	25.360	903.505	725.000
264.351	24.253	901.922	719.203
265.366	24.384	901.527	719.352
266.380	25.541	902.099	724.411
267.395	25.978	901.635	725.731
268.409	25.796	900.988	724.418
269.424	25.959	900.429	724.558
270.439	25.904	900.041	723.961
271.453	26.153	899.476	724.441
272.468	26.404	898.780	724.823
273.482	26.426	898.196	724.377
274.497	25.918	897.141	721.429
275.512	25.707	896.082	719.671
276.526	25.876	896.741	720.810
277.541	26.290	895.952	721.767
278.555	25.907	895.238	719.598
279.570	25.771	894.698	718.557
280.585	25.952	894.048	718.694
281.599	25.939	893.090	717.808
282.614	25.321	891.939	714.361
283.628	25.196	891.397	713.367
284.643	25.683	891.079	714.986
285.657	25.260	890.149	712.496
286.672	25.111	888.944	710.880
287.687	25.615	889.130	712.965
288.701	25.709	888.573	712.827
289.716	25.341	887.759	710.655
290.730	25.274	886.922	709.655
291.745	25.088	885.816	707.975
292.760	25.170	886.205	708.545
293.774	26.362	886.387	713.334
294.789	26.628	885.925	713.950
295.803	26.606	885.484	713.444
296.818	26.634	884.644	712.815
297.833	26.094	883.537	709.735
298.847	25.990	883.510	709.242
299.862	26.461	882.771	710.437
300.876	26.735	882.511	711.242
301.891	26.527	881.886	709.857
302.906	25.989	881.074	707.034
303.920	26.248	880.747	707.723
304.935	26.600	880.205	708.601
305.949	26.650	879.629	708.272
306.964	26.314	878.679	706.130
307.979	26.284	878.881	706.115
308.993	26.713	878.380	707.323
310.008	26.617	877.487	706.166
311.022	26.456	876.541	704.718
312.037	26.351	875.966	703.782
313.052	26.070	874.853	701.736
314.066	25.288	873.355	697.431
315.081	24.752	872.959	694.972
316.095	25.749	873.418	699.149
317.110	26.181	873.351	700.711
318.125	25.362	871.370	695.887
319.139	24.287	870.242	690.765
320.154	24.303	869.494	690.172
321.168	25.167	870.217	694.028
322.183	25.922	870.099	696.792
323.197	26.162	869.721	697.357
324.212	26.113	869.848	697.207
325.227	26.289	869.251	697.344
326.241	26.204	868.266	696.166
327.256	26.151	867.458	695.253
328.270	26.067	866.795	694.338
329.285	26.002	865.589	693.060
330.300	25.597	864.956	690.936
331.314	25.895	864.779	691.876
332.329	26.505	864.651	694.055
333.343	26.495	864.430	693.775
334.358	26.490	864.116	693.444
335.373	26.585	863.755	693.457
336.387	26.842	863.730	694.361
337.402	26.832	863.606	694.159
338.416	26.889	863.111	693.918
339.431	26.979	862.505	693.715
340.446	27.075	862.259	693.820
341.460	26.992	861.646	692.952
342.475	26.867	860.812	691.742
343.489	26.864	861.031	691.846
344.504	27.056	861.083	692.558
345.519	27.356	860.725	693.351
346.533	27.355	859.634	692.407
347.548	27.280	859.357	691.839
348.562	27.266	858.989	691.427
349.577	27.044	858.223	689.905
350.592	27.139	857.466	689.598
351.606	27.105	856.724	688.811
352.621	26.920	856.070	687.523
353.635	26.911	855.485	686.957
354.650	26.449	853.448	683.517
355.665	25.411	852.035	678.408
356.679	25.952	851.768	680.177
357.694	26.322	851.493	681.289
358.708	26.062	851.253	680.059
359.723	26.465	851.193	681.470
360.738	26.860	850.715	682.511
361.752	27.003	850.062	682.464
362.767	27.287	849.828	683.284
363.781	27.615	849.206	683.954
364.796	27.587	849.189	683.776
365.810	27.654	848.830	683.677
366.825	27.628	847.963	682.819
367.840	27.242	847.307	680.786
368.854	26.911	846.350	678.719
369.869	26.859	846.070	678.243
370.883	27.064	845.435	678.439
371.898	26.946	844.940	677.542
372.913	27.078	844.702	677.781
373.927	27.131	844.059	677.405
374.942	27.212	843.836	677.465
375.956	27.450	843.431	677.967
376.971	27.436	843.191	677.665
377.986	27.544	842.863	677.742
379.000	27.587	842.221	677.325
380.015	27.300	841.591	675.690
381.029	27.330	841.154	675.394
382.044	27.552	840.724	675.814
383.059	27.488	840.121	675.029
384.073	27.530	839.432	674.572
385.088	27.358	839.137	673.640
386.102	27.348	837.654	672.353
387.117	27.376	837.163	672.000
388.132	26.994	835.844	669.476
389.146	26.500	835.278	667.142
390.161	26.848	835.307	668.389
391.175	27.244	835.058	669.588
392.190	27.239	833.420	668.197
393.205	25.680	831.589	660.949
394.219	24.301	829.666	654.306
395.234	24.069	829.698	653.422
396.248	25.606	831.397	660.350
397.263	27.176	832.406	666.858
398.278	27.018	831.697	665.653
399.292	26.894	831.016	664.594
400.307	26.885	830.289	663.922
401.321	26.970	830.291	664.176
402.336	27.155	830.242	664.752
403.350	27.635	830.433	666.604
404.365	27.963	830.486	667.783
405.380	28.313	829.599	668.291
406.394	28.348	829.076	667.937
407.409	28.383	828.297	667.379
408.423	28.026	828.582	666.248
409.438	28.245	827.935	666.464
410.453	28.389	827.342	666.452
411.467	28.231	826.811	665.392
412.482	28.256	826.175	664.914
413.496	28.476	825.946	665.470
414.511	28.283	825.549	664.390
415.526	28.215	825.091	663.715
416.540	28.164	824.295	662.831
417.555	27.910	823.603	661.297
418.569	28.012	823.607	661.611
419.584	28.050	822.544	660.837
420.599	27.872	822.117	659.789
421.613	103.040	1280.722	1428.693
422.628	89.120	1347.538	1428.808
