DTS Sentinel unit serial number:	SN413079Multiplexer serial number:	ORYXHardware model number:	OX4-SRSoftware version number:	ORYX F/W v4.00 Oryx Data Collector v3.7.2.0data status	okinstallation	princeton_trtdifferential loss correction	single-endedforward channel	channel 1reverse channel	N/Adate	2019/09/12time	19:18:34forward acquisition time	15.00reverse acquisition time	0.00gamma	496.2192k internal	0.2320k external	0.2320temperature offset calibration	1.0118default loss term (dB/km)	0.3790temperature slope calibration	1.0000multiplexer offset coefficient	1.0000multiplexer slope coefficient	1.0000fibre end	0.00T internal ref (°C)	32.44T ext. ref 1 (°C)	3.19T ext. ref 2 (°C)	27.01length (m)	temperature (°C)	Stokes	anti-Stokes-747.200	-148.326	0.719	0.060
-746.185	-101.655	-1.105	-0.271
-745.171	180.239	0.260	-0.386
-744.156	-63.687	0.672	-0.279
-743.142	486.778	-0.139	-0.320
-742.127	133.678	0.133	-0.174
-741.112	-47.116	-0.987	0.487
-740.098	-158.586	0.700	-0.041
-739.083	80.222	-0.311	-0.338
-738.069	-62.571	0.348	-0.146
-737.054	318.585	0.232	0.444
-736.039	-200.000	0.022	0.268
-735.025	-200.000	-0.015	-0.572
-734.010	-148.320	-0.491	-0.041
-732.996	-80.100	-0.381	-0.129
-731.981	-37.247	0.565	0.305
-730.966	-115.718	0.109	-0.021
-729.952	93.289	-0.362	0.414
-728.937	88.994	0.097	0.110
-727.923	37.833	-0.580	0.521
-726.908	-70.482	-1.079	-0.413
-725.894	800.000	0.117	-0.448
-724.879	255.024	-0.538	-0.932
-723.864	-157.818	-0.715	0.043
-722.850	59.407	-0.272	0.270
-721.835	-62.644	-0.575	-0.241
-720.821	32.612	-0.377	0.329
-719.806	-97.913	0.795	-0.207
-718.791	800.000	0.192	0.833
-717.777	-200.000	-0.134	0.610
-716.762	123.440	0.100	0.127
-715.748	-109.493	0.401	0.086
-714.733	-50.439	-0.433	-0.207
-713.718	-200.000	-0.073	-0.333
-712.704	663.388	-0.284	-0.740
-711.689	800.000	-0.043	-0.160
-710.675	-173.146	0.614	0.019
-709.660	-84.050	-1.230	0.395
-708.645	165.112	0.435	0.620
-707.631	-36.792	0.285	0.154
-706.616	800.000	-0.086	-0.357
-705.602	9.962	-0.307	-0.235
-704.587	595.154	0.207	-0.516
-703.572	142.602	-0.312	-0.418
-702.558	-32.754	-0.583	-0.327
-701.543	-200.000	-0.090	0.615
-700.529	-200.000	0.018	0.386
-699.514	-24.013	-0.277	-0.167
-698.499	656.300	0.184	0.478
-697.485	44.637	0.765	0.710
-696.470	-51.097	-0.246	0.117
-695.456	-129.203	0.262	-0.037
-694.441	-61.329	-0.158	0.067
-693.426	-37.038	-0.504	0.273
-692.412	800.000	-0.045	-0.172
-691.397	-51.225	0.182	-0.086
-690.383	-200.000	-0.068	-0.404
-689.368	-200.000	-0.009	0.356
-688.354	243.635	0.429	0.726
-687.339	121.418	-0.238	0.299
-686.324	526.202	0.298	-0.707
-685.310	-200.000	0.040	0.549
-684.295	78.232	-0.441	-0.475
-683.281	-65.075	0.513	0.209
-682.266	56.468	0.223	0.219
-681.251	57.851	0.199	-0.196
-680.237	800.000	0.150	-0.511
-679.222	-200.000	-0.190	0.877
-678.208	83.513	-0.227	-0.249
-677.193	229.492	0.163	-0.269
-676.178	113.140	-0.546	-0.667
-675.164	800.000	-0.116	-0.372
-674.149	85.117	-0.006	0.006
-673.135	238.265	0.221	-0.370
-672.120	-122.699	1.175	-0.192
-671.105	-200.000	0.045	0.364
-670.091	-20.581	-0.816	0.505
-669.076	-16.142	1.335	-0.855
-668.062	645.951	0.287	-0.739
-667.047	800.000	0.248	0.807
-666.032	186.524	0.379	-0.569
-665.018	800.000	-0.141	-0.577
-664.003	-140.749	-0.456	0.047
-662.989	-35.879	-0.457	0.249
-661.974	-127.182	0.809	0.119
-660.959	-56.162	0.396	0.177
-659.945	-108.290	-0.452	0.098
-658.930	-92.614	-0.164	0.046
-657.916	-109.193	-0.307	0.066
-656.901	-109.619	0.785	0.167
-655.886	-61.050	1.086	0.462
-654.872	-8.794	-0.229	0.155
-653.857	-80.335	0.431	0.145
-652.843	165.788	-0.121	0.172
-651.828	800.000	0.053	0.196
-650.814	800.000	0.245	0.695
-649.799	-73.516	-0.793	-0.292
-648.784	-200.000	-0.039	0.805
-647.770	-12.017	-0.602	0.397
-646.755	-110.213	-0.625	-0.131
-645.741	20.630	0.650	-0.530
-644.726	-22.414	0.127	-0.077
-643.711	115.508	-0.232	0.286
-642.697	-56.455	0.641	-0.286
-641.682	-79.578	0.124	0.042
-640.668	-15.361	-0.346	-0.223
-639.653	800.000	-0.251	0.719
-638.638	589.736	0.346	0.858
-637.624	-76.320	-0.672	-0.238
-636.609	-68.758	0.166	-0.065
-635.595	-20.141	0.574	-0.356
-634.580	-78.567	0.544	0.187
-633.565	800.000	0.040	-0.156
-632.551	800.000	-0.105	0.370
-631.536	-200.000	-0.010	-0.215
-630.522	214.385	0.147	-0.234
-629.507	-108.885	-0.811	0.174
-628.492	-12.700	0.501	0.329
-627.478	139.469	0.524	-0.694
-626.463	800.000	0.233	-0.952
-625.449	800.000	-0.050	-0.142
-624.434	280.590	-0.200	-0.359
-623.419	-1.775	0.050	-0.036
-622.405	44.430	0.062	0.057
-621.390	-200.000	-0.127	-0.751
-620.376	-104.538	0.240	0.056
-619.361	3.499	-0.954	-0.700
-618.346	-4.557	-0.927	-0.644
-617.332	-200.000	-0.062	0.536
-616.317	-200.000	0.112	0.712
-615.303	-167.399	-0.872	0.035
-614.288	-95.974	0.073	-0.019
-613.273	800.000	0.175	0.501
-612.259	49.755	-0.407	-0.386
-611.244	35.174	-0.514	-0.453
-610.230	18.465	0.297	0.239
-609.215	162.891	0.307	-0.433
-608.201	800.000	-0.255	0.814
-607.186	12.297	0.423	-0.327
-606.171	311.504	-0.278	0.525
-605.157	174.156	0.361	0.525
-604.142	-54.900	-0.990	0.449
-603.128	-148.573	-0.445	-0.037
-602.113	-70.797	0.643	-0.244
-601.098	800.000	-0.098	-0.320
-600.084	-93.386	0.902	-0.251
-599.069	46.673	-0.749	0.699
-598.055	43.051	-0.491	0.450
-597.040	9.492	0.155	-0.118
-596.025	-200.000	-0.013	-0.689
-595.011	139.462	0.194	0.257
-593.996	-118.875	-0.209	-0.037
-592.982	-104.689	-0.814	0.189
-591.967	-140.622	-0.745	-0.078
-590.952	-111.028	0.476	0.098
-589.938	-147.514	-0.847	-0.072
-588.923	-200.000	0.019	0.114
-587.909	591.906	0.162	0.402
-586.894	248.569	0.330	-0.562
-585.879	-106.504	-0.404	0.091
-584.865	-0.783	0.561	0.400
-583.850	54.425	0.423	-0.409
-582.836	-160.113	-0.344	0.019
-581.821	-200.000	0.093	-0.835
-580.806	-200.000	0.084	-0.813
-579.792	-158.281	0.494	-0.029
-578.777	155.799	0.470	-0.651
-577.763	800.000	-0.138	0.549
-576.748	-119.425	0.779	-0.136
-575.733	0.825	-0.902	0.649
-574.719	13.667	0.117	0.091
-573.704	131.956	-0.607	0.785
-572.690	-129.676	0.915	-0.127
-571.675	-89.694	0.602	-0.177
-570.661	212.641	0.418	-0.662
-569.646	-200.000	0.049	-0.649
-568.631	-114.390	-0.437	0.084
-567.617	15.938	-0.680	0.538
-566.602	174.974	0.524	-0.762
-565.588	40.063	0.193	0.174
-564.573	-70.512	-0.834	0.317
-563.558	257.039	-0.112	0.193
-562.544	-145.764	-0.241	-0.022
-561.529	-93.937	-0.247	0.068
-560.515	58.263	-0.593	-0.584
-559.500	-200.000	0.006	0.149
-558.485	47.206	0.029	0.027
-557.471	800.000	0.221	0.757
-556.456	-57.314	0.479	0.211
-555.442	-200.000	0.062	-0.506
-554.427	-200.000	0.045	0.305
-553.412	-200.000	-0.050	0.238
-552.398	24.989	0.450	0.375
-551.383	214.496	-0.479	0.761
-550.369	800.000	0.168	-0.653
-549.354	-173.087	-0.410	0.013
-548.339	-200.000	0.037	0.609
-547.325	-200.000	-0.126	0.588
-546.310	-10.300	0.305	-0.203
-545.296	-64.890	-0.905	-0.367
-544.281	-2.005	0.338	0.238
-543.266	326.440	0.089	0.171
-542.252	-91.172	0.289	-0.083
-541.237	-200.000	-0.038	-0.435
-540.223	-129.986	0.181	0.025
-539.208	35.475	-0.507	0.446
-538.193	66.221	0.192	-0.196
-537.179	-1.039	0.348	-0.247
-536.164	81.572	1.024	1.111
-535.150	-18.163	-0.223	0.140
-534.135	21.197	-0.387	0.315
-533.121	-65.092	-0.557	-0.225
-532.106	678.223	-0.227	0.592
-531.091	800.000	0.028	0.105
-530.077	12.716	0.905	-0.701
-529.062	358.843	-0.328	-0.656
-528.048	41.640	0.274	0.249
-527.033	-200.000	0.128	-0.746
-526.018	392.292	0.284	0.592
-525.004	626.531	0.134	0.338
-523.989	-176.838	-0.110	0.003
-522.975	10.590	0.298	0.228
-521.960	-200.000	0.238	0.000
-520.945	29.489	0.682	-0.581
-519.931	58.445	0.549	-0.540
-518.916	-104.971	0.278	0.064
-517.902	-133.818	-0.747	-0.093
-516.887	-200.000	-0.082	0.599
-515.872	-200.000	-0.138	0.690
-514.858	-105.069	-0.116	-0.027
-513.843	-111.060	-0.690	0.142
-512.829	-46.787	0.339	0.166
-511.814	168.520	0.586	-0.837
-510.799	-19.959	0.570	-0.352
-509.785	-200.000	-0.050	0.331
-508.770	208.481	-0.231	0.362
-507.756	-200.000	-0.061	0.632
-506.741	-200.000	0.084	0.430
-505.726	-200.000	0.027	-0.352
-504.712	230.324	-0.288	-0.472
-503.697	18.280	0.880	0.704
-502.683	-49.491	0.263	0.125
-501.668	800.000	-0.221	0.764
-500.653	800.000	-0.142	-0.469
-499.639	-81.776	0.529	0.174
-498.624	-106.743	-0.809	-0.180
-497.610	-165.471	-0.220	-0.010
-496.595	239.120	0.486	-0.809
-495.581	-155.261	-0.945	-0.062
-494.566	-105.429	0.821	-0.187
-493.551	-37.598	-0.634	0.338
-492.537	-107.372	1.380	0.303
-491.522	-68.166	0.345	0.134
-490.508	-44.342	0.862	0.432
-489.493	-6.078	1.052	-0.720
-488.478	95.246	-0.196	0.223
-487.464	89.071	-0.187	0.209
-486.449	-200.000	0.061	0.388
-485.435	-182.068	-0.699	0.013
-484.420	-124.402	0.147	0.023
-483.405	-109.055	-0.320	0.068
-482.391	109.893	0.323	-0.387
-481.376	-200.000	0.068	0.389
-480.362	-200.000	-0.123	-1.130
-479.347	216.305	-0.227	-0.361
-478.332	80.881	0.508	0.548
-477.318	139.714	-0.171	0.226
-476.303	61.614	-0.325	-0.324
-475.289	-162.588	0.188	0.009
-474.274	-50.685	0.784	0.369
-473.259	-81.393	0.576	-0.190
-472.245	-90.210	0.688	-0.200
-471.230	3.158	0.287	-0.209
-470.216	-38.250	-0.426	-0.226
-469.201	60.012	-0.530	-0.524
-468.186	-200.000	0.030	-0.605
-467.172	88.068	0.197	0.218
-466.157	369.007	-0.253	-0.512
-465.143	-155.569	0.165	-0.011
-464.128	-67.602	-0.092	-0.036
-463.113	257.271	0.366	-0.630
-462.099	800.000	-0.213	0.626
-461.084	-125.469	-0.501	-0.076
-460.070	-200.000	0.040	0.642
-459.055	-198.077	-0.643	-0.004
-458.040	-15.623	0.361	-0.230
-457.026	281.385	0.216	-0.386
-456.011	-21.567	0.215	-0.131
-454.997	253.940	0.157	-0.269
-453.982	-85.140	-0.959	-0.300
-452.968	800.000	0.085	-0.242
-451.953	233.093	0.272	-0.447
-450.938	352.256	-0.150	0.298
-449.924	91.696	-0.421	-0.473
-448.909	72.671	-0.170	0.177
-447.895	105.531	-0.523	0.617
-446.880	-64.394	1.321	0.537
-445.865	576.976	-0.115	0.280
-444.851	-200.000	-0.051	0.516
-443.836	184.546	0.313	-0.463
-442.822	-129.854	0.328	0.045
-441.807	800.000	-0.063	0.207
-440.792	-150.218	0.408	0.032
-439.778	47.841	0.234	-0.218
-438.763	379.931	-0.115	-0.236
-437.749	127.538	0.373	-0.473
-436.734	765.522	0.162	-0.441
-435.719	-108.017	0.791	-0.172
-434.705	130.403	-0.211	0.271
-433.690	800.000	0.099	-0.276
-432.676	711.167	-0.112	-0.295
-431.661	800.000	-0.272	0.827
-430.646	-200.000	0.014	-0.080
-429.632	-0.267	-0.809	-0.575
-428.617	-200.000	-0.102	0.659
-427.603	38.946	0.384	0.343
-426.588	5.736	0.242	-0.179
-425.573	82.756	-0.204	-0.222
-424.559	52.475	0.029	0.028
-423.544	-83.272	0.448	0.144
-422.530	-72.229	-0.368	0.136
-421.515	150.720	-0.098	-0.133
-420.500	25.754	-0.711	0.592
-419.486	-53.762	0.469	-0.214
-418.471	-10.856	-0.082	0.054
-417.457	-200.000	0.032	0.641
-416.442	548.424	-0.184	-0.439
-415.428	-122.992	0.309	-0.050
-414.413	32.431	-0.576	0.497
-413.398	-200.000	0.025	0.183
-412.384	-200.000	-0.003	0.166
-411.369	478.236	-0.340	0.769
-410.355	-17.548	0.535	-0.336
-409.340	-178.589	-0.249	0.006
-408.325	-200.000	0.043	-0.234
-407.311	-153.975	-0.526	-0.036
-406.296	43.192	0.369	0.336
-405.282	-186.317	-0.715	0.010
-404.267	569.180	-0.161	-0.391
-403.252	800.000	0.106	0.338
-402.238	800.000	-0.143	-0.550
-401.223	-113.482	-1.756	-0.343
-400.209	-17.459	0.420	0.263
-399.194	-46.688	1.152	-0.563
-398.179	74.163	0.189	0.197
-397.165	-28.359	-0.844	0.486
-396.150	-200.000	0.008	0.740
-395.136	-30.243	0.361	0.205
-394.121	195.832	-0.133	-0.202
-393.106	66.998	-0.491	-0.499
-392.092	524.469	0.303	0.712
-391.077	221.567	0.506	0.810
-390.063	-115.176	-0.092	0.017
-389.048	-136.706	0.194	0.022
-388.033	184.555	0.452	-0.668
-387.019	-66.812	0.360	-0.142
-386.004	147.065	-0.097	-0.130
-384.990	-3.096	-0.511	-0.355
-383.975	-200.000	0.004	0.147
-382.960	-113.232	0.394	-0.077
-381.946	-121.842	-0.135	-0.022
-380.931	-94.887	-0.405	0.109
-379.917	-107.465	-0.173	-0.038
-378.902	0.139	-0.569	0.404
-377.888	49.426	-0.875	-0.821
-376.873	-148.461	-0.313	0.026
-375.858	-91.427	-0.612	-0.174
-374.844	-53.502	-0.716	-0.327
-373.829	296.365	0.240	0.439
-372.815	541.275	-0.074	-0.176
-371.800	-77.593	-0.342	0.118
-370.785	-200.000	0.064	-0.302
-369.771	383.069	-0.145	-0.297
-368.756	285.368	0.291	0.522
-367.742	378.945	0.139	0.284
-366.727	69.796	-0.239	0.245
-365.712	14.864	-0.254	-0.198
-364.698	395.773	0.399	-0.830
-363.683	-200.000	0.089	-0.825
-362.669	-200.000	0.100	-0.514
-361.654	-200.000	0.034	0.480
-360.639	-56.119	0.566	-0.251
-359.625	378.563	0.057	-0.116
-358.610	-200.000	-0.120	0.949
-357.596	-200.000	-0.069	0.463
-356.581	-67.350	0.459	0.180
-355.566	261.482	0.162	0.279
-354.552	-200.000	-0.136	0.680
-353.537	-176.441	0.620	0.016
-352.523	-200.000	-0.025	-0.479
-351.508	-71.634	-0.855	-0.318
-350.493	800.000	-0.128	-0.366
-349.479	-158.692	0.251	0.014
-348.464	-51.565	-0.139	-0.064
-347.450	-200.000	-0.171	1.031
-346.435	800.000	0.116	-0.391
-345.420	800.000	-0.170	-0.576
-344.406	-162.465	0.963	0.047
-343.391	-92.693	-0.627	0.175
-342.377	-37.084	0.077	0.041
-341.362	-116.971	0.437	0.079
-340.348	-29.284	-0.276	0.157
-339.333	302.787	-0.316	-0.583
-338.318	-48.153	0.409	-0.197
-337.304	800.000	0.131	0.443
-336.289	218.495	-0.423	0.672
-335.275	565.909	-0.032	-0.077
-334.260	222.647	-0.060	0.096
-333.245	-68.694	0.468	0.180
-332.231	-92.185	-0.678	0.190
-331.216	-45.625	-0.283	0.139
-330.202	143.153	-0.330	-0.437
-329.187	-200.000	0.032	-0.254
-328.172	-166.603	0.490	0.020
-327.158	-200.000	0.120	0.627
-326.143	-93.876	0.436	-0.119
-325.129	142.271	-0.311	-0.411
-324.114	-35.654	0.031	-0.017
-323.099	82.947	-0.517	-0.560
-322.085	364.374	-0.281	-0.561
-321.070	334.938	0.168	-0.323
-320.056	-200.000	-0.040	-0.460
-319.041	179.802	-0.366	0.533
-318.026	336.730	0.104	-0.201
-317.012	-5.575	-0.314	-0.214
-315.997	-109.514	-0.253	-0.053
-314.983	638.807	0.506	-1.280
-313.968	-41.758	-0.862	-0.440
-312.953	-19.841	0.681	-0.418
-311.939	-91.605	0.211	0.060
-310.924	-28.461	-0.553	0.317
-309.910	-149.256	0.469	0.037
-308.895	800.000	0.048	0.167
-307.880	800.000	0.004	0.019
-306.866	-70.243	-0.095	0.036
-305.851	191.358	0.254	-0.381
-304.837	-15.238	0.465	-0.296
-303.822	356.648	0.300	-0.593
-302.807	-83.503	0.702	0.223
-301.793	-120.216	0.641	-0.109
-300.778	47.808	-0.314	-0.292
-299.764	133.109	0.266	-0.341
-298.749	800.000	-0.163	0.578
-297.735	800.000	0.132	0.560
-296.720	-200.000	-0.025	0.245
-295.705	16.292	-0.563	-0.442
-294.691	-100.488	0.527	0.129
-293.676	-200.000	-0.046	0.864
-292.662	-200.000	-0.108	0.722
-291.647	800.000	0.128	-0.472
-290.632	-23.433	0.115	-0.069
-289.618	-90.783	-0.645	0.185
-288.603	-7.708	-0.549	0.368
-287.589	111.195	-0.067	0.080
-286.574	32.340	0.349	-0.300
-285.559	-103.032	-0.439	-0.103
-284.545	-200.000	0.061	0.451
-283.530	-200.000	-0.151	0.850
-282.516	84.763	0.315	0.342
-281.501	-120.975	0.849	0.142
-280.486	-200.000	0.003	-0.706
-279.472	88.922	-0.386	-0.427
-278.457	-50.647	-0.904	0.423
-277.443	-52.727	-0.176	-0.081
-276.428	43.696	-0.239	-0.218
-275.413	-44.350	-0.462	-0.230
-274.399	23.870	-0.410	-0.335
-273.384	-82.176	0.592	-0.191
-272.370	525.089	-0.320	0.748
-271.355	-113.337	1.042	0.203
-270.340	114.359	-0.176	0.213
-269.326	-47.017	-0.885	0.429
-268.311	-66.428	0.264	-0.104
-267.297	777.551	0.172	-0.467
-266.282	180.023	0.409	-0.595
-265.267	-200.000	-0.078	0.424
-264.253	42.258	-0.365	-0.329
-263.238	-35.919	0.133	-0.071
-262.224	-110.729	-0.528	0.108
-261.209	-53.842	0.223	0.101
-260.195	226.092	0.310	0.499
-259.180	89.998	-0.099	-0.109
-258.165	458.818	-0.162	-0.358
-257.151	32.589	0.793	0.680
-256.136	266.629	-0.617	-1.070
-255.122	-123.519	0.773	0.122
-254.107	-200.000	-0.017	0.088
-253.092	800.000	-0.099	0.345
-252.078	-3.083	0.102	0.071
-251.063	448.545	-0.072	-0.158
-250.049	321.969	0.133	0.251
-249.034	177.087	0.557	0.804
-248.019	207.559	-0.202	-0.312
-247.005	-36.190	1.228	0.658
-245.990	-200.000	0.260	-1.151
-244.976	-76.694	0.492	-0.171
-243.961	800.000	0.089	0.312
-242.946	-76.345	-0.361	-0.126
-241.932	266.127	-0.242	0.419
-240.917	800.000	-0.121	-0.494
-239.903	-64.665	0.362	-0.146
-238.888	-200.000	0.056	0.409
-237.873	106.037	-0.378	0.444
-236.859	49.401	0.511	0.476
-235.844	-104.599	0.705	-0.161
-234.830	-200.000	0.078	-0.700
-233.815	-200.000	0.062	0.646
-232.800	-200.000	0.089	0.524
-231.786	65.660	-0.349	-0.350
-230.771	-197.748	-0.356	0.002
-229.757	68.265	-0.394	-0.400
-228.742	-125.144	-0.631	-0.096
-227.727	-112.071	0.866	0.173
-226.713	506.200	0.083	0.190
-225.698	-200.000	0.009	-0.167
-224.684	547.116	-0.191	-0.454
-223.669	17.643	-0.781	-0.615
-222.655	-43.911	0.450	0.224
-221.640	-85.131	0.480	0.149
-220.625	106.955	-0.462	0.543
-219.611	-200.000	0.054	-0.509
-218.596	-200.000	-0.224	1.133
-217.582	-127.526	1.045	0.150
-216.567	566.824	-0.486	-1.167
-215.552	-55.803	-0.766	0.339
-214.538	173.783	0.501	0.717
-213.523	442.350	-0.143	-0.311
-212.509	-64.878	-0.377	-0.151
-211.494	24.443	-0.143	0.117
-210.479	629.558	0.299	-0.749
-209.465	-77.127	-0.361	0.125
-208.450	800.000	0.411	-1.413
-207.436	397.882	0.407	0.843
-206.421	-200.000	0.006	0.136
-205.406	223.603	-0.208	0.332
-204.392	65.043	0.712	-0.712
-203.377	-36.731	0.712	-0.379
-202.363	73.636	-0.350	0.363
-201.348	-167.061	0.599	0.024
-200.333	78.819	-0.047	-0.050
-199.319	-173.230	0.876	-0.026
-198.304	110.598	-0.497	-0.591
-197.290	20.362	-0.385	0.308
-196.275	484.514	-0.179	0.404
-195.260	-200.000	0.018	-0.225
-194.246	-135.190	0.381	-0.045
-193.231	9.263	-0.172	0.128
-192.217	-177.911	0.303	0.007
-191.202	-200.000	-0.047	0.720
-190.187	125.053	-0.343	-0.427
-189.173	-184.439	0.852	-0.014
-188.158	-70.803	0.192	0.072
-187.144	-116.914	-0.619	0.112
-186.129	-7.981	-0.765	0.510
-185.114	-46.416	0.344	0.167
-184.100	-143.687	-0.438	-0.041
-183.085	-200.000	-0.045	0.360
-182.071	-112.482	0.558	0.110
-181.056	98.160	-0.683	-0.778
-180.042	-200.000	0.095	-0.781
-179.027	-200.000	-0.078	-1.013
-178.012	98.899	-0.398	0.455
-176.998	32.843	0.122	-0.105
-175.983	453.304	-0.185	-0.406
-174.969	24.403	-0.314	-0.257
-173.954	50.696	0.243	-0.228
-172.939	-91.050	-0.640	-0.182
-171.925	21.906	0.050	-0.040
-170.910	539.492	0.320	0.753
-169.896	-93.995	0.023	-0.006
-168.881	-200.000	-0.010	0.507
-167.866	28.734	0.370	0.310
-166.852	41.829	-0.320	0.287
-165.837	-128.361	-0.387	0.054
-164.823	56.553	-0.256	-0.246
-163.808	-156.329	-0.329	0.020
-162.793	-104.193	0.659	-0.151
-161.779	-82.063	-0.972	-0.314
-160.764	-158.523	-0.543	-0.031
-159.750	-44.483	0.225	0.111
-158.735	-109.938	-0.502	0.104
-157.720	-76.564	-0.601	0.209
-156.706	24.826	0.770	0.630
-155.691	-200.000	-0.028	-0.777
-154.677	66.238	0.123	-0.124
-153.662	-169.066	0.610	-0.022
-152.647	-200.000	0.091	0.444
-151.633	800.000	0.225	0.940
-150.618	19.626	-0.360	-0.286
-149.604	-34.444	-0.230	0.124
-148.589	-2.544	-0.297	-0.206
-147.574	800.000	-0.134	0.436
-146.560	-46.379	-0.124	0.060
-145.545	-200.000	0.108	0.720
-144.531	47.414	0.466	0.428
-143.516	242.294	-0.452	0.747
-142.502	209.869	-0.346	0.536
-141.487	-54.371	-0.421	0.189
-140.472	-85.966	0.474	0.145
-139.458	-200.000	-0.060	-0.260
-138.443	36.011	0.767	-0.667
-137.429	-200.000	0.065	0.320
-136.414	800.000	-0.212	-0.787
-135.399	-17.546	-0.166	0.103
-134.385	-0.816	-0.211	0.147
-133.370	-22.725	0.573	0.342
-132.356	-127.106	0.631	-0.091
-131.341	-67.402	-0.573	-0.222
-130.326	800.000	0.142	0.548
-129.312	-116.375	-0.631	-0.115
-128.297	-200.000	0.030	0.150
-127.283	107.146	-0.416	0.488
-126.268	-106.677	0.473	-0.104
-125.253	131.379	-0.150	-0.190
-124.239	-104.007	-0.416	0.096
-123.224	-48.268	0.215	-0.102
-122.210	3.157	0.526	0.377
-121.195	76.899	-0.295	-0.309
-120.180	-76.359	-0.060	0.021
-119.166	-102.032	-0.139	-0.033
-118.151	-72.995	-0.442	-0.160
-117.137	-200.000	0.108	-0.580
-116.122	-200.000	-0.055	-0.725
-115.107	-50.462	0.456	0.212
-114.093	-200.000	0.371	0.001
-113.078	-115.075	1.007	0.189
-112.064	-200.000	-0.127	0.726
-111.049	-200.000	0.153	0.803
-110.034	5.684	0.277	-0.202
-109.020	386.230	0.256	-0.521
-108.005	305.585	-0.470	0.861
-106.991	-111.660	0.477	-0.095
-105.976	357.269	-0.339	0.667
-104.962	800.000	-0.221	0.858
-103.947	28.089	-0.464	-0.386
-102.932	800.000	-0.156	-0.444
-101.918	800.000	-0.293	0.845
-100.903	-75.324	0.533	0.188
-99.889	-120.166	-0.357	-0.060
-98.874	-129.138	-0.135	-0.019
-97.859	-0.382	0.154	-0.108
-96.845	800.000	0.386	1.071
-95.830	-77.456	0.079	-0.027
-94.816	-118.053	-0.956	-0.168
-93.801	800.000	0.187	0.756
-92.786	-200.000	0.077	0.399
-91.772	116.729	-0.230	-0.278
-90.757	-200.000	0.018	0.676
-89.743	-10.334	0.434	0.283
-88.728	3.129	-0.035	-0.025
-87.713	-108.460	-0.557	-0.118
-86.699	-45.339	-0.195	-0.096
-85.684	36.943	-0.485	0.422
-84.670	-103.665	-0.476	0.110
-83.655	25.672	-0.316	0.259
-82.640	210.934	0.608	-0.941
-81.626	533.254	0.144	0.336
-80.611	-200.000	0.067	0.420
-79.597	-116.728	0.257	-0.047
-78.582	-67.774	0.568	0.219
-77.567	-39.734	-0.420	-0.216
-76.553	-63.503	-0.206	0.084
-75.538	624.831	0.183	-0.455
-74.524	47.789	0.178	-0.164
-73.509	519.254	0.162	0.374
-72.494	-71.551	0.421	0.155
-71.480	-200.000	-0.144	0.731
-70.465	-30.203	0.048	-0.027
-69.451	-171.122	-0.567	0.019
-68.436	-113.377	0.455	0.088
-67.422	800.000	-0.154	-0.619
-66.407	-200.000	0.135	-1.017
-65.392	-127.485	-0.417	-0.060
-64.378	800.000	0.119	-0.403
-63.363	-135.377	0.812	0.096
-62.349	-200.000	-0.208	-1.029
-61.334	800.000	-0.303	-1.200
-60.319	-59.698	0.491	-0.207
-59.305	-200.000	0.201	-1.415
-58.290	187.061	0.915	1.342
-57.276	583.892	0.598	1.447
-56.261	-200.000	95.278	595.282
-55.246	683.388	1349.978	3465.633
-54.232	205.300	2513.383	3842.119
-53.217	120.340	2119.844	2590.278
-52.203	44.528	1591.582	1439.311
-51.188	35.871	1332.338	1153.233
-50.173	32.868	1290.750	1099.729
-49.159	55.696	1340.913	1278.537
-48.144	56.858	1357.561	1301.252
-47.130	36.074	1315.847	1139.982
-46.115	32.931	1297.562	1105.721
-45.100	32.230	1292.517	1097.289
-44.086	32.261	1290.539	1095.751
-43.071	32.170	1289.027	1093.890
-42.057	32.120	1286.050	1091.031
-41.042	32.471	1284.006	1091.292
-40.027	32.325	1282.808	1089.383
-39.013	32.209	1280.949	1087.089
-37.998	32.392	1278.779	1086.258
-36.984	32.251	1278.160	1084.876
-35.969	32.187	1276.554	1083.102
-34.954	32.681	1273.178	1083.035
-33.940	32.488	1273.282	1081.970
-32.925	32.692	1270.820	1081.005
-31.911	32.590	1269.938	1079.626
-30.896	32.682	1268.563	1078.941
-29.881	32.616	1267.424	1077.553
-28.867	32.371	1266.531	1075.352
-27.852	32.413	1264.857	1074.130
-26.838	32.650	1263.085	1073.933
-25.823	32.594	1261.368	1072.110
-24.809	32.550	1259.946	1070.607
-23.794	32.590	1259.205	1070.164
-22.779	32.537	1257.049	1067.986
-21.765	32.567	1256.606	1067.740
-20.750	32.697	1254.084	1066.288
-19.736	32.446	1254.194	1064.921
-18.721	32.434	1252.005	1062.954
-17.706	32.312	1252.162	1062.354
-16.692	32.214	1251.592	1061.276
-15.677	32.462	1248.968	1060.408
-14.663	32.057	1248.755	1057.900
-13.648	32.264	1246.337	1056.976
-12.633	32.144	1246.842	1056.685
-11.619	32.556	1245.223	1057.584
-10.604	32.449	1244.850	1056.626
-9.590	32.465	1243.903	1055.869
-8.575	32.193	1242.730	1053.308
-7.560	32.265	1241.535	1052.655
-6.546	32.830	1239.453	1054.005
-5.531	32.257	1240.560	1051.700
-4.517	32.206	1239.434	1050.420
-3.502	32.206	1238.738	1049.787
-2.487	32.257	1237.983	1049.394
-1.473	32.317	1233.551	1045.926
-0.458	30.657	1218.393	1023.908
0.556	28.225	1200.621	985.591
1.571	24.070	1205.644	967.108
2.586	23.286	1219.687	973.974
3.600	22.923	1207.609	962.266
4.615	16.895	1136.384	874.439
5.629	7.698	1061.663	772.361
6.644	3.617	1041.550	738.179
7.659	3.236	1040.075	735.249
8.673	2.993	1037.539	732.230
9.688	2.916	1037.615	731.852
10.702	3.584	1034.301	732.623
11.717	9.510	1042.997	767.017
12.731	19.069	1057.860	823.854
13.746	24.166	1062.500	851.836
14.761	24.665	1062.757	854.352
15.775	23.873	1062.210	850.051
16.790	23.689	1060.925	848.073
17.804	23.492	1060.061	846.365
18.819	23.539	1059.639	846.177
19.834	23.833	1057.990	846.189
20.848	23.401	1059.188	845.009
21.863	23.204	1058.528	843.469
22.877	23.446	1057.626	843.831
23.892	23.425	1057.213	843.324
24.907	23.548	1055.634	842.573
25.921	23.441	1055.122	841.584
26.936	23.337	1053.569	839.780
27.950	23.290	1052.108	838.314
28.965	23.189	1050.505	836.490
29.980	23.192	1049.706	835.792
30.994	23.575	1048.685	836.710
32.009	23.348	1048.083	835.088
33.023	23.570	1046.883	835.103
34.038	23.113	1046.330	832.435
35.053	22.954	1045.461	830.924
36.067	23.104	1045.227	831.370
37.082	23.265	1042.248	829.682
38.096	23.510	1042.779	831.179
39.111	23.406	1041.430	829.541
40.126	23.282	1040.495	828.147
41.140	22.797	1039.897	825.327
42.155	22.744	1038.080	823.568
43.169	22.963	1036.563	823.309
44.184	22.682	1035.676	821.226
45.199	22.756	1034.344	820.439
46.213	22.868	1034.049	820.652
47.228	23.571	1033.707	823.574
48.242	23.574	1033.059	822.997
49.257	23.268	1033.217	821.635
50.271	23.587	1031.590	821.742
51.286	23.826	1030.549	821.948
52.301	23.799	1029.913	821.241
53.315	23.807	1028.758	820.287
54.330	23.330	1028.586	817.875
55.344	23.087	1027.989	816.208
56.359	23.160	1026.417	815.222
57.374	23.291	1025.257	814.831
58.388	23.061	1024.419	813.038
59.403	22.792	1024.524	811.808
60.417	23.012	1022.934	811.490
61.432	23.152	1022.612	811.802
62.447	23.133	1020.568	810.022
63.461	23.007	1020.326	809.182
64.476	22.607	1021.465	808.179
65.490	22.825	1018.550	806.799
66.505	22.764	1019.111	806.893
67.520	22.908	1017.594	806.277
68.534	23.085	1015.525	805.373
69.549	22.575	1016.000	803.353
70.563	22.612	1013.951	801.830
71.578	22.114	1013.977	799.514
72.593	22.164	1012.927	798.846
73.607	22.334	1011.553	798.460
74.622	22.169	1012.380	798.294
75.636	22.679	1011.227	799.625
76.651	22.679	1010.162	798.716
77.666	22.681	1010.240	798.713
78.680	22.506	1009.595	797.340
79.695	22.292	1008.928	795.778
80.709	22.479	1008.903	796.530
81.724	22.648	1008.069	796.565
82.739	22.915	1006.912	796.787
83.753	23.660	1005.961	799.319
84.768	23.589	1006.724	799.532
85.782	23.979	1005.446	800.203
86.797	23.903	1004.240	798.831
87.812	23.658	1003.598	797.149
88.826	23.597	1002.448	795.894
89.841	23.777	1000.778	795.304
90.855	24.024	1000.777	796.337
91.870	23.909	999.566	794.787
92.884	23.856	999.066	794.084
93.899	23.453	998.221	791.545
94.914	23.632	997.187	791.452
95.928	23.723	996.125	790.945
96.943	23.565	995.001	789.276
97.957	23.237	995.514	788.155
98.972	23.442	993.756	787.604
99.987	23.759	992.981	788.326
101.001	23.621	991.588	786.543
102.016	23.711	989.721	785.387
103.030	23.852	989.695	785.923
104.045	23.671	989.994	785.289
105.060	23.721	988.416	784.190
106.074	23.615	987.463	782.897
107.089	23.128	986.844	780.188
108.103	22.990	986.073	778.900
109.118	23.152	983.224	777.295
110.133	22.859	982.878	775.665
111.147	22.759	982.312	774.708
112.162	22.827	980.540	773.542
113.176	22.617	981.528	773.333
114.191	22.971	980.241	773.799
115.206	22.625	978.783	771.067
116.220	22.556	978.634	770.582
117.235	22.430	977.438	769.021
118.249	22.448	976.893	768.602
119.264	22.480	975.393	767.495
120.279	22.663	974.285	767.351
121.293	22.483	972.620	765.187
122.308	22.466	972.861	765.236
123.322	22.014	973.308	763.553
124.337	22.462	970.760	763.430
125.352	22.366	969.714	762.126
126.366	22.607	968.917	762.475
127.381	22.659	969.067	762.751
128.395	22.868	968.186	762.894
129.410	22.821	966.970	761.662
130.424	23.103	966.870	762.735
131.439	23.191	966.278	762.578
132.454	23.128	965.168	761.363
133.468	22.949	963.896	759.525
134.483	22.957	963.864	759.464
135.497	22.986	963.642	759.348
136.512	23.482	962.606	760.593
137.527	23.216	961.472	758.491
138.541	23.138	960.432	757.269
139.556	23.070	960.138	756.680
140.570	23.401	959.152	757.252
141.585	23.466	959.321	757.593
142.600	23.955	957.491	758.166
143.614	23.762	957.541	757.317
144.629	24.342	955.934	758.445
145.643	23.640	955.493	755.042
146.658	23.662	953.866	753.783
147.673	23.600	952.019	751.995
148.687	23.320	951.281	750.161
149.702	23.229	950.482	749.081
150.716	22.914	949.608	746.991
151.731	23.261	948.748	747.713
152.746	23.516	948.652	748.649
153.760	23.691	947.892	748.722
154.775	23.949	947.024	749.058
155.789	23.654	946.694	747.488
156.804	23.838	945.220	747.031
157.819	23.942	944.064	746.488
158.833	23.835	944.058	745.968
159.848	23.802	943.935	745.666
160.862	23.940	941.770	744.469
161.877	23.387	941.752	742.073
162.892	23.146	940.616	740.103
163.906	23.198	939.080	739.046
164.921	22.985	938.571	737.692
165.935	23.109	938.069	737.751
166.950	23.036	938.328	737.584
167.964	23.163	936.685	736.754
168.979	23.444	934.317	735.995
169.994	23.236	934.011	734.825
171.008	23.413	933.442	735.048
172.023	23.616	933.496	735.864
173.037	23.750	931.881	735.081
174.052	23.827	930.963	734.611
175.067	23.514	929.969	732.469
176.081	23.002	929.868	730.212
177.096	22.657	929.475	728.413
178.110	22.715	928.206	727.592
179.125	22.946	928.523	728.730
180.140	22.854	927.827	727.739
181.154	23.206	928.283	729.483
182.169	23.408	926.883	729.148
183.183	23.527	926.597	729.352
184.198	23.857	925.686	729.925
185.213	23.437	925.306	727.837
186.227	23.372	924.548	726.908
187.242	23.983	923.464	728.495
188.256	23.897	923.384	728.014
189.271	23.626	922.216	725.921
190.286	23.387	922.159	724.836
191.300	22.792	920.265	720.851
192.315	22.163	919.812	717.864
193.329	22.384	918.523	717.697
194.344	22.755	918.807	719.367
195.359	23.420	918.106	721.463
196.373	23.841	917.356	722.522
197.388	23.709	918.050	722.469
198.402	23.844	917.710	722.686
199.417	24.094	917.039	723.110
200.432	24.345	915.751	723.046
201.446	23.822	916.944	721.802
202.461	24.178	915.757	722.244
203.475	23.791	914.384	719.532
204.490	23.221	912.732	715.864
205.504	23.225	913.758	716.622
206.519	23.290	912.985	716.217
207.534	23.371	912.176	715.843
208.548	23.772	910.591	716.155
209.563	23.509	911.033	715.378
210.577	24.035	908.826	715.699
211.592	23.786	910.698	716.103
212.607	24.403	908.441	716.747
213.621	24.375	907.596	715.904
214.636	23.958	907.169	713.830
215.650	23.534	906.972	711.910
216.665	24.109	905.447	712.954
217.680	23.887	905.076	711.709
218.694	23.826	904.839	711.219
219.709	23.929	902.634	709.834
220.723	23.680	902.400	708.591
221.738	23.879	901.052	708.262
222.753	23.749	900.917	707.577
223.767	23.647	901.424	707.505
224.782	23.989	901.292	708.701
225.796	23.936	900.768	708.015
226.811	23.769	899.179	706.042
227.826	23.459	898.590	704.284
228.840	23.219	898.109	702.891
229.855	23.349	897.236	702.663
230.869	23.363	896.364	701.972
231.884	23.530	895.814	702.142
232.899	23.232	896.137	701.151
233.913	23.348	895.119	700.754
234.928	23.146	894.183	699.159
235.942	23.086	892.951	697.897
236.957	23.005	892.715	697.330
237.972	23.095	892.368	697.354
238.986	23.146	891.055	696.469
240.001	22.775	891.318	695.149
241.015	23.156	890.368	695.844
242.030	22.960	890.669	695.248
243.045	23.308	889.642	695.753
244.059	23.529	888.535	695.693
245.074	23.753	888.523	696.501
246.088	23.598	888.160	695.547
247.103	24.016	887.645	696.717
248.117	24.317	887.922	698.051
249.132	24.731	888.307	699.915
250.147	24.928	887.621	700.081
251.161	24.794	886.925	698.948
252.176	24.723	886.622	698.370
253.190	24.723	885.714	697.592
254.205	25.051	884.980	698.230
255.220	25.005	883.724	696.998
256.234	24.583	883.941	695.464
257.249	24.872	882.152	695.120
258.263	24.217	882.184	692.539
259.278	24.487	881.226	692.772
260.293	24.503	881.487	692.978
261.307	24.525	880.075	691.895
262.322	25.066	879.980	693.852
263.336	24.592	878.892	691.099
264.351	24.399	877.731	689.381
265.366	23.903	878.780	688.224
266.380	24.370	878.169	689.491
267.395	24.372	876.437	688.078
268.409	24.477	875.614	687.776
269.424	24.731	875.111	688.295
270.439	24.335	874.758	686.433
271.453	24.206	874.313	685.528
272.468	24.494	872.889	685.459
273.482	24.661	871.469	684.920
274.497	24.443	871.889	684.354
275.512	24.112	871.964	683.083
276.526	24.406	871.683	683.930
277.541	24.536	871.716	684.393
278.555	24.761	869.993	683.840
279.570	25.351	868.148	684.580
280.585	25.219	868.960	684.658
281.599	24.673	867.447	681.323
282.614	24.444	866.200	679.414
283.628	24.256	866.647	678.987
284.643	24.115	866.859	678.557
285.657	24.390	865.455	678.442
286.672	24.146	865.235	677.284
287.687	24.430	864.283	677.554
288.701	24.647	864.209	678.259
289.716	24.475	863.398	676.911
290.730	24.637	862.301	676.606
291.745	24.513	861.557	675.491
292.760	24.992	861.302	677.045
293.774	25.050	860.678	676.712
294.789	25.154	860.091	676.585
295.803	24.633	859.795	674.327
296.818	24.507	859.514	673.568
297.833	24.130	858.887	671.597
298.847	24.444	857.501	671.639
299.862	24.678	856.343	671.548
300.876	25.196	856.809	673.802
301.891	25.350	857.023	674.491
302.906	24.959	857.043	672.974
303.920	25.037	856.672	672.919
304.935	25.173	855.405	672.375
305.949	25.028	854.835	671.324
306.964	24.712	853.867	669.321
307.979	24.542	852.628	667.653
308.993	24.377	854.130	668.153
310.008	24.832	853.003	668.914
311.022	24.842	852.071	668.161
312.037	24.730	851.897	667.546
313.052	24.468	850.296	665.259
314.066	24.039	848.899	662.511
315.081	24.478	848.437	663.723
316.095	24.446	848.556	663.638
317.110	24.378	847.832	662.761
318.125	24.430	845.925	661.402
319.139	23.905	846.646	659.962
320.154	23.816	845.885	658.981
321.168	24.212	845.406	660.016
322.183	24.643	844.762	661.048
323.197	24.457	844.935	660.439
324.212	24.142	845.112	659.353
325.227	24.484	843.422	659.237
326.241	24.129	843.354	657.817
327.256	24.552	841.664	657.997
328.270	24.074	841.289	655.886
329.285	23.932	841.693	655.619
330.300	23.759	840.882	654.294
331.314	24.149	840.421	655.312
332.329	24.615	839.190	656.005
333.343	24.554	839.042	655.606
334.358	24.576	838.660	655.332
335.373	24.452	838.789	654.918
336.387	24.703	838.842	655.824
337.402	24.869	838.710	656.272
338.416	25.054	838.412	656.659
339.431	25.498	838.136	658.009
340.446	25.482	837.529	657.417
341.460	25.295	837.258	656.460
342.475	25.640	836.802	657.307
343.489	25.545	836.286	656.494
344.504	25.608	835.942	656.396
345.519	25.548	835.790	656.000
346.533	25.486	834.737	654.892
347.548	25.419	834.754	654.600
348.562	25.286	834.231	653.651
349.577	25.166	833.360	652.471
350.592	24.917	832.770	651.048
351.606	25.008	831.001	649.939
352.621	24.749	831.595	649.402
353.635	24.790	830.319	648.497
354.650	24.890	828.792	647.611
355.665	24.546	828.610	646.165
356.679	24.939	828.035	647.083
357.694	25.036	826.920	646.505
358.708	25.020	826.518	646.076
359.723	24.743	825.871	644.514
360.738	24.603	825.560	643.708
361.752	24.942	825.515	644.839
362.767	25.262	825.101	645.610
363.781	25.705	823.997	646.278
364.796	25.594	823.701	645.590
365.810	25.746	824.127	646.414
366.825	25.443	824.205	645.331
367.840	25.735	822.716	645.153
368.854	25.780	821.779	644.523
369.869	25.217	821.938	642.574
370.883	25.313	821.372	642.419
371.898	25.585	820.562	642.700
372.913	25.875	820.464	643.601
373.927	25.362	819.423	640.899
374.942	25.505	819.297	641.251
375.956	25.370	819.858	641.155
376.971	25.799	818.683	641.708
377.986	25.694	818.557	641.179
379.000	25.999	817.168	641.116
380.015	25.661	816.840	639.602
381.029	25.684	816.710	639.527
382.044	25.766	816.495	639.591
383.059	25.951	815.655	639.533
384.073	25.686	814.902	637.945
385.088	25.473	813.996	636.425
386.102	25.280	812.852	634.793
387.117	24.884	812.593	633.137
388.132	24.983	812.756	633.556
389.146	25.168	811.610	633.262
390.161	25.314	811.747	633.826
391.175	25.321	811.888	633.906
392.190	25.318	811.128	633.245
393.205	24.931	809.776	630.770
394.219	24.696	808.097	628.581
395.234	24.668	807.769	628.172
396.248	24.750	808.731	629.152
397.263	24.881	808.135	629.092
398.278	24.654	807.584	627.811
399.292	24.445	807.440	626.912
400.307	24.457	806.565	626.216
401.321	24.544	805.743	625.830
402.336	24.875	805.335	626.618
403.350	25.284	805.369	628.017
404.365	25.549	805.484	628.980
405.380	25.880	805.143	629.813
406.394	25.991	805.268	630.246
407.409	26.272	803.878	630.081
408.423	26.179	804.487	630.178
409.438	26.372	803.277	629.848
410.453	26.201	802.386	628.497
411.467	26.053	802.199	627.780
412.482	26.061	802.332	627.855
413.496	26.268	801.934	628.211
414.511	25.775	801.738	626.285
415.526	25.555	801.700	625.435
416.540	25.821	800.025	624.996
417.555	26.073	799.417	625.341
418.569	26.086	799.519	625.410
419.584	25.941	799.161	624.571
420.599	26.296	798.445	625.187
421.613	161.220	1370.592	1795.479
422.628	139.930	1453.933	1795.591
