DTS Sentinel unit serial number:	SN413079Multiplexer serial number:	ORYXHardware model number:	OX4-SRSoftware version number:	ORYX F/W v4.00 Oryx Data Collector v3.7.2.0data status	okinstallation	princeton_trtdifferential loss correction	single-endedforward channel	channel 1reverse channel	N/Adate	2019/09/16time	11:42:35forward acquisition time	60.00reverse acquisition time	0.00gamma	496.2192k internal	0.2296k external	0.2296temperature offset calibration	0.9967default loss term (dB/km)	0.3790temperature slope calibration	1.0000multiplexer offset coefficient	1.0000multiplexer slope coefficient	1.0000fibre end	0.00T internal ref (°C)	38.02T ext. ref 1 (°C)	13.02T ext. ref 2 (°C)	35.22length (m)	temperature (°C)	Stokes	anti-Stokes-747.200	-200.000	0.026	0.212
-746.185	112.640	0.131	0.162
-745.171	288.058	-0.244	-0.452
-744.156	34.652	0.134	0.120
-743.142	-92.336	-0.230	-0.066
-742.127	-53.048	0.203	-0.095
-741.112	-41.873	0.129	-0.068
-740.098	4.689	0.206	-0.154
-739.083	-200.000	-0.031	0.187
-738.069	-2.509	-0.243	0.174
-737.054	-109.208	-0.313	-0.068
-736.039	-138.046	-0.238	-0.027
-735.025	-127.477	0.055	0.008
-734.010	4.577	-0.152	0.114
-732.996	-11.891	-0.258	-0.173
-731.981	-88.456	-0.236	0.072
-730.966	594.768	0.163	-0.411
-729.952	800.000	0.013	0.043
-728.937	800.000	-0.055	-0.245
-727.923	-87.463	-0.235	0.073
-726.908	12.512	0.047	0.037
-725.894	-31.937	0.195	-0.111
-724.879	-40.385	-0.051	-0.027
-723.864	800.000	-0.050	-0.141
-722.850	-148.488	0.485	0.041
-721.835	-41.259	0.139	-0.073
-720.821	652.961	0.083	-0.218
-719.806	291.545	-0.166	-0.308
-718.791	-38.963	-0.040	-0.021
-717.777	-5.534	-0.163	-0.114
-716.762	5.364	-0.286	-0.216
-715.748	-105.526	0.394	-0.091
-714.733	22.639	0.130	-0.108
-713.718	546.174	0.093	0.227
-712.704	25.990	0.275	-0.234
-711.689	-94.687	-0.307	-0.085
-710.675	-22.523	0.255	-0.157
-709.660	-140.828	-0.262	-0.028
-708.645	71.025	0.034	-0.036
-707.631	-200.000	0.017	-0.352
-706.616	-200.000	-0.052	-0.262
-705.602	381.921	-0.094	0.197
-704.587	-200.000	-0.034	0.191
-703.572	287.748	-0.067	0.123
-702.558	281.058	-0.130	0.238
-701.543	-200.000	-0.025	-0.359
-700.529	71.718	-0.016	0.017
-699.514	-129.917	0.320	0.045
-698.499	76.422	0.013	-0.015
-697.485	-172.125	-0.094	0.003
-696.470	-187.420	-0.316	-0.004
-695.456	-109.990	-0.038	-0.008
-694.441	-39.921	-0.158	-0.084
-693.426	417.601	0.101	-0.219
-692.412	-15.659	0.108	-0.070
-691.397	-123.036	0.132	0.022
-690.383	45.885	-0.045	0.043
-689.368	89.359	0.069	-0.078
-688.354	-84.711	-0.084	-0.027
-687.339	402.238	-0.058	0.124
-686.324	-200.000	-0.002	0.102
-685.310	358.965	-0.045	-0.092
-684.295	-135.548	0.075	-0.009
-683.281	-200.000	0.026	-0.131
-682.266	-130.040	-0.128	0.018
-681.251	-178.838	0.168	-0.004
-680.237	-7.086	-0.216	-0.149
-679.222	-200.000	-0.030	-0.165
-678.208	-200.000	0.012	-0.254
-677.193	-7.861	0.100	0.069
-676.178	-200.000	0.037	-0.172
-675.164	-2.788	-0.489	0.349
-674.149	-113.507	0.254	-0.051
-673.135	-26.532	0.058	0.034
-672.120	12.868	0.215	0.169
-671.105	-200.000	-0.060	-0.270
-670.091	-200.000	0.014	0.123
-669.076	647.525	0.034	-0.089
-668.062	275.899	-0.172	0.312
-667.047	12.648	0.156	0.123
-666.032	800.000	0.145	-0.571
-665.018	-5.553	-0.295	-0.206
-664.003	800.000	0.074	-0.249
-662.989	-21.993	0.195	0.121
-661.974	40.865	-0.149	0.137
-660.959	63.150	-0.085	0.087
-659.945	800.000	-0.058	0.189
-658.930	324.080	-0.136	0.265
-657.916	21.786	-0.217	0.180
-656.901	-58.034	-0.070	0.031
-655.886	-200.000	0.002	-0.219
-654.872	-109.314	0.279	-0.060
-653.857	27.475	-0.093	0.080
-652.843	-63.975	-0.095	0.040
-651.828	8.120	0.114	-0.087
-650.814	-101.208	-0.207	-0.051
-649.799	800.000	-0.058	0.183
-648.784	-200.000	0.008	-0.111
-647.770	69.572	0.148	-0.155
-646.755	467.628	0.081	0.185
-645.741	39.591	0.130	-0.119
-644.726	-127.253	-0.182	-0.027
-643.711	-200.000	0.053	0.387
-642.697	-200.000	-0.047	0.287
-641.682	384.485	0.010	-0.021
-640.668	113.119	-0.135	-0.167
-639.653	-200.000	-0.043	0.201
-638.638	-74.235	-0.158	-0.058
-637.624	21.949	-0.161	0.133
-636.609	428.215	-0.034	-0.075
-635.595	125.554	0.085	-0.109
-634.580	214.600	-0.201	0.323
-633.565	222.004	-0.103	0.169
-632.551	-200.000	0.034	-0.281
-631.536	-69.518	-0.146	0.057
-630.522	99.513	-0.129	0.152
-629.507	-44.723	-0.243	0.123
-628.492	-75.507	0.086	-0.031
-627.478	-60.288	0.377	0.163
-626.463	800.000	0.046	0.191
-625.449	-49.705	-0.123	-0.060
-624.434	-76.436	0.146	0.052
-623.419	482.891	-0.194	0.449
-622.405	250.501	-0.192	0.332
-621.390	-140.155	0.236	-0.025
-620.376	681.634	0.038	0.100
-619.361	-120.745	-0.274	-0.047
-618.346	22.039	0.065	-0.054
-617.332	-33.781	-0.214	0.120
-616.317	590.717	-0.120	0.300
-615.303	-120.284	0.139	-0.024
-614.288	-200.000	0.022	-0.154
-613.273	89.397	0.144	-0.163
-612.259	50.617	0.156	-0.150
-611.244	138.102	-0.066	-0.089
-610.230	766.151	0.064	-0.177
-609.215	-200.000	-0.023	-0.173
-608.201	-200.000	0.001	-0.072
-607.186	120.361	0.121	-0.153
-606.171	235.682	0.055	-0.093
-605.157	56.516	-0.079	-0.079
-604.142	-13.387	-0.232	0.153
-603.128	-200.000	-0.010	0.178
-602.113	276.197	0.155	0.280
-601.098	-112.730	-0.202	-0.041
-600.084	-106.971	-0.318	-0.071
-599.069	-200.000	-0.001	0.171
-598.055	-61.236	0.071	0.030
-597.040	1.090	0.347	-0.253
-596.025	-84.450	0.120	0.039
-595.011	1.632	0.179	-0.131
-593.996	45.095	0.349	-0.326
-592.982	34.726	0.029	0.026
-591.967	-121.508	-0.063	0.011
-590.952	-84.309	-0.197	-0.063
-589.938	800.000	-0.057	-0.225
-588.923	-25.731	0.026	0.015
-587.909	-1.985	-0.168	0.120
-586.894	-136.974	0.223	-0.026
-585.879	288.851	0.075	-0.139
-584.865	-178.553	0.089	-0.002
-583.850	-13.000	0.345	0.228
-582.836	-53.380	-0.373	0.174
-581.821	-129.143	-0.146	-0.021
-580.806	800.000	-0.009	0.032
-579.792	-200.000	0.026	0.144
-578.777	-200.000	-0.048	0.504
-577.763	29.759	0.110	0.095
-576.748	800.000	-0.056	-0.177
-575.733	-163.214	0.176	0.009
-574.719	243.268	0.174	-0.297
-573.704	-2.375	0.143	0.102
-572.690	800.000	-0.088	0.268
-571.675	-21.907	0.038	-0.024
-570.661	17.908	-0.113	-0.092
-569.646	-129.166	0.203	0.029
-568.631	358.031	-0.032	-0.065
-567.617	-200.000	0.058	-0.304
-566.602	-66.203	0.386	0.156
-565.588	-112.546	-0.316	-0.064
-564.573	512.631	-0.089	0.209
-563.558	56.150	0.190	-0.187
-562.544	-62.101	-0.187	0.079
-561.529	-200.000	0.023	0.176
-560.515	-88.761	-0.180	-0.054
-559.500	489.033	0.094	0.219
-558.485	699.733	0.059	-0.158
-557.471	-54.574	0.105	-0.048
-556.456	-175.950	-0.275	0.007
-555.442	-55.269	-0.254	-0.116
-554.427	-86.373	0.234	0.073
-553.412	525.587	-0.105	-0.250
-552.398	800.000	0.094	-0.264
-551.383	-1.118	0.288	-0.207
-550.369	137.217	0.257	-0.341
-549.354	248.548	-0.019	0.033
-548.339	280.897	-0.143	0.260
-547.325	40.826	-0.353	-0.323
-546.310	-41.454	0.334	-0.174
-545.296	26.841	0.245	0.208
-544.281	140.551	0.138	0.185
-543.266	-103.280	0.076	-0.018
-542.252	59.959	-0.175	-0.175
-541.237	-5.020	-0.124	0.086
-540.223	-46.058	-0.191	-0.095
-539.208	-57.218	0.267	0.119
-538.193	-58.365	-0.261	-0.115
-537.179	-156.744	0.265	0.017
-536.164	-200.000	-0.113	0.553
-535.150	-200.000	-0.037	-0.273
-534.135	109.353	-0.061	0.074
-533.121	274.216	-0.066	-0.118
-532.106	-200.000	-0.017	-0.085
-531.091	-200.000	-0.021	-0.130
-530.077	299.045	-0.088	-0.163
-529.062	-175.008	-0.130	0.004
-528.048	473.749	0.142	-0.325
-527.033	-200.000	-0.020	0.124
-526.018	53.613	0.160	-0.155
-525.004	-0.131	-0.035	-0.026
-523.989	254.004	0.063	-0.110
-522.975	-117.238	0.252	-0.046
-521.960	800.000	-0.043	0.137
-520.945	-200.000	0.002	0.054
-519.931	800.000	0.090	-0.352
-518.916	-18.672	-0.244	-0.154
-517.902	-200.000	-0.004	-0.077
-516.887	73.906	-0.264	0.280
-515.872	116.880	0.076	0.095
-514.858	682.284	0.113	0.298
-513.843	-35.749	-0.219	-0.120
-512.829	800.000	0.015	0.064
-511.814	-135.182	-0.202	-0.025
-510.799	-200.000	0.023	-0.311
-509.785	29.472	-0.356	-0.306
-508.770	68.328	-0.140	-0.145
-507.756	-193.128	-0.150	-0.001
-506.741	48.091	0.133	-0.126
-505.726	-200.000	0.010	0.151
-504.712	-200.000	0.007	-0.146
-503.697	24.481	0.263	-0.220
-502.683	-33.912	-0.107	-0.060
-501.668	460.319	0.124	-0.281
-500.653	110.731	-0.097	-0.118
-499.639	10.813	0.066	0.051
-498.624	278.973	0.168	0.304
-497.610	76.214	-0.234	0.250
-496.595	-57.132	-0.202	-0.090
-495.581	-124.831	-0.047	0.007
-494.566	312.076	0.165	-0.313
-493.551	800.000	0.075	-0.254
-492.537	-143.386	0.250	-0.024
-491.522	176.143	-0.205	-0.301
-490.508	53.603	0.045	-0.044
-489.493	-54.444	0.069	-0.032
-488.478	800.000	0.032	0.117
-487.464	-200.000	-0.023	-0.200
-486.449	40.358	0.122	0.111
-485.435	141.958	0.159	0.214
-484.420	-18.178	0.395	-0.250
-483.405	-66.907	0.207	0.083
-482.391	-135.090	0.226	-0.028
-481.376	117.937	0.041	0.051
-480.362	-57.528	-0.284	-0.126
-479.347	-89.364	-0.548	-0.163
-478.332	-200.000	0.027	-0.438
-477.318	-197.054	0.179	0.001
-476.303	-72.709	-0.347	0.129
-475.289	63.223	0.070	-0.071
-474.274	79.885	0.029	0.031
-473.259	10.484	0.251	0.193
-472.245	-12.207	0.214	0.142
-471.230	800.000	-0.106	0.328
-470.216	-166.399	-0.193	-0.008
-469.201	-49.628	-0.173	-0.083
-468.186	-83.302	-0.139	0.045
-467.172	517.236	0.046	-0.109
-466.157	800.000	-0.026	0.104
-465.143	174.619	0.201	-0.294
-464.128	-141.255	0.134	0.014
-463.113	-26.299	0.252	0.150
-462.099	-200.000	0.001	0.024
-461.084	47.773	-0.105	-0.100
-460.070	-183.339	0.196	-0.003
-459.055	-200.000	-0.001	0.072
-458.040	800.000	-0.095	0.389
-457.026	-85.817	0.350	-0.110
-456.011	308.689	0.083	-0.156
-454.997	32.215	-0.073	0.064
-453.982	111.511	-0.110	0.134
-452.968	39.794	0.299	0.271
-451.953	-150.955	0.323	0.025
-450.938	364.663	-0.141	-0.287
-449.924	256.577	-0.089	0.155
-448.909	25.039	-0.033	-0.028
-447.895	45.708	-0.120	-0.112
-446.880	-44.667	-0.400	-0.202
-445.865	237.484	-0.202	-0.338
-444.851	-12.199	0.234	-0.154
-443.836	-200.000	0.019	-0.162
-442.822	700.923	-0.040	0.106
-441.807	-200.000	0.055	-0.245
-440.792	800.000	0.016	0.055
-439.778	48.742	0.137	-0.130
-438.763	12.067	-0.343	0.267
-437.749	442.738	-0.125	0.277
-436.734	-46.725	0.312	-0.154
-435.719	-200.000	0.043	-0.351
-434.705	-89.038	0.334	-0.100
-433.690	-200.000	-0.058	-0.263
-432.676	681.585	0.049	-0.129
-431.661	41.141	0.092	0.084
-430.646	46.944	0.230	0.215
-429.632	-200.000	-0.046	-0.308
-428.617	-200.000	-0.061	-0.352
-427.603	187.301	-0.105	0.159
-426.588	-73.520	-0.363	-0.134
-425.573	16.870	0.128	-0.102
-424.559	-200.000	-0.003	0.026
-423.544	164.797	0.143	-0.203
-422.530	-47.118	-0.211	-0.104
-421.515	-200.000	-0.009	0.247
-420.500	-200.000	-0.003	0.075
-419.486	-200.000	-0.004	0.083
-418.471	-94.458	-0.147	0.040
-417.457	-27.252	-0.215	-0.126
-416.442	50.731	0.118	-0.113
-415.428	-200.000	0.006	-0.070
-414.413	-79.873	-0.130	0.044
-413.398	-13.562	-0.170	-0.111
-412.384	-200.000	-0.035	-0.433
-411.369	195.561	-0.144	0.221
-410.355	3.986	0.297	-0.219
-409.340	80.120	-0.292	0.317
-408.325	800.000	-0.070	0.229
-407.311	-2.195	-0.235	0.167
-406.296	36.738	-0.222	-0.198
-405.282	-37.708	0.137	0.074
-404.267	-12.927	-0.159	-0.104
-403.252	-200.000	0.021	-0.224
-402.238	-200.000	-0.014	0.169
-401.223	-28.026	-0.016	0.010
-400.209	-68.932	-0.089	0.035
-399.194	139.118	0.181	-0.240
-398.179	689.443	0.174	-0.458
-397.165	45.661	0.081	0.076
-396.150	4.470	-0.141	-0.105
-395.136	72.926	-0.053	0.055
-394.121	343.564	-0.034	0.067
-393.106	238.809	0.102	-0.171
-392.092	-91.738	0.191	-0.055
-391.077	-200.000	0.006	0.163
-390.063	163.370	-0.052	-0.074
-389.048	656.640	-0.099	0.257
-388.033	105.851	0.144	-0.172
-387.019	20.396	0.083	0.067
-386.004	-29.649	0.076	0.044
-384.990	800.000	-0.110	-0.467
-383.975	-200.000	-0.013	-0.236
-382.960	397.410	0.114	-0.241
-381.946	800.000	0.102	-0.374
-380.931	-200.000	-0.032	0.145
-379.917	6.797	0.228	-0.171
-378.902	-86.819	-0.182	-0.056
-377.888	-36.272	0.213	-0.116
-376.873	357.305	0.132	-0.265
-375.858	-200.000	-0.096	0.490
-374.844	-47.204	-0.045	0.022
-373.829	21.756	0.091	0.075
-372.815	338.357	0.153	-0.301
-371.800	-75.787	0.266	0.095
-370.785	-11.576	-0.250	0.166
-369.771	314.837	0.059	0.112
-368.756	-111.926	-0.391	0.080
-367.742	593.487	0.074	0.184
-366.727	203.081	0.169	0.262
-365.712	-90.110	-0.437	0.128
-364.698	235.412	-0.062	-0.103
-363.683	33.623	0.217	-0.190
-362.669	246.664	0.098	0.167
-361.654	23.884	0.052	-0.043
-360.639	-79.587	0.292	0.099
-359.625	-143.948	-0.459	0.043
-358.610	-101.373	0.067	0.016
-357.596	800.000	0.046	-0.173
-356.581	-200.000	0.002	-0.141
-355.566	800.000	0.047	-0.133
-354.552	75.395	-0.169	0.180
-353.537	-200.000	-0.035	0.405
-352.523	-31.839	0.236	0.133
-351.508	-78.040	-0.272	-0.094
-350.493	20.978	0.308	-0.251
-349.479	800.000	-0.153	0.439
-348.464	-36.136	-0.268	-0.146
-347.450	-105.280	0.197	-0.045
-346.435	-142.488	-0.216	0.021
-345.420	31.226	-0.176	0.152
-344.406	-200.000	-0.050	0.305
-343.391	299.471	0.217	0.402
-342.377	14.435	0.109	-0.086
-341.362	-102.354	-0.313	-0.075
-340.348	800.000	-0.011	0.040
-339.333	-200.000	-0.020	0.128
-338.318	-160.487	-0.156	0.008
-337.304	57.504	-0.243	0.239
-336.289	-68.422	0.425	0.166
-335.275	-117.905	-0.037	-0.007
-334.260	-200.000	0.033	-0.155
-333.245	290.893	-0.129	-0.236
-332.231	68.698	0.152	0.156
-331.216	352.917	0.044	0.088
-330.202	-51.012	-0.173	0.082
-329.187	-200.000	0.037	-0.230
-328.172	-74.212	-0.130	-0.047
-327.158	0.779	-0.061	0.044
-326.143	-15.116	-0.212	0.136
-325.129	-155.925	0.292	0.019
-324.114	-26.925	0.115	-0.067
-323.099	-200.000	0.044	0.294
-322.085	-116.916	-0.446	0.082
-321.070	33.991	-0.134	-0.117
-320.056	-200.000	-0.014	0.118
-319.041	-19.197	0.340	0.212
-318.026	-200.000	0.015	-0.141
-317.012	-200.000	-0.008	-0.362
-315.997	800.000	0.042	0.118
-314.983	-122.392	-0.111	0.018
-313.968	-73.182	0.308	-0.113
-312.953	-173.873	0.245	-0.007
-311.939	97.826	0.142	0.164
-310.924	-200.000	-0.001	0.151
-309.910	509.861	0.122	0.285
-308.895	-44.894	-0.061	0.030
-307.880	242.329	0.098	0.166
-306.866	-114.889	-0.265	-0.051
-305.851	-83.653	-0.314	0.101
-304.837	-65.487	0.330	0.133
-303.822	800.000	0.091	0.346
-302.807	800.000	0.071	-0.242
-301.793	-71.815	-0.363	-0.136
-300.778	-200.000	0.042	-0.207
-299.764	-14.740	0.120	-0.077
-298.749	154.318	0.170	0.234
-297.735	-60.177	0.113	0.049
-296.720	-200.000	-0.041	0.388
-295.705	209.029	-0.164	0.258
-294.691	131.180	0.182	-0.234
-293.676	142.428	-0.142	-0.189
-292.662	-183.303	0.160	0.003
-291.647	-200.000	-0.036	0.163
-290.632	-200.000	0.030	0.454
-289.618	428.187	0.144	0.313
-288.603	32.560	-0.048	0.041
-287.589	800.000	0.022	0.089
-286.574	800.000	0.033	-0.110
-285.559	-38.991	0.161	-0.085
-284.545	-88.983	-0.153	-0.046
-283.530	187.303	-0.228	0.342
-282.516	-93.694	-0.232	0.064
-281.501	-87.971	-0.167	-0.050
-280.486	800.000	0.051	0.184
-279.472	-57.675	-0.238	-0.104
-278.457	-200.000	0.008	-0.338
-277.443	-69.937	-0.257	0.098
-276.428	170.217	0.239	-0.343
-275.413	-200.000	-0.013	-0.078
-274.399	-200.000	0.001	-0.038
-273.384	-38.795	-0.395	0.209
-272.370	-47.169	-0.228	0.112
-271.355	32.459	-0.105	-0.091
-270.340	87.847	-0.037	-0.041
-269.326	287.441	-0.150	0.272
-268.311	200.470	-0.079	-0.123
-267.297	-38.303	-0.077	-0.041
-266.282	-131.920	-0.143	-0.019
-265.267	-200.000	0.047	0.247
-264.253	800.000	0.111	0.361
-263.238	263.745	-0.141	0.247
-262.224	800.000	0.076	0.218
-261.209	-134.533	-0.199	-0.024
-260.195	-200.000	0.055	0.291
-259.180	-175.497	-0.361	-0.010
-258.165	95.291	0.081	0.093
-257.151	55.027	0.207	-0.200
-256.136	96.665	0.211	-0.242
-255.122	-200.000	0.045	-0.199
-254.107	800.000	-0.087	0.247
-253.092	-147.946	-0.139	-0.012
-252.078	-16.823	0.192	-0.121
-251.063	-200.000	-0.054	-0.507
-250.049	62.041	-0.281	-0.281
-249.034	215.339	-0.190	0.302
-248.019	17.861	0.092	0.073
-247.005	-71.467	-0.013	0.005
-245.990	188.341	-0.184	0.275
-244.976	-20.634	-0.289	-0.178
-243.961	99.699	-0.113	-0.131
-242.946	54.993	0.036	-0.035
-241.932	643.048	-0.042	0.106
-240.917	15.030	-0.053	-0.041
-239.903	-44.746	0.092	0.046
-238.888	51.125	-0.039	0.038
-237.873	-44.443	-0.134	0.067
-236.859	-200.000	0.037	-0.179
-235.844	-75.542	0.125	0.044
-234.830	-200.000	0.010	0.095
-233.815	108.503	0.037	-0.045
-232.800	123.076	0.093	0.117
-231.786	-200.000	0.006	0.091
-230.771	725.749	0.052	-0.138
-229.757	69.773	-0.131	0.135
-228.742	120.066	0.110	0.137
-227.727	111.827	-0.100	0.121
-226.713	-100.015	0.204	0.051
-225.698	31.972	-0.065	0.056
-224.684	-62.445	-0.234	0.097
-223.669	-49.244	0.016	-0.007
-222.655	47.238	0.293	0.273
-221.640	393.714	0.062	0.129
-220.625	-200.000	0.055	-0.314
-219.611	-200.000	-0.005	-0.094
-218.596	-70.553	-0.382	-0.145
-217.582	-200.000	-0.041	-0.209
-216.567	-105.433	0.406	-0.092
-215.552	152.421	0.094	-0.128
-214.538	800.000	0.124	0.365
-213.523	-91.404	-0.324	0.093
-212.509	-79.616	0.282	-0.095
-211.494	-114.057	0.132	0.026
-210.479	-44.900	-0.255	0.127
-209.465	-200.000	-0.010	0.282
-208.450	-200.000	0.038	0.197
-207.436	66.443	0.038	-0.038
-206.421	310.638	-0.047	-0.087
-205.406	-200.000	0.002	-0.135
-204.392	-200.000	0.002	0.145
-203.377	85.316	0.179	-0.196
-202.363	231.501	0.073	-0.120
-201.348	2.892	-0.223	0.162
-200.333	-200.000	0.019	0.091
-199.319	800.000	-0.042	0.137
-198.304	412.529	-0.049	-0.104
-197.290	-11.458	0.195	0.128
-196.275	-30.841	-0.023	0.013
-195.260	-19.638	0.193	0.119
-194.246	-200.000	0.004	-0.130
-193.231	-143.556	0.201	-0.019
-192.217	103.626	0.115	0.135
-191.202	-17.969	0.063	0.040
-190.187	-100.246	-0.122	0.030
-189.173	9.591	-0.170	-0.129
-188.158	-72.658	0.339	-0.125
-187.144	299.282	-0.102	-0.188
-186.129	-200.000	-0.033	-0.233
-185.114	502.684	0.075	0.173
-184.100	-200.000	0.045	-0.228
-183.085	-200.000	0.036	-0.205
-182.071	431.423	0.234	-0.506
-181.056	-86.385	0.050	0.015
-180.042	-200.000	-0.034	-0.193
-179.027	800.000	-0.039	0.147
-178.012	-53.031	0.155	-0.071
-176.998	-200.000	-0.025	0.277
-175.983	-200.000	-0.063	0.322
-174.969	-150.321	-0.100	0.008
-173.954	-93.538	0.165	-0.045
-172.939	-200.000	0.051	0.310
-171.925	27.993	0.183	0.154
-170.910	161.280	-0.131	0.183
-169.896	72.776	0.121	-0.126
-168.881	-200.000	-0.023	-0.253
-167.866	83.486	-0.012	-0.013
-166.852	-42.158	0.113	-0.057
-165.837	319.086	0.016	0.030
-164.823	-76.011	-0.349	0.123
-163.808	46.488	0.267	-0.248
-162.793	-49.319	0.318	0.151
-161.779	270.266	-0.074	0.130
-160.764	-200.000	0.009	-0.228
-159.750	69.612	0.039	0.040
-158.735	194.483	-0.059	-0.089
-157.720	-67.462	0.287	0.113
-156.706	26.250	0.104	-0.086
-155.691	-146.050	0.136	0.012
-154.677	-86.129	0.341	-0.105
-153.662	-174.859	0.131	0.004
-152.647	-64.265	-0.273	0.111
-151.633	-6.166	-0.297	0.203
-150.618	159.694	-0.083	0.116
-149.604	-200.000	0.054	0.250
-148.589	-185.051	0.172	-0.003
-147.574	-139.059	0.200	-0.022
-146.560	254.423	0.252	-0.431
-145.545	-18.316	-0.185	-0.115
-144.531	-149.019	-0.257	-0.021
-143.516	-134.257	-0.312	-0.038
-142.502	-27.739	-0.050	-0.029
-141.487	59.958	0.184	0.182
-140.472	-48.032	0.085	0.041
-139.458	-102.865	0.216	0.051
-138.443	-31.507	0.165	-0.093
-137.429	-200.000	-0.029	0.164
-136.414	800.000	0.077	0.238
-135.399	-90.557	-0.305	0.088
-134.385	-200.000	0.068	0.405
-133.370	127.962	0.089	0.113
-132.356	-104.983	-0.163	0.037
-131.341	66.343	-0.244	-0.247
-130.326	-87.963	-0.062	-0.019
-129.312	208.288	0.071	-0.111
-128.297	-70.626	-0.168	0.063
-127.283	-200.000	-0.035	0.267
-126.268	484.175	0.091	-0.206
-125.253	328.137	-0.065	0.124
-124.239	286.628	0.273	-0.491
-123.224	496.499	0.047	-0.108
-122.210	-118.960	-0.280	-0.049
-121.195	318.510	0.275	0.519
-120.180	398.676	-0.145	-0.302
-119.166	19.333	-0.259	-0.207
-118.151	-23.687	0.158	-0.095
-117.137	-106.924	0.168	0.037
-116.122	-20.818	-0.117	-0.071
-115.107	420.729	0.027	0.057
-114.093	74.123	0.175	0.184
-113.078	15.623	0.348	0.273
-112.064	327.488	0.103	0.196
-111.049	176.782	0.161	-0.234
-110.034	26.051	-0.285	-0.237
-109.020	800.000	0.055	-0.163
-108.005	313.498	-0.116	0.217
-106.991	207.200	0.143	0.223
-105.976	-184.148	-0.118	-0.002
-104.962	-200.000	0.021	-0.160
-103.947	174.087	0.080	0.115
-102.932	-65.883	0.728	-0.290
-101.918	36.982	-0.065	-0.058
-100.903	-62.589	0.087	-0.036
-99.889	-28.834	-0.102	-0.058
-98.874	164.008	0.098	-0.138
-97.859	254.131	0.020	0.034
-96.845	-13.513	0.201	0.130
-95.830	67.928	0.104	-0.106
-94.816	-200.000	-0.037	-0.224
-93.801	111.903	0.277	-0.334
-92.786	25.007	0.067	-0.056
-91.772	96.003	-0.021	0.024
-90.757	-36.343	0.234	0.126
-89.743	222.960	-0.176	0.283
-88.728	-200.000	-0.054	-0.529
-87.713	800.000	-0.051	-0.202
-86.699	48.643	0.170	-0.158
-85.684	-57.790	-0.138	0.060
-84.670	-101.490	0.208	-0.051
-83.655	-200.000	-0.023	-0.241
-82.640	-200.000	0.204	0.001
-81.626	-144.999	0.366	-0.033
-80.611	-25.987	0.126	0.074
-79.597	-200.000	-0.048	-0.300
-78.582	-200.000	-0.021	0.152
-77.567	-200.000	0.024	-0.195
-76.553	346.531	0.122	-0.239
-75.538	-200.000	-0.029	0.517
-74.524	-199.295	-0.177	-0.001
-73.509	415.857	0.083	-0.176
-72.494	633.143	0.020	-0.050
-71.480	-64.994	0.128	-0.051
-70.465	16.491	-0.167	-0.131
-69.451	-64.834	-0.381	0.153
-68.436	317.468	0.079	0.148
-67.422	-195.086	0.528	0.004
-66.407	423.797	0.049	-0.105
-65.392	-200.000	-0.064	0.447
-64.378	59.552	0.185	0.182
-63.363	68.972	0.253	0.259
-62.349	414.515	0.076	-0.162
-61.334	-99.662	-1.045	-0.261
-60.319	183.763	0.347	0.511
-59.305	-200.000	-0.045	-0.938
-58.290	94.426	0.738	0.834
-57.276	373.095	0.788	1.594
-56.261	-200.000	83.462	504.343
-55.246	458.716	1386.858	3068.569
-54.232	142.291	2619.395	3457.873
-53.217	109.124	2259.287	2688.775
-52.203	48.646	1700.070	1585.199
-51.188	41.346	1427.205	1283.928
-50.173	38.011	1383.332	1223.545
-49.159	56.380	1424.475	1377.009
-48.144	60.992	1443.279	1424.431
-47.130	41.874	1402.243	1264.615
-46.115	38.062	1384.853	1225.014
-45.100	37.974	1379.574	1219.745
-44.086	37.849	1377.108	1216.736
-43.071	37.791	1374.979	1214.446
-42.057	37.829	1372.452	1212.402
-41.042	37.879	1370.985	1211.370
-40.027	38.066	1368.850	1210.597
-39.013	37.903	1367.498	1208.339
-37.998	38.016	1365.653	1207.360
-36.984	37.983	1363.954	1205.607
-35.969	38.036	1361.705	1203.900
-34.954	38.032	1360.021	1202.335
-33.940	38.065	1358.649	1201.281
-32.925	38.069	1357.700	1200.417
-31.911	38.101	1355.747	1198.838
-30.896	38.038	1354.779	1197.551
-29.881	38.092	1353.249	1196.485
-28.867	38.201	1351.437	1195.496
-27.852	38.066	1350.315	1193.635
-26.838	38.198	1348.178	1192.502
-25.823	38.139	1347.040	1191.090
-24.809	38.004	1345.769	1189.097
-23.794	38.111	1344.290	1188.393
-22.779	38.161	1342.812	1187.344
-21.765	38.253	1341.204	1186.436
-20.750	38.059	1340.414	1184.508
-19.736	38.087	1338.506	1182.945
-18.721	37.955	1337.439	1181.160
-17.706	37.999	1336.443	1180.495
-16.692	37.922	1335.449	1179.107
-15.677	38.044	1334.063	1178.575
-14.663	37.992	1333.025	1177.296
-13.648	37.903	1331.397	1175.273
-12.633	37.942	1330.514	1174.683
-11.619	37.895	1329.621	1173.566
-10.604	37.885	1328.993	1172.904
-9.590	37.905	1328.071	1172.164
-8.575	38.003	1326.464	1171.285
-7.560	37.938	1326.099	1170.527
-6.546	37.802	1325.443	1169.090
-5.531	37.976	1323.897	1168.721
-4.517	37.863	1323.257	1167.432
-3.502	38.021	1321.946	1167.172
-2.487	38.008	1321.116	1166.319
-1.473	38.121	1317.198	1163.484
-0.458	37.045	1302.763	1144.342
0.556	32.210	1283.193	1104.254
1.571	28.273	1286.781	1083.992
2.586	26.740	1301.897	1087.440
3.600	25.605	1289.927	1070.592
4.615	21.830	1218.100	989.627
5.629	16.244	1142.223	898.256
6.644	13.266	1121.180	866.051
7.659	13.014	1118.288	862.425
8.673	12.941	1116.977	860.955
9.688	12.879	1115.599	859.496
10.702	13.256	1114.082	860.212
11.717	16.853	1119.788	883.320
12.731	20.708	1124.533	907.122
13.746	19.849	1121.570	900.180
14.761	17.897	1117.646	886.824
15.775	16.637	1115.454	878.470
16.790	15.532	1113.285	870.956
17.804	14.654	1111.646	865.047
18.819	14.342	1110.313	862.321
19.834	13.988	1109.157	859.513
20.848	13.678	1108.332	857.196
21.863	13.546	1107.268	855.617
22.877	13.300	1106.814	853.918
23.892	13.288	1106.391	853.457
24.907	13.268	1105.191	852.349
25.921	13.308	1104.172	851.695
26.936	13.279	1102.513	850.190
27.950	13.431	1101.461	850.088
28.965	13.363	1099.974	848.513
29.980	13.525	1097.879	847.655
30.994	13.630	1096.479	847.034
32.009	13.471	1095.844	845.656
33.023	13.585	1094.281	844.956
34.038	13.478	1093.323	843.597
35.053	13.442	1092.866	842.984
36.067	13.434	1091.687	841.960
37.082	13.392	1090.602	840.837
38.096	13.498	1090.097	840.911
39.111	13.471	1089.321	840.098
40.126	13.392	1088.261	838.809
41.140	13.203	1086.824	836.672
42.155	13.165	1085.945	835.727
43.169	13.288	1084.287	834.998
44.184	13.284	1083.581	834.360
45.199	13.292	1081.991	833.101
46.213	13.302	1081.158	832.436
47.228	13.343	1080.048	831.716
48.242	13.411	1079.182	831.316
49.257	13.371	1078.226	830.308
50.271	13.389	1077.023	829.399
51.286	13.374	1076.423	828.788
52.301	13.371	1075.585	828.053
53.315	13.398	1074.127	826.990
54.330	13.327	1073.289	825.919
55.344	13.297	1072.433	825.036
56.359	13.315	1071.730	824.515
57.374	13.289	1070.528	823.386
58.388	13.311	1069.668	822.763
59.403	13.194	1068.563	821.257
60.417	13.204	1067.743	820.606
61.432	13.218	1066.866	819.926
62.447	13.150	1066.161	818.977
63.461	13.103	1065.442	818.118
64.476	13.231	1063.829	817.442
65.490	13.063	1063.763	816.485
66.505	13.122	1063.048	816.158
67.520	13.287	1061.933	816.042
68.534	13.254	1061.526	815.493
69.549	13.295	1060.208	814.612
70.563	13.102	1059.446	813.007
71.578	13.157	1058.487	812.465
72.593	13.082	1058.139	811.761
73.607	13.109	1057.649	811.443
74.622	13.054	1056.773	810.431
75.636	13.137	1055.690	809.933
76.651	13.178	1054.891	809.450
77.666	13.066	1054.940	808.871
78.680	13.087	1054.033	808.204
79.695	13.187	1053.108	807.912
80.709	13.158	1052.532	807.260
81.724	13.182	1052.156	807.015
82.739	13.291	1050.730	806.380
83.753	13.418	1050.167	806.496
84.768	13.420	1049.322	805.789
85.782	13.612	1048.177	805.769
86.797	13.600	1047.273	804.944
87.812	13.417	1046.492	803.387
88.826	13.277	1045.723	802.043
89.841	13.570	1044.236	802.254
90.855	13.464	1043.419	801.042
91.870	13.381	1043.045	800.284
92.884	13.358	1042.313	799.540
93.899	13.485	1041.122	799.169
94.914	13.580	1039.996	798.689
95.928	13.566	1039.473	798.149
96.943	13.491	1038.595	797.046
97.957	13.469	1037.496	796.027
98.972	13.518	1036.516	795.436
99.987	13.600	1035.170	794.727
101.001	13.492	1034.760	793.826
102.016	13.485	1033.980	793.122
103.030	13.520	1032.919	792.405
104.045	13.428	1032.350	791.458
105.060	13.414	1031.187	790.430
106.074	13.388	1030.591	789.780
107.089	13.396	1029.149	788.644
108.103	13.257	1028.378	787.321
109.118	13.231	1027.722	786.625
110.133	13.204	1026.472	785.470
111.147	13.358	1025.603	785.470
112.162	13.271	1024.732	784.319
113.176	13.341	1024.341	784.280
114.191	13.400	1023.379	783.756
115.206	13.435	1022.657	783.301
116.220	13.381	1021.403	782.014
117.235	13.420	1020.182	781.193
118.249	13.230	1019.753	779.901
119.264	13.451	1018.855	780.185
120.279	13.333	1018.208	779.066
121.293	13.303	1017.387	778.227
122.308	13.208	1016.393	776.949
123.322	13.344	1014.975	776.436
124.337	13.247	1014.468	775.522
125.352	13.312	1013.095	774.711
126.366	13.290	1011.974	773.682
127.381	13.191	1011.150	772.520
128.395	13.209	1010.479	772.023
129.410	13.443	1009.062	771.964
130.424	13.464	1008.116	771.272
131.439	13.442	1007.532	770.651
132.454	13.483	1006.943	770.326
133.468	13.425	1006.315	769.506
134.483	13.530	1005.129	769.019
135.497	13.431	1004.482	767.995
136.512	13.553	1003.235	767.542
137.527	13.379	1002.631	766.207
138.541	13.518	1001.704	766.072
139.556	13.677	1000.921	766.140
140.570	13.599	1000.434	765.338
141.585	13.636	999.421	764.666
142.600	13.650	998.537	763.990
143.614	13.754	997.693	763.755
144.629	13.763	996.900	763.120
145.643	13.691	995.994	762.031
146.658	13.531	994.925	760.409
147.673	13.551	993.891	759.644
148.687	13.575	992.769	758.827
149.702	13.457	991.853	757.522
150.716	13.513	991.345	757.322
151.731	13.504	990.632	756.671
152.746	13.414	990.240	755.891
153.760	13.617	989.018	755.819
154.775	13.626	988.615	755.483
155.789	13.586	988.151	754.881
156.804	13.598	987.539	754.399
157.819	13.718	986.410	754.018
158.833	13.770	985.717	753.656
159.848	13.631	985.295	752.636
160.862	13.701	983.954	751.865
161.877	13.746	982.555	750.930
162.892	13.627	982.081	749.962
163.906	13.665	981.116	749.334
164.921	13.606	980.219	748.313
165.935	13.755	979.051	748.031
166.950	13.632	978.310	746.842
167.964	13.649	977.392	746.154
168.979	13.748	976.223	745.638
169.994	13.625	975.515	744.479
171.008	13.728	974.814	744.342
172.023	13.790	973.982	743.917
173.037	13.909	972.935	743.584
174.052	13.814	972.377	742.666
175.067	13.592	972.103	741.399
176.081	13.764	971.730	741.821
177.096	13.720	970.954	740.962
178.110	13.749	970.028	740.323
179.125	13.842	969.490	740.261
180.140	13.810	968.781	739.508
181.154	13.834	968.868	739.620
182.169	13.788	968.193	738.831
183.183	13.976	967.516	739.087
184.198	13.959	966.198	737.939
185.213	13.972	965.774	737.610
186.227	14.018	964.886	737.068
187.242	13.942	964.759	736.569
188.256	13.982	963.950	736.062
189.271	14.052	963.042	735.614
190.286	13.768	962.398	733.801
191.300	13.697	961.528	732.759
192.315	13.731	960.992	732.438
193.329	13.674	960.562	731.792
194.344	13.847	959.619	731.771
195.359	13.840	959.203	731.359
196.373	14.055	958.341	731.583
197.388	13.971	957.978	730.872
198.402	14.104	957.679	731.164
199.417	14.139	956.706	730.512
200.432	14.233	956.256	730.517
201.446	14.199	955.729	729.898
202.461	14.188	955.559	729.658
203.475	14.226	954.680	729.087
204.490	14.246	953.736	728.390
205.504	14.071	953.107	727.077
206.519	14.182	952.227	726.829
207.534	14.237	951.443	726.406
208.548	14.140	950.938	725.535
209.563	14.228	950.075	725.195
210.577	14.319	948.852	724.590
211.592	14.320	948.780	724.479
212.607	14.270	948.094	723.673
213.621	14.404	947.191	723.501
214.636	14.335	946.285	722.443
215.650	14.280	945.849	721.809
216.665	14.347	945.469	721.744
217.680	14.447	944.498	721.376
218.694	14.481	943.739	720.878
219.709	14.394	942.995	719.867
220.723	14.297	942.664	719.135
221.738	14.473	941.584	719.005
222.753	14.497	940.955	718.563
223.767	14.476	940.656	718.181
224.782	14.648	939.852	718.247
225.796	14.510	939.367	717.220
226.811	14.393	938.964	716.343
227.826	14.512	937.772	715.880
228.840	14.602	936.666	715.362
229.855	14.534	935.906	714.427
230.869	14.602	935.347	714.225
231.884	14.438	934.643	712.923
232.899	14.522	933.640	712.455
233.913	14.442	933.063	711.610
234.928	14.373	932.632	710.925
235.942	14.422	932.053	710.631
236.957	14.465	931.098	710.021
237.972	14.436	930.542	709.411
238.986	14.353	930.226	708.752
240.001	14.399	929.647	708.444
241.015	14.532	928.864	708.350
242.030	14.676	928.233	708.419
243.045	14.642	927.433	707.599
244.059	14.688	927.277	707.614
245.074	14.661	926.391	706.759
246.088	14.661	925.834	706.275
247.103	14.623	925.040	705.445
248.117	14.829	924.315	705.698
249.132	14.889	923.897	705.569
250.147	14.923	923.481	705.333
251.161	14.951	922.726	704.812
252.176	14.897	922.165	704.097
253.190	14.858	921.438	703.316
254.205	15.019	920.428	703.155
255.220	14.993	920.122	702.753
256.234	15.058	919.283	702.324
257.249	15.195	918.416	702.171
258.263	15.089	917.611	701.051
259.278	15.059	916.776	700.223
260.293	15.191	916.601	700.580
261.307	15.197	915.753	699.896
262.322	15.181	915.063	699.239
263.336	15.159	914.662	698.778
264.351	15.265	913.139	697.998
265.366	15.179	913.062	697.518
266.380	15.159	912.729	697.118
267.395	15.169	911.767	696.362
268.409	15.069	911.127	695.396
269.424	15.275	910.282	695.544
270.439	15.226	909.364	694.581
271.453	15.136	908.865	693.763
272.468	15.241	908.139	693.583
273.482	15.158	907.717	692.857
274.497	15.121	907.540	692.507
275.512	15.300	906.293	692.232
276.526	15.152	906.123	691.429
277.541	15.278	905.546	691.451
278.555	15.340	905.087	691.294
279.570	15.419	904.312	690.967
280.585	15.471	903.397	690.420
281.599	15.440	902.698	689.695
282.614	15.482	901.611	688.977
283.628	15.449	901.405	688.622
284.643	15.309	901.127	687.775
285.657	15.547	900.019	687.845
286.672	15.432	899.495	686.911
287.687	15.268	899.262	686.001
288.701	15.533	898.122	686.155
289.716	15.485	897.704	685.578
290.730	15.472	897.045	684.961
291.745	15.593	896.680	685.115
292.760	15.581	895.781	684.320
293.774	15.592	895.523	684.107
294.789	15.696	894.481	683.672
295.803	15.649	893.737	682.851
296.818	15.622	892.799	681.966
297.833	15.515	892.723	681.413
298.847	15.497	891.976	680.709
299.862	15.684	891.096	680.736
300.876	15.676	890.718	680.355
301.891	15.729	890.039	679.990
302.906	15.742	889.496	679.567
303.920	15.651	889.015	678.770
304.935	15.810	888.271	678.784
305.949	15.966	887.237	678.563
306.964	15.731	887.277	677.587
307.979	15.723	886.588	676.968
308.993	15.905	885.833	677.064
310.008	16.029	885.128	676.965
311.022	15.851	884.836	675.968
312.037	15.848	883.961	675.226
313.052	15.720	883.791	674.522
314.066	15.899	882.691	674.342
315.081	15.872	882.312	673.883
316.095	15.800	881.562	672.961
317.110	15.720	881.171	672.283
318.125	15.857	880.494	672.257
319.139	15.880	880.052	671.949
320.154	15.815	879.821	671.456
321.168	15.896	879.059	671.139
322.183	15.940	878.229	670.618
323.197	15.908	877.772	670.085
324.212	15.917	876.994	669.468
325.227	15.780	876.700	668.638
326.241	15.890	876.036	668.510
327.256	16.017	875.430	668.492
328.270	15.892	874.926	667.551
329.285	16.029	874.406	667.639
330.300	15.874	873.763	666.476
331.314	15.891	873.058	665.948
332.329	16.128	872.311	666.256
333.343	15.931	872.245	665.367
334.358	16.073	871.736	665.482
335.373	16.091	871.553	665.352
336.387	16.160	871.220	665.310
337.402	16.223	870.781	665.167
338.416	16.035	870.621	664.243
339.431	16.216	870.292	664.648
340.446	16.168	869.583	663.857
341.460	16.176	869.213	663.547
342.475	16.369	868.747	663.892
343.489	16.398	868.193	663.524
344.504	16.434	867.204	662.850
345.519	16.383	867.153	662.555
346.533	16.352	866.554	661.916
347.548	16.390	866.142	661.691
348.562	16.362	865.227	660.825
349.577	16.347	865.112	660.618
350.592	16.184	864.682	659.594
351.606	16.267	863.609	659.043
352.621	16.409	862.675	658.824
353.635	16.355	862.399	658.345
354.650	16.450	861.398	657.893
355.665	16.444	860.829	657.375
356.679	16.515	859.871	656.860
357.694	16.513	859.559	656.559
358.708	16.453	859.154	655.956
359.723	16.411	858.706	655.396
360.738	16.532	857.880	655.174
361.752	16.549	857.317	654.753
362.767	16.639	856.842	654.679
363.781	16.610	856.012	653.877
364.796	16.652	855.858	653.862
365.810	16.691	855.348	653.568
366.825	16.748	854.959	653.433
367.840	16.772	854.313	652.973
368.854	16.712	853.718	652.230
369.869	16.670	853.453	651.808
370.883	16.705	852.766	651.357
371.898	16.838	852.695	651.760
372.913	16.958	852.160	651.753
373.927	16.851	851.770	650.984
374.942	16.766	851.224	650.183
375.956	16.843	850.941	650.207
376.971	16.920	850.183	649.865
377.986	16.863	849.952	649.414
379.000	17.000	849.293	649.377
380.015	16.952	848.853	648.800
381.029	16.958	847.983	648.098
382.044	16.976	847.462	647.712
383.059	17.054	846.640	647.324
384.073	17.073	846.377	647.139
385.088	17.094	845.895	646.794
386.102	17.178	845.349	646.637
387.117	16.947	844.686	645.196
388.132	16.960	844.087	644.729
389.146	17.078	843.396	644.592
390.161	17.011	843.269	644.183
391.175	17.034	842.902	643.933
392.190	16.997	842.309	643.284
393.205	17.035	841.215	642.533
394.219	16.937	841.343	642.203
395.234	17.027	841.063	642.274
396.248	17.076	840.095	641.665
397.263	17.031	839.526	641.003
398.278	16.923	839.659	640.638
399.292	16.930	839.224	640.278
400.307	16.923	838.941	639.980
401.321	17.099	837.959	639.837
402.336	17.099	837.160	639.170
403.350	17.018	837.014	638.696
404.365	17.275	836.479	639.198
405.380	17.278	836.101	638.863
406.394	17.334	835.714	638.721
407.409	17.369	835.102	638.330
408.423	17.387	834.997	638.259
409.438	17.377	834.502	637.788
410.453	17.548	833.589	637.674
411.467	17.469	833.274	637.079
412.482	17.489	833.155	637.010
413.496	17.438	833.046	636.677
414.511	17.460	832.664	636.411
415.526	17.462	832.128	635.951
416.540	17.563	831.241	635.596
417.555	17.395	831.147	634.839
418.569	17.450	830.812	634.733
419.584	17.533	830.002	634.367
420.599	17.598	829.345	634.053
421.613	97.035	1278.700	1409.852
422.628	83.780	1344.189	1409.964
