DTS Sentinel unit serial number:	SN413079Multiplexer serial number:	ORYXHardware model number:	OX4-SRSoftware version number:	ORYX F/W v4.00 Oryx Data Collector v3.7.2.0data status	okinstallation	princeton_trtdifferential loss correction	single-endedforward channel	channel 1reverse channel	N/Adate	2019/09/13time	17:54:35forward acquisition time	60.00reverse acquisition time	0.00gamma	496.2192k internal	0.2306k external	0.2306temperature offset calibration	1.0150default loss term (dB/km)	0.3790temperature slope calibration	1.0000multiplexer offset coefficient	1.0000multiplexer slope coefficient	1.0000fibre end	0.00T internal ref (°C)	35.30T ext. ref 1 (°C)	4.89T ext. ref 2 (°C)	28.27length (m)	temperature (°C)	Stokes	anti-Stokes-747.200	-71.309	0.224	0.086
-746.185	-125.245	-0.353	0.055
-745.171	692.292	-0.028	-0.075
-744.156	-200.000	0.022	0.114
-743.142	-56.236	0.224	-0.101
-742.127	109.575	0.123	0.150
-741.112	-32.848	-0.239	-0.135
-740.098	229.833	-0.048	0.081
-739.083	27.577	0.306	-0.262
-738.069	800.000	0.051	0.212
-737.054	-99.872	-0.207	0.053
-736.039	-135.036	-0.173	0.021
-735.025	-107.210	0.322	0.072
-734.010	-128.454	-0.076	-0.011
-732.996	87.132	-0.147	-0.166
-731.981	-112.975	-0.184	-0.037
-730.966	474.523	-0.076	-0.175
-729.952	-161.783	-0.388	0.020
-728.937	3.062	-0.173	-0.128
-727.923	-200.000	-0.039	0.304
-726.908	-119.404	-0.199	-0.035
-725.894	800.000	-0.106	0.313
-724.879	104.411	0.054	-0.064
-723.864	800.000	0.033	-0.123
-722.850	800.000	0.040	-0.174
-721.835	-200.000	0.014	0.150
-720.821	316.150	-0.157	-0.301
-719.806	373.497	0.090	0.187
-718.791	-143.709	0.140	0.013
-717.777	-200.000	-0.016	-0.171
-716.762	-63.109	0.415	-0.174
-715.748	-159.959	0.129	0.007
-714.733	-69.958	-0.176	0.068
-713.718	-167.557	-0.164	-0.007
-712.704	-139.373	0.274	0.030
-711.689	-39.886	-0.191	0.101
-710.675	360.876	0.065	-0.133
-709.660	230.783	0.096	-0.160
-708.645	121.733	0.150	-0.190
-707.631	450.768	-0.067	-0.149
-706.616	-123.977	0.261	0.042
-705.602	-14.064	0.269	-0.176
-704.587	322.517	-0.029	0.055
-703.572	366.393	0.073	0.150
-702.558	-92.397	-0.139	0.040
-701.543	-71.462	0.160	-0.061
-700.529	0.459	-0.124	0.090
-699.514	-24.806	-0.145	0.088
-698.499	-11.801	-0.285	-0.190
-697.485	-12.258	-0.101	0.067
-696.470	89.062	-0.203	-0.230
-695.456	10.498	0.062	0.048
-694.441	35.873	-0.132	0.118
-693.426	-200.000	-0.026	-0.238
-692.412	3.256	-0.261	-0.193
-691.397	-119.486	-0.487	-0.086
-690.383	468.336	0.069	-0.157
-689.368	-200.000	0.075	-0.355
-688.354	304.334	0.054	-0.102
-687.339	-99.643	-0.086	0.022
-686.324	13.034	-0.163	-0.128
-685.310	-24.736	0.192	0.116
-684.295	-117.122	-0.298	-0.055
-683.281	-52.298	0.153	-0.072
-682.266	800.000	-0.116	-0.361
-681.251	93.798	-0.170	-0.195
-680.237	265.348	-0.037	-0.065
-679.222	-13.882	0.263	0.172
-678.208	129.554	-0.077	-0.099
-677.193	103.879	-0.129	-0.154
-676.178	-175.316	0.331	-0.009
-675.164	-84.224	-0.376	-0.121
-674.149	-134.203	0.042	0.005
-673.135	-200.000	0.061	0.309
-672.120	-45.765	0.203	-0.102
-671.105	-65.571	-0.134	-0.055
-670.091	-35.605	0.243	0.133
-669.076	45.324	-0.103	0.096
-668.062	-200.000	0.013	-0.234
-667.047	78.467	-0.241	-0.261
-666.032	-59.319	-0.064	0.028
-665.018	64.061	-0.171	0.175
-664.003	490.547	-0.079	0.183
-662.989	-42.519	0.037	-0.019
-661.974	800.000	-0.089	-0.291
-660.959	-181.535	-0.141	-0.003
-659.945	-95.695	0.170	0.046
-658.930	238.555	0.197	-0.332
-657.916	-105.762	0.210	-0.048
-656.901	-200.000	-0.038	0.431
-655.886	-55.371	-0.013	0.006
-654.872	62.502	-0.230	-0.233
-653.857	-114.321	0.394	0.077
-652.843	-101.244	-0.630	0.156
-651.828	299.406	0.128	-0.238
-650.814	-125.265	-0.254	-0.039
-649.799	800.000	0.049	0.159
-648.784	113.890	-0.284	-0.350
-647.770	-200.000	0.003	-0.028
-646.755	-115.503	0.074	-0.014
-645.741	152.276	-0.076	0.105
-644.726	71.913	0.102	0.107
-643.711	-88.874	-0.185	0.056
-642.697	-200.000	-0.008	0.587
-641.682	123.866	0.287	-0.365
-640.668	800.000	0.114	-0.369
-639.653	248.570	-0.128	-0.220
-638.638	292.855	-0.079	-0.146
-637.624	-200.000	-0.001	0.263
-636.609	-200.000	0.008	-0.221
-635.595	-34.979	0.157	-0.087
-634.580	-89.485	0.104	-0.031
-633.565	-200.000	0.019	0.208
-632.551	215.057	-0.023	-0.037
-631.536	145.135	-0.169	0.230
-630.522	-109.040	0.241	0.052
-629.507	75.888	0.158	-0.169
-628.492	-184.804	0.305	0.005
-627.478	-9.373	-0.090	-0.061
-626.463	-15.756	0.242	-0.156
-625.449	52.352	-0.310	-0.300
-624.434	-200.000	0.036	0.186
-623.419	84.155	-0.105	-0.116
-622.405	377.006	-0.028	-0.059
-621.390	-69.383	-0.274	-0.106
-620.376	-103.736	0.248	0.059
-619.361	-200.000	0.012	-0.134
-618.346	-118.949	-0.246	-0.044
-617.332	-51.384	0.090	-0.043
-616.317	-40.499	0.152	-0.080
-615.303	-152.043	0.228	-0.017
-614.288	-88.251	0.090	0.027
-613.273	212.651	0.184	0.294
-612.259	272.584	0.037	0.066
-611.244	4.130	0.158	-0.117
-610.230	5.942	-0.140	-0.105
-609.215	-48.095	-0.165	-0.081
-608.201	7.643	-0.036	0.028
-607.186	-77.742	0.194	-0.068
-606.171	800.000	0.093	0.339
-605.157	-200.000	-0.027	-0.177
-604.142	62.259	0.162	-0.164
-603.128	4.892	-0.178	-0.132
-602.113	-128.672	0.104	-0.015
-601.098	-147.572	-0.161	0.014
-600.084	-200.000	-0.003	-0.144
-599.069	-131.385	-0.286	-0.038
-598.055	-200.000	-0.017	0.127
-597.040	-99.931	-0.112	-0.028
-596.025	196.688	0.167	-0.258
-595.011	-115.501	-0.189	0.036
-593.996	-200.000	-0.017	0.311
-592.982	-200.000	-0.022	-0.125
-591.967	-200.000	0.002	0.013
-590.952	800.000	-0.058	0.183
-589.938	301.815	-0.173	0.324
-588.923	-200.000	0.026	0.291
-587.909	224.765	-0.140	-0.228
-586.894	-200.000	0.015	-0.175
-585.879	-49.876	-0.249	-0.120
-584.865	-200.000	0.060	0.530
-583.850	93.709	-0.164	0.187
-582.836	-200.000	0.007	0.056
-581.821	124.094	-0.264	0.336
-580.806	-97.263	-0.346	0.091
-579.792	800.000	-0.043	-0.131
-578.777	257.472	0.074	-0.129
-577.763	59.622	0.065	-0.065
-576.748	30.613	0.164	-0.142
-575.733	69.209	-0.293	-0.305
-574.719	499.713	0.083	-0.194
-573.704	660.164	0.069	0.180
-572.690	26.450	-0.320	0.271
-571.675	89.785	-0.047	-0.053
-570.661	116.247	0.193	-0.239
-569.646	-200.000	-0.001	-0.078
-568.631	-25.636	0.239	0.142
-567.617	227.976	-0.135	-0.222
-566.602	8.124	0.332	-0.252
-565.588	-200.000	0.081	-0.363
-564.573	40.709	-0.218	-0.198
-563.558	-200.000	0.041	-0.222
-562.544	-72.568	-0.513	0.191
-561.529	-149.618	-0.189	-0.015
-560.515	79.477	-0.153	-0.166
-559.500	127.199	-0.109	0.140
-558.485	-33.969	0.077	0.043
-557.471	14.729	-0.210	0.166
-556.456	273.329	-0.218	0.389
-555.442	-174.609	0.125	0.004
-554.427	800.000	0.016	0.062
-553.412	-95.177	0.283	-0.077
-552.398	-15.952	-0.151	-0.097
-551.383	-36.724	0.296	-0.161
-550.369	-194.890	0.005	0.000
-549.354	800.000	0.054	0.172
-548.339	-45.993	0.080	-0.040
-547.325	68.119	0.120	0.124
-546.310	-172.515	0.254	0.008
-545.296	-63.495	0.160	-0.066
-544.281	-25.405	0.311	-0.185
-543.266	412.857	-0.126	0.270
-542.252	-85.836	-0.324	0.101
-541.237	800.000	-0.026	-0.109
-540.223	4.243	-0.138	-0.102
-539.208	449.009	0.106	0.235
-538.193	615.100	-0.147	0.371
-537.179	-28.484	-0.186	-0.108
-536.164	192.631	-0.091	-0.139
-535.150	-81.765	0.343	-0.114
-534.135	-42.269	-0.079	0.041
-533.121	-49.737	-0.278	0.134
-532.106	-83.488	-0.170	-0.055
-531.091	67.014	-0.196	-0.202
-530.077	495.063	0.058	0.133
-529.062	-200.000	0.017	-0.102
-528.048	-107.062	-0.127	0.028
-527.033	-200.000	-0.053	0.242
-526.018	415.307	0.137	0.294
-525.004	292.397	0.088	-0.162
-523.989	162.789	-0.035	0.050
-522.975	474.421	0.125	-0.285
-521.960	-63.254	-0.217	0.090
-520.945	800.000	0.046	0.169
-519.931	339.058	0.097	0.190
-518.916	169.271	-0.168	-0.241
-517.902	-154.254	-0.180	0.012
-516.887	-200.000	0.025	0.247
-515.872	-6.715	-0.300	0.206
-514.858	-116.724	-0.221	0.041
-513.843	-200.000	-0.049	0.364
-512.829	452.893	0.119	0.264
-511.814	-200.000	-0.007	0.045
-510.799	-129.457	0.224	-0.031
-509.785	62.984	0.215	-0.217
-508.770	-170.723	-0.119	-0.004
-507.756	258.392	0.110	0.191
-506.741	-175.619	0.110	0.003
-505.726	-200.000	0.018	0.092
-504.712	77.586	-0.423	0.454
-503.697	-200.000	0.004	0.090
-502.683	-200.000	-0.022	0.189
-501.668	800.000	0.052	0.174
-500.653	571.579	-0.088	0.217
-499.639	800.000	0.104	0.333
-498.624	54.168	-0.241	0.234
-497.610	232.299	0.085	-0.140
-496.595	9.416	-0.123	-0.094
-495.581	353.601	-0.049	-0.098
-494.566	-200.000	0.032	0.353
-493.551	332.335	-0.026	0.050
-492.537	-182.205	-0.242	-0.005
-491.522	-28.482	0.280	-0.162
-490.508	-113.949	0.495	-0.097
-489.493	18.859	-0.236	0.190
-488.478	-99.774	-0.104	-0.026
-487.464	65.591	-0.262	-0.267
-486.449	-41.306	0.087	-0.045
-485.435	464.962	0.041	-0.092
-484.420	800.000	0.064	-0.217
-483.405	-125.650	-0.166	-0.025
-482.391	-66.022	0.222	0.089
-481.376	-23.371	-0.094	0.057
-480.362	-53.608	-0.281	-0.129
-479.347	-200.000	0.007	-0.122
-478.332	-2.125	-0.222	0.157
-477.318	627.281	-0.059	-0.151
-476.303	65.528	-0.115	-0.117
-475.289	-167.658	0.213	-0.008
-474.274	50.549	-0.168	-0.160
-473.259	-13.549	-0.106	0.069
-472.245	-30.577	0.070	0.040
-471.230	-66.048	0.332	0.133
-470.216	77.401	0.166	0.178
-469.201	112.251	0.339	0.413
-468.186	271.318	0.120	-0.213
-467.172	-110.101	0.142	0.030
-466.157	-200.000	-0.014	-0.155
-465.143	-139.544	-0.076	-0.008
-464.128	24.646	0.272	-0.227
-463.113	-5.215	0.256	0.177
-462.099	800.000	-0.055	0.195
-461.084	139.445	-0.217	-0.287
-460.070	86.643	0.175	-0.194
-459.055	-200.000	-0.041	0.293
-458.040	-200.000	0.022	0.122
-457.026	800.000	-0.046	-0.150
-456.011	14.698	-0.176	-0.138
-454.997	-200.000	0.022	0.111
-453.982	120.048	0.055	-0.069
-452.968	-89.394	0.392	-0.116
-451.953	18.763	0.134	-0.108
-450.938	-3.649	0.185	-0.129
-449.924	78.681	0.165	0.178
-448.909	-122.678	-0.273	0.044
-447.895	711.698	0.187	-0.497
-446.880	284.899	0.109	0.197
-445.865	161.527	0.160	-0.225
-444.851	-152.743	-0.226	0.016
-443.836	-133.581	-0.126	0.016
-442.822	800.000	-0.014	0.049
-441.807	-81.314	-0.287	0.095
-440.792	58.853	0.153	0.151
-439.778	6.214	-0.081	-0.060
-438.763	59.338	0.116	-0.115
-437.749	429.978	0.052	0.113
-436.734	49.469	-0.208	-0.197
-435.719	-200.000	-0.451	0.002
-434.705	-50.542	-0.184	-0.087
-433.690	37.326	-0.137	-0.122
-432.676	-200.000	0.047	0.348
-431.661	411.830	0.062	0.132
-430.646	241.932	0.056	-0.094
-429.632	-138.752	-0.259	-0.028
-428.617	-143.065	-0.109	-0.011
-427.603	-200.000	0.052	-0.367
-426.588	-200.000	-0.016	-0.233
-425.573	-96.815	-0.147	-0.039
-424.559	800.000	0.036	-0.118
-423.544	81.194	-0.233	-0.253
-422.530	-52.258	-0.215	0.100
-421.515	800.000	-0.035	0.115
-420.500	391.638	-0.071	0.148
-419.486	386.041	-0.107	-0.222
-418.471	69.387	-0.069	0.071
-417.457	-91.093	0.184	0.053
-416.442	-77.363	-0.116	-0.040
-415.428	-70.619	-0.034	-0.013
-414.413	-51.485	0.128	0.060
-413.398	-150.422	0.436	-0.034
-412.384	-88.742	0.442	-0.132
-411.369	329.881	-0.149	-0.288
-410.355	52.546	-0.086	-0.083
-409.340	-200.000	-0.039	0.201
-408.325	-162.033	-0.156	-0.008
-407.311	-200.000	0.022	-0.117
-406.296	-128.709	-0.421	0.060
-405.282	800.000	0.088	-0.281
-404.267	-139.878	0.178	-0.019
-403.252	56.654	0.186	0.182
-402.238	-93.335	0.172	0.048
-401.223	-200.000	-0.006	0.026
-400.209	9.659	-0.120	-0.091
-399.194	800.000	-0.068	-0.293
-398.179	-0.762	0.203	-0.144
-397.165	-200.000	-0.004	-0.068
-396.150	-40.394	-0.459	0.239
-395.136	-18.959	-0.207	-0.129
-394.121	117.417	-0.151	-0.187
-393.106	-15.410	0.280	-0.179
-392.092	114.817	0.114	-0.140
-391.077	214.152	0.201	0.319
-390.063	527.504	0.117	0.277
-389.048	-94.579	0.132	-0.036
-388.033	400.028	-0.135	-0.284
-387.019	581.418	-0.071	0.176
-386.004	-91.191	-0.278	-0.080
-384.990	152.291	0.112	-0.153
-383.975	-139.195	-0.082	0.009
-382.960	402.868	0.104	0.220
-381.946	796.722	-0.069	-0.189
-380.931	-200.000	0.019	0.305
-379.917	800.000	-0.052	0.153
-378.902	-44.620	-0.046	-0.023
-377.888	180.066	-0.084	0.124
-376.873	-135.915	-0.101	0.012
-375.858	800.000	-0.039	-0.114
-374.844	365.430	0.178	0.359
-373.829	116.616	0.067	-0.083
-372.815	-92.776	-0.058	0.016
-371.800	-53.970	0.018	0.008
-370.785	800.000	-0.044	-0.133
-369.771	155.565	-0.082	-0.113
-368.756	-139.005	-0.224	0.024
-367.742	548.556	0.143	0.343
-366.727	-21.668	0.448	0.273
-365.712	522.574	0.058	-0.138
-364.698	-62.687	-0.257	0.107
-363.683	48.808	0.161	-0.151
-362.669	219.060	0.099	0.158
-361.654	800.000	-0.035	-0.102
-360.639	54.802	0.054	0.052
-359.625	38.378	-0.171	0.153
-358.610	75.998	-0.116	-0.123
-357.596	-184.706	0.201	0.003
-356.581	-125.972	-0.047	-0.007
-355.566	-104.164	0.243	0.057
-354.552	-109.631	0.298	-0.063
-353.537	27.051	-0.173	-0.145
-352.523	800.000	-0.048	0.201
-351.508	7.834	0.128	-0.096
-350.493	183.286	0.118	0.175
-349.479	89.300	-0.132	0.147
-348.464	800.000	-0.059	-0.175
-347.450	-56.466	-0.153	-0.068
-346.435	-5.237	-0.135	0.093
-345.420	296.193	0.092	-0.168
-344.406	800.000	0.048	-0.194
-343.391	27.774	-0.144	0.121
-342.377	231.778	-0.080	-0.131
-341.362	-120.348	0.252	-0.043
-340.348	450.948	-0.025	0.055
-339.333	297.285	-0.064	0.117
-338.318	-18.090	0.112	0.070
-337.304	-114.775	-0.237	0.045
-336.289	-200.000	-0.025	0.330
-335.275	-135.800	0.148	0.017
-334.260	13.254	0.180	0.139
-333.245	-131.435	0.365	0.048
-332.231	231.271	0.164	0.268
-331.216	-200.000	-0.001	-0.067
-330.202	428.719	-0.079	0.170
-329.187	93.302	-0.040	0.045
-328.172	-34.033	0.199	0.109
-327.158	800.000	0.096	-0.279
-326.143	-37.679	0.286	-0.152
-325.129	-8.121	0.136	-0.092
-324.114	-116.387	-0.238	-0.044
-323.099	-177.812	0.202	0.005
-322.085	-118.570	-0.257	-0.046
-321.070	91.292	0.111	-0.125
-320.056	243.952	-0.175	-0.294
-319.041	-200.000	0.019	0.200
-318.026	800.000	0.045	-0.134
-317.012	-172.041	0.336	-0.011
-315.997	-184.889	0.316	-0.005
-314.983	-144.665	-0.300	-0.028
-313.968	-200.000	-0.040	-0.389
-312.953	-15.867	0.158	-0.101
-311.939	125.428	0.038	0.048
-310.924	-4.955	-0.273	0.188
-309.910	21.700	-0.186	-0.152
-308.895	-140.480	0.189	-0.020
-307.880	-200.000	-0.021	-0.270
-306.866	733.989	-0.108	0.289
-305.851	-2.720	-0.107	0.075
-304.837	-200.000	0.022	-0.172
-303.822	-200.000	0.038	0.234
-302.807	800.000	-0.114	-0.442
-301.793	-200.000	0.015	-0.118
-300.778	800.000	0.012	0.052
-299.764	552.985	-0.117	0.280
-298.749	67.419	0.050	0.051
-297.735	-22.236	0.166	0.100
-296.720	10.357	0.167	-0.127
-295.705	-200.000	-0.001	-0.022
-294.691	800.000	-0.090	0.248
-293.676	128.884	-0.211	0.269
-292.662	-80.595	-0.196	0.065
-291.647	265.099	-0.060	-0.105
-290.632	-162.501	-0.172	-0.008
-289.618	94.366	0.168	0.191
-288.603	223.125	0.034	0.055
-287.589	-133.277	-0.258	0.033
-286.574	-200.000	-0.012	-0.213
-285.559	-120.765	0.296	0.050
-284.545	656.140	0.132	-0.340
-283.530	-139.718	-0.612	0.065
-282.516	-45.952	-0.184	0.090
-281.501	-59.090	-0.041	-0.018
-280.486	-106.405	0.509	0.114
-279.472	-200.000	-0.054	0.324
-278.457	-143.916	0.296	0.028
-277.443	-200.000	0.074	-0.328
-276.428	632.571	0.037	-0.093
-275.413	-43.690	-0.165	-0.083
-274.399	233.995	0.075	-0.123
-273.384	431.545	-0.121	0.261
-272.370	-171.056	0.384	0.013
-271.355	800.000	0.120	-0.351
-270.340	348.802	-0.035	-0.069
-269.326	800.000	0.043	-0.140
-268.311	54.758	-0.196	0.189
-267.297	-174.597	-0.510	-0.015
-266.282	-78.388	0.506	0.173
-265.267	792.510	-0.046	-0.127
-264.253	-69.816	-0.237	0.090
-263.238	14.222	0.009	-0.007
-262.224	32.295	0.369	0.318
-261.209	199.240	0.186	0.284
-260.195	-200.000	0.022	0.193
-259.180	226.140	-0.036	0.058
-258.165	-200.000	-0.011	0.310
-257.151	-148.452	-0.207	0.017
-256.136	98.626	0.132	-0.152
-255.122	46.125	0.118	-0.109
-254.107	422.140	-0.001	-0.002
-253.092	118.157	-0.086	-0.105
-252.078	-132.846	-0.407	-0.052
-251.063	561.051	0.014	-0.033
-250.049	-142.184	0.233	-0.023
-249.034	124.627	-0.176	0.221
-248.019	800.000	0.083	-0.247
-247.005	-107.237	-0.089	-0.020
-245.990	-200.000	0.011	-0.114
-244.976	-72.396	0.045	-0.016
-243.961	-91.070	0.158	0.045
-242.946	-140.721	0.173	0.018
-241.932	17.536	0.062	0.049
-240.917	-180.063	-0.191	0.004
-239.903	307.399	0.080	0.149
-238.888	-200.000	-0.005	-0.148
-237.873	452.997	0.027	0.060
-236.859	-117.844	-0.207	0.037
-235.844	537.939	0.017	-0.040
-234.830	-200.000	-0.009	0.143
-233.815	800.000	-0.035	-0.105
-232.800	324.994	-0.171	0.327
-231.786	228.018	-0.027	-0.044
-230.771	25.129	-0.189	-0.156
-229.757	-132.312	0.086	0.011
-228.742	-31.294	0.029	0.017
-227.727	-167.543	0.117	-0.005
-226.713	-89.350	-0.010	0.003
-225.698	-129.797	-0.073	0.010
-224.684	-127.770	-0.206	0.030
-223.669	-133.723	-0.169	-0.021
-222.655	800.000	0.073	0.209
-221.640	-200.000	0.007	0.198
-220.625	-32.849	-0.082	-0.046
-219.611	800.000	-0.059	0.201
-218.596	-200.000	-0.039	0.293
-217.582	800.000	0.053	0.156
-216.567	162.841	0.188	0.263
-215.552	76.747	0.042	-0.045
-214.538	800.000	-0.065	0.264
-213.523	-175.799	-0.143	0.004
-212.509	-96.680	0.403	-0.106
-211.494	20.909	-0.371	-0.299
-210.479	-200.000	0.013	-0.078
-209.465	800.000	-0.054	-0.230
-208.450	558.120	-0.094	0.226
-207.436	-25.996	-0.246	0.144
-206.421	-200.000	0.009	-0.073
-205.406	-160.502	0.035	0.002
-204.392	344.380	-0.034	0.067
-203.377	274.498	0.054	0.095
-202.363	-200.000	-0.003	-0.170
-201.348	-200.000	0.063	-0.457
-200.333	-147.105	0.450	0.038
-199.319	-200.000	-0.011	0.169
-198.304	-72.473	0.307	0.113
-197.290	-200.000	-0.006	0.155
-196.275	687.940	0.070	-0.183
-195.260	5.678	-0.072	-0.053
-194.246	-159.543	0.204	0.011
-193.231	-200.000	0.055	-0.263
-192.217	160.213	0.068	-0.094
-191.202	-147.240	0.087	0.007
-190.187	671.634	0.124	-0.321
-189.173	800.000	0.054	-0.229
-188.158	-148.477	-0.303	0.025
-187.144	448.475	0.140	0.307
-186.129	4.452	-0.136	-0.100
-185.114	-200.000	-0.022	-0.230
-184.100	-30.610	-0.225	-0.127
-183.085	65.005	0.096	-0.096
-182.071	-32.131	0.234	0.130
-181.056	-21.984	0.119	-0.072
-180.042	-39.012	0.195	0.102
-179.027	-200.000	0.053	-0.311
-178.012	683.488	-0.087	0.226
-176.998	219.929	0.096	0.152
-175.983	169.026	-0.177	0.251
-174.969	-200.000	-0.090	-0.441
-173.954	77.574	0.076	0.080
-172.939	-200.000	0.034	0.158
-171.925	-15.492	-0.136	0.086
-170.910	129.420	-0.257	-0.327
-169.896	7.985	0.012	-0.009
-168.881	-170.793	0.428	0.015
-167.866	800.000	-0.030	-0.116
-166.852	69.445	-0.178	0.182
-165.837	96.237	-0.310	-0.353
-164.823	-200.000	-0.034	-0.327
-163.808	139.945	0.256	-0.335
-162.793	-200.000	0.015	-0.088
-161.779	204.856	0.233	-0.360
-160.764	317.791	0.068	-0.128
-159.750	-61.504	0.237	0.099
-158.735	562.993	-0.061	-0.148
-157.720	-200.000	0.005	0.060
-156.706	800.000	0.090	0.267
-155.691	-108.799	0.310	0.066
-154.677	314.980	-0.114	0.214
-153.662	-200.000	0.015	0.145
-152.647	235.113	0.157	0.258
-151.633	114.256	0.168	-0.203
-150.618	-180.571	0.140	-0.003
-149.604	-56.644	0.176	-0.077
-148.589	37.872	0.109	0.097
-147.574	207.976	0.180	-0.279
-146.560	-162.722	-0.016	-0.001
-145.545	800.000	-0.045	-0.155
-144.531	-144.517	-0.103	0.009
-143.516	80.667	0.110	-0.118
-142.502	153.961	-0.157	-0.214
-141.487	800.000	0.068	-0.239
-140.472	-200.000	-0.016	-0.123
-139.458	362.230	0.128	-0.255
-138.443	800.000	0.076	-0.303
-137.429	-200.000	-0.062	-0.409
-136.414	-159.057	0.196	-0.011
-135.399	-200.000	0.004	0.163
-134.385	116.721	0.085	0.104
-133.370	-200.000	-0.053	-0.238
-132.356	-152.501	0.166	0.012
-131.341	213.863	0.100	-0.158
-130.326	337.512	-0.151	0.293
-129.312	71.874	-0.230	-0.237
-128.297	162.278	-0.098	-0.136
-127.283	-114.149	0.185	0.035
-126.268	-119.542	0.113	0.019
-125.253	-36.932	0.092	-0.049
-124.239	-200.000	0.075	-0.376
-123.224	-200.000	-0.007	-0.225
-122.210	37.974	0.064	-0.057
-121.195	-200.000	-0.015	0.370
-120.180	-5.928	0.114	-0.077
-119.166	-200.000	0.003	-0.017
-118.151	36.914	-0.369	-0.324
-117.137	120.928	-0.179	-0.221
-116.122	203.238	-0.279	0.429
-115.107	-47.961	0.010	0.005
-114.093	167.543	-0.259	0.365
-113.078	-200.000	-0.063	0.301
-112.064	437.935	-0.131	-0.284
-111.049	-4.785	0.204	-0.139
-110.034	104.111	-0.160	0.187
-109.020	-200.000	0.001	0.118
-108.005	-200.000	0.027	0.185
-106.991	-13.860	-0.241	0.155
-105.976	-156.855	0.339	-0.021
-104.962	140.550	0.209	-0.274
-103.947	179.139	-0.132	-0.192
-102.932	-107.363	-0.256	-0.056
-101.918	-74.975	-0.246	-0.087
-100.903	-200.000	0.010	0.150
-99.889	-56.093	0.179	0.079
-98.874	-69.934	-0.085	-0.032
-97.859	154.845	0.052	-0.070
-96.845	-200.000	-0.036	-0.168
-95.830	315.818	0.137	-0.256
-94.816	-200.000	-0.027	-0.277
-93.801	800.000	-0.035	-0.145
-92.786	-107.141	-0.216	-0.047
-91.772	-108.244	-0.104	0.022
-90.757	140.360	-0.146	0.191
-89.743	-36.660	0.116	-0.062
-88.728	233.360	0.071	-0.116
-87.713	-171.136	-0.224	0.008
-86.699	-20.598	0.200	0.122
-85.684	-31.855	0.197	-0.109
-84.670	-200.000	-0.023	0.245
-83.655	316.479	-0.096	-0.181
-82.640	-107.596	0.203	0.044
-81.626	153.621	-0.066	0.089
-80.611	479.411	0.109	-0.246
-79.597	-200.000	-0.026	0.119
-78.582	-200.000	-0.012	0.297
-77.567	-31.127	0.163	0.091
-76.553	-200.000	0.014	0.076
-75.538	449.878	0.093	-0.203
-74.524	-25.846	0.140	0.082
-73.509	-25.602	-0.037	0.022
-72.494	-74.780	0.273	0.097
-71.480	248.382	-0.070	-0.117
-70.465	219.719	-0.137	0.218
-69.451	-200.000	0.009	-0.384
-68.436	36.629	0.095	-0.083
-67.422	-200.000	0.017	-0.155
-66.407	10.518	0.181	-0.136
-65.392	-200.000	0.001	-0.296
-64.378	800.000	-0.060	-0.242
-63.363	160.172	-0.181	-0.250
-62.349	97.984	0.257	0.293
-61.334	261.611	-0.712	-1.223
-60.319	-38.906	0.764	0.399
-59.305	261.004	-0.444	-0.761
-58.290	364.086	0.566	1.127
-57.276	132.862	1.103	1.410
-56.261	-200.000	97.020	579.321
-55.246	649.176	1388.178	3517.130
-54.232	186.860	2600.418	3836.576
-53.217	123.248	2180.583	2705.678
-52.203	47.051	1632.500	1503.721
-51.188	38.782	1367.510	1208.888
-50.173	35.431	1324.745	1150.983
-49.159	57.244	1373.374	1326.829
-48.144	61.994	1391.486	1373.195
-47.130	39.132	1345.802	1191.633
-46.115	35.435	1327.913	1153.572
-45.100	35.203	1322.943	1147.824
-44.086	35.207	1320.395	1145.589
-43.071	35.178	1318.250	1143.510
-42.057	35.125	1315.692	1140.929
-41.042	35.189	1314.162	1139.937
-40.027	35.163	1312.860	1138.613
-39.013	35.228	1310.732	1137.103
-37.998	35.143	1309.315	1135.326
-36.984	35.235	1307.864	1134.568
-35.969	35.340	1305.344	1132.959
-34.954	35.336	1303.812	1131.560
-33.940	35.230	1302.711	1129.936
-32.925	35.381	1300.935	1129.239
-31.911	35.392	1299.802	1128.273
-30.896	35.306	1298.464	1126.563
-29.881	35.403	1296.690	1125.547
-28.867	35.410	1295.593	1124.590
-27.852	35.379	1293.808	1122.818
-26.838	35.427	1292.679	1122.071
-25.823	35.476	1291.011	1120.866
-24.809	35.484	1289.541	1119.592
-23.794	35.419	1288.643	1118.387
-22.779	35.318	1287.243	1116.544
-21.765	35.445	1285.663	1115.864
-20.750	35.345	1284.356	1114.105
-19.736	35.182	1283.301	1112.203
-18.721	35.336	1281.888	1111.825
-17.706	35.263	1281.101	1110.672
-16.692	35.266	1279.561	1109.311
-15.677	35.272	1278.752	1108.605
-14.663	35.301	1277.163	1107.347
-13.648	35.124	1276.699	1105.880
-12.633	35.182	1275.646	1105.260
-11.619	35.284	1274.770	1105.044
-10.604	35.215	1273.889	1103.841
-9.590	35.364	1272.525	1103.470
-8.575	35.237	1271.694	1101.978
-7.560	35.225	1270.821	1101.105
-6.546	35.234	1269.935	1100.346
-5.531	35.147	1269.429	1099.365
-4.517	35.238	1268.228	1098.804
-3.502	35.235	1267.545	1098.152
-2.487	35.161	1266.702	1096.953
-1.473	35.130	1262.126	1092.768
-0.458	33.285	1245.859	1068.239
0.556	30.067	1226.179	1019.707
1.571	25.203	1228.742	994.848
2.586	23.711	1242.555	997.567
3.600	22.200	1231.197	979.950
4.615	16.563	1159.258	892.937
5.629	8.794	1084.521	796.787
6.644	5.128	1064.941	764.403
7.659	4.768	1062.567	760.871
8.673	4.838	1060.879	759.938
9.688	4.826	1059.909	759.115
10.702	4.988	1057.952	758.434
11.717	9.155	1063.592	782.756
12.731	16.951	1075.140	829.455
13.746	21.342	1079.747	854.450
14.761	21.436	1079.673	854.774
15.775	20.608	1077.369	848.838
16.790	19.521	1075.595	842.065
17.804	18.771	1074.409	837.403
18.819	18.597	1072.759	835.200
19.834	18.325	1072.098	833.287
20.848	18.300	1071.321	832.485
21.863	18.036	1070.973	830.857
22.877	17.813	1070.363	829.230
23.892	17.738	1069.616	828.210
24.907	17.816	1068.324	827.519
25.921	17.923	1067.336	827.197
26.936	17.895	1065.775	825.778
27.950	17.927	1065.021	825.278
28.965	18.085	1062.980	824.385
29.980	18.180	1061.245	823.421
30.994	18.171	1061.016	823.129
32.009	18.160	1059.875	822.119
33.023	18.290	1058.350	821.487
34.038	18.082	1057.580	819.816
35.053	18.029	1056.576	818.715
36.067	17.882	1055.904	817.415
37.082	18.013	1055.525	817.676
38.096	18.085	1054.843	817.423
39.111	18.167	1053.454	816.666
40.126	18.113	1051.846	815.086
41.140	17.714	1050.905	812.387
42.155	17.457	1049.976	810.373
43.169	17.521	1048.703	809.624
44.184	17.465	1047.979	808.724
45.199	17.693	1046.745	808.784
46.213	17.786	1045.509	808.199
47.228	17.846	1044.964	807.987
48.242	17.902	1044.228	807.613
49.257	17.934	1042.763	806.561
50.271	18.003	1042.152	806.343
51.286	17.965	1041.368	805.483
52.301	18.017	1039.927	804.543
53.315	17.794	1039.038	802.737
54.330	17.719	1038.092	801.580
55.344	17.581	1037.551	800.446
56.359	17.842	1036.526	800.808
57.374	17.664	1035.392	799.025
58.388	17.541	1034.715	797.859
59.403	17.515	1033.780	796.944
60.417	17.633	1032.970	796.801
61.432	17.537	1032.094	795.605
62.447	17.444	1031.482	794.631
63.461	17.473	1030.454	793.902
64.476	17.402	1028.974	792.360
65.490	17.555	1027.949	792.212
66.505	17.446	1028.056	791.719
67.520	17.450	1027.253	791.047
68.534	17.355	1026.614	790.045
69.549	17.366	1025.697	789.319
70.563	17.381	1024.749	788.590
71.578	17.181	1024.153	787.138
72.593	17.180	1023.247	786.367
73.607	17.153	1022.608	785.682
74.622	17.282	1021.863	785.633
75.636	17.417	1021.050	785.564
76.651	17.311	1020.427	784.526
77.666	17.310	1019.995	784.119
78.680	17.336	1019.036	783.431
79.695	17.404	1018.771	783.471
80.709	17.525	1018.040	783.399
81.724	17.612	1017.328	783.178
82.739	17.691	1016.972	783.201
83.753	17.825	1016.529	783.407
84.768	18.107	1015.544	783.869
85.782	18.292	1014.444	783.798
86.797	18.105	1013.453	782.106
87.812	18.007	1012.811	781.094
88.826	17.983	1011.908	780.220
89.841	18.004	1010.910	779.478
90.855	18.144	1010.134	779.449
91.870	18.239	1009.272	779.147
92.884	18.176	1008.606	778.277
93.899	18.136	1007.782	777.392
94.914	18.155	1006.814	776.662
95.928	18.163	1005.749	775.808
96.943	18.277	1004.528	775.312
97.957	18.120	1003.810	773.980
98.972	18.117	1003.091	773.346
99.987	18.085	1002.279	772.504
101.001	18.060	1001.407	771.652
102.016	18.124	1000.387	771.085
103.030	18.055	1000.135	770.512
104.045	18.064	998.807	769.461
105.060	17.984	998.129	768.512
106.074	17.774	997.061	766.676
107.089	17.624	995.954	765.084
108.103	17.662	994.791	764.293
109.118	17.577	993.793	763.078
110.133	17.445	993.222	761.981
111.147	17.536	991.840	761.262
112.162	17.418	991.551	760.444
113.176	17.645	990.839	760.846
114.191	17.774	989.997	760.705
115.206	17.630	989.135	759.333
116.220	17.508	988.432	758.186
117.235	17.644	987.319	757.867
118.249	17.603	986.518	757.006
119.264	17.550	985.666	756.049
120.279	17.493	985.110	755.305
121.293	17.503	983.916	754.366
122.308	17.396	983.430	753.451
123.322	17.401	981.963	752.285
124.337	17.440	981.091	751.721
125.352	17.352	980.471	750.791
126.366	17.295	979.388	749.645
127.381	17.450	978.505	749.584
128.395	17.415	977.521	748.611
129.410	17.450	976.797	748.144
130.424	17.542	976.183	748.010
131.439	17.576	975.426	747.513
132.454	17.806	974.195	747.511
133.468	17.789	974.016	747.233
134.483	17.792	972.997	746.401
135.497	17.761	971.954	745.398
136.512	17.711	971.352	744.651
137.527	17.678	970.535	743.817
138.541	17.846	969.404	743.617
139.556	17.768	969.066	742.950
140.570	17.967	968.101	743.012
141.585	18.078	967.498	742.964
142.600	18.049	966.695	742.156
143.614	18.208	965.888	742.161
144.629	18.294	965.198	741.940
145.643	18.113	964.077	740.227
146.658	17.968	962.965	738.678
147.673	17.813	962.039	737.236
148.687	17.811	960.905	736.293
149.702	17.825	959.700	735.364
150.716	17.786	959.099	734.669
151.731	17.743	958.699	734.113
152.746	17.867	957.855	733.937
153.760	17.907	957.215	733.555
154.775	18.076	956.682	733.806
155.789	18.025	955.924	732.938
156.804	17.983	955.443	732.327
157.819	18.029	954.933	732.068
158.833	18.233	953.870	732.060
159.848	18.118	953.519	731.233
160.862	18.143	952.206	730.272
161.877	17.977	950.685	728.331
162.892	17.753	950.352	727.059
163.906	17.825	948.567	725.932
164.921	17.798	948.488	725.692
165.935	17.862	947.693	725.294
166.950	17.912	946.608	724.612
167.964	17.957	945.618	723.978
168.979	17.843	944.855	722.849
169.994	17.921	943.832	722.331
171.008	17.988	943.168	722.044
172.023	18.158	942.430	722.131
173.037	18.341	941.503	722.129
174.052	18.192	941.431	721.383
175.067	17.876	940.855	719.546
176.081	17.782	939.652	718.168
177.096	17.875	939.184	718.136
178.110	17.769	938.969	717.461
179.125	17.848	938.227	717.164
180.140	17.978	937.643	717.202
181.154	18.043	937.339	717.177
182.169	18.117	936.895	717.085
183.183	18.184	936.190	716.761
184.198	18.226	935.431	716.295
185.213	18.324	934.643	716.036
186.227	18.291	933.690	715.106
187.242	18.321	933.658	715.144
188.256	18.446	933.124	715.193
189.271	18.420	932.232	714.336
190.286	18.140	931.204	712.321
191.300	17.729	930.307	709.858
192.315	17.646	929.623	708.929
193.329	17.733	929.274	708.962
194.344	17.969	928.274	709.118
195.359	18.045	927.699	708.928
196.373	18.238	927.513	709.526
197.388	18.155	927.444	709.065
198.402	18.515	926.536	709.798
199.417	18.607	925.721	709.495
200.432	18.719	925.427	709.668
201.446	18.677	925.235	709.285
202.461	18.786	924.577	709.168
203.475	18.701	923.785	708.145
204.490	18.440	923.087	706.474
205.504	18.466	922.001	705.687
206.519	18.325	921.582	704.723
207.534	18.374	920.903	704.343
208.548	18.419	920.157	703.894
209.563	18.343	919.428	702.964
210.577	18.474	918.767	702.932
211.592	18.631	918.515	703.322
212.607	18.791	917.421	703.077
213.621	18.675	916.671	701.966
214.636	18.626	916.076	701.246
215.650	18.646	915.350	700.710
216.665	18.747	914.966	700.769
217.680	18.870	914.251	700.658
218.694	18.848	913.329	699.800
219.709	18.643	913.262	698.853
220.723	18.827	912.150	698.688
221.738	18.762	911.276	697.691
222.753	18.586	911.378	696.995
223.767	18.847	910.275	697.147
224.782	18.827	909.916	696.732
225.796	18.951	909.268	696.675
226.811	18.863	908.841	695.929
227.826	18.691	907.567	694.199
228.840	18.753	906.682	693.708
229.855	18.733	906.213	693.207
230.869	18.675	905.518	692.382
231.884	18.558	905.146	691.563
232.899	18.597	904.239	690.968
233.913	18.544	902.973	689.725
234.928	18.420	902.987	689.177
235.942	18.571	902.014	688.980
236.957	18.458	901.414	688.004
237.972	18.581	900.693	687.886
238.986	18.454	900.264	686.991
240.001	18.503	899.732	686.721
241.015	18.761	899.183	687.274
242.030	18.651	898.888	686.545
243.045	18.900	897.811	686.658
244.059	18.803	897.233	685.769
245.074	18.879	897.112	685.918
246.088	18.843	896.669	685.376
247.103	19.006	895.896	685.373
248.117	19.128	895.504	685.499
249.132	19.383	895.129	686.164
250.147	19.399	894.548	685.725
251.161	19.528	894.020	685.771
252.176	19.348	893.295	684.437
253.190	19.507	892.993	684.778
254.205	19.613	892.256	684.572
255.220	19.601	891.472	683.864
256.234	19.518	890.916	683.048
257.249	19.600	889.980	682.595
258.263	19.654	889.087	682.059
259.278	19.544	888.489	681.108
260.293	19.535	888.319	680.883
261.307	19.713	887.590	680.966
262.322	19.638	887.061	680.201
263.336	19.695	886.467	679.910
264.351	19.749	885.821	679.567
265.366	19.742	884.949	678.812
266.380	19.652	884.528	678.077
267.395	19.528	883.903	677.049
268.409	19.643	882.571	676.421
269.424	19.524	881.925	675.401
270.439	19.560	880.909	674.701
271.453	19.425	880.667	673.931
272.468	19.418	880.123	673.426
273.482	19.569	879.186	673.239
274.497	19.467	878.783	672.474
275.512	19.451	878.167	671.879
276.526	19.484	877.745	671.628
277.541	19.495	877.563	671.471
278.555	19.741	876.925	671.880
279.570	19.936	876.197	672.017
280.585	19.906	875.600	671.386
281.599	19.657	874.477	669.500
282.614	19.691	873.676	668.958
283.628	19.673	873.118	668.405
284.643	19.716	872.614	668.123
285.657	19.599	872.145	667.255
286.672	19.820	871.309	667.407
287.687	19.659	870.778	666.322
288.701	19.586	870.694	665.917
289.716	19.687	869.900	665.641
290.730	19.767	869.229	665.375
291.745	19.704	868.817	664.758
292.760	19.830	868.177	664.695
293.774	19.927	867.363	664.383
294.789	19.861	866.932	663.744
295.803	19.724	866.133	662.548
296.818	19.631	865.691	661.794
297.833	19.559	864.953	660.897
298.847	19.722	864.277	660.943
299.862	19.786	864.182	661.057
300.876	20.023	863.360	661.275
301.891	20.127	862.679	661.092
302.906	20.165	862.430	660.988
303.920	20.226	861.832	660.702
304.935	20.272	861.411	660.498
305.949	20.191	860.619	659.521
306.964	20.100	859.702	658.415
307.979	20.085	859.565	658.197
308.993	20.355	858.800	658.578
310.008	20.120	858.719	657.565
311.022	20.197	857.889	657.164
312.037	19.949	857.289	655.705
313.052	19.979	855.933	654.723
314.066	19.952	855.670	654.363
315.081	19.834	855.001	653.350
316.095	19.822	854.433	652.809
317.110	19.755	854.032	652.195
318.125	19.953	853.629	652.576
319.139	19.976	852.847	652.007
320.154	20.008	852.484	651.792
321.168	19.992	852.236	651.483
322.183	20.016	851.496	650.949
323.197	20.015	850.839	650.387
324.212	20.112	850.332	650.305
325.227	20.004	850.017	649.603
326.241	19.928	849.183	648.623
327.256	19.726	849.214	647.831
328.270	19.906	848.233	647.701
329.285	19.994	847.521	647.428
330.300	19.856	847.031	646.481
331.314	19.988	846.350	646.397
332.329	20.089	846.184	646.588
333.343	20.257	845.708	646.795
334.358	20.107	845.788	646.238
335.373	20.208	845.039	645.984
336.387	20.328	844.412	645.895
337.402	20.381	844.749	646.293
338.416	20.563	843.957	646.307
339.431	20.564	843.833	646.160
340.446	20.575	843.701	646.040
341.460	20.752	842.809	645.960
342.475	20.711	842.641	645.618
343.489	20.705	842.425	645.376
344.504	20.844	842.045	645.543
345.519	20.971	841.282	645.370
346.533	20.714	840.842	644.025
347.548	20.654	839.620	642.811
348.562	20.324	839.299	641.288
349.577	20.338	838.488	640.663
350.592	20.388	837.943	640.374
351.606	20.293	837.289	639.468
352.621	20.453	836.455	639.365
353.635	20.534	835.861	639.149
354.650	20.533	835.590	638.884
355.665	20.521	835.260	638.532
356.679	20.663	834.129	638.131
357.694	20.622	833.807	637.677
358.708	20.706	832.893	637.230
359.723	20.748	832.307	636.881
360.738	20.556	831.969	635.861
361.752	20.706	831.069	635.667
362.767	20.847	830.981	636.058
363.781	21.028	830.367	636.192
364.796	21.004	830.110	635.850
365.810	21.205	829.845	636.325
366.825	21.206	829.159	635.743
367.840	21.047	828.659	634.727
368.854	21.029	828.067	634.153
369.869	20.987	827.588	633.577
370.883	20.956	827.234	633.136
371.898	20.992	827.218	633.197
372.913	21.218	826.373	633.316
373.927	21.084	826.129	632.589
374.942	21.022	825.909	632.137
375.956	21.148	825.169	631.970
376.971	21.335	825.188	632.608
377.986	21.324	824.644	632.095
379.000	21.451	824.072	632.058
380.015	21.412	823.226	631.215
381.029	21.342	822.353	630.236
382.044	21.343	821.903	629.839
383.059	21.403	821.593	629.760
384.073	21.184	820.915	628.398
385.088	21.064	820.270	627.419
386.102	21.090	819.618	626.958
387.117	21.028	818.810	626.062
388.132	20.974	818.401	625.497
389.146	21.202	817.839	625.829
390.161	21.102	817.722	625.327
391.175	21.222	817.319	625.393
392.190	21.258	816.451	624.805
393.205	20.986	816.478	623.794
394.219	21.068	815.930	623.616
395.234	21.100	815.344	623.225
396.248	21.002	814.631	622.277
397.263	20.975	814.161	621.764
398.278	20.964	813.895	621.467
399.292	20.978	813.490	621.153
400.307	20.934	813.342	620.828
401.321	21.112	812.555	620.806
402.336	21.283	811.981	620.921
403.350	21.233	811.664	620.445
404.365	21.463	811.119	620.791
405.380	21.429	810.793	620.367
406.394	21.484	810.319	620.143
407.409	21.654	809.661	620.189
408.423	21.706	809.558	620.238
409.438	21.678	809.244	619.842
410.453	21.686	808.766	619.450
411.467	21.815	808.416	619.582
412.482	21.800	808.202	619.313
413.496	21.902	807.905	619.387
414.511	21.870	807.285	618.747
415.526	21.681	806.812	617.664
416.540	21.629	806.464	617.159
417.555	21.740	806.042	617.173
418.569	21.779	805.682	616.979
419.584	21.694	805.446	616.443
420.599	21.761	804.533	615.927
421.613	158.883	1370.001	1788.947
422.628	138.032	1452.399	1789.078
