DTS Sentinel unit serial number:	SN413079Multiplexer serial number:	ORYXHardware model number:	OX4-SRSoftware version number:	ORYX F/W v4.00 Oryx Data Collector v3.7.2.0data status	okinstallation	princeton_trtdifferential loss correction	single-endedforward channel	channel 1reverse channel	N/Adate	2019/09/16time	08:54:35forward acquisition time	60.00reverse acquisition time	0.00gamma	496.2192k internal	0.2325k external	0.2325temperature offset calibration	0.9981default loss term (dB/km)	0.3790temperature slope calibration	1.0000multiplexer offset coefficient	1.0000multiplexer slope coefficient	1.0000fibre end	0.00T internal ref (°C)	30.17T ext. ref 1 (°C)	12.03T ext. ref 2 (°C)	27.78length (m)	temperature (°C)	Stokes	anti-Stokes-747.200	-81.505	0.277	-0.092
-746.185	246.449	0.096	-0.163
-745.171	243.339	0.124	0.209
-744.156	140.337	-0.176	0.235
-743.142	108.826	-0.180	0.217
-742.127	-134.302	0.511	-0.063
-741.112	-102.305	-0.137	-0.033
-740.098	-70.980	-0.342	0.130
-739.083	266.470	-0.109	0.192
-738.069	-99.184	-0.103	0.026
-737.054	169.722	0.083	-0.119
-736.039	-154.653	-0.133	-0.009
-735.025	-47.706	0.231	-0.113
-734.010	-200.000	-0.009	0.161
-732.996	-200.000	-0.072	-0.401
-731.981	-80.318	0.228	-0.077
-730.966	70.799	0.125	-0.131
-729.952	144.963	-0.147	-0.198
-728.937	-67.883	0.084	-0.033
-727.923	-200.000	-0.006	-0.060
-726.908	-132.652	-0.371	0.048
-725.894	795.976	0.131	-0.364
-724.879	36.731	0.065	-0.058
-723.864	-65.784	-0.344	0.139
-722.850	-76.685	-0.345	0.122
-721.835	276.512	0.089	0.159
-720.821	-56.207	0.180	-0.081
-719.806	170.659	0.153	0.221
-718.791	-31.238	-0.454	-0.258
-717.777	-172.109	0.343	-0.011
-716.762	800.000	-0.068	-0.270
-715.748	89.076	-0.130	-0.146
-714.733	353.517	-0.117	-0.234
-713.718	-52.889	-0.212	-0.098
-712.704	260.109	0.091	-0.159
-711.689	-200.000	0.043	-0.367
-710.675	-200.000	-0.338	0.000
-709.660	-60.367	-0.102	0.044
-708.645	-200.000	0.027	-0.149
-707.631	-141.664	-0.093	0.009
-706.616	-108.296	0.099	-0.022
-705.602	362.762	0.088	-0.178
-704.587	-59.000	-0.341	-0.148
-703.572	74.171	0.177	-0.187
-702.558	504.216	-0.098	-0.229
-701.543	800.000	0.103	-0.292
-700.529	-49.762	0.296	-0.142
-699.514	36.330	-0.111	-0.098
-698.499	-200.000	-0.023	-0.174
-697.485	-200.000	-0.012	-0.311
-696.470	-200.000	-0.003	-0.028
-695.456	5.584	-0.221	-0.164
-694.441	-200.000	-0.007	0.118
-693.426	-200.000	-0.016	0.106
-692.412	-200.000	-0.011	0.077
-691.397	800.000	0.039	-0.123
-690.383	20.311	0.107	-0.087
-689.368	-141.594	-0.163	0.017
-688.354	-200.000	-0.005	-0.313
-687.339	214.611	-0.214	-0.341
-686.324	89.432	-0.114	-0.127
-685.310	37.482	-0.089	-0.080
-684.295	334.897	0.061	-0.119
-683.281	800.000	0.134	-0.386
-682.266	0.377	0.188	-0.135
-681.251	800.000	0.047	-0.178
-680.237	-200.000	0.009	0.221
-679.222	-187.970	0.276	-0.004
-678.208	800.000	-0.069	-0.226
-677.193	-200.000	-0.029	0.156
-676.178	-200.000	-0.027	0.344
-675.164	377.276	0.056	0.115
-674.149	381.710	-0.183	-0.379
-673.135	301.665	-0.135	0.252
-672.120	168.184	-0.107	-0.153
-671.105	-46.945	-0.136	-0.067
-670.091	-200.000	-0.015	-0.200
-669.076	-44.773	0.123	0.062
-668.062	-75.763	-0.338	-0.121
-667.047	-200.000	-0.041	-0.234
-666.032	74.070	-0.153	0.162
-665.018	-200.000	0.004	0.241
-664.003	98.654	-0.037	0.043
-662.989	209.708	-0.168	-0.265
-661.974	-200.000	0.010	0.208
-660.959	-128.082	0.302	-0.043
-659.945	-23.072	-0.104	-0.063
-658.930	800.000	0.022	-0.081
-657.916	619.435	-0.030	-0.075
-656.901	800.000	-0.116	-0.345
-655.886	80.700	-0.134	-0.145
-654.872	-200.000	-0.013	-0.301
-653.857	-200.000	0.034	0.221
-652.843	27.464	0.225	-0.190
-651.828	-43.482	-0.275	-0.140
-650.814	-19.691	-0.339	0.211
-649.799	-22.376	0.264	0.161
-648.784	-154.140	0.158	0.011
-647.770	-77.384	0.062	0.022
-646.755	-51.585	-0.166	-0.078
-645.741	-200.000	-0.011	-0.063
-644.726	-19.296	0.171	-0.107
-643.711	199.630	0.285	-0.439
-642.697	141.804	-0.168	-0.223
-641.682	65.199	-0.182	0.185
-640.668	156.528	-0.067	0.092
-639.653	626.008	-0.062	-0.157
-638.638	-200.000	-0.055	0.317
-637.624	87.373	0.128	-0.142
-636.609	-126.264	0.096	0.014
-635.595	800.000	-0.021	-0.060
-634.580	-16.752	-0.023	0.014
-633.565	800.000	-0.056	-0.228
-632.551	1.340	0.021	-0.015
-631.536	60.599	0.123	0.122
-630.522	-150.044	-0.095	-0.007
-629.507	-3.573	-0.092	0.064
-628.492	-81.341	-0.209	-0.069
-627.478	-200.000	-0.023	-0.256
-626.463	-200.000	0.008	-0.096
-625.449	-42.768	-0.153	-0.078
-624.434	163.105	0.064	0.091
-623.419	356.972	0.101	-0.202
-622.405	-102.191	-0.152	0.037
-621.390	319.174	-0.171	-0.325
-620.376	-200.000	0.010	-0.082
-619.361	77.306	-0.333	0.356
-618.346	800.000	-0.049	-0.198
-617.332	800.000	-0.139	0.390
-616.317	800.000	0.031	-0.092
-615.303	-8.447	-0.211	0.142
-614.288	15.634	-0.103	-0.081
-613.273	197.902	0.192	0.295
-612.259	732.769	-0.028	0.076
-611.244	-200.000	-0.034	-0.285
-610.230	-200.000	0.020	-0.585
-609.215	-200.000	-0.017	-0.217
-608.201	-157.368	-0.197	-0.012
-607.186	773.534	0.117	-0.319
-606.171	-200.000	0.030	-0.230
-605.157	-68.301	-0.367	-0.143
-604.142	60.643	0.254	0.252
-603.128	-153.613	0.045	-0.003
-602.113	-200.000	0.005	0.102
-601.098	-200.000	0.037	0.361
-600.084	-200.000	0.058	-0.300
-599.069	-144.569	-0.230	0.021
-598.055	-42.848	-0.074	-0.038
-597.040	-7.756	0.099	0.067
-596.025	182.193	0.186	-0.275
-595.011	55.548	-0.193	-0.188
-593.996	132.126	0.076	-0.098
-592.982	-200.000	-0.009	-0.110
-591.967	-101.576	-0.135	-0.033
-590.952	-200.000	0.034	0.290
-589.938	60.223	-0.084	-0.084
-588.923	-176.311	-0.124	0.003
-587.909	165.684	-0.148	-0.210
-586.894	-200.000	-0.015	-0.174
-585.879	-149.729	0.050	0.004
-584.865	-89.946	-0.228	-0.067
-583.850	800.000	-0.010	0.043
-582.836	800.000	0.054	-0.165
-581.821	256.555	-0.184	-0.316
-580.806	-17.117	-0.119	-0.075
-579.792	-26.323	-0.023	-0.014
-578.777	-116.050	0.194	0.036
-577.763	800.000	0.074	0.206
-576.748	-130.948	-0.208	-0.028
-575.733	-200.000	0.011	-0.222
-574.719	-101.693	-0.181	0.044
-573.704	399.204	0.076	-0.159
-572.690	74.373	-0.308	-0.325
-571.675	561.559	0.013	-0.032
-570.661	-60.520	0.104	0.044
-569.646	-73.808	0.127	-0.046
-568.631	213.187	-0.195	0.308
-567.617	-121.512	-0.184	-0.031
-566.602	800.000	-0.111	0.317
-565.588	-200.000	0.054	-0.362
-564.573	287.448	-0.106	0.192
-563.558	-84.378	0.141	0.045
-562.544	523.374	-0.025	-0.058
-561.529	-15.003	-0.089	-0.057
-560.515	-145.502	0.130	0.012
-559.500	-200.000	-0.074	-0.585
-558.485	641.623	0.122	-0.312
-557.471	55.771	-0.266	0.259
-556.456	-200.000	0.005	0.180
-555.442	-128.917	0.321	0.045
-554.427	-104.422	-0.379	-0.088
-553.412	146.858	-0.027	0.036
-552.398	171.820	-0.095	0.136
-551.383	-141.616	0.119	0.012
-550.369	-132.068	0.266	0.035
-549.354	-94.945	-0.223	-0.060
-548.339	75.230	0.168	-0.177
-547.325	-200.000	0.004	-0.076
-546.310	61.539	-0.199	-0.198
-545.296	99.443	-0.257	0.297
-544.281	740.248	-0.119	0.319
-543.266	-92.873	-0.157	0.044
-542.252	482.967	0.151	-0.345
-541.237	800.000	-0.043	-0.120
-540.223	800.000	0.056	0.198
-539.208	-46.943	-0.159	-0.078
-538.193	144.427	0.109	-0.146
-537.179	800.000	0.095	0.391
-536.164	-87.177	0.239	-0.073
-535.150	101.680	0.178	-0.208
-534.135	-200.000	0.016	-0.178
-533.121	-117.014	0.118	0.021
-532.106	-167.443	-0.381	0.015
-531.091	770.231	-0.075	-0.203
-530.077	350.760	-0.046	-0.091
-529.062	-200.000	0.030	0.281
-528.048	-176.905	-0.077	-0.002
-527.033	-60.154	-0.301	-0.128
-526.018	-128.634	0.358	0.051
-525.004	-200.000	0.029	0.205
-523.989	103.828	-0.118	0.139
-522.975	-158.413	0.108	-0.006
-521.960	-200.000	0.026	-0.142
-520.945	-116.053	-0.275	0.051
-519.931	-141.465	-0.192	0.019
-518.916	-200.000	0.000	-0.047
-517.902	-61.444	0.439	-0.185
-516.887	154.309	-0.069	-0.094
-515.872	800.000	-0.064	0.251
-514.858	-200.000	0.018	0.306
-513.843	335.194	-0.155	0.301
-512.829	-29.281	-0.043	-0.024
-511.814	-172.101	-0.377	-0.012
-510.799	759.152	0.114	-0.308
-509.785	-103.943	0.392	0.092
-508.770	-6.605	-0.023	0.016
-507.756	800.000	-0.068	0.251
-506.741	-200.000	0.001	0.021
-505.726	-191.106	0.214	0.002
-504.712	-6.473	-0.118	-0.080
-503.697	38.223	0.118	0.105
-502.683	-144.012	0.101	-0.010
-501.668	256.125	0.188	-0.323
-500.653	-78.486	-0.138	-0.047
-499.639	-147.535	0.281	0.024
-498.624	108.572	-0.143	0.171
-497.610	379.383	0.106	-0.216
-496.595	-46.527	0.219	-0.107
-495.581	-101.683	-0.282	-0.068
-494.566	800.000	0.072	-0.315
-493.551	89.829	-0.202	-0.225
-492.537	528.104	0.058	0.136
-491.522	-114.257	0.390	0.075
-490.508	-200.000	-0.020	-0.128
-489.493	-166.606	0.064	0.003
-488.478	-78.777	-0.251	-0.085
-487.464	-90.040	0.380	0.111
-486.449	-86.628	0.283	0.087
-485.435	44.546	-0.250	-0.229
-484.420	148.416	0.014	0.019
-483.405	800.000	-0.014	0.043
-482.391	51.670	-0.388	0.369
-481.376	-60.952	-0.060	-0.025
-480.362	-49.650	-0.094	0.044
-479.347	6.006	0.054	-0.040
-478.332	104.621	-0.023	0.027
-477.318	-187.865	0.136	0.002
-476.303	-200.000	-0.026	-0.192
-475.289	-110.468	-0.088	0.018
-474.274	-148.100	0.228	-0.019
-473.259	800.000	-0.029	0.105
-472.245	-198.014	0.219	0.001
-471.230	36.895	0.218	0.192
-470.216	-85.711	-0.170	0.053
-469.201	800.000	-0.013	0.046
-468.186	15.464	-0.122	-0.096
-467.172	800.000	0.076	0.271
-466.157	-200.000	-0.018	-0.110
-465.143	106.462	0.124	0.147
-464.128	800.000	-0.049	-0.185
-463.113	-87.831	-0.222	-0.067
-462.099	521.486	-0.126	-0.296
-461.084	-49.669	0.235	0.112
-460.070	111.454	0.034	-0.040
-459.055	-200.000	-0.159	0.000
-458.040	-116.466	0.289	-0.053
-457.026	-111.135	-0.202	0.041
-456.011	-110.902	0.212	-0.043
-454.997	-65.958	0.344	0.137
-453.982	168.805	0.073	0.104
-452.968	-0.106	0.179	0.127
-451.953	-168.665	-0.414	0.016
-450.938	-90.766	-0.263	-0.076
-449.924	-79.585	-0.088	-0.030
-448.909	-66.040	0.112	0.045
-447.895	94.314	0.192	0.217
-446.880	-55.275	-0.044	-0.020
-445.865	379.918	0.087	-0.177
-444.851	-6.163	0.294	-0.200
-443.836	-200.000	-0.008	0.051
-442.822	-26.768	0.299	-0.174
-441.807	-138.073	0.488	0.054
-440.792	-144.578	-0.100	-0.009
-439.778	-192.423	0.218	0.002
-438.763	-200.000	-0.000	-0.036
-437.749	-112.432	-0.085	0.017
-436.734	-62.507	-0.129	-0.053
-435.719	497.080	0.083	0.190
-434.705	-105.219	0.104	0.024
-433.690	7.025	-0.276	-0.205
-432.676	8.086	0.039	-0.029
-431.661	800.000	0.034	0.120
-430.646	-167.472	-0.171	0.007
-429.632	-200.000	-0.015	0.156
-428.617	-43.098	-0.114	-0.057
-427.603	-173.700	-0.106	-0.003
-426.588	-200.000	-0.038	-0.334
-425.573	-125.363	0.241	-0.037
-424.559	212.842	0.086	-0.136
-423.544	-132.823	-0.130	-0.017
-422.530	-200.000	-0.009	-0.159
-421.515	142.497	-0.087	0.115
-420.500	-62.230	-0.192	0.080
-419.486	95.543	0.108	0.123
-418.471	-100.965	-0.102	-0.025
-417.457	584.112	0.089	-0.218
-416.442	21.612	0.164	-0.133
-415.428	249.835	-0.069	-0.117
-414.413	-123.705	0.330	-0.052
-413.398	106.828	-0.179	-0.212
-412.384	17.107	-0.042	0.033
-411.369	-38.600	-0.336	-0.177
-410.355	-81.766	0.112	-0.037
-409.340	-161.709	-0.647	0.033
-408.325	36.150	-0.238	-0.209
-407.311	133.290	-0.127	-0.163
-406.296	-200.000	0.008	0.057
-405.282	-200.000	-0.029	-0.239
-404.267	-22.619	-0.245	-0.147
-403.252	124.356	0.361	0.452
-402.238	-200.000	-0.018	-0.237
-401.223	-20.466	-0.353	0.216
-400.209	-90.671	0.122	0.035
-399.194	26.856	0.345	0.288
-398.179	-6.751	0.267	0.181
-397.165	131.272	0.202	-0.258
-396.150	-10.165	0.139	0.092
-395.136	-28.919	0.120	0.069
-394.121	757.378	-0.052	0.141
-393.106	209.329	0.035	-0.054
-392.092	104.129	-0.289	0.339
-391.077	-141.794	0.172	0.017
-390.063	-120.858	0.385	-0.065
-389.048	386.648	0.089	0.183
-388.033	800.000	-0.087	-0.247
-387.019	800.000	-0.071	-0.208
-386.004	-56.438	-0.195	-0.086
-384.990	-126.486	-0.146	-0.022
-383.975	800.000	-0.084	0.353
-382.960	-200.000	-0.027	0.258
-381.946	494.477	0.140	-0.320
-380.931	-43.614	0.052	0.026
-379.917	-200.000	-0.036	-0.262
-378.902	-133.615	0.138	0.017
-377.888	-162.858	-0.175	-0.008
-376.873	40.440	-0.127	-0.114
-375.858	-200.000	-0.027	0.284
-374.844	-124.316	0.074	-0.011
-373.829	221.805	-0.122	0.195
-372.815	390.280	0.101	-0.209
-371.800	-140.886	0.149	-0.015
-370.785	291.295	-0.103	-0.186
-369.771	59.017	0.168	-0.164
-368.756	105.009	-0.147	0.172
-367.742	9.434	0.158	-0.119
-366.727	-200.000	-0.023	0.245
-365.712	141.793	-0.303	0.400
-364.698	-133.984	-0.183	0.023
-363.683	42.793	-0.141	0.127
-362.669	800.000	0.071	0.274
-361.654	84.189	0.230	0.250
-360.639	-40.122	0.324	0.168
-359.625	-35.499	-0.276	-0.149
-358.610	-121.804	-0.041	0.007
-357.596	-200.000	0.026	-0.180
-356.581	128.721	-0.057	0.072
-355.566	-125.096	0.116	-0.018
-354.552	72.346	-0.118	-0.123
-353.537	800.000	-0.043	-0.146
-352.523	576.283	-0.030	0.073
-351.508	71.439	-0.206	-0.212
-350.493	-58.290	-0.132	0.057
-349.479	-95.201	-0.057	-0.015
-348.464	-30.533	-0.044	-0.025
-347.450	-159.668	0.065	-0.004
-346.435	-67.616	0.281	-0.110
-345.420	302.746	-0.063	0.116
-344.406	175.718	0.199	-0.287
-343.391	531.780	-0.021	0.049
-342.377	306.251	0.026	0.048
-341.362	-200.000	-0.040	-0.238
-340.348	-83.523	0.133	-0.042
-339.333	-11.953	0.082	0.053
-338.318	231.388	-0.112	-0.182
-337.304	-200.000	0.048	0.263
-336.289	-62.596	-0.209	0.086
-335.275	483.567	-0.082	-0.186
-334.260	105.762	0.235	-0.275
-333.245	-116.818	0.322	-0.059
-332.231	341.436	0.134	0.260
-331.216	317.603	0.130	-0.244
-330.202	-187.912	-0.124	0.002
-329.187	-200.000	-0.035	-0.193
-328.172	66.437	-0.114	0.115
-327.158	-53.658	-0.072	-0.033
-326.143	203.396	-0.109	0.167
-325.129	441.869	-0.055	0.120
-324.114	169.741	0.211	0.299
-323.099	338.025	-0.113	0.219
-322.085	-120.207	-0.099	0.017
-321.070	-117.740	0.387	-0.069
-320.056	-200.000	-0.041	-0.205
-319.041	-118.158	0.186	0.033
-318.026	-200.000	-0.006	-0.084
-317.012	-36.249	0.173	-0.093
-315.997	637.120	0.097	0.244
-314.983	431.821	-0.124	0.267
-313.968	476.938	-0.047	-0.106
-312.953	44.627	0.270	-0.246
-311.939	-121.638	-0.318	-0.052
-310.924	-15.817	0.203	0.128
-309.910	-66.454	0.136	-0.054
-308.895	261.251	-0.199	0.342
-307.880	-200.000	-0.030	0.362
-306.866	-111.315	-0.691	-0.140
-305.851	-51.899	0.117	-0.054
-304.837	-126.268	0.264	-0.039
-303.822	-177.725	-0.082	-0.002
-302.807	-200.000	0.043	0.338
-301.793	-159.884	-0.324	0.018
-300.778	220.853	0.167	0.265
-299.764	9.795	-0.189	0.142
-298.749	800.000	-0.062	0.213
-297.735	-73.246	0.198	0.072
-296.720	113.292	0.319	0.384
-295.705	89.420	-0.149	0.165
-294.691	141.730	0.035	-0.046
-293.676	91.956	-0.190	0.213
-292.662	24.249	0.247	0.203
-291.647	607.373	0.156	-0.386
-290.632	-104.664	-0.253	0.058
-289.618	-49.471	0.277	0.131
-288.603	-42.804	-0.185	0.093
-287.589	-11.033	-0.108	0.070
-286.574	58.279	0.083	0.081
-285.559	54.257	0.060	0.057
-284.545	800.000	-0.086	-0.372
-283.530	-200.000	-0.001	0.057
-282.516	800.000	0.086	0.242
-281.501	37.092	0.182	0.159
-280.486	169.488	0.078	-0.110
-279.472	-200.000	0.040	-0.261
-278.457	11.235	-0.047	-0.036
-277.443	65.590	-0.175	0.175
-276.428	293.271	-0.152	-0.274
-275.413	-81.530	0.566	0.184
-274.399	-200.000	0.026	0.312
-273.384	14.152	-0.189	0.145
-272.370	-114.184	0.139	0.027
-271.355	39.392	0.099	0.088
-270.340	-87.550	0.403	-0.121
-269.326	-18.555	-0.271	0.168
-268.311	800.000	0.071	0.294
-267.297	-54.965	0.048	0.021
-266.282	96.038	-0.127	0.144
-265.267	69.101	-0.139	0.142
-264.253	800.000	-0.110	-0.449
-263.238	800.000	-0.023	-0.096
-262.224	-34.050	0.170	0.092
-261.209	-200.000	0.034	0.186
-260.195	-200.000	0.039	-0.173
-259.180	657.490	0.074	-0.188
-258.165	-1.014	-0.120	0.084
-257.151	-87.439	-0.343	0.103
-256.136	102.719	0.119	-0.138
-255.122	-46.873	-0.071	0.034
-254.107	273.026	-0.108	0.189
-253.092	-200.000	0.057	0.268
-252.078	-137.864	0.123	-0.014
-251.063	51.998	0.117	-0.110
-250.049	-200.000	-0.067	0.307
-249.034	365.809	-0.066	-0.131
-248.019	800.000	-0.037	0.141
-247.005	-65.958	0.110	-0.044
-245.990	-135.627	-0.267	0.031
-244.976	-200.000	-0.009	0.093
-243.961	-98.774	-0.179	-0.045
-242.946	-200.000	0.003	0.186
-241.932	-200.000	-0.074	-0.377
-240.917	112.141	0.128	0.153
-239.903	3.571	0.043	0.031
-238.888	-1.635	0.393	0.274
-237.873	-96.044	0.194	0.051
-236.859	-200.000	0.021	0.204
-235.844	-91.887	0.178	0.050
-234.830	-116.103	0.530	0.097
-233.815	800.000	0.027	0.114
-232.800	-200.000	-0.000	0.171
-231.786	152.483	0.129	-0.174
-230.771	136.575	0.159	-0.205
-229.757	70.736	-0.142	0.145
-228.742	147.186	-0.127	-0.169
-227.727	53.196	0.154	-0.146
-226.713	503.807	0.172	-0.392
-225.698	305.313	0.130	0.239
-224.684	-128.468	-0.034	-0.005
-223.669	-42.666	-0.199	0.100
-222.655	13.070	0.130	0.099
-221.640	-61.958	-0.377	-0.156
-220.625	364.109	-0.087	0.174
-219.611	-200.000	0.000	0.268
-218.596	800.000	0.067	0.267
-217.582	-48.343	-0.183	-0.087
-216.567	-200.000	-0.054	-0.242
-215.552	11.796	-0.227	-0.172
-214.538	800.000	-0.081	-0.293
-213.523	-200.000	0.013	-0.096
-212.509	-72.625	0.141	0.051
-211.494	-200.000	0.023	0.122
-210.479	800.000	0.056	0.152
-209.465	67.927	-0.133	0.134
-208.450	92.400	0.089	0.099
-207.436	5.132	-0.134	0.098
-206.421	-3.219	0.366	0.252
-205.406	45.823	0.170	0.155
-204.392	-76.304	0.274	-0.095
-203.377	48.706	-0.099	-0.092
-202.363	164.908	-0.123	0.171
-201.348	-93.048	0.224	0.062
-200.333	-92.093	-0.224	-0.063
-199.319	48.460	0.081	-0.075
-198.304	-18.925	0.337	0.207
-197.290	-129.856	-0.487	0.066
-196.275	-80.128	-0.032	0.011
-195.260	7.039	0.229	-0.169
-194.246	800.000	-0.103	0.347
-193.231	-133.150	-0.295	0.037
-192.217	-10.395	0.147	-0.096
-191.202	109.936	-0.103	0.122
-190.187	151.251	0.113	0.152
-189.173	119.246	0.068	0.083
-188.158	648.708	-0.028	-0.070
-187.144	36.066	0.095	0.083
-186.129	-200.000	-0.008	0.104
-185.114	-163.718	-0.364	0.017
-184.100	-200.000	0.003	-0.365
-183.085	-200.000	-0.018	-0.151
-182.071	-84.547	-0.302	0.094
-181.056	28.725	-0.092	-0.077
-180.042	0.011	0.325	-0.229
-179.027	800.000	-0.027	0.104
-178.012	-200.000	-0.017	0.199
-176.998	-107.266	-0.087	-0.019
-175.983	-200.000	0.027	-0.164
-174.969	800.000	0.040	0.149
-173.954	74.463	0.046	0.047
-172.939	-155.534	0.280	-0.018
-171.925	98.834	-0.077	0.087
-170.910	-200.000	-0.018	-0.218
-169.896	800.000	-0.074	-0.269
-168.881	553.609	0.163	-0.386
-167.866	91.752	0.136	0.151
-166.852	-37.661	0.229	0.120
-165.837	61.443	-0.129	-0.127
-164.823	-109.070	0.117	-0.025
-163.808	-137.589	0.275	-0.031
-162.793	-200.000	-0.005	-0.136
-161.779	-116.753	-0.082	-0.015
-160.764	1.113	-0.172	-0.122
-159.750	-112.162	-0.073	-0.014
-158.735	154.117	0.112	-0.151
-157.720	327.140	-0.074	-0.139
-156.706	-200.000	0.028	0.327
-155.691	-64.023	-0.230	-0.093
-154.677	165.975	0.118	0.164
-153.662	35.165	-0.229	0.198
-152.647	-115.841	0.052	-0.010
-151.633	-200.000	0.031	0.188
-150.618	-64.424	-0.201	-0.081
-149.604	-167.603	-0.366	0.014
-148.589	-73.297	0.217	0.078
-147.574	-200.000	-0.019	-0.194
-146.560	9.261	-0.231	0.172
-145.545	-200.000	-0.025	0.291
-144.531	-127.276	0.051	0.007
-143.516	29.604	0.254	0.213
-142.502	-127.727	0.224	-0.032
-141.487	800.000	-0.037	-0.149
-140.472	553.879	-0.065	0.153
-139.458	119.276	-0.131	-0.159
-138.443	164.037	0.191	0.265
-137.429	-200.000	0.036	-0.226
-136.414	800.000	-0.134	0.416
-135.399	-12.934	-0.188	0.120
-134.385	8.826	0.077	0.057
-133.370	-37.395	0.404	0.212
-132.356	800.000	-0.108	0.370
-131.341	184.552	-0.057	0.083
-130.326	66.178	0.140	0.140
-129.312	-200.000	-0.017	0.117
-128.297	30.830	-0.180	0.152
-127.283	110.936	0.040	-0.047
-126.268	73.637	0.048	-0.050
-125.253	800.000	0.087	-0.333
-124.239	49.533	0.067	0.062
-123.224	-200.000	0.111	-0.000
-122.210	800.000	0.093	-0.275
-121.195	-158.165	0.304	-0.018
-120.180	325.237	-0.087	-0.163
-119.166	-176.361	-0.323	0.008
-118.151	-107.228	-0.120	0.026
-117.137	-21.042	-0.119	-0.072
-116.122	-95.252	0.149	0.039
-115.107	53.298	0.029	-0.027
-114.093	0.768	0.150	0.106
-113.078	-71.827	0.117	0.043
-112.064	227.584	0.079	0.126
-111.049	-122.940	-0.156	0.025
-110.034	183.425	-0.014	-0.020
-109.020	326.726	0.141	-0.266
-108.005	-106.369	0.215	-0.047
-106.991	194.237	0.019	-0.029
-105.976	-200.000	0.033	0.233
-104.962	-200.000	0.030	-0.177
-103.947	800.000	-0.058	0.203
-102.932	337.464	-0.085	0.163
-101.918	150.074	0.188	-0.251
-100.903	-200.000	0.031	-0.147
-99.889	24.878	-0.126	-0.103
-98.874	800.000	-0.044	-0.177
-97.859	124.909	-0.111	0.137
-96.845	-200.000	-0.071	-0.324
-95.830	354.637	0.021	-0.042
-94.816	-15.289	0.284	0.179
-93.801	45.110	0.244	0.221
-92.786	513.489	0.014	-0.031
-91.772	-200.000	-0.010	0.237
-90.757	-105.206	0.145	0.032
-89.743	-79.952	0.175	-0.058
-88.728	-200.000	-0.023	-0.361
-87.713	-142.665	0.129	0.012
-86.699	132.192	-0.092	0.117
-85.684	-86.224	-0.074	0.023
-84.670	2.850	0.183	-0.131
-83.655	-200.000	0.053	0.408
-82.640	-200.000	0.034	0.165
-81.626	84.076	-0.384	-0.412
-80.611	-86.744	0.391	0.118
-79.597	-121.957	0.235	0.038
-78.582	136.561	-0.010	-0.013
-77.567	723.932	-0.129	-0.338
-76.553	-21.986	0.083	-0.049
-75.538	-200.000	0.004	0.179
-74.524	-45.684	-0.200	-0.097
-73.509	10.306	-0.096	0.072
-72.494	8.955	0.277	0.206
-71.480	-159.191	-0.094	-0.005
-70.465	-200.000	-0.015	-0.143
-69.451	72.536	-0.194	0.199
-68.436	45.772	-0.209	0.190
-67.422	29.667	-0.204	-0.171
-66.407	145.471	0.196	0.259
-65.392	73.692	-0.029	-0.030
-64.378	-12.070	0.185	0.119
-63.363	-200.000	0.018	-0.141
-62.349	-30.541	-0.193	0.107
-61.334	-23.171	-1.017	-0.601
-60.319	92.974	0.536	0.595
-59.305	-200.000	-0.212	-0.943
-58.290	158.752	0.836	1.140
-57.276	-200.000	0.163	1.086
-56.261	-200.000	101.531	572.115
-55.246	476.489	1437.189	3190.924
-54.232	151.399	2627.683	3514.206
-53.217	109.583	2166.906	2550.457
-52.203	42.237	1607.327	1434.267
-51.188	33.659	1340.008	1144.222
-50.173	30.476	1298.145	1089.800
-49.159	53.351	1347.978	1268.863
-48.144	54.684	1365.002	1292.804
-47.130	33.886	1321.484	1129.576
-46.115	30.389	1303.939	1093.975
-45.100	30.215	1298.821	1088.615
-44.086	30.066	1296.746	1085.964
-43.071	29.967	1294.250	1083.248
-42.057	30.022	1291.894	1081.555
-41.042	30.122	1290.467	1080.904
-40.027	30.067	1289.406	1079.650
-39.013	30.058	1287.501	1077.959
-37.998	30.165	1285.136	1076.556
-36.984	30.158	1283.894	1075.431
-35.969	30.198	1281.805	1073.872
-34.954	30.180	1280.480	1072.615
-33.940	30.317	1278.743	1071.913
-32.925	30.185	1277.918	1070.415
-31.911	30.320	1275.613	1069.216
-30.896	30.282	1274.260	1067.822
-29.881	30.362	1272.904	1067.105
-28.867	30.277	1271.538	1065.429
-27.852	30.333	1270.295	1064.669
-26.838	30.343	1268.942	1063.547
-25.823	30.279	1267.491	1061.921
-24.809	30.346	1266.155	1061.146
-23.794	30.168	1265.613	1059.634
-22.779	30.318	1263.471	1058.652
-21.765	30.283	1262.484	1057.581
-20.750	30.213	1261.259	1056.117
-19.736	30.206	1260.381	1055.298
-18.721	30.141	1258.810	1053.574
-17.706	30.044	1257.820	1052.150
-16.692	30.177	1256.261	1051.561
-15.677	29.934	1256.133	1050.035
-14.663	30.154	1253.622	1049.136
-13.648	30.091	1253.503	1048.640
-12.633	30.083	1252.243	1047.497
-11.619	30.069	1251.457	1046.722
-10.604	30.133	1250.786	1046.480
-9.590	30.049	1249.590	1044.965
-8.575	29.934	1248.665	1043.499
-7.560	30.121	1247.335	1043.402
-6.546	30.057	1246.969	1042.690
-5.531	30.083	1245.940	1041.939
-4.517	30.041	1245.322	1041.144
-3.502	30.020	1244.540	1040.331
-2.487	30.141	1243.029	1039.704
-1.473	30.188	1239.366	1036.859
-0.458	29.315	1225.594	1020.472
0.556	25.279	1209.248	988.162
1.571	22.092	1216.142	976.029
2.586	21.311	1231.758	984.079
3.600	21.021	1220.702	973.543
4.615	18.548	1154.195	907.348
5.629	14.352	1085.715	832.510
6.644	12.188	1067.753	808.020
7.659	12.059	1066.040	806.017
8.673	11.969	1064.631	804.440
9.688	11.915	1063.305	803.101
10.702	12.380	1061.345	803.824
11.717	15.051	1064.921	819.557
12.731	18.528	1068.461	839.259
13.746	18.699	1068.399	839.975
14.761	17.700	1066.525	833.545
15.775	16.857	1063.933	827.331
16.790	15.616	1062.381	819.999
17.804	14.887	1060.781	815.139
18.819	14.482	1059.473	812.086
19.834	14.177	1058.634	809.888
20.848	13.907	1058.068	808.069
21.863	13.653	1057.112	806.034
22.877	13.623	1056.135	805.073
23.892	13.632	1054.984	804.166
24.907	13.627	1054.281	803.536
25.921	13.533	1053.452	802.379
26.936	13.720	1051.742	801.911
27.950	13.646	1050.999	800.915
28.965	13.703	1049.115	799.680
29.980	13.802	1047.556	798.898
30.994	13.838	1046.334	798.070
32.009	13.807	1045.671	797.343
33.023	13.766	1044.830	796.437
34.038	13.835	1043.453	795.648
35.053	13.732	1042.479	794.342
36.067	13.717	1041.472	793.431
37.082	13.675	1041.015	792.812
38.096	13.771	1040.277	792.638
39.111	13.848	1039.112	792.046
40.126	13.659	1038.223	790.402
41.140	13.551	1037.371	789.168
42.155	13.582	1035.911	788.131
43.169	13.563	1034.629	786.998
44.184	13.543	1033.599	786.051
45.199	13.581	1032.695	785.473
46.213	13.454	1031.932	784.220
47.228	13.690	1030.790	784.404
48.242	13.704	1029.439	783.372
49.257	13.594	1028.973	782.426
50.271	13.691	1028.062	782.120
51.286	13.782	1026.987	781.662
52.301	13.610	1026.495	780.409
53.315	13.577	1024.784	778.884
54.330	13.650	1023.844	778.445
55.344	13.482	1023.126	777.041
56.359	13.572	1022.248	776.729
57.374	13.675	1021.106	776.274
58.388	13.608	1019.986	775.040
59.403	13.601	1019.311	774.427
60.417	13.460	1018.979	773.447
61.432	13.462	1018.131	772.743
62.447	13.500	1017.459	772.342
63.461	13.439	1016.430	771.208
64.476	13.385	1015.301	770.032
65.490	13.355	1014.861	769.490
66.505	13.483	1013.846	769.247
67.520	13.482	1013.310	768.770
68.534	13.568	1012.660	768.607
69.549	13.513	1012.124	767.879
70.563	13.485	1011.366	767.104
71.578	13.407	1010.570	766.074
72.593	13.386	1009.117	764.807
73.607	13.362	1008.979	764.524
74.622	13.504	1008.112	764.451
75.636	13.407	1007.484	763.461
76.651	13.396	1006.871	762.878
77.666	13.316	1006.115	761.872
78.680	13.330	1005.647	761.512
79.695	13.346	1005.222	761.200
80.709	13.533	1004.167	761.191
81.724	13.445	1003.914	760.527
82.739	13.506	1002.822	759.913
83.753	13.704	1002.225	760.302
84.768	13.774	1000.905	759.551
85.782	13.826	1000.209	759.196
86.797	13.744	999.752	758.408
87.812	13.726	998.588	757.377
88.826	13.600	998.105	756.369
89.841	13.754	996.668	755.912
90.855	13.755	995.839	755.219
91.870	13.608	995.503	754.232
92.884	13.840	994.279	754.289
93.899	13.769	993.516	753.324
94.914	13.814	992.787	752.907
95.928	13.872	991.992	752.500
96.943	13.769	990.898	751.140
97.957	13.831	989.815	750.531
98.972	13.719	989.355	749.608
99.987	13.812	988.014	748.947
101.001	13.790	987.478	748.373
102.016	13.748	986.648	747.489
103.030	13.701	985.921	746.664
104.045	13.839	985.140	746.625
105.060	13.735	984.304	745.458
106.074	13.560	983.628	744.096
107.089	13.596	982.622	743.428
108.103	13.620	981.585	742.688
109.118	13.616	980.603	741.860
110.133	13.678	979.797	741.461
111.147	13.678	978.600	740.491
112.162	13.684	978.065	740.048
113.176	13.675	977.283	739.350
114.191	13.674	976.709	738.844
115.206	13.652	975.959	738.117
116.220	13.644	975.162	737.411
117.235	13.736	973.919	736.815
118.249	13.703	973.468	736.263
119.264	13.625	972.823	735.362
120.279	13.657	971.814	734.676
121.293	13.656	970.922	733.935
122.308	13.497	970.288	732.683
123.322	13.617	968.993	732.175
124.337	13.543	968.382	731.319
125.352	13.518	967.158	730.222
126.366	13.597	966.327	729.877
127.381	13.605	965.325	729.090
128.395	13.523	964.444	728.001
129.410	13.625	963.774	727.876
130.424	13.648	962.731	727.127
131.439	13.622	961.950	726.357
132.454	13.748	961.100	726.204
133.468	13.694	960.278	725.285
134.483	13.737	959.597	724.890
135.497	13.737	958.803	724.228
136.512	13.664	957.812	723.099
137.527	13.781	956.717	722.717
138.541	13.709	956.580	722.236
139.556	13.683	956.029	721.643
140.570	13.815	955.025	721.395
141.585	13.905	953.999	720.946
142.600	13.848	953.202	720.032
143.614	13.914	952.557	719.769
144.629	13.830	951.822	718.787
145.643	13.809	950.868	717.911
146.658	13.751	949.990	716.932
147.673	13.829	948.711	716.242
148.687	13.691	948.285	715.261
149.702	13.825	947.268	715.010
150.716	13.706	946.644	713.963
151.731	13.856	945.595	713.754
152.746	13.707	945.458	712.946
153.760	13.925	944.587	713.161
154.775	13.959	944.275	713.008
155.789	13.946	943.622	712.395
156.804	13.917	942.686	711.502
157.819	13.776	942.511	710.703
158.833	13.941	941.669	710.710
159.848	13.966	940.296	709.719
160.862	14.001	939.397	709.128
161.877	13.915	938.336	707.899
162.892	14.014	937.436	707.577
163.906	13.818	936.832	706.226
164.921	13.923	935.922	705.923
165.935	13.985	934.765	705.251
166.950	14.015	934.315	704.977
167.964	13.909	933.432	703.798
168.979	14.019	932.415	703.436
169.994	13.861	932.203	702.544
171.008	13.806	931.279	701.555
172.023	14.096	930.684	702.268
173.037	14.231	929.586	701.946
174.052	14.087	928.991	700.826
175.067	13.872	928.422	699.430
176.081	13.924	927.858	699.163
177.096	13.976	927.317	698.912
178.110	13.977	926.891	698.535
179.125	14.053	925.490	697.736
180.140	14.037	925.778	697.823
181.154	13.989	925.247	697.161
182.169	14.098	924.929	697.314
183.183	14.221	923.934	697.020
184.198	14.245	923.191	696.497
185.213	14.272	922.398	695.948
186.227	14.280	922.001	695.623
187.242	14.264	921.146	694.848
188.256	14.351	920.612	694.749
189.271	14.316	919.807	693.931
190.286	14.233	919.048	692.953
191.300	13.968	918.226	691.171
192.315	14.002	917.488	690.697
193.329	14.088	917.336	690.877
194.344	14.133	916.449	690.334
195.359	14.170	915.893	690.006
196.373	14.282	915.261	689.934
197.388	14.316	915.083	689.880
198.402	14.371	914.362	689.503
199.417	14.469	913.753	689.389
200.432	14.471	912.902	688.692
201.446	14.482	912.423	688.316
202.461	14.539	912.150	688.285
203.475	14.481	911.534	687.521
204.490	14.581	910.616	687.180
205.504	14.464	909.708	685.953
206.519	14.386	909.270	685.240
207.534	14.338	908.464	684.373
208.548	14.506	907.513	684.286
209.563	14.515	907.127	683.974
210.577	14.502	906.707	683.540
211.592	14.674	905.802	683.502
212.607	14.748	904.862	683.036
213.621	14.648	904.226	682.087
214.636	14.750	903.754	682.089
215.650	14.697	903.124	681.334
216.665	14.782	901.871	680.675
217.680	14.730	901.507	680.129
218.694	14.714	901.193	679.767
219.709	14.819	900.459	679.579
220.723	14.683	900.052	678.659
221.738	14.810	898.986	678.311
222.753	14.829	898.370	677.864
223.767	14.802	898.139	677.522
224.782	14.887	897.376	677.231
225.796	14.871	897.191	676.963
226.811	14.898	896.246	676.301
227.826	14.798	895.567	675.326
228.840	14.857	894.599	674.772
229.855	14.835	893.773	674.002
230.869	14.823	893.215	673.472
231.884	14.769	892.732	672.834
232.899	14.803	892.153	672.472
233.913	14.784	891.175	671.598
234.928	14.785	890.360	670.930
235.942	14.710	890.243	670.481
236.957	14.759	889.448	670.019
237.972	14.824	888.882	669.796
238.986	14.674	888.514	668.859
240.001	14.882	887.422	668.810
241.015	14.824	887.097	668.274
242.030	14.916	886.251	667.942
243.045	14.852	885.737	667.241
244.059	15.026	884.933	667.270
245.074	14.902	884.367	666.291
246.088	14.978	883.642	665.988
247.103	14.973	883.178	665.560
248.117	15.025	882.975	665.553
249.132	15.272	881.975	665.721
250.147	15.268	881.627	665.385
251.161	15.180	881.212	664.665
252.176	15.283	880.273	664.306
253.190	15.333	879.601	663.938
254.205	15.492	878.917	663.991
255.220	15.297	878.709	663.004
256.234	15.433	877.815	662.806
257.249	15.327	877.077	661.773
258.263	15.355	876.360	661.286
259.278	15.405	875.759	660.969
260.293	15.440	875.324	660.720
261.307	15.398	874.400	659.800
262.322	15.426	874.298	659.774
263.336	15.434	873.049	658.807
264.351	15.578	871.938	658.473
265.366	15.611	871.625	658.306
266.380	15.622	871.338	658.077
267.395	15.738	869.485	657.071
268.409	15.539	869.889	656.541
269.424	15.469	869.164	655.661
270.439	15.563	868.621	655.560
271.453	15.579	867.485	654.709
272.468	15.500	867.130	654.074
273.482	15.620	866.593	654.077
274.497	15.590	865.854	653.347
275.512	15.563	865.654	653.033
276.526	15.716	864.938	653.030
277.541	15.753	864.463	652.755
278.555	15.599	864.221	651.916
279.570	15.804	863.297	651.958
280.585	15.762	862.639	651.242
281.599	15.772	861.851	650.627
282.614	15.736	860.969	649.765
283.628	15.747	860.719	649.559
284.643	15.816	859.807	649.082
285.657	15.738	859.458	648.461
286.672	15.554	858.898	647.269
287.687	15.807	858.196	647.658
288.701	15.916	857.862	647.767
289.716	15.861	857.064	646.895
290.730	15.870	856.675	646.581
291.745	15.909	855.978	646.149
292.760	15.875	855.462	645.568
293.774	15.871	855.162	645.272
294.789	15.936	854.259	644.782
295.803	15.822	853.508	643.723
296.818	15.765	852.895	642.986
297.833	15.877	852.134	642.780
298.847	15.988	851.446	642.631
299.862	15.935	850.602	641.734
300.876	16.064	850.408	642.021
301.891	16.026	849.760	641.329
302.906	16.112	849.488	641.394
303.920	16.131	848.691	640.810
304.935	16.086	848.908	640.744
305.949	16.144	847.814	640.084
306.964	16.159	846.925	639.412
307.979	16.171	846.499	639.082
308.993	16.241	845.938	638.863
310.008	16.287	845.402	638.579
311.022	16.299	844.512	637.894
312.037	16.150	844.517	637.277
313.052	16.239	843.311	636.648
314.066	16.269	842.620	636.183
315.081	16.059	842.871	635.524
316.095	16.143	842.113	635.214
317.110	16.194	841.209	634.668
318.125	16.228	840.595	634.273
319.139	16.222	840.081	633.807
320.154	16.233	839.816	633.592
321.168	16.129	839.500	632.910
322.183	16.211	838.978	632.766
323.197	16.253	838.291	632.350
324.212	16.407	837.375	632.179
325.227	16.193	837.123	631.134
326.241	16.184	836.712	630.734
327.256	16.285	836.236	630.696
328.270	16.303	835.723	630.320
329.285	16.334	834.894	629.757
330.300	16.268	834.052	628.820
331.314	16.252	834.197	628.814
332.329	16.376	833.592	628.762
333.343	16.423	832.993	628.429
334.358	16.387	832.692	628.012
335.373	16.397	832.357	627.741
336.387	16.456	832.187	627.776
337.402	16.378	831.733	627.088
338.416	16.497	831.204	627.076
339.431	16.644	830.747	627.222
340.446	16.714	830.346	627.122
341.460	16.640	830.007	626.536
342.475	16.638	829.869	626.371
343.489	16.766	829.149	626.246
344.504	16.800	828.465	625.797
345.519	16.697	828.426	625.334
346.533	16.681	827.658	624.640
347.548	16.763	827.183	624.526
348.562	16.586	827.031	623.705
349.577	16.603	826.141	623.042
350.592	16.676	825.390	622.689
351.606	16.550	824.846	621.760
352.621	16.689	824.295	621.800
353.635	16.830	823.464	621.635
354.650	16.739	823.067	620.945
355.665	16.689	822.257	620.096
356.679	16.779	821.578	619.859
357.694	16.830	821.021	619.573
358.708	16.634	820.573	618.462
359.723	16.780	819.841	618.390
360.738	16.958	818.854	618.237
361.752	17.036	818.437	618.155
362.767	17.037	818.273	617.979
363.781	16.995	818.160	617.686
364.796	16.971	817.222	616.834
365.810	17.108	817.072	617.164
366.825	17.056	816.619	616.579
367.840	17.065	816.505	616.470
368.854	17.060	815.438	615.591
369.869	17.070	815.033	615.270
370.883	17.126	814.922	615.336
371.898	17.102	814.732	615.051
372.913	17.295	813.922	615.081
373.927	17.083	813.447	613.902
374.942	17.195	813.096	613.986
375.956	17.016	812.733	613.011
376.971	17.261	812.088	613.355
377.986	17.276	811.999	613.287
379.000	17.294	811.561	612.967
380.015	17.347	811.033	612.707
381.029	17.361	810.490	612.293
382.044	17.363	809.505	611.501
383.059	17.325	808.832	610.803
384.073	17.430	808.240	610.677
385.088	17.461	807.654	610.292
386.102	17.266	807.880	609.708
387.117	17.350	806.774	609.123
388.132	17.316	806.075	608.419
389.146	17.424	805.665	608.443
390.161	17.344	805.477	607.961
391.175	17.356	805.026	607.609
392.190	17.444	804.250	607.284
393.205	17.493	803.740	607.019
394.219	17.504	803.422	606.764
395.234	17.548	802.813	606.408
396.248	17.368	802.594	605.547
397.263	17.387	802.379	605.401
398.278	17.287	802.135	604.804
399.292	17.397	801.589	604.731
400.307	17.370	801.284	604.352
401.321	17.449	800.770	604.189
402.336	17.382	800.156	603.435
403.350	17.411	799.516	603.003
404.365	17.495	799.405	603.164
405.380	17.592	798.738	602.951
406.394	17.780	798.139	603.110
407.409	17.751	797.843	602.730
408.423	17.709	797.737	602.447
409.438	17.717	797.202	602.018
410.453	17.695	796.923	601.679
411.467	17.863	795.936	601.472
412.482	17.740	795.981	601.017
413.496	17.894	795.639	601.252
414.511	17.963	795.085	601.022
415.526	17.854	794.870	600.422
416.540	17.900	794.089	599.941
417.555	17.864	793.903	599.619
418.569	17.872	793.551	599.331
419.584	17.910	793.099	599.070
420.599	17.981	792.647	598.921
421.613	109.856	1289.387	1466.232
422.628	94.406	1361.763	1466.328
