DTS Sentinel unit serial number:	SN413079Multiplexer serial number:	ORYXHardware model number:	OX4-SRSoftware version number:	ORYX F/W v4.00 Oryx Data Collector v3.7.2.0data status	okinstallation	princeton_trtdifferential loss correction	single-endedforward channel	channel 1reverse channel	N/Adate	2019/09/19time	03:22:35forward acquisition time	60.00reverse acquisition time	0.00gamma	496.2192k internal	0.2343k external	0.2343temperature offset calibration	1.0016default loss term (dB/km)	0.3790temperature slope calibration	1.0000multiplexer offset coefficient	1.0000multiplexer slope coefficient	1.0000fibre end	0.00T internal ref (°C)	20.69T ext. ref 1 (°C)	0.64T ext. ref 2 (°C)	14.22length (m)	temperature (°C)	Stokes	anti-Stokes-747.200	48.100	0.294	-0.275
-746.185	-62.824	-0.337	0.140
-745.171	-100.468	0.248	-0.061
-744.156	800.000	0.030	-0.105
-743.142	-98.497	-0.183	0.047
-742.127	-94.651	-0.151	0.041
-741.112	800.000	0.011	-0.036
-740.098	101.717	0.145	0.170
-739.083	279.352	0.095	-0.170
-738.069	29.020	-0.074	0.063
-737.054	-83.132	0.090	0.029
-736.039	221.403	-0.117	-0.188
-735.025	800.000	0.064	-0.209
-734.010	311.360	0.191	-0.358
-732.996	29.304	0.077	0.066
-731.981	-200.000	0.047	-0.414
-730.966	-110.944	-0.180	0.037
-729.952	2.150	-0.430	-0.311
-728.937	393.710	-0.149	-0.310
-727.923	80.308	0.235	-0.253
-726.908	-200.000	0.063	0.286
-725.894	-9.538	0.194	0.130
-724.879	773.972	0.054	-0.148
-723.864	-200.000	-0.037	-0.295
-722.850	300.483	-0.183	-0.338
-721.835	69.434	0.260	0.267
-720.821	665.645	0.041	0.106
-719.806	-4.916	0.158	-0.109
-718.791	-59.392	0.128	0.055
-717.777	-200.000	0.021	-0.099
-716.762	800.000	-0.028	0.109
-715.748	324.194	-0.113	0.215
-714.733	-68.655	0.042	0.016
-713.718	-200.000	0.019	-0.102
-712.704	-65.227	0.344	-0.139
-711.689	-32.813	-0.301	-0.167
-710.675	-200.000	-0.013	-0.162
-709.660	175.469	-0.158	-0.229
-708.645	161.112	0.180	-0.252
-707.631	81.610	0.069	0.075
-706.616	-42.836	-0.213	-0.108
-705.602	35.447	-0.025	-0.022
-704.587	-23.974	-0.459	-0.275
-703.572	-111.016	-0.473	-0.097
-702.558	-20.465	0.248	0.152
-701.543	660.883	0.050	-0.128
-700.529	34.956	-0.175	0.153
-699.514	427.266	-0.079	0.170
-698.499	-200.000	0.018	-0.104
-697.485	-102.802	0.466	0.111
-696.470	51.447	0.187	0.178
-695.456	800.000	0.068	0.201
-694.441	800.000	0.053	-0.196
-693.426	-90.562	0.203	-0.059
-692.412	171.654	0.165	0.237
-691.397	-60.337	0.136	0.058
-690.383	-80.732	0.125	-0.042
-689.368	-60.624	-0.251	-0.106
-688.354	-200.000	0.012	-0.073
-687.339	-45.150	-0.313	-0.155
-686.324	-54.472	0.057	0.026
-685.310	213.023	-0.074	0.116
-684.295	-72.222	0.096	-0.036
-683.281	-200.000	-0.038	-0.218
-682.266	195.558	-0.158	-0.240
-681.251	526.418	0.059	-0.138
-680.237	-164.424	0.232	0.011
-679.222	107.811	-0.086	-0.103
-678.208	235.356	0.197	-0.325
-677.193	-200.000	0.004	-0.121
-676.178	-102.712	-0.148	-0.035
-675.164	-35.664	0.121	0.066
-674.149	72.768	0.153	-0.159
-673.135	-148.842	-0.065	0.005
-672.120	-23.446	0.119	0.071
-671.105	-34.069	0.260	0.143
-670.091	-126.450	-0.288	-0.043
-669.076	800.000	-0.046	-0.136
-668.062	800.000	0.042	-0.125
-667.047	608.538	-0.159	0.395
-666.032	58.923	-0.111	-0.109
-665.018	-89.141	-0.174	-0.051
-664.003	76.749	-0.286	0.303
-662.989	-200.000	0.044	-0.225
-661.974	662.667	-0.093	0.238
-660.959	663.649	0.123	-0.316
-659.945	-152.117	-0.197	0.014
-658.930	-63.880	-0.093	0.038
-657.916	224.263	0.072	0.117
-656.901	-200.000	0.036	0.273
-655.886	292.214	-0.054	0.098
-654.872	-200.000	0.009	0.290
-653.857	215.087	0.153	-0.243
-652.843	-200.000	0.000	-0.122
-651.828	-200.000	0.016	0.103
-650.814	388.889	0.083	-0.172
-649.799	526.630	-0.099	-0.233
-648.784	255.592	0.039	-0.067
-647.770	117.536	-0.277	0.340
-646.755	104.617	-0.061	-0.072
-645.741	-111.429	-0.177	-0.036
-644.726	800.000	-0.058	0.203
-643.711	392.119	-0.142	-0.294
-642.697	81.865	0.104	0.112
-641.682	-22.302	-0.346	-0.209
-640.668	252.635	-0.180	-0.306
-639.653	166.692	0.092	0.131
-638.638	168.809	-0.148	-0.211
-637.624	111.476	-0.121	0.145
-636.609	24.894	-0.305	0.252
-635.595	-144.937	-0.113	0.010
-634.580	3.430	-0.131	0.095
-633.565	-40.844	-0.074	-0.038
-632.551	-0.445	0.167	0.118
-631.536	800.000	0.052	-0.212
-630.522	-90.433	0.113	-0.033
-629.507	215.958	-0.053	-0.084
-628.492	-186.785	-0.131	-0.002
-627.478	278.315	0.116	-0.207
-626.463	-65.394	0.222	-0.089
-625.449	-72.952	-0.385	0.141
-624.434	-130.510	0.231	0.031
-623.419	214.867	-0.194	0.306
-622.405	110.855	0.108	0.129
-621.390	-63.494	0.094	0.038
-620.376	172.624	0.180	-0.258
-619.361	-117.079	-0.231	0.042
-618.346	329.054	0.127	-0.244
-617.332	-116.171	-0.253	-0.047
-616.317	114.230	0.132	-0.161
-615.303	-39.149	-0.160	0.084
-614.288	-123.542	-0.139	-0.022
-613.273	-200.000	-0.018	0.269
-612.259	42.825	0.270	-0.245
-611.244	236.731	-0.052	0.085
-610.230	42.025	-0.124	0.112
-609.215	-200.000	-0.009	-0.068
-608.201	32.832	0.092	0.079
-607.186	235.075	-0.080	0.131
-606.171	16.688	0.219	-0.172
-605.157	-35.769	0.275	-0.148
-604.142	800.000	0.098	0.286
-603.128	88.505	-0.207	-0.229
-602.113	-132.544	-0.238	0.031
-601.098	-148.621	0.251	0.020
-600.084	-52.661	0.156	-0.072
-599.069	-10.938	0.135	-0.089
-598.055	2.757	0.062	-0.045
-597.040	-200.000	-0.014	0.079
-596.025	-200.000	0.002	-0.166
-595.011	-200.000	0.041	-0.205
-593.996	-55.890	-0.421	0.187
-592.982	800.000	0.049	0.170
-591.967	690.484	0.080	-0.209
-590.952	-68.408	0.307	0.118
-589.938	-59.538	0.090	-0.038
-588.923	310.046	0.060	-0.112
-587.909	-114.973	0.217	0.041
-586.894	125.740	0.114	-0.143
-585.879	-200.000	-0.002	-0.035
-584.865	-91.218	0.298	0.085
-583.850	-39.649	-0.166	0.086
-582.836	-200.000	-0.043	-0.204
-581.821	66.156	-0.138	-0.139
-580.806	800.000	-0.038	0.145
-579.792	264.393	-0.121	-0.210
-578.777	183.713	-0.227	-0.333
-577.763	-200.000	-0.022	0.137
-576.748	-24.913	-0.175	0.103
-575.733	516.744	0.050	0.116
-574.719	-1.152	-0.190	0.134
-573.704	16.195	0.303	-0.237
-572.690	761.842	0.227	-0.612
-571.675	-76.432	0.321	-0.112
-570.661	800.000	0.056	-0.174
-569.646	-6.182	-0.114	-0.077
-568.631	-62.653	-0.359	-0.148
-567.617	-46.130	0.089	0.044
-566.602	174.173	0.141	0.203
-565.588	-200.000	-0.007	0.069
-564.573	65.405	0.162	-0.163
-563.558	-120.173	-0.502	0.085
-562.544	800.000	-0.026	-0.097
-561.529	189.912	0.245	0.366
-560.515	57.623	-0.279	0.271
-559.500	96.235	-0.172	0.196
-558.485	302.721	0.089	0.164
-557.471	-19.114	-0.171	-0.106
-556.456	-102.049	0.175	0.042
-555.442	-110.636	-0.226	0.046
-554.427	-104.258	-0.214	-0.049
-553.412	55.768	0.126	-0.122
-552.398	53.066	-0.110	0.105
-551.383	-63.616	-0.267	-0.109
-550.369	-200.000	-0.007	0.093
-549.354	-29.600	0.478	0.271
-548.339	-36.287	0.110	-0.059
-547.325	-200.000	-0.064	-0.329
-546.310	800.000	0.045	0.192
-545.296	-117.785	0.483	-0.086
-544.281	97.911	-0.058	-0.067
-543.266	-98.961	-0.131	0.033
-542.252	-49.985	0.319	0.150
-541.237	-90.908	-0.141	-0.040
-540.223	-200.000	0.017	-0.164
-539.208	-200.000	0.002	0.174
-538.193	-18.291	-0.178	0.110
-537.179	-2.432	0.090	0.063
-536.164	80.062	0.063	0.068
-535.150	-153.514	0.141	-0.010
-534.135	-133.672	0.284	0.035
-533.121	-37.059	-0.367	0.195
-532.106	58.576	0.150	-0.147
-531.091	186.626	0.065	0.096
-530.077	-200.000	0.005	-0.473
-529.062	7.409	0.283	-0.210
-528.048	-200.000	-0.014	-0.077
-527.033	244.130	-0.110	-0.183
-526.018	142.902	0.106	0.140
-525.004	-200.000	0.015	-0.232
-523.989	800.000	-0.050	-0.186
-522.975	-95.446	0.324	0.086
-521.960	179.598	-0.052	-0.075
-520.945	206.405	0.063	-0.098
-519.931	592.053	-0.052	-0.128
-518.916	-120.974	0.304	-0.051
-517.902	146.112	0.102	-0.136
-516.887	-164.355	-0.171	-0.008
-515.872	-200.000	-0.027	-0.287
-514.858	-185.139	0.102	0.002
-513.843	800.000	-0.068	-0.224
-512.829	-56.588	-0.120	0.053
-511.814	6.416	0.120	0.088
-510.799	-127.980	-0.039	-0.006
-509.785	800.000	0.026	0.106
-508.770	800.000	-0.052	-0.224
-507.756	-94.922	-0.119	-0.032
-506.741	169.867	0.016	-0.022
-505.726	-0.510	0.251	0.177
-504.712	-200.000	0.014	0.092
-503.697	557.336	-0.082	-0.196
-502.683	-168.665	-0.113	0.004
-501.668	-125.547	-0.322	-0.048
-500.653	-200.000	-0.001	-0.209
-499.639	-125.590	-0.101	0.015
-498.624	-122.577	-0.223	0.036
-497.610	218.619	-0.092	0.145
-496.595	-200.000	0.073	-0.411
-495.581	-138.163	0.192	-0.021
-494.566	-3.765	0.160	0.110
-493.551	119.268	0.033	-0.040
-492.537	6.519	-0.182	-0.134
-491.522	-74.639	0.411	-0.147
-490.508	800.000	-0.183	0.543
-489.493	-200.000	-0.046	-0.202
-488.478	84.781	0.185	0.201
-487.464	-25.222	-0.112	-0.066
-486.449	278.358	0.044	-0.079
-485.435	-45.135	0.111	-0.055
-484.420	171.164	-0.108	0.153
-483.405	-200.000	0.029	0.422
-482.391	-102.346	-0.144	-0.034
-481.376	800.000	0.039	0.120
-480.362	5.343	-0.477	-0.348
-479.347	31.419	0.244	0.208
-478.332	373.267	0.119	-0.240
-477.318	-200.000	0.006	-0.251
-476.303	87.378	-0.121	-0.132
-475.289	236.237	-0.130	0.213
-474.274	55.833	0.039	-0.037
-473.259	111.850	-0.186	-0.223
-472.245	120.531	-0.135	0.166
-471.230	-73.300	0.173	0.063
-470.216	-27.508	-0.083	-0.048
-469.201	-109.035	-0.250	0.053
-468.186	-122.189	0.369	-0.060
-467.172	-87.395	-0.281	0.084
-466.157	458.754	-0.044	-0.096
-465.143	38.258	-0.189	-0.167
-464.128	-200.000	-0.036	-0.218
-463.113	-32.440	-0.155	-0.085
-462.099	91.445	-0.159	0.177
-461.084	-200.000	0.039	-0.231
-460.070	-200.000	-0.013	-0.115
-459.055	-200.000	0.044	-0.470
-458.040	-91.351	-0.294	-0.083
-457.026	-200.000	-0.025	0.147
-456.011	-85.468	0.229	0.071
-454.997	-164.630	0.204	-0.009
-453.982	-129.718	-0.398	-0.054
-452.968	-70.478	0.406	-0.152
-451.953	800.000	-0.039	-0.109
-450.938	-200.000	-0.005	-0.139
-449.924	23.610	-0.334	0.272
-448.909	-200.000	0.469	0.001
-447.895	-200.000	-0.036	0.172
-446.880	-178.123	0.271	-0.006
-445.865	317.423	0.062	-0.117
-444.851	800.000	0.027	-0.108
-443.836	-200.000	-0.008	0.156
-442.822	207.778	-0.085	-0.131
-441.807	263.097	-0.039	0.067
-440.792	-175.829	-0.192	0.005
-439.778	43.714	0.250	-0.226
-438.763	-197.042	-0.342	-0.002
-437.749	-159.165	0.656	0.037
-436.734	327.840	-0.050	-0.096
-435.719	119.838	0.144	0.177
-434.705	235.494	-0.036	-0.059
-433.690	54.993	-0.174	0.167
-432.676	-24.939	0.103	-0.061
-431.661	10.206	0.112	0.084
-430.646	-31.335	0.440	0.245
-429.632	-109.181	-0.298	-0.063
-428.617	90.934	-0.301	0.334
-427.603	111.504	-0.091	-0.109
-426.588	18.167	-0.051	-0.040
-425.573	-127.011	0.176	0.026
-424.559	-141.340	0.329	-0.033
-423.544	-116.355	0.363	-0.066
-422.530	407.136	0.097	-0.203
-421.515	113.566	0.238	-0.286
-420.500	58.457	0.138	0.134
-419.486	-47.833	-0.208	-0.100
-418.471	-101.284	0.230	-0.055
-417.457	-24.828	-0.209	0.123
-416.442	-200.000	-0.072	0.580
-415.428	177.674	0.071	0.102
-414.413	141.428	-0.065	0.085
-413.398	-41.912	-0.196	0.099
-412.384	-150.910	0.191	0.014
-411.369	608.875	0.092	-0.226
-410.355	-200.000	-0.017	-0.140
-409.340	-91.518	-0.287	-0.081
-408.325	-149.818	0.286	0.022
-407.311	637.704	-0.083	0.208
-406.296	800.000	-0.106	-0.360
-405.282	-7.041	0.091	0.061
-404.267	-200.000	0.009	0.233
-403.252	800.000	0.074	0.207
-402.238	-200.000	-0.004	-0.039
-401.223	-200.000	-0.024	-0.128
-400.209	-200.000	0.011	0.169
-399.194	800.000	0.026	0.087
-398.179	-200.000	-0.005	-0.319
-397.165	-200.000	0.025	-0.289
-396.150	58.133	0.374	-0.362
-395.136	-200.000	-0.026	-0.265
-394.121	-124.408	0.084	-0.013
-393.106	800.000	-0.048	-0.192
-392.092	324.873	0.127	0.239
-391.077	1.958	-0.210	0.150
-390.063	-132.970	0.379	0.048
-389.048	-200.000	0.047	0.481
-388.033	639.674	-0.107	-0.270
-387.019	-77.276	-0.160	0.055
-386.004	114.654	0.163	-0.196
-384.990	-62.209	0.151	0.062
-383.975	-200.000	0.015	-0.385
-382.960	-128.319	-0.054	-0.008
-381.946	-9.488	-0.216	-0.142
-380.931	-170.499	-0.364	-0.013
-379.917	-200.000	-0.040	0.302
-378.902	-53.172	-0.236	0.107
-377.888	-200.000	-0.073	0.331
-376.873	-200.000	0.019	-0.110
-375.858	731.198	0.062	-0.163
-374.844	784.565	0.107	0.289
-373.829	-200.000	-0.003	0.187
-372.815	118.507	-0.144	-0.175
-371.800	-95.898	-0.263	-0.069
-370.785	-22.050	-0.244	-0.146
-369.771	-38.565	0.115	-0.060
-368.756	-200.000	0.011	-0.137
-367.742	144.864	-0.170	0.224
-366.727	-138.536	0.295	-0.032
-365.712	-200.000	-0.015	0.282
-364.698	87.950	-0.237	0.259
-363.683	-200.000	0.057	-0.254
-362.669	-87.135	-0.236	-0.071
-361.654	25.300	0.279	0.228
-360.639	307.804	0.056	0.103
-359.625	150.047	0.333	0.446
-358.610	-200.000	0.041	0.339
-357.596	2.560	0.078	0.056
-356.581	-2.003	0.110	-0.076
-355.566	-200.000	-0.077	0.369
-354.552	-200.000	-0.060	0.357
-353.537	204.038	0.103	0.157
-352.523	177.587	0.005	-0.008
-351.508	197.133	-0.143	-0.215
-350.493	-0.993	0.268	-0.187
-349.479	-131.547	-0.190	-0.025
-348.464	-142.772	0.316	-0.030
-347.450	35.183	0.110	0.095
-346.435	-200.000	0.012	-0.172
-345.420	508.716	-0.025	-0.058
-344.406	-200.000	-0.021	-0.161
-343.391	105.923	-0.295	-0.344
-342.377	-4.415	0.089	0.061
-341.362	20.774	0.351	0.280
-340.348	16.297	0.072	-0.056
-339.333	120.480	0.189	0.231
-338.318	-37.740	-0.246	-0.129
-337.304	543.812	-0.075	0.176
-336.289	-153.530	-0.382	-0.026
-335.275	557.407	-0.052	0.124
-334.260	-200.000	-0.002	0.113
-333.245	-62.308	0.075	-0.031
-332.231	-120.418	0.265	-0.044
-331.216	-6.805	-0.193	0.130
-330.202	-2.374	0.080	-0.055
-329.187	-81.174	-0.079	-0.026
-328.172	-49.864	-0.254	0.119
-327.158	30.103	-0.346	0.291
-326.143	-91.295	-0.131	0.037
-325.129	11.819	0.168	0.127
-324.114	285.644	-0.087	-0.154
-323.099	39.585	0.058	-0.051
-322.085	88.001	0.205	0.223
-321.070	-114.292	-0.277	-0.053
-320.056	-166.193	-0.087	-0.004
-319.041	-200.000	-0.077	0.348
-318.026	-200.000	-0.014	-0.214
-317.012	-16.221	-0.058	0.036
-315.997	-36.737	0.282	0.149
-314.983	207.966	-0.160	-0.246
-313.968	153.836	-0.176	0.238
-312.953	-96.416	0.220	0.057
-311.939	-3.271	0.536	0.368
-310.924	617.457	-0.093	-0.229
-309.910	-55.756	-0.282	0.124
-308.895	-121.842	-0.054	-0.009
-307.880	800.000	0.035	-0.127
-306.866	-68.083	0.157	0.060
-305.851	-200.000	0.008	0.134
-304.837	800.000	0.099	0.275
-303.822	-64.105	-0.120	-0.048
-302.807	153.135	0.038	-0.051
-301.793	-200.000	-0.035	-0.290
-300.778	9.418	0.102	0.076
-299.764	-91.013	0.291	0.082
-298.749	800.000	0.024	-0.073
-297.735	106.164	-0.261	-0.305
-296.720	70.241	-0.093	-0.094
-295.705	17.422	0.173	0.135
-294.691	-91.714	-0.036	-0.010
-293.676	542.102	0.186	0.437
-292.662	-200.000	0.020	0.325
-291.647	125.564	-0.086	0.106
-290.632	22.647	0.048	-0.038
-289.618	-200.000	-0.088	0.439
-288.603	24.395	-0.469	0.381
-287.589	-154.629	0.192	0.013
-286.574	-14.852	0.141	0.089
-285.559	85.666	0.053	0.057
-284.545	230.583	-0.197	-0.316
-283.530	128.433	0.169	0.211
-282.516	35.638	-0.206	0.178
-281.501	-78.350	-0.273	0.092
-280.486	-200.000	-0.037	0.290
-279.472	-29.779	-0.054	-0.030
-278.457	-75.821	-0.155	0.054
-277.443	650.460	0.152	0.382
-276.428	-165.949	-0.133	-0.006
-275.413	-112.279	0.230	-0.045
-274.399	358.849	0.012	-0.024
-273.384	80.319	-0.126	-0.133
-272.370	507.461	0.096	-0.218
-271.355	800.000	-0.078	-0.300
-270.340	141.351	0.223	-0.290
-269.326	-200.000	0.027	0.143
-268.311	644.424	-0.055	0.137
-267.297	-200.000	-0.016	-0.088
-266.282	-64.737	-0.182	-0.073
-265.267	-90.436	-0.435	0.124
-264.253	17.877	-0.168	0.131
-263.238	-49.469	-0.329	-0.154
-262.224	-80.838	-0.106	-0.035
-261.209	800.000	0.046	-0.177
-260.195	117.421	0.234	-0.283
-259.180	-91.697	0.228	0.064
-258.165	-127.212	-0.122	0.018
-257.151	-150.890	0.147	0.011
-256.136	515.826	-0.076	-0.174
-255.122	-200.000	-0.007	-0.278
-254.107	21.973	-0.163	-0.131
-253.092	180.213	0.078	0.113
-252.078	-68.895	-0.020	0.007
-251.063	-27.752	0.144	-0.082
-250.049	124.161	-0.232	0.287
-249.034	-69.797	-0.454	0.170
-248.019	185.514	0.349	0.509
-247.005	203.152	-0.152	0.231
-245.990	-200.000	0.009	-0.292
-244.976	-48.929	0.393	0.185
-243.961	604.138	0.144	-0.352
-242.946	186.093	0.087	0.127
-241.932	-185.506	0.142	0.002
-240.917	187.030	-0.041	0.060
-239.903	123.026	-0.283	0.348
-238.888	42.531	0.124	-0.111
-237.873	100.580	-0.185	0.211
-236.859	499.967	-0.034	-0.076
-235.844	55.102	0.076	-0.073
-234.830	-81.007	-0.066	-0.022
-233.815	29.084	0.235	-0.196
-232.800	107.519	-0.235	-0.274
-231.786	136.124	0.110	-0.141
-230.771	145.511	0.191	0.251
-229.757	-11.916	0.067	-0.043
-228.742	800.000	0.069	0.225
-227.727	56.519	-0.118	0.113
-226.713	800.000	0.051	0.215
-225.698	730.823	-0.136	0.357
-224.684	-185.569	0.143	-0.002
-223.669	234.822	0.055	0.089
-222.655	175.253	-0.118	0.168
-221.640	-177.518	-0.305	0.007
-220.625	266.286	0.068	-0.116
-219.611	-30.810	0.314	0.174
-218.596	784.578	-0.064	0.173
-217.582	378.361	0.118	-0.237
-216.567	115.289	0.259	-0.310
-215.552	-44.874	-0.226	-0.110
-214.538	800.000	-0.028	-0.094
-213.523	5.338	0.172	0.124
-212.509	515.451	-0.134	-0.307
-211.494	-8.240	-0.250	0.165
-210.479	-99.608	0.254	0.063
-209.465	39.114	-0.120	0.105
-208.450	84.554	-0.176	0.189
-207.436	81.416	0.207	-0.219
-206.421	-74.449	-0.338	-0.119
-205.406	-96.725	-0.134	0.034
-204.392	52.442	0.102	-0.096
-203.377	-96.353	-0.037	0.010
-202.363	-200.000	0.009	0.149
-201.348	151.245	-0.114	0.153
-200.333	-103.311	-0.301	0.070
-199.319	614.849	-0.093	0.229
-198.304	587.333	-0.059	0.143
-197.290	-144.270	0.139	-0.013
-196.275	-79.017	0.350	0.117
-195.260	39.488	-0.143	-0.126
-194.246	-43.758	-0.396	-0.196
-193.231	105.298	-0.100	-0.116
-192.217	-147.053	-0.068	-0.006
-191.202	81.705	0.060	-0.064
-190.187	-39.682	0.155	-0.079
-189.173	-3.474	0.076	0.052
-188.158	-200.000	-0.038	0.228
-187.144	800.000	0.029	0.080
-186.129	-1.962	0.109	0.075
-185.114	-100.962	0.444	0.107
-184.100	166.527	0.091	0.126
-183.085	-83.117	0.145	-0.046
-182.071	-200.000	0.012	-0.413
-181.056	127.208	0.150	0.186
-180.042	-15.302	-0.215	-0.134
-179.027	608.696	-0.169	-0.413
-178.012	-129.271	0.174	0.024
-176.998	66.427	-0.179	-0.179
-175.983	-190.552	0.248	0.003
-174.969	276.131	-0.081	-0.142
-173.954	-57.193	0.259	0.112
-172.939	-51.675	-0.140	-0.064
-171.925	-200.000	0.043	-0.286
-170.910	542.471	0.074	0.173
-169.896	-200.000	-0.025	-0.121
-168.881	800.000	0.056	0.194
-167.866	-73.576	-0.203	-0.073
-166.852	526.471	-0.044	-0.101
-165.837	-23.906	-0.094	0.055
-164.823	153.863	0.095	-0.128
-163.808	425.323	-0.138	0.292
-162.793	-200.000	0.032	0.171
-161.779	-15.747	-0.270	-0.168
-160.764	46.653	0.153	0.139
-159.750	-18.122	0.275	-0.168
-158.735	368.103	0.125	-0.247
-157.720	177.418	0.118	0.168
-156.706	7.313	-0.152	0.111
-155.691	-76.622	0.352	-0.121
-154.677	-24.856	0.152	0.088
-153.662	3.535	0.082	-0.059
-152.647	-200.000	0.002	-0.161
-151.633	645.767	0.065	-0.161
-150.618	800.000	-0.139	0.462
-149.604	-0.674	0.173	0.120
-148.589	797.983	0.075	0.201
-147.574	-200.000	-0.056	-0.296
-146.560	-28.509	-0.057	-0.032
-145.545	-69.829	-0.214	-0.080
-144.531	10.221	-0.363	-0.270
-143.516	-200.000	0.061	0.262
-142.502	800.000	0.119	-0.368
-141.487	-200.000	0.007	0.040
-140.472	-200.000	0.036	-0.292
-139.458	-73.372	-0.123	0.044
-138.443	-176.169	-0.371	0.010
-137.429	-174.414	0.378	0.011
-136.414	-25.909	0.204	0.118
-135.399	800.000	-0.077	-0.311
-134.385	495.624	0.096	0.215
-133.370	-98.497	0.206	-0.051
-132.356	-130.436	0.083	0.011
-131.341	-185.040	-0.207	-0.003
-130.326	-129.870	0.542	-0.073
-129.312	-142.351	-0.098	-0.009
-128.297	-7.990	-0.289	0.191
-127.283	67.071	-0.069	-0.068
-126.268	800.000	-0.070	0.208
-125.253	800.000	-0.052	0.183
-124.239	-200.000	0.005	-0.150
-123.224	-200.000	0.015	-0.084
-122.210	-160.019	0.169	-0.009
-121.195	-200.000	0.029	-0.135
-120.180	43.563	0.205	0.183
-119.166	-129.541	-0.269	-0.036
-118.151	209.832	-0.110	-0.168
-117.137	-90.825	0.176	-0.050
-116.122	82.293	-0.270	0.286
-115.107	413.603	-0.122	-0.253
-114.093	-158.191	0.131	0.007
-113.078	800.000	0.046	-0.166
-112.064	550.604	-0.114	0.267
-111.049	800.000	0.060	-0.254
-110.034	-1.954	0.167	-0.115
-109.020	27.161	0.223	0.183
-108.005	-91.169	-0.252	-0.070
-106.991	-38.855	0.429	0.221
-105.976	0.221	0.101	0.071
-104.962	-112.039	-0.215	-0.042
-103.947	-49.921	0.103	0.048
-102.932	-43.265	0.156	0.077
-101.918	-200.000	-0.018	-0.196
-100.903	-200.000	-0.010	0.250
-99.889	-117.602	-0.290	-0.051
-98.874	-133.429	-0.225	0.028
-97.859	-200.000	-0.042	-0.226
-96.845	137.589	-0.101	0.129
-95.830	42.625	0.328	-0.292
-94.816	707.489	-0.108	0.279
-93.801	-163.549	-0.018	-0.001
-92.786	-2.963	0.159	-0.108
-91.772	-7.939	0.289	-0.190
-90.757	-161.061	-0.216	-0.011
-89.743	84.577	0.124	0.133
-88.728	136.571	0.162	0.206
-87.713	5.241	-0.175	-0.126
-86.699	-14.122	-0.127	-0.080
-85.684	-128.025	0.126	0.018
-84.670	-14.917	-0.170	-0.106
-83.655	3.973	0.118	0.084
-82.640	-96.764	0.255	0.066
-81.626	-45.839	-0.082	-0.040
-80.611	29.268	-0.046	-0.038
-79.597	-16.409	0.149	-0.092
-78.582	800.000	-0.114	0.356
-77.567	283.490	-0.049	-0.086
-76.553	-79.338	-0.086	0.028
-75.538	800.000	-0.177	0.480
-74.524	-195.873	-0.755	-0.005
-73.509	328.636	-0.131	0.246
-72.494	387.590	0.081	-0.163
-71.480	154.466	-0.247	-0.331
-70.465	-166.729	-0.137	-0.006
-69.451	70.840	0.175	-0.177
-68.436	287.482	-0.133	-0.235
-67.422	37.697	0.239	-0.207
-66.407	-47.953	0.377	-0.178
-65.392	86.826	0.203	-0.219
-64.378	516.306	0.112	0.254
-63.363	407.157	-0.065	0.133
-62.349	-55.707	-0.151	-0.066
-61.334	153.870	-0.892	-1.191
-60.319	120.130	0.691	0.836
-59.305	337.052	-0.651	-1.234
-58.290	501.027	0.650	1.462
-57.276	380.648	0.716	1.432
-56.261	-200.000	136.351	673.322
-55.246	336.730	1676.949	3173.815
-54.232	134.185	2802.103	3538.540
-53.217	86.479	2171.962	2333.423
-52.203	31.625	1602.978	1343.375
-51.188	23.806	1352.579	1085.920
-50.173	21.710	1316.814	1044.682
-49.159	49.187	1390.419	1273.181
-48.144	45.426	1399.533	1258.395
-47.130	23.799	1347.550	1081.667
-46.115	20.916	1327.577	1048.276
-45.100	20.604	1322.922	1042.691
-44.086	20.522	1320.139	1039.965
-43.071	20.570	1317.593	1038.202
-42.057	20.531	1316.407	1036.995
-41.042	20.547	1314.400	1035.468
-40.027	20.721	1312.318	1034.822
-39.013	20.591	1310.856	1032.859
-37.998	20.660	1308.751	1031.568
-36.984	20.643	1307.385	1030.346
-35.969	20.677	1305.364	1028.914
-34.954	20.758	1303.423	1027.824
-33.940	20.745	1302.358	1026.869
-32.925	20.663	1301.530	1025.692
-31.911	20.703	1300.031	1024.703
-30.896	20.784	1298.307	1023.777
-29.881	20.851	1297.185	1023.246
-28.867	20.850	1295.842	1022.141
-27.852	20.837	1294.239	1020.760
-26.838	20.758	1293.396	1019.591
-25.823	20.852	1291.287	1018.437
-24.809	20.834	1290.152	1017.396
-23.794	20.767	1289.179	1016.201
-22.779	20.794	1287.487	1014.982
-21.765	20.816	1286.315	1014.144
-20.750	20.761	1285.659	1013.270
-19.736	20.698	1284.282	1011.778
-18.721	20.680	1282.870	1010.518
-17.706	20.641	1281.932	1009.514
-16.692	20.609	1280.603	1008.243
-15.677	20.667	1279.485	1007.659
-14.663	20.530	1278.990	1006.434
-13.648	20.651	1277.507	1005.929
-12.633	20.591	1276.638	1004.857
-11.619	20.636	1275.384	1004.090
-10.604	20.696	1274.754	1003.898
-9.590	20.506	1274.415	1002.498
-8.575	20.575	1273.374	1002.034
-7.560	20.531	1272.306	1000.902
-6.546	20.589	1271.571	1000.617
-5.531	20.637	1270.636	1000.122
-4.517	20.705	1269.834	999.839
-3.502	20.650	1268.487	998.422
-2.487	20.632	1268.332	998.159
-1.473	20.557	1263.701	994.049
-0.458	18.929	1248.152	972.573
0.556	14.396	1232.581	934.932
1.571	10.900	1241.024	921.469
2.586	10.181	1257.250	929.306
3.600	10.223	1244.252	919.857
4.615	7.682	1172.512	853.121
5.629	2.828	1103.368	778.177
6.644	0.831	1087.315	756.802
7.659	0.564	1086.252	754.660
8.673	0.563	1085.094	753.782
9.688	0.623	1083.378	752.824
10.702	0.677	1081.077	751.428
11.717	3.573	1084.333	768.052
12.731	9.913	1092.132	805.209
13.746	15.278	1099.660	837.556
14.761	17.179	1101.404	848.312
15.775	16.512	1099.779	843.661
16.790	15.566	1097.682	837.265
17.804	14.752	1096.772	832.443
18.819	14.427	1095.258	829.602
19.834	14.201	1094.653	827.945
20.848	13.873	1094.020	825.760
21.863	13.779	1092.783	824.286
22.877	13.646	1092.208	823.118
23.892	13.554	1091.081	821.744
24.907	13.595	1090.730	821.607
25.921	13.623	1089.549	820.784
26.936	13.674	1088.498	820.175
27.950	13.748	1087.853	819.978
28.965	13.812	1086.438	819.157
29.980	13.759	1085.130	817.836
30.994	13.918	1084.308	817.927
32.009	13.810	1083.549	816.754
33.023	13.830	1082.084	815.673
34.038	13.796	1081.241	814.797
35.053	13.718	1080.581	813.844
36.067	13.716	1079.798	813.174
37.082	13.766	1079.126	812.842
38.096	13.814	1077.722	811.946
39.111	13.778	1077.034	811.182
40.126	13.757	1076.049	810.263
41.140	13.648	1074.942	808.829
42.155	13.771	1073.532	808.295
43.169	13.549	1072.740	806.544
44.184	13.666	1071.486	806.103
45.199	13.619	1070.471	805.038
46.213	13.584	1069.787	804.282
47.228	13.697	1068.194	803.561
48.242	13.656	1067.165	802.519
49.257	13.815	1066.004	802.343
50.271	13.603	1065.474	800.848
51.286	13.799	1064.657	801.108
52.301	13.697	1063.520	799.690
53.315	13.661	1062.695	798.826
54.330	13.727	1060.932	797.748
55.344	13.671	1060.490	797.077
56.359	13.748	1059.415	796.568
57.374	13.698	1058.582	795.631
58.388	13.618	1058.292	794.960
59.403	13.524	1057.361	793.739
60.417	13.675	1056.087	793.436
61.432	13.587	1055.510	792.509
62.447	13.557	1054.837	791.789
63.461	13.568	1053.488	790.760
64.476	13.429	1052.927	789.607
65.490	13.482	1052.238	789.271
66.505	13.499	1051.390	788.648
67.520	13.565	1050.271	788.053
68.534	13.626	1050.083	788.133
69.549	13.600	1049.171	787.252
70.563	13.459	1048.048	785.672
71.578	13.546	1047.336	785.480
72.593	13.530	1046.804	784.937
73.607	13.620	1045.355	784.206
74.622	13.444	1045.253	783.229
75.636	13.456	1044.801	782.879
76.651	13.560	1043.894	782.621
77.666	13.493	1043.144	781.675
78.680	13.592	1042.179	781.349
79.695	13.534	1041.874	780.773
80.709	13.453	1041.493	780.038
81.724	13.533	1040.666	779.726
82.739	13.587	1039.936	779.366
83.753	13.690	1039.116	779.169
84.768	13.830	1038.125	779.014
85.782	13.781	1037.127	777.963
86.797	13.755	1036.015	776.939
87.812	13.673	1035.547	776.138
88.826	13.657	1034.781	775.419
89.841	13.633	1033.643	774.385
90.855	13.739	1032.365	773.856
91.870	13.813	1031.681	773.617
92.884	13.796	1030.721	772.749
93.899	13.863	1030.060	772.496
94.914	13.915	1029.133	771.977
95.928	13.827	1028.491	771.016
96.943	13.957	1026.571	770.113
97.957	13.673	1026.997	769.045
98.972	13.915	1025.389	768.897
99.987	13.850	1024.791	768.078
101.001	13.823	1024.020	767.306
102.016	13.686	1023.168	765.968
103.030	13.747	1022.269	765.507
104.045	13.784	1021.485	765.025
105.060	13.780	1020.853	764.465
106.074	13.675	1019.527	762.920
107.089	13.763	1018.615	762.578
108.103	13.658	1017.989	761.556
109.118	13.706	1016.823	760.840
110.133	13.824	1015.329	760.192
111.147	13.627	1015.493	759.346
112.162	13.693	1014.253	758.653
113.176	13.811	1013.635	758.665
114.191	13.897	1012.815	758.376
115.206	13.733	1012.081	757.009
116.220	13.701	1011.446	756.322
117.235	13.668	1010.577	755.455
118.249	13.629	1009.967	754.757
119.264	13.669	1008.585	753.837
120.279	13.742	1007.967	753.639
121.293	13.758	1006.798	752.772
122.308	13.625	1006.204	751.661
123.322	13.690	1004.660	750.732
124.337	13.604	1004.206	749.937
125.352	13.758	1002.941	749.623
126.366	13.689	1002.105	748.622
127.381	13.647	1000.769	747.367
128.395	13.681	999.902	746.808
129.410	13.773	998.593	746.176
130.424	13.661	998.513	745.546
131.439	13.734	997.861	745.323
132.454	13.864	996.657	744.939
133.468	13.809	995.550	743.800
134.483	13.789	994.987	743.223
135.497	13.764	994.014	742.319
136.512	13.661	993.207	741.193
137.527	13.828	992.004	740.972
138.541	13.811	991.593	740.524
139.556	13.825	990.572	739.761
140.570	14.020	989.444	739.718
141.585	13.885	988.918	738.660
142.600	13.882	988.135	737.995
143.614	14.015	987.559	738.093
144.629	13.872	986.766	736.802
145.643	13.961	985.734	736.357
146.658	13.975	984.255	735.250
147.673	13.953	983.619	734.615
148.687	13.851	983.329	733.880
149.702	13.926	982.198	733.303
150.716	13.963	981.238	732.684
151.731	13.974	980.875	732.397
152.746	14.029	979.949	731.882
153.760	14.103	979.589	731.873
154.775	13.956	979.539	731.127
155.789	14.040	978.352	730.547
156.804	14.012	978.054	730.135
157.819	13.983	977.115	729.244
158.833	14.176	976.205	729.343
159.848	14.233	975.380	728.915
160.862	14.201	974.473	728.032
161.877	14.048	973.531	726.595
162.892	13.930	973.228	725.786
163.906	14.009	971.889	725.068
164.921	13.984	971.022	724.249
165.935	14.174	969.923	724.191
166.950	14.191	968.957	723.480
167.964	13.973	968.494	722.125
168.979	14.093	967.467	721.817
169.994	14.057	966.840	721.126
171.008	14.098	965.766	720.440
172.023	14.077	965.330	719.963
173.037	14.200	964.500	719.811
174.052	14.111	963.645	718.724
175.067	14.174	962.865	718.348
176.081	14.062	962.563	717.578
177.096	14.071	962.179	717.268
178.110	13.972	961.373	716.176
179.125	14.180	960.205	716.140
180.140	14.277	959.611	716.048
181.154	14.161	959.622	715.495
182.169	14.384	958.966	715.900
183.183	14.243	958.478	714.867
184.198	14.323	957.250	714.233
185.213	14.357	956.554	713.794
186.227	14.345	955.842	713.148
187.242	14.347	955.031	712.488
188.256	14.384	954.366	712.088
189.271	14.404	953.659	711.581
190.286	14.284	952.991	710.511
191.300	14.177	952.728	709.795
192.315	14.172	951.912	709.104
193.329	14.258	951.279	708.933
194.344	14.371	950.604	708.848
195.359	14.388	950.086	708.471
196.373	14.461	949.304	708.139
197.388	14.411	949.123	707.728
198.402	14.402	948.463	707.134
199.417	14.527	947.403	706.811
200.432	14.565	946.957	706.578
201.446	14.560	946.589	706.219
202.461	14.666	945.583	705.855
203.475	14.646	945.131	705.369
204.490	14.634	944.324	704.654
205.504	14.706	943.494	704.274
206.519	14.621	942.788	703.329
207.534	14.578	942.168	702.624
208.548	14.678	941.679	702.615
209.563	14.625	940.787	701.668
210.577	14.675	940.377	701.510
211.592	14.822	939.627	701.504
212.607	14.747	938.956	700.627
213.621	14.769	938.094	700.014
214.636	14.835	937.222	699.578
215.650	14.907	936.707	699.433
216.665	14.807	936.084	698.488
217.680	14.765	935.588	697.881
218.694	14.801	934.434	697.107
219.709	14.918	934.227	697.378
220.723	14.831	933.205	696.190
221.738	14.921	932.515	695.989
222.753	14.905	932.037	695.506
223.767	14.869	931.454	694.857
224.782	15.005	930.907	694.954
225.796	14.943	930.307	694.188
226.811	15.028	929.308	693.733
227.826	14.981	928.568	692.926
228.840	15.033	928.191	692.799
229.855	14.998	926.897	691.624
230.869	14.999	926.534	691.297
231.884	15.098	925.431	690.823
232.899	14.967	925.071	689.953
233.913	14.886	924.507	689.136
234.928	14.977	923.513	688.710
235.942	14.944	923.063	688.178
236.957	14.965	922.322	687.649
237.972	15.038	921.843	687.532
238.986	14.980	921.551	687.015
240.001	15.096	920.678	686.779
241.015	15.062	919.875	685.980
242.030	15.035	919.288	685.369
243.045	15.094	918.604	685.042
244.059	15.078	918.067	684.514
245.074	15.062	917.407	683.895
246.088	15.136	916.769	683.662
247.103	15.188	915.910	683.173
248.117	15.209	915.694	683.038
249.132	15.350	914.592	682.730
250.147	15.351	914.010	682.239
251.161	15.420	913.351	681.968
252.176	15.352	912.989	681.359
253.190	15.483	912.332	681.339
254.205	15.525	911.239	680.636
255.220	15.532	910.806	680.278
256.234	15.529	910.315	679.840
257.249	15.537	909.142	678.939
258.263	15.479	908.910	678.471
259.278	15.474	908.299	677.933
260.293	15.463	907.555	677.275
261.307	15.552	906.896	677.080
262.322	15.596	906.538	676.930
263.336	15.505	905.722	675.895
264.351	15.470	904.983	675.141
265.366	15.749	904.090	675.537
266.380	15.629	903.684	674.691
267.395	15.727	902.760	674.336
268.409	15.662	902.227	673.617
269.424	15.666	901.483	673.019
270.439	15.650	900.372	672.064
271.453	15.687	899.995	671.871
272.468	15.752	899.540	671.733
273.482	15.645	899.092	670.913
274.497	15.706	898.160	670.400
275.512	15.721	897.833	670.158
276.526	15.800	896.628	669.514
277.541	15.797	896.883	669.633
278.555	15.804	895.990	668.933
279.570	15.782	895.930	668.743
280.585	15.915	894.471	668.121
281.599	15.802	894.072	667.318
282.614	15.756	893.563	666.694
283.628	15.840	892.597	666.246
284.643	15.763	892.182	665.576
285.657	15.905	891.214	665.356
286.672	15.983	890.563	665.116
287.687	15.967	890.020	664.589
288.701	15.880	889.632	663.898
289.716	15.930	889.009	663.572
290.730	15.976	888.543	663.348
291.745	16.090	887.267	662.782
292.760	16.043	887.236	662.518
293.774	15.978	886.701	661.804
294.789	16.027	885.763	661.239
295.803	16.123	885.182	661.122
296.818	16.070	884.566	660.396
297.833	16.200	883.661	660.171
298.847	16.243	883.138	659.890
299.862	15.938	882.989	658.525
300.876	16.102	882.349	658.631
301.891	16.216	881.377	658.293
302.906	16.233	881.015	658.029
303.920	16.377	880.111	657.856
304.935	16.451	879.515	657.643
305.949	16.373	879.117	656.982
306.964	16.256	878.922	656.323
307.979	16.365	878.019	656.014
308.993	16.289	877.744	655.458
310.008	16.407	876.930	655.248
311.022	16.396	876.745	655.009
312.037	16.389	875.733	654.169
313.052	16.318	875.073	653.342
314.066	16.343	874.374	652.859
315.081	16.264	874.260	652.411
316.095	16.484	873.112	652.347
317.110	16.360	872.697	651.501
318.125	16.528	872.239	651.748
319.139	16.371	871.944	650.865
320.154	16.321	871.615	650.368
321.168	16.524	870.525	650.279
322.183	16.437	870.104	649.573
323.197	16.375	869.633	648.925
324.212	16.553	869.117	649.165
325.227	16.530	868.541	648.589
326.241	16.544	867.850	648.072
327.256	16.526	867.261	647.504
328.270	16.555	866.837	647.242
329.285	16.513	866.066	646.448
330.300	16.487	865.576	645.924
331.314	16.540	865.180	645.774
332.329	16.497	864.534	645.072
333.343	16.557	864.162	644.966
334.358	16.660	863.690	644.948
335.373	16.605	863.765	644.737
336.387	16.443	863.334	643.744
337.402	16.683	862.985	644.338
338.416	16.672	862.527	643.897
339.431	16.781	861.671	643.615
340.446	16.687	861.319	642.941
341.460	16.706	860.735	642.518
342.475	16.740	860.829	642.663
343.489	16.786	860.573	642.587
344.504	16.775	859.689	641.828
345.519	16.843	859.547	641.924
346.533	16.974	858.203	641.361
347.548	17.006	857.664	641.019
348.562	16.809	857.722	640.264
349.577	16.772	857.288	639.743
350.592	16.777	856.229	638.915
351.606	16.913	855.450	638.790
352.621	16.932	854.819	638.332
353.635	17.025	854.178	638.148
354.650	16.909	853.867	637.422
355.665	16.879	853.201	636.756
356.679	16.976	852.627	636.635
357.694	16.869	852.041	635.739
358.708	17.037	851.077	635.595
359.723	16.970	850.393	634.776
360.738	17.009	850.067	634.623
361.752	17.090	849.472	634.425
362.767	16.980	848.918	633.544
363.781	17.173	848.526	633.917
364.796	17.195	847.496	633.173
365.810	17.158	847.899	633.279
366.825	17.243	846.882	632.781
367.840	17.146	846.701	632.229
368.854	17.097	846.065	631.514
369.869	17.084	845.823	631.229
370.883	17.253	845.045	631.223
371.898	17.433	844.604	631.503
372.913	17.378	844.451	631.131
373.927	17.370	843.976	630.691
374.942	17.385	843.278	630.168
375.956	17.386	843.057	629.949
376.971	17.455	842.555	629.776
377.986	17.453	842.235	629.472
379.000	17.471	841.796	629.154
380.015	17.464	841.065	628.528
381.029	17.386	840.762	627.956
382.044	17.548	840.070	627.982
383.059	17.614	838.852	627.258
384.073	17.496	838.648	626.618
385.088	17.506	838.233	626.287
386.102	17.410	837.780	625.540
387.117	17.591	837.277	625.777
388.132	17.460	836.547	624.693
389.146	17.597	835.672	624.487
390.161	17.725	835.106	624.478
391.175	17.699	834.949	624.210
392.190	17.588	834.272	623.243
393.205	17.533	833.964	622.756
394.219	17.528	833.701	622.485
395.234	17.439	833.775	622.160
396.248	17.564	832.676	621.744
397.263	17.576	832.295	621.446
398.278	17.500	832.299	621.118
399.292	17.549	831.553	620.686
400.307	17.615	831.133	620.556
401.321	17.652	830.512	620.174
402.336	17.689	830.028	619.890
403.350	17.868	829.776	620.299
404.365	17.682	829.178	619.120
405.380	17.931	828.347	619.348
406.394	17.926	827.950	618.980
407.409	17.782	827.489	618.057
408.423	17.879	827.369	618.263
409.438	17.803	827.122	617.752
410.453	17.992	826.457	617.883
411.467	17.921	825.626	616.952
412.482	18.007	825.451	617.075
413.496	17.976	825.450	616.908
414.511	17.965	825.067	616.528
415.526	18.084	824.289	616.322
416.540	18.113	823.777	615.987
417.555	18.137	823.396	615.734
418.569	18.092	822.889	615.139
419.584	18.075	822.360	614.630
420.599	18.123	821.870	614.380
421.613	116.034	1301.219	1493.082
422.628	100.755	1370.996	1493.149
