DTS Sentinel unit serial number:	SN413079Multiplexer serial number:	ORYXHardware model number:	OX4-SRSoftware version number:	ORYX F/W v4.00 Oryx Data Collector v3.7.2.0data status	okinstallation	princeton_trtdifferential loss correction	single-endedforward channel	channel 1reverse channel	N/Adate	2019/09/14time	23:22:35forward acquisition time	60.00reverse acquisition time	0.00gamma	496.2192k internal	0.2320k external	0.2320temperature offset calibration	0.9995default loss term (dB/km)	0.3790temperature slope calibration	1.0000multiplexer offset coefficient	1.0000multiplexer slope coefficient	1.0000fibre end	0.00T internal ref (°C)	32.37T ext. ref 1 (°C)	4.64T ext. ref 2 (°C)	27.41length (m)	temperature (°C)	Stokes	anti-Stokes-747.200	-116.290	-0.020	-0.004
-746.185	-45.248	-0.065	-0.032
-745.171	-62.375	-0.267	-0.112
-744.156	627.036	-0.050	0.128
-743.142	413.113	-0.033	-0.071
-742.127	-16.085	-0.107	0.069
-741.112	-138.198	-0.139	0.016
-740.098	-75.097	0.160	0.058
-739.083	-75.017	0.244	0.088
-738.069	200.473	0.166	0.258
-737.054	597.566	0.046	0.115
-736.039	-200.000	-0.002	-0.139
-735.025	-80.211	0.405	0.137
-734.010	137.339	-0.144	0.191
-732.996	121.022	-0.213	0.268
-731.981	800.000	-0.081	0.352
-730.966	-40.247	-0.125	0.066
-729.952	-53.543	0.291	-0.135
-728.937	-101.696	-0.306	0.075
-727.923	-176.484	-0.278	0.007
-726.908	-103.054	0.067	-0.016
-725.894	378.009	-0.055	-0.113
-724.879	-200.000	0.023	0.191
-723.864	72.909	-0.042	0.044
-722.850	-105.976	-0.316	-0.072
-721.835	-78.752	0.150	-0.052
-720.821	-200.000	0.014	-0.324
-719.806	-58.066	0.038	-0.017
-718.791	55.618	-0.144	0.141
-717.777	-200.000	-0.002	-0.320
-716.762	-200.000	0.002	-0.011
-715.748	-200.000	0.002	-0.225
-714.733	-27.552	-0.230	0.135
-713.718	151.745	0.055	-0.076
-712.704	34.927	-0.238	0.210
-711.689	-187.003	0.116	0.002
-710.675	-181.517	-0.109	0.002
-709.660	147.985	-0.115	0.157
-708.645	-200.000	-0.043	-0.332
-707.631	-18.523	-0.273	-0.172
-706.616	800.000	-0.077	-0.228
-705.602	-200.000	-0.010	-0.047
-704.587	-200.000	0.031	-0.242
-703.572	800.000	-0.096	-0.399
-702.558	12.443	-0.148	-0.115
-701.543	-200.000	0.001	0.073
-700.529	-200.000	0.006	-0.309
-699.514	-17.141	-0.226	-0.144
-698.499	0.489	0.142	-0.102
-697.485	800.000	-0.046	-0.147
-696.470	-85.984	-0.252	0.079
-695.456	-200.000	-0.003	-0.048
-694.441	749.125	0.029	0.079
-693.426	-136.590	0.121	0.014
-692.412	-103.185	-0.357	0.085
-691.397	7.095	0.151	-0.114
-690.383	-20.748	0.312	-0.193
-689.368	-156.667	0.406	0.025
-688.354	-52.289	0.300	0.140
-687.339	-129.307	0.224	0.031
-686.324	-200.000	-0.058	-0.000
-685.310	6.484	-0.191	0.144
-684.295	-47.744	-0.324	0.158
-683.281	197.949	0.157	0.241
-682.266	0.956	-0.181	0.131
-681.251	800.000	-0.081	-0.304
-680.237	800.000	-0.006	0.020
-679.222	147.043	0.072	-0.098
-678.208	800.000	-0.150	0.461
-677.193	393.882	0.053	-0.111
-676.178	-200.000	-0.037	0.192
-675.164	-200.000	-0.020	-0.112
-674.149	-200.000	-0.021	-0.177
-673.135	27.066	-0.146	0.124
-672.120	-106.538	-0.183	0.041
-671.105	800.000	0.015	0.051
-670.091	499.324	0.037	0.087
-669.076	28.656	-0.140	-0.120
-668.062	-42.028	0.170	-0.088
-667.047	-56.496	-0.126	0.056
-666.032	-200.000	0.014	-0.344
-665.018	-105.185	-0.257	0.059
-664.003	-84.870	0.346	0.110
-662.989	-29.805	-0.207	0.119
-661.974	-200.000	-0.002	-0.138
-660.959	-200.000	0.032	0.191
-659.945	332.480	-0.086	0.167
-658.930	-104.532	-0.045	0.011
-657.916	-32.966	-0.111	-0.062
-656.901	-200.000	-0.003	0.082
-655.886	96.254	-0.171	0.197
-654.872	240.293	-0.037	-0.063
-653.857	236.561	-0.097	-0.162
-652.843	-200.000	0.014	0.184
-651.828	280.976	0.092	0.167
-650.814	-25.366	0.070	-0.042
-649.799	-101.684	-0.453	0.111
-648.784	-10.363	0.103	0.069
-647.770	421.950	0.091	0.198
-646.755	288.455	-0.086	-0.157
-645.741	265.104	-0.119	-0.209
-644.726	-65.632	0.154	0.062
-643.711	-200.000	0.318	0.001
-642.697	800.000	-0.115	-0.428
-641.682	158.136	-0.032	0.045
-640.668	-83.789	-0.150	-0.048
-639.653	-98.092	0.121	0.031
-638.638	62.761	-0.151	0.152
-637.624	800.000	-0.045	-0.142
-636.609	-200.000	-0.037	-0.327
-635.595	-200.000	-0.024	-0.289
-634.580	-194.991	-0.170	0.001
-633.565	-58.763	-0.072	-0.031
-632.551	182.819	0.111	-0.166
-631.536	-157.124	-0.159	-0.010
-630.522	185.559	-0.060	-0.090
-629.507	577.176	-0.044	0.107
-628.492	73.093	0.064	-0.067
-627.478	472.062	0.116	-0.262
-626.463	-87.683	0.153	0.046
-625.449	-109.836	-0.127	-0.027
-624.434	-3.556	-0.089	-0.062
-623.419	-52.174	0.146	0.068
-622.405	24.305	0.075	-0.062
-621.390	89.294	0.091	0.102
-620.376	-200.000	0.015	0.218
-619.361	206.085	0.058	-0.091
-618.346	800.000	0.025	-0.080
-617.332	32.182	0.052	0.045
-616.317	800.000	-0.079	-0.243
-615.303	150.724	-0.207	-0.283
-614.288	-115.857	0.073	0.014
-613.273	799.183	-0.060	-0.167
-612.259	-200.000	0.052	-0.500
-611.244	-200.000	-0.013	-0.187
-610.230	-200.000	0.012	-0.118
-609.215	-169.169	-0.054	-0.002
-608.201	-49.331	-0.052	-0.025
-607.186	601.451	-0.075	-0.188
-606.171	148.599	0.197	0.268
-605.157	-132.407	0.193	0.025
-604.142	-147.440	0.256	0.022
-603.128	-200.000	-0.031	0.161
-602.113	-26.355	-0.181	-0.107
-601.098	-200.000	0.025	-0.365
-600.084	-33.231	-0.146	-0.081
-599.069	-200.000	-0.008	0.080
-598.055	-200.000	-0.017	-0.275
-597.040	-200.000	-0.079	-0.378
-596.025	-70.480	-0.103	-0.039
-595.011	-18.805	0.188	0.118
-593.996	540.434	-0.055	0.132
-592.982	300.778	0.057	-0.106
-591.967	800.000	0.064	-0.263
-590.952	-0.523	-0.204	-0.145
-589.938	-149.166	0.404	0.033
-588.923	463.338	0.108	0.242
-587.909	-167.016	-0.285	0.012
-586.894	-69.736	0.406	0.156
-585.879	-200.000	0.013	-0.132
-584.865	23.498	-0.188	-0.155
-583.850	51.309	0.178	0.170
-582.836	24.991	-0.176	-0.146
-581.821	-50.925	-0.357	-0.169
-580.806	-121.977	0.142	0.024
-579.792	674.998	0.048	0.126
-578.777	-73.271	-0.219	-0.081
-577.763	413.348	-0.118	-0.252
-576.748	-92.858	0.214	0.060
-575.733	634.384	-0.051	0.131
-574.719	800.000	-0.016	0.065
-573.704	-91.309	-0.078	0.023
-572.690	-96.946	0.272	-0.072
-571.675	307.454	-0.091	0.170
-570.661	-109.633	0.096	-0.020
-569.646	-200.000	0.022	-0.147
-568.631	-107.605	0.282	0.062
-567.617	-94.078	0.088	0.024
-566.602	-114.649	-0.352	-0.068
-565.588	-200.000	-0.015	-0.204
-564.573	57.837	0.304	-0.298
-563.558	146.883	0.083	-0.113
-562.544	-166.506	0.051	-0.002
-561.529	188.015	0.159	0.239
-560.515	35.336	-0.091	0.080
-559.500	119.262	-0.175	0.218
-558.485	421.459	-0.043	0.092
-557.471	-102.113	-0.284	0.069
-556.456	338.732	-0.198	0.387
-555.442	-69.346	-0.275	-0.106
-554.427	235.143	0.229	0.379
-553.412	66.359	-0.141	-0.144
-552.398	-200.000	-0.020	-0.171
-551.383	75.496	-0.079	-0.084
-550.369	-61.879	-0.259	-0.109
-549.354	464.360	-0.062	-0.140
-548.339	507.858	0.147	-0.342
-547.325	-12.528	0.056	-0.037
-546.310	-200.000	0.000	-0.176
-545.296	-200.000	0.000	-0.365
-544.281	67.475	-0.148	0.152
-543.266	-189.555	0.091	-0.001
-542.252	-200.000	0.084	-0.583
-541.237	794.904	-0.060	-0.166
-540.223	92.524	-0.191	0.216
-539.208	-200.000	0.028	-0.256
-538.193	29.235	0.205	-0.175
-537.179	-93.972	0.049	-0.014
-536.164	-200.000	0.000	-0.007
-535.150	529.186	-0.080	0.190
-534.135	-200.000	-0.056	-0.313
-533.121	-123.517	0.282	0.045
-532.106	146.902	-0.036	-0.048
-531.091	69.040	0.314	0.324
-530.077	-55.049	0.269	0.121
-529.062	58.737	0.232	0.228
-528.048	-11.584	0.134	-0.088
-527.033	-46.861	0.124	0.061
-526.018	800.000	0.076	0.220
-525.004	9.099	-0.496	0.375
-523.989	-66.118	0.059	0.024
-522.975	155.869	-0.085	0.118
-521.960	-26.692	-0.258	-0.151
-520.945	23.463	0.069	0.057
-519.931	284.545	0.172	0.310
-518.916	-120.862	0.104	0.018
-517.902	130.173	0.264	0.339
-516.887	-132.760	0.033	-0.004
-515.872	14.278	0.270	-0.211
-514.858	-146.483	0.145	-0.013
-513.843	-200.000	0.020	0.173
-512.829	262.207	0.018	0.031
-511.814	200.397	-0.079	0.122
-510.799	298.179	-0.132	-0.244
-509.785	62.634	-0.195	-0.195
-508.770	-200.000	-0.038	0.432
-507.756	-71.428	-0.288	0.108
-506.741	-138.801	-0.410	-0.045
-505.726	-150.931	0.138	0.010
-504.712	-100.031	0.080	0.020
-503.697	-200.000	-0.029	0.130
-502.683	800.000	0.066	-0.194
-501.668	458.740	0.077	-0.172
-500.653	170.922	0.180	0.259
-499.639	171.394	-0.311	0.447
-498.624	-15.109	-0.030	0.019
-497.610	-200.000	-0.148	-0.000
-496.595	316.407	-0.061	0.116
-495.581	-36.339	0.279	0.151
-494.566	-119.854	-0.181	0.031
-493.551	800.000	-0.052	0.179
-492.537	-58.492	0.378	0.164
-491.522	284.947	0.172	-0.310
-490.508	440.238	-0.091	0.199
-489.493	94.690	0.172	-0.196
-488.478	800.000	-0.035	0.105
-487.464	-133.598	0.254	0.032
-486.449	13.634	0.053	-0.041
-485.435	297.119	0.156	-0.286
-484.420	-28.563	0.201	-0.116
-483.405	225.050	-0.285	-0.461
-482.391	-200.000	0.013	-0.067
-481.376	-89.607	-0.276	-0.081
-480.362	-200.000	0.004	0.116
-479.347	-6.803	0.243	0.165
-478.332	800.000	-0.122	0.363
-477.318	-82.244	-0.280	0.091
-476.303	-40.518	-0.456	-0.237
-475.289	-170.074	-0.240	-0.009
-474.274	-200.000	0.004	0.381
-473.259	-118.111	-0.194	0.035
-472.245	-120.305	0.153	0.026
-471.230	-101.570	0.309	-0.075
-470.216	-200.000	-0.072	0.342
-469.201	100.032	0.041	-0.047
-468.186	112.687	0.079	0.096
-467.172	35.530	-0.119	0.105
-466.157	36.612	0.400	0.353
-465.143	292.492	-0.065	0.118
-464.128	800.000	0.149	-0.449
-463.113	-49.779	-0.241	0.115
-462.099	13.620	-0.105	-0.082
-461.084	-36.318	0.271	0.146
-460.070	800.000	0.046	-0.144
-459.055	346.641	-0.115	-0.226
-458.040	156.075	0.213	-0.294
-457.026	381.121	-0.040	-0.083
-456.011	232.149	-0.177	0.291
-454.997	178.307	-0.125	-0.182
-453.982	388.732	-0.056	-0.116
-452.968	-21.750	-0.192	-0.117
-451.953	57.836	0.134	-0.132
-450.938	-76.676	-0.243	-0.085
-449.924	687.526	0.076	0.198
-448.909	-38.452	0.240	0.127
-447.895	-16.516	-0.356	0.226
-446.880	-200.000	0.008	0.079
-445.865	-52.576	0.261	0.120
-444.851	800.000	0.095	0.338
-443.836	-200.000	-0.003	0.414
-442.822	800.000	0.080	0.326
-441.807	-47.328	-0.066	-0.032
-440.792	124.136	0.067	-0.084
-439.778	-40.434	-0.309	-0.161
-438.763	-141.627	-0.041	0.004
-437.749	45.108	-0.129	0.118
-436.734	194.629	0.166	0.252
-435.719	73.723	0.146	-0.153
-434.705	183.264	-0.073	-0.108
-433.690	-18.891	0.268	0.166
-432.676	123.943	0.121	0.152
-431.661	5.338	-0.339	0.250
-430.646	306.474	-0.166	0.309
-429.632	-100.602	0.173	-0.043
-428.617	-127.614	-0.237	-0.034
-427.603	-200.000	0.062	-0.622
-426.588	-78.557	-0.091	-0.031
-425.573	-200.000	0.017	-0.127
-424.559	738.059	-0.088	-0.237
-423.544	63.190	-0.096	0.096
-422.530	81.261	-0.160	0.173
-421.515	-98.301	0.268	0.069
-420.500	-148.054	0.078	0.006
-419.486	239.913	-0.262	-0.435
-418.471	-38.661	0.380	-0.200
-417.457	-24.465	0.200	-0.119
-416.442	-123.007	-0.378	-0.061
-415.428	4.794	-0.113	-0.083
-414.413	-198.264	0.115	0.001
-413.398	33.614	-0.291	0.252
-412.384	12.380	-0.171	0.132
-411.369	68.294	0.138	0.141
-410.355	120.653	0.153	0.190
-409.340	-107.434	-0.174	-0.038
-408.325	-167.200	0.167	0.007
-407.311	144.198	-0.194	0.258
-406.296	31.974	-0.042	-0.036
-405.282	-112.970	-0.197	0.039
-404.267	-17.635	0.170	-0.106
-403.252	471.717	-0.038	-0.085
-402.238	800.000	0.082	-0.236
-401.223	52.315	-0.346	-0.330
-400.209	10.535	0.215	0.163
-399.194	-200.000	-0.011	0.444
-398.179	800.000	-0.055	0.230
-397.165	800.000	-0.112	-0.483
-396.150	336.576	-0.056	0.109
-395.136	-95.601	-0.240	-0.064
-394.121	47.126	-0.105	-0.098
-393.106	-38.159	-0.156	-0.082
-392.092	-120.431	-0.285	-0.048
-391.077	-66.320	0.125	0.049
-390.063	84.071	-0.050	-0.055
-389.048	-152.596	-0.209	-0.015
-388.033	-200.000	-0.022	0.350
-387.019	-8.504	-0.197	-0.132
-386.004	-83.627	-0.270	0.086
-384.990	-20.388	-0.259	0.159
-383.975	-80.269	0.155	-0.052
-382.960	-147.575	0.175	0.015
-381.946	111.044	-0.203	0.244
-380.931	-200.000	-0.051	-0.293
-379.917	280.043	-0.140	0.249
-378.902	221.185	0.082	-0.131
-377.888	61.992	-0.256	0.255
-376.873	-133.854	0.246	0.030
-375.858	-87.556	0.364	0.110
-374.844	10.111	-0.052	-0.040
-373.829	800.000	-0.125	0.365
-372.815	-200.000	-0.066	0.301
-371.800	216.463	-0.176	0.279
-370.785	189.732	0.178	-0.265
-369.771	11.705	-0.031	-0.024
-368.756	800.000	-0.055	-0.161
-367.742	704.206	0.060	-0.158
-366.727	-141.346	0.287	-0.029
-365.712	244.860	-0.164	0.275
-364.698	-200.000	0.010	0.103
-363.683	239.089	0.194	0.322
-362.669	110.428	-0.063	0.075
-361.654	-90.696	-0.348	-0.100
-360.639	-28.200	0.015	0.008
-359.625	800.000	0.063	-0.214
-358.610	-200.000	-0.033	-0.417
-357.596	134.598	0.180	-0.233
-356.581	800.000	-0.060	0.198
-355.566	-84.146	-0.454	-0.144
-354.552	102.608	0.177	0.207
-353.537	76.834	-0.032	0.034
-352.523	113.325	0.301	-0.364
-351.508	-200.000	0.018	-0.182
-350.493	306.543	-0.093	0.173
-349.479	70.470	0.133	0.137
-348.464	211.447	0.161	-0.253
-347.450	-182.297	-0.140	0.003
-346.435	-5.857	-0.215	0.146
-345.420	800.000	0.057	0.175
-344.406	-123.895	-0.357	0.056
-343.391	5.110	0.090	0.066
-342.377	426.589	-0.028	-0.060
-341.362	298.287	-0.048	-0.088
-340.348	-186.371	0.323	-0.005
-339.333	-107.158	0.092	0.020
-338.318	26.428	0.196	-0.163
-337.304	-200.000	0.040	0.218
-336.289	-200.000	-0.363	-0.001
-335.275	158.996	0.185	0.256
-334.260	-96.346	-0.200	-0.053
-333.245	-200.000	0.017	-0.111
-332.231	800.000	-0.110	0.318
-331.216	-200.000	-0.006	-0.073
-330.202	-144.356	0.130	0.012
-329.187	-20.430	-0.178	-0.109
-328.172	-81.493	-0.240	0.078
-327.158	49.159	0.081	-0.076
-326.143	-40.164	0.278	0.144
-325.129	-1.818	0.258	0.181
-324.114	-66.346	0.094	-0.037
-323.099	-200.000	0.002	-0.119
-322.085	-200.000	0.046	-0.237
-321.070	-90.897	-0.136	0.039
-320.056	-107.862	-0.105	-0.023
-319.041	-11.035	0.184	-0.121
-318.026	423.373	0.040	-0.085
-317.012	665.237	0.064	-0.164
-315.997	619.935	0.183	-0.457
-314.983	-200.000	-0.003	-0.066
-313.968	-200.000	-0.004	0.136
-312.953	12.142	0.388	-0.297
-311.939	-200.000	0.026	0.143
-310.924	-20.451	-0.213	-0.130
-309.910	800.000	-0.039	-0.148
-308.895	-200.000	0.017	-0.248
-307.880	139.093	-0.121	0.158
-306.866	-92.792	-0.120	0.033
-305.851	-98.991	-0.206	0.052
-304.837	-77.249	-0.355	-0.123
-303.822	800.000	0.065	0.223
-302.807	-34.975	0.085	-0.046
-301.793	7.536	0.175	0.130
-300.778	5.508	0.140	0.103
-299.764	-101.158	0.101	0.024
-298.749	412.011	0.159	-0.336
-297.735	-200.000	0.021	0.262
-296.720	68.611	0.051	-0.051
-295.705	14.244	-0.268	0.208
-294.691	-133.816	0.206	-0.025
-293.676	545.580	-0.121	-0.288
-292.662	654.484	-0.088	0.224
-291.647	-172.673	-0.191	-0.006
-290.632	-6.784	0.330	0.223
-289.618	81.512	-0.358	0.385
-288.603	-120.015	0.119	0.020
-287.589	-86.406	-0.171	0.052
-286.574	-200.000	-0.006	0.121
-285.559	-102.043	0.334	0.080
-284.545	-132.719	-0.255	-0.032
-283.530	-200.000	0.020	-0.102
-282.516	-40.510	-0.118	-0.061
-281.501	-200.000	-0.019	-0.231
-280.486	-67.125	-0.027	-0.010
-279.472	-126.223	-0.159	-0.024
-278.457	126.466	0.170	0.214
-277.443	800.000	0.123	0.371
-276.428	-146.332	0.138	-0.012
-275.413	-111.241	-0.436	-0.088
-274.399	412.212	-0.101	0.213
-273.384	-132.967	0.281	0.035
-272.370	-127.021	0.249	-0.036
-271.355	192.736	-0.084	-0.127
-270.340	15.843	0.313	0.244
-269.326	-108.211	0.338	0.072
-268.311	75.882	-0.199	-0.209
-267.297	405.594	0.097	0.203
-266.282	-10.309	0.092	0.061
-265.267	-200.000	0.008	-0.259
-264.253	21.802	-0.192	-0.155
-263.238	-200.000	0.050	-0.257
-262.224	-35.324	-0.144	-0.077
-261.209	-45.984	0.183	0.090
-260.195	-116.335	-0.183	-0.034
-259.180	-200.000	0.026	-0.274
-258.165	95.550	0.301	0.341
-257.151	55.225	0.017	-0.016
-256.136	800.000	-0.107	0.367
-255.122	137.827	0.242	-0.314
-254.107	49.742	-0.059	-0.055
-253.092	-75.676	0.177	0.062
-252.078	157.109	-0.135	-0.185
-251.063	535.603	0.048	0.112
-250.049	-65.835	-0.313	0.124
-249.034	-200.000	0.005	-0.127
-248.019	282.227	-0.083	-0.148
-247.005	17.441	-0.053	-0.041
-245.990	800.000	0.100	-0.273
-244.976	15.992	-0.211	0.165
-243.961	537.431	0.094	-0.222
-242.946	-200.000	0.019	-0.089
-241.932	-200.000	-0.032	-0.148
-240.917	800.000	0.122	0.388
-239.903	48.285	0.292	0.271
-238.888	34.910	0.210	0.182
-237.873	-33.094	-0.295	0.162
-236.859	157.821	-0.178	0.245
-235.844	-96.306	0.430	0.113
-234.830	69.203	-0.098	-0.100
-233.815	-73.264	-0.492	-0.179
-232.800	-200.000	-0.012	0.166
-231.786	-200.000	-0.037	0.169
-230.771	-96.443	0.231	0.061
-229.757	-117.168	-0.245	0.044
-228.742	-200.000	-0.021	-0.138
-227.727	-113.198	0.132	-0.026
-226.713	800.000	0.089	-0.263
-225.698	211.526	-0.126	0.196
-224.684	62.992	0.324	0.322
-223.669	470.516	0.042	-0.094
-222.655	-66.666	0.414	0.163
-221.640	800.000	-0.084	-0.319
-220.625	390.043	-0.119	-0.244
-219.611	800.000	0.026	-0.072
-218.596	176.674	-0.051	0.074
-217.582	-134.487	0.214	0.026
-216.567	-47.235	-0.210	-0.102
-215.552	488.655	-0.074	0.166
-214.538	800.000	-0.063	-0.212
-213.523	-38.484	-0.439	0.230
-212.509	8.442	-0.108	-0.080
-211.494	-123.853	0.412	0.064
-210.479	359.266	-0.161	-0.320
-209.465	40.582	0.180	-0.161
-208.450	-200.000	-0.050	0.271
-207.436	113.365	-0.089	-0.106
-206.421	-200.000	-0.038	-0.181
-205.406	-58.357	0.165	-0.071
-204.392	-171.204	0.317	-0.011
-203.377	-200.000	-0.048	0.415
-202.363	-200.000	-0.031	0.457
-201.348	91.185	0.140	-0.155
-200.333	241.073	0.234	0.386
-199.319	-187.731	-0.280	0.004
-198.304	96.484	0.198	0.224
-197.290	-107.532	0.116	-0.025
-196.275	16.067	-0.185	-0.144
-195.260	-101.059	0.120	-0.029
-194.246	-200.000	0.008	-0.057
-193.231	800.000	-0.007	0.028
-192.217	-61.133	0.112	-0.047
-191.202	-140.765	0.255	-0.026
-190.187	800.000	0.119	-0.366
-189.173	0.689	-0.321	-0.227
-188.158	-75.856	0.369	0.130
-187.144	-200.000	0.017	0.105
-186.129	800.000	0.114	0.323
-185.114	94.303	-0.128	0.144
-184.100	-46.423	0.139	-0.068
-183.085	-86.997	0.264	-0.080
-182.071	109.463	-0.105	0.124
-181.056	-12.885	-0.208	-0.134
-180.042	-122.407	0.175	0.028
-179.027	211.782	0.035	0.055
-178.012	-66.445	-0.243	0.095
-176.998	-93.521	0.434	0.119
-175.983	465.248	0.075	-0.166
-174.969	-72.032	0.119	0.044
-173.954	-151.791	-0.155	0.011
-172.939	128.483	-0.150	-0.189
-171.925	-106.561	0.234	0.052
-170.910	504.960	-0.113	-0.258
-169.896	49.453	-0.241	0.224
-168.881	333.246	-0.117	-0.224
-167.866	-64.764	0.281	0.112
-166.852	-99.750	0.209	0.052
-165.837	800.000	0.076	-0.272
-164.823	-138.328	0.255	-0.028
-163.808	-69.807	0.038	-0.014
-162.793	-96.313	-0.219	0.057
-161.779	95.447	-0.154	0.173
-160.764	-103.186	0.305	-0.071
-159.750	43.687	0.116	-0.105
-158.735	-155.215	-0.349	0.023
-157.720	-200.000	0.053	0.285
-156.706	559.727	0.057	-0.135
-155.691	-200.000	-0.033	0.186
-154.677	396.746	-0.047	0.096
-153.662	800.000	0.165	-0.467
-152.647	-200.000	-0.017	0.234
-151.633	-165.153	-0.194	-0.008
-150.618	704.517	0.097	0.252
-149.604	-200.000	0.033	0.181
-148.589	-24.228	0.207	0.122
-147.574	-172.623	0.350	-0.011
-146.560	-183.212	-0.355	0.006
-145.545	365.515	-0.042	0.084
-144.531	-85.846	0.322	-0.099
-143.516	-93.117	-0.253	0.070
-142.502	-149.456	0.149	-0.012
-141.487	7.796	0.313	0.231
-140.472	-200.000	-0.022	-0.214
-139.458	-156.218	-0.271	-0.017
-138.443	-143.996	0.060	0.006
-137.429	-119.203	-0.130	0.022
-136.414	-200.000	-0.048	0.317
-135.399	-87.823	0.039	0.012
-134.385	-64.098	0.214	-0.086
-133.370	96.865	-0.098	-0.111
-132.356	-200.000	-0.031	0.250
-131.341	-200.000	0.006	-0.056
-130.326	800.000	0.086	-0.272
-129.312	295.617	0.012	-0.021
-128.297	156.276	-0.041	-0.056
-127.283	800.000	0.047	-0.194
-126.268	203.193	-0.044	-0.067
-125.253	25.849	-0.062	-0.051
-124.239	343.185	-0.156	0.302
-123.224	103.968	0.109	0.126
-122.210	800.000	-0.071	0.242
-121.195	293.258	-0.086	0.156
-120.180	-200.000	-0.026	0.277
-119.166	36.326	0.223	0.194
-118.151	-33.178	-0.352	-0.192
-117.137	-127.620	0.069	0.010
-116.122	-200.000	0.012	-0.266
-115.107	-59.017	-0.167	-0.071
-114.093	-200.000	0.032	0.366
-113.078	69.270	0.100	0.101
-112.064	436.189	-0.192	0.413
-111.049	800.000	0.080	0.287
-110.034	-200.000	0.007	-0.119
-109.020	800.000	-0.042	0.162
-108.005	18.372	-0.139	0.109
-106.991	124.111	0.317	0.393
-105.976	105.107	-0.124	0.145
-104.962	-93.216	-0.168	-0.046
-103.947	67.130	-0.092	0.092
-102.932	207.712	-0.120	-0.185
-101.918	-100.697	0.159	0.039
-100.903	800.000	-0.085	-0.268
-99.889	800.000	0.020	-0.083
-98.874	56.268	0.156	0.149
-97.859	800.000	-0.024	-0.070
-96.845	336.152	-0.035	-0.067
-95.830	-99.877	0.052	0.013
-94.816	63.919	0.151	0.149
-93.801	-113.671	0.088	0.017
-92.786	-68.371	-0.355	-0.136
-91.772	164.177	0.142	0.198
-90.757	394.507	0.122	-0.251
-89.743	451.318	0.078	-0.171
-88.728	-12.454	0.104	-0.067
-87.713	-85.865	0.282	-0.086
-86.699	208.052	0.144	0.221
-85.684	40.734	-0.069	-0.061
-84.670	-7.573	-0.243	-0.162
-83.655	31.326	0.055	-0.046
-82.640	207.721	0.175	0.270
-81.626	-32.698	-0.227	0.125
-80.611	62.958	-0.023	-0.023
-79.597	10.545	-0.137	-0.103
-78.582	-93.031	-0.122	0.034
-77.567	519.797	-0.038	-0.087
-76.553	800.000	0.174	0.543
-75.538	-36.824	-0.139	-0.073
-74.524	-97.016	-0.275	-0.071
-73.509	60.604	-0.153	0.149
-72.494	460.917	-0.185	0.407
-71.480	154.618	0.135	0.183
-70.465	-44.329	0.046	0.023
-69.451	4.963	0.107	0.078
-68.436	284.804	0.141	-0.251
-67.422	153.374	0.066	-0.089
-66.407	-200.000	0.001	-0.168
-65.392	-19.728	0.259	0.158
-64.378	800.000	0.056	-0.224
-63.363	364.340	-0.085	0.169
-62.349	-71.535	-0.141	-0.052
-61.334	126.197	-0.809	-1.008
-60.319	76.033	0.452	0.471
-59.305	-200.000	-0.141	-1.113
-58.290	557.738	0.538	1.277
-57.276	800.000	0.456	1.408
-56.261	-200.000	95.460	587.790
-55.246	660.820	1370.566	3475.504
-54.232	199.834	2542.319	3840.983
-53.217	121.118	2139.515	2621.465
-52.203	44.352	1604.418	1450.011
-51.188	35.866	1342.640	1162.407
-50.173	32.683	1301.624	1108.173
-49.159	54.672	1347.816	1279.383
-48.144	56.910	1364.597	1308.626
-47.130	36.017	1323.863	1146.864
-46.115	32.649	1306.575	1112.011
-45.100	32.343	1301.130	1105.534
-44.086	32.154	1299.362	1102.878
-43.071	32.278	1296.524	1101.154
-42.057	32.287	1294.392	1099.350
-41.042	32.272	1292.712	1097.792
-40.027	32.264	1291.164	1096.390
-39.013	32.288	1289.390	1094.980
-37.998	32.305	1287.349	1093.299
-36.984	32.297	1285.722	1091.829
-35.969	32.390	1284.053	1090.906
-34.954	32.441	1282.483	1089.827
-33.940	32.466	1280.910	1088.588
-32.925	32.531	1279.698	1087.896
-31.911	32.460	1278.440	1086.371
-30.896	32.396	1276.693	1084.477
-29.881	32.498	1275.338	1083.866
-28.867	32.539	1273.778	1082.737
-27.852	32.534	1272.352	1081.449
-26.838	32.508	1270.873	1080.003
-25.823	32.431	1269.970	1078.753
-24.809	32.383	1269.271	1077.838
-23.794	32.468	1267.232	1076.550
-22.779	32.546	1266.017	1075.921
-21.765	32.406	1264.851	1074.086
-20.750	32.458	1263.293	1073.022
-19.736	32.380	1261.877	1071.333
-18.721	32.335	1261.214	1070.468
-17.706	32.224	1260.066	1068.821
-16.692	32.262	1258.781	1067.903
-15.677	32.313	1257.473	1067.042
-14.663	32.414	1256.198	1066.491
-13.648	32.349	1255.338	1065.351
-12.633	32.387	1254.057	1064.437
-11.619	32.242	1253.719	1063.285
-10.604	32.361	1252.697	1063.048
-9.590	32.323	1251.558	1061.827
-8.575	32.323	1250.406	1060.806
-7.560	32.241	1249.881	1059.855
-6.546	32.247	1249.671	1059.673
-5.531	32.240	1248.334	1058.454
-4.517	32.351	1247.194	1058.073
-3.502	32.274	1246.730	1057.203
-2.487	32.263	1245.427	1055.996
-1.473	32.271	1241.192	1052.408
-0.458	30.843	1226.652	1032.130
0.556	26.314	1209.361	994.744
1.571	22.678	1214.790	978.978
2.586	21.758	1230.032	986.000
3.600	21.178	1218.909	973.766
4.615	16.239	1147.302	890.485
5.629	8.244	1074.525	794.269
6.644	4.787	1055.352	763.106
7.659	4.554	1052.491	759.829
8.673	4.617	1051.837	759.600
9.688	4.603	1050.344	758.385
10.702	4.785	1048.208	757.660
11.717	9.199	1054.478	783.698
12.731	16.274	1064.571	825.859
13.746	19.006	1067.119	841.141
14.761	18.127	1065.742	835.687
15.775	17.283	1063.278	829.563
16.790	16.141	1061.400	822.457
17.804	15.400	1060.046	817.728
18.819	15.105	1058.616	815.114
19.834	14.783	1057.794	812.842
20.848	14.547	1057.154	811.134
21.863	14.456	1056.198	809.886
22.877	14.320	1055.193	808.381
23.892	14.141	1054.808	807.147
24.907	14.222	1054.009	806.859
25.921	14.233	1053.065	806.118
26.936	14.198	1051.743	804.865
27.950	14.250	1050.395	804.013
28.965	14.382	1048.740	803.309
29.980	14.413	1047.406	802.368
30.994	14.699	1045.762	802.410
32.009	14.639	1045.033	801.492
33.023	14.444	1044.629	800.175
34.038	14.404	1043.578	799.110
35.053	14.304	1042.333	797.606
36.067	14.390	1041.399	797.231
37.082	14.373	1040.544	796.428
38.096	14.630	1039.851	797.054
39.111	14.476	1039.036	795.624
40.126	14.394	1038.058	794.414
41.140	14.041	1036.872	791.755
42.155	14.106	1035.505	790.950
43.169	14.076	1034.443	789.926
44.184	14.138	1033.264	789.252
45.199	14.099	1032.465	788.383
46.213	14.219	1031.483	788.134
47.228	14.415	1030.395	788.160
48.242	14.374	1029.258	787.026
49.257	14.481	1028.246	786.688
50.271	14.420	1027.253	785.568
51.286	14.391	1027.095	785.244
52.301	14.439	1026.015	784.575
53.315	14.304	1024.378	782.617
54.330	14.249	1023.696	781.769
55.344	14.180	1023.161	780.967
56.359	14.313	1021.987	780.628
57.374	14.173	1021.361	779.423
58.388	14.058	1020.838	778.418
59.403	14.026	1019.898	777.480
60.417	14.217	1018.525	777.256
61.432	14.174	1018.114	776.677
62.447	14.006	1017.487	775.346
63.461	14.054	1016.127	774.462
64.476	14.049	1015.297	773.738
65.490	14.021	1014.680	773.069
66.505	14.054	1014.232	772.815
67.520	14.107	1013.153	772.171
68.534	14.052	1012.525	771.368
69.549	14.119	1011.442	770.782
70.563	14.098	1010.790	770.124
71.578	13.947	1010.203	768.907
72.593	14.008	1009.189	768.349
73.607	13.941	1009.066	767.876
74.622	14.004	1008.157	767.408
75.636	14.004	1007.424	766.784
76.651	14.024	1006.777	766.317
77.666	13.908	1006.781	765.715
78.680	14.003	1005.692	765.259
79.695	13.919	1005.261	764.476
80.709	14.238	1004.571	765.349
81.724	14.125	1003.766	764.149
82.739	14.172	1003.292	763.939
83.753	14.351	1002.842	764.349
84.768	14.356	1001.641	763.388
85.782	14.524	1000.969	763.577
86.797	14.440	999.709	762.168
87.812	14.380	998.986	761.273
88.826	14.413	998.158	760.724
89.841	14.310	997.488	759.678
90.855	14.422	996.392	759.287
91.870	14.472	995.409	758.695
92.884	14.508	994.888	758.398
93.899	14.554	993.958	757.828
94.914	14.544	993.159	757.107
95.928	14.538	992.188	756.271
96.943	14.495	991.444	755.446
97.957	14.535	990.747	755.028
98.972	14.367	989.797	753.478
99.987	14.534	989.064	753.607
101.001	14.503	988.092	752.658
102.016	14.434	987.501	751.833
103.030	14.580	986.480	751.646
104.045	14.584	986.065	751.280
105.060	14.501	984.768	749.852
106.074	14.279	983.771	748.029
107.089	14.187	982.480	746.569
108.103	14.197	981.921	746.122
109.118	14.138	980.908	745.025
110.133	14.211	979.832	744.466
111.147	14.193	978.825	743.553
112.162	14.118	978.393	742.825
113.176	14.190	977.966	742.756
114.191	14.213	977.126	742.156
115.206	14.283	976.130	741.648
116.220	14.170	975.227	740.390
117.235	14.342	973.881	740.068
118.249	14.246	973.365	739.186
119.264	14.138	972.705	738.139
120.279	14.219	971.818	737.760
121.293	14.143	970.888	736.652
122.308	14.156	969.861	735.867
123.322	14.104	969.033	734.940
124.337	14.104	967.896	734.016
125.352	14.149	966.810	733.326
126.366	14.112	966.131	732.580
127.381	14.095	965.260	731.780
128.395	14.024	964.564	730.878
129.410	14.146	963.413	730.475
130.424	14.105	962.577	729.597
131.439	14.318	961.765	729.853
132.454	14.371	961.521	729.833
133.468	14.342	960.124	728.581
134.483	14.327	959.728	728.150
135.497	14.331	959.043	727.583
136.512	14.325	958.023	726.719
137.527	14.387	956.714	725.934
138.541	14.291	956.114	724.995
139.556	14.359	955.449	724.725
140.570	14.438	955.100	724.739
141.585	14.419	954.490	724.129
142.600	14.507	953.467	723.672
143.614	14.541	952.606	723.101
144.629	14.607	951.792	722.705
145.643	14.587	950.823	721.819
146.658	14.538	949.568	720.591
147.673	14.333	949.276	719.421
148.687	14.331	948.076	718.436
149.702	14.405	947.287	718.095
150.716	14.374	946.534	717.326
151.731	14.417	945.621	716.759
152.746	14.512	944.819	716.494
153.760	14.478	944.355	715.930
154.775	14.517	944.439	716.100
155.789	14.473	943.401	715.060
156.804	14.532	942.574	714.625
157.819	14.634	941.998	714.559
158.833	14.638	941.150	713.871
159.848	14.861	940.131	713.987
160.862	14.747	938.945	712.536
161.877	14.494	938.619	711.149
162.892	14.425	937.544	709.975
163.906	14.430	936.759	709.339
164.921	14.331	936.221	708.450
165.935	14.539	935.104	708.424
166.950	14.544	934.215	707.711
167.964	14.495	933.426	706.841
168.979	14.419	932.712	705.915
169.994	14.555	931.685	705.651
171.008	14.629	931.202	705.538
172.023	14.671	930.247	704.927
173.037	14.684	929.967	704.711
174.052	14.708	929.048	704.050
175.067	14.583	928.181	702.807
176.081	14.637	927.771	702.661
177.096	14.640	927.172	702.156
178.110	14.599	926.743	701.595
179.125	14.628	926.192	701.239
180.140	14.489	925.622	700.163
181.154	14.809	924.655	700.712
182.169	14.823	924.433	700.541
183.183	14.752	924.128	699.951
184.198	14.772	923.281	699.330
185.213	14.736	922.392	698.443
186.227	14.922	921.433	698.433
187.242	14.914	921.424	698.331
188.256	14.888	920.744	697.645
189.271	14.918	920.043	697.178
190.286	14.754	918.972	695.620
191.300	14.640	918.132	694.447
192.315	14.552	917.328	693.412
193.329	14.554	917.104	693.191
194.344	14.694	916.425	693.199
195.359	14.750	915.910	692.982
196.373	14.761	915.624	692.747
197.388	14.978	915.015	693.124
198.402	15.110	914.442	693.177
199.417	15.152	913.603	692.654
200.432	15.066	913.255	691.973
201.446	15.121	912.913	691.880
202.461	15.257	912.255	691.879
203.475	15.132	911.725	690.901
204.490	15.134	910.836	690.176
205.504	14.946	910.057	688.750
206.519	15.167	908.950	688.760
207.534	14.928	908.720	687.541
208.548	15.029	907.962	687.320
209.563	15.000	907.398	686.714
210.577	15.014	906.771	686.239
211.592	15.144	906.145	686.236
212.607	15.336	904.976	686.074
213.621	15.238	904.310	685.111
214.636	15.286	903.739	684.810
215.650	15.145	903.411	683.927
216.665	15.221	902.740	683.669
217.680	15.358	901.945	683.562
218.694	15.426	901.015	683.078
219.709	15.296	901.236	682.654
220.723	15.278	900.124	681.677
221.738	15.333	899.415	681.305
222.753	15.389	899.073	681.210
223.767	15.334	898.615	680.583
224.782	15.408	897.807	680.207
225.796	15.451	897.302	679.941
226.811	15.376	896.455	678.936
227.826	15.314	895.707	678.059
228.840	15.370	894.669	677.439
229.855	15.369	894.219	677.034
230.869	15.397	893.176	676.297
231.884	15.479	892.737	676.234
232.899	15.321	892.133	675.080
233.913	15.227	891.121	673.879
234.928	15.312	890.826	673.937
235.942	15.175	890.485	673.070
236.957	15.098	890.080	672.394
237.972	15.268	889.236	672.380
238.986	15.219	888.315	671.428
240.001	15.273	887.756	671.162
241.015	15.445	887.220	671.385
242.030	15.399	886.256	670.413
243.045	15.573	886.135	670.958
244.059	15.515	885.421	670.126
245.074	15.525	885.057	669.830
246.088	15.584	883.829	669.076
247.103	15.648	883.267	668.844
248.117	15.732	883.541	669.331
249.132	15.737	882.833	668.752
250.147	15.968	882.125	669.075
251.161	15.936	881.435	668.365
252.176	15.961	880.712	667.855
253.190	15.945	880.206	667.353
254.205	15.982	879.699	667.052
255.220	15.930	879.375	666.542
256.234	16.110	878.249	666.341
257.249	16.026	877.375	665.291
258.263	15.893	877.125	664.515
259.278	16.143	876.103	664.669
260.293	16.087	875.702	664.084
261.307	16.152	874.937	663.700
262.322	16.144	874.318	663.142
263.336	16.164	873.602	662.620
264.351	16.131	873.045	662.008
265.366	16.263	872.287	661.894
266.380	16.190	871.952	661.292
267.395	15.962	871.412	659.934
268.409	16.057	870.481	659.540
269.424	16.194	869.613	659.361
270.439	16.090	868.911	658.364
271.453	16.094	868.439	657.962
272.468	16.222	867.482	657.679
273.482	16.147	867.159	657.085
274.497	16.123	866.561	656.480
275.512	16.196	866.401	656.582
276.526	16.107	865.787	655.715
277.541	15.999	865.614	655.106
278.555	16.279	864.517	655.304
279.570	16.476	863.681	655.375
280.585	16.447	863.258	654.885
281.599	16.423	862.208	653.937
282.614	16.345	861.601	653.117
283.628	16.228	861.509	652.537
284.643	16.283	860.642	652.036
285.657	16.310	860.148	651.710
286.672	16.351	859.631	651.417
287.687	16.471	858.424	650.906
288.701	16.312	858.525	650.311
289.716	16.444	857.570	650.038
290.730	16.335	857.477	649.494
291.745	16.402	856.709	649.110
292.760	16.429	856.384	648.910
293.774	16.510	855.537	648.523
294.789	16.540	854.731	647.968
295.803	16.512	854.150	647.363
296.818	16.441	853.543	646.575
297.833	16.415	853.192	646.154
298.847	16.426	852.192	645.380
299.862	16.570	851.711	645.508
300.876	16.543	851.290	645.031
301.891	16.639	850.571	644.792
302.906	16.744	849.872	644.605
303.920	16.748	849.545	644.316
304.935	16.604	849.607	643.759
305.949	16.582	848.500	642.776
306.964	16.673	848.004	642.692
307.979	16.766	847.263	642.427
308.993	16.891	846.445	642.221
310.008	16.676	846.204	641.167
311.022	16.784	845.701	641.140
312.037	16.808	844.968	640.618
313.052	16.723	844.245	639.693
314.066	16.643	843.663	638.891
315.081	16.534	843.274	638.129
316.095	16.632	842.746	638.042
317.110	16.653	842.190	637.644
318.125	16.477	842.056	636.823
319.139	16.646	841.189	636.748
320.154	16.713	840.786	636.640
321.168	16.624	840.610	636.114
322.183	16.799	839.542	635.908
323.197	16.750	839.423	635.578
324.212	16.867	838.582	635.323
325.227	16.768	838.034	634.478
326.241	16.788	837.585	634.158
327.256	16.839	836.642	633.579
328.270	16.767	836.311	633.002
329.285	16.732	835.765	632.403
330.300	16.760	835.049	631.910
331.314	16.817	834.775	631.860
332.329	16.825	834.186	631.388
333.343	16.815	833.871	631.055
334.358	16.869	833.502	630.924
335.373	16.874	833.181	630.642
336.387	16.857	833.194	630.533
337.402	17.040	832.477	630.616
338.416	17.116	832.164	630.604
339.431	17.060	831.989	630.208
340.446	17.248	831.253	630.290
341.460	17.275	831.114	630.229
342.475	17.161	830.784	629.503
343.489	17.287	830.150	629.431
344.504	17.286	829.973	629.238
345.519	17.335	829.357	628.896
346.533	17.265	828.764	628.131
347.548	17.318	828.146	627.806
348.562	17.144	827.654	626.736
349.577	17.092	827.022	626.006
350.592	17.280	826.203	626.025
351.606	17.299	825.095	625.200
352.621	17.064	825.222	624.375
353.635	17.233	824.494	624.394
354.650	17.262	823.794	623.913
355.665	17.184	823.328	623.218
356.679	17.392	822.170	623.050
357.694	17.370	821.894	622.706
358.708	17.347	821.234	622.066
359.723	17.317	820.707	621.502
360.738	17.439	820.237	621.536
361.752	17.267	819.973	620.651
362.767	17.328	819.330	620.332
363.781	17.527	818.596	620.447
364.796	17.722	818.088	620.717
365.810	17.661	818.067	620.426
366.825	17.850	817.627	620.725
367.840	17.635	817.153	619.529
368.854	17.711	816.267	619.078
369.869	17.568	816.140	618.407
370.883	17.690	815.489	618.302
371.898	17.722	815.479	618.353
372.913	17.642	815.047	617.682
373.927	17.595	814.637	617.147
374.942	17.779	814.069	617.329
375.956	17.885	813.632	617.327
376.971	17.921	813.127	617.019
377.986	17.866	812.776	616.498
379.000	17.912	812.058	616.064
380.015	17.896	811.519	615.545
381.029	17.899	810.987	615.097
382.044	18.016	810.151	614.831
383.059	17.868	809.899	614.051
384.073	17.910	809.228	613.641
385.088	17.707	808.898	612.604
386.102	18.007	808.017	612.961
387.117	17.848	807.477	611.928
388.132	17.894	806.739	611.477
389.146	17.929	806.503	611.371
390.161	17.905	806.256	611.042
391.175	18.033	805.668	610.999
392.190	18.064	805.146	610.662
393.205	17.972	804.835	610.045
394.219	17.780	804.335	608.923
395.234	17.779	803.958	608.582
396.248	17.868	803.193	608.267
397.263	17.757	803.120	607.761
398.278	17.762	802.354	607.147
399.292	17.838	801.969	607.072
400.307	17.744	801.817	606.569
401.321	17.911	800.944	606.446
402.336	17.884	800.752	606.152
403.350	17.875	800.398	605.800
404.365	18.142	799.892	606.309
405.380	18.168	799.283	605.885
406.394	18.157	798.989	605.569
407.409	18.312	798.554	605.737
408.423	18.255	798.269	605.266
409.438	18.321	797.767	605.064
410.453	18.212	797.667	604.550
411.467	18.312	797.048	604.380
412.482	18.393	796.558	604.242
413.496	18.412	796.258	604.025
414.511	18.462	795.908	603.884
415.526	18.359	795.497	603.154
416.540	18.231	795.097	602.347
417.555	18.339	794.431	602.169
418.569	18.433	793.923	602.064
419.584	18.377	793.835	601.747
420.599	18.539	792.990	601.621
421.613	156.193	1370.502	1793.793
422.628	135.183	1454.668	1793.876
