DTS Sentinel unit serial number:	SN413079Multiplexer serial number:	ORYXHardware model number:	OX4-SRSoftware version number:	ORYX F/W v4.00 Oryx Data Collector v3.7.2.0data status	okinstallation	princeton_trtdifferential loss correction	single-endedforward channel	channel 1reverse channel	N/Adate	2019/09/18time	23:10:35forward acquisition time	60.00reverse acquisition time	0.00gamma	496.2192k internal	0.2340k external	0.2340temperature offset calibration	1.0023default loss term (dB/km)	0.3790temperature slope calibration	1.0000multiplexer offset coefficient	1.0000multiplexer slope coefficient	1.0000fibre end	0.00T internal ref (°C)	23.94T ext. ref 1 (°C)	0.78T ext. ref 2 (°C)	17.44length (m)	temperature (°C)	Stokes	anti-Stokes-747.200	498.348	-0.142	0.328
-746.185	190.460	0.087	0.132
-745.171	-200.000	0.040	-0.255
-744.156	117.834	-0.050	0.061
-743.142	-200.000	-0.011	0.062
-742.127	-200.000	0.045	0.377
-741.112	-137.783	0.070	-0.008
-740.098	434.414	0.024	0.053
-739.083	800.000	0.028	0.096
-738.069	-111.304	-0.409	0.084
-737.054	-50.302	0.145	-0.069
-736.039	-60.959	-0.340	0.144
-735.025	-200.000	-0.033	0.174
-734.010	-200.000	0.002	-0.111
-732.996	-200.000	0.011	0.250
-731.981	-181.221	-0.342	0.007
-730.966	800.000	-0.035	0.131
-729.952	163.656	-0.032	0.046
-728.937	-120.056	-0.268	0.046
-727.923	-180.498	-0.153	-0.003
-726.908	36.333	0.130	0.115
-725.894	-67.303	-0.355	0.140
-724.879	601.991	-0.146	0.363
-723.864	-5.258	0.241	-0.166
-722.850	17.899	0.166	-0.132
-721.835	-52.390	-0.364	-0.169
-720.821	51.530	-0.184	0.175
-719.806	542.718	0.023	-0.056
-718.791	-200.000	-0.068	-0.443
-717.777	381.350	-0.138	-0.283
-716.762	-120.822	-0.143	0.024
-715.748	-125.773	-0.227	-0.034
-714.733	653.100	-0.058	-0.150
-713.718	-25.089	-0.166	0.099
-712.704	7.887	-0.230	0.173
-711.689	309.785	-0.065	-0.121
-710.675	159.152	0.045	-0.062
-709.660	-57.594	-0.284	0.125
-708.645	-200.000	-0.039	-0.270
-707.631	8.979	-0.095	0.071
-706.616	-144.464	0.437	0.041
-705.602	133.756	0.180	-0.234
-704.587	-154.364	-0.093	-0.006
-703.572	-200.000	-0.015	-0.187
-702.558	-161.299	0.240	-0.012
-701.543	-22.560	-0.160	-0.097
-700.529	547.594	0.065	0.155
-699.514	92.878	0.018	-0.020
-698.499	491.407	0.033	-0.075
-697.485	-148.384	-0.323	0.027
-696.470	5.676	0.310	-0.229
-695.456	-147.652	-0.171	0.014
-694.441	61.706	-0.063	0.063
-693.426	-200.000	-0.060	0.319
-692.412	-194.980	0.290	-0.002
-691.397	-130.684	-0.331	0.045
-690.383	472.229	-0.049	-0.109
-689.368	-55.760	-0.315	0.141
-688.354	-38.208	-0.059	-0.031
-687.339	-141.676	-0.493	0.050
-686.324	-57.502	-0.011	0.005
-685.310	40.293	0.176	0.159
-684.295	800.000	-0.070	0.239
-683.281	-173.266	-0.177	-0.005
-682.266	14.194	0.100	-0.078
-681.251	10.645	-0.104	-0.080
-680.237	-149.641	0.115	0.009
-679.222	-83.873	0.208	0.066
-678.208	800.000	-0.125	-0.362
-677.193	584.389	0.096	-0.237
-676.178	422.389	-0.142	0.304
-675.164	38.068	0.289	0.257
-674.149	-144.838	0.062	0.006
-673.135	525.776	-0.143	-0.337
-672.120	-21.938	-0.398	-0.242
-671.105	-78.139	-0.225	0.077
-670.091	-200.000	0.054	-0.255
-669.076	409.475	-0.050	0.105
-668.062	-200.000	-0.014	0.206
-667.047	-21.674	0.175	-0.106
-666.032	-75.465	0.357	0.127
-665.018	-141.055	-0.384	-0.039
-664.003	436.222	0.191	-0.415
-662.989	126.265	0.155	-0.196
-661.974	70.704	-0.166	-0.172
-660.959	-71.886	-0.130	0.049
-659.945	-87.192	0.406	0.123
-658.930	165.265	0.071	-0.100
-657.916	-70.591	0.208	-0.078
-656.901	-148.777	-0.259	-0.021
-655.886	800.000	-0.060	-0.192
-654.872	-73.802	0.048	-0.018
-653.857	-200.000	-0.015	-0.349
-652.843	-134.511	0.115	0.014
-651.828	800.000	-0.132	0.440
-650.814	-200.000	0.006	0.212
-649.799	-200.000	-0.035	0.178
-648.784	800.000	-0.036	-0.123
-647.770	800.000	-0.059	0.163
-646.755	-9.826	-0.070	-0.046
-645.741	111.510	-0.218	-0.263
-644.726	-200.000	-0.066	-0.419
-643.711	236.973	0.192	0.318
-642.697	56.180	-0.008	0.008
-641.682	-103.981	0.165	0.038
-640.668	172.449	0.032	-0.046
-639.653	-59.450	0.137	-0.059
-638.638	-20.006	-0.207	-0.127
-637.624	60.133	-0.166	0.164
-636.609	-23.558	-0.252	0.151
-635.595	98.471	-0.174	-0.200
-634.580	-81.790	-0.374	0.122
-633.565	205.016	-0.107	-0.165
-632.551	113.190	-0.134	0.163
-631.536	800.000	0.015	-0.052
-630.522	226.327	0.057	-0.092
-629.507	-66.966	-0.275	0.108
-628.492	-200.000	-0.003	0.201
-627.478	50.492	0.038	-0.036
-626.463	-145.237	0.157	-0.014
-625.449	800.000	0.026	-0.103
-624.434	-87.769	-0.190	0.057
-623.419	223.076	-0.250	0.402
-622.405	22.662	0.120	0.098
-621.390	46.644	0.363	0.336
-620.376	-98.805	-0.268	0.068
-619.361	-200.000	0.047	-0.213
-618.346	-150.891	-0.235	-0.018
-617.332	179.556	-0.136	0.198
-616.317	800.000	-0.028	0.094
-615.303	148.475	0.156	0.210
-614.288	124.274	-0.169	0.212
-613.273	-96.024	-0.034	-0.009
-612.259	41.213	-0.183	0.165
-611.244	131.956	0.222	0.285
-610.230	537.145	0.023	-0.053
-609.215	7.304	-0.143	-0.106
-608.201	-200.000	0.001	-0.472
-607.186	108.996	-0.238	-0.284
-606.171	-200.000	-0.009	0.101
-605.157	-200.000	0.028	-0.295
-604.142	-200.000	-0.023	0.166
-603.128	211.724	-0.074	0.117
-602.113	800.000	0.038	0.129
-601.098	8.216	0.089	-0.067
-600.084	-200.000	-0.050	-0.225
-599.069	-200.000	-0.001	-0.288
-598.055	-200.000	0.048	-0.353
-597.040	644.601	-0.071	-0.180
-596.025	-120.593	0.231	0.039
-595.011	12.612	-0.122	0.094
-593.996	424.561	-0.116	0.250
-592.982	202.353	0.090	-0.139
-591.967	164.960	0.166	0.234
-590.952	-168.821	-0.621	0.023
-589.938	12.483	0.177	0.136
-588.923	130.489	-0.102	0.130
-587.909	131.604	-0.190	0.243
-586.894	6.603	0.092	-0.068
-585.879	-1.121	0.042	0.029
-584.865	-56.135	-0.084	0.037
-583.850	99.713	0.235	0.271
-582.836	232.833	0.194	-0.318
-581.821	-71.556	-0.081	-0.030
-580.806	-83.693	0.221	-0.070
-579.792	365.222	0.047	-0.095
-578.777	17.614	0.272	-0.215
-577.763	-83.528	-0.123	-0.039
-576.748	800.000	-0.034	0.127
-575.733	-200.000	0.003	-0.063
-574.719	-55.239	0.303	0.136
-573.704	294.015	0.132	0.240
-572.690	-42.660	0.097	0.049
-571.675	13.669	0.231	0.179
-570.661	-200.000	-0.046	-0.231
-569.646	682.022	0.135	0.351
-568.631	-69.136	0.275	-0.105
-567.617	345.140	-0.067	-0.131
-566.602	-89.126	0.218	0.064
-565.588	-28.169	0.438	-0.252
-564.573	18.381	-0.150	0.119
-563.558	384.199	0.028	0.057
-562.544	43.611	-0.177	-0.161
-561.529	-200.000	0.015	0.196
-560.515	-200.000	-0.004	0.308
-559.500	-200.000	0.014	-0.096
-558.485	262.969	-0.175	-0.303
-557.471	168.632	0.030	-0.043
-556.456	-30.886	0.206	0.116
-555.442	-187.699	0.257	0.003
-554.427	-200.000	0.005	0.250
-553.412	-112.495	0.371	0.074
-552.398	113.097	-0.115	0.139
-551.383	214.293	0.147	-0.231
-550.369	322.794	-0.068	-0.128
-549.354	6.179	-0.177	-0.131
-548.339	800.000	-0.031	-0.117
-547.325	-200.000	0.001	0.004
-546.310	26.908	0.059	-0.049
-545.296	-200.000	0.054	-0.335
-544.281	57.455	0.069	-0.067
-543.266	-147.316	0.130	0.011
-542.252	-11.446	0.102	0.067
-541.237	-88.960	-0.409	0.121
-540.223	-75.108	0.187	-0.067
-539.208	800.000	-0.116	0.373
-538.193	3.272	-0.062	0.045
-537.179	626.419	-0.022	0.056
-536.164	89.691	0.291	-0.322
-535.150	7.948	-0.157	-0.117
-534.135	186.543	-0.080	-0.118
-533.121	184.073	0.114	-0.167
-532.106	460.232	0.018	-0.041
-531.091	22.845	-0.073	0.060
-530.077	-130.350	0.433	0.058
-529.062	800.000	0.027	0.090
-528.048	-200.000	-0.006	0.042
-527.033	89.198	0.084	0.094
-526.018	-200.000	0.045	-0.401
-525.004	-76.216	0.036	0.013
-523.989	42.314	0.100	0.090
-522.975	800.000	-0.031	-0.125
-521.960	48.074	0.181	-0.168
-520.945	800.000	-0.073	0.302
-519.931	800.000	0.076	0.234
-518.916	669.123	0.143	0.367
-517.902	-46.581	0.157	0.077
-516.887	25.323	-0.048	-0.039
-515.872	407.590	0.118	0.248
-514.858	-123.757	0.078	-0.012
-513.843	117.814	-0.177	-0.217
-512.829	-129.725	0.189	-0.026
-511.814	-150.391	0.134	-0.010
-510.799	-55.218	0.085	-0.038
-509.785	-29.850	0.293	-0.166
-508.770	-140.331	0.487	-0.051
-507.756	-200.000	0.047	-0.560
-506.741	-59.821	-0.193	-0.082
-505.726	-76.562	-0.063	0.022
-504.712	-24.190	0.108	-0.064
-503.697	-90.195	-0.190	-0.055
-502.683	-200.000	0.018	-0.254
-501.668	365.923	0.139	-0.279
-500.653	800.000	0.038	0.122
-499.639	98.250	-0.148	0.169
-498.624	53.277	0.160	-0.152
-497.610	411.413	-0.023	0.048
-496.595	-116.124	0.427	-0.079
-495.581	643.982	-0.072	-0.183
-494.566	86.296	0.177	-0.193
-493.551	-58.056	-0.119	0.052
-492.537	-200.000	-0.022	0.159
-491.522	-32.537	0.196	0.108
-490.508	-200.000	0.006	0.109
-489.493	-63.740	0.105	0.043
-488.478	-57.729	-0.054	0.024
-487.464	209.181	0.133	-0.206
-486.449	198.032	0.107	0.163
-485.435	91.714	0.189	0.211
-484.420	8.404	-0.148	0.110
-483.405	-101.917	0.206	0.049
-482.391	-127.422	-0.052	0.008
-481.376	243.973	0.017	-0.029
-480.362	532.391	-0.078	0.184
-479.347	-158.944	-0.287	0.016
-478.332	138.420	-0.104	-0.136
-477.318	800.000	-0.057	-0.164
-476.303	372.768	0.073	-0.147
-475.289	6.518	-0.095	0.070
-474.274	-200.000	0.056	0.259
-473.259	394.489	0.125	-0.259
-472.245	-166.553	-0.332	-0.014
-471.230	-188.633	-0.061	0.001
-470.216	-188.720	-0.491	-0.006
-469.201	-200.000	0.047	-0.369
-468.186	-43.063	-0.190	0.096
-467.172	149.947	0.095	-0.127
-466.157	-96.814	-0.169	-0.044
-465.143	190.329	-0.098	0.146
-464.128	-200.000	0.005	0.241
-463.113	800.000	-0.031	-0.096
-462.099	800.000	0.085	-0.354
-461.084	-138.975	0.284	0.031
-460.070	776.463	0.081	-0.218
-459.055	380.487	-0.075	0.152
-458.040	-151.315	0.177	-0.013
-457.026	-65.897	0.110	-0.044
-456.011	-200.000	0.041	-0.194
-454.997	-55.606	0.060	-0.027
-453.982	65.901	0.077	-0.078
-452.968	-8.459	0.254	-0.169
-451.953	800.000	0.062	0.176
-450.938	-200.000	0.039	0.317
-449.924	-148.246	0.139	0.011
-448.909	800.000	-0.077	-0.287
-447.895	-18.163	0.114	0.071
-446.880	15.678	0.336	-0.262
-445.865	-200.000	-0.011	-0.243
-444.851	17.841	-0.225	-0.177
-443.836	-127.322	0.227	0.033
-442.822	178.762	-0.010	-0.015
-441.807	598.278	-0.093	-0.228
-440.792	-59.711	0.052	-0.022
-439.778	55.755	-0.260	-0.250
-438.763	419.209	-0.129	-0.273
-437.749	9.348	0.163	0.122
-436.734	-200.000	0.078	0.363
-435.719	107.199	-0.081	-0.096
-434.705	291.535	-0.077	0.139
-433.690	-53.462	0.188	-0.085
-432.676	-52.733	-0.023	0.011
-431.661	-40.171	-0.214	-0.111
-430.646	465.195	0.114	-0.253
-429.632	-136.165	-0.189	0.022
-428.617	-22.035	-0.274	-0.165
-427.603	-99.130	0.537	0.135
-426.588	412.739	0.069	0.145
-425.573	32.113	0.107	0.091
-424.559	-2.317	-0.176	-0.122
-423.544	-13.881	0.351	-0.225
-422.530	-160.965	-0.280	-0.015
-421.515	232.177	-0.192	0.312
-420.500	-189.004	0.486	-0.006
-419.486	160.567	-0.176	-0.243
-418.471	-49.642	-0.135	-0.064
-417.457	-129.257	0.254	0.035
-416.442	-200.000	-0.033	0.237
-415.428	84.275	-0.071	-0.077
-414.413	156.486	0.144	0.196
-413.398	-102.539	-0.311	0.073
-412.384	-125.245	-0.147	-0.022
-411.369	64.477	-0.030	0.030
-410.355	450.644	0.135	-0.295
-409.340	-86.472	-0.208	0.063
-408.325	-200.000	0.001	0.062
-407.311	-182.714	0.238	0.004
-406.296	800.000	0.043	0.151
-405.282	-200.000	0.015	0.109
-404.267	-142.609	-0.462	-0.045
-403.252	-99.921	-0.350	0.087
-402.238	-126.507	0.185	0.027
-401.223	533.220	0.091	0.214
-400.209	-125.919	0.378	0.056
-399.194	-200.000	-0.062	0.308
-398.179	223.774	-0.071	0.113
-397.165	115.104	0.232	0.281
-396.150	113.202	-0.253	-0.303
-395.136	-200.000	0.009	-0.194
-394.121	330.589	-0.077	-0.147
-393.106	-2.469	-0.242	-0.167
-392.092	36.837	-0.179	0.156
-391.077	24.897	0.081	-0.066
-390.063	-200.000	0.003	0.112
-389.048	-4.719	-0.133	-0.091
-388.033	800.000	-0.060	0.168
-387.019	-131.711	-0.268	-0.035
-386.004	117.692	0.093	0.113
-384.990	74.132	-0.162	-0.168
-383.975	-186.729	-0.139	0.002
-382.960	-51.547	-0.165	-0.076
-381.946	151.021	0.181	-0.243
-380.931	-93.450	-0.199	-0.054
-379.917	401.280	-0.091	0.188
-378.902	-36.851	0.360	0.191
-377.888	24.022	-0.198	0.161
-376.873	105.386	0.114	0.133
-375.858	-200.000	-0.005	0.224
-374.844	-200.000	-0.026	-0.159
-373.829	162.853	-0.150	0.208
-372.815	26.893	-0.226	-0.187
-371.800	-138.330	0.088	-0.010
-370.785	-30.719	-0.181	0.101
-369.771	800.000	-0.061	-0.256
-368.756	-104.827	0.163	0.037
-367.742	-90.544	-0.036	-0.010
-366.727	-200.000	-0.042	-0.207
-365.712	-200.000	-0.009	0.115
-364.698	-91.037	0.068	-0.019
-363.683	-35.274	0.097	0.052
-362.669	188.828	0.090	-0.133
-361.654	2.837	0.210	0.151
-360.639	376.158	0.108	-0.217
-359.625	-100.355	-0.065	-0.016
-358.610	175.298	-0.189	-0.271
-357.596	11.444	0.164	0.124
-356.581	381.909	-0.082	-0.167
-355.566	33.587	-0.146	-0.126
-354.552	-74.900	-0.138	-0.049
-353.537	60.065	-0.237	-0.231
-352.523	-159.551	-0.051	0.003
-351.508	-200.000	-0.075	0.368
-350.493	-200.000	-0.013	-0.190
-349.479	-21.443	-0.156	0.094
-348.464	155.387	0.079	0.107
-347.450	800.000	-0.146	-0.435
-346.435	-170.136	0.262	0.009
-345.420	680.837	0.049	-0.126
-344.406	-200.000	0.026	0.356
-343.391	190.810	-0.092	0.137
-342.377	412.639	-0.162	-0.339
-341.362	102.281	-0.194	0.223
-340.348	402.220	-0.082	-0.170
-339.333	519.996	-0.124	0.287
-338.318	136.927	0.087	0.112
-337.304	-30.749	-0.160	-0.089
-336.289	29.151	-0.295	-0.247
-335.275	-195.637	0.395	0.003
-334.260	-200.000	-0.008	-0.070
-333.245	403.270	-0.025	0.051
-332.231	-143.232	0.074	-0.007
-331.216	43.414	-0.180	0.163
-330.202	800.000	0.065	0.272
-329.187	-75.758	-0.502	0.176
-328.172	114.726	-0.034	-0.041
-327.158	420.303	-0.204	0.430
-326.143	-200.000	-0.007	-0.068
-325.129	-167.101	-0.240	-0.010
-324.114	-103.568	-0.093	-0.022
-323.099	800.000	-0.066	0.268
-322.085	-200.000	-0.054	-0.299
-321.070	176.618	-0.033	-0.047
-320.056	-109.447	-0.025	0.005
-319.041	448.039	-0.117	-0.254
-318.026	6.074	0.232	0.169
-317.012	800.000	-0.012	-0.032
-315.997	-10.169	-0.076	0.049
-314.983	48.351	-0.269	-0.248
-313.968	94.304	-0.132	-0.148
-312.953	-200.000	-0.045	-0.214
-311.939	-200.000	-0.002	-0.151
-310.924	192.524	-0.062	0.092
-309.910	-108.969	-0.262	-0.055
-308.895	-52.282	0.374	-0.171
-307.880	-187.750	-0.284	0.004
-306.866	89.167	-0.130	-0.142
-305.851	-105.656	-0.209	0.047
-304.837	-200.000	-0.008	0.344
-303.822	800.000	0.013	0.055
-302.807	54.277	0.082	-0.077
-301.793	-6.690	0.164	0.110
-300.778	173.187	0.096	0.137
-299.764	-141.030	-0.510	0.052
-298.749	22.238	0.076	-0.061
-297.735	-24.990	0.303	0.177
-296.720	-54.772	-0.094	0.042
-295.705	546.585	-0.074	0.175
-294.691	72.684	-0.055	-0.056
-293.676	-58.157	0.233	0.100
-292.662	-200.000	-0.024	0.203
-291.647	-200.000	-0.006	0.098
-290.632	-127.901	0.160	0.023
-289.618	153.710	0.196	0.265
-288.603	-95.869	-0.330	-0.087
-287.589	220.719	-0.110	0.173
-286.574	-63.933	-0.296	0.119
-285.559	-43.152	-0.105	-0.052
-284.545	19.771	-0.178	-0.141
-283.530	10.732	-0.127	0.095
-282.516	-160.918	0.370	0.019
-281.501	-50.053	0.205	0.095
-280.486	-152.729	-0.272	0.019
-279.472	-1.228	-0.301	-0.210
-278.457	192.874	-0.134	-0.200
-277.443	74.235	0.115	0.118
-276.428	-200.000	-0.024	-0.130
-275.413	225.113	-0.148	-0.236
-274.399	44.050	0.403	-0.364
-273.384	34.345	0.159	-0.137
-272.370	-200.000	-0.003	0.214
-271.355	70.441	-0.283	-0.288
-270.340	26.308	0.104	-0.085
-269.326	-5.831	-0.193	-0.130
-268.311	108.562	0.259	-0.304
-267.297	800.000	0.108	-0.296
-266.282	-165.383	0.100	-0.004
-265.267	-115.555	-0.258	0.048
-264.253	69.960	0.067	0.068
-263.238	-200.000	0.019	-0.195
-262.224	-200.000	-0.010	-0.105
-261.209	133.974	-0.151	0.192
-260.195	21.636	-0.115	0.092
-259.180	-110.206	-0.336	-0.069
-258.165	435.859	0.045	-0.096
-257.151	-200.000	-0.002	0.247
-256.136	-72.123	-0.222	-0.081
-255.122	351.798	-0.257	-0.501
-254.107	14.978	0.178	0.137
-253.092	-200.000	0.058	0.257
-252.078	57.911	0.120	-0.115
-251.063	416.847	0.100	0.209
-250.049	34.542	-0.155	-0.134
-249.034	114.533	0.134	-0.161
-248.019	707.489	-0.050	-0.130
-247.005	-200.000	0.020	0.125
-245.990	800.000	-0.111	0.326
-244.976	526.352	-0.143	-0.331
-243.961	-200.000	-0.002	-0.084
-242.946	31.925	0.236	-0.200
-241.932	-200.000	-0.025	0.176
-240.917	-200.000	0.021	-0.174
-239.903	417.432	0.275	0.577
-238.888	-92.819	-0.225	0.062
-237.873	23.466	-0.163	0.132
-236.859	144.299	0.265	0.347
-235.844	-200.000	-0.031	0.306
-234.830	-8.103	0.137	-0.091
-233.815	42.834	-0.045	-0.040
-232.800	220.919	0.174	-0.275
-231.786	-22.003	-0.157	-0.094
-230.771	-5.981	0.259	0.174
-229.757	-57.760	0.260	-0.112
-228.742	-120.989	0.237	0.039
-227.727	144.846	0.082	-0.108
-226.713	-107.408	-0.090	-0.019
-225.698	-106.314	0.273	-0.060
-224.684	-34.270	0.235	0.127
-223.669	-52.367	-0.134	0.061
-222.655	-79.943	0.187	-0.062
-221.640	460.120	0.066	-0.145
-220.625	168.234	0.102	-0.143
-219.611	346.916	0.059	0.113
-218.596	13.894	-0.313	-0.239
-217.582	-11.376	0.277	0.179
-216.567	645.965	0.050	-0.125
-215.552	-200.000	0.076	0.353
-214.538	416.637	-0.115	-0.240
-213.523	42.305	-0.157	0.140
-212.509	-108.971	0.280	-0.059
-211.494	800.000	-0.118	0.405
-210.479	800.000	-0.096	0.318
-209.465	-200.000	-0.052	0.381
-208.450	500.176	0.093	0.210
-207.436	13.685	0.250	0.191
-206.421	-200.000	0.028	0.287
-205.406	-40.284	0.041	0.021
-204.392	219.608	0.035	0.055
-203.377	-3.878	-0.044	0.030
-202.363	-122.179	-0.233	0.037
-201.348	241.618	-0.157	-0.257
-200.333	-44.833	0.203	0.099
-199.319	-28.112	-0.192	0.109
-198.304	-107.622	0.384	-0.082
-197.290	252.296	-0.068	0.114
-196.275	-79.846	0.400	-0.132
-195.260	535.217	0.092	-0.214
-194.246	-200.000	0.005	-0.068
-193.231	-24.096	-0.288	0.169
-192.217	-127.597	0.138	-0.020
-191.202	185.978	0.021	0.031
-190.187	5.707	0.271	-0.197
-189.173	-70.843	-0.121	-0.045
-188.158	-129.895	-0.330	-0.044
-187.144	-14.361	0.288	-0.182
-186.129	800.000	0.047	0.197
-185.114	428.170	0.137	0.290
-184.100	82.466	0.228	0.243
-183.085	800.000	-0.049	0.146
-182.071	48.812	-0.238	-0.219
-181.056	800.000	-0.100	0.305
-180.042	517.953	0.038	0.087
-179.027	-183.536	0.140	-0.002
-178.012	636.293	0.077	-0.192
-176.998	349.703	0.034	-0.066
-175.983	314.217	0.155	0.285
-174.969	-200.000	-0.033	-0.263
-173.954	-13.079	-0.276	0.176
-172.939	-62.910	0.192	-0.078
-171.925	-200.000	0.015	-0.084
-170.910	-105.029	-0.209	-0.047
-169.896	-200.000	-0.003	0.141
-168.881	46.356	-0.063	0.057
-167.866	800.000	0.028	-0.096
-166.852	-80.885	0.231	-0.075
-165.837	-141.561	-0.283	0.028
-164.823	82.766	-0.012	0.013
-163.808	-200.000	-0.035	0.392
-162.793	-143.165	-0.112	0.011
-161.779	121.257	0.095	0.116
-160.764	800.000	-0.056	-0.157
-159.750	-24.896	-0.087	-0.050
-158.735	-2.098	0.347	0.239
-157.720	433.786	-0.055	0.117
-156.706	-200.000	0.019	-0.152
-155.691	-116.685	0.360	0.065
-154.677	-200.000	-0.043	-0.397
-153.662	55.297	-0.051	-0.048
-152.647	-127.223	-0.135	-0.019
-151.633	800.000	-0.040	0.162
-150.618	-8.447	-0.402	0.264
-149.604	-42.116	0.443	0.222
-148.589	57.093	-0.171	-0.163
-147.574	-87.233	0.238	0.071
-146.560	147.577	-0.182	0.240
-145.545	-155.926	-0.107	0.007
-144.531	-26.912	-0.341	0.195
-143.516	56.434	-0.065	-0.062
-142.502	-84.109	0.311	-0.097
-141.487	-200.000	0.081	0.454
-140.472	-156.836	0.259	-0.016
-139.458	-19.906	-0.226	0.137
-138.443	-200.000	0.044	0.290
-137.429	-66.011	-0.166	-0.065
-136.414	800.000	-0.192	0.576
-135.399	-122.234	0.325	0.052
-134.385	107.369	-0.142	0.166
-133.370	2.275	0.377	-0.267
-132.356	-200.000	-0.002	0.058
-131.341	800.000	-0.146	0.474
-130.326	-158.013	0.188	-0.011
-129.312	745.310	-0.086	0.226
-128.297	-200.000	0.005	0.069
-127.283	-134.883	-0.059	0.007
-126.268	-200.000	0.019	0.184
-125.253	-200.000	0.025	-0.244
-124.239	315.387	0.275	0.508
-123.224	148.226	0.249	-0.328
-122.210	34.970	-0.279	0.239
-121.195	-126.372	0.387	0.056
-120.180	-95.585	0.196	-0.051
-119.166	-200.000	0.010	-0.085
-118.151	115.869	0.253	-0.303
-117.137	203.152	0.181	-0.274
-116.122	118.795	-0.160	0.193
-115.107	42.311	-0.134	-0.119
-114.093	167.889	0.136	0.189
-113.078	781.197	-0.069	0.185
-112.064	-38.148	-0.263	-0.136
-111.049	-38.032	0.166	-0.086
-110.034	373.745	0.108	0.214
-109.020	800.000	0.038	0.124
-108.005	133.103	-0.251	-0.318
-106.991	-200.000	0.033	0.157
-105.976	82.088	-0.140	0.148
-104.962	-72.601	0.112	-0.040
-103.947	29.512	0.182	-0.151
-102.932	-23.838	0.159	-0.093
-101.918	800.000	-0.132	0.487
-100.903	-111.829	-0.124	-0.025
-99.889	800.000	-0.071	-0.275
-98.874	514.122	0.040	0.091
-97.859	792.008	0.007	0.019
-96.845	78.932	-0.286	-0.299
-95.830	5.004	-0.314	-0.226
-94.816	218.106	-0.095	-0.147
-93.801	237.989	-0.234	0.379
-92.786	6.154	-0.252	0.183
-91.772	49.365	-0.297	0.273
-90.757	-98.668	-0.403	-0.100
-89.743	27.553	0.018	0.015
-88.728	-177.200	0.265	-0.006
-87.713	-86.248	0.074	-0.022
-86.699	573.135	0.032	0.076
-85.684	6.027	-0.062	0.045
-84.670	-105.402	0.187	0.042
-83.655	-200.000	-0.003	-0.020
-82.640	54.273	-0.296	-0.278
-81.626	-132.750	0.140	0.018
-80.611	399.160	-0.143	0.292
-79.597	213.506	0.196	0.302
-78.582	-65.864	-0.092	-0.036
-77.567	800.000	0.015	0.052
-76.553	-15.955	-0.216	0.135
-75.538	-200.000	0.025	0.135
-74.524	4.468	-0.148	-0.106
-73.509	-200.000	-0.033	0.145
-72.494	-36.191	-0.039	-0.021
-71.480	-129.646	-0.055	-0.007
-70.465	-129.537	0.191	-0.026
-69.451	-110.422	-0.158	0.032
-68.436	341.710	-0.140	-0.268
-67.422	-166.931	0.152	-0.006
-66.407	1.986	0.230	0.162
-65.392	-84.768	0.369	0.113
-64.378	-200.000	0.021	0.281
-63.363	396.118	-0.053	-0.109
-62.349	-130.015	0.285	-0.038
-61.334	231.301	-0.845	-1.351
-60.319	-26.602	0.990	0.566
-59.305	498.817	-0.484	-1.088
-58.290	403.461	0.646	1.326
-57.276	800.000	0.463	1.719
-56.261	-200.000	123.119	649.644
-55.246	430.516	1547.466	3268.476
-54.232	146.342	2700.051	3536.795
-53.217	98.218	2143.660	2408.825
-52.203	35.533	1583.141	1356.151
-51.188	27.221	1328.877	1088.770
-50.173	24.551	1291.557	1042.593
-49.159	51.873	1360.701	1263.566
-48.144	49.341	1371.439	1258.313
-47.130	27.307	1319.642	1081.542
-46.115	23.998	1301.231	1046.979
-45.100	23.838	1296.098	1041.871
-44.086	23.923	1293.175	1039.976
-43.071	23.757	1291.244	1037.414
-42.057	23.673	1289.502	1035.484
-41.042	23.744	1287.660	1034.376
-40.027	23.802	1285.964	1033.307
-39.013	23.839	1284.023	1031.927
-37.998	23.840	1282.318	1030.520
-36.984	23.966	1280.598	1029.827
-35.969	23.909	1278.907	1028.096
-34.954	23.925	1277.215	1026.785
-33.940	23.943	1276.237	1026.064
-32.925	24.000	1274.740	1025.145
-31.911	23.978	1273.499	1023.983
-30.896	24.081	1271.889	1023.237
-29.881	23.998	1271.146	1022.121
-28.867	24.101	1269.228	1021.129
-27.852	24.074	1267.850	1019.828
-26.838	24.162	1266.786	1019.433
-25.823	24.066	1265.296	1017.645
-24.809	24.079	1263.757	1016.441
-23.794	23.967	1263.067	1015.206
-22.779	23.898	1261.948	1013.873
-21.765	23.981	1260.376	1013.043
-20.750	23.951	1259.130	1011.831
-19.736	23.897	1257.865	1010.470
-18.721	23.781	1257.276	1009.295
-17.706	23.941	1255.454	1008.702
-16.692	23.889	1254.455	1007.565
-15.677	23.856	1253.339	1006.441
-14.663	23.805	1252.346	1005.314
-13.648	23.959	1250.956	1005.031
-12.633	23.862	1250.501	1004.079
-11.619	23.934	1249.437	1003.590
-10.604	23.961	1248.347	1002.827
-9.590	23.861	1247.663	1001.672
-8.575	23.897	1246.594	1000.979
-7.560	23.915	1245.942	1000.513
-6.546	23.865	1245.380	999.742
-5.531	23.906	1244.331	999.091
-4.517	23.820	1243.573	997.960
-3.502	23.891	1242.413	997.389
-2.487	23.828	1241.845	996.542
-1.473	23.777	1237.313	992.581
-0.458	22.107	1222.711	971.598
0.556	17.578	1207.826	934.249
1.571	14.102	1214.112	919.833
2.586	13.272	1229.584	926.817
3.600	13.286	1217.907	918.013
4.615	9.994	1146.490	846.877
5.629	3.930	1076.095	764.899
6.644	0.942	1059.500	738.478
7.659	0.761	1057.096	735.854
8.673	0.696	1056.149	734.815
9.688	0.711	1055.509	734.378
10.702	0.938	1053.204	733.810
11.717	4.723	1056.781	754.619
12.731	11.606	1066.041	794.740
13.746	16.241	1071.656	821.464
14.761	17.297	1072.940	827.519
15.775	16.658	1071.231	823.018
16.790	15.683	1069.222	816.668
17.804	15.108	1067.395	812.413
18.819	14.735	1066.268	809.674
19.834	14.524	1065.513	808.008
20.848	14.157	1064.677	805.529
21.863	13.882	1064.076	803.668
22.877	13.809	1062.808	802.289
23.892	13.641	1062.896	801.470
24.907	13.863	1061.519	801.432
25.921	13.757	1060.970	800.438
26.936	13.729	1060.427	799.822
27.950	13.895	1058.797	799.321
28.965	13.902	1057.853	798.572
29.980	13.869	1056.698	797.468
30.994	14.019	1055.271	797.040
32.009	13.893	1054.904	796.089
33.023	13.934	1053.498	795.156
34.038	13.931	1052.740	794.499
35.053	13.895	1051.877	793.604
36.067	13.827	1051.165	792.673
37.082	13.887	1050.149	792.123
38.096	13.907	1049.377	791.565
39.111	13.989	1048.512	791.233
40.126	13.979	1047.597	790.424
41.140	13.801	1046.410	788.614
42.155	13.705	1045.058	787.068
43.169	13.784	1044.440	786.910
44.184	13.673	1043.353	785.492
45.199	13.724	1042.209	784.803
46.213	13.702	1041.366	783.995
47.228	13.838	1039.902	783.468
48.242	13.817	1039.023	782.635
49.257	13.861	1037.879	781.914
50.271	13.897	1037.376	781.633
51.286	13.736	1036.919	780.465
52.301	13.824	1035.597	779.813
53.315	13.741	1034.611	778.613
54.330	13.809	1033.379	777.935
55.344	13.761	1032.926	777.298
56.359	13.835	1032.103	776.959
57.374	13.811	1030.670	775.699
58.388	13.782	1029.966	774.966
59.403	13.797	1029.889	774.908
60.417	13.736	1028.476	773.492
61.432	13.603	1027.796	772.294
62.447	13.677	1027.014	771.982
63.461	13.616	1026.476	771.226
64.476	13.634	1025.767	770.708
65.490	13.667	1024.777	770.049
66.505	13.785	1023.294	769.414
67.520	13.659	1023.013	768.551
68.534	13.760	1022.839	768.818
69.549	13.775	1021.814	768.052
70.563	13.692	1021.036	767.014
71.578	13.727	1020.167	766.453
72.593	13.734	1019.145	765.652
73.607	13.615	1018.940	764.882
74.622	13.773	1017.658	764.577
75.636	13.653	1017.500	763.838
76.651	13.634	1016.453	762.899
77.666	13.628	1016.183	762.602
78.680	13.682	1015.262	762.089
79.695	13.636	1015.025	761.635
80.709	13.723	1014.386	761.486
81.724	13.840	1013.585	761.356
82.739	13.763	1013.328	760.740
83.753	13.945	1011.746	760.319
84.768	13.942	1010.775	759.510
85.782	13.907	1010.279	758.908
86.797	13.860	1009.137	757.771
87.812	13.823	1008.687	757.193
88.826	13.907	1007.123	756.335
89.841	13.886	1006.275	755.539
90.855	13.889	1005.589	754.968
91.870	13.918	1004.678	754.352
92.884	13.944	1003.759	753.710
93.899	13.937	1003.177	753.176
94.914	13.934	1002.415	752.524
95.928	13.958	1001.587	751.945
96.943	14.035	1000.621	751.499
97.957	14.025	999.694	750.695
98.972	13.963	999.330	750.073
99.987	13.980	997.907	749.013
101.001	13.921	996.979	747.986
102.016	13.930	996.446	747.562
103.030	14.034	995.654	747.369
104.045	13.919	994.558	745.961
105.060	13.949	994.123	745.705
106.074	13.815	993.237	744.372
107.089	13.871	992.166	743.756
108.103	13.825	991.181	742.745
109.118	13.764	990.374	741.801
110.133	13.816	989.256	741.133
111.147	13.919	988.206	740.740
112.162	13.774	988.005	739.877
113.176	13.796	987.217	739.320
114.191	13.933	986.121	739.041
115.206	13.787	985.460	737.833
116.220	13.884	984.596	737.552
117.235	13.823	984.101	736.845
118.249	13.982	982.435	736.236
119.264	13.841	982.200	735.372
120.279	14.001	980.844	734.998
121.293	13.870	980.444	734.054
122.308	13.897	979.541	733.432
123.322	13.969	977.923	732.473
124.337	13.705	977.481	730.914
125.352	13.888	976.443	730.878
126.366	13.838	975.401	729.813
127.381	13.787	974.598	728.926
128.395	13.776	973.817	728.230
129.410	13.756	972.821	727.332
130.424	13.985	971.613	727.364
131.439	13.850	971.329	726.496
132.454	13.799	970.625	725.687
133.468	13.959	969.327	725.350
134.483	13.856	968.660	724.334
135.497	13.988	967.301	723.831
136.512	13.840	966.664	722.644
137.527	13.843	965.579	721.782
138.541	13.948	964.947	721.702
139.556	14.068	964.218	721.616
140.570	13.882	963.793	720.426
141.585	13.886	963.150	719.902
142.600	14.074	961.694	719.563
143.614	14.135	961.111	719.326
144.629	14.067	960.316	718.372
145.643	14.116	959.550	717.948
146.658	14.005	958.662	716.739
147.673	14.020	958.011	716.255
148.687	14.025	956.900	715.384
149.702	14.049	955.972	714.728
150.716	13.917	955.204	713.524
151.731	14.062	954.930	713.879
152.746	14.155	953.919	713.461
153.760	14.179	953.205	712.964
154.775	14.054	952.762	712.035
155.789	14.064	952.268	711.647
156.804	14.184	951.451	711.486
157.819	14.209	950.745	711.003
158.833	14.241	949.924	710.461
159.848	14.238	949.294	709.913
160.862	14.182	948.311	708.876
161.877	14.148	947.213	707.851
162.892	14.069	946.858	707.186
163.906	14.125	946.032	706.746
164.921	14.047	945.484	705.941
165.935	14.215	944.219	705.645
166.950	14.216	943.547	705.088
167.964	14.291	942.285	704.397
168.979	14.306	941.536	703.842
169.994	14.287	940.695	703.066
171.008	14.248	940.187	702.464
172.023	14.267	939.452	701.931
173.037	14.353	938.788	701.736
174.052	14.331	938.044	701.023
175.067	14.269	937.868	700.570
176.081	14.313	936.996	700.041
177.096	14.342	936.556	699.771
178.110	14.218	935.700	698.551
179.125	14.391	934.994	698.689
180.140	14.287	934.474	697.800
181.154	14.324	934.241	697.719
182.169	14.513	933.151	697.637
183.183	14.434	933.044	697.161
184.198	14.561	931.818	696.717
185.213	14.565	930.980	696.045
186.227	14.642	930.560	695.989
187.242	14.600	930.068	695.384
188.256	14.614	929.341	694.837
189.271	14.691	928.175	694.226
190.286	14.428	927.631	692.662
191.300	14.356	927.133	691.933
192.315	14.359	926.847	691.670
193.329	14.368	926.295	691.232
194.344	14.467	925.056	690.659
195.359	14.414	924.585	690.024
196.373	14.604	924.064	690.362
197.388	14.610	923.593	689.972
198.402	14.717	922.482	689.523
199.417	14.751	921.908	689.173
200.432	14.583	922.014	688.499
201.446	14.679	921.361	688.347
202.461	14.909	920.359	688.485
203.475	14.731	920.523	687.813
204.490	14.747	919.341	686.935
205.504	14.801	918.361	686.366
206.519	14.762	917.916	685.812
207.534	14.753	916.521	684.670
208.548	14.820	916.150	684.609
209.563	14.788	915.904	684.233
210.577	14.799	914.871	683.444
211.592	14.814	914.120	682.886
212.607	14.852	913.605	682.597
213.621	14.929	912.701	682.173
214.636	14.931	912.069	681.647
215.650	14.843	911.965	681.153
216.665	14.919	910.660	680.425
217.680	14.895	910.425	680.091
218.694	14.803	909.665	679.090
219.709	15.082	908.710	679.452
220.723	14.867	908.226	678.155
221.738	14.977	907.307	677.858
222.753	14.963	906.542	677.168
223.767	15.038	906.318	677.244
224.782	15.168	905.551	677.134
225.796	15.077	905.249	676.482
226.811	15.079	904.568	675.922
227.826	15.028	903.669	674.983
228.840	15.146	902.957	674.869
229.855	14.991	902.685	673.982
230.869	15.081	901.395	673.321
231.884	15.101	900.735	672.847
232.899	15.109	900.028	672.294
233.913	15.119	899.264	671.701
234.928	15.075	898.584	670.959
235.942	15.180	897.964	670.856
236.957	15.164	897.532	670.410
237.972	15.178	896.925	669.954
238.986	15.081	896.392	669.108
240.001	15.087	895.605	668.486
241.015	15.229	894.794	668.387
242.030	15.239	894.486	668.141
243.045	15.213	894.093	667.683
244.059	15.433	892.928	667.628
245.074	15.365	892.712	667.137
246.088	15.316	891.953	666.316
247.103	15.179	891.540	665.407
248.117	15.355	890.844	665.524
249.132	15.345	890.527	665.189
250.147	15.463	889.294	664.677
251.161	15.468	888.780	664.255
252.176	15.488	887.489	663.309
253.190	15.481	887.531	663.255
254.205	15.575	886.590	662.864
255.220	15.587	886.212	662.569
256.234	15.529	885.536	661.775
257.249	15.712	884.742	661.847
258.263	15.446	884.298	660.408
259.278	15.577	883.516	660.281
260.293	15.663	883.050	660.214
261.307	15.737	882.407	659.964
262.322	15.775	881.736	659.554
263.336	15.688	881.064	658.651
264.351	15.761	879.912	658.015
265.366	15.836	879.604	658.024
266.380	15.796	878.987	657.345
267.395	15.756	878.227	656.562
268.409	15.880	877.516	656.457
269.424	15.827	876.992	655.801
270.439	15.829	876.027	655.027
271.453	15.863	875.355	654.600
272.468	15.728	875.025	653.772
273.482	15.837	874.165	653.495
274.497	15.788	873.999	653.120
275.512	15.775	873.218	652.430
276.526	15.841	873.022	652.483
277.541	15.869	872.348	652.028
278.555	16.096	871.355	652.106
279.570	16.138	870.911	651.879
280.585	16.220	869.719	651.243
281.599	15.995	869.613	650.240
282.614	15.983	868.668	649.432
283.628	15.918	868.263	648.818
284.643	16.114	867.234	648.748
285.657	16.082	866.753	648.206
286.672	16.077	866.313	647.802
287.687	16.085	865.620	647.256
288.701	15.925	865.603	646.572
289.716	16.074	864.813	646.496
290.730	16.113	863.802	645.833
291.745	16.205	863.518	645.915
292.760	16.239	862.448	645.187
293.774	16.253	862.033	644.872
294.789	16.209	861.432	644.201
295.803	16.172	860.869	643.580
296.818	16.248	860.020	643.176
297.833	16.314	859.305	642.839
298.847	16.268	858.996	642.374
299.862	16.444	858.064	642.290
300.876	16.269	857.813	641.381
301.891	16.447	857.219	641.553
302.906	16.377	856.539	640.725
303.920	16.391	856.062	640.365
304.935	16.327	855.721	639.809
305.949	16.396	854.801	639.325
306.964	16.371	854.624	639.043
307.979	16.458	853.657	638.592
308.993	16.583	852.849	638.403
310.008	16.503	852.656	637.899
311.022	16.527	852.007	637.446
312.037	16.445	851.876	636.985
313.052	16.454	851.067	636.357
314.066	16.502	850.161	635.802
315.081	16.477	850.062	635.580
316.095	16.592	849.045	635.194
317.110	16.419	848.589	634.149
318.125	16.482	848.073	633.941
319.139	16.496	847.945	633.845
320.154	16.465	847.484	633.328
321.168	16.451	847.060	632.902
322.183	16.547	846.094	632.484
323.197	16.572	845.233	631.876
324.212	16.506	845.452	631.736
325.227	16.586	844.702	631.421
326.241	16.621	843.853	630.861
327.256	16.540	843.292	630.081
328.270	16.682	842.520	629.977
329.285	16.628	842.118	629.423
330.300	16.695	841.740	629.332
331.314	16.689	841.217	628.863
332.329	16.601	840.924	628.262
333.343	16.629	840.420	627.934
334.358	16.769	839.766	627.907
335.373	16.830	838.881	627.415
336.387	16.822	839.295	627.640
337.402	16.871	838.702	627.322
338.416	16.849	838.365	626.936
339.431	16.749	838.123	626.329
340.446	16.842	837.782	626.362
341.460	16.747	837.394	625.666
342.475	16.981	836.469	625.781
343.489	16.859	836.179	625.059
344.504	16.951	835.920	625.148
345.519	17.057	835.238	624.976
346.533	17.027	834.947	624.591
347.548	17.034	834.171	623.980
348.562	17.007	833.871	623.603
349.577	16.946	833.431	622.996
350.592	17.051	832.301	622.480
351.606	17.141	831.408	622.087
352.621	17.030	830.935	621.272
353.635	17.156	830.424	621.294
354.650	17.112	829.710	620.545
355.665	17.318	828.919	620.652
356.679	17.140	828.614	619.717
357.694	17.031	828.237	618.985
358.708	17.169	827.554	618.920
359.723	17.125	827.268	618.491
360.738	17.114	826.605	617.903
361.752	16.984	826.144	617.031
362.767	17.249	825.144	617.192
363.781	17.283	824.824	617.019
364.796	17.332	824.060	616.571
365.810	17.388	823.660	616.420
366.825	17.316	823.690	616.128
367.840	17.234	823.266	615.459
368.854	17.365	822.408	615.235
369.869	17.422	822.033	615.109
370.883	17.503	821.569	614.999
371.898	17.396	821.452	614.470
372.913	17.426	821.155	614.301
373.927	17.530	820.128	613.854
374.942	17.476	819.970	613.489
375.956	17.505	819.615	613.271
376.971	17.582	818.935	612.988
377.986	17.506	818.575	612.390
379.000	17.633	817.820	612.227
380.015	17.622	817.527	611.914
381.029	17.793	816.585	611.767
382.044	17.690	816.481	611.268
383.059	17.686	815.639	610.568
384.073	17.556	815.364	609.843
385.088	17.682	814.562	609.640
386.102	17.751	814.345	609.670
387.117	17.719	813.527	608.888
388.132	17.733	812.914	608.427
389.146	17.719	812.432	607.960
390.161	17.652	812.303	607.572
391.175	17.659	811.886	607.231
392.190	17.818	810.844	606.965
393.205	17.736	810.437	606.314
394.219	17.820	810.010	606.240
395.234	17.741	809.886	605.814
396.248	17.685	809.713	605.431
397.263	17.622	809.203	604.774
398.278	17.658	808.579	604.381
399.292	17.749	808.179	604.351
400.307	17.865	807.593	604.271
401.321	17.835	807.158	603.783
402.336	17.629	807.183	603.021
403.350	17.909	806.319	603.310
404.365	17.933	805.904	603.032
405.380	17.994	805.205	602.669
406.394	17.923	804.532	601.864
407.409	18.017	804.235	601.920
408.423	18.131	804.147	602.201
409.438	17.981	803.965	601.483
410.453	18.009	803.597	601.253
411.467	18.172	802.709	601.110
412.482	18.063	802.587	600.583
413.496	18.288	801.774	600.711
414.511	18.180	801.935	600.399
415.526	18.106	801.557	599.802
416.540	18.124	800.937	599.348
417.555	18.253	800.418	599.360
418.569	18.202	799.955	598.782
419.584	18.397	799.034	598.719
420.599	18.170	798.996	597.847
421.613	115.847	1298.086	1489.573
422.628	99.951	1370.770	1489.639
