DTS Sentinel unit serial number:	SN413079Multiplexer serial number:	ORYXHardware model number:	OX4-SRSoftware version number:	ORYX F/W v4.00 Oryx Data Collector v3.7.2.0data status	okinstallation	princeton_trtdifferential loss correction	single-endedforward channel	channel 1reverse channel	N/Adate	2019/09/14time	08:34:35forward acquisition time	60.00reverse acquisition time	0.00gamma	496.2192k internal	0.2327k external	0.2327temperature offset calibration	1.0071default loss term (dB/km)	0.3790temperature slope calibration	1.0000multiplexer offset coefficient	1.0000multiplexer slope coefficient	1.0000fibre end	0.00T internal ref (°C)	28.62T ext. ref 1 (°C)	3.65T ext. ref 2 (°C)	26.05length (m)	temperature (°C)	Stokes	anti-Stokes-747.200	322.238	0.147	-0.282
-746.185	591.771	0.151	0.376
-745.171	153.591	-0.188	0.260
-744.156	170.053	0.212	0.305
-743.142	228.180	-0.059	-0.097
-742.127	-99.291	-0.293	0.075
-741.112	791.569	-0.103	0.287
-740.098	-22.987	0.104	0.063
-739.083	-36.438	0.260	0.141
-738.069	-200.000	0.007	0.292
-737.054	-200.000	-0.353	0.001
-736.039	113.843	-0.072	-0.088
-735.025	-3.458	0.397	0.278
-734.010	57.742	-0.171	-0.168
-732.996	361.797	-0.140	-0.282
-731.981	800.000	0.022	-0.083
-730.966	-144.572	-0.200	0.019
-729.952	-93.476	-0.284	-0.079
-728.937	-180.152	-0.493	0.010
-727.923	-84.829	0.148	-0.047
-726.908	-159.316	-0.296	0.017
-725.894	-200.000	0.007	-0.144
-724.879	187.701	0.160	-0.241
-723.864	97.836	-0.159	0.184
-722.850	146.212	0.148	-0.200
-721.835	-130.222	0.105	0.014
-720.821	118.714	-0.085	0.105
-719.806	-200.000	0.022	0.132
-718.791	-200.000	0.018	-0.300
-717.777	-52.519	0.312	-0.145
-716.762	398.185	-0.084	-0.177
-715.748	800.000	-0.056	-0.186
-714.733	-200.000	0.015	0.165
-713.718	408.703	-0.196	0.418
-712.704	180.330	0.063	-0.093
-711.689	122.678	0.149	-0.187
-710.675	-200.000	-0.019	0.274
-709.660	-76.235	0.128	0.045
-708.645	-46.632	-0.228	0.112
-707.631	-200.000	0.246	-0.001
-706.616	-200.000	-0.040	-0.516
-705.602	-151.033	-0.180	-0.014
-704.587	246.969	0.052	-0.089
-703.572	-32.928	0.164	0.092
-702.558	18.976	-0.185	-0.150
-701.543	-106.143	0.088	0.020
-700.529	-106.516	-0.331	0.074
-699.514	103.096	-0.121	0.143
-698.499	177.144	0.081	-0.119
-697.485	681.837	0.074	0.194
-696.470	-3.264	0.276	-0.194
-695.456	-122.200	0.158	-0.026
-694.441	-79.413	0.185	-0.063
-693.426	21.815	-0.034	-0.028
-692.412	178.814	-0.203	-0.299
-691.397	537.633	-0.075	-0.180
-690.383	-175.310	0.152	-0.004
-689.368	14.909	0.235	0.185
-688.354	-172.923	-0.179	0.006
-687.339	-79.559	0.265	0.090
-686.324	-26.228	-0.179	0.106
-685.310	10.021	0.088	-0.067
-684.295	-193.009	0.300	-0.003
-683.281	91.951	-0.142	-0.161
-682.266	56.961	-0.228	-0.223
-681.251	-200.000	-0.010	0.159
-680.237	-9.210	-0.379	0.255
-679.222	-23.227	-0.294	-0.178
-678.208	314.892	-0.090	0.170
-677.193	414.416	0.101	0.216
-676.178	-200.000	-0.027	-0.229
-675.164	470.226	-0.086	-0.194
-674.149	277.849	0.122	-0.218
-673.135	800.000	-0.080	-0.326
-672.120	461.692	-0.117	-0.262
-671.105	68.454	-0.046	-0.047
-670.091	88.527	0.177	-0.198
-669.076	-14.207	-0.134	-0.087
-668.062	-0.768	0.094	0.067
-667.047	-200.000	-0.061	0.291
-666.032	189.511	-0.080	0.121
-665.018	-200.000	0.005	-0.239
-664.003	-200.000	0.039	-0.367
-662.989	-81.155	0.051	0.017
-661.974	-168.133	-0.366	-0.014
-660.959	113.800	-0.043	-0.053
-659.945	-8.828	0.220	-0.148
-658.930	-150.307	0.102	0.008
-657.916	374.101	-0.063	0.129
-656.901	800.000	-0.013	-0.058
-655.886	-52.079	0.081	-0.038
-654.872	89.148	0.189	0.211
-653.857	304.462	-0.083	-0.155
-652.843	-118.402	-0.198	-0.035
-651.828	436.789	0.125	-0.274
-650.814	-13.949	-0.195	-0.127
-649.799	16.775	-0.431	0.342
-648.784	800.000	0.021	0.083
-647.770	-200.000	0.264	0.001
-646.755	-98.995	0.398	0.101
-645.741	-55.345	-0.153	0.069
-644.726	800.000	0.130	-0.441
-643.711	-84.950	0.225	0.071
-642.697	-11.211	-0.278	0.184
-641.682	115.220	-0.175	0.215
-640.668	-200.000	0.001	-0.399
-639.653	-102.996	0.180	0.043
-638.638	-84.189	0.579	0.184
-637.624	-90.786	0.219	-0.064
-636.609	-185.665	0.126	-0.002
-635.595	125.369	-0.173	0.219
-634.580	-190.190	-0.202	0.002
-633.565	-62.420	-0.229	0.096
-632.551	-12.676	-0.083	0.054
-631.536	69.822	-0.113	-0.117
-630.522	-71.776	-0.064	0.024
-629.507	-74.815	-0.351	0.126
-628.492	303.493	-0.018	-0.033
-627.478	-125.416	-0.135	-0.021
-626.463	800.000	0.032	0.136
-625.449	633.959	-0.058	0.149
-624.434	-0.794	0.179	-0.127
-623.419	-22.555	0.304	-0.184
-622.405	800.000	-0.023	0.067
-621.390	-155.020	-0.211	0.014
-620.376	-17.375	-0.096	-0.061
-619.361	-95.919	0.095	0.025
-618.346	-26.191	0.229	-0.135
-617.332	-81.763	0.116	-0.038
-616.317	-200.000	0.039	0.208
-615.303	683.710	-0.085	-0.223
-614.288	800.000	-0.048	-0.134
-613.273	306.027	-0.039	0.074
-612.259	31.706	0.068	-0.059
-611.244	-64.645	-0.179	-0.073
-610.230	57.199	-0.339	0.332
-609.215	31.521	0.185	0.159
-608.201	800.000	-0.007	-0.026
-607.186	-137.313	-0.094	-0.011
-606.171	303.830	0.056	0.104
-605.157	-89.249	-0.058	-0.017
-604.142	52.770	-0.244	0.234
-603.128	11.435	-0.055	-0.042
-602.113	800.000	0.071	-0.221
-601.098	-200.000	-0.005	0.160
-600.084	-0.932	-0.318	0.226
-599.069	-69.302	0.197	-0.076
-598.055	-200.000	-0.001	0.379
-597.040	-63.249	0.180	0.074
-596.025	800.000	-0.115	0.330
-595.011	-200.000	0.028	-0.247
-593.996	51.904	0.067	-0.064
-592.982	-182.459	-0.074	-0.001
-591.967	303.665	0.082	-0.152
-590.952	168.263	-0.219	-0.313
-589.938	-151.082	0.311	-0.023
-588.923	-9.057	-0.108	0.072
-587.909	26.215	-0.128	-0.107
-586.894	-200.000	-0.016	0.137
-585.879	-83.214	0.228	0.073
-584.865	-36.917	0.046	0.025
-583.850	-200.000	-0.010	-0.188
-582.836	800.000	-0.088	-0.291
-581.821	-161.340	-0.243	-0.013
-580.806	114.196	-0.199	-0.242
-579.792	-200.000	-0.036	0.276
-578.777	363.979	-0.097	0.195
-577.763	59.556	0.199	0.197
-576.748	-200.000	-0.023	0.329
-575.733	-52.979	0.344	-0.159
-574.719	-82.570	-0.143	-0.046
-573.704	84.394	0.159	-0.174
-572.690	4.226	-0.243	-0.178
-571.675	-64.150	-0.186	0.076
-570.661	44.816	-0.397	0.365
-569.646	-200.000	-0.005	-0.281
-568.631	132.926	-0.180	-0.233
-567.617	271.642	0.036	0.064
-566.602	78.039	0.281	0.300
-565.588	124.991	-0.290	-0.365
-564.573	-200.000	0.086	-0.520
-563.558	-91.878	-0.313	-0.089
-562.544	-65.388	0.135	-0.054
-561.529	-31.268	-0.263	0.148
-560.515	256.090	-0.140	-0.240
-559.500	117.146	0.149	0.184
-558.485	-161.276	-0.066	-0.003
-557.471	-200.000	-0.013	-0.206
-556.456	-41.819	0.290	0.149
-555.442	397.190	-0.141	-0.295
-554.427	-78.736	0.059	0.020
-553.412	-200.000	-0.046	-0.296
-552.398	-56.976	0.086	-0.038
-551.383	294.933	-0.275	0.504
-550.369	800.000	-0.129	0.459
-549.354	-57.811	-0.147	-0.064
-548.339	-116.545	0.164	-0.030
-547.325	462.565	0.122	-0.274
-546.310	21.325	-0.091	-0.074
-545.296	-150.692	-0.148	0.011
-544.281	-200.000	-0.012	-0.088
-543.266	-200.000	0.005	-0.044
-542.252	679.984	0.105	0.274
-541.237	-200.000	0.012	0.224
-540.223	-58.717	-0.262	-0.114
-539.208	-0.128	0.097	0.069
-538.193	-200.000	-0.010	-0.234
-537.179	-54.243	-0.194	-0.088
-536.164	-17.275	0.182	0.115
-535.150	-200.000	0.023	-0.108
-534.135	364.226	0.034	-0.069
-533.121	262.222	-0.016	0.028
-532.106	27.761	0.265	-0.223
-531.091	196.281	0.141	0.215
-530.077	194.047	-0.104	0.158
-529.062	17.927	-0.177	-0.141
-528.048	-200.000	-0.022	0.266
-527.033	-128.860	-0.310	0.044
-526.018	-110.130	0.181	-0.038
-525.004	-106.370	0.245	-0.055
-523.989	-49.919	-0.260	-0.123
-522.975	-146.425	0.274	0.024
-521.960	674.622	0.076	0.198
-520.945	32.294	-0.255	-0.220
-519.931	-43.775	0.406	-0.204
-518.916	641.047	-0.148	-0.376
-517.902	-145.959	-0.156	-0.014
-516.887	281.380	-0.082	0.147
-515.872	37.237	0.135	0.120
-514.858	-140.346	0.125	0.013
-513.843	594.001	0.095	-0.235
-512.829	-61.731	0.269	-0.113
-511.814	267.559	-0.020	-0.034
-510.799	116.306	-0.063	-0.077
-509.785	-198.551	0.360	0.002
-508.770	350.130	-0.148	0.292
-507.756	-200.000	-0.007	0.047
-506.741	-36.544	-0.242	-0.130
-505.726	403.460	0.104	-0.219
-504.712	-200.000	0.024	-0.159
-503.697	16.118	-0.015	-0.012
-502.683	-129.386	0.314	0.043
-501.668	-149.324	-0.211	-0.017
-500.653	41.643	-0.297	0.269
-499.639	1.653	0.190	0.137
-498.624	-0.908	-0.104	0.073
-497.610	-200.000	0.029	-0.156
-496.595	-55.835	0.352	0.157
-495.581	-175.988	-0.125	-0.003
-494.566	240.664	0.069	-0.115
-493.551	-120.816	0.237	-0.040
-492.537	64.398	0.109	-0.110
-491.522	261.926	0.182	-0.315
-490.508	82.687	0.155	0.168
-489.493	800.000	0.140	0.395
-488.478	-200.000	0.011	0.151
-487.464	-200.000	-0.033	-0.181
-486.449	400.807	0.079	-0.166
-485.435	209.993	0.196	-0.306
-484.420	195.142	0.084	-0.128
-483.405	81.837	0.249	0.269
-482.391	-76.885	0.406	-0.142
-481.376	800.000	0.063	0.178
-480.362	25.885	0.202	-0.168
-479.347	-83.550	-0.259	-0.083
-478.332	372.104	-0.137	-0.277
-477.318	47.230	0.176	-0.163
-476.303	106.031	-0.192	0.227
-475.289	-115.115	-0.378	-0.072
-474.274	11.881	0.192	0.147
-473.259	-29.867	0.172	-0.098
-472.245	-99.827	-0.172	-0.043
-471.230	-139.894	-0.539	0.057
-470.216	-200.000	-0.004	0.288
-469.201	240.630	-0.077	-0.128
-468.186	-5.325	-0.316	0.216
-467.172	89.403	0.289	-0.321
-466.157	-64.679	-0.347	-0.140
-465.143	-64.997	0.321	-0.129
-464.128	-155.370	0.170	0.011
-463.113	416.588	0.115	0.244
-462.099	281.105	-0.040	0.071
-461.084	-141.252	0.111	-0.011
-460.070	-74.100	-0.286	0.103
-459.055	275.156	-0.060	0.107
-458.040	-61.663	-0.343	0.144
-457.026	-12.876	-0.093	0.061
-456.011	51.018	-0.272	-0.257
-454.997	149.314	-0.074	-0.099
-453.982	20.650	0.097	0.078
-452.968	31.690	-0.428	-0.367
-451.953	-79.832	0.246	-0.083
-450.938	800.000	0.058	-0.178
-449.924	-26.220	0.219	-0.128
-448.909	501.284	0.084	0.193
-447.895	-74.349	-0.224	0.081
-446.880	-200.000	0.003	-0.265
-445.865	-31.565	0.247	-0.138
-444.851	-63.778	-0.124	-0.050
-443.836	29.185	-0.172	0.146
-442.822	-1.447	0.113	0.079
-441.807	126.604	-0.126	0.159
-440.792	800.000	0.044	0.141
-439.778	150.026	0.170	0.230
-438.763	800.000	-0.074	0.231
-437.749	747.040	-0.068	0.184
-436.734	-176.688	-0.176	-0.004
-435.719	800.000	0.029	-0.084
-434.705	-200.000	0.014	-0.349
-433.690	95.699	-0.055	-0.062
-432.676	-12.111	-0.453	0.295
-431.661	-200.000	0.033	0.357
-430.646	-15.054	0.138	-0.088
-429.632	-200.000	0.024	-0.276
-428.617	-131.567	-0.285	-0.037
-427.603	-200.000	-0.007	0.127
-426.588	-200.000	0.012	0.077
-425.573	111.254	0.284	-0.340
-424.559	-200.000	-0.006	0.115
-423.544	-200.000	0.002	0.055
-422.530	800.000	-0.058	-0.185
-421.515	-79.834	0.279	-0.093
-420.500	-200.000	0.027	-0.154
-419.486	73.783	0.123	-0.129
-418.471	-93.690	0.021	-0.006
-417.457	800.000	-0.059	-0.199
-416.442	-97.198	-0.143	0.037
-415.428	288.216	-0.173	0.312
-414.413	-120.631	-0.093	-0.016
-413.398	-74.252	-0.159	-0.057
-412.384	-200.000	-0.050	-0.269
-411.369	85.859	0.304	-0.333
-410.355	493.355	-0.056	-0.128
-409.340	-14.047	-0.151	-0.097
-408.325	30.152	-0.167	-0.141
-407.311	9.562	-0.255	-0.192
-406.296	-47.923	0.152	-0.073
-405.282	800.000	0.019	-0.075
-404.267	-17.819	-0.325	-0.203
-403.252	-174.263	0.184	-0.005
-402.238	760.305	-0.057	0.153
-401.223	-200.000	-0.027	0.363
-400.209	-200.000	-0.024	-0.229
-399.194	800.000	0.058	-0.201
-398.179	-36.914	0.174	-0.093
-397.165	105.618	0.034	-0.040
-396.150	-200.000	0.038	0.201
-395.136	-166.483	-0.265	0.011
-394.121	65.120	0.191	0.192
-393.106	-15.646	0.099	0.063
-392.092	-108.408	-0.184	-0.039
-391.077	-58.552	0.022	-0.009
-390.063	-70.843	0.188	-0.071
-389.048	-200.000	0.010	0.108
-388.033	-200.000	0.054	-0.266
-387.019	-6.949	-0.186	-0.125
-386.004	-108.470	-0.056	-0.012
-384.990	800.000	-0.024	0.099
-383.975	-200.000	0.031	-0.217
-382.960	92.184	-0.211	-0.236
-381.946	-16.848	0.393	0.247
-380.931	217.108	0.252	0.399
-379.917	199.749	-0.125	0.191
-378.902	800.000	0.060	0.219
-377.888	-126.603	-0.148	0.022
-376.873	-193.706	0.243	-0.002
-375.858	2.664	-0.237	0.171
-374.844	-200.000	0.012	0.119
-373.829	27.986	-0.222	-0.186
-372.815	-123.256	0.168	0.027
-371.800	63.439	0.211	0.210
-370.785	53.208	-0.375	0.357
-369.771	477.680	-0.043	0.096
-368.756	590.964	0.105	-0.257
-367.742	38.232	0.112	0.099
-366.727	-44.928	0.280	0.139
-365.712	172.925	0.119	-0.170
-364.698	11.501	0.160	-0.122
-363.683	-200.000	0.030	-0.311
-362.669	-107.311	-0.096	0.021
-361.654	-87.933	0.190	-0.057
-360.639	800.000	-0.111	-0.325
-359.625	800.000	0.079	-0.272
-358.610	51.556	-0.094	-0.089
-357.596	-81.236	0.303	-0.099
-356.581	117.694	-0.213	0.260
-355.566	389.513	0.041	0.085
-354.552	-126.115	0.155	-0.023
-353.537	-50.616	-0.335	0.157
-352.523	800.000	-0.042	0.154
-351.508	-43.352	0.082	-0.041
-350.493	142.198	0.071	0.093
-349.479	800.000	0.085	0.251
-348.464	-80.893	0.318	0.105
-347.450	-141.426	0.409	-0.041
-346.435	-61.556	0.211	0.088
-345.420	-144.707	0.246	-0.022
-344.406	-52.838	0.197	0.090
-343.391	124.063	-0.138	0.172
-342.377	-44.301	-0.356	-0.177
-341.362	634.944	-0.063	-0.158
-340.348	-140.195	-0.106	0.011
-339.333	181.804	0.046	-0.068
-338.318	-200.000	-0.049	-0.352
-337.304	-48.924	0.303	0.144
-336.289	33.872	-0.280	0.242
-335.275	-162.693	0.325	0.016
-334.260	-73.584	0.505	-0.183
-333.245	-79.287	-0.322	0.108
-332.231	-200.000	0.019	0.111
-331.216	34.417	-0.430	0.373
-330.202	-200.000	0.002	0.289
-329.187	-68.889	-0.293	0.112
-328.172	-9.617	-0.176	0.116
-327.158	-200.000	-0.026	0.314
-326.143	84.204	0.050	-0.054
-325.129	-200.000	-0.025	-0.160
-324.114	-34.947	0.313	0.169
-323.099	424.659	0.192	-0.410
-322.085	-200.000	0.073	-0.330
-321.070	626.670	-0.024	0.059
-320.056	-14.336	0.198	-0.126
-319.041	-119.436	-0.170	-0.029
-318.026	800.000	-0.077	-0.330
-317.012	-200.000	0.061	0.286
-315.997	646.081	-0.067	-0.170
-314.983	7.703	-0.308	0.229
-313.968	800.000	-0.071	-0.228
-312.953	800.000	0.016	-0.047
-311.939	-200.000	-0.000	-0.021
-310.924	-200.000	-0.005	0.042
-309.910	203.220	-0.200	-0.306
-308.895	-200.000	0.005	-0.052
-307.880	-200.000	0.002	-0.137
-306.866	-138.980	0.063	0.007
-305.851	362.578	-0.097	-0.193
-304.837	217.957	-0.037	0.059
-303.822	-1.187	-0.141	0.099
-302.807	-5.633	0.036	-0.024
-301.793	109.112	0.098	-0.116
-300.778	-23.646	0.241	0.143
-299.764	72.649	-0.248	-0.256
-298.749	-106.710	0.084	-0.018
-297.735	676.453	-0.064	0.166
-296.720	-47.115	-0.333	-0.161
-295.705	79.827	0.077	0.082
-294.691	-70.879	-0.408	0.152
-293.676	467.300	-0.115	0.254
-292.662	268.227	-0.149	-0.258
-291.647	-19.835	0.146	-0.090
-290.632	-68.617	0.251	-0.096
-289.618	199.230	-0.395	-0.600
-288.603	168.814	0.102	-0.143
-287.589	-200.000	0.026	0.220
-286.574	-200.000	-0.014	-0.142
-285.559	-92.144	0.197	0.055
-284.545	530.034	0.236	0.553
-283.530	114.957	-0.298	-0.360
-282.516	103.150	0.167	-0.194
-281.501	20.571	0.157	0.126
-280.486	-73.577	-0.044	0.016
-279.472	-79.203	-0.161	-0.054
-278.457	411.504	-0.115	0.241
-277.443	-82.897	0.148	0.047
-276.428	287.375	0.056	-0.100
-275.413	-200.000	-0.004	0.136
-274.399	800.000	0.046	-0.156
-273.384	800.000	0.049	-0.144
-272.370	-200.000	-0.088	-0.402
-271.355	-114.567	0.043	0.008
-270.340	-40.924	0.070	-0.036
-269.326	-200.000	-0.008	0.080
-268.311	551.639	-0.088	-0.210
-267.297	-91.806	0.073	0.020
-266.282	-42.783	0.202	-0.102
-265.267	494.609	0.172	0.390
-264.253	377.492	0.021	0.042
-263.238	-108.738	0.187	-0.040
-262.224	67.051	-0.083	-0.084
-261.209	128.623	0.071	0.089
-260.195	773.998	0.010	-0.026
-259.180	23.050	0.112	0.091
-258.165	-121.295	-0.256	-0.042
-257.151	-145.628	0.142	-0.013
-256.136	-84.503	0.071	0.022
-255.122	-142.509	-0.179	0.017
-254.107	25.241	-0.319	0.262
-253.092	-99.570	-0.141	0.035
-252.078	800.000	-0.017	-0.067
-251.063	-102.332	-0.180	0.043
-250.049	-45.753	0.381	0.186
-249.034	800.000	-0.023	0.100
-248.019	-200.000	-0.014	-0.125
-247.005	265.805	-0.049	0.085
-245.990	-200.000	0.002	-0.132
-244.976	-152.756	-0.256	0.018
-243.961	137.906	-0.233	0.302
-242.946	-200.000	0.008	-0.118
-241.932	-150.641	-0.483	0.036
-240.917	-200.000	-0.042	-0.247
-239.903	86.365	-0.144	0.157
-238.888	-119.878	0.296	-0.050
-237.873	602.554	-0.044	0.107
-236.859	-200.000	0.002	0.015
-235.844	-64.521	-0.293	-0.118
-234.830	280.963	-0.084	-0.148
-233.815	-200.000	0.032	0.187
-232.800	793.087	-0.034	-0.092
-231.786	-53.469	-0.318	0.144
-230.771	33.053	0.446	-0.382
-229.757	19.540	-0.083	0.066
-228.742	98.638	0.122	-0.139
-227.727	-70.411	-0.108	-0.041
-226.713	-29.685	-0.066	0.037
-225.698	2.745	0.049	-0.035
-224.684	-161.885	0.032	-0.002
-223.669	-21.188	0.124	0.075
-222.655	105.527	-0.081	0.095
-221.640	119.268	0.033	-0.040
-220.625	800.000	0.062	-0.181
-219.611	-144.682	0.298	0.027
-218.596	-197.713	-0.317	-0.002
-217.582	800.000	0.075	0.303
-216.567	-65.816	-0.219	-0.087
-215.552	726.441	0.108	0.284
-214.538	-200.000	0.006	0.079
-213.523	163.590	0.056	0.078
-212.509	381.149	0.205	0.415
-211.494	-147.241	-0.112	-0.009
-210.479	-64.787	0.079	0.031
-209.465	-56.412	-0.321	-0.141
-208.450	-106.054	0.212	-0.047
-207.436	-78.456	0.350	-0.118
-206.421	-16.421	-0.043	0.027
-205.406	-5.302	-0.279	0.189
-204.392	-200.000	0.105	-0.521
-203.377	6.141	-0.010	-0.007
-202.363	26.040	0.142	-0.117
-201.348	-81.200	-0.060	-0.020
-200.333	-200.000	-0.006	-0.030
-199.319	-50.042	0.347	0.162
-198.304	466.184	0.078	0.171
-197.290	213.398	0.157	-0.244
-196.275	-110.698	0.101	0.021
-195.260	-200.000	-0.022	-0.141
-194.246	-155.737	-0.130	0.008
-193.231	201.881	0.125	0.190
-192.217	-164.220	-0.405	0.018
-191.202	800.000	-0.016	-0.062
-190.187	35.033	-0.258	0.223
-189.173	304.504	-0.097	0.178
-188.158	-62.625	0.259	0.106
-187.144	154.883	0.033	0.044
-186.129	190.262	0.046	0.069
-185.114	-88.189	-0.140	-0.041
-184.100	-200.000	-0.012	0.192
-183.085	746.909	0.139	0.370
-182.071	-16.347	-0.370	0.231
-181.056	-76.035	0.188	0.065
-180.042	-120.269	0.317	-0.053
-179.027	-116.265	0.339	-0.062
-178.012	54.751	0.167	-0.159
-176.998	-101.250	-0.227	-0.055
-175.983	322.671	0.123	-0.231
-174.969	-170.045	0.225	-0.008
-173.954	76.578	0.325	0.340
-172.939	-89.167	0.261	-0.076
-171.925	276.027	0.045	0.079
-170.910	-150.738	0.298	0.022
-169.896	-73.982	-0.253	-0.090
-168.881	569.411	0.042	-0.100
-167.866	800.000	0.019	-0.058
-166.852	0.662	-0.246	0.174
-165.837	-137.276	-0.219	0.024
-164.823	49.878	-0.132	0.123
-163.808	389.718	-0.026	0.053
-162.793	-71.223	0.079	-0.029
-161.779	-60.189	-0.185	-0.078
-160.764	291.318	0.050	-0.090
-159.750	800.000	-0.104	0.361
-158.735	617.272	0.083	0.204
-157.720	-200.000	-0.028	0.412
-156.706	800.000	0.081	-0.335
-155.691	43.236	0.191	0.172
-154.677	-47.328	0.341	0.163
-153.662	-200.000	0.021	0.376
-152.647	-171.102	0.390	0.013
-151.633	800.000	-0.032	-0.129
-150.618	800.000	0.014	0.059
-149.604	-11.457	-0.300	0.194
-148.589	50.552	0.169	0.157
-147.574	-35.966	0.249	0.133
-146.560	800.000	-0.059	0.173
-145.545	-112.298	-0.174	0.034
-144.531	800.000	-0.083	0.256
-143.516	-62.164	0.297	0.122
-142.502	-35.583	-0.237	0.127
-141.487	-42.328	0.293	0.147
-140.472	800.000	-0.122	-0.385
-139.458	-9.686	0.139	-0.091
-138.443	-1.099	0.101	0.071
-137.429	-200.000	-0.102	-0.496
-136.414	800.000	-0.110	-0.351
-135.399	800.000	0.011	0.039
-134.385	226.107	-0.109	0.175
-133.370	-71.763	0.166	-0.061
-132.356	-200.000	0.019	-0.222
-131.341	-38.641	0.198	0.103
-130.326	-67.074	0.083	-0.032
-129.312	-86.653	0.264	0.080
-128.297	-35.970	0.132	-0.070
-127.283	-200.000	0.005	-0.402
-126.268	-105.288	0.187	-0.042
-125.253	299.763	-0.087	0.158
-124.239	-80.324	-0.183	0.060
-123.224	-200.000	-0.015	-0.132
-122.210	-11.128	-0.232	-0.151
-121.195	-200.000	0.019	0.219
-120.180	-200.000	0.013	-0.272
-119.166	-200.000	-0.046	-0.199
-118.151	50.202	-0.145	-0.135
-117.137	-200.000	0.081	0.381
-116.122	-200.000	0.003	-0.191
-115.107	-108.326	0.244	-0.052
-114.093	-200.000	0.019	0.293
-113.078	800.000	0.091	0.286
-112.064	-30.562	0.152	0.085
-111.049	-200.000	-0.018	0.333
-110.034	-153.477	0.162	-0.011
-109.020	57.691	0.394	-0.379
-108.005	508.815	-0.133	0.304
-106.991	-200.000	-0.039	0.507
-105.976	-172.636	0.368	0.011
-104.962	-200.000	-0.007	-0.134
-103.947	-96.830	0.228	-0.059
-102.932	-0.300	0.130	0.091
-101.918	-85.942	-0.176	-0.054
-100.903	-200.000	0.028	0.256
-99.889	-200.000	-0.028	0.265
-98.874	-141.329	0.021	-0.002
-97.859	301.631	0.056	-0.102
-96.845	12.717	-0.282	0.214
-95.830	-137.412	0.282	0.031
-94.816	800.000	-0.069	0.262
-93.801	-134.798	0.385	-0.046
-92.786	-200.000	0.032	-0.143
-91.772	14.083	0.158	0.121
-90.757	-117.905	-0.298	0.053
-89.743	800.000	-0.028	-0.091
-88.728	-200.000	0.047	-0.218
-87.713	45.042	0.133	-0.120
-86.699	-120.492	0.172	0.029
-85.684	162.101	0.221	0.304
-84.670	-130.807	-0.341	-0.045
-83.655	665.003	-0.063	-0.160
-82.640	-200.000	0.004	0.192
-81.626	17.733	0.071	-0.056
-80.611	-40.513	0.131	0.067
-79.597	212.411	-0.277	-0.430
-78.582	-200.000	-0.002	-0.102
-77.567	172.852	0.166	-0.234
-76.553	800.000	0.062	0.192
-75.538	-94.141	-0.202	-0.054
-74.524	256.475	0.107	-0.181
-73.509	800.000	-0.017	-0.053
-72.494	-11.153	-0.099	0.064
-71.480	-200.000	0.013	0.241
-70.465	800.000	0.051	-0.189
-69.451	-104.783	0.330	0.075
-68.436	179.614	0.219	0.315
-67.422	800.000	-0.054	-0.210
-66.407	-192.835	0.164	-0.001
-65.392	13.466	0.042	-0.032
-64.378	-87.182	-0.229	-0.068
-63.363	52.860	0.120	0.113
-62.349	82.452	-0.029	0.031
-61.334	63.093	-1.252	-1.232
-60.319	-82.513	0.654	0.208
-59.305	483.016	-0.501	-1.119
-58.290	130.433	0.828	1.041
-57.276	425.756	0.723	1.528
-56.261	-200.000	106.465	593.561
-55.246	496.523	1502.701	3391.246
-54.232	174.667	2704.753	3840.236
-53.217	109.084	2177.880	2556.682
-52.203	40.231	1613.958	1424.441
-51.188	31.956	1349.485	1140.914
-50.173	28.868	1308.375	1087.871
-49.159	52.929	1362.936	1279.251
-48.144	52.831	1378.748	1293.446
-47.130	32.252	1332.535	1128.180
-46.115	28.891	1314.776	1093.156
-45.100	28.655	1309.886	1087.650
-44.086	28.605	1307.827	1085.599
-43.071	28.498	1305.482	1082.980
-42.057	28.402	1303.178	1080.459
-41.042	28.424	1301.714	1079.333
-40.027	28.492	1299.942	1078.223
-39.013	28.506	1297.914	1076.578
-37.998	28.476	1296.293	1075.012
-36.984	28.594	1294.139	1073.875
-35.969	28.614	1292.698	1072.753
-34.954	28.665	1290.625	1071.290
-33.940	28.688	1289.712	1070.625
-32.925	28.570	1288.663	1069.024
-31.911	28.841	1286.827	1069.032
-30.896	28.746	1285.461	1067.303
-29.881	28.675	1284.665	1066.186
-28.867	28.689	1282.856	1064.728
-27.852	28.702	1281.029	1063.241
-26.838	28.763	1279.821	1062.547
-25.823	28.805	1278.479	1061.638
-24.809	28.790	1276.997	1060.280
-23.794	28.744	1275.892	1059.056
-22.779	28.750	1274.105	1057.563
-21.765	28.726	1272.994	1056.459
-20.750	28.699	1271.963	1055.409
-19.736	28.588	1270.784	1053.747
-18.721	28.569	1269.448	1052.493
-17.706	28.534	1268.122	1051.150
-16.692	28.637	1266.807	1050.607
-15.677	28.608	1265.973	1049.711
-14.663	28.533	1264.736	1048.212
-13.648	28.469	1263.944	1047.146
-12.633	28.573	1263.205	1047.086
-11.619	28.622	1262.132	1046.435
-10.604	28.647	1261.289	1045.837
-9.590	28.566	1260.069	1044.326
-8.575	28.517	1258.580	1042.768
-7.560	28.521	1258.317	1042.531
-6.546	28.636	1257.114	1042.151
-5.531	28.422	1256.976	1040.776
-4.517	28.626	1255.746	1040.874
-3.502	28.553	1255.228	1039.989
-2.487	28.549	1254.040	1038.945
-1.473	28.584	1250.272	1035.979
-0.458	27.804	1235.458	1019.306
0.556	25.163	1220.005	986.449
1.571	22.077	1226.256	974.325
2.586	21.454	1240.843	982.331
3.600	20.368	1229.152	966.946
4.615	14.980	1156.355	881.290
5.629	7.140	1082.211	785.923
6.644	3.811	1063.810	756.228
7.659	3.666	1061.462	753.784
8.673	3.575	1060.394	752.517
9.688	3.558	1058.841	751.263
10.702	3.841	1057.363	751.523
11.717	8.453	1063.731	778.491
12.731	16.212	1074.594	824.423
13.746	19.627	1077.816	843.525
14.761	19.403	1077.645	842.220
15.775	18.713	1075.160	836.845
16.790	17.672	1073.875	830.700
17.804	16.890	1072.566	825.805
18.819	16.725	1070.945	823.681
19.834	16.352	1070.521	821.468
20.848	16.225	1069.695	820.143
21.863	15.956	1068.627	817.947
22.877	15.846	1067.827	816.731
23.892	15.967	1066.831	816.482
24.907	15.903	1066.412	815.779
25.921	15.830	1065.521	814.670
26.936	15.975	1064.217	814.304
27.950	15.954	1062.765	813.018
28.965	16.068	1061.387	812.444
29.980	16.240	1059.658	811.873
30.994	16.198	1058.657	810.832
32.009	16.183	1058.024	810.205
33.023	16.132	1056.978	809.086
34.038	16.096	1055.457	807.680
35.053	16.093	1054.282	806.695
36.067	16.075	1053.599	806.016
37.082	16.031	1053.380	805.563
38.096	16.270	1052.221	805.747
39.111	16.157	1051.367	804.484
40.126	16.013	1050.457	803.029
41.140	15.849	1048.767	800.885
42.155	15.691	1047.823	799.344
43.169	15.663	1046.829	798.384
44.184	15.764	1045.332	797.651
45.199	15.718	1044.808	796.959
46.213	15.789	1043.467	796.206
47.228	16.036	1042.706	796.718
48.242	15.999	1041.991	795.928
49.257	16.015	1041.068	795.230
50.271	16.052	1040.099	794.595
51.286	16.049	1039.275	793.878
52.301	16.013	1037.708	792.443
53.315	15.959	1036.841	791.455
54.330	15.867	1036.055	790.354
55.344	15.794	1035.400	789.443
56.359	15.895	1034.322	789.023
57.374	15.783	1033.285	787.639
58.388	15.754	1032.144	786.563
59.403	15.798	1031.306	786.061
60.417	15.758	1030.717	785.357
61.432	15.739	1029.823	784.515
62.447	15.738	1028.879	783.722
63.461	15.493	1028.863	782.499
64.476	15.535	1027.525	781.611
65.490	15.492	1026.960	780.911
66.505	15.611	1026.340	780.922
67.520	15.728	1025.192	780.525
68.534	15.592	1025.014	779.685
69.549	15.491	1023.896	778.298
70.563	15.539	1023.369	778.051
71.578	15.436	1022.466	776.822
72.593	15.478	1021.565	776.259
73.607	15.412	1020.790	775.299
74.622	15.560	1020.104	775.391
75.636	15.577	1019.596	775.018
76.651	15.494	1018.805	773.963
77.666	15.439	1018.462	773.379
78.680	15.520	1017.558	773.001
79.695	15.518	1017.156	772.618
80.709	15.704	1015.987	772.515
81.724	15.725	1015.457	772.141
82.739	15.833	1014.697	771.989
83.753	15.991	1014.020	772.132
84.768	16.048	1013.411	771.858
85.782	16.272	1012.750	772.312
86.797	16.231	1011.497	771.102
87.812	16.038	1010.633	769.492
88.826	16.016	1009.815	768.700
89.841	16.154	1008.770	768.467
90.855	16.164	1008.409	768.169
91.870	16.103	1007.504	767.132
92.884	16.136	1006.291	766.292
93.899	16.095	1005.501	765.436
94.914	16.260	1004.741	765.538
95.928	16.249	1004.121	764.949
96.943	16.171	1002.783	763.511
97.957	16.065	1001.712	762.148
98.972	16.076	1001.278	761.797
99.987	16.065	1000.366	760.989
101.001	15.973	999.698	759.998
102.016	16.126	998.409	759.639
103.030	16.048	998.091	758.979
104.045	16.159	996.833	758.455
105.060	16.030	996.000	757.176
106.074	15.755	995.488	755.485
107.089	15.834	994.292	754.862
108.103	15.809	993.147	753.816
109.118	15.661	992.162	752.340
110.133	15.734	991.193	751.862
111.147	15.698	990.242	750.916
112.162	15.725	989.759	750.605
113.176	15.804	989.024	750.332
114.191	15.790	988.431	749.754
115.206	15.880	987.604	749.459
116.220	15.736	986.645	748.027
117.235	15.775	985.432	747.215
118.249	15.753	985.131	746.819
119.264	15.698	984.394	745.952
120.279	15.696	983.602	745.278
121.293	15.652	982.706	744.339
122.308	15.729	981.312	743.556
123.322	15.646	980.573	742.563
124.337	15.565	979.793	741.549
125.352	15.599	978.507	740.662
126.366	15.513	977.733	739.632
127.381	15.797	976.179	739.637
128.395	15.622	975.519	738.303
129.410	15.770	974.876	738.399
130.424	15.770	974.169	737.800
131.439	15.887	973.184	737.500
132.454	15.810	972.678	736.715
133.468	15.916	971.669	736.348
134.483	15.878	970.803	735.462
135.497	15.950	969.779	734.937
136.512	15.815	969.553	734.110
137.527	15.840	968.261	733.178
138.541	15.949	967.633	733.113
139.556	16.015	966.830	732.725
140.570	16.042	966.369	732.427
141.585	16.163	965.484	732.219
142.600	16.214	964.419	731.565
143.614	16.302	964.044	731.598
144.629	16.126	963.755	730.551
145.643	16.085	962.336	729.233
146.658	15.983	961.348	727.983
147.673	16.074	960.281	727.502
148.687	15.973	959.152	726.147
149.702	15.945	958.206	725.243
150.716	15.961	957.828	724.965
151.731	15.924	957.115	724.199
152.746	15.957	956.306	723.667
153.760	16.079	955.116	723.226
154.775	15.999	954.927	722.675
155.789	16.127	953.765	722.281
156.804	16.216	953.083	722.080
157.819	16.192	952.688	721.616
158.833	16.232	952.617	721.667
159.848	16.317	951.732	721.297
160.862	16.278	950.071	719.806
161.877	16.104	949.144	718.301
162.892	16.039	947.795	716.939
163.906	16.073	947.378	716.706
164.921	16.034	946.644	715.920
165.935	16.088	945.785	715.435
166.950	16.094	945.122	714.899
167.964	16.034	944.426	714.054
168.979	16.122	943.039	713.313
169.994	16.109	942.518	712.800
171.008	16.097	941.788	712.136
172.023	16.253	941.014	712.145
173.037	16.284	940.762	712.022
174.052	16.134	940.248	710.938
175.067	16.193	938.956	710.145
176.081	16.019	938.223	708.799
177.096	16.124	937.765	708.832
178.110	16.171	937.052	708.427
179.125	16.102	936.681	707.796
180.140	16.071	936.294	707.310
181.154	16.152	935.986	707.351
182.169	16.543	935.199	708.335
183.183	16.312	935.091	707.220
184.198	16.341	934.234	706.635
185.213	16.452	933.183	706.238
186.227	16.463	932.730	705.878
187.242	16.501	932.086	705.489
188.256	16.599	931.637	705.494
189.271	16.559	930.955	704.747
190.286	16.316	929.896	702.874
191.300	15.904	929.602	700.876
192.315	15.897	928.516	699.964
193.329	16.046	928.313	700.370
194.344	16.185	927.738	700.451
195.359	16.349	926.639	700.239
196.373	16.467	926.336	700.438
197.388	16.531	926.049	700.423
198.402	16.601	925.679	700.372
199.417	16.623	924.947	699.845
200.432	16.836	924.185	700.087
201.446	16.789	924.388	699.984
202.461	16.857	923.230	699.325
203.475	16.915	922.614	699.038
204.490	16.619	922.174	697.424
205.504	16.544	921.170	696.292
206.519	16.465	920.601	695.476
207.534	16.434	919.986	694.821
208.548	16.686	918.782	694.887
209.563	16.632	918.212	694.171
210.577	16.602	917.785	693.665
211.592	16.806	917.296	694.071
212.607	16.933	916.170	693.678
213.621	16.631	915.989	692.242
214.636	16.685	915.089	691.720
215.650	16.736	914.330	691.293
216.665	16.909	913.234	691.111
217.680	16.864	912.959	690.658
218.694	16.994	912.154	690.518
219.709	16.843	912.017	689.737
220.723	16.884	910.945	689.030
221.738	16.796	910.326	688.143
222.753	16.916	909.708	688.106
223.767	16.932	909.169	687.702
224.782	16.986	908.753	687.542
225.796	17.015	908.367	687.310
226.811	17.030	907.322	686.519
227.826	17.039	906.165	685.620
228.840	16.915	906.027	684.950
229.855	16.920	905.159	684.255
230.869	16.937	903.884	683.300
231.884	16.928	903.802	683.141
232.899	16.699	903.316	681.793
233.913	16.843	902.101	681.393
234.928	16.868	901.365	680.877
235.942	16.768	900.967	680.115
236.957	16.756	900.727	679.825
237.972	16.648	900.137	678.888
238.986	16.817	899.095	678.716
240.001	16.836	898.605	678.365
241.015	16.955	897.925	678.266
242.030	16.945	897.274	677.675
243.045	16.923	896.661	677.063
244.059	16.954	896.383	676.919
245.074	17.137	895.370	676.822
246.088	17.074	894.692	675.998
247.103	17.230	894.347	676.298
248.117	17.309	893.767	676.115
249.132	17.455	893.463	676.406
250.147	17.472	892.485	675.673
251.161	17.555	892.074	675.631
252.176	17.650	891.320	675.376
253.190	17.724	890.860	675.260
254.205	17.591	890.596	674.475
255.220	17.619	889.573	673.752
256.234	17.641	889.228	673.516
257.249	17.545	888.720	672.693
258.263	17.444	887.742	671.495
259.278	17.773	886.439	671.745
260.293	17.812	886.387	671.803
261.307	17.781	886.054	671.368
262.322	17.842	885.459	671.095
263.336	17.755	884.680	670.105
264.351	17.788	883.972	669.640
265.366	17.934	882.879	669.327
266.380	17.837	882.548	668.633
267.395	17.610	881.925	667.213
268.409	17.792	881.162	667.289
269.424	17.789	880.209	666.497
270.439	17.739	879.717	665.869
271.453	17.602	879.024	664.751
272.468	17.495	878.832	664.131
273.482	17.748	877.922	664.373
274.497	17.627	877.548	663.559
275.512	17.584	876.695	662.687
276.526	17.760	876.028	662.808
277.541	17.791	875.940	662.802
278.555	17.910	875.552	662.915
279.570	17.874	874.783	662.134
280.585	18.033	873.842	661.979
281.599	17.830	873.259	660.692
282.614	17.879	872.329	660.119
283.628	17.864	871.954	659.720
284.643	17.955	871.355	659.559
285.657	17.905	870.860	658.934
286.672	17.753	870.402	657.943
287.687	17.778	869.703	657.453
288.701	17.903	868.959	657.313
289.716	17.922	867.965	656.576
290.730	17.950	867.562	656.319
291.745	17.962	867.499	656.261
292.760	18.090	866.247	655.748
293.774	18.211	865.614	655.671
294.789	18.050	865.519	654.927
295.803	17.900	864.861	653.795
296.818	18.053	864.013	653.682
297.833	17.970	863.123	652.633
298.847	17.919	862.645	652.019
299.862	17.943	861.954	651.531
300.876	18.154	861.558	651.980
301.891	18.118	861.164	651.484
302.906	18.265	860.758	651.682
303.920	18.295	859.877	651.070
304.935	18.420	859.521	651.218
305.949	18.394	858.548	650.324
306.964	18.340	858.114	649.734
307.979	18.199	857.916	648.993
308.993	18.417	856.800	648.915
310.008	18.454	855.840	648.271
311.022	18.389	855.768	647.913
312.037	18.250	854.966	646.723
313.052	18.103	854.789	645.975
314.066	18.063	854.200	645.323
315.081	18.047	853.530	644.701
316.095	18.145	852.646	644.346
317.110	18.100	852.225	643.799
318.125	18.131	851.495	643.309
319.139	18.147	851.399	643.239
320.154	18.105	851.078	642.782
321.168	18.103	850.656	642.398
322.183	18.258	849.719	642.215
323.197	18.347	849.244	642.134
324.212	18.323	848.679	641.561
325.227	18.345	847.862	640.967
326.241	18.241	847.403	640.176
327.256	18.250	846.665	639.594
328.270	18.191	846.369	639.092
329.285	18.225	845.632	638.608
330.300	18.285	844.931	638.245
331.314	18.212	844.708	637.748
332.329	18.251	844.399	637.603
333.343	18.423	843.913	637.820
334.358	18.414	843.494	637.416
335.373	18.448	843.155	637.229
336.387	18.515	842.984	637.291
337.402	18.601	842.510	637.198
338.416	18.744	841.829	637.155
339.431	18.656	842.152	637.018
340.446	18.672	841.417	636.465
341.460	18.736	841.145	636.440
342.475	18.882	840.501	636.435
343.489	18.910	840.095	636.175
344.504	18.894	839.736	635.790
345.519	18.949	839.504	635.760
346.533	18.921	838.589	634.907
347.548	18.793	838.214	634.094
348.562	18.657	837.124	632.713
349.577	18.641	836.679	632.263
350.592	18.576	836.372	631.734
351.606	18.656	835.203	631.088
352.621	18.742	834.630	630.916
353.635	18.696	834.171	630.344
354.650	18.673	833.456	629.665
355.665	18.858	833.025	629.963
356.679	18.804	832.208	629.089
357.694	18.752	831.685	628.448
358.708	18.770	831.303	628.172
359.723	18.748	830.476	627.410
360.738	18.837	830.119	627.411
361.752	18.851	829.715	627.099
362.767	18.995	828.671	626.781
363.781	19.020	828.275	626.516
364.796	19.231	828.122	627.111
365.810	19.100	827.629	626.209
366.825	19.098	827.290	625.890
367.840	19.247	826.792	625.998
368.854	19.113	826.357	625.127
369.869	19.071	825.952	624.613
370.883	19.200	825.577	624.742
371.898	19.261	825.242	624.654
372.913	19.285	824.625	624.220
373.927	19.213	823.864	623.326
374.942	19.261	823.496	623.168
375.956	19.311	823.219	623.084
376.971	19.427	822.798	623.128
377.986	19.503	822.308	622.976
379.000	19.507	821.994	622.696
380.015	19.422	821.381	621.873
381.029	19.449	820.443	621.204
382.044	19.362	820.070	620.553
383.059	19.455	819.443	620.357
384.073	19.453	818.565	619.631
385.088	19.411	817.870	618.898
386.102	19.349	817.589	618.412
387.117	19.341	817.237	618.059
388.132	19.263	816.348	617.053
389.146	19.300	815.954	616.832
390.161	19.466	815.784	617.244
391.175	19.566	815.138	617.059
392.190	19.493	814.366	616.159
393.205	19.426	814.006	615.594
394.219	19.443	813.707	615.373
395.234	19.307	813.300	614.525
396.248	19.322	812.533	613.946
397.263	19.224	812.060	613.186
398.278	19.233	811.905	613.046
399.292	19.287	811.245	612.685
400.307	19.431	810.737	612.760
401.321	19.283	810.240	611.805
402.336	19.215	810.041	611.357
403.350	19.489	809.682	612.006
404.365	19.533	809.381	611.881
405.380	19.562	809.078	611.698
406.394	19.593	808.596	611.390
407.409	19.817	807.888	611.593
408.423	19.813	807.604	611.308
409.438	19.948	807.164	611.398
410.453	19.830	807.247	610.992
411.467	19.959	806.278	610.658
412.482	19.869	806.170	610.205
413.496	20.053	805.702	610.445
414.511	19.920	805.476	609.750
415.526	19.770	805.232	608.986
416.540	20.046	804.264	609.169
417.555	19.935	803.625	608.241
418.569	20.046	803.418	608.421
419.584	19.937	803.025	607.687
420.599	19.888	802.494	607.059
421.613	160.029	1371.551	1794.252
422.628	138.963	1454.480	1794.361
