DTS Sentinel unit serial number:	SN413079Multiplexer serial number:	ORYXHardware model number:	OX4-SRSoftware version number:	ORYX F/W v4.00 Oryx Data Collector v3.7.2.0data status	okinstallation	princeton_trtdifferential loss correction	single-endedforward channel	channel 1reverse channel	N/Adate	2019/09/13time	08:46:35forward acquisition time	60.00reverse acquisition time	0.00gamma	496.2192k internal	0.2328k external	0.2328temperature offset calibration	1.0164default loss term (dB/km)	0.3790temperature slope calibration	1.0000multiplexer offset coefficient	1.0000multiplexer slope coefficient	1.0000fibre end	0.00T internal ref (°C)	27.97T ext. ref 1 (°C)	4.32T ext. ref 2 (°C)	24.88length (m)	temperature (°C)	Stokes	anti-Stokes-747.200	-111.876	0.135	0.027
-746.185	41.871	-0.045	0.041
-745.171	-134.544	0.302	0.037
-744.156	631.592	0.069	0.176
-743.142	51.546	-0.333	-0.319
-742.127	-108.882	-0.128	0.028
-741.112	-14.395	-0.032	0.021
-740.098	38.150	0.322	0.289
-739.083	31.882	-0.047	-0.041
-738.069	-200.000	-0.072	0.513
-737.054	-200.000	0.015	0.263
-736.039	-200.000	0.008	-0.120
-735.025	284.729	0.096	0.174
-734.010	-200.000	-0.007	0.094
-732.996	800.000	-0.041	0.152
-731.981	95.745	0.089	0.102
-730.966	204.048	-0.241	-0.375
-729.952	64.397	-0.090	0.092
-728.937	396.031	-0.101	-0.213
-727.923	-200.000	-0.024	-0.347
-726.908	-112.192	0.166	0.034
-725.894	-138.597	0.250	-0.028
-724.879	-200.000	0.001	-0.483
-723.864	-10.428	-0.224	-0.149
-722.850	113.407	-0.167	-0.204
-721.835	800.000	0.084	-0.267
-720.821	9.313	-0.061	0.047
-719.806	-200.000	-0.015	0.065
-718.791	78.323	-0.367	0.395
-717.777	-148.593	-0.207	0.017
-716.762	196.380	-0.133	-0.203
-715.748	-35.328	-0.068	0.037
-714.733	-179.114	0.243	-0.005
-713.718	-200.000	-0.018	0.186
-712.704	-121.720	-0.427	-0.071
-711.689	65.271	0.115	0.117
-710.675	-82.146	-0.183	-0.060
-709.660	-64.539	0.265	-0.108
-708.645	-200.000	-0.013	0.068
-707.631	-94.045	-0.111	-0.031
-706.616	-53.978	-0.280	-0.128
-705.602	-200.000	-0.030	-0.249
-704.587	154.631	0.139	-0.192
-703.572	-117.172	0.207	0.038
-702.558	4.348	0.185	-0.136
-701.543	13.671	0.166	0.130
-700.529	-142.699	0.058	0.006
-699.514	-16.286	-0.081	0.052
-698.499	-200.000	-0.031	0.197
-697.485	211.249	-0.067	0.106
-696.470	800.000	-0.132	-0.416
-695.456	354.269	-0.050	0.100
-694.441	-182.553	-0.409	-0.008
-693.426	43.475	0.264	0.242
-692.412	-67.687	-0.337	-0.133
-691.397	163.408	0.067	-0.094
-690.383	-41.353	0.046	-0.024
-689.368	57.884	0.227	0.223
-688.354	800.000	-0.057	-0.182
-687.339	-200.000	-0.003	0.028
-686.324	-53.439	0.127	-0.058
-685.310	49.308	-0.231	-0.218
-684.295	-191.888	-0.285	-0.003
-683.281	7.997	-0.157	-0.119
-682.266	267.205	-0.020	0.036
-681.251	26.799	-0.097	-0.081
-680.237	60.310	0.089	0.089
-679.222	49.531	0.426	0.403
-678.208	-200.000	0.011	-0.239
-677.193	-200.000	-0.061	0.000
-676.178	378.082	-0.112	-0.229
-675.164	64.745	0.029	0.030
-674.149	-56.559	-0.232	-0.104
-673.135	-38.313	-0.265	0.141
-672.120	41.243	0.207	-0.188
-671.105	15.358	-0.288	0.227
-670.091	542.326	-0.091	-0.217
-669.076	17.757	-0.379	-0.303
-668.062	530.968	-0.034	0.080
-667.047	483.560	-0.036	-0.082
-666.032	-95.185	0.028	-0.008
-665.018	800.000	-0.039	-0.156
-664.003	-200.000	0.028	-0.342
-662.989	-90.228	0.324	0.095
-661.974	800.000	-0.061	-0.202
-660.959	177.566	-0.169	0.247
-659.945	217.881	0.085	-0.137
-658.930	-200.000	0.024	-0.307
-657.916	24.752	0.201	-0.167
-656.901	-171.620	0.225	0.007
-655.886	-51.460	-0.051	0.024
-654.872	-200.000	0.046	-0.498
-653.857	17.630	0.178	-0.142
-652.843	73.337	0.278	0.292
-651.828	-185.073	0.124	0.002
-650.814	154.918	-0.193	0.267
-649.799	-134.995	0.225	0.027
-648.784	584.308	0.047	0.115
-647.770	-200.000	0.012	-0.083
-646.755	80.071	0.245	-0.264
-645.741	-10.614	0.029	-0.019
-644.726	262.747	0.109	-0.190
-643.711	-75.325	0.215	-0.077
-642.697	-145.581	0.252	-0.023
-641.682	-200.000	-0.035	0.170
-640.668	-158.440	0.040	-0.002
-639.653	-33.461	-0.447	0.248
-638.638	291.135	-0.135	0.245
-637.624	154.242	-0.109	0.150
-636.609	258.611	0.152	-0.262
-635.595	-200.000	-0.015	-0.170
-634.580	456.497	-0.116	-0.259
-633.565	-200.000	0.050	-0.230
-632.551	1.886	0.176	-0.127
-631.536	-200.000	-0.023	-0.182
-630.522	-138.131	-0.359	-0.040
-629.507	33.760	-0.087	0.076
-628.492	-186.215	-0.197	0.003
-627.478	-60.872	-0.219	-0.093
-626.463	-33.357	-0.088	-0.049
-625.449	313.417	0.093	-0.174
-624.434	-200.000	0.046	-0.467
-623.419	69.837	0.240	-0.249
-622.405	-200.000	0.042	0.222
-621.390	-39.083	-0.251	-0.133
-620.376	-110.194	0.175	-0.037
-619.361	-90.832	0.216	-0.062
-618.346	210.680	-0.159	-0.251
-617.332	800.000	-0.079	-0.346
-616.317	-180.196	-0.272	-0.006
-615.303	-104.949	0.523	-0.120
-614.288	-191.908	-0.066	0.001
-613.273	-41.938	-0.272	-0.140
-612.259	-34.388	-0.173	-0.095
-611.244	60.521	0.074	-0.073
-610.230	83.173	-0.062	0.067
-609.215	800.000	-0.057	0.161
-608.201	738.903	-0.052	0.140
-607.186	82.626	0.285	-0.310
-606.171	121.568	-0.238	-0.297
-605.157	-85.110	-0.313	-0.098
-604.142	800.000	-0.094	0.314
-603.128	164.026	-0.076	-0.108
-602.113	98.162	-0.153	-0.177
-601.098	498.596	0.086	0.199
-600.084	70.584	0.126	-0.131
-599.069	1.994	0.154	-0.111
-598.055	-127.675	0.327	0.047
-597.040	-3.590	0.295	-0.205
-596.025	663.969	-0.198	-0.511
-595.011	800.000	-0.124	-0.364
-593.996	-118.157	0.603	0.108
-592.982	-200.000	0.020	0.110
-591.967	-32.368	0.074	-0.041
-590.952	-53.378	-0.118	0.054
-589.938	39.600	-0.244	-0.219
-588.923	800.000	-0.071	-0.217
-587.909	347.453	-0.036	0.070
-586.894	87.431	-0.059	-0.066
-585.879	-146.775	-0.061	-0.005
-584.865	-200.000	-0.001	-0.311
-583.850	-200.000	0.027	-0.133
-582.836	-139.123	0.227	-0.025
-581.821	-88.492	-0.339	-0.101
-580.806	78.959	0.073	-0.078
-579.792	495.987	-0.044	0.100
-578.777	-80.621	-0.060	-0.020
-577.763	486.338	-0.041	-0.093
-576.748	-58.124	0.099	0.043
-575.733	-1.371	0.189	0.134
-574.719	-127.780	0.317	-0.046
-573.704	-157.956	-0.189	0.011
-572.690	594.732	-0.115	-0.285
-571.675	792.463	-0.115	0.316
-570.661	-105.292	-0.250	-0.057
-569.646	107.353	0.107	-0.127
-568.631	-122.894	-0.361	0.058
-567.617	-112.963	-0.134	-0.027
-566.602	-123.889	-0.066	-0.010
-565.588	429.116	-0.081	-0.175
-564.573	-164.010	-0.083	0.004
-563.558	71.642	-0.104	0.109
-562.544	-173.240	0.593	0.018
-561.529	754.475	0.065	0.176
-560.515	100.132	-0.261	-0.302
-559.500	78.844	0.169	-0.180
-558.485	160.224	0.204	-0.284
-557.471	800.000	-0.059	-0.174
-556.456	-5.941	-0.322	-0.221
-555.442	-151.412	-0.290	0.022
-554.427	-81.290	-0.135	0.045
-553.412	640.990	-0.102	-0.259
-552.398	-35.344	-0.276	-0.150
-551.383	-132.276	0.438	-0.057
-550.369	-89.892	0.118	0.034
-549.354	704.316	-0.077	-0.204
-548.339	-40.148	-0.294	0.153
-547.325	-26.473	0.089	-0.052
-546.310	185.527	-0.271	-0.402
-545.296	457.090	0.089	-0.198
-544.281	18.645	0.142	-0.114
-543.266	-51.016	0.236	0.111
-542.252	-82.939	-0.261	-0.084
-541.237	-200.000	0.002	-0.178
-540.223	260.682	0.166	0.287
-539.208	-119.490	-0.348	0.060
-538.193	800.000	0.025	0.087
-537.179	241.671	0.104	-0.173
-536.164	16.538	0.058	0.046
-535.150	144.711	-0.133	-0.178
-534.135	-3.545	-0.087	-0.061
-533.121	475.209	0.070	0.158
-532.106	-73.346	-0.203	-0.074
-531.091	34.917	-0.122	0.107
-530.077	648.738	-0.090	0.231
-529.062	-200.000	-0.007	0.059
-528.048	128.933	0.234	0.298
-527.033	164.036	-0.145	-0.205
-526.018	180.375	-0.055	0.081
-525.004	203.667	-0.048	-0.074
-523.989	-77.269	0.212	-0.074
-522.975	-122.152	-0.261	-0.043
-521.960	800.000	0.105	0.314
-520.945	-100.870	0.322	-0.079
-519.931	772.488	-0.043	-0.117
-518.916	173.943	0.109	-0.157
-517.902	-8.105	-0.313	-0.210
-516.887	-200.000	-0.034	0.183
-515.872	-200.000	-0.014	0.092
-514.858	-177.386	-0.274	0.007
-513.843	15.721	-0.217	0.171
-512.829	-200.000	-0.037	-0.290
-511.814	-140.001	0.167	-0.018
-510.799	-200.000	-0.029	-0.285
-509.785	-105.682	0.171	0.039
-508.770	168.441	-0.090	0.128
-507.756	-100.060	0.289	-0.072
-506.741	-22.697	-0.111	-0.067
-505.726	-100.473	-0.170	-0.042
-504.712	370.075	0.043	-0.087
-503.697	118.398	0.015	0.019
-502.683	208.345	-0.226	-0.353
-501.668	425.734	-0.089	-0.190
-500.653	109.257	0.256	0.306
-499.639	-91.575	0.310	-0.088
-498.624	78.104	0.157	0.168
-497.610	-109.708	0.071	-0.015
-496.595	800.000	-0.064	-0.209
-495.581	-36.288	0.358	-0.193
-494.566	-83.889	0.151	0.048
-493.551	-135.438	-0.192	0.023
-492.537	41.487	0.080	0.072
-491.522	16.649	0.234	0.184
-490.508	-200.000	0.004	-0.163
-489.493	107.900	-0.069	-0.082
-488.478	-64.935	0.056	-0.023
-487.464	33.813	-0.071	-0.061
-486.449	-200.000	-0.009	0.256
-485.435	183.623	-0.065	-0.096
-484.420	214.216	-0.198	-0.313
-483.405	52.956	0.193	0.184
-482.391	-76.140	0.112	-0.039
-481.376	-20.281	0.161	-0.099
-480.362	182.213	-0.211	-0.310
-479.347	488.889	0.063	-0.143
-478.332	63.390	-0.137	-0.138
-477.318	264.344	0.077	0.133
-476.303	-78.874	-0.343	0.117
-475.289	225.275	-0.133	0.215
-474.274	-21.806	0.158	-0.096
-473.259	-200.000	0.015	-0.194
-472.245	800.000	0.091	0.294
-471.230	10.442	0.037	0.028
-470.216	38.358	0.161	0.143
-469.201	-87.661	-0.309	-0.093
-468.186	225.881	-0.137	-0.221
-467.172	49.715	-0.129	-0.121
-466.157	800.000	0.107	0.304
-465.143	-117.723	0.227	-0.041
-464.128	37.705	0.186	-0.164
-463.113	-5.239	-0.233	-0.160
-462.099	-45.627	-0.302	0.149
-461.084	134.683	0.077	0.100
-460.070	-51.425	-0.221	0.103
-459.055	-102.705	-0.206	0.049
-458.040	80.231	0.135	0.145
-457.026	800.000	-0.017	0.065
-456.011	101.417	-0.168	0.195
-454.997	-5.796	-0.102	-0.070
-453.982	-79.798	-0.237	-0.079
-452.968	478.767	0.198	-0.448
-451.953	511.651	0.043	0.100
-450.938	5.285	-0.159	-0.117
-449.924	147.460	-0.181	0.243
-448.909	139.578	-0.073	0.095
-447.895	-117.000	-0.092	-0.017
-446.880	-27.103	0.133	-0.077
-445.865	-166.354	-0.080	-0.003
-444.851	-200.000	-0.006	0.352
-443.836	239.863	0.112	-0.186
-442.822	-200.000	0.021	0.227
-441.807	-48.832	-0.289	-0.138
-440.792	-48.529	0.226	-0.108
-439.778	-119.614	-0.130	0.022
-438.763	-17.520	0.244	-0.153
-437.749	-171.563	0.250	-0.008
-436.734	-200.000	-0.004	-0.198
-435.719	265.466	-0.270	-0.468
-434.705	-161.700	-0.210	-0.011
-433.690	-11.292	0.154	0.101
-432.676	2.519	-0.323	0.233
-431.661	89.150	-0.301	0.334
-430.646	177.354	-0.077	0.112
-429.632	733.762	-0.033	-0.088
-428.617	800.000	-0.037	0.110
-427.603	21.021	-0.077	0.062
-426.588	66.666	0.163	0.165
-425.573	95.996	-0.149	-0.169
-424.559	47.410	-0.208	-0.193
-423.544	-200.000	-0.016	-0.126
-422.530	-28.399	-0.226	0.130
-421.515	20.538	-0.103	0.083
-420.500	-200.000	-0.056	-0.253
-419.486	-53.863	-0.113	0.051
-418.471	-131.512	-0.336	-0.044
-417.457	-157.778	-0.362	0.021
-416.442	58.646	-0.216	0.211
-415.428	223.140	-0.078	0.125
-414.413	85.617	-0.185	-0.202
-413.398	-200.000	0.004	0.071
-412.384	-200.000	0.052	0.434
-411.369	-20.350	0.087	-0.053
-410.355	800.000	0.131	-0.394
-409.340	-31.918	0.267	-0.149
-408.325	136.692	0.091	-0.118
-407.311	-200.000	-0.005	0.045
-406.296	108.234	-0.161	0.191
-405.282	342.824	0.036	0.070
-404.267	55.034	-0.071	-0.068
-403.252	247.897	-0.119	0.201
-402.238	-101.502	-0.137	0.033
-401.223	-17.862	0.235	0.147
-400.209	15.508	-0.175	-0.137
-399.194	-125.170	-0.096	0.015
-398.179	-200.000	0.026	-0.272
-397.165	630.306	-0.129	-0.324
-396.150	-58.121	-0.125	-0.054
-395.136	132.620	0.116	-0.149
-394.121	800.000	-0.106	-0.331
-393.106	-25.329	-0.189	-0.111
-392.092	11.053	0.190	0.144
-391.077	-200.000	0.063	-0.278
-390.063	-44.619	0.153	0.076
-389.048	-155.749	-0.101	0.006
-388.033	300.412	0.105	0.192
-387.019	800.000	0.062	0.182
-386.004	589.335	0.077	-0.188
-384.990	-56.014	0.387	-0.171
-383.975	223.541	0.078	0.126
-382.960	-91.719	-0.057	0.016
-381.946	764.639	0.048	0.129
-380.931	779.727	-0.075	-0.203
-379.917	-200.000	-0.005	-0.112
-378.902	-43.341	0.191	0.096
-377.888	125.599	0.097	0.121
-376.873	15.411	0.182	0.142
-375.858	182.628	0.206	-0.302
-374.844	92.549	-0.056	-0.062
-373.829	127.195	0.053	0.067
-372.815	-125.793	-0.224	0.034
-371.800	-200.000	0.015	0.268
-370.785	81.936	-0.226	-0.243
-369.771	-111.465	0.439	0.089
-368.756	800.000	0.059	0.205
-367.742	-55.982	0.319	-0.141
-366.727	290.568	-0.110	-0.198
-365.712	57.144	0.138	0.133
-364.698	800.000	0.094	-0.283
-363.683	121.036	0.040	-0.049
-362.669	-191.184	-0.213	-0.002
-361.654	-61.746	0.036	-0.015
-360.639	-28.382	0.351	0.201
-359.625	112.892	0.285	0.343
-358.610	-200.000	0.036	0.190
-357.596	-144.884	-0.054	-0.005
-356.581	235.151	-0.056	-0.092
-355.566	-58.031	-0.361	-0.157
-354.552	-30.791	-0.008	-0.005
-353.537	49.855	0.200	-0.187
-352.523	-200.000	0.005	0.101
-351.508	-92.835	-0.157	-0.043
-350.493	-102.749	-0.281	0.066
-349.479	694.982	-0.082	-0.215
-348.464	-116.770	0.137	-0.025
-347.450	-65.716	-0.260	-0.103
-346.435	-122.422	-0.026	-0.004
-345.420	258.952	0.146	0.250
-344.406	800.000	-0.112	-0.473
-343.391	-200.000	-0.034	0.226
-342.377	34.768	-0.180	-0.156
-341.362	78.170	-0.213	-0.226
-340.348	169.785	0.040	0.056
-339.333	-94.222	0.021	-0.006
-338.318	-104.997	0.141	0.032
-337.304	-35.031	0.381	-0.206
-336.289	800.000	0.026	-0.080
-335.275	-102.250	0.344	-0.082
-334.260	-180.931	0.109	-0.002
-333.245	-82.308	0.153	-0.049
-332.231	-146.205	0.440	0.038
-331.216	288.047	-0.100	0.180
-330.202	-167.903	0.193	-0.008
-329.187	-7.871	0.129	0.086
-328.172	-65.285	-0.545	0.218
-327.158	-200.000	-0.040	0.220
-326.143	-75.722	-0.312	-0.110
-325.129	-200.000	-0.031	0.286
-324.114	-150.784	0.162	0.012
-323.099	18.409	0.130	-0.103
-322.085	-65.405	0.513	0.205
-321.070	506.340	0.140	0.322
-320.056	5.672	-0.079	0.058
-319.041	59.328	-0.266	0.259
-318.026	-37.009	0.200	-0.106
-317.012	-24.772	-0.182	0.107
-315.997	-125.363	0.194	-0.029
-314.983	-200.000	-0.064	0.457
-313.968	66.455	-0.088	-0.089
-312.953	-139.423	0.343	0.036
-311.939	-200.000	-0.038	0.218
-310.924	685.857	-0.015	-0.039
-309.910	-200.000	0.012	0.079
-308.895	-200.000	0.005	-0.193
-307.880	-160.436	-0.085	0.004
-306.866	139.206	0.145	0.189
-305.851	-40.744	-0.152	-0.078
-304.837	-192.635	-0.149	0.001
-303.822	333.418	-0.016	-0.031
-302.807	-46.840	0.223	-0.108
-301.793	47.440	0.180	0.166
-300.778	-0.404	0.040	0.028
-299.764	-168.374	0.134	0.005
-298.749	-19.745	0.072	-0.044
-297.735	-60.244	-0.163	-0.069
-296.720	149.184	-0.224	-0.300
-295.705	-45.233	-0.143	0.071
-294.691	140.512	0.093	-0.122
-293.676	443.039	0.185	0.402
-292.662	-200.000	-0.036	0.468
-291.647	-117.443	0.242	-0.043
-290.632	53.689	0.285	0.271
-289.618	800.000	0.017	0.071
-288.603	150.539	0.152	0.205
-287.589	79.555	-0.089	-0.094
-286.574	-22.997	0.257	-0.153
-285.559	-200.000	0.000	0.333
-284.545	70.057	-0.298	-0.304
-283.530	-200.000	0.016	0.140
-282.516	-14.006	-0.164	0.105
-281.501	99.950	0.136	0.156
-280.486	29.011	-0.135	-0.113
-279.472	-200.000	-0.020	0.233
-278.457	26.650	-0.205	0.170
-277.443	800.000	0.087	0.283
-276.428	-24.079	-0.211	0.125
-275.413	-77.461	0.189	0.065
-274.399	-200.000	0.003	-0.035
-273.384	-200.000	0.024	0.128
-272.370	-54.770	0.186	0.083
-271.355	46.116	-0.218	0.199
-270.340	-200.000	0.091	0.478
-269.326	150.288	0.221	0.296
-268.311	-165.315	-0.393	0.017
-267.297	150.024	0.017	-0.022
-266.282	-131.449	0.143	-0.019
-265.267	-200.000	-0.007	-0.115
-264.253	265.339	-0.091	-0.156
-263.238	-200.000	0.040	0.422
-262.224	-184.817	-0.143	0.002
-261.209	-153.447	0.453	0.031
-260.195	-125.520	-0.123	-0.019
-259.180	200.271	-0.047	-0.072
-258.165	-143.522	-0.307	-0.029
-257.151	-200.000	0.018	-0.178
-256.136	-200.000	-0.047	0.405
-255.122	800.000	-0.060	0.249
-254.107	-14.795	0.249	0.158
-253.092	-200.000	-0.011	-0.183
-252.078	-141.728	0.059	0.006
-251.063	-11.791	0.177	-0.115
-250.049	306.324	-0.051	0.094
-249.034	32.877	0.111	0.095
-248.019	-200.000	-0.028	0.138
-247.005	-0.796	0.153	-0.107
-245.990	177.572	-0.178	0.256
-244.976	46.582	-0.348	0.319
-243.961	-10.577	-0.277	0.181
-242.946	488.457	0.169	0.381
-241.932	49.199	0.096	0.089
-240.917	-200.000	0.022	-0.273
-239.903	-200.000	0.001	-0.254
-238.888	-200.000	-0.001	0.333
-237.873	67.515	-0.027	0.027
-236.859	9.154	0.097	0.073
-235.844	-17.192	-0.036	-0.022
-234.830	173.783	0.020	0.029
-233.815	-121.380	-0.280	0.046
-232.800	800.000	-0.082	0.285
-231.786	138.857	-0.028	-0.036
-230.771	136.990	0.185	0.238
-229.757	81.752	0.169	0.181
-228.742	492.813	-0.081	0.183
-227.727	726.237	0.051	-0.134
-226.713	-200.000	0.001	-0.330
-225.698	800.000	-0.056	0.163
-224.684	627.972	-0.090	0.224
-223.669	96.500	0.034	0.038
-222.655	-157.160	0.096	-0.006
-221.640	-158.168	0.313	-0.018
-220.625	-58.175	0.304	0.131
-219.611	-106.258	0.104	0.023
-218.596	-191.082	0.169	-0.002
-217.582	-200.000	0.003	0.547
-216.567	29.558	0.248	-0.208
-215.552	154.565	-0.169	0.229
-214.538	-80.021	0.131	0.043
-213.523	-38.573	-0.154	0.080
-212.509	-200.000	0.015	0.196
-211.494	-35.233	0.198	-0.106
-210.479	-42.492	0.384	-0.193
-209.465	-25.181	0.275	0.161
-208.450	800.000	0.028	-0.076
-207.436	481.929	0.097	-0.218
-206.421	3.375	0.153	0.110
-205.406	-106.809	0.295	-0.065
-204.392	72.434	-0.265	0.272
-203.377	320.285	0.206	0.386
-202.363	-151.773	0.539	0.039
-201.348	105.454	-0.257	0.299
-200.333	800.000	0.034	0.120
-199.319	278.051	0.072	-0.127
-198.304	-131.606	0.400	-0.052
-197.290	72.970	-0.108	-0.112
-196.275	800.000	0.071	-0.234
-195.260	-152.396	0.372	-0.026
-194.246	-146.057	0.396	0.034
-193.231	26.633	-0.264	0.218
-192.217	800.000	-0.024	0.077
-191.202	91.135	-0.016	0.018
-190.187	-94.944	0.102	-0.027
-189.173	18.195	0.103	0.081
-188.158	10.717	0.076	0.057
-187.144	14.766	0.274	0.211
-186.129	-200.000	-0.012	-0.164
-185.114	-2.641	-0.069	-0.047
-184.100	-200.000	0.002	0.205
-183.085	198.026	-0.173	-0.260
-182.071	413.662	-0.114	0.238
-181.056	8.746	0.045	0.034
-180.042	747.220	-0.034	-0.090
-179.027	-29.261	-0.141	-0.080
-178.012	239.423	0.073	-0.119
-176.998	-77.401	0.089	-0.030
-175.983	-66.710	-0.335	0.131
-174.969	-197.009	0.252	-0.002
-173.954	198.101	0.146	0.221
-172.939	-90.643	-0.354	0.101
-171.925	480.764	-0.113	0.253
-170.910	-54.462	0.063	0.028
-169.896	556.857	0.088	0.208
-168.881	779.716	-0.193	-0.521
-167.866	-62.752	-0.452	-0.185
-166.852	81.705	0.136	0.145
-165.837	-200.000	-0.101	-0.618
-164.823	-82.783	0.190	0.060
-163.808	-14.554	-0.153	0.097
-162.793	-113.473	-0.427	-0.082
-161.779	-97.689	0.305	0.078
-160.764	-34.723	0.192	0.104
-159.750	-16.452	-0.165	0.103
-158.735	-200.000	0.010	0.261
-157.720	481.690	-0.009	-0.019
-156.706	133.466	-0.165	0.210
-155.691	-200.000	-0.024	0.202
-154.677	-43.532	0.146	-0.072
-153.662	-29.171	-0.205	-0.116
-152.647	9.923	-0.245	-0.183
-151.633	-6.518	-0.293	0.196
-150.618	497.557	0.069	0.156
-149.604	-38.169	0.275	0.144
-148.589	-111.942	-0.311	-0.062
-147.574	466.008	0.204	-0.449
-146.560	97.440	0.101	0.114
-145.545	-200.000	-0.100	0.465
-144.531	-200.000	0.000	0.283
-143.516	-61.352	0.261	-0.108
-142.502	413.284	0.053	0.111
-141.487	-103.130	-0.443	-0.103
-140.472	-200.000	-0.078	-0.602
-139.458	44.914	-0.052	0.047
-138.443	-134.604	-0.311	-0.037
-137.429	8.084	0.137	0.102
-136.414	-103.758	0.151	-0.035
-135.399	800.000	-0.050	0.202
-134.385	-193.434	0.037	0.000
-133.370	-200.000	-0.006	-0.260
-132.356	-200.000	-0.064	-0.322
-131.341	510.542	-0.031	0.071
-130.326	-79.185	0.220	-0.073
-129.312	358.508	0.006	-0.012
-128.297	-89.565	0.361	-0.104
-127.283	738.601	-0.044	-0.117
-126.268	43.903	0.159	0.144
-125.253	-127.160	-0.251	-0.036
-124.239	82.683	0.036	-0.038
-123.224	71.568	-0.119	-0.121
-122.210	-149.849	0.183	0.014
-121.195	239.847	0.103	-0.169
-120.180	-200.000	0.325	-0.001
-119.166	-84.130	0.171	-0.053
-118.151	-91.022	-0.122	-0.034
-117.137	-24.666	-0.178	0.104
-116.122	800.000	-0.127	-0.353
-115.107	-66.245	0.149	-0.058
-114.093	-143.937	-0.539	0.050
-113.078	-150.940	-0.079	0.006
-112.064	-200.000	0.090	-0.390
-111.049	-72.162	-0.383	-0.140
-110.034	-200.000	-0.011	0.104
-109.020	580.614	-0.062	-0.150
-108.005	-36.223	-0.229	0.121
-106.991	480.810	0.070	0.157
-105.976	-136.888	-0.272	-0.031
-104.962	307.839	0.148	0.272
-103.947	16.467	-0.168	0.130
-102.932	641.658	-0.072	-0.179
-101.918	209.186	0.113	-0.173
-100.903	-110.627	0.117	-0.024
-99.889	9.836	-0.280	-0.209
-98.874	-200.000	0.032	-0.143
-97.859	548.724	-0.030	-0.071
-96.845	-113.315	0.044	-0.008
-95.830	-200.000	-0.011	0.148
-94.816	75.427	-0.102	-0.105
-93.801	-200.000	0.020	-0.284
-92.786	218.836	0.121	-0.189
-91.772	-66.501	0.123	-0.048
-90.757	-200.000	-0.008	0.089
-89.743	-147.274	-0.101	-0.008
-88.728	800.000	-0.023	0.086
-87.713	5.364	0.112	0.081
-86.699	345.990	-0.108	0.209
-85.684	68.647	-0.109	0.110
-84.670	116.140	0.244	-0.294
-83.655	-5.631	0.395	-0.266
-82.640	93.936	-0.145	0.161
-81.626	-200.000	0.039	-0.172
-80.611	-51.630	-0.173	-0.079
-79.597	55.284	-0.190	0.180
-78.582	-110.038	-0.462	-0.095
-77.567	-93.845	-0.084	-0.023
-76.553	162.998	-0.119	0.164
-75.538	-62.646	-0.076	0.031
-74.524	-17.393	-0.224	-0.139
-73.509	84.248	-0.239	0.256
-72.494	284.913	-0.225	0.398
-71.480	-200.000	0.001	-0.286
-70.465	-200.000	0.041	0.229
-69.451	27.875	0.274	-0.227
-68.436	92.938	0.178	-0.197
-67.422	292.361	-0.156	0.279
-66.407	113.720	0.078	-0.093
-65.392	800.000	0.071	-0.193
-64.378	5.358	-0.413	0.299
-63.363	-13.425	-0.185	-0.118
-62.349	325.776	-0.133	-0.251
-61.334	16.536	-0.942	-0.730
-60.319	5.457	0.782	0.567
-59.305	532.060	-0.530	-1.231
-58.290	97.890	0.912	1.029
-57.276	785.946	0.540	1.454
-56.261	-200.000	110.732	605.691
-55.246	496.660	1529.711	3450.945
-54.232	173.948	2711.148	3840.621
-53.217	107.996	2169.950	2536.739
-52.203	39.636	1610.030	1416.021
-51.188	31.392	1351.236	1138.414
-50.173	28.406	1311.587	1087.278
-49.159	53.008	1369.258	1285.042
-48.144	52.715	1383.384	1296.473
-47.130	31.493	1337.197	1127.014
-46.115	28.142	1319.271	1091.901
-45.100	27.958	1314.920	1087.159
-44.086	27.946	1312.381	1084.946
-43.071	27.759	1310.125	1081.929
-42.057	27.742	1307.730	1079.809
-41.042	27.830	1306.202	1079.025
-40.027	27.938	1304.513	1078.223
-39.013	27.840	1302.645	1076.062
-37.998	27.784	1301.158	1074.462
-36.984	27.873	1299.449	1073.531
-35.969	28.000	1297.189	1072.362
-34.954	27.927	1295.609	1070.589
-33.940	27.950	1294.108	1069.443
-32.925	28.047	1292.959	1069.014
-31.911	27.893	1291.510	1066.877
-30.896	28.060	1290.027	1066.582
-29.881	28.124	1288.690	1065.810
-28.867	28.122	1286.985	1064.344
-27.852	28.025	1285.925	1062.862
-26.838	28.044	1284.900	1062.081
-25.823	28.134	1283.073	1061.051
-24.809	27.929	1282.208	1059.103
-23.794	28.142	1280.352	1058.763
-22.779	28.012	1279.352	1057.141
-21.765	28.110	1277.609	1056.228
-20.750	28.096	1276.220	1054.955
-19.736	28.146	1274.757	1053.994
-18.721	28.023	1273.883	1052.519
-17.706	28.010	1272.928	1051.613
-16.692	27.985	1271.739	1050.448
-15.677	27.846	1270.882	1048.900
-14.663	27.913	1269.472	1048.079
-13.648	27.932	1268.482	1047.329
-12.633	27.864	1267.690	1046.242
-11.619	27.833	1266.984	1045.438
-10.604	27.966	1266.006	1045.355
-9.590	27.931	1265.320	1044.548
-8.575	27.930	1264.044	1043.446
-7.560	27.937	1263.188	1042.736
-6.546	27.875	1262.507	1041.777
-5.531	27.864	1261.053	1040.474
-4.517	28.025	1260.478	1040.878
-3.502	27.905	1260.051	1039.798
-2.487	27.898	1258.666	1038.578
-1.473	27.987	1254.538	1035.634
-0.458	26.860	1240.185	1017.426
0.556	25.473	1222.877	980.963
1.571	21.813	1228.874	965.574
2.586	20.837	1243.297	971.379
3.600	20.066	1230.857	957.316
4.615	15.228	1159.399	876.419
5.629	7.838	1086.973	785.247
6.644	4.663	1068.559	756.452
7.659	4.271	1065.337	752.202
8.673	4.211	1064.160	751.014
9.688	4.127	1063.233	749.886
10.702	4.680	1061.051	750.954
11.717	9.567	1067.335	779.016
12.731	17.434	1078.700	825.552
13.746	21.393	1083.581	848.468
14.761	22.061	1084.382	852.265
15.775	21.345	1082.180	846.989
16.790	20.329	1080.691	840.832
17.804	19.672	1079.044	836.296
18.819	19.435	1078.178	834.404
19.834	19.343	1077.373	833.262
20.848	19.346	1076.468	832.503
21.863	19.091	1076.059	830.882
22.877	18.984	1075.216	829.643
23.892	18.978	1074.478	828.970
24.907	18.866	1073.794	827.832
25.921	18.906	1072.973	827.316
26.936	18.895	1071.138	825.774
27.950	18.927	1069.932	824.926
28.965	18.960	1069.005	824.298
29.980	19.059	1067.429	823.483
30.994	19.298	1066.057	823.492
32.009	19.348	1065.459	823.195
33.023	19.276	1064.279	821.867
34.038	19.211	1063.131	820.600
35.053	19.043	1062.436	819.190
36.067	19.004	1061.497	818.211
37.082	19.100	1060.486	817.813
38.096	19.259	1060.074	818.179
39.111	19.320	1059.430	817.900
40.126	19.073	1058.149	815.667
41.140	18.765	1056.361	812.761
42.155	18.601	1055.050	810.905
43.169	18.532	1054.254	809.893
44.184	18.534	1053.260	809.067
45.199	18.546	1052.707	808.629
46.213	18.768	1051.764	808.879
47.228	18.946	1050.862	808.952
48.242	19.126	1049.614	808.761
49.257	18.961	1048.817	807.306
50.271	18.985	1048.187	806.861
51.286	19.125	1047.253	806.724
52.301	19.130	1046.148	805.826
53.315	18.854	1045.334	803.836
54.330	18.847	1043.795	802.549
55.344	18.733	1043.164	801.463
56.359	18.827	1042.205	801.093
57.374	18.807	1041.140	800.112
58.388	18.656	1040.210	798.623
59.403	18.408	1039.655	796.971
60.417	18.517	1038.592	796.593
61.432	18.534	1037.809	795.999
62.447	18.442	1036.913	794.815
63.461	18.406	1036.288	794.099
64.476	18.294	1035.593	792.978
65.490	18.354	1034.650	792.462
66.505	18.377	1034.094	792.073
67.520	18.473	1033.202	791.762
68.534	18.456	1032.223	790.864
69.549	18.424	1031.653	790.210
70.563	18.471	1030.503	789.477
71.578	18.267	1029.974	788.062
72.593	18.131	1028.737	786.421
73.607	18.085	1028.581	786.021
74.622	18.191	1028.063	786.040
75.636	18.182	1027.465	785.474
76.651	18.252	1026.660	785.112
77.666	18.340	1026.113	785.024
78.680	18.356	1025.238	784.359
79.695	18.283	1024.826	783.640
80.709	18.629	1024.109	784.605
81.724	18.591	1024.073	784.337
82.739	18.586	1023.092	783.494
83.753	18.989	1022.586	784.876
84.768	19.189	1022.162	785.391
85.782	19.347	1021.242	785.334
86.797	19.375	1019.839	784.313
87.812	19.188	1018.976	782.731
88.826	19.063	1018.346	781.610
89.841	19.211	1017.375	781.469
90.855	19.314	1016.410	781.123
91.870	19.361	1015.833	780.824
92.884	19.286	1015.095	779.849
93.899	19.381	1013.691	779.128
94.914	19.437	1012.973	778.760
95.928	19.405	1012.257	777.998
96.943	19.249	1011.061	776.307
97.957	19.133	1010.096	774.976
98.972	19.184	1009.323	774.545
99.987	19.248	1008.378	774.036
101.001	19.229	1007.683	773.351
102.016	19.086	1006.804	771.964
103.030	19.238	1005.815	771.822
104.045	19.227	1005.255	771.272
105.060	19.052	1003.988	769.451
106.074	18.825	1002.880	767.521
107.089	18.566	1001.734	765.418
108.103	18.522	1000.421	764.152
109.118	18.445	999.748	763.227
110.133	18.322	999.232	762.216
111.147	18.338	998.092	761.350
112.162	18.442	997.221	761.082
113.176	18.613	996.855	761.497
114.191	18.653	996.212	761.113
115.206	18.627	995.532	760.409
116.220	18.533	994.423	759.079
117.235	18.576	993.497	758.496
118.249	18.660	992.266	757.859
119.264	18.457	991.733	756.490
120.279	18.387	990.847	755.439
121.293	18.312	990.082	754.457
122.308	18.332	988.957	753.622
123.322	18.183	987.999	752.171
124.337	18.189	986.610	751.071
125.352	18.053	986.279	750.158
126.366	18.162	984.710	749.377
127.381	18.130	983.851	748.517
128.395	18.277	983.250	748.634
129.410	18.247	982.526	747.886
130.424	18.563	981.009	748.045
131.439	18.595	980.566	747.780
132.454	18.574	979.996	747.185
133.468	18.676	978.966	746.782
134.483	18.591	978.304	745.840
135.497	18.772	977.280	745.779
136.512	18.658	976.673	744.754
137.527	18.661	975.588	743.876
138.541	18.842	974.924	744.087
139.556	18.786	974.496	743.452
140.570	18.899	973.708	743.274
141.585	19.155	973.555	744.197
142.600	19.240	972.559	743.735
143.614	19.300	971.810	743.358
144.629	19.357	971.163	743.044
145.643	19.272	970.031	741.744
146.658	19.105	968.735	739.969
147.673	18.779	968.129	738.040
148.687	18.665	967.071	736.681
149.702	18.676	965.835	735.722
150.716	18.718	965.162	735.321
151.731	18.680	964.509	734.599
152.746	18.748	963.507	734.058
153.760	18.851	963.386	734.343
154.775	18.922	962.425	733.848
155.789	18.992	961.683	733.516
156.804	19.102	960.665	733.142
157.819	19.026	960.615	732.717
158.833	19.187	960.378	733.157
159.848	19.412	958.920	732.935
160.862	19.199	957.894	731.180
161.877	18.963	956.291	728.895
162.892	18.768	955.650	727.514
163.906	18.776	954.361	726.505
164.921	18.817	953.362	725.850
165.935	18.830	953.003	725.566
166.950	18.831	952.107	724.826
167.964	18.881	950.741	723.932
168.979	18.661	950.166	722.507
169.994	18.864	949.365	722.683
171.008	18.901	948.974	722.480
172.023	19.027	948.726	722.757
173.037	19.218	947.864	722.838
174.052	19.022	946.949	721.254
175.067	18.803	945.812	719.408
176.081	18.711	945.278	718.550
177.096	18.681	944.804	718.004
178.110	18.812	943.790	717.715
179.125	18.911	943.601	717.920
180.140	18.814	943.442	717.334
181.154	19.081	943.298	718.274
182.169	19.147	942.945	718.216
183.183	19.171	941.817	717.396
184.198	19.207	940.995	716.853
185.213	19.149	940.342	716.054
186.227	19.362	939.659	716.353
187.242	19.486	939.400	716.607
188.256	19.540	938.736	716.261
189.271	19.525	937.800	715.424
190.286	19.114	936.802	712.894
191.300	18.699	935.541	710.159
192.315	18.643	934.890	709.370
193.329	18.606	934.322	708.723
194.344	18.922	933.668	709.466
195.359	18.991	933.374	709.464
196.373	19.139	932.681	709.485
197.388	19.223	932.543	709.664
198.402	19.552	931.950	710.503
199.417	19.700	931.519	710.721
200.432	19.679	931.412	710.490
201.446	19.814	930.930	710.614
202.461	19.825	930.558	710.314
203.475	19.585	929.767	708.661
204.490	19.538	927.986	707.049
205.504	19.286	927.578	705.644
206.519	19.316	926.924	705.206
207.534	19.246	926.128	704.251
208.548	19.307	925.560	704.006
209.563	19.276	924.921	703.332
210.577	19.357	924.423	703.224
211.592	19.670	923.435	703.685
212.607	19.695	923.260	703.590
213.621	19.529	922.189	702.037
214.636	19.624	921.451	701.798
215.650	19.629	920.509	701.038
216.665	19.813	920.020	701.350
217.680	19.734	919.959	700.923
218.694	19.825	919.141	700.606
219.709	19.768	918.264	699.643
220.723	19.592	918.047	698.705
221.738	19.633	916.948	697.973
222.753	19.678	916.288	697.591
223.767	19.799	915.834	697.672
224.782	19.782	915.783	697.502
225.796	19.872	914.624	696.920
226.811	19.880	914.379	696.701
227.826	19.686	913.443	695.148
228.840	19.610	912.640	694.169
229.855	19.692	911.499	693.570
230.869	19.584	911.179	692.830
231.884	19.565	910.061	691.845
232.899	19.402	909.574	690.759
233.913	19.270	909.480	690.098
234.928	19.423	908.229	689.701
235.942	19.390	907.474	688.934
236.957	19.305	907.098	688.248
237.972	19.311	906.751	687.947
238.986	19.474	905.991	687.961
240.001	19.339	905.297	686.833
241.015	19.483	904.489	686.735
242.030	19.566	903.931	686.580
243.045	19.569	903.923	686.525
244.059	19.518	903.222	685.727
245.074	19.603	902.747	685.646
246.088	19.839	901.615	685.660
247.103	19.998	901.167	685.887
248.117	20.085	901.195	686.193
249.132	20.376	900.735	686.934
250.147	20.556	900.215	687.187
251.161	20.556	899.772	686.789
252.176	20.547	899.528	686.506
253.190	20.702	898.532	686.299
254.205	20.793	898.037	686.218
255.220	20.685	897.160	685.063
256.234	20.569	896.596	684.113
257.249	20.553	895.989	683.527
258.263	20.498	895.064	682.544
259.278	20.550	894.209	682.039
260.293	20.746	893.568	682.256
261.307	20.711	893.497	682.006
262.322	20.861	892.472	681.749
263.336	20.872	891.916	681.307
264.351	20.758	891.042	680.134
265.366	20.891	890.634	680.282
266.380	20.915	889.842	679.707
267.395	20.622	889.187	678.006
268.409	20.548	888.766	677.336
269.424	20.617	887.441	676.538
270.439	20.544	887.102	675.936
271.453	20.441	886.132	674.734
272.468	20.456	885.408	674.184
273.482	20.483	885.112	674.001
274.497	20.513	884.506	673.598
275.512	20.474	883.988	672.993
276.526	20.517	883.487	672.716
277.541	20.590	883.584	673.014
278.555	20.770	882.927	673.151
279.570	20.911	881.968	672.905
280.585	20.966	881.408	672.628
281.599	20.630	880.546	670.618
282.614	20.652	879.471	669.822
283.628	20.682	878.824	669.386
284.643	20.539	878.519	668.547
285.657	20.563	878.035	668.210
286.672	20.584	877.441	667.781
287.687	20.538	877.089	667.275
288.701	20.558	876.416	666.784
289.716	20.637	875.647	666.441
290.730	20.714	874.963	666.156
291.745	20.608	874.718	665.506
292.760	20.860	873.826	665.730
293.774	21.036	873.445	666.052
294.789	20.841	872.930	664.859
295.803	20.659	871.715	663.179
296.818	20.675	871.200	662.788
297.833	20.593	870.515	661.900
298.847	20.580	870.138	661.504
299.862	20.697	869.638	661.511
300.876	20.835	869.257	661.686
301.891	20.883	868.694	661.380
302.906	21.069	868.236	661.680
303.920	21.336	867.462	662.044
304.935	21.520	866.876	662.235
305.949	21.227	866.324	660.646
306.964	20.908	865.863	659.030
307.979	21.062	865.124	658.988
308.993	21.101	864.898	658.904
310.008	21.265	863.889	658.699
311.022	21.000	863.282	657.178
312.037	20.766	862.863	655.918
313.052	20.703	861.900	654.892
314.066	20.723	861.304	654.456
315.081	20.622	860.868	653.689
316.095	20.500	860.716	653.057
317.110	20.669	859.685	652.851
318.125	20.727	858.913	652.425
319.139	20.686	858.706	652.054
320.154	20.657	858.067	651.404
321.168	20.864	857.421	651.631
322.183	20.735	857.223	650.938
323.197	20.827	856.664	650.801
324.212	20.829	856.239	650.428
325.227	20.779	855.495	649.618
326.241	20.896	854.470	649.219
327.256	20.801	854.198	648.601
328.270	20.850	853.378	648.104
329.285	20.701	853.298	647.430
330.300	20.738	852.501	646.905
331.314	20.766	852.271	646.780
332.329	20.996	852.039	647.399
333.343	20.990	851.540	646.940
334.358	20.947	851.319	646.555
335.373	21.027	850.976	646.534
336.387	21.121	850.441	646.421
337.402	21.300	849.997	646.688
338.416	21.434	850.063	647.176
339.431	21.526	849.712	647.191
340.446	21.687	848.919	647.125
341.460	21.675	848.924	647.028
342.475	21.691	848.562	646.753
343.489	21.737	848.027	646.459
344.504	21.858	847.259	646.261
345.519	21.894	846.784	645.974
346.533	21.767	846.033	644.878
347.548	21.597	845.495	643.783
348.562	21.456	844.647	642.564
349.577	21.332	843.865	641.457
350.592	21.065	843.499	640.145
351.606	21.226	842.439	639.872
352.621	21.142	841.933	639.124
353.635	21.179	841.616	638.962
354.650	21.391	840.776	639.042
355.665	21.411	840.281	638.683
356.679	21.578	839.403	638.568
357.694	21.578	839.053	638.244
358.708	21.473	838.536	637.414
359.723	21.418	837.964	636.721
360.738	21.450	837.219	636.215
361.752	21.502	836.687	635.944
362.767	21.728	836.153	636.303
363.781	21.960	835.932	636.921
364.796	22.078	835.633	637.063
365.810	22.241	835.058	637.159
366.825	22.029	835.235	636.471
367.840	22.131	834.112	635.928
368.854	21.775	833.844	634.377
369.869	21.879	833.251	634.248
370.883	21.951	832.560	633.926
371.898	22.131	832.336	634.349
372.913	22.051	832.331	634.001
373.927	21.935	831.568	632.945
374.942	22.039	831.043	632.862
375.956	22.057	830.891	632.755
376.971	22.194	830.466	632.869
377.986	22.296	829.681	632.582
379.000	22.413	829.137	632.531
380.015	22.303	828.660	631.718
381.029	22.221	828.269	631.069
382.044	22.369	827.420	630.897
383.059	22.310	826.881	630.217
384.073	22.143	826.173	629.026
385.088	21.959	825.365	627.698
386.102	21.843	824.938	626.902
387.117	21.817	824.180	626.178
388.132	21.897	823.903	626.197
389.146	21.889	823.533	625.831
390.161	22.249	822.933	626.605
391.175	22.205	822.303	625.912
392.190	22.073	821.809	625.013
393.205	21.856	821.787	624.166
394.219	21.931	821.124	623.875
395.234	21.835	820.184	622.765
396.248	21.802	819.719	622.238
397.263	21.721	819.239	621.531
398.278	21.597	819.050	620.895
399.292	21.769	818.582	621.095
400.307	21.772	817.978	620.591
401.321	21.705	817.542	619.970
402.336	21.989	817.113	620.594
403.350	21.890	816.666	619.848
404.365	22.160	816.636	620.723
405.380	22.327	816.399	621.081
406.394	22.432	815.612	620.796
407.409	22.353	815.848	620.643
408.423	22.470	815.088	620.421
409.438	22.369	815.213	620.105
410.453	22.537	814.383	620.011
411.467	22.676	813.928	620.097
412.482	22.776	813.497	620.065
413.496	22.709	813.492	619.773
414.511	22.914	812.658	619.800
415.526	22.721	812.103	618.645
416.540	22.559	811.675	617.698
417.555	22.709	811.096	617.729
418.569	22.714	810.420	617.174
419.584	22.759	810.216	617.122
420.599	22.759	809.747	616.712
421.613	163.801	1371.639	1794.791
422.628	142.634	1453.500	1794.910
