DTS Sentinel unit serial number:	SN413079Multiplexer serial number:	ORYXHardware model number:	OX4-SRSoftware version number:	ORYX F/W v4.00 Oryx Data Collector v3.7.2.0data status	okinstallation	princeton_trtdifferential loss correction	single-endedforward channel	channel 1reverse channel	N/Adate	2019/09/15time	00:34:35forward acquisition time	60.00reverse acquisition time	0.00gamma	496.2192k internal	0.2320k external	0.2320temperature offset calibration	0.9989default loss term (dB/km)	0.3790temperature slope calibration	1.0000multiplexer offset coefficient	1.0000multiplexer slope coefficient	1.0000fibre end	0.00T internal ref (°C)	32.12T ext. ref 1 (°C)	4.57T ext. ref 2 (°C)	27.16length (m)	temperature (°C)	Stokes	anti-Stokes-747.200	-128.900	0.185	0.026
-746.185	-200.000	-0.046	-0.273
-745.171	-40.707	0.116	0.061
-744.156	-61.515	0.093	0.040
-743.142	152.526	-0.262	0.362
-742.127	69.690	-0.072	-0.075
-741.112	-92.256	0.227	0.065
-740.098	-200.000	-0.070	0.490
-739.083	-35.047	-0.191	-0.105
-738.069	-112.314	-0.344	-0.070
-737.054	-167.078	-0.405	0.017
-736.039	-8.831	-0.318	-0.215
-735.025	104.191	0.251	0.299
-734.010	-30.210	-0.256	-0.147
-732.996	-45.541	-0.211	-0.105
-731.981	-192.016	-0.198	0.002
-730.966	46.658	-0.195	-0.183
-729.952	164.944	0.076	-0.108
-728.937	-80.396	-0.281	-0.095
-727.923	15.502	-0.565	-0.449
-726.908	-24.728	-0.251	-0.151
-725.894	372.517	0.158	-0.325
-724.879	43.775	-0.102	0.094
-723.864	54.038	-0.348	0.338
-722.850	-55.428	-0.344	0.156
-721.835	-90.626	-0.219	0.064
-720.821	63.670	0.157	-0.160
-719.806	280.068	-0.051	0.091
-718.791	22.344	0.043	-0.036
-717.777	-39.543	-0.292	0.155
-716.762	115.341	-0.062	-0.077
-715.748	425.483	0.122	-0.264
-714.733	30.933	0.086	0.074
-713.718	-170.584	0.229	0.008
-712.704	-96.180	-0.173	-0.046
-711.689	800.000	0.095	-0.406
-710.675	-120.517	0.244	-0.042
-709.660	800.000	-0.049	-0.152
-708.645	-200.000	-0.020	0.318
-707.631	-200.000	-0.023	0.101
-706.616	-60.786	-0.382	0.164
-705.602	800.000	0.121	-0.420
-704.587	-200.000	0.034	-0.391
-703.572	-91.156	-0.094	0.027
-702.558	483.622	0.137	-0.314
-701.543	-200.000	-0.002	-0.354
-700.529	800.000	0.032	-0.095
-699.514	694.725	-0.224	-0.593
-698.499	38.795	-0.074	0.067
-697.485	28.120	-0.237	-0.202
-696.470	-62.486	-0.201	-0.084
-695.456	-200.000	0.041	0.223
-694.441	-144.487	-0.287	0.027
-693.426	429.366	-0.035	-0.076
-692.412	70.560	0.208	-0.217
-691.397	-200.000	-0.009	-0.135
-690.383	-2.608	-0.334	-0.236
-689.368	223.650	-0.267	0.434
-688.354	-106.647	0.222	0.050
-687.339	-200.000	-0.025	-0.460
-686.324	-54.449	-0.309	-0.141
-685.310	205.293	-0.180	0.282
-684.295	682.003	-0.076	-0.201
-683.281	-200.000	-0.020	-0.199
-682.266	-45.524	-0.205	0.102
-681.251	-139.713	0.332	0.036
-680.237	-47.508	0.353	-0.173
-679.222	264.979	-0.070	0.123
-678.208	-117.698	0.297	0.054
-677.193	78.145	0.163	0.176
-676.178	415.695	0.121	-0.260
-675.164	-50.790	0.204	-0.097
-674.149	291.852	-0.148	0.273
-673.135	-71.325	0.308	0.116
-672.120	800.000	-0.038	0.133
-671.105	-200.000	0.008	-0.208
-670.091	800.000	-0.070	0.216
-669.076	-189.116	-0.197	-0.002
-668.062	800.000	-0.110	0.313
-667.047	-200.000	-0.015	-0.522
-666.032	800.000	0.066	-0.194
-665.018	800.000	-0.104	0.307
-664.003	334.822	0.063	0.124
-662.989	800.000	-0.037	0.156
-661.974	358.597	-0.032	0.065
-660.959	-91.305	-0.170	-0.049
-659.945	585.328	-0.009	0.023
-658.930	-104.281	0.413	-0.097
-657.916	-66.468	-0.235	-0.094
-656.901	-44.466	0.276	-0.139
-655.886	45.584	-0.174	-0.162
-654.872	136.518	-0.110	0.144
-653.857	10.298	-0.205	0.157
-652.843	-161.534	-0.370	-0.019
-651.828	-135.894	-0.385	-0.046
-650.814	386.566	0.082	-0.170
-649.799	745.955	-0.141	0.384
-648.784	27.288	0.167	-0.141
-647.770	-135.306	-0.381	0.046
-646.755	77.436	-0.110	0.118
-645.741	413.925	0.128	-0.275
-644.726	-150.666	-0.191	-0.015
-643.711	425.532	-0.034	-0.075
-642.697	52.337	-0.219	0.210
-641.682	-160.072	-0.426	0.023
-640.668	800.000	0.044	-0.186
-639.653	-200.000	0.019	-0.156
-638.638	29.389	-0.108	0.092
-637.624	239.690	-0.101	-0.170
-636.609	-4.546	-0.039	0.027
-635.595	-67.313	-0.173	0.069
-634.580	-132.597	-0.255	-0.033
-633.565	-95.270	-0.155	0.042
-632.551	650.437	0.057	-0.147
-631.536	-130.993	0.148	0.020
-630.522	50.418	0.118	-0.112
-629.507	-200.000	0.021	-0.164
-628.492	-56.160	0.202	0.090
-627.478	35.191	0.062	0.054
-626.463	-62.297	0.173	0.072
-625.449	-55.328	0.070	-0.031
-624.434	-69.258	-0.131	0.051
-623.419	383.273	0.086	0.178
-622.405	-176.022	0.251	0.007
-621.390	-56.429	-0.263	0.118
-620.376	437.322	-0.138	0.303
-619.361	800.000	0.020	0.083
-618.346	571.087	0.099	-0.242
-617.332	800.000	-0.116	0.408
-616.317	137.471	-0.156	0.206
-615.303	46.856	-0.073	-0.069
-614.288	42.262	0.080	-0.073
-613.273	800.000	0.020	0.076
-612.259	-26.066	0.223	-0.132
-611.244	-90.820	0.425	0.123
-610.230	-13.796	0.017	0.011
-609.215	-200.000	0.035	-0.214
-608.201	-28.268	0.176	-0.102
-607.186	122.787	0.198	-0.249
-606.171	-30.250	0.207	0.118
-605.157	800.000	-0.117	-0.415
-604.142	800.000	0.117	-0.341
-603.128	-89.354	0.199	0.059
-602.113	100.492	0.119	0.139
-601.098	-200.000	0.005	-0.036
-600.084	-200.000	-0.021	0.222
-599.069	700.395	0.079	-0.208
-598.055	103.424	0.199	0.235
-597.040	800.000	-0.037	-0.156
-596.025	800.000	-0.077	-0.240
-595.011	-200.000	-0.047	0.312
-593.996	264.059	0.218	0.381
-592.982	212.880	0.162	0.257
-591.967	800.000	0.053	0.203
-590.952	-6.722	-0.297	-0.203
-589.938	96.867	-0.037	-0.043
-588.923	57.353	0.237	0.232
-587.909	-200.000	-0.012	0.125
-586.894	167.438	0.169	-0.242
-585.879	8.181	-0.141	-0.106
-584.865	-90.847	-0.124	-0.036
-583.850	-92.665	-0.184	0.052
-582.836	-163.673	0.396	0.019
-581.821	-200.000	0.003	0.063
-580.806	-111.400	0.185	-0.038
-579.792	234.219	0.104	-0.172
-578.777	-95.325	0.043	-0.012
-577.763	-109.413	0.124	-0.026
-576.748	-36.130	0.171	-0.093
-575.733	-90.758	-0.290	-0.084
-574.719	69.389	-0.303	-0.313
-573.704	-200.000	-0.028	-0.171
-572.690	-200.000	0.020	0.172
-571.675	156.635	-0.118	-0.163
-570.661	117.252	0.117	-0.145
-569.646	-169.401	-0.496	0.018
-568.631	367.654	-0.146	0.295
-567.617	-79.554	0.076	0.026
-566.602	101.213	0.178	0.208
-565.588	-2.831	-0.236	0.166
-564.573	93.605	0.273	-0.311
-563.558	240.097	0.136	-0.228
-562.544	-200.000	-0.041	-0.257
-561.529	-83.269	-0.252	0.081
-560.515	-7.936	0.133	0.090
-559.500	268.009	-0.191	-0.336
-558.485	-8.460	0.231	0.156
-557.471	630.146	-0.106	-0.270
-556.456	-34.470	0.140	0.077
-555.442	-45.282	0.192	-0.096
-554.427	-200.000	0.003	-0.019
-553.412	677.917	0.046	-0.119
-552.398	-49.104	-0.423	-0.203
-551.383	-35.898	-0.190	-0.103
-550.369	-200.000	0.023	-0.282
-549.354	800.000	0.052	0.222
-548.339	56.520	0.179	0.174
-547.325	30.075	-0.043	-0.037
-546.310	-200.000	-0.021	0.112
-545.296	-0.829	-0.104	0.074
-544.281	184.327	0.038	0.056
-543.266	800.000	0.083	0.338
-542.252	-126.061	0.118	-0.018
-541.237	-12.320	0.221	0.145
-540.223	-109.788	0.446	0.094
-539.208	139.241	-0.100	-0.132
-538.193	45.476	-0.308	0.285
-537.179	800.000	0.022	0.073
-536.164	234.512	-0.199	-0.329
-535.150	-122.471	-0.338	0.055
-534.135	800.000	0.021	-0.060
-533.121	-128.474	-0.262	0.037
-532.106	800.000	0.025	-0.075
-531.091	-200.000	0.030	-0.254
-530.077	-85.623	0.160	-0.050
-529.062	-171.351	0.257	0.009
-528.048	-105.390	-0.216	-0.049
-527.033	227.432	0.041	0.067
-526.018	-100.095	-0.286	-0.071
-525.004	109.875	0.084	-0.101
-523.989	800.000	-0.079	-0.261
-522.975	800.000	0.039	-0.116
-521.960	609.805	-0.052	-0.131
-520.945	465.283	-0.067	-0.150
-519.931	441.041	-0.103	-0.226
-518.916	800.000	-0.107	0.299
-517.902	556.679	-0.054	0.130
-516.887	-41.309	-0.325	-0.168
-515.872	177.768	0.026	-0.038
-514.858	800.000	0.048	0.175
-513.843	395.940	-0.106	-0.221
-512.829	49.839	-0.069	0.065
-511.814	-20.466	-0.354	0.218
-510.799	-200.000	-0.050	0.278
-509.785	251.666	-0.082	-0.140
-508.770	-23.706	-0.097	-0.058
-507.756	-80.367	-0.242	0.081
-506.741	155.985	0.209	0.289
-505.726	-170.981	-0.046	-0.002
-504.712	-200.000	0.001	-0.212
-503.697	-200.000	-0.006	-0.365
-502.683	-70.433	-0.318	0.121
-501.668	-200.000	0.034	0.231
-500.653	143.364	0.181	-0.242
-499.639	9.230	-0.086	0.065
-498.624	-116.714	-0.158	0.029
-497.610	800.000	0.066	0.250
-496.595	800.000	-0.057	0.171
-495.581	-63.074	-0.137	-0.057
-494.566	117.731	0.182	-0.225
-493.551	-23.805	0.188	0.113
-492.537	-200.000	0.011	0.138
-491.522	198.683	-0.079	0.121
-490.508	-53.077	0.084	0.039
-489.493	-48.857	0.116	-0.055
-488.478	-200.000	0.030	0.174
-487.464	29.305	0.116	-0.098
-486.449	-75.244	0.253	0.090
-485.435	-122.460	0.339	-0.055
-484.420	-159.757	-0.366	0.020
-483.405	-136.322	0.231	0.027
-482.391	-7.668	0.103	-0.069
-481.376	-35.620	-0.181	-0.098
-480.362	-57.611	-0.377	-0.166
-479.347	-200.000	0.011	-0.291
-478.332	6.469	-0.053	-0.039
-477.318	-134.864	0.064	-0.008
-476.303	47.346	0.088	0.082
-475.289	-55.946	0.307	0.137
-474.274	173.328	0.209	0.301
-473.259	-148.156	-0.595	0.049
-472.245	-200.000	-0.002	0.063
-471.230	-114.167	-0.066	0.013
-470.216	22.369	-0.072	-0.059
-469.201	-31.632	-0.184	-0.103
-468.186	-200.000	0.034	-0.174
-467.172	800.000	-0.062	0.176
-466.157	-44.808	-0.105	0.052
-465.143	-200.000	-0.063	0.356
-464.128	-16.843	0.074	0.047
-463.113	-10.305	0.206	0.136
-462.099	139.661	0.146	0.193
-461.084	185.602	-0.156	0.232
-460.070	96.845	-0.105	0.120
-459.055	49.314	0.149	0.140
-458.040	115.343	0.143	0.175
-457.026	-200.000	-0.040	0.237
-456.011	247.806	-0.136	-0.230
-454.997	-200.000	0.000	0.135
-453.982	-71.243	-0.376	-0.141
-452.968	800.000	0.037	-0.113
-451.953	496.775	0.035	-0.080
-450.938	-97.487	0.258	-0.067
-449.924	-59.125	-0.162	0.070
-448.909	-200.000	0.014	0.104
-447.895	169.342	-0.070	-0.100
-446.880	-134.639	-0.107	-0.013
-445.865	1.209	0.113	0.081
-444.851	544.178	-0.119	-0.284
-443.836	142.586	-0.149	-0.198
-442.822	-5.793	0.172	0.118
-441.807	233.030	-0.013	0.022
-440.792	800.000	0.059	-0.171
-439.778	137.705	-0.123	0.161
-438.763	152.173	-0.061	-0.084
-437.749	133.200	0.098	-0.127
-436.734	-200.000	-0.004	0.239
-435.719	558.380	0.077	-0.186
-434.705	-57.187	-0.436	-0.192
-433.690	184.898	-0.133	0.197
-432.676	-37.507	-0.242	0.129
-431.661	245.673	0.015	-0.025
-430.646	800.000	0.017	-0.063
-429.632	-113.892	0.070	0.014
-428.617	177.341	-0.173	-0.251
-427.603	4.224	-0.013	-0.009
-426.588	525.776	0.157	0.368
-425.573	143.321	-0.048	-0.064
-424.559	24.429	0.407	0.336
-423.544	-109.072	0.249	-0.053
-422.530	-4.603	0.112	0.077
-421.515	383.584	0.150	0.307
-420.500	-26.539	0.112	0.066
-419.486	17.218	-0.235	0.186
-418.471	800.000	-0.084	-0.287
-417.457	141.246	0.135	0.178
-416.442	546.813	0.104	-0.248
-415.428	770.402	0.118	-0.320
-414.413	-32.551	-0.113	0.063
-413.398	-111.001	0.225	0.046
-412.384	199.833	-0.170	0.260
-411.369	-97.180	-0.130	0.034
-410.355	16.306	0.163	0.128
-409.340	-200.000	-0.011	0.407
-408.325	800.000	-0.052	0.223
-407.311	694.678	0.022	0.057
-406.296	-96.166	0.160	0.042
-405.282	13.830	-0.183	0.142
-404.267	-200.000	0.053	0.324
-403.252	546.768	-0.077	-0.183
-402.238	-97.177	-0.444	-0.116
-401.223	800.000	0.154	-0.436
-400.209	122.690	-0.036	-0.045
-399.194	-89.960	-0.291	-0.085
-398.179	-116.872	0.188	-0.034
-397.165	324.138	-0.223	-0.424
-396.150	-92.337	-0.448	0.126
-395.136	-109.953	0.122	-0.025
-394.121	-112.553	0.093	0.018
-393.106	-100.459	-0.188	0.046
-392.092	-57.144	-0.141	0.062
-391.077	-200.000	0.033	0.233
-390.063	-92.075	0.202	0.057
-389.048	-94.112	-0.158	-0.043
-388.033	-154.617	-0.207	-0.014
-387.019	-200.000	0.044	-0.322
-386.004	405.289	0.118	-0.247
-384.990	-72.830	0.060	-0.022
-383.975	101.851	0.042	0.049
-382.960	429.616	-0.093	-0.200
-381.946	-6.105	-0.290	-0.198
-380.931	800.000	0.035	-0.131
-379.917	-2.870	-0.160	-0.111
-378.902	-177.113	0.185	-0.005
-377.888	1.289	-0.198	0.142
-376.873	251.337	-0.091	0.155
-375.858	184.132	0.061	0.090
-374.844	-65.733	-0.084	0.033
-373.829	-78.992	-0.090	0.031
-372.815	780.303	-0.016	-0.043
-371.800	110.696	-0.165	0.198
-370.785	-126.482	0.189	-0.028
-369.771	-89.725	-0.069	-0.020
-368.756	-68.658	0.109	0.042
-367.742	-15.886	-0.035	-0.022
-366.727	-105.571	-0.149	0.034
-365.712	-165.735	-0.177	0.008
-364.698	-200.000	0.037	0.395
-363.683	-138.629	-0.096	0.010
-362.669	-146.855	-0.158	0.014
-361.654	47.506	0.169	0.157
-360.639	37.771	0.314	-0.277
-359.625	-21.896	0.028	-0.017
-358.610	166.285	0.110	0.155
-357.596	117.658	0.200	-0.245
-356.581	-200.000	-0.047	-0.287
-355.566	3.131	0.118	-0.086
-354.552	-120.277	-0.239	-0.041
-353.537	-200.000	0.046	-0.223
-352.523	-95.840	-0.096	0.025
-351.508	-163.412	0.425	-0.020
-350.493	462.997	0.085	-0.188
-349.479	70.436	-0.157	-0.162
-348.464	781.020	0.090	0.247
-347.450	-200.000	0.019	-0.111
-346.435	-105.550	0.064	-0.014
-345.420	-146.452	0.367	0.032
-344.406	65.841	0.142	-0.143
-343.391	-44.054	-0.321	0.160
-342.377	800.000	-0.023	0.088
-341.362	712.149	0.028	0.073
-340.348	1.614	0.391	-0.280
-339.333	-200.000	-0.002	-0.118
-338.318	-162.726	0.225	-0.011
-337.304	171.183	-0.240	0.342
-336.289	800.000	0.062	0.246
-335.275	85.009	-0.132	0.144
-334.260	222.907	0.091	-0.146
-333.245	-47.653	0.207	-0.100
-332.231	-138.343	-0.080	-0.009
-331.216	-15.344	0.150	-0.095
-330.202	-157.358	0.388	-0.023
-329.187	800.000	-0.057	-0.196
-328.172	-19.280	-0.264	0.163
-327.158	-200.000	-0.001	-0.086
-326.143	62.383	0.138	0.137
-325.129	274.032	0.126	-0.221
-324.114	-46.905	0.098	0.048
-323.099	-200.000	-0.025	0.442
-322.085	133.262	-0.310	0.399
-321.070	-47.580	0.131	-0.063
-320.056	800.000	0.065	-0.186
-319.041	-169.131	0.111	-0.004
-318.026	-174.318	-0.139	-0.004
-317.012	-84.445	0.101	0.032
-315.997	68.540	-0.070	-0.071
-314.983	-53.044	0.452	-0.207
-313.968	800.000	-0.042	-0.136
-312.953	40.676	-0.067	-0.060
-311.939	-200.000	0.006	-0.289
-310.924	800.000	-0.055	-0.163
-309.910	143.254	0.090	0.120
-308.895	800.000	-0.092	0.308
-307.880	54.633	0.108	0.104
-306.866	-22.179	-0.216	-0.130
-305.851	43.086	-0.258	-0.234
-304.837	-192.895	-0.126	-0.001
-303.822	182.623	0.133	-0.195
-302.807	-33.258	0.117	0.065
-301.793	-200.000	-0.067	-0.309
-300.778	220.066	0.065	-0.103
-299.764	-100.540	0.105	0.026
-298.749	-99.933	-0.351	0.087
-297.735	0.898	-0.154	0.109
-296.720	393.092	0.112	0.232
-295.705	361.512	-0.064	-0.128
-294.691	-46.214	-0.136	-0.067
-293.676	49.387	0.155	-0.145
-292.662	32.409	0.138	0.118
-291.647	-55.850	0.179	0.080
-290.632	239.863	-0.084	-0.139
-289.618	32.486	0.262	-0.225
-288.603	800.000	-0.037	0.104
-287.589	309.186	-0.095	0.177
-286.574	-61.087	-0.242	-0.102
-285.559	560.286	0.156	-0.374
-284.545	-200.000	0.015	-0.171
-283.530	766.191	-0.064	0.172
-282.516	800.000	0.024	-0.068
-281.501	147.402	0.208	-0.278
-280.486	-200.000	-0.019	-0.240
-279.472	-85.188	0.256	-0.080
-278.457	-167.507	-0.275	0.011
-277.443	-59.224	-0.317	0.136
-276.428	139.077	0.052	-0.068
-275.413	-74.410	0.221	0.079
-274.399	231.259	-0.165	0.269
-273.384	7.368	-0.161	0.119
-272.370	466.350	0.096	-0.214
-271.355	213.271	0.262	0.411
-270.340	-149.492	0.448	0.035
-269.326	660.557	-0.030	-0.075
-268.311	-165.841	-0.208	-0.009
-267.297	-200.000	0.056	-0.282
-266.282	-52.603	0.169	0.077
-265.267	-150.069	-0.227	0.018
-264.253	94.654	-0.178	0.201
-263.238	-66.592	-0.287	-0.113
-262.224	129.919	0.172	0.218
-261.209	-123.972	0.083	0.013
-260.195	-24.555	0.105	0.062
-259.180	800.000	0.050	-0.213
-258.165	-32.371	0.159	0.088
-257.151	-200.000	-0.007	-0.252
-256.136	-154.192	-0.235	0.016
-255.122	800.000	-0.137	0.446
-254.107	102.154	-0.089	-0.103
-253.092	-52.746	0.321	0.147
-252.078	-137.052	0.244	0.028
-251.063	51.408	-0.235	0.221
-250.049	46.189	-0.114	0.105
-249.034	-99.568	-0.085	-0.021
-248.019	-61.838	0.234	0.097
-247.005	-200.000	0.012	-0.052
-245.990	-200.000	-0.018	-0.283
-244.976	215.008	0.129	-0.202
-243.961	-200.000	0.071	-0.326
-242.946	20.458	0.170	0.136
-241.932	-66.912	0.254	0.100
-240.917	66.868	-0.224	0.226
-239.903	-10.462	0.286	0.188
-238.888	16.559	-0.305	-0.239
-237.873	-125.659	0.116	0.017
-236.859	365.464	-0.074	-0.147
-235.844	-73.186	0.145	-0.053
-234.830	129.921	-0.167	0.212
-233.815	800.000	0.031	-0.127
-232.800	68.580	-0.182	0.185
-231.786	347.677	-0.273	0.533
-230.771	274.564	0.037	-0.064
-229.757	-200.000	-0.014	-0.370
-228.742	-166.087	-0.321	0.014
-227.727	-141.449	0.383	-0.038
-226.713	-38.644	0.137	0.072
-225.698	785.181	0.056	0.153
-224.684	178.375	-0.102	-0.147
-223.669	83.956	-0.100	-0.108
-222.655	800.000	-0.010	0.040
-221.640	91.409	-0.134	0.149
-220.625	-200.000	-0.012	0.060
-219.611	-200.000	0.017	0.148
-218.596	363.301	-0.083	0.165
-217.582	-22.421	-0.268	-0.161
-216.567	-200.000	-0.024	-0.114
-215.552	-22.497	-0.378	-0.226
-214.538	-6.526	0.118	-0.079
-213.523	-110.363	-0.208	0.043
-212.509	62.473	0.169	0.168
-211.494	5.798	-0.080	-0.059
-210.479	-49.533	0.161	0.076
-209.465	130.504	-0.074	0.094
-208.450	-76.472	0.241	-0.084
-207.436	540.941	0.104	-0.246
-206.421	-0.076	0.153	-0.108
-205.406	69.042	0.088	-0.089
-204.392	6.591	0.125	-0.092
-203.377	273.559	-0.121	-0.211
-202.363	-200.000	0.030	0.168
-201.348	-123.697	0.487	-0.076
-200.333	800.000	-0.023	0.074
-199.319	447.013	-0.016	0.035
-198.304	34.762	0.133	0.115
-197.290	458.863	0.035	-0.076
-196.275	-94.073	0.056	-0.015
-195.260	214.392	-0.100	0.157
-194.246	-37.963	0.368	-0.193
-193.231	-117.701	-0.079	0.014
-192.217	-98.070	0.144	-0.037
-191.202	-86.599	0.211	0.064
-190.187	-6.204	0.201	0.136
-189.173	-200.000	0.004	-0.042
-188.158	136.741	0.115	0.148
-187.144	-69.628	0.131	0.050
-186.129	628.054	0.061	-0.153
-185.114	-200.000	-0.065	0.307
-184.100	-135.944	0.187	0.022
-183.085	-74.893	0.161	0.057
-182.071	126.766	-0.164	-0.205
-181.056	-200.000	0.041	-0.399
-180.042	-200.000	-0.044	-0.266
-179.027	-100.109	0.129	0.032
-178.012	86.020	-0.242	0.264
-176.998	255.648	0.197	-0.334
-175.983	800.000	-0.025	0.096
-174.969	-137.846	-0.167	0.018
-173.954	-6.437	-0.247	-0.167
-172.939	-124.880	0.266	-0.041
-171.925	-200.000	0.004	0.118
-170.910	42.769	-0.229	0.206
-169.896	88.125	-0.154	0.169
-168.881	152.164	-0.181	-0.245
-167.866	713.229	0.106	0.277
-166.852	-168.898	0.266	0.010
-165.837	-200.000	0.017	-0.130
-164.823	-200.000	0.016	0.399
-163.808	278.162	-0.127	-0.223
-162.793	800.000	0.038	0.108
-161.779	73.620	0.201	0.208
-160.764	18.981	-0.183	0.145
-159.750	188.453	0.070	-0.104
-158.735	-40.192	-0.225	0.116
-157.720	426.114	-0.108	0.231
-156.706	800.000	-0.036	0.102
-155.691	-65.521	-0.195	0.077
-154.677	-99.226	0.082	-0.021
-153.662	-29.315	0.273	-0.154
-152.647	687.161	0.081	-0.209
-151.633	369.175	0.111	0.222
-150.618	-200.000	-0.002	0.263
-149.604	-25.579	0.080	-0.047
-148.589	94.803	-0.190	-0.213
-147.574	-156.349	-0.156	0.010
-146.560	-131.450	-0.236	-0.031
-145.545	-200.000	0.020	0.121
-144.531	-135.553	0.088	0.010
-143.516	171.578	-0.048	0.068
-142.502	77.464	0.204	0.215
-141.487	466.043	-0.059	-0.131
-140.472	-4.967	0.302	-0.205
-139.458	297.778	-0.164	-0.298
-138.443	197.612	-0.118	0.178
-137.429	118.380	-0.275	0.335
-136.414	-114.506	0.300	0.057
-135.399	52.676	0.024	0.023
-134.385	-106.693	0.429	-0.094
-133.370	422.851	0.126	0.268
-132.356	196.743	-0.089	0.134
-131.341	800.000	0.149	-0.642
-130.326	-63.907	-0.289	0.117
-129.312	70.571	0.167	-0.171
-128.297	-200.000	0.029	-0.283
-127.283	12.302	0.151	-0.115
-126.268	-166.660	-0.477	-0.020
-125.253	-200.000	-0.062	0.000
-124.239	184.243	0.056	0.082
-123.224	100.768	-0.174	-0.200
-122.210	-114.689	0.339	0.064
-121.195	-41.791	-0.239	-0.121
-120.180	-200.000	-0.008	-0.177
-119.166	-77.851	-0.278	0.095
-118.151	49.964	-0.208	-0.194
-117.137	78.134	-0.057	-0.060
-116.122	-177.004	-0.201	-0.005
-115.107	-94.890	0.081	-0.022
-114.093	115.090	0.152	0.183
-113.078	-173.884	-0.377	-0.011
-112.064	-42.431	-0.072	0.036
-111.049	96.406	0.057	-0.065
-110.034	22.868	-0.179	0.144
-109.020	800.000	0.081	0.231
-108.005	63.637	-0.066	0.066
-106.991	52.389	-0.105	0.099
-105.976	-87.787	0.300	0.089
-104.962	366.312	-0.178	-0.355
-103.947	-22.076	0.073	0.043
-102.932	141.445	0.073	0.095
-101.918	215.044	-0.031	-0.048
-100.903	-77.375	-0.499	-0.171
-99.889	32.049	0.021	-0.018
-98.874	-200.000	-0.011	0.441
-97.859	497.344	0.048	-0.108
-96.845	121.354	-0.045	-0.055
-95.830	-180.314	-0.240	0.005
-94.816	-87.517	0.396	-0.118
-93.801	198.220	0.236	-0.356
-92.786	-32.419	0.182	-0.100
-91.772	800.000	0.070	0.247
-90.757	259.869	0.051	-0.086
-89.743	314.425	0.039	0.073
-88.728	-66.672	0.326	0.127
-87.713	70.827	-0.210	-0.214
-86.699	-43.600	-0.279	-0.139
-85.684	-127.078	0.207	0.030
-84.670	228.270	-0.231	0.370
-83.655	96.265	-0.096	0.108
-82.640	-68.497	-0.147	0.056
-81.626	-70.301	0.224	-0.084
-80.611	800.000	0.086	0.284
-79.597	258.110	0.131	0.223
-78.582	120.211	-0.282	-0.344
-77.567	233.715	-0.118	0.192
-76.553	-26.977	0.266	0.153
-75.538	665.991	0.148	-0.376
-74.524	-200.000	-0.010	0.082
-73.509	96.616	0.067	0.076
-72.494	-200.000	0.004	-0.081
-71.480	-19.028	0.090	-0.055
-70.465	-23.406	-0.041	-0.024
-69.451	800.000	-0.115	0.394
-68.436	267.933	0.200	-0.346
-67.422	334.919	0.089	0.170
-66.407	172.176	-0.204	-0.289
-65.392	-159.940	0.370	0.020
-64.378	21.029	-0.123	0.098
-63.363	-5.199	0.169	-0.114
-62.349	-166.310	0.426	-0.018
-61.334	300.144	-0.538	-0.976
-60.319	276.777	0.315	0.551
-59.305	139.005	-0.579	-0.750
-58.290	120.783	0.677	0.829
-57.276	387.107	0.638	1.297
-56.261	-200.000	95.430	592.748
-55.246	659.738	1366.979	3463.401
-54.232	200.335	2540.088	3840.911
-53.217	120.724	2138.845	2616.687
-52.203	44.190	1602.580	1446.832
-51.188	35.595	1341.339	1159.353
-50.173	32.471	1299.872	1105.160
-49.159	54.458	1346.114	1276.184
-48.144	56.530	1362.871	1304.376
-47.130	35.822	1321.946	1143.760
-46.115	32.328	1304.984	1108.488
-45.100	32.103	1299.824	1102.737
-44.086	32.025	1297.573	1100.328
-43.071	32.064	1294.819	1098.177
-42.057	31.982	1292.385	1095.590
-41.042	32.065	1290.887	1094.764
-40.027	32.030	1290.119	1093.865
-39.013	32.104	1287.571	1092.090
-37.998	32.084	1285.784	1090.412
-36.984	32.051	1284.540	1089.123
-35.969	32.135	1282.213	1087.595
-34.954	32.031	1281.174	1086.069
-33.940	32.152	1279.691	1085.466
-32.925	32.199	1278.273	1084.495
-31.911	32.198	1276.499	1082.939
-30.896	32.209	1275.215	1081.869
-29.881	32.304	1273.793	1081.165
-28.867	32.237	1272.384	1079.542
-27.852	32.245	1271.297	1078.627
-26.838	32.273	1269.127	1076.899
-25.823	32.236	1267.986	1075.679
-24.809	32.199	1267.030	1074.610
-23.794	32.164	1265.536	1073.103
-22.779	32.142	1264.616	1072.157
-21.765	32.228	1263.158	1071.369
-20.750	32.128	1262.263	1069.995
-19.736	32.181	1260.402	1068.679
-18.721	31.997	1260.101	1067.332
-17.706	32.233	1257.748	1066.639
-16.692	32.184	1256.670	1065.403
-15.677	32.064	1255.765	1063.912
-14.663	32.040	1254.851	1062.960
-13.648	32.108	1253.453	1062.119
-12.633	32.003	1252.463	1060.647
-11.619	31.970	1252.220	1060.212
-10.604	32.005	1251.432	1059.697
-9.590	32.168	1249.693	1059.101
-8.575	32.027	1248.801	1057.510
-7.560	32.143	1247.869	1057.334
-6.546	32.019	1247.499	1056.278
-5.531	32.029	1246.696	1055.613
-4.517	32.149	1245.377	1055.130
-3.502	32.191	1244.381	1054.479
-2.487	32.071	1243.915	1053.368
-1.473	32.085	1239.607	1049.759
-0.458	30.575	1225.007	1029.002
0.556	25.925	1207.501	991.437
1.571	22.379	1212.939	976.185
2.586	21.427	1227.241	982.264
3.600	20.825	1216.593	970.301
4.615	15.947	1145.164	887.610
5.629	8.028	1072.351	791.879
6.644	4.706	1052.911	761.221
7.659	4.535	1050.261	758.403
8.673	4.614	1049.245	757.985
9.688	4.436	1047.910	756.088
10.702	4.724	1045.742	755.855
11.717	8.968	1051.790	780.858
12.731	16.045	1062.235	823.228
13.746	18.849	1064.573	838.671
14.761	18.069	1063.140	833.666
15.775	17.007	1061.193	826.889
16.790	16.026	1059.110	820.422
17.804	15.267	1057.338	815.284
18.819	14.851	1056.379	812.452
19.834	14.690	1055.282	810.756
20.848	14.421	1054.865	809.057
21.863	14.235	1053.488	807.030
22.877	14.077	1052.938	805.769
23.892	14.023	1052.497	805.097
24.907	14.141	1051.327	804.706
25.921	14.160	1050.535	804.119
26.936	14.140	1049.147	802.889
27.950	14.198	1047.677	801.972
28.965	14.301	1046.327	801.363
29.980	14.376	1044.451	800.215
30.994	14.394	1043.796	799.730
32.009	14.452	1042.598	799.019
33.023	14.284	1041.819	797.548
34.038	14.255	1041.159	796.834
35.053	14.180	1040.080	795.577
36.067	14.082	1039.241	794.398
37.082	14.270	1038.269	794.479
38.096	14.337	1037.407	794.072
39.111	14.351	1036.737	793.555
40.126	14.324	1035.264	792.229
41.140	14.079	1034.133	790.130
42.155	13.960	1033.054	788.670
43.169	13.976	1031.973	787.850
44.184	14.044	1030.649	787.092
45.199	14.002	1029.786	786.164
46.213	14.168	1028.512	785.907
47.228	14.145	1027.649	785.067
48.242	14.235	1026.882	784.835
49.257	14.075	1026.301	783.569
50.271	14.259	1025.097	783.450
51.286	14.134	1024.518	782.347
52.301	14.187	1023.367	781.649
53.315	14.203	1022.120	780.700
54.330	14.032	1021.399	779.279
55.344	14.115	1020.209	778.695
56.359	14.113	1019.994	778.450
57.374	14.054	1018.595	777.037
58.388	14.034	1017.625	776.135
59.403	13.922	1017.473	775.427
60.417	13.879	1016.744	774.603
61.432	13.980	1015.491	774.049
62.447	14.058	1014.513	773.601
63.461	13.845	1013.807	772.001
64.476	13.872	1012.683	771.205
65.490	13.907	1011.938	770.730
66.505	13.914	1011.048	770.018
67.520	13.867	1010.989	769.687
68.534	14.025	1009.964	769.570
69.549	13.856	1009.099	768.061
70.563	13.969	1008.475	768.040
71.578	13.850	1007.663	766.803
72.593	13.803	1007.203	766.171
73.607	13.727	1006.171	764.964
74.622	13.844	1005.620	765.017
75.636	13.834	1004.980	764.418
76.651	13.827	1004.664	764.077
77.666	13.866	1003.452	763.267
78.680	13.913	1002.986	763.061
79.695	13.849	1002.553	762.371
80.709	13.912	1001.890	762.087
81.724	13.971	1001.266	761.817
82.739	13.939	1001.008	761.406
83.753	14.198	1000.037	761.785
84.768	14.485	998.486	761.849
85.782	14.402	998.244	761.216
86.797	14.409	997.103	760.312
87.812	14.206	996.619	758.951
88.826	14.085	995.562	757.525
89.841	14.222	994.945	757.612
90.855	14.233	993.631	756.596
91.870	14.233	993.201	756.203
92.884	14.320	991.960	755.583
93.899	14.332	990.927	754.787
94.914	14.478	990.417	754.994
95.928	14.511	989.427	754.318
96.943	14.350	988.451	752.782
97.957	14.289	987.781	751.930
98.972	14.321	986.861	751.308
99.987	14.259	986.488	750.678
101.001	14.440	984.742	750.094
102.016	14.295	983.998	748.812
103.030	14.399	983.681	748.970
104.045	14.274	983.132	747.927
105.060	14.323	981.813	747.076
106.074	14.063	981.070	745.276
107.089	14.103	979.783	744.413
108.103	14.061	979.011	743.573
109.118	14.050	977.566	742.362
110.133	13.924	977.596	741.755
111.147	13.984	976.631	741.227
112.162	14.051	975.115	740.309
113.176	13.955	975.046	739.763
114.191	14.212	974.014	740.058
115.206	14.090	973.456	739.027
116.220	14.106	972.373	738.207
117.235	14.039	971.798	737.409
118.249	14.130	970.943	737.097
119.264	13.957	970.168	735.678
120.279	14.067	969.243	735.401
121.293	14.060	968.530	734.761
122.308	14.149	967.840	734.567
123.322	13.968	966.827	732.936
124.337	13.942	966.054	732.167
125.352	13.937	964.932	731.232
126.366	14.128	963.316	730.780
127.381	14.005	962.818	729.799
128.395	14.071	961.716	729.189
129.410	14.151	960.899	728.854
130.424	14.064	960.174	727.861
131.439	14.185	959.578	727.871
132.454	14.167	958.854	727.183
133.468	14.109	958.187	726.356
134.483	14.216	957.155	725.980
135.497	14.157	956.259	724.978
136.512	14.202	955.336	724.410
137.527	14.226	954.779	724.028
138.541	14.181	954.008	723.182
139.556	14.193	953.588	722.852
140.570	14.444	952.607	723.133
141.585	14.382	952.438	722.673
142.600	14.360	951.629	721.901
143.614	14.505	950.409	721.539
144.629	14.472	949.595	720.715
145.643	14.499	948.627	720.031
146.658	14.372	947.478	718.546
147.673	14.289	946.727	717.558
148.687	14.183	946.055	716.527
149.702	14.194	945.183	715.852
150.716	14.183	944.289	715.065
151.731	14.249	943.399	714.610
152.746	14.258	942.936	714.237
153.760	14.181	942.685	713.651
154.775	14.355	941.748	713.625
155.789	14.444	941.037	713.402
156.804	14.489	940.203	712.900
157.819	14.438	939.587	712.153
158.833	14.498	939.377	712.188
159.848	14.684	938.286	712.089
160.862	14.553	937.354	710.762
161.877	14.454	936.414	709.566
162.892	14.360	935.325	708.276
163.906	14.222	934.693	707.150
164.921	14.171	933.947	706.306
165.935	14.377	932.911	706.332
166.950	14.427	931.677	705.547
167.964	14.407	931.398	705.187
168.979	14.427	930.127	704.250
169.994	14.432	929.096	703.426
171.008	14.385	928.924	703.036
172.023	14.585	928.295	703.340
173.037	14.602	927.321	702.613
174.052	14.573	926.454	701.774
175.067	14.513	925.736	700.914
176.081	14.391	925.209	699.941
177.096	14.410	924.862	699.695
178.110	14.493	923.778	699.163
179.125	14.425	923.609	698.687
180.140	14.507	923.249	698.696
181.154	14.624	922.533	698.582
182.169	14.734	921.982	698.563
183.183	14.712	921.353	697.932
184.198	14.715	921.122	697.710
185.213	14.680	919.862	696.545
186.227	14.654	919.421	696.042
187.242	14.941	918.699	696.630
188.256	14.787	918.453	695.739
189.271	14.812	917.011	694.692
190.286	14.667	916.229	693.434
191.300	14.520	915.711	692.370
192.315	14.189	915.616	690.864
193.329	14.415	914.669	691.026
194.344	14.567	914.302	691.319
195.359	14.693	913.277	691.000
196.373	14.602	913.122	690.447
197.388	14.723	912.786	690.633
198.402	14.874	912.213	690.762
199.417	14.937	911.632	690.521
200.432	15.007	910.816	690.132
201.446	15.104	910.426	690.172
202.461	14.948	910.478	689.510
203.475	14.980	909.374	688.742
204.490	14.925	908.780	688.008
205.504	14.902	908.088	687.326
206.519	14.806	907.232	686.224
207.534	15.024	906.293	686.346
208.548	14.898	905.813	685.406
209.563	14.989	905.157	685.221
210.577	14.883	904.643	684.338
211.592	15.125	903.750	684.591
212.607	15.177	903.064	684.224
213.621	15.067	902.462	683.257
214.636	15.119	901.435	682.633
215.650	15.227	900.670	682.432
216.665	15.125	900.494	681.825
217.680	15.342	899.568	681.946
218.694	15.257	898.886	681.022
219.709	15.287	898.221	680.582
220.723	15.186	897.833	679.813
221.738	15.121	896.867	678.759
222.753	15.158	896.497	678.571
223.767	15.204	896.311	678.557
224.782	15.302	895.562	678.323
225.796	15.368	894.828	677.975
226.811	15.127	894.503	676.698
227.826	15.165	893.426	675.976
228.840	15.187	893.205	675.837
229.855	15.264	891.864	675.072
230.869	15.166	891.387	674.257
231.884	15.246	890.341	673.730
232.899	15.097	889.785	672.649
233.913	15.242	888.853	672.466
234.928	15.156	888.289	671.637
235.942	15.148	887.661	671.070
236.957	15.164	887.300	670.802
237.972	15.138	886.844	670.292
238.986	15.153	886.061	669.704
240.001	15.278	885.466	669.693
241.015	15.279	884.936	669.237
242.030	15.171	884.496	668.412
243.045	15.341	883.494	668.275
244.059	15.297	883.454	668.010
245.074	15.373	882.506	667.536
246.088	15.331	881.932	666.874
247.103	15.411	881.418	666.746
248.117	15.449	881.144	666.630
249.132	15.614	880.364	666.637
250.147	15.754	879.405	666.407
251.161	15.778	878.947	666.097
252.176	15.677	878.387	665.213
253.190	15.805	877.562	665.035
254.205	15.892	877.007	664.899
255.220	15.860	876.608	664.409
256.234	15.887	875.676	663.751
257.249	15.765	875.409	663.010
258.263	15.908	874.484	662.812
259.278	15.946	873.714	662.321
260.293	16.006	872.720	661.745
261.307	15.999	872.861	661.767
262.322	16.108	871.738	661.285
263.336	16.128	870.812	660.599
264.351	16.038	870.626	660.049
265.366	16.023	870.179	659.594
266.380	16.067	869.266	659.016
267.395	15.937	868.831	658.120
268.409	15.933	867.727	657.209
269.424	16.036	867.115	657.089
270.439	15.942	866.525	656.216
271.453	15.940	866.001	655.754
272.468	15.975	865.520	655.469
273.482	16.036	864.936	655.206
274.497	16.058	864.118	654.613
275.512	16.096	863.388	654.147
276.526	15.951	863.007	653.241
277.541	15.982	862.901	653.221
278.555	16.105	862.310	653.193
279.570	16.344	861.624	653.540
280.585	16.294	860.609	652.519
281.599	16.184	859.951	651.537
282.614	16.199	859.139	650.925
283.628	15.990	858.720	649.744
284.643	16.136	857.981	649.687
285.657	16.248	857.405	649.627
286.672	16.235	856.822	649.075
287.687	16.223	856.371	648.632
288.701	16.095	856.061	647.849
289.716	16.309	854.934	647.757
290.730	16.164	854.800	647.042
291.745	16.183	854.094	646.525
292.760	16.094	853.887	645.968
293.774	16.289	853.110	646.071
294.789	16.343	852.336	645.632
295.803	16.290	851.766	644.942
296.818	16.313	850.767	644.218
297.833	16.336	850.457	644.013
298.847	16.337	849.606	643.317
299.862	16.392	848.630	642.730
300.876	16.474	848.433	642.833
301.891	16.525	848.274	642.850
302.906	16.499	847.342	641.989
303.920	16.620	847.242	642.317
304.935	16.667	846.569	641.925
305.949	16.587	846.026	641.155
306.964	16.637	845.095	640.583
307.979	16.575	844.735	640.020
308.993	16.777	843.951	640.133
310.008	16.670	843.454	639.295
311.022	16.587	842.988	638.569
312.037	16.465	842.297	637.532
313.052	16.465	841.983	637.237
314.066	16.492	841.160	636.658
315.081	16.483	840.739	636.251
316.095	16.557	839.762	635.731
317.110	16.494	839.374	635.147
318.125	16.600	838.931	635.152
319.139	16.609	838.553	634.845
320.154	16.540	838.035	634.136
321.168	16.603	837.561	633.959
322.183	16.632	836.968	633.560
323.197	16.701	836.480	633.394
324.212	16.732	835.990	633.082
325.227	16.593	835.497	632.132
326.241	16.648	834.844	631.790
327.256	16.675	833.812	631.052
328.270	16.686	833.167	630.551
329.285	16.654	833.132	630.349
330.300	16.636	832.588	629.814
331.314	16.565	832.417	629.365
332.329	16.744	831.662	629.405
333.343	16.775	831.245	629.147
334.358	16.648	831.244	628.621
335.373	16.827	830.551	628.705
336.387	16.900	830.306	628.732
337.402	16.788	830.105	628.111
338.416	16.904	829.750	628.217
339.431	17.100	829.159	628.440
340.446	17.125	828.628	628.072
341.460	17.048	828.431	627.585
342.475	17.107	827.831	627.292
343.489	16.991	827.698	626.708
344.504	17.098	826.925	626.461
345.519	17.229	826.632	626.668
346.533	17.261	825.896	626.169
347.548	17.214	825.293	625.486
348.562	16.901	825.220	624.224
349.577	16.957	824.023	623.468
350.592	17.045	823.347	623.226
351.606	17.150	822.542	622.944
352.621	17.108	821.748	622.134
353.635	17.098	821.625	621.949
354.650	17.041	821.097	621.289
355.665	17.041	820.466	620.754
356.679	17.097	819.980	620.538
357.694	17.169	819.000	620.004
358.708	17.298	818.851	620.307
359.723	17.156	818.233	619.265
360.738	17.251	817.743	619.184
361.752	17.216	816.894	618.361
362.767	17.377	816.689	618.735
363.781	17.452	815.867	618.331
364.796	17.561	815.485	618.384
365.810	17.540	815.274	618.093
366.825	17.575	815.284	618.173
367.840	17.514	814.718	617.466
368.854	17.568	814.069	617.114
369.869	17.404	813.471	616.012
370.883	17.585	812.815	616.117
371.898	17.472	812.658	615.535
372.913	17.595	812.492	615.800
373.927	17.531	811.837	615.017
374.942	17.372	811.682	614.272
375.956	17.524	811.385	614.540
376.971	17.753	810.426	614.586
377.986	17.785	809.958	614.292
379.000	17.733	809.787	613.920
380.015	17.739	809.167	613.418
381.029	17.684	808.383	612.571
382.044	17.703	808.087	612.360
383.059	17.790	807.247	611.982
384.073	17.847	806.362	611.460
385.088	17.646	806.178	610.547
386.102	17.619	805.563	609.930
387.117	17.626	804.953	609.441
388.132	17.752	804.320	609.360
389.146	17.722	803.953	608.921
390.161	17.806	803.821	609.063
391.175	17.855	803.114	608.652
392.190	17.788	802.636	607.994
393.205	17.811	802.069	607.593
394.219	17.766	801.896	607.250
395.234	17.738	801.452	606.758
396.248	17.724	800.707	606.092
397.263	17.520	800.634	605.258
398.278	17.690	800.095	605.401
399.292	17.517	799.723	604.451
400.307	17.628	799.107	604.326
401.321	17.765	798.702	604.451
402.336	17.710	798.185	603.811
403.350	17.741	797.964	603.703
404.365	17.886	797.307	603.665
405.380	17.851	796.887	603.170
406.394	18.014	796.366	603.296
407.409	18.057	795.956	603.085
408.423	18.016	796.168	603.045
409.438	18.082	795.871	603.001
410.453	18.178	795.288	602.845
411.467	18.108	794.454	601.913
412.482	18.266	794.066	602.120
413.496	18.355	793.937	602.283
414.511	18.319	793.382	601.683
415.526	18.255	793.268	601.316
416.540	18.265	792.557	600.760
417.555	18.243	792.186	600.351
418.569	18.270	791.758	600.065
419.584	18.354	791.190	599.878
420.599	18.325	790.954	599.545
421.613	156.112	1370.218	1793.680
422.628	135.061	1454.580	1793.764
