DTS Sentinel unit serial number:	SN413079Multiplexer serial number:	ORYXHardware model number:	OX4-SRSoftware version number:	ORYX F/W v4.00 Oryx Data Collector v3.7.2.0data status	okinstallation	princeton_trtdifferential loss correction	single-endedforward channel	channel 1reverse channel	N/Adate	2019/09/13time	17:10:35forward acquisition time	60.00reverse acquisition time	0.00gamma	496.2192k internal	0.2296k external	0.2296temperature offset calibration	1.0137default loss term (dB/km)	0.3790temperature slope calibration	1.0000multiplexer offset coefficient	1.0000multiplexer slope coefficient	1.0000fibre end	0.00T internal ref (°C)	35.39T ext. ref 1 (°C)	4.80T ext. ref 2 (°C)	34.12length (m)	temperature (°C)	Stokes	anti-Stokes-747.200	223.546	0.066	0.109
-746.185	80.338	-0.039	0.043
-745.171	92.346	-0.155	-0.179
-744.156	-200.000	0.028	0.318
-743.142	222.810	-0.185	-0.304
-742.127	-101.787	0.196	0.048
-741.112	313.507	0.048	0.093
-740.098	800.000	-0.052	0.188
-739.083	6.859	-0.121	0.092
-738.069	-40.877	0.198	-0.105
-737.054	-10.451	0.085	-0.057
-736.039	-85.420	-0.100	0.032
-735.025	800.000	-0.118	0.352
-734.010	43.557	0.220	0.206
-732.996	-92.154	-0.282	-0.081
-731.981	-13.766	-0.149	0.099
-730.966	800.000	0.121	-0.411
-729.952	-200.000	-0.035	-0.286
-728.937	-200.000	0.005	0.195
-727.923	55.536	0.108	-0.107
-726.908	-200.000	-0.018	0.092
-725.894	644.722	-0.121	-0.315
-724.879	-126.217	-0.223	0.034
-723.864	-200.000	0.022	-0.265
-722.850	800.000	-0.114	0.380
-721.835	-163.083	-0.140	-0.007
-720.821	-109.116	-0.296	-0.064
-719.806	103.209	-0.088	0.105
-718.791	466.796	-0.185	-0.423
-717.777	-84.055	-0.272	0.088
-716.762	-82.062	0.224	-0.075
-715.748	-113.354	0.243	-0.049
-714.733	364.198	0.030	-0.062
-713.718	-14.711	0.178	-0.117
-712.704	-62.545	0.160	0.068
-711.689	-64.846	-0.066	0.027
-710.675	-161.098	-0.312	0.017
-709.660	-34.280	0.126	0.070
-708.645	11.288	-0.177	-0.138
-707.631	-84.723	0.051	0.016
-706.616	800.000	0.061	0.208
-705.602	-200.000	-0.012	-0.084
-704.587	-37.548	-0.210	-0.114
-703.572	-108.649	-0.057	-0.013
-702.558	6.071	-0.224	0.169
-701.543	-164.256	0.489	-0.023
-700.529	369.173	-0.099	-0.205
-699.514	-44.854	-0.204	0.104
-698.499	381.205	0.051	-0.106
-697.485	-103.451	-0.047	0.011
-696.470	252.677	0.163	-0.284
-695.456	168.995	-0.307	-0.446
-694.441	83.031	0.197	-0.218
-693.426	-200.000	0.020	0.157
-692.412	-200.000	-0.010	0.066
-691.397	-82.202	0.164	-0.055
-690.383	221.390	0.047	0.076
-689.368	-60.698	0.323	-0.139
-688.354	162.212	0.158	0.226
-687.339	800.000	-0.043	0.151
-686.324	681.699	0.064	-0.170
-685.310	-47.469	0.202	0.100
-684.295	-200.000	-0.004	0.052
-683.281	29.861	0.054	0.047
-682.266	-88.463	-0.413	-0.125
-681.251	39.221	0.137	-0.125
-680.237	-98.192	-0.185	-0.048
-679.222	-200.000	-0.004	0.021
-678.208	-29.850	-0.198	0.115
-677.193	795.185	-0.109	-0.306
-676.178	486.182	-0.104	-0.241
-675.164	-174.070	-0.186	-0.006
-674.149	-200.000	-0.025	-0.356
-673.135	-85.140	0.345	0.110
-672.120	800.000	-0.052	0.203
-671.105	119.874	-0.155	-0.196
-670.091	-200.000	-0.026	-0.296
-669.076	800.000	-0.015	-0.050
-668.062	-50.008	0.124	-0.060
-667.047	-200.000	-0.018	-0.226
-666.032	179.344	0.051	0.076
-665.018	623.163	-0.044	0.113
-664.003	-49.185	-0.396	0.193
-662.989	89.479	-0.097	0.110
-661.974	26.202	-0.137	-0.117
-660.959	-140.489	0.133	0.014
-659.945	313.953	0.200	-0.384
-658.930	27.175	-0.201	-0.171
-657.916	-200.000	-0.002	-0.123
-656.901	-200.000	-0.007	-0.140
-655.886	19.491	0.121	0.099
-654.872	-35.426	-0.087	0.048
-653.857	800.000	-0.052	-0.163
-652.843	-121.572	-0.329	-0.056
-651.828	269.117	0.099	-0.178
-650.814	-106.858	0.163	0.037
-649.799	-73.506	0.150	-0.056
-648.784	-200.000	-0.006	0.103
-647.770	54.532	0.173	-0.169
-646.755	93.714	0.263	0.303
-645.741	172.246	-0.074	-0.109
-644.726	264.292	0.231	-0.409
-643.711	-200.000	0.014	0.446
-642.697	118.146	0.060	0.075
-641.682	73.461	-0.057	0.061
-640.668	-144.327	0.339	-0.032
-639.653	-173.604	-0.028	-0.001
-638.638	-7.590	0.103	0.071
-637.624	27.098	0.067	-0.057
-636.609	800.000	-0.048	0.140
-635.595	687.719	0.071	0.188
-634.580	36.490	0.126	0.113
-633.565	325.540	-0.107	-0.209
-632.551	-162.910	-0.454	-0.022
-631.536	743.195	0.050	0.136
-630.522	86.099	0.270	-0.302
-629.507	-97.086	-0.072	0.019
-628.492	800.000	-0.030	-0.101
-627.478	-200.000	0.011	-0.178
-626.463	-20.228	-0.279	-0.175
-625.449	-92.398	-0.212	0.061
-624.434	220.465	0.162	0.264
-623.419	5.251	0.386	-0.289
-622.405	-200.000	-0.143	0.000
-621.390	-128.275	-0.296	0.043
-620.376	159.501	-0.097	-0.137
-619.361	-122.576	-0.158	-0.026
-618.346	-200.000	-0.016	-0.081
-617.332	-82.749	-0.335	-0.110
-616.317	765.958	0.035	0.096
-615.303	115.201	-0.183	-0.228
-614.288	395.942	-0.080	-0.171
-613.273	20.383	-0.354	0.291
-612.259	77.357	-0.107	0.116
-611.244	93.891	0.040	0.046
-610.230	-136.113	-0.094	-0.011
-609.215	-200.000	0.023	-0.307
-608.201	-200.000	-0.050	-0.405
-607.186	-22.136	-0.238	-0.147
-606.171	-200.000	0.006	0.233
-605.157	75.507	-0.214	-0.230
-604.142	-87.180	-0.265	0.082
-603.128	800.000	0.013	0.043
-602.113	156.183	-0.244	0.341
-601.098	-182.823	-0.128	-0.002
-600.084	-29.155	-0.123	0.071
-599.069	-155.207	-0.328	0.022
-598.055	10.907	0.143	0.111
-597.040	611.244	-0.065	-0.165
-596.025	-79.447	0.271	0.093
-595.011	-65.168	0.095	0.039
-593.996	800.000	-0.156	0.450
-592.982	-200.000	0.031	0.149
-591.967	122.662	-0.127	0.162
-590.952	-86.468	-0.289	-0.090
-589.938	633.620	0.086	0.221
-588.923	182.934	-0.166	-0.249
-587.909	-129.741	-0.317	0.044
-586.894	-200.000	0.007	0.194
-585.879	205.483	-0.226	-0.356
-584.865	-101.169	0.186	0.046
-583.850	88.328	-0.278	0.314
-582.836	-70.615	-0.204	0.078
-581.821	-200.000	0.004	-0.138
-580.806	391.819	-0.090	0.190
-579.792	800.000	0.005	0.016
-578.777	118.376	-0.166	-0.208
-577.763	-200.000	0.006	-0.247
-576.748	-40.467	-0.103	0.054
-575.733	225.684	-0.106	-0.175
-574.719	180.391	0.037	-0.055
-573.704	800.000	0.017	0.065
-572.690	7.844	-0.078	0.059
-571.675	419.825	-0.025	0.054
-570.661	-70.641	-0.167	0.064
-569.646	-122.280	0.132	-0.022
-568.631	-188.407	-0.137	-0.002
-567.617	101.582	0.148	0.175
-566.602	-113.449	0.324	0.064
-565.588	-58.893	-0.184	0.081
-564.573	130.153	0.112	0.145
-563.558	-200.000	0.008	0.184
-562.544	698.752	-0.042	0.112
-561.529	800.000	0.111	0.466
-560.515	28.589	-0.093	0.080
-559.500	-11.451	0.131	-0.088
-558.485	16.046	0.131	-0.105
-557.471	10.276	0.093	-0.072
-556.456	800.000	0.069	0.292
-555.442	-119.349	-0.474	0.084
-554.427	-68.562	0.258	-0.101
-553.412	-200.000	0.004	-0.025
-552.398	-8.580	0.296	-0.201
-551.383	-200.000	0.028	0.125
-550.369	-159.707	0.135	-0.008
-549.354	-23.520	0.122	0.074
-548.339	88.107	-0.134	-0.151
-547.325	82.112	0.157	-0.173
-546.310	79.833	-0.117	0.128
-545.296	-200.000	0.034	-0.179
-544.281	89.959	0.129	0.146
-543.266	-154.515	0.093	-0.006
-542.252	59.178	-0.116	0.116
-541.237	800.000	0.057	-0.167
-540.223	-200.000	0.005	0.254
-539.208	-159.394	0.219	-0.012
-538.193	212.835	0.182	-0.291
-537.179	-22.692	-0.361	0.221
-536.164	165.101	0.064	-0.092
-535.150	154.015	0.057	-0.080
-534.135	-200.000	0.028	0.433
-533.121	-33.005	-0.272	0.153
-532.106	-182.266	-0.253	0.005
-531.091	-81.297	-0.039	-0.013
-530.077	-38.752	0.051	0.027
-529.062	305.813	-0.052	0.099
-528.048	633.914	-0.096	-0.247
-527.033	-49.605	-0.050	0.024
-526.018	-56.891	-0.207	0.093
-525.004	800.000	-0.076	0.245
-523.989	-200.000	0.007	0.144
-522.975	-117.209	0.415	0.076
-521.960	800.000	-0.084	-0.356
-520.945	57.507	0.089	-0.088
-519.931	695.154	0.121	0.322
-518.916	-13.181	-0.340	0.224
-517.902	-53.570	0.114	0.053
-516.887	234.267	0.116	-0.194
-515.872	-64.626	0.042	0.017
-514.858	361.512	-0.123	-0.250
-513.843	-173.762	-0.157	-0.005
-512.829	158.963	0.191	0.269
-511.814	-86.668	-0.185	0.057
-510.799	48.599	0.210	-0.199
-509.785	-87.566	-0.175	-0.054
-508.770	211.396	0.099	-0.157
-507.756	144.536	0.248	-0.336
-506.741	-22.084	0.349	0.214
-505.726	-139.658	0.098	0.011
-504.712	-94.862	0.138	0.038
-503.697	154.902	0.067	0.093
-502.683	-200.000	-0.022	-0.116
-501.668	72.987	-0.310	-0.328
-500.653	-2.974	0.268	0.189
-499.639	12.413	0.281	-0.219
-498.624	-172.669	-0.270	0.009
-497.610	-71.191	-0.232	-0.088
-496.595	224.613	-0.213	-0.349
-495.581	-80.283	0.087	0.029
-494.566	800.000	-0.024	0.089
-493.551	383.587	-0.131	0.272
-492.537	-86.002	-0.178	-0.056
-491.522	351.439	-0.242	0.486
-490.508	2.883	-0.186	-0.137
-489.493	-106.978	-0.097	-0.022
-488.478	112.038	0.076	-0.093
-487.464	55.002	0.117	-0.114
-486.449	-200.000	-0.006	-0.235
-485.435	-121.492	-0.129	0.022
-484.420	25.457	-0.108	0.091
-483.405	800.000	-0.073	-0.282
-482.391	800.000	0.004	-0.011
-481.376	97.428	0.084	-0.097
-480.362	143.562	-0.029	0.039
-479.347	-147.194	-0.207	0.018
-478.332	-13.180	-0.400	0.262
-477.318	-17.167	0.164	-0.105
-476.303	253.905	0.205	-0.353
-475.289	79.124	-0.177	-0.192
-474.274	-169.373	0.369	-0.014
-473.259	336.322	0.091	-0.179
-472.245	-200.000	-0.075	0.408
-471.230	-200.000	-0.067	-0.347
-470.216	-17.694	0.151	-0.096
-469.201	-60.617	-0.209	-0.090
-468.186	-127.850	-0.235	-0.034
-467.172	800.000	0.070	-0.213
-466.157	-118.810	-0.362	0.064
-465.143	-200.000	-0.066	0.304
-464.128	425.184	0.087	0.188
-463.113	305.852	0.056	-0.104
-462.099	-72.459	0.448	0.167
-461.084	-5.541	-0.139	-0.096
-460.070	320.042	0.123	-0.236
-459.055	-200.000	-0.141	-0.001
-458.040	800.000	0.077	0.238
-457.026	102.080	0.180	0.212
-456.011	-33.208	-0.043	-0.024
-454.997	-180.341	0.262	0.006
-453.982	-89.172	-0.157	0.047
-452.968	-200.000	0.012	0.150
-451.953	-21.048	0.074	0.046
-450.938	-1.578	0.171	-0.122
-449.924	-200.000	0.020	0.169
-448.909	-142.204	0.165	0.017
-447.895	184.518	-0.084	-0.126
-446.880	-31.054	-0.338	0.192
-445.865	-15.876	0.107	-0.069
-444.851	48.971	0.044	-0.041
-443.836	-68.704	0.170	-0.066
-442.822	-53.298	0.276	-0.128
-441.807	32.480	0.304	-0.265
-440.792	-17.669	-0.191	0.121
-439.778	-29.301	0.209	-0.121
-438.763	-200.000	-0.005	-0.217
-437.749	19.992	-0.016	-0.013
-436.734	-99.024	0.133	-0.034
-435.719	301.852	-0.159	0.297
-434.705	125.079	-0.108	0.137
-433.690	576.135	0.064	-0.158
-432.676	-96.346	0.052	-0.014
-431.661	-200.000	0.034	-0.288
-430.646	-16.980	-0.138	-0.088
-429.632	800.000	0.060	-0.180
-428.617	-200.000	-0.033	-0.182
-427.603	-93.264	-0.176	-0.049
-426.588	287.900	0.034	0.062
-425.573	-50.585	0.222	-0.106
-424.559	-200.000	0.024	0.280
-423.544	-200.000	-0.001	-0.263
-422.530	-200.000	-0.095	-0.544
-421.515	-44.734	-0.302	0.152
-420.500	21.137	0.090	-0.074
-419.486	50.672	-0.121	-0.116
-418.471	-200.000	-0.038	-0.364
-417.457	-200.000	0.013	-0.348
-416.442	-200.000	0.029	0.232
-415.428	-200.000	-0.084	-0.432
-414.413	-90.300	-0.158	0.046
-413.398	-31.494	-0.117	-0.066
-412.384	768.430	0.042	-0.117
-411.369	-105.019	0.081	-0.019
-410.355	250.593	-0.059	0.102
-409.340	-75.794	-0.239	0.085
-408.325	-84.660	0.084	-0.027
-407.311	-200.000	0.002	0.325
-406.296	-200.000	0.028	-0.184
-405.282	-200.000	0.013	-0.182
-404.267	-200.000	-0.086	0.000
-403.252	241.013	0.095	-0.159
-402.238	50.122	0.151	-0.144
-401.223	304.444	0.139	-0.260
-400.209	103.806	0.075	-0.089
-399.194	43.434	-0.175	-0.161
-398.179	-187.447	0.343	0.005
-397.165	-148.649	0.344	-0.028
-396.150	-200.000	0.017	0.188
-395.136	431.980	0.106	0.232
-394.121	70.342	-0.114	-0.119
-393.106	800.000	-0.074	-0.211
-392.092	278.809	0.113	-0.203
-391.077	-172.491	0.138	0.004
-390.063	-65.000	0.248	0.101
-389.048	-80.342	0.094	-0.032
-388.033	800.000	-0.142	0.406
-387.019	-156.085	-0.510	0.032
-386.004	-128.600	-0.093	0.013
-384.990	27.349	0.240	-0.203
-383.975	203.278	-0.176	0.274
-382.960	-200.000	-0.018	-0.104
-381.946	379.987	0.051	0.106
-380.931	-200.000	-0.033	-0.351
-379.917	-3.707	0.165	-0.116
-378.902	-23.043	0.177	-0.107
-377.888	-136.142	0.193	0.023
-376.873	10.391	-0.160	0.122
-375.858	66.214	0.154	0.157
-374.844	139.216	0.110	0.146
-373.829	800.000	0.040	-0.136
-372.815	-130.571	-0.208	0.028
-371.800	108.623	0.114	-0.137
-370.785	-178.925	-0.159	-0.004
-369.771	-24.509	-0.055	0.033
-368.756	118.015	0.191	0.237
-367.742	-119.219	-0.440	-0.077
-366.727	142.258	0.148	0.197
-365.712	-34.520	0.059	-0.032
-364.698	-28.330	0.145	0.084
-363.683	-144.019	-0.378	-0.036
-362.669	0.849	0.461	0.332
-361.654	-152.870	-0.581	-0.041
-360.639	-200.000	-0.018	-0.164
-359.625	129.941	-0.074	-0.096
-358.610	677.561	-0.105	0.274
-357.596	0.121	0.279	-0.200
-356.581	800.000	-0.113	0.410
-355.566	800.000	0.097	-0.300
-354.552	138.115	-0.119	0.157
-353.537	800.000	0.038	0.130
-352.523	1.263	-0.079	0.057
-351.508	800.000	0.046	-0.137
-350.493	61.376	-0.101	-0.101
-349.479	-200.000	-0.059	0.269
-348.464	126.331	0.184	-0.235
-347.450	83.656	0.062	0.068
-346.435	515.601	0.034	-0.081
-345.420	-56.547	0.152	0.068
-344.406	-122.399	-0.066	-0.011
-343.391	-200.000	-0.004	-0.117
-342.377	-130.206	0.129	0.018
-341.362	-200.000	-0.065	0.321
-340.348	-169.238	0.362	0.013
-339.333	-82.180	-0.207	0.068
-338.318	53.843	-0.208	0.201
-337.304	291.476	-0.086	-0.158
-336.289	-139.627	-0.197	-0.021
-335.275	412.629	-0.077	-0.164
-334.260	631.154	0.154	0.392
-333.245	9.269	0.136	-0.104
-332.231	800.000	-0.054	0.165
-331.216	66.091	0.360	-0.367
-330.202	187.326	0.178	0.267
-329.187	227.604	0.089	0.146
-328.172	158.372	-0.085	-0.118
-327.158	-99.835	-0.263	-0.066
-326.143	-124.457	-0.271	-0.042
-325.129	305.700	-0.098	0.183
-324.114	5.207	0.282	0.209
-323.099	-17.355	-0.047	0.030
-322.085	439.570	-0.101	0.221
-321.070	74.548	0.179	0.189
-320.056	-109.354	-0.134	0.029
-319.041	-200.000	-0.015	0.140
-318.026	50.754	-0.104	-0.099
-317.012	-103.468	-0.387	-0.091
-315.997	132.513	-0.088	0.114
-314.983	294.224	0.058	0.106
-313.968	184.256	0.342	-0.508
-312.953	-100.591	0.181	0.045
-311.939	26.507	-0.088	0.074
-310.924	-141.688	-0.206	-0.021
-309.910	90.363	0.315	0.354
-308.895	-10.997	0.234	-0.155
-307.880	-200.000	-0.015	-0.119
-306.866	-104.430	0.192	-0.045
-305.851	197.645	0.065	0.099
-304.837	-60.610	0.182	0.078
-303.822	-62.497	-0.137	0.057
-302.807	84.681	0.059	-0.065
-301.793	114.849	0.066	-0.081
-300.778	-33.201	-0.192	-0.107
-299.764	483.903	-0.146	-0.333
-298.749	-170.642	0.191	-0.007
-297.735	-128.589	-0.167	-0.024
-296.720	800.000	0.037	-0.128
-295.705	274.605	0.045	0.080
-294.691	-200.000	-0.029	0.237
-293.676	-8.834	-0.266	-0.179
-292.662	-6.114	-0.041	0.028
-291.647	87.356	0.083	-0.092
-290.632	-5.915	0.154	-0.106
-289.618	-200.000	0.012	-0.209
-288.603	-200.000	0.042	-0.399
-287.589	324.638	-0.081	0.154
-286.574	800.000	-0.120	0.457
-285.559	-46.358	-0.138	0.068
-284.545	-12.794	0.184	0.120
-283.530	800.000	-0.088	-0.364
-282.516	-200.000	-0.006	0.187
-281.501	292.151	0.070	-0.127
-280.486	-108.600	0.105	-0.023
-279.472	176.521	-0.052	0.076
-278.457	800.000	0.055	-0.196
-277.443	-200.000	-0.024	0.203
-276.428	35.113	0.158	-0.139
-275.413	800.000	-0.043	-0.176
-274.399	-200.000	-0.214	-0.000
-273.384	-200.000	-0.050	-0.225
-272.370	58.876	0.061	0.060
-271.355	-200.000	-0.041	0.232
-270.340	-92.893	0.233	-0.065
-269.326	800.000	0.012	0.043
-268.311	-200.000	0.027	0.245
-267.297	621.244	-0.081	0.205
-266.282	-200.000	0.015	0.158
-265.267	-59.669	-0.249	0.107
-264.253	69.270	0.181	0.187
-263.238	-200.000	0.026	-0.113
-262.224	156.310	-0.053	0.074
-261.209	-156.811	-0.088	0.005
-260.195	-78.895	0.133	0.045
-259.180	-198.598	-0.035	-0.000
-258.165	-122.463	0.262	0.043
-257.151	-200.000	-0.046	0.207
-256.136	-103.493	-0.312	0.074
-255.122	237.704	0.100	0.167
-254.107	-200.000	-0.016	0.216
-253.092	-61.050	0.050	-0.021
-252.078	143.821	-0.150	-0.200
-251.063	-200.000	-0.024	0.129
-250.049	781.943	-0.044	-0.121
-249.034	-24.871	-0.104	0.062
-248.019	-135.206	0.023	-0.003
-247.005	628.408	-0.082	-0.208
-245.990	174.449	-0.101	0.146
-244.976	472.248	-0.111	-0.250
-243.961	-48.783	-0.175	-0.084
-242.946	52.167	0.234	0.223
-241.932	62.355	-0.278	0.278
-240.917	38.982	0.407	0.364
-239.903	-200.000	0.011	0.128
-238.888	800.000	0.087	-0.299
-237.873	12.060	0.078	-0.060
-236.859	-158.093	0.067	0.004
-235.844	128.969	-0.138	0.176
-234.830	800.000	0.072	-0.300
-233.815	-42.247	0.125	-0.064
-232.800	-127.826	0.277	0.040
-231.786	-147.897	0.325	-0.027
-230.771	159.205	-0.073	0.101
-229.757	800.000	0.049	0.156
-228.742	23.682	-0.392	-0.323
-227.727	-131.499	-0.082	-0.011
-226.713	-95.064	0.374	-0.101
-225.698	-150.533	0.214	0.016
-224.684	43.599	-0.160	0.146
-223.669	7.366	0.034	-0.025
-222.655	-83.847	0.218	0.070
-221.640	63.757	-0.168	0.169
-220.625	800.000	0.060	0.192
-219.611	800.000	-0.047	0.149
-218.596	204.463	0.103	-0.160
-217.582	-69.400	-0.259	-0.100
-216.567	11.830	-0.076	-0.059
-215.552	-57.195	0.137	-0.060
-214.538	-200.000	0.008	-0.096
-213.523	-200.000	-0.036	-0.239
-212.509	435.169	0.166	-0.362
-211.494	800.000	0.039	0.116
-210.479	732.184	-0.109	0.292
-209.465	-31.915	0.170	-0.095
-208.450	-43.103	-0.141	-0.072
-207.436	62.473	-0.372	0.371
-206.421	43.257	-0.116	0.106
-205.406	-59.108	0.241	0.104
-204.392	-116.818	-0.060	0.011
-203.377	96.668	0.134	0.153
-202.363	78.795	-0.267	-0.286
-201.348	-70.793	0.414	0.156
-200.333	3.386	-0.083	0.060
-199.319	-200.000	0.020	-0.110
-198.304	-19.222	0.132	-0.082
-197.290	49.160	-0.204	0.192
-196.275	236.789	-0.147	0.244
-195.260	186.495	-0.145	0.216
-194.246	19.561	-0.175	-0.141
-193.231	-71.074	0.259	0.097
-192.217	761.317	-0.072	-0.196
-191.202	-134.134	-0.334	-0.041
-190.187	-100.839	-0.311	-0.076
-189.173	-173.383	-0.163	0.005
-188.158	-200.000	-0.010	0.160
-187.144	-200.000	0.005	-0.073
-186.129	800.000	0.052	0.183
-185.114	-200.000	0.020	0.172
-184.100	44.206	-0.030	-0.028
-183.085	38.962	0.171	-0.153
-182.071	-100.519	0.334	-0.082
-181.056	-119.971	-0.048	-0.008
-180.042	-9.340	0.342	-0.228
-179.027	-142.913	0.324	-0.031
-178.012	617.882	-0.173	-0.435
-176.998	74.426	0.217	0.228
-175.983	-115.056	0.364	-0.069
-174.969	-14.872	-0.036	-0.023
-173.954	144.154	0.216	0.288
-172.939	47.179	0.304	-0.282
-171.925	-64.386	-0.162	0.066
-170.910	93.474	0.220	-0.249
-169.896	39.772	-0.079	-0.071
-168.881	-174.033	0.278	-0.008
-167.866	468.295	0.107	0.241
-166.852	-200.000	-0.019	-0.175
-165.837	218.025	0.033	0.052
-164.823	602.962	0.057	0.141
-163.808	-200.000	-0.022	0.133
-162.793	208.215	0.139	-0.216
-161.779	-71.989	-0.292	-0.108
-160.764	224.516	0.069	0.112
-159.750	-87.342	0.022	-0.007
-158.735	800.000	0.101	0.365
-157.720	-186.906	0.318	0.004
-156.706	-200.000	-0.002	-0.180
-155.691	-200.000	-0.003	-0.122
-154.677	-125.336	0.133	0.020
-153.662	290.273	-0.050	-0.091
-152.647	-117.172	0.110	0.020
-151.633	272.085	-0.009	0.016
-150.618	800.000	-0.072	-0.211
-149.604	-200.000	0.002	0.231
-148.589	-200.000	0.005	-0.149
-147.574	-28.545	0.207	0.119
-146.560	140.130	-0.234	0.309
-145.545	800.000	0.091	-0.342
-144.531	-41.708	0.303	0.155
-143.516	-200.000	0.010	0.143
-142.502	-98.424	-0.191	-0.049
-141.487	-90.530	-0.186	0.054
-140.472	-150.361	-0.124	0.010
-139.458	-200.000	0.003	0.047
-138.443	169.427	0.076	0.109
-137.429	-200.000	-0.011	-0.113
-136.414	-154.768	0.025	0.002
-135.399	-6.657	0.154	-0.105
-134.385	129.619	-0.147	-0.188
-133.370	-200.000	0.012	-0.172
-132.356	-200.000	0.000	-0.111
-131.341	200.076	-0.121	0.186
-130.326	56.417	0.189	0.183
-129.312	-66.935	-0.024	-0.010
-128.297	10.442	-0.148	-0.113
-127.283	-150.624	-0.255	0.019
-126.268	8.304	0.068	0.051
-125.253	725.881	-0.160	0.425
-124.239	74.236	-0.081	-0.085
-123.224	243.061	-0.179	-0.299
-122.210	302.983	0.121	0.224
-121.195	-12.901	0.324	0.210
-120.180	-197.763	0.289	-0.002
-119.166	-200.000	0.049	0.262
-118.151	800.000	-0.036	-0.103
-117.137	38.685	-0.212	0.189
-116.122	64.268	0.258	0.259
-115.107	-200.000	-0.056	-0.309
-114.093	-23.090	0.104	0.062
-113.078	800.000	0.078	0.242
-112.064	78.339	-0.218	0.232
-111.049	91.487	-0.148	0.166
-110.034	-200.000	-0.026	-0.224
-109.020	-67.134	-0.211	-0.083
-108.005	163.452	-0.043	-0.061
-106.991	-117.040	0.040	0.007
-105.976	-167.958	0.281	-0.011
-104.962	15.219	0.001	0.001
-103.947	800.000	-0.111	0.322
-102.932	-200.000	-0.018	-0.127
-101.918	-106.740	-0.092	-0.020
-100.903	-200.000	0.052	0.331
-99.889	14.121	0.200	-0.155
-98.874	-8.232	-0.206	0.138
-97.859	288.568	0.214	0.387
-96.845	800.000	-0.115	0.347
-95.830	190.416	0.150	0.225
-94.816	-125.157	0.144	-0.022
-93.801	-190.708	0.444	-0.005
-92.786	177.179	0.059	0.085
-91.772	163.365	-0.170	0.239
-90.757	-108.844	0.244	-0.052
-89.743	-0.997	-0.204	0.144
-88.728	-142.244	-0.050	-0.005
-87.713	-119.594	-0.046	-0.008
-86.699	295.878	0.150	0.273
-85.684	-200.000	0.317	-0.001
-84.670	30.910	-0.139	0.119
-83.655	-200.000	0.062	-0.307
-82.640	413.925	-0.082	0.173
-81.626	800.000	0.070	0.260
-80.611	800.000	0.086	-0.274
-79.597	-134.342	0.339	0.041
-78.582	-77.779	0.150	-0.052
-77.567	322.315	-0.115	-0.218
-76.553	109.591	0.145	0.173
-75.538	-200.000	-0.001	-0.114
-74.524	152.974	0.182	-0.248
-73.509	692.700	-0.032	0.083
-72.494	33.628	-0.059	0.051
-71.480	-200.000	0.042	-0.237
-70.465	-175.210	0.247	0.007
-69.451	-48.281	-0.330	0.158
-68.436	83.497	-0.025	0.027
-67.422	-15.514	-0.163	0.103
-66.407	-110.241	-0.214	-0.044
-65.392	-22.146	-0.300	0.181
-64.378	788.321	0.048	-0.131
-63.363	155.223	0.182	-0.249
-62.349	-154.009	0.188	0.013
-61.334	171.053	-0.583	-0.831
-60.319	50.581	0.403	0.379
-59.305	-200.000	-0.164	-0.873
-58.290	27.913	1.132	0.949
-57.276	422.947	0.692	1.479
-56.261	-200.000	91.051	529.033
-55.246	566.160	1389.096	3351.026
-54.232	184.831	2601.022	3835.151
-53.217	119.592	2197.469	2706.323
-52.203	46.574	1645.873	1518.867
-51.188	38.733	1378.780	1223.643
-50.173	35.594	1335.853	1166.476
-49.159	55.353	1383.059	1330.227
-48.144	59.682	1401.865	1375.009
-47.130	39.303	1356.754	1207.407
-46.115	35.579	1338.959	1168.915
-45.100	35.285	1334.429	1163.130
-44.086	35.340	1331.573	1160.927
-43.071	35.199	1329.712	1158.407
-42.057	35.177	1327.349	1156.169
-41.042	35.277	1325.150	1154.807
-40.027	35.262	1324.077	1153.739
-39.013	35.266	1322.226	1152.103
-37.998	35.291	1320.331	1150.554
-36.984	35.358	1318.340	1149.178
-35.969	35.363	1316.620	1147.659
-34.954	35.438	1315.062	1146.709
-33.940	35.421	1313.932	1145.577
-32.925	35.477	1312.077	1144.245
-31.911	35.500	1310.593	1143.042
-30.896	35.519	1308.718	1141.473
-29.881	35.511	1307.981	1140.741
-28.867	35.549	1306.413	1139.553
-27.852	35.593	1304.444	1138.052
-26.838	35.522	1303.367	1136.645
-25.823	35.464	1302.188	1135.231
-24.809	35.493	1300.373	1133.770
-23.794	35.528	1298.569	1132.362
-22.779	35.510	1297.356	1131.153
-21.765	35.408	1296.834	1130.051
-20.750	35.502	1295.209	1129.146
-19.736	35.337	1294.248	1127.289
-18.721	35.330	1292.395	1125.591
-17.706	35.333	1291.490	1124.774
-16.692	35.315	1290.054	1123.375
-15.677	35.453	1289.092	1123.302
-14.663	35.344	1288.164	1121.809
-13.648	35.361	1286.853	1120.725
-12.633	35.235	1285.851	1119.074
-11.619	35.272	1285.224	1118.697
-10.604	35.385	1283.999	1118.244
-9.590	35.323	1283.123	1117.076
-8.575	35.251	1282.283	1115.879
-7.560	35.368	1281.171	1115.552
-6.546	35.277	1280.590	1114.469
-5.531	35.223	1280.006	1113.607
-4.517	35.288	1278.668	1112.775
-3.502	35.240	1278.034	1111.897
-2.487	35.355	1276.700	1111.358
-1.473	35.435	1272.791	1108.377
-0.458	34.925	1259.021	1093.427
0.556	33.333	1240.669	1055.640
1.571	28.993	1244.080	1034.118
2.586	26.980	1257.376	1033.627
3.600	24.710	1243.913	1009.665
4.615	18.391	1169.615	915.610
5.629	9.437	1092.917	810.576
6.644	5.208	1070.878	773.257
7.659	4.845	1067.847	769.206
8.673	4.594	1066.744	767.107
9.688	4.544	1065.692	766.035
10.702	5.212	1064.473	768.378
11.717	10.715	1072.802	801.549
12.731	18.726	1083.555	849.296
13.746	21.843	1086.768	867.180
14.761	21.411	1085.640	864.070
15.775	20.457	1083.394	857.496
16.790	19.420	1081.733	850.995
17.804	18.714	1080.052	846.119
18.819	18.277	1079.273	843.281
19.834	18.205	1078.274	842.071
20.848	17.981	1077.973	840.659
21.863	17.959	1076.629	839.426
22.877	17.755	1076.024	837.879
23.892	17.678	1075.366	836.915
24.907	17.778	1074.436	836.610
25.921	17.738	1073.375	835.513
26.936	17.767	1072.213	834.673
27.950	17.693	1071.033	833.322
28.965	17.820	1069.016	832.298
29.980	17.926	1068.007	831.954
30.994	18.125	1066.680	831.816
32.009	18.143	1065.709	831.074
33.023	18.118	1064.948	830.282
34.038	18.048	1063.418	828.680
35.053	17.851	1062.831	827.193
36.067	17.904	1061.750	826.535
37.082	17.947	1060.935	826.038
38.096	17.905	1060.849	825.695
39.111	18.005	1059.967	825.414
40.126	17.816	1058.713	823.452
41.140	17.679	1056.698	821.153
42.155	17.488	1055.738	819.414
43.169	17.293	1054.899	817.754
44.184	17.377	1053.875	817.290
45.199	17.505	1052.783	816.985
46.213	17.550	1052.000	816.524
47.228	17.776	1050.775	816.581
48.242	17.809	1049.855	815.953
49.257	17.780	1049.238	815.262
50.271	17.787	1048.299	814.496
51.286	17.923	1047.535	814.479
52.301	17.882	1046.241	813.206
53.315	17.806	1045.025	811.825
54.330	17.486	1044.359	809.713
55.344	17.644	1043.186	809.482
56.359	17.755	1042.109	809.102
57.374	17.499	1041.567	807.396
58.388	17.301	1040.740	805.746
59.403	17.548	1039.621	805.980
60.417	17.368	1039.104	804.656
61.432	17.505	1037.987	804.364
62.447	17.225	1037.610	802.679
63.461	17.328	1036.841	802.500
64.476	17.272	1035.562	801.176
65.490	17.253	1034.992	800.574
66.505	17.307	1033.918	799.925
67.520	17.237	1033.490	799.196
68.534	17.243	1032.591	798.458
69.549	17.361	1031.916	798.417
70.563	17.264	1031.105	797.266
71.578	17.154	1029.987	795.812
72.593	17.025	1029.473	794.743
73.607	17.051	1028.512	794.052
74.622	17.210	1027.949	794.289
75.636	17.164	1027.350	793.542
76.651	17.150	1026.437	792.700
77.666	17.151	1026.275	792.512
78.680	17.305	1025.369	792.460
79.695	17.192	1024.739	791.376
80.709	17.371	1024.125	791.666
81.724	17.538	1023.311	791.743
82.739	17.610	1022.741	791.565
83.753	17.741	1022.135	791.633
84.768	17.847	1021.582	791.630
85.782	18.086	1020.577	791.885
86.797	18.087	1019.795	791.215
87.812	17.809	1018.922	789.183
88.826	17.861	1017.861	788.530
89.841	17.956	1016.993	788.225
90.855	18.057	1016.563	788.288
91.870	18.132	1015.018	787.369
92.884	18.068	1014.028	786.234
93.899	18.039	1013.590	785.693
94.914	18.240	1012.316	785.558
95.928	18.187	1011.703	784.768
96.943	18.045	1010.758	783.317
97.957	17.802	1010.153	781.668
98.972	17.910	1009.307	781.435
99.987	17.947	1008.648	781.026
101.001	17.950	1007.289	779.916
102.016	17.906	1006.145	778.764
103.030	17.985	1005.389	778.467
104.045	17.893	1005.160	777.801
105.060	17.791	1004.286	776.593
106.074	17.608	1002.971	774.676
107.089	17.430	1002.185	773.191
108.103	17.481	1000.682	772.196
109.118	17.408	999.648	770.999
110.133	17.262	999.385	770.068
111.147	17.368	997.790	769.248
112.162	17.518	996.898	769.171
113.176	17.676	996.373	769.412
114.191	17.664	995.894	768.918
115.206	17.469	995.091	767.349
116.220	17.477	993.917	766.413
117.235	17.533	992.838	765.766
118.249	17.394	992.449	764.775
119.264	17.423	991.660	764.228
120.279	17.340	990.979	763.261
121.293	17.332	990.200	762.559
122.308	17.230	989.162	761.237
123.322	17.248	988.259	760.552
124.337	17.209	986.836	759.219
125.352	17.141	985.998	758.201
126.366	17.263	984.690	757.671
127.381	17.223	984.234	757.077
128.395	17.219	983.211	756.207
129.410	17.254	981.986	755.350
130.424	17.458	981.367	755.716
131.439	17.560	980.840	755.695
132.454	17.545	980.073	754.969
133.468	17.528	979.390	754.301
134.483	17.530	978.477	753.543
135.497	17.627	977.758	753.351
136.512	17.522	976.823	752.100
137.527	17.682	975.331	751.588
138.541	17.579	974.921	750.752
139.556	17.623	974.368	750.455
140.570	17.803	974.035	750.923
141.585	17.874	973.472	750.735
142.600	18.009	972.065	750.178
143.614	18.126	971.666	750.314
144.629	18.117	970.935	749.645
145.643	17.919	969.996	747.985
146.658	17.934	968.471	746.810
147.673	17.660	968.016	745.195
148.687	17.659	966.760	744.157
149.702	17.560	965.913	743.011
150.716	17.579	965.231	742.501
151.731	17.662	964.380	742.142
152.746	17.679	964.028	741.879
153.760	17.844	962.953	741.706
154.775	17.812	962.711	741.312
155.789	17.828	962.287	740.989
156.804	17.883	961.204	740.330
157.819	17.972	960.781	740.326
158.833	18.128	959.915	740.266
159.848	18.142	959.523	739.960
160.862	18.032	958.216	738.412
161.877	17.862	956.735	736.471
162.892	17.686	955.733	734.877
163.906	17.737	954.925	734.408
164.921	17.748	953.948	733.638
165.935	17.680	953.734	733.119
166.950	17.936	952.245	733.008
167.964	17.855	951.539	732.053
168.979	17.726	950.745	730.824
169.994	17.632	950.301	730.015
171.008	17.797	949.417	729.977
172.023	18.002	948.719	730.251
173.037	18.177	947.862	730.277
174.052	17.992	946.919	728.695
175.067	17.888	946.066	727.529
176.081	17.689	945.746	726.373
177.096	17.534	945.089	725.146
178.110	17.804	944.711	725.939
179.125	17.755	943.898	725.041
180.140	17.733	943.890	724.879
181.154	18.031	943.210	725.557
182.169	18.059	942.957	725.415
183.183	18.094	942.131	724.864
184.198	18.027	941.409	723.964
185.213	18.165	940.596	723.858
186.227	18.191	939.730	723.236
187.242	18.190	939.640	723.099
188.256	18.408	939.119	723.556
189.271	18.366	937.996	722.447
190.286	17.989	936.905	719.956
191.300	17.628	936.016	717.690
192.315	17.532	935.519	716.838
193.329	17.688	935.179	717.174
194.344	17.741	934.669	716.943
195.359	17.994	934.006	717.432
196.373	17.997	933.349	716.878
197.388	18.095	933.345	717.219
198.402	18.288	932.918	717.639
199.417	18.437	932.150	717.607
200.432	18.553	931.514	717.542
201.446	18.460	931.564	717.125
202.461	18.566	930.937	717.024
203.475	18.450	930.145	715.863
204.490	18.251	929.592	714.543
205.504	18.206	928.290	713.295
206.519	18.200	927.634	712.704
207.534	18.263	926.714	712.195
208.548	18.252	926.010	711.543
209.563	18.250	925.734	711.261
210.577	18.355	924.825	710.933
211.592	18.619	924.372	711.621
212.607	18.649	923.734	711.188
213.621	18.587	922.506	709.925
214.636	18.593	921.958	709.467
215.650	18.600	921.425	709.020
216.665	18.695	920.598	708.715
217.680	18.562	920.343	707.907
218.694	18.720	919.504	707.849
219.709	18.599	918.835	706.771
220.723	18.401	918.466	705.610
221.738	18.569	917.224	705.287
222.753	18.569	916.640	704.773
223.767	18.676	916.457	705.012
224.782	18.772	916.061	705.037
225.796	18.860	915.089	704.587
226.811	18.699	914.787	703.634
227.826	18.656	913.719	702.572
228.840	18.700	912.925	702.080
229.855	18.564	912.226	700.924
230.869	18.482	911.273	699.795
231.884	18.486	910.978	699.523
232.899	18.431	909.859	698.378
233.913	18.569	908.849	698.102
234.928	18.422	908.691	697.321
235.942	18.197	907.975	695.797
236.957	18.408	907.478	696.211
237.972	18.331	907.028	695.494
238.986	18.433	906.254	695.250
240.001	18.326	905.821	694.425
241.015	18.349	905.534	694.233
242.030	18.494	904.797	694.196
243.045	18.633	904.054	694.128
244.059	18.624	903.478	693.589
245.074	18.706	902.536	693.134
246.088	18.775	901.942	692.893
247.103	18.787	901.683	692.681
248.117	18.961	901.431	693.130
249.132	19.265	900.813	693.817
250.147	19.239	900.530	693.433
251.161	19.566	899.508	693.897
252.176	19.431	898.905	692.829
253.190	19.463	898.417	692.519
254.205	19.339	898.227	691.814
255.220	19.374	897.345	691.214
256.234	19.482	896.700	691.091
257.249	19.272	896.239	689.832
258.263	19.401	894.889	689.248
259.278	19.475	894.393	689.100
260.293	19.460	894.128	688.775
261.307	19.489	893.661	688.472
262.322	19.595	892.892	688.239
263.336	19.571	892.261	687.596
264.351	19.610	891.478	687.088
265.366	19.531	890.742	686.147
266.380	19.535	890.048	685.568
267.395	19.503	889.059	684.616
268.409	19.441	888.484	683.868
269.424	19.487	888.017	683.631
270.439	19.568	886.638	682.829
271.453	19.356	885.928	681.384
272.468	19.291	885.660	680.861
273.482	19.329	885.189	680.587
274.497	19.338	884.459	680.002
275.512	19.328	884.012	679.558
276.526	19.365	883.613	679.338
277.541	19.453	883.162	679.276
278.555	19.540	882.715	679.216
279.570	19.826	881.794	679.569
280.585	19.717	881.082	678.533
281.599	19.628	880.269	677.501
282.614	19.502	879.408	676.284
283.628	19.453	878.879	675.623
284.643	19.517	878.659	675.646
285.657	19.609	877.588	675.124
286.672	19.652	877.223	674.949
287.687	19.582	876.896	674.366
288.701	19.501	876.096	673.372
289.716	19.646	875.474	673.401
290.730	19.615	875.017	672.870
291.745	19.652	874.380	672.466
292.760	19.670	874.022	672.198
293.774	19.837	873.137	672.107
294.789	19.882	872.479	671.719
295.803	19.615	871.752	670.062
296.818	19.613	871.002	669.419
297.833	19.702	870.427	669.262
298.847	19.646	869.908	668.588
299.862	19.621	869.552	668.156
300.876	19.837	868.900	668.434
301.891	19.879	868.555	668.268
302.906	19.930	867.882	667.890
303.920	20.124	867.676	668.420
304.935	20.141	867.104	667.987
305.949	20.162	866.122	667.250
306.964	20.030	865.319	666.065
307.979	20.011	865.041	665.720
308.993	20.003	864.577	665.272
310.008	20.086	863.733	664.885
311.022	20.029	863.180	664.182
312.037	19.991	862.167	663.195
313.052	19.766	861.672	661.896
314.066	19.656	861.358	661.175
315.081	19.711	860.826	660.918
316.095	19.768	859.868	660.342
317.110	19.712	859.348	659.671
318.125	19.729	859.313	659.652
319.139	19.851	858.438	659.387
320.154	19.816	858.191	659.004
321.168	19.880	857.576	658.718
322.183	19.832	856.884	657.945
323.197	19.923	856.000	657.554
324.212	19.791	856.209	657.153
325.227	19.747	855.215	656.168
326.241	19.847	854.599	656.014
327.256	19.900	854.023	655.714
328.270	19.755	853.527	654.728
329.285	19.744	852.903	654.150
330.300	19.732	852.366	653.635
331.314	19.885	851.677	653.626
332.329	19.986	851.327	653.683
333.343	20.113	850.938	653.804
334.358	20.099	850.689	653.501
335.373	20.156	849.908	653.058
336.387	19.975	850.174	652.525
337.402	20.258	849.392	652.932
338.416	20.360	849.517	653.352
339.431	20.462	849.203	653.438
340.446	20.564	848.338	653.098
341.460	20.356	848.284	652.217
342.475	20.474	848.125	652.478
343.489	20.611	847.713	652.619
344.504	20.645	847.041	652.173
345.519	20.791	846.228	652.032
346.533	20.737	845.713	651.379
347.548	20.575	845.062	650.211
348.562	20.387	844.536	649.047
349.577	20.248	843.692	647.823
350.592	20.264	843.112	647.381
351.606	20.212	842.461	646.629
352.621	20.254	841.964	646.345
353.635	20.491	840.892	646.348
354.650	20.402	840.636	645.763
355.665	20.350	840.487	645.398
356.679	20.590	839.442	645.429
357.694	20.457	838.730	644.332
358.708	20.477	838.034	643.815
359.723	20.478	837.748	643.543
360.738	20.673	836.806	643.483
361.752	20.530	836.621	642.756
362.767	20.626	836.097	642.648
363.781	20.907	835.572	643.226
364.796	20.949	835.136	642.988
365.810	21.091	834.718	643.135
366.825	21.113	834.239	642.789
367.840	21.124	833.825	642.454
368.854	20.832	833.357	640.961
369.869	20.806	832.927	640.479
370.883	20.824	832.451	640.122
371.898	20.976	832.165	640.406
372.913	20.867	832.024	639.838
373.927	21.021	831.008	639.564
374.942	20.940	830.774	639.032
375.956	20.992	830.432	638.901
376.971	21.147	829.793	638.922
377.986	21.300	829.207	638.973
379.000	21.247	828.922	638.502
380.015	21.064	828.538	637.484
381.029	21.211	827.692	637.312
382.044	21.067	827.294	636.422
383.059	21.187	826.709	636.356
384.073	21.081	825.518	634.996
385.088	21.004	825.047	634.298
386.102	20.931	824.478	633.538
387.117	20.962	824.052	633.269
388.132	20.929	823.237	632.467
389.146	21.062	822.754	632.519
390.161	21.163	822.665	632.761
391.175	21.313	821.888	632.652
392.190	21.198	821.721	632.052
393.205	20.963	821.080	630.654
394.219	21.139	820.515	630.799
395.234	20.959	820.065	629.746
396.248	20.802	819.573	628.747
397.263	20.949	818.624	628.492
398.278	20.792	818.526	627.796
399.292	20.758	818.439	627.552
400.307	20.780	818.055	627.280
401.321	20.919	817.378	627.207
402.336	20.922	817.249	627.064
403.350	21.089	816.574	627.091
404.365	21.141	816.248	626.968
405.380	21.393	815.523	627.263
406.394	21.387	815.254	626.979
407.409	21.325	815.062	626.554
408.423	21.532	814.826	627.057
409.438	21.736	814.410	627.412
410.453	21.562	813.902	626.344
411.467	21.747	813.279	626.470
412.482	21.577	813.016	625.606
413.496	21.805	812.736	626.148
414.511	21.646	812.271	625.167
415.526	21.690	811.641	624.782
416.540	21.594	811.065	623.941
417.555	21.652	810.824	623.908
418.569	21.623	810.498	623.500
419.584	21.621	809.669	622.798
420.599	21.637	809.624	622.766
421.613	156.875	1369.015	1787.802
422.628	136.402	1450.525	1787.912
