DTS Sentinel unit serial number:	SN413079Multiplexer serial number:	ORYXHardware model number:	OX4-SRSoftware version number:	ORYX F/W v4.00 Oryx Data Collector v3.7.2.0data status	okinstallation	princeton_trtdifferential loss correction	single-endedforward channel	channel 1reverse channel	N/Adate	2019/09/13time	15:50:35forward acquisition time	60.00reverse acquisition time	0.00gamma	496.2192k internal	0.2308k external	0.2308temperature offset calibration	1.0159default loss term (dB/km)	0.3790temperature slope calibration	1.0000multiplexer offset coefficient	1.0000multiplexer slope coefficient	1.0000fibre end	0.00T internal ref (°C)	34.67T ext. ref 1 (°C)	4.78T ext. ref 2 (°C)	30.00length (m)	temperature (°C)	Stokes	anti-Stokes-747.200	67.618	0.227	0.236
-746.185	107.066	-0.170	0.205
-745.171	-114.442	-0.138	-0.027
-744.156	-200.000	0.023	0.357
-743.142	9.235	-0.123	0.095
-742.127	-145.033	-0.134	0.012
-741.112	6.305	-0.287	-0.216
-740.098	-116.314	0.367	-0.069
-739.083	-52.162	-0.096	0.045
-738.069	-86.895	0.350	0.108
-737.054	-101.576	0.166	-0.041
-736.039	-83.371	-0.064	-0.021
-735.025	233.274	-0.077	0.129
-734.010	543.803	-0.022	0.054
-732.996	120.876	-0.236	-0.299
-731.981	61.004	-0.108	0.109
-730.966	342.960	-0.089	0.177
-729.952	73.244	-0.128	-0.136
-728.937	-54.797	-0.252	-0.115
-727.923	-200.000	-0.016	-0.110
-726.908	-200.000	-0.497	0.002
-725.894	-200.000	0.009	-0.154
-724.879	-76.870	-0.066	0.023
-723.864	-156.969	-0.417	0.026
-722.850	145.349	-0.076	0.103
-721.835	43.656	0.274	-0.254
-720.821	-200.000	0.047	-0.306
-719.806	-29.008	0.207	-0.121
-718.791	188.453	-0.211	-0.320
-717.777	97.022	-0.161	-0.187
-716.762	320.424	0.120	-0.232
-715.748	276.855	0.137	-0.247
-714.733	-8.006	0.173	-0.119
-713.718	25.849	-0.133	-0.113
-712.704	-200.000	0.008	-0.092
-711.689	-144.115	-0.282	0.027
-710.675	-200.000	-0.044	0.312
-709.660	51.733	0.127	0.123
-708.645	-86.937	0.131	-0.040
-707.631	52.371	0.294	-0.285
-706.616	91.322	0.171	0.194
-705.602	-200.000	-0.040	-0.470
-704.587	14.048	0.089	0.071
-703.572	-108.833	-0.143	-0.031
-702.558	-18.022	-0.182	-0.116
-701.543	-200.000	0.042	-0.260
-700.529	76.705	0.110	0.118
-699.514	-104.349	-0.446	-0.105
-698.499	-84.813	0.333	0.106
-697.485	800.000	0.019	0.054
-696.470	800.000	0.111	-0.384
-695.456	-124.270	0.231	0.037
-694.441	-46.688	-0.143	0.071
-693.426	800.000	0.019	-0.067
-692.412	-200.000	0.031	-0.240
-691.397	565.112	0.151	-0.371
-690.383	800.000	-0.038	-0.145
-689.368	-61.702	-0.104	-0.044
-688.354	110.056	-0.051	0.062
-687.339	800.000	-0.027	0.074
-686.324	-31.816	-0.084	-0.048
-685.310	-196.480	0.461	-0.003
-684.295	687.884	0.071	-0.187
-683.281	-26.588	-0.215	-0.127
-682.266	-86.497	-0.189	-0.059
-681.251	125.666	0.122	-0.157
-680.237	-33.705	0.137	-0.077
-679.222	226.399	-0.111	0.182
-678.208	-83.403	0.114	0.037
-677.193	-40.336	-0.142	0.075
-676.178	-83.961	0.180	-0.058
-675.164	-131.656	-0.208	0.028
-674.149	-200.000	-0.069	-0.493
-673.135	557.343	-0.153	-0.373
-672.120	-180.768	0.346	0.007
-671.105	-148.103	-0.146	0.012
-670.091	164.456	-0.063	-0.089
-669.076	-99.295	-0.262	-0.067
-668.062	800.000	0.038	-0.152
-667.047	-2.295	-0.171	0.122
-666.032	800.000	0.079	0.222
-665.018	174.827	0.172	-0.252
-664.003	414.408	0.169	-0.364
-662.989	-118.516	0.285	-0.051
-661.974	-83.713	-0.252	0.082
-660.959	275.715	0.137	0.246
-659.945	-22.398	-0.169	0.103
-658.930	-99.524	0.249	0.063
-657.916	-13.774	-0.087	0.057
-656.901	-200.000	-0.054	0.332
-655.886	-47.486	0.065	-0.032
-654.872	-200.000	0.053	-0.260
-653.857	-200.000	-0.005	-0.165
-652.843	386.103	0.108	-0.226
-651.828	-200.000	0.002	0.197
-650.814	-2.762	0.232	0.164
-649.799	800.000	-0.084	0.234
-648.784	-32.736	-0.142	0.080
-647.770	-137.236	0.174	0.020
-646.755	71.970	-0.194	-0.204
-645.741	-158.027	0.125	0.007
-644.726	43.139	0.352	0.325
-643.711	-200.000	-0.003	-0.085
-642.697	60.546	0.295	-0.296
-641.682	-200.000	0.016	-0.131
-640.668	273.679	-0.082	0.146
-639.653	-200.000	0.062	-0.338
-638.638	438.229	0.053	0.117
-637.624	-73.761	0.223	0.082
-636.609	-71.524	0.517	0.196
-635.595	-6.082	-0.115	-0.080
-634.580	7.461	0.381	-0.289
-633.565	800.000	-0.053	0.161
-632.551	32.830	0.141	0.123
-631.536	-40.067	-0.246	0.130
-630.522	-200.000	-0.006	-0.103
-629.507	-134.002	-0.191	-0.024
-628.492	-72.719	0.357	0.133
-627.478	800.000	0.041	0.171
-626.463	298.034	-0.096	-0.179
-625.449	5.008	-0.261	0.194
-624.434	83.302	0.134	-0.148
-623.419	23.457	-0.067	-0.055
-622.405	40.066	-0.354	0.322
-621.390	265.052	0.151	-0.266
-620.376	51.911	0.170	0.164
-619.361	381.631	-0.086	0.178
-618.346	800.000	-0.107	-0.309
-617.332	-128.767	-0.178	0.025
-616.317	570.969	0.051	-0.126
-615.303	1.020	0.141	-0.102
-614.288	0.421	-0.127	-0.092
-613.273	108.001	0.160	0.193
-612.259	-200.000	0.005	-0.387
-611.244	-116.858	-0.107	-0.020
-610.230	-200.000	-0.013	-0.088
-609.215	223.072	0.118	-0.192
-608.201	-39.182	-0.147	0.078
-607.186	43.055	0.118	-0.108
-606.171	-127.309	0.250	-0.037
-605.157	-48.972	-0.314	0.152
-604.142	51.093	0.107	-0.103
-603.128	-97.725	-0.397	0.104
-602.113	-35.985	-0.097	-0.053
-601.098	4.617	0.022	0.016
-600.084	-27.240	0.274	-0.161
-599.069	800.000	0.036	-0.155
-598.055	34.908	0.137	0.121
-597.040	-56.086	0.163	0.073
-596.025	-87.453	-0.261	-0.080
-595.011	238.880	0.180	-0.303
-593.996	12.339	-0.268	0.209
-592.982	661.698	-0.149	-0.389
-591.967	-131.989	0.266	-0.035
-590.952	-77.484	-0.050	-0.018
-589.938	133.903	-0.134	0.176
-588.923	-200.000	0.022	-0.231
-587.909	1.710	-0.129	-0.094
-586.894	-200.000	-0.009	-0.067
-585.879	800.000	-0.033	0.106
-584.865	325.442	0.094	-0.182
-583.850	268.963	-0.197	0.350
-582.836	-200.000	-0.048	0.431
-581.821	-56.991	-0.089	0.040
-580.806	-47.618	0.157	-0.077
-579.792	-106.760	0.211	0.047
-578.777	28.450	-0.394	0.336
-577.763	-200.000	0.060	-0.365
-576.748	181.670	0.184	-0.274
-575.733	-28.447	-0.148	0.086
-574.719	-116.017	-0.340	0.064
-573.704	42.029	0.182	-0.167
-572.690	-20.493	-0.076	-0.047
-571.675	535.612	0.136	-0.327
-570.661	-200.000	0.024	-0.401
-569.646	-94.410	0.130	-0.036
-568.631	26.629	0.204	0.173
-567.617	5.402	-0.081	0.060
-566.602	800.000	-0.078	-0.271
-565.588	-101.831	0.106	0.026
-564.573	14.616	0.145	-0.114
-563.558	-144.254	-0.411	0.039
-562.544	-108.089	0.252	-0.055
-561.529	-128.236	-0.419	0.060
-560.515	-200.000	0.002	0.078
-559.500	-53.990	-0.186	-0.086
-558.485	800.000	0.039	0.170
-557.471	-200.000	0.033	0.000
-556.456	-22.142	-0.113	-0.069
-555.442	-48.944	-0.281	-0.136
-554.427	98.261	-0.078	0.090
-553.412	-75.194	-0.354	0.127
-552.398	35.533	-0.182	-0.161
-551.383	-200.000	-0.057	0.254
-550.369	16.350	-0.253	-0.202
-549.354	-200.000	0.022	-0.270
-548.339	800.000	0.084	0.294
-547.325	-63.212	-0.379	-0.157
-546.310	157.609	0.124	0.173
-545.296	-200.000	0.249	0.000
-544.281	-166.476	0.116	-0.005
-543.266	-58.103	0.233	0.103
-542.252	498.899	-0.177	-0.412
-541.237	800.000	-0.063	0.208
-540.223	-200.000	-0.047	0.366
-539.208	160.735	0.203	-0.286
-538.193	800.000	0.043	0.120
-537.179	-200.000	-0.007	-0.185
-536.164	-200.000	-0.024	0.166
-535.150	-200.000	0.018	0.277
-534.135	-81.699	-0.227	0.075
-533.121	-120.608	-0.446	0.076
-532.106	271.037	0.035	-0.062
-531.091	-200.000	-0.021	0.201
-530.077	276.865	0.126	0.226
-529.062	-124.703	0.450	-0.070
-528.048	227.973	-0.048	0.078
-527.033	-200.000	0.013	0.106
-526.018	-200.000	-0.018	0.197
-525.004	-118.427	0.102	-0.018
-523.989	-138.487	-0.197	0.022
-522.975	225.470	0.076	0.124
-521.960	283.219	-0.046	-0.084
-520.945	-106.499	-0.167	-0.037
-519.931	-85.472	0.116	-0.036
-518.916	-79.316	-0.291	0.099
-517.902	-9.334	-0.045	0.030
-516.887	-200.000	-0.032	0.266
-515.872	12.840	-0.126	-0.098
-514.858	-200.000	0.013	0.446
-513.843	272.469	0.099	0.176
-512.829	-185.456	-0.238	0.004
-511.814	-115.721	0.113	-0.021
-510.799	-198.116	0.342	0.002
-509.785	44.976	0.126	0.117
-508.770	-119.939	0.140	0.024
-507.756	-152.421	0.137	-0.010
-506.741	82.139	-0.249	-0.272
-505.726	-103.942	-0.178	0.042
-504.712	-24.470	-0.109	0.065
-503.697	800.000	-0.015	0.049
-502.683	-42.350	0.126	-0.065
-501.668	-200.000	-0.019	-0.103
-500.653	-164.644	-0.074	0.003
-499.639	20.077	0.211	-0.171
-498.624	112.670	-0.246	0.299
-497.610	-6.970	-0.230	-0.158
-496.595	-200.000	0.054	-0.434
-495.581	132.630	0.093	-0.120
-494.566	-200.000	0.038	-0.260
-493.551	503.512	-0.108	-0.251
-492.537	-95.791	0.068	-0.018
-491.522	-9.861	0.224	-0.150
-490.508	-106.369	0.157	-0.035
-489.493	496.571	0.068	-0.158
-488.478	672.473	-0.118	-0.308
-487.464	-48.169	0.233	-0.113
-486.449	800.000	0.047	-0.134
-485.435	568.449	0.086	0.210
-484.420	-7.227	0.178	-0.122
-483.405	282.275	-0.104	-0.188
-482.391	-0.316	0.117	-0.084
-481.376	800.000	0.033	0.122
-480.362	49.744	-0.330	0.313
-479.347	-106.917	0.181	0.040
-478.332	-177.042	-0.043	-0.001
-477.318	800.000	-0.018	-0.070
-476.303	-200.000	0.009	-0.231
-475.289	228.760	0.127	-0.207
-474.274	-46.960	-0.399	-0.196
-473.259	800.000	0.116	-0.343
-472.245	-200.000	-0.066	0.338
-471.230	800.000	0.073	-0.267
-470.216	232.666	0.130	0.215
-469.201	196.743	0.069	0.106
-468.186	-47.723	-0.269	0.131
-467.172	-190.046	-0.278	0.003
-466.157	107.786	-0.095	-0.114
-465.143	-200.000	0.029	-0.149
-464.128	42.708	-0.030	0.027
-463.113	-46.515	-0.178	-0.088
-462.099	224.737	0.138	-0.224
-461.084	680.605	0.007	-0.017
-460.070	-123.281	-0.118	0.019
-459.055	-95.298	0.278	-0.075
-458.040	-200.000	0.006	0.342
-457.026	-58.964	0.144	0.062
-456.011	-94.524	0.274	-0.075
-454.997	-87.037	-0.170	-0.052
-453.982	115.115	-0.262	-0.322
-452.968	-123.251	-0.335	-0.054
-451.953	456.504	0.054	-0.121
-450.938	271.779	-0.038	-0.067
-449.924	42.707	0.218	-0.199
-448.909	-59.525	-0.119	0.051
-447.895	118.712	-0.057	-0.071
-446.880	35.356	-0.191	0.169
-445.865	14.940	-0.117	0.092
-444.851	-119.990	0.337	0.058
-443.836	800.000	-0.039	-0.111
-442.822	-200.000	-0.016	0.276
-441.807	12.894	0.170	0.132
-440.792	229.014	0.014	0.023
-439.778	-200.000	0.027	0.170
-438.763	-11.515	-0.308	0.203
-437.749	4.558	0.069	-0.051
-436.734	-129.929	-0.060	-0.008
-435.719	-180.879	-0.178	-0.004
-434.705	800.000	0.057	-0.174
-433.690	-98.204	-0.373	0.096
-432.676	800.000	0.045	0.162
-431.661	800.000	-0.093	0.265
-430.646	110.094	0.262	0.316
-429.632	-85.186	0.217	0.068
-428.617	-88.722	-0.130	0.039
-427.603	212.382	-0.125	0.197
-426.588	-200.000	-0.011	0.117
-425.573	800.000	-0.097	-0.335
-424.559	6.195	-0.171	-0.127
-423.544	-15.937	-0.208	0.133
-422.530	-30.952	-0.112	0.064
-421.515	-112.500	-0.057	0.011
-420.500	112.776	0.257	0.312
-419.486	283.142	-0.110	-0.199
-418.471	51.657	-0.166	-0.159
-417.457	-200.000	-0.001	0.101
-416.442	-200.000	-0.061	0.336
-415.428	-188.817	-0.263	0.003
-414.413	-19.259	-0.182	-0.113
-413.398	800.000	0.117	0.367
-412.384	121.943	-0.094	0.118
-411.369	23.608	-0.124	0.103
-410.355	360.252	-0.102	0.205
-409.340	-77.468	0.271	-0.094
-408.325	38.188	-0.419	-0.374
-407.311	249.653	0.122	0.208
-406.296	-200.000	-0.004	0.039
-405.282	247.450	-0.127	0.215
-404.267	48.440	0.065	-0.061
-403.252	93.420	0.068	0.077
-402.238	-131.786	-0.211	-0.028
-401.223	93.419	-0.078	-0.088
-400.209	74.536	-0.283	0.299
-399.194	321.104	0.026	-0.049
-398.179	-123.602	-0.258	0.041
-397.165	80.992	0.085	-0.092
-396.150	26.239	0.191	0.160
-395.136	-200.000	-0.046	-0.374
-394.121	101.361	-0.124	-0.144
-393.106	68.054	-0.113	-0.115
-392.092	-80.514	-0.176	0.059
-391.077	708.868	0.180	0.478
-390.063	-154.869	0.195	-0.013
-389.048	-92.777	0.089	-0.025
-388.033	-200.000	-0.047	-0.605
-387.019	-157.088	0.242	0.015
-386.004	-158.504	0.177	0.010
-384.990	48.314	-0.173	-0.162
-383.975	6.978	-0.038	-0.029
-382.960	12.357	-0.181	-0.140
-381.946	-48.593	0.148	0.071
-380.931	-119.859	-0.211	0.036
-379.917	-32.785	0.105	0.058
-378.902	-81.818	-0.285	-0.093
-377.888	-200.000	0.015	0.110
-376.873	-200.000	-0.043	-0.215
-375.858	79.981	0.152	0.163
-374.844	299.298	-0.140	0.259
-373.829	96.329	-0.095	0.109
-372.815	5.206	-0.246	-0.182
-371.800	800.000	0.107	-0.430
-370.785	-200.000	-0.046	-0.309
-369.771	-200.000	0.052	-0.249
-368.756	800.000	0.163	-0.567
-367.742	83.005	0.135	-0.147
-366.727	-200.000	-0.019	-0.212
-365.712	144.806	0.186	-0.248
-364.698	32.171	0.084	0.073
-363.683	16.912	0.159	-0.126
-362.669	281.237	-0.114	0.205
-361.654	29.178	-0.160	-0.136
-360.639	77.144	0.080	0.085
-359.625	54.748	0.050	0.049
-358.610	356.748	0.096	-0.192
-357.596	-148.528	0.071	0.006
-356.581	37.502	-0.109	0.096
-355.566	-200.000	-0.033	0.225
-354.552	527.901	-0.096	0.228
-353.537	-183.348	0.009	0.000
-352.523	-72.888	0.293	0.108
-351.508	-145.987	0.204	-0.018
-350.493	293.730	0.048	0.088
-349.479	299.261	0.098	-0.181
-348.464	800.000	-0.052	-0.188
-347.450	-58.609	0.081	0.035
-346.435	302.092	-0.068	0.126
-345.420	-200.000	0.160	0.707
-344.406	138.038	0.197	0.258
-343.391	81.952	-0.155	-0.168
-342.377	-200.000	0.001	0.049
-341.362	-55.587	0.247	0.111
-340.348	-114.438	0.137	-0.026
-339.333	-89.836	-0.149	0.044
-338.318	34.440	-0.161	-0.140
-337.304	-200.000	0.181	0.000
-336.289	-92.822	0.178	0.050
-335.275	77.108	0.232	-0.247
-334.260	-194.489	0.155	-0.001
-333.245	59.986	0.294	-0.290
-332.231	-81.923	0.272	-0.089
-331.216	-18.893	0.098	-0.061
-330.202	624.865	0.101	0.255
-329.187	800.000	-0.101	-0.320
-328.172	-120.112	-0.266	0.046
-327.158	-48.505	-0.253	-0.122
-326.143	800.000	0.021	0.066
-325.129	81.790	-0.151	-0.163
-324.114	308.719	-0.077	-0.144
-323.099	743.604	0.135	0.363
-322.085	255.125	0.159	0.272
-321.070	172.967	-0.100	0.144
-320.056	2.367	-0.312	0.226
-319.041	129.565	-0.167	0.213
-318.026	723.539	-0.111	0.296
-317.012	-36.543	0.027	0.014
-315.997	128.160	0.102	0.129
-314.983	-76.755	-0.261	0.091
-313.968	800.000	-0.067	0.289
-312.953	7.561	0.202	0.151
-311.939	-200.000	0.066	0.319
-310.924	800.000	-0.193	-0.536
-309.910	13.998	0.174	-0.135
-308.895	-200.000	-0.014	0.341
-307.880	-167.381	-0.452	-0.018
-306.866	5.814	-0.216	0.160
-305.851	-79.096	-0.175	0.059
-304.837	-128.367	-0.287	0.041
-303.822	43.693	0.336	0.307
-302.807	75.969	0.051	0.054
-301.793	-68.556	0.335	-0.130
-300.778	-200.000	0.003	-0.126
-299.764	142.338	0.256	-0.339
-298.749	-118.513	-0.203	0.036
-297.735	208.608	-0.234	0.366
-296.720	-60.038	-0.073	-0.031
-295.705	105.085	-0.242	0.285
-294.691	-4.817	-0.264	-0.181
-293.676	-200.000	0.004	-0.154
-292.662	-200.000	0.051	-0.303
-291.647	-83.592	0.102	-0.033
-290.632	-200.000	0.017	-0.135
-289.618	94.941	-0.081	-0.092
-288.603	-200.000	0.023	0.116
-287.589	630.727	0.037	0.093
-286.574	116.187	0.070	0.085
-285.559	305.931	0.168	-0.311
-284.545	-69.418	-0.193	0.074
-283.530	-4.964	0.044	0.030
-282.516	131.163	0.239	0.306
-281.501	91.214	-0.088	0.098
-280.486	-107.736	-0.196	-0.043
-279.472	-10.003	-0.099	0.066
-278.457	-200.000	0.025	0.460
-277.443	-28.100	0.040	0.023
-276.428	122.832	0.174	0.217
-275.413	-200.000	-0.006	0.094
-274.399	-17.433	0.395	0.248
-273.384	800.000	-0.074	-0.278
-272.370	-200.000	0.006	0.103
-271.355	-51.978	-0.074	-0.034
-270.340	-44.127	-0.253	-0.127
-269.326	294.028	-0.119	-0.216
-268.311	800.000	0.092	-0.342
-267.297	-81.890	0.374	0.122
-266.282	-200.000	-0.016	-0.125
-265.267	-108.364	-0.101	0.022
-264.253	112.526	0.078	0.094
-263.238	-200.000	0.000	-0.396
-262.224	-93.162	-0.273	0.076
-261.209	-47.594	-0.255	0.123
-260.195	-118.169	0.122	0.022
-259.180	-113.552	0.213	-0.041
-258.165	39.296	0.018	-0.016
-257.151	155.415	-0.198	0.272
-256.136	800.000	-0.072	-0.273
-255.122	168.038	-0.136	-0.193
-254.107	180.324	-0.060	-0.087
-253.092	-55.944	-0.159	-0.071
-252.078	-92.852	-0.207	-0.058
-251.063	106.600	0.098	-0.115
-250.049	-17.627	0.265	-0.166
-249.034	198.697	0.233	-0.355
-248.019	295.874	0.073	-0.133
-247.005	-19.725	-0.101	-0.062
-245.990	-165.830	0.131	-0.006
-244.976	-9.370	-0.021	0.014
-243.961	172.782	0.107	0.154
-242.946	800.000	-0.067	-0.288
-241.932	-200.000	0.030	-0.228
-240.917	247.383	0.120	-0.203
-239.903	69.413	0.136	0.139
-238.888	-55.270	-0.169	0.076
-237.873	-101.005	-0.024	-0.006
-236.859	-148.897	0.282	0.023
-235.844	64.959	0.206	0.208
-234.830	-70.044	-0.141	-0.054
-233.815	-41.142	-0.155	-0.080
-232.800	110.557	0.196	-0.235
-231.786	-57.158	0.187	0.082
-230.771	-200.000	-0.017	-0.130
-229.757	381.216	0.073	0.149
-228.742	18.836	0.085	0.068
-227.727	-200.000	-0.007	0.088
-226.713	-200.000	0.036	-0.186
-225.698	-200.000	-0.002	0.259
-224.684	-46.868	0.026	-0.013
-223.669	22.409	0.120	-0.098
-222.655	-200.000	-0.044	0.236
-221.640	800.000	0.054	-0.170
-220.625	-92.872	-0.006	-0.002
-219.611	-50.332	-0.325	-0.153
-218.596	-125.240	0.450	0.069
-217.582	485.784	0.057	0.129
-216.567	-12.021	0.125	-0.082
-215.552	641.522	0.127	0.323
-214.538	72.322	-0.066	-0.069
-213.523	-200.000	0.015	0.142
-212.509	104.536	0.094	0.111
-211.494	-113.068	-0.252	-0.050
-210.479	330.161	0.077	0.148
-209.465	-137.600	-0.163	-0.018
-208.450	-100.831	-0.118	-0.029
-207.436	645.899	-0.060	-0.152
-206.421	210.042	-0.199	0.310
-205.406	-200.000	-0.019	-0.213
-204.392	242.793	-0.122	0.204
-203.377	38.312	0.102	0.091
-202.363	-124.481	0.113	-0.018
-201.348	-67.087	-0.135	-0.053
-200.333	-200.000	0.003	0.212
-199.319	-161.281	-0.196	0.010
-198.304	-164.989	0.232	-0.010
-197.290	-102.108	0.117	-0.028
-196.275	-102.416	0.062	0.015
-195.260	252.006	-0.130	-0.220
-194.246	-200.000	-0.025	-0.289
-193.231	60.991	0.283	-0.279
-192.217	-200.000	0.017	-0.081
-191.202	58.020	-0.059	-0.058
-190.187	-152.014	-0.270	0.020
-189.173	-2.662	0.272	0.189
-188.158	-200.000	-0.010	0.184
-187.144	-161.367	0.041	0.002
-186.129	163.084	0.067	-0.094
-185.114	54.484	0.211	0.202
-184.100	-148.767	0.148	-0.012
-183.085	-200.000	0.067	0.433
-182.071	-97.609	0.466	-0.120
-181.056	-30.390	0.113	0.064
-180.042	800.000	0.076	-0.309
-179.027	-200.000	0.035	0.463
-178.012	-96.825	0.167	-0.044
-176.998	17.734	0.190	-0.150
-175.983	521.817	-0.021	0.048
-174.969	90.509	0.074	0.083
-173.954	104.040	0.128	0.150
-172.939	-20.160	-0.436	-0.267
-171.925	-200.000	0.025	0.260
-170.910	-23.636	0.231	0.138
-169.896	-38.386	0.232	0.122
-168.881	-200.000	0.010	0.270
-167.866	467.948	-0.049	0.109
-166.852	62.819	0.089	0.088
-165.837	-200.000	-0.022	-0.099
-164.823	31.895	-0.183	0.157
-163.808	108.900	0.239	0.284
-162.793	-132.727	-0.181	0.023
-161.779	106.461	-0.304	0.358
-160.764	-190.124	0.039	-0.000
-159.750	800.000	-0.152	-0.487
-158.735	127.774	0.070	-0.089
-157.720	-50.856	0.232	-0.108
-156.706	-116.035	0.201	0.037
-155.691	213.241	0.117	-0.184
-154.677	-200.000	0.205	0.000
-153.662	-80.821	0.085	0.028
-152.647	-40.189	0.275	-0.142
-151.633	177.326	-0.108	0.157
-150.618	-101.055	0.376	-0.092
-149.604	800.000	-0.013	0.041
-148.589	183.167	0.265	0.388
-147.574	434.282	-0.069	-0.148
-146.560	-105.243	0.324	0.073
-145.545	-135.184	0.119	0.014
-144.531	145.898	0.031	0.041
-143.516	-155.929	-0.265	0.017
-142.502	-119.794	0.027	0.005
-141.487	-80.648	0.167	0.055
-140.472	83.413	-0.175	0.189
-139.458	143.085	0.086	-0.114
-138.443	172.909	0.098	-0.140
-137.429	576.010	-0.193	-0.469
-136.414	65.033	-0.217	-0.218
-135.399	-143.727	0.423	0.040
-134.385	800.000	-0.038	-0.117
-133.370	20.112	0.339	-0.272
-132.356	119.353	-0.124	0.152
-131.341	-200.000	0.005	0.147
-130.326	800.000	-0.111	0.383
-129.312	-120.957	-0.241	0.040
-128.297	103.538	-0.355	0.413
-127.283	232.847	0.049	0.080
-126.268	-87.515	-0.345	0.104
-125.253	10.879	0.186	-0.141
-124.239	-200.000	0.027	-0.215
-123.224	-65.867	0.292	-0.116
-122.210	450.791	0.115	-0.251
-121.195	-52.870	-0.255	0.116
-120.180	-67.561	0.123	0.048
-119.166	541.575	-0.117	-0.277
-118.151	179.763	-0.156	-0.226
-117.137	-200.000	0.021	0.092
-116.122	47.147	0.055	0.051
-115.107	-200.000	0.030	-0.163
-114.093	-200.000	0.054	0.318
-113.078	-182.027	-0.256	-0.005
-112.064	135.256	-0.209	0.270
-111.049	92.014	0.257	-0.287
-110.034	-200.000	-0.003	-0.119
-109.020	800.000	0.021	-0.062
-108.005	-82.575	-0.205	-0.066
-106.991	-153.670	0.073	0.005
-105.976	-160.300	-0.233	0.012
-104.962	204.117	-0.070	-0.107
-103.947	-29.146	-0.201	-0.114
-102.932	19.167	0.136	0.108
-101.918	-78.284	0.101	-0.034
-100.903	-45.832	0.305	-0.149
-99.889	-200.000	-0.030	-0.168
-98.874	-52.841	-0.417	0.190
-97.859	-169.231	-0.101	-0.004
-96.845	173.639	0.224	-0.321
-95.830	-200.000	0.052	-0.439
-94.816	142.707	0.050	-0.065
-93.801	-124.527	-0.154	-0.024
-92.786	234.114	-0.181	0.295
-91.772	453.966	0.088	-0.193
-90.757	-200.000	0.038	0.325
-89.743	546.111	0.174	0.412
-88.728	154.688	0.391	-0.532
-87.713	213.136	-0.018	-0.029
-86.699	-62.121	-0.043	-0.018
-85.684	276.109	-0.183	0.322
-84.670	251.317	-0.168	0.283
-83.655	118.046	0.025	0.031
-82.640	145.797	-0.208	-0.276
-81.626	126.497	0.234	-0.293
-80.611	127.100	0.066	0.083
-79.597	62.894	0.127	-0.126
-78.582	-67.314	-0.084	0.033
-77.567	666.095	0.135	0.344
-76.553	132.395	0.075	-0.096
-75.538	117.263	0.188	0.228
-74.524	-200.000	0.030	-0.225
-73.509	-146.654	0.052	-0.004
-72.494	66.025	0.212	-0.213
-71.480	-47.216	-0.093	0.045
-70.465	-200.000	0.045	-0.337
-69.451	272.578	-0.189	-0.331
-68.436	112.056	-0.216	-0.259
-67.422	-65.840	-0.109	-0.043
-66.407	-200.000	-0.044	0.221
-65.392	800.000	0.093	0.282
-64.378	-63.986	0.464	-0.187
-63.363	-200.000	-0.013	-0.124
-62.349	111.599	-0.173	0.207
-61.334	135.427	-0.728	-0.937
-60.319	80.204	0.293	0.312
-59.305	453.570	-0.349	-0.765
-58.290	183.628	0.643	0.941
-57.276	213.332	0.966	1.510
-56.261	-200.000	98.442	582.552
-55.246	638.025	1399.259	3518.161
-54.232	186.274	2607.588	3837.744
-53.217	122.566	2179.609	2695.747
-52.203	46.679	1630.348	1497.429
-51.188	38.097	1365.805	1201.871
-50.173	34.914	1322.588	1144.779
-49.159	57.046	1372.619	1323.483
-48.144	61.317	1390.051	1366.211
-47.130	38.537	1344.130	1185.272
-46.115	34.786	1326.603	1147.307
-45.100	34.728	1321.662	1142.638
-44.086	34.648	1319.318	1140.092
-43.071	34.491	1317.100	1137.196
-42.057	34.521	1315.126	1135.624
-41.042	34.544	1313.440	1134.259
-40.027	34.572	1311.780	1132.945
-39.013	34.643	1309.664	1131.491
-37.998	34.610	1307.938	1129.762
-36.984	34.587	1305.906	1127.827
-35.969	34.736	1304.215	1127.201
-34.954	34.688	1302.410	1125.313
-33.940	34.772	1301.760	1125.199
-32.925	34.774	1300.082	1123.716
-31.911	34.694	1298.668	1121.980
-30.896	34.686	1297.451	1120.839
-29.881	34.733	1296.367	1120.133
-28.867	34.806	1294.613	1119.004
-27.852	34.729	1293.252	1117.329
-26.838	34.707	1291.605	1115.733
-25.823	34.689	1290.010	1114.206
-24.809	34.570	1289.422	1112.963
-23.794	34.716	1287.662	1112.249
-22.779	34.799	1285.905	1111.167
-21.765	34.807	1284.966	1110.361
-20.750	34.835	1283.484	1109.198
-19.736	34.564	1282.996	1107.158
-18.721	34.734	1281.001	1106.380
-17.706	34.778	1279.771	1105.528
-16.692	34.534	1278.952	1103.364
-15.677	34.655	1277.839	1103.057
-14.663	34.739	1276.139	1102.035
-13.648	34.670	1275.440	1100.989
-12.633	34.672	1274.324	1099.995
-11.619	34.607	1273.576	1098.929
-10.604	34.573	1273.122	1098.300
-9.590	34.631	1271.621	1097.291
-8.575	34.691	1270.514	1096.639
-7.560	34.613	1269.761	1095.498
-6.546	34.463	1269.595	1094.451
-5.531	34.572	1268.367	1093.971
-4.517	34.531	1267.390	1092.853
-3.502	34.634	1266.772	1092.866
-2.487	34.647	1265.347	1091.667
-1.473	34.555	1261.576	1087.843
-0.458	33.055	1246.558	1066.394
0.556	31.053	1226.607	1023.453
1.571	26.775	1230.213	1002.764
2.586	25.286	1244.480	1005.965
3.600	23.766	1232.510	987.756
4.615	17.898	1160.052	898.805
5.629	9.282	1084.107	797.319
6.644	5.147	1063.350	761.838
7.659	4.808	1060.096	757.787
8.673	4.653	1058.784	756.029
9.688	4.503	1058.085	754.737
10.702	5.206	1057.326	757.538
11.717	11.039	1064.707	791.184
12.731	19.283	1076.567	840.287
13.746	22.315	1079.508	857.306
14.761	21.819	1078.337	853.887
15.775	20.964	1076.343	848.073
16.790	19.822	1074.508	841.004
17.804	19.182	1072.759	836.456
18.819	18.872	1071.770	834.106
19.834	18.760	1071.104	832.972
20.848	18.627	1070.255	831.591
21.863	18.316	1069.957	829.779
22.877	18.276	1068.680	828.521
23.892	18.188	1067.994	827.489
24.907	18.162	1067.290	826.745
25.921	18.195	1065.917	825.771
26.936	18.231	1064.815	825.015
27.950	18.214	1063.446	823.800
28.965	18.278	1062.059	822.963
29.980	18.488	1060.646	822.802
30.994	18.514	1059.704	822.122
32.009	18.565	1059.069	821.800
33.023	18.571	1057.617	820.633
34.038	18.416	1057.359	819.618
35.053	18.296	1055.995	817.911
36.067	18.337	1055.011	817.273
37.082	18.423	1054.327	817.085
38.096	18.401	1053.749	816.455
39.111	18.505	1052.882	816.207
40.126	18.292	1051.444	814.010
41.140	18.104	1049.759	811.741
42.155	17.956	1048.734	810.171
43.169	17.949	1047.619	809.209
44.184	17.959	1046.604	808.400
45.199	17.874	1045.791	807.296
46.213	18.203	1044.585	807.850
47.228	18.309	1043.585	807.503
48.242	18.330	1042.861	806.973
49.257	18.370	1041.584	806.100
50.271	18.309	1041.150	805.408
51.286	18.369	1040.319	804.975
52.301	18.331	1038.862	803.596
53.315	18.208	1037.794	802.124
54.330	18.107	1036.775	800.792
55.344	18.083	1036.128	800.111
56.359	18.144	1035.154	799.571
57.374	18.050	1034.546	798.590
58.388	17.996	1033.304	797.312
59.403	17.863	1032.632	796.102
60.417	17.848	1031.930	795.418
61.432	17.872	1031.268	794.948
62.447	17.790	1030.210	793.684
63.461	17.660	1029.551	792.499
64.476	17.833	1028.533	792.448
65.490	17.804	1027.321	791.311
66.505	17.853	1026.620	790.931
67.520	17.835	1026.050	790.335
68.534	17.863	1025.640	790.080
69.549	17.684	1024.772	788.515
70.563	17.651	1023.842	787.575
71.578	17.646	1022.894	786.756
72.593	17.547	1022.334	785.795
73.607	17.466	1021.807	784.947
74.622	17.624	1020.884	784.898
75.636	17.646	1019.944	784.208
76.651	17.661	1019.828	784.119
77.666	17.758	1019.188	784.001
78.680	17.703	1018.325	783.016
79.695	17.837	1017.524	782.944
80.709	17.932	1017.094	782.982
81.724	17.936	1016.716	782.639
82.739	18.136	1015.688	782.696
83.753	18.243	1015.272	782.794
84.768	18.605	1013.997	783.393
85.782	18.554	1013.796	782.939
86.797	18.544	1013.021	782.225
87.812	18.382	1011.815	780.487
88.826	18.444	1010.655	779.803
89.841	18.483	1009.834	779.278
90.855	18.503	1009.372	778.945
91.870	18.566	1008.494	778.486
92.884	18.539	1007.583	777.591
93.899	18.617	1006.497	777.038
94.914	18.793	1006.022	777.398
95.928	18.653	1005.067	775.957
96.943	18.547	1004.332	774.843
97.957	18.328	1003.656	773.262
98.972	18.490	1002.714	773.200
99.987	18.596	1001.516	772.687
101.001	18.494	1000.425	771.317
102.016	18.512	999.874	770.906
103.030	18.521	999.163	770.329
104.045	18.443	998.750	769.590
105.060	18.290	997.671	768.007
106.074	18.171	996.195	766.271
107.089	17.991	995.026	764.498
108.103	17.927	993.908	763.282
109.118	17.792	993.403	762.227
110.133	17.887	992.288	761.724
111.147	17.920	991.844	761.465
112.162	17.872	991.179	760.673
113.176	17.995	990.369	760.533
114.191	18.089	989.363	760.109
115.206	17.957	988.873	759.079
116.220	18.033	987.860	758.570
117.235	18.050	986.934	757.867
118.249	17.946	986.079	756.687
119.264	17.811	985.439	755.531
120.279	17.743	984.446	754.399
121.293	17.799	983.465	753.830
122.308	17.772	982.603	752.982
123.322	17.626	981.546	751.461
124.337	17.690	980.334	750.749
125.352	17.785	979.293	750.305
126.366	17.630	978.491	748.941
127.381	17.697	977.481	748.396
128.395	17.788	976.581	748.040
129.410	17.819	975.510	747.287
130.424	17.824	975.546	747.271
131.439	18.110	974.517	747.669
132.454	18.091	973.463	746.713
133.468	18.043	973.355	746.353
134.483	18.053	972.270	745.499
135.497	18.137	971.408	745.136
136.512	18.162	970.406	744.412
137.527	18.107	969.671	743.542
138.541	18.126	969.080	743.106
139.556	18.224	968.645	743.134
140.570	18.250	967.576	742.362
141.585	18.523	966.756	742.848
142.600	18.482	965.790	741.865
143.614	18.519	965.433	741.684
144.629	18.683	964.609	741.693
145.643	18.468	964.056	740.275
146.658	18.317	962.422	738.303
147.673	18.342	961.597	737.713
148.687	18.175	960.843	736.349
149.702	18.042	959.599	734.759
150.716	18.044	959.185	734.387
151.731	18.090	958.179	733.749
152.746	18.192	957.291	733.438
153.760	18.116	957.187	732.971
154.775	18.367	956.275	733.280
155.789	18.323	955.958	732.786
156.804	18.430	954.900	732.369
157.819	18.475	954.283	732.019
158.833	18.636	953.587	732.111
159.848	18.689	953.126	731.916
160.862	18.521	951.959	730.241
161.877	18.290	950.950	728.420
162.892	18.262	949.414	727.057
163.906	18.136	948.397	725.679
164.921	18.179	947.498	725.111
165.935	18.240	946.742	724.726
166.950	18.310	945.919	724.328
167.964	18.346	945.117	723.803
168.979	18.273	944.235	722.756
169.994	18.293	943.416	722.148
171.008	18.266	943.128	721.749
172.023	18.494	942.403	722.094
173.037	18.692	941.694	722.318
174.052	18.589	940.807	721.142
175.067	18.330	940.094	719.445
176.081	18.136	939.360	718.002
177.096	18.214	938.807	717.842
178.110	18.257	938.397	717.646
179.125	18.283	937.833	717.262
180.140	18.281	937.190	716.697
181.154	18.468	937.108	717.357
182.169	18.520	936.888	717.340
183.183	18.576	936.137	716.937
184.198	18.604	935.171	716.250
185.213	18.574	934.696	715.697
186.227	18.708	933.997	715.660
187.242	18.744	933.258	715.176
188.256	18.822	932.868	715.139
189.271	18.670	932.644	714.273
190.286	18.544	930.832	712.299
191.300	18.223	929.446	709.842
192.315	18.097	929.015	708.931
193.329	18.144	928.938	709.001
194.344	18.208	928.582	708.933
195.359	18.306	927.814	708.688
196.373	18.542	927.210	709.141
197.388	18.646	927.067	709.400
198.402	18.827	926.498	709.650
199.417	18.876	926.309	709.642
200.432	19.102	925.294	709.734
201.446	19.178	924.729	709.552
202.461	19.276	924.111	709.417
203.475	19.063	923.936	708.346
204.490	18.868	922.847	706.644
205.504	18.696	922.418	705.547
206.519	18.712	921.275	704.678
207.534	18.785	920.663	704.445
208.548	18.774	920.085	703.896
209.563	18.820	919.383	703.484
210.577	18.874	919.014	703.361
211.592	18.875	918.512	702.919
212.607	19.078	917.567	702.963
213.621	18.973	916.872	701.939
214.636	19.078	915.976	701.620
215.650	19.004	915.198	700.660
216.665	19.050	914.843	700.515
217.680	19.167	914.071	700.336
218.694	19.229	913.438	700.041
219.709	19.217	912.636	699.315
220.723	19.137	912.164	698.569
221.738	19.120	911.679	698.065
222.753	19.121	910.838	697.366
223.767	19.225	910.404	697.392
224.782	19.286	910.410	697.582
225.796	19.403	909.202	697.066
226.811	19.194	908.943	695.963
227.826	19.137	907.870	694.850
228.840	19.057	907.143	693.909
229.855	19.258	906.040	693.812
230.869	19.013	905.749	692.541
231.884	19.016	904.972	691.897
232.899	18.835	904.354	690.639
233.913	18.859	903.533	690.048
234.928	18.964	902.486	689.606
235.942	18.940	901.828	688.946
236.957	18.973	901.311	688.624
237.972	18.952	900.856	688.131
238.986	18.840	900.139	687.076
240.001	18.877	900.024	687.073
241.015	19.139	898.848	687.160
242.030	19.067	898.705	686.704
243.045	19.107	897.982	686.252
244.059	19.174	897.637	686.192
245.074	19.302	896.861	686.049
246.088	19.221	896.293	685.232
247.103	19.312	895.648	685.037
248.117	19.472	895.649	685.614
249.132	19.804	894.797	686.218
250.147	19.949	894.709	686.664
251.161	19.944	893.914	685.974
252.176	19.972	892.935	685.275
253.190	19.947	892.459	684.751
254.205	19.932	891.782	684.111
255.220	20.007	891.216	683.911
256.234	19.968	890.390	683.064
257.249	19.963	889.602	682.376
258.263	20.125	888.764	682.312
259.278	20.051	888.341	681.637
260.293	19.949	888.222	681.082
261.307	20.004	887.585	680.751
262.322	20.122	886.809	680.558
263.336	20.189	886.035	680.168
264.351	20.148	885.116	679.242
265.366	20.160	884.602	678.834
266.380	20.163	883.662	678.066
267.395	20.014	883.140	677.023
268.409	20.075	882.172	676.457
269.424	20.115	881.396	675.957
270.439	19.933	881.044	674.922
271.453	19.964	879.867	674.078
272.468	19.920	879.622	673.661
273.482	19.850	879.131	672.953
274.497	19.832	878.696	672.491
275.512	19.867	878.236	672.215
276.526	20.025	877.321	672.067
277.541	20.020	877.169	671.872
278.555	20.133	876.831	671.990
279.570	20.170	876.460	671.793
280.585	20.227	875.180	670.972
281.599	20.137	874.020	669.676
282.614	20.066	873.661	669.066
283.628	20.224	872.707	668.888
284.643	20.126	872.395	668.211
285.657	20.117	871.762	667.630
286.672	20.023	871.325	666.875
287.687	19.997	870.638	666.191
288.701	19.952	870.243	665.659
289.716	20.248	869.435	666.116
290.730	20.154	868.932	665.311
291.745	20.342	868.005	665.266
292.760	20.269	867.799	664.767
293.774	20.437	867.256	664.934
294.789	20.372	866.251	663.858
295.803	20.297	865.476	662.918
296.818	20.192	864.991	662.086
297.833	20.143	864.356	661.356
298.847	20.160	864.022	661.105
299.862	20.301	863.209	660.963
300.876	20.244	863.142	660.635
301.891	20.398	862.326	660.540
302.906	20.532	862.096	660.814
303.920	20.657	861.914	661.091
304.935	20.719	861.257	660.764
305.949	20.661	860.158	659.644
306.964	20.394	859.714	658.232
307.979	20.559	858.791	658.093
308.993	20.591	858.730	658.107
310.008	20.654	857.804	657.578
311.022	20.404	857.394	656.259
312.037	20.348	856.614	655.395
313.052	20.253	855.739	654.307
314.066	20.310	855.052	653.942
315.081	20.171	854.533	652.961
316.095	20.325	854.114	653.165
317.110	20.135	853.980	652.287
318.125	20.308	853.180	652.271
319.139	20.326	852.549	651.799
320.154	20.469	851.796	651.701
321.168	20.337	851.543	650.954
322.183	20.425	850.822	650.674
323.197	20.397	850.674	650.400
324.212	20.431	850.122	650.048
325.227	20.389	849.657	649.478
326.241	20.308	848.892	648.533
327.256	20.328	848.292	648.092
328.270	20.384	847.581	647.699
329.285	20.333	847.204	647.163
330.300	20.377	846.442	646.689
331.314	20.518	845.561	646.483
332.329	20.553	845.759	646.707
333.343	20.632	845.417	646.683
334.358	20.689	845.037	646.547
335.373	20.598	844.960	646.092
336.387	20.757	844.003	645.892
337.402	20.756	844.271	646.037
338.416	20.939	843.642	646.179
339.431	21.004	843.325	646.119
340.446	20.942	843.257	645.779
341.460	21.009	843.000	645.775
342.475	21.164	842.254	645.718
343.489	21.090	842.290	645.415
344.504	21.356	841.049	645.387
345.519	21.276	840.912	644.932
346.533	21.105	840.522	643.942
347.548	21.032	839.749	643.025
348.562	20.773	839.310	641.679
349.577	20.613	838.752	640.605
350.592	20.725	837.536	640.031
351.606	20.787	836.935	639.744
352.621	20.849	836.020	639.216
353.635	20.847	835.633	638.857
354.650	20.940	834.838	638.533
355.665	20.928	834.628	638.269
356.679	20.964	833.989	637.858
357.694	21.084	833.211	637.643
358.708	20.977	832.779	636.867
359.723	21.003	831.996	636.307
360.738	20.963	831.562	635.774
361.752	21.086	831.248	635.926
362.767	21.272	830.370	635.874
363.781	21.304	830.077	635.710
364.796	21.511	829.843	636.229
365.810	21.530	829.584	636.040
366.825	21.555	829.194	635.778
367.840	21.561	828.458	635.178
368.854	21.425	827.818	634.139
369.869	21.390	826.933	633.277
370.883	21.391	826.582	632.956
371.898	21.399	826.861	633.140
372.913	21.579	826.396	633.382
373.927	21.469	825.754	632.437
374.942	21.515	825.153	632.087
375.956	21.563	825.022	632.104
376.971	21.723	824.596	632.297
377.986	21.891	824.042	632.424
379.000	21.897	823.467	631.949
380.015	21.695	822.755	630.617
381.029	21.637	822.234	629.955
382.044	21.686	822.001	629.897
383.059	21.770	821.155	629.494
384.073	21.631	820.376	628.343
385.088	21.440	819.946	627.273
386.102	21.514	818.894	626.677
387.117	21.535	818.370	626.295
388.132	21.485	818.181	625.917
389.146	21.442	817.737	625.366
390.161	21.404	817.780	625.209
391.175	21.661	817.299	625.705
392.190	21.740	815.958	624.905
393.205	21.568	815.542	623.918
394.219	21.387	815.481	623.169
395.234	21.323	814.871	622.421
396.248	21.182	814.398	621.502
397.263	21.205	814.145	621.336
398.278	21.256	813.653	621.087
399.292	21.227	813.509	620.820
400.307	21.362	812.441	620.430
401.321	21.406	812.085	620.258
402.336	21.424	811.404	619.746
403.350	21.519	811.158	619.842
404.365	21.571	811.081	619.910
405.380	21.936	810.170	620.451
406.394	21.871	809.762	619.855
407.409	21.963	809.796	620.150
408.423	22.000	809.425	619.941
409.438	22.027	809.053	619.697
410.453	22.126	808.769	619.774
411.467	22.126	808.497	619.512
412.482	22.063	808.024	618.873
413.496	22.158	807.780	618.964
414.511	22.175	807.300	618.602
415.526	22.110	806.762	617.905
416.540	22.075	805.814	617.004
417.555	22.162	805.484	617.002
418.569	22.278	805.128	617.082
419.584	22.173	804.569	616.228
420.599	22.318	804.015	616.257
421.613	159.946	1369.822	1790.199
422.628	138.970	1452.277	1790.283
