DTS Sentinel unit serial number:	SN413079Multiplexer serial number:	ORYXHardware model number:	OX4-SRSoftware version number:	ORYX F/W v4.00 Oryx Data Collector v3.7.2.0data status	okinstallation	princeton_trtdifferential loss correction	single-endedforward channel	channel 1reverse channel	N/Adate	2019/09/15time	19:26:35forward acquisition time	60.00reverse acquisition time	0.00gamma	496.2192k internal	0.2299k external	0.2299temperature offset calibration	0.9956default loss term (dB/km)	0.3790temperature slope calibration	1.0000multiplexer offset coefficient	1.0000multiplexer slope coefficient	1.0000fibre end	0.00T internal ref (°C)	39.14T ext. ref 1 (°C)	7.27T ext. ref 2 (°C)	28.67length (m)	temperature (°C)	Stokes	anti-Stokes-747.200	-135.124	-0.081	0.010
-746.185	-93.421	-0.335	0.095
-745.171	-59.957	0.350	0.153
-744.156	-200.000	0.037	0.347
-743.142	220.601	-0.111	-0.181
-742.127	-150.240	-0.360	0.028
-741.112	94.151	-0.028	0.033
-740.098	1.847	0.428	0.315
-739.083	180.625	-0.116	0.173
-738.069	116.097	-0.218	0.273
-737.054	52.906	-0.245	0.239
-736.039	-200.000	-0.043	0.485
-735.025	800.000	-0.118	0.433
-734.010	-200.000	0.007	-0.192
-732.996	-103.726	-0.377	0.090
-731.981	-200.000	-0.057	-0.262
-730.966	-69.063	-0.586	-0.230
-729.952	800.000	0.032	-0.125
-728.937	-97.312	-0.228	-0.061
-727.923	320.958	-0.030	0.058
-726.908	99.505	-0.133	0.157
-725.894	-43.808	-0.071	0.036
-724.879	47.057	-0.101	-0.096
-723.864	327.532	0.195	-0.381
-722.850	127.300	0.027	0.035
-721.835	-98.982	-0.151	0.039
-720.821	-24.685	-0.113	0.068
-719.806	-26.301	-0.217	0.130
-718.791	-143.392	-0.330	-0.032
-717.777	-200.000	-0.025	-0.452
-716.762	-57.157	-0.230	-0.103
-715.748	800.000	0.051	-0.187
-714.733	-200.000	-0.015	0.116
-713.718	23.008	0.187	0.157
-712.704	13.977	0.206	0.163
-711.689	-93.554	-0.054	-0.015
-710.675	-144.363	-0.122	0.012
-709.660	267.207	-0.084	-0.151
-708.645	122.927	0.121	-0.155
-707.631	193.207	-0.323	0.497
-706.616	302.121	-0.165	-0.310
-705.602	160.937	0.341	0.485
-704.587	-167.012	0.239	0.010
-703.572	541.981	-0.063	0.153
-702.558	612.615	-0.181	0.461
-701.543	426.945	0.074	-0.162
-700.529	262.065	-0.100	-0.177
-699.514	-46.645	0.202	0.101
-698.499	-52.230	-0.312	0.147
-697.485	437.090	-0.060	-0.134
-696.470	148.435	0.013	0.017
-695.456	800.000	0.027	0.102
-694.441	-28.759	-0.163	-0.096
-693.426	-56.910	-0.066	-0.030
-692.412	-110.816	-0.240	-0.050
-691.397	-200.000	-0.002	0.079
-690.383	-200.000	0.016	0.159
-689.368	-101.403	-0.109	-0.027
-688.354	-200.000	-0.024	-0.286
-687.339	-25.097	-0.214	-0.129
-686.324	-40.200	-0.233	-0.124
-685.310	221.027	-0.087	0.142
-684.295	-92.874	-0.252	0.072
-683.281	10.973	-0.167	-0.130
-682.266	800.000	0.151	-0.456
-681.251	122.174	-0.207	-0.263
-680.237	-200.000	-0.007	-0.187
-679.222	-200.000	-0.045	-0.250
-678.208	-112.989	0.116	-0.023
-677.193	219.763	-0.060	-0.098
-676.178	-71.510	0.058	0.022
-675.164	19.674	-0.174	-0.143
-674.149	-200.000	-0.024	-0.482
-673.135	84.492	-0.109	0.121
-672.120	-81.978	-0.313	-0.104
-671.105	128.020	0.260	-0.337
-670.091	564.314	-0.081	-0.199
-669.076	-200.000	-0.010	-0.088
-668.062	80.826	-0.081	-0.089
-667.047	-113.216	0.189	0.038
-666.032	800.000	0.033	-0.094
-665.018	93.475	-0.122	-0.141
-664.003	8.055	0.114	0.087
-662.989	-26.862	-0.235	0.140
-661.974	-39.467	0.074	0.039
-660.959	-200.000	-0.009	-0.127
-659.945	-56.271	0.253	-0.114
-658.930	-65.636	-0.073	0.030
-657.916	-118.251	-0.189	0.034
-656.901	-112.604	-0.271	0.055
-655.886	70.183	0.185	-0.194
-654.872	-88.540	-0.310	-0.094
-653.857	800.000	-0.045	-0.137
-652.843	389.138	-0.033	0.070
-651.828	-79.068	-0.342	-0.118
-650.814	-99.737	0.560	0.143
-649.799	65.441	-0.256	-0.263
-648.784	455.684	0.090	-0.204
-647.770	-75.500	-0.155	0.056
-646.755	-74.563	-0.195	-0.071
-645.741	800.000	-0.079	-0.239
-644.726	-200.000	-0.028	-0.164
-643.711	-55.763	0.458	-0.208
-642.697	177.949	0.179	-0.266
-641.682	800.000	-0.125	0.374
-640.668	800.000	-0.139	0.459
-639.653	800.000	-0.082	-0.242
-638.638	-200.000	0.002	-0.285
-637.624	-200.000	-0.035	0.386
-636.609	20.633	0.163	-0.134
-635.595	-41.622	-0.230	-0.120
-634.580	-200.000	-0.001	-0.201
-633.565	188.444	-0.065	-0.098
-632.551	-53.409	-0.335	0.156
-631.536	-14.171	-0.127	-0.083
-630.522	51.438	0.167	-0.161
-629.507	-44.322	0.283	-0.144
-628.492	34.715	0.084	-0.075
-627.478	-147.313	-0.184	0.016
-626.463	211.281	0.057	-0.092
-625.449	277.797	-0.133	0.240
-624.434	60.247	0.242	-0.243
-623.419	-147.591	-0.158	0.014
-622.405	229.573	0.113	0.188
-621.390	-13.573	0.192	0.126
-620.376	-57.944	-0.126	-0.056
-619.361	-136.725	-0.213	-0.025
-618.346	-15.277	0.336	0.218
-617.332	68.445	-0.012	0.012
-616.317	-70.847	0.094	0.036
-615.303	145.741	-0.090	0.122
-614.288	37.381	0.064	-0.058
-613.273	-200.000	0.012	0.219
-612.259	-200.000	-0.044	0.265
-611.244	-42.157	-0.118	0.061
-610.230	-19.629	0.298	0.187
-609.215	-200.000	0.045	0.247
-608.201	-200.000	0.012	0.152
-607.186	-165.151	-0.231	-0.010
-606.171	-133.020	-0.323	-0.042
-605.157	-104.157	0.307	-0.072
-604.142	-141.283	-0.373	0.039
-603.128	-64.933	-0.151	-0.062
-602.113	-24.102	0.287	0.174
-601.098	0.407	-0.207	-0.150
-600.084	-200.000	-0.062	-0.305
-599.069	84.191	-0.199	-0.220
-598.055	-95.069	0.078	-0.021
-597.040	68.804	-0.086	0.090
-596.025	800.000	-0.089	0.308
-595.011	184.427	0.195	-0.293
-593.996	-5.407	-0.214	0.149
-592.982	345.411	-0.162	0.323
-591.967	-46.378	0.089	-0.044
-590.952	-91.028	-0.144	-0.042
-589.938	-92.470	0.320	-0.091
-588.923	-152.287	-0.223	0.016
-587.909	-200.000	0.003	0.258
-586.894	-79.245	0.039	-0.013
-585.879	180.003	-0.235	-0.349
-584.865	-167.804	-0.045	0.002
-583.850	47.324	-0.342	-0.323
-582.836	482.145	0.075	-0.172
-581.821	55.008	-0.067	-0.065
-580.806	194.565	-0.070	0.107
-579.792	-55.587	-0.228	-0.103
-578.777	-200.000	0.032	-0.161
-577.763	-200.000	-0.054	0.324
-576.748	-111.196	-0.150	0.031
-575.733	-162.326	0.195	-0.010
-574.719	-200.000	-0.026	-0.171
-573.704	121.294	-0.188	-0.237
-572.690	-17.815	-0.039	-0.025
-571.675	31.067	0.319	0.277
-570.661	61.994	0.099	0.100
-569.646	-106.791	-0.237	0.053
-568.631	67.362	-0.243	-0.251
-567.617	-85.834	-0.147	0.046
-566.602	-140.707	0.172	0.018
-565.588	-182.960	0.125	-0.002
-564.573	-200.000	-0.017	0.087
-563.558	8.611	-0.312	0.238
-562.544	3.664	0.308	0.228
-561.529	271.540	0.086	-0.153
-560.515	-75.887	0.181	-0.065
-559.500	-105.822	0.129	0.029
-558.485	-161.154	0.168	-0.009
-557.471	800.000	0.082	0.338
-556.456	157.395	-0.099	0.139
-555.442	800.000	0.041	0.143
-554.427	190.181	-0.018	-0.028
-553.412	-96.759	0.402	-0.107
-552.398	228.339	-0.181	-0.299
-551.383	-107.728	0.134	0.030
-550.369	55.528	0.269	0.264
-549.354	156.350	0.184	-0.257
-548.339	-200.000	0.069	-0.374
-547.325	-170.995	-0.162	0.006
-546.310	-86.888	-0.093	-0.029
-545.296	800.000	-0.072	0.238
-544.281	-96.830	0.282	0.075
-543.266	-124.034	0.025	-0.004
-542.252	-138.658	0.095	-0.011
-541.237	439.171	0.073	0.162
-540.223	550.855	0.059	0.144
-539.208	216.228	0.138	0.223
-538.193	-77.757	0.137	0.048
-537.179	13.381	-0.361	0.283
-536.164	-118.495	-0.208	-0.037
-535.150	250.345	0.251	0.431
-534.135	800.000	-0.069	0.226
-533.121	11.289	-0.297	0.230
-532.106	-29.557	0.279	0.162
-531.091	-113.679	-0.387	-0.076
-530.077	158.361	-0.087	-0.122
-529.062	58.370	-0.024	-0.024
-528.048	108.886	-0.139	-0.169
-527.033	-20.877	-0.207	-0.128
-526.018	132.000	-0.136	-0.177
-525.004	-48.829	-0.234	0.113
-523.989	-160.002	-0.314	-0.017
-522.975	58.558	-0.171	0.170
-521.960	-136.511	-0.255	-0.030
-520.945	800.000	-0.071	0.232
-519.931	-200.000	-0.020	0.335
-518.916	800.000	-0.033	0.101
-517.902	-156.058	0.200	0.013
-516.887	-176.846	-0.102	0.003
-515.872	187.445	0.083	-0.125
-514.858	-200.000	0.055	-0.269
-513.843	-80.549	-0.290	-0.098
-512.829	-200.000	-0.055	0.327
-511.814	800.000	0.031	0.111
-510.799	4.174	-0.017	-0.012
-509.785	429.357	-0.081	-0.178
-508.770	-80.214	0.295	0.100
-507.756	800.000	0.008	-0.030
-506.741	218.749	0.188	0.305
-505.726	-15.780	-0.096	-0.062
-504.712	-68.205	-0.098	0.038
-503.697	-22.443	-0.113	0.069
-502.683	211.853	-0.057	-0.091
-501.668	313.154	0.022	-0.041
-500.653	-200.000	-0.004	-0.082
-499.639	212.691	0.042	-0.067
-498.624	94.137	-0.294	-0.338
-497.610	-140.812	0.259	0.027
-496.595	800.000	0.052	-0.221
-495.581	-36.110	-0.451	-0.246
-494.566	-76.120	0.239	0.085
-493.551	477.224	0.063	-0.144
-492.537	97.882	0.162	0.188
-491.522	-145.091	-0.079	0.007
-490.508	-72.354	0.232	0.087
-489.493	174.608	-0.060	-0.087
-488.478	-146.455	0.393	0.035
-487.464	-13.770	0.301	-0.197
-486.449	800.000	0.072	-0.209
-485.435	-200.000	0.023	-0.103
-484.420	-46.030	0.299	0.149
-483.405	-200.000	0.002	-0.186
-482.391	800.000	-0.025	-0.085
-481.376	-169.151	0.205	-0.008
-480.362	-200.000	0.060	-0.449
-479.347	116.099	-0.198	-0.246
-478.332	-28.017	-0.366	0.214
-477.318	-34.690	-0.272	-0.150
-476.303	128.472	-0.117	-0.150
-475.289	-148.363	-0.093	-0.008
-474.274	-200.000	0.032	-0.298
-473.259	96.952	0.128	0.148
-472.245	800.000	-0.118	-0.473
-471.230	453.823	-0.174	-0.390
-470.216	-116.521	0.277	0.052
-469.201	-139.421	-0.378	-0.041
-468.186	-91.260	0.284	0.082
-467.172	-200.000	0.021	0.169
-466.157	-113.050	-0.243	0.048
-465.143	-35.551	0.050	-0.028
-464.128	-200.000	0.025	-0.225
-463.113	-24.594	0.051	0.031
-462.099	-115.221	0.103	-0.020
-461.084	56.640	-0.131	0.129
-460.070	166.226	-0.041	0.059
-459.055	46.971	-0.169	-0.159
-458.040	308.526	-0.130	0.245
-457.026	-200.000	0.015	-0.358
-456.011	3.662	0.024	0.017
-454.997	250.633	-0.091	0.156
-453.982	800.000	-0.020	-0.064
-452.968	800.000	0.060	-0.225
-451.953	315.459	-0.074	-0.142
-450.938	-96.450	-0.405	-0.108
-449.924	-104.153	-0.184	-0.043
-448.909	0.192	0.121	-0.087
-447.895	800.000	-0.035	0.131
-446.880	-104.910	0.121	0.028
-445.865	10.252	0.123	-0.095
-444.851	-91.424	0.166	-0.048
-443.836	-200.000	0.025	-0.118
-442.822	800.000	-0.079	0.284
-441.807	189.032	-0.243	0.366
-440.792	598.272	0.064	0.161
-439.778	42.601	0.108	0.099
-438.763	-141.089	0.068	0.007
-437.749	4.375	-0.136	0.101
-436.734	168.017	-0.074	0.106
-435.719	-200.000	0.008	-0.168
-434.705	-118.920	0.218	-0.039
-433.690	39.244	0.086	0.078
-432.676	-9.730	-0.199	0.134
-431.661	-105.042	0.229	0.053
-430.646	221.208	-0.119	0.193
-429.632	137.352	-0.065	-0.086
-428.617	-136.219	-0.296	-0.035
-427.603	-72.066	-0.406	0.152
-426.588	-64.840	0.422	0.172
-425.573	572.532	0.101	-0.249
-424.559	62.257	-0.084	0.084
-423.544	-200.000	0.014	0.435
-422.530	-85.539	0.237	0.074
-421.515	4.666	-0.170	-0.126
-420.500	-200.000	0.012	-0.237
-419.486	-200.000	0.053	-0.361
-418.471	352.836	0.114	0.227
-417.457	-16.764	-0.216	0.138
-416.442	800.000	-0.045	0.136
-415.428	-42.299	-0.225	0.116
-414.413	-143.852	0.053	0.005
-413.398	-47.581	0.047	-0.023
-412.384	-96.136	-0.378	0.101
-411.369	624.649	0.064	-0.161
-410.355	-91.177	0.088	0.026
-409.340	329.634	-0.106	0.205
-408.325	-200.000	0.031	0.157
-407.311	-106.716	-0.136	0.030
-406.296	-153.931	-0.089	0.006
-405.282	192.167	-0.105	-0.159
-404.267	-184.135	-0.188	0.003
-403.252	-59.674	-0.427	0.184
-402.238	-6.102	0.216	0.149
-401.223	-127.234	0.170	0.025
-400.209	446.137	-0.139	0.309
-399.194	87.291	0.038	-0.042
-398.179	-200.000	-0.007	-0.057
-397.165	2.145	-0.203	-0.147
-396.150	-200.000	0.094	-0.444
-395.136	33.355	0.119	-0.104
-394.121	-66.721	-0.216	0.086
-393.106	127.192	0.218	0.278
-392.092	800.000	0.026	0.073
-391.077	-67.540	0.413	-0.163
-390.063	186.623	0.076	0.114
-389.048	45.066	-0.115	-0.106
-388.033	800.000	-0.057	0.201
-387.019	-57.868	0.393	-0.173
-386.004	800.000	-0.072	0.205
-384.990	8.778	-0.283	0.214
-383.975	52.403	0.153	0.147
-382.960	182.363	-0.045	0.067
-381.946	198.003	0.162	0.249
-380.931	609.383	-0.106	-0.266
-379.917	-66.610	0.155	0.062
-378.902	-57.954	-0.128	-0.056
-377.888	-200.000	0.072	-0.495
-376.873	85.629	-0.113	0.125
-375.858	192.995	0.041	-0.062
-374.844	800.000	0.048	0.165
-373.829	-127.861	0.297	0.043
-372.815	-42.524	0.125	-0.064
-371.800	-104.481	-0.100	0.023
-370.785	142.593	-0.096	0.128
-369.771	-93.193	-0.149	0.042
-368.756	14.255	-0.177	-0.138
-367.742	236.494	-0.035	-0.059
-366.727	65.889	0.024	0.025
-365.712	-200.000	0.050	-0.290
-364.698	281.442	0.039	-0.071
-363.683	-123.930	-0.245	-0.039
-362.669	800.000	0.080	0.264
-361.654	-200.000	-0.026	0.126
-360.639	672.079	0.147	-0.383
-359.625	649.229	0.073	-0.187
-358.610	137.752	-0.086	0.113
-357.596	800.000	-0.081	0.318
-356.581	79.813	-0.074	-0.080
-355.566	19.428	0.107	0.086
-354.552	436.640	0.027	-0.059
-353.537	-47.838	0.403	-0.196
-352.523	-77.508	0.154	0.054
-351.508	-200.000	0.057	0.323
-350.493	174.815	-0.127	-0.185
-349.479	130.678	-0.227	-0.292
-348.464	200.643	0.102	0.158
-347.450	-200.000	0.021	-0.160
-346.435	-48.752	-0.134	-0.065
-345.420	-90.376	0.054	0.016
-344.406	-85.006	-0.109	-0.034
-343.391	-40.500	0.179	0.093
-342.377	-37.178	0.093	-0.050
-341.362	800.000	-0.040	0.114
-340.348	-200.000	0.022	0.208
-339.333	800.000	-0.082	-0.246
-338.318	227.604	0.014	-0.024
-337.304	800.000	0.052	-0.196
-336.289	148.398	-0.138	-0.187
-335.275	-70.620	-0.064	-0.024
-334.260	-77.228	0.288	0.101
-333.245	-146.045	0.151	0.013
-332.231	-200.000	-0.043	-0.265
-331.216	-29.588	0.031	-0.018
-330.202	800.000	0.051	0.189
-329.187	-81.767	0.210	0.069
-328.172	-40.521	-0.081	-0.042
-327.158	587.549	-0.023	0.058
-326.143	-71.122	0.203	0.077
-325.129	-161.401	0.206	-0.011
-324.114	-200.000	0.014	0.172
-323.099	-127.906	0.204	0.029
-322.085	206.681	0.160	-0.251
-321.070	56.026	-0.143	-0.140
-320.056	-200.000	-0.015	0.114
-319.041	-200.000	0.001	0.102
-318.026	-200.000	0.016	-0.174
-317.012	-75.942	0.130	-0.046
-315.997	30.314	0.080	-0.069
-314.983	-0.981	0.124	0.088
-313.968	-145.256	0.248	0.023
-312.953	800.000	-0.067	0.246
-311.939	-200.000	0.013	-0.091
-310.924	-200.000	-0.009	-0.132
-309.910	-200.000	-0.001	0.007
-308.895	374.720	-0.119	-0.243
-307.880	21.971	-0.183	0.150
-306.866	79.404	0.205	0.221
-305.851	-18.952	0.059	0.037
-304.837	-98.688	-0.114	-0.029
-303.822	800.000	0.074	-0.256
-302.807	121.218	0.084	-0.105
-301.793	-3.653	0.272	-0.190
-300.778	800.000	0.037	-0.156
-299.764	-200.000	-0.020	-0.280
-298.749	49.335	-0.207	-0.195
-297.735	428.134	0.071	-0.154
-296.720	612.821	-0.041	-0.104
-295.705	-65.428	-0.331	0.133
-294.691	-200.000	-0.014	0.131
-293.676	-200.000	0.017	-0.179
-292.662	347.964	0.053	-0.105
-291.647	-147.208	-0.199	0.017
-290.632	118.722	-0.113	0.141
-289.618	43.009	0.278	-0.254
-288.603	99.357	-0.040	-0.046
-287.589	14.376	-0.088	0.069
-286.574	-96.113	-0.152	0.040
-285.559	-200.000	0.029	-0.181
-284.545	-101.268	0.142	-0.035
-283.530	33.182	-0.335	0.291
-282.516	-200.000	0.067	0.349
-281.501	-200.000	-0.047	-0.247
-280.486	800.000	-0.017	0.071
-279.472	36.011	0.138	0.122
-278.457	-58.453	-0.142	-0.062
-277.443	132.612	-0.119	-0.154
-276.428	800.000	0.053	-0.174
-275.413	-34.504	-0.208	-0.114
-274.399	-110.241	0.327	0.068
-273.384	-78.836	-0.178	0.061
-272.370	-30.371	0.208	0.118
-271.355	-170.332	0.100	0.004
-270.340	-94.959	-0.111	0.030
-269.326	-17.952	0.174	0.109
-268.311	264.320	-0.025	0.043
-267.297	178.262	0.104	-0.152
-266.282	-200.000	0.045	0.395
-265.267	800.000	-0.020	-0.060
-264.253	268.097	0.212	-0.372
-263.238	800.000	-0.048	-0.189
-262.224	800.000	-0.036	0.112
-261.209	376.137	-0.047	0.095
-260.195	4.707	-0.202	-0.149
-259.180	69.608	0.132	0.137
-258.165	-200.000	0.005	0.105
-257.151	-177.751	0.444	-0.011
-256.136	153.655	-0.031	-0.043
-255.122	-7.197	-0.180	-0.122
-254.107	-200.000	-0.016	-0.161
-253.092	-58.075	-0.098	-0.043
-252.078	-110.424	0.108	0.022
-251.063	-82.557	0.190	0.062
-250.049	-200.000	0.001	-0.092
-249.034	-2.763	0.092	0.065
-248.019	94.758	-0.071	-0.081
-247.005	549.938	-0.197	0.472
-245.990	-167.892	-0.306	0.012
-244.976	37.374	0.265	0.235
-243.961	69.795	-0.151	0.156
-242.946	-56.542	0.252	0.112
-241.932	-3.373	0.417	-0.290
-240.917	166.144	-0.070	-0.099
-239.903	-55.826	-0.073	-0.033
-238.888	-200.000	0.045	-0.206
-237.873	800.000	0.139	-0.408
-236.859	54.078	0.101	0.098
-235.844	-42.105	-0.125	-0.064
-234.830	-151.227	-0.485	0.036
-233.815	33.068	0.158	-0.137
-232.800	-46.910	0.100	-0.049
-231.786	-200.000	-0.015	0.116
-230.771	-24.858	0.065	0.038
-229.757	98.678	0.103	0.119
-228.742	-175.692	0.318	0.009
-227.727	151.037	0.197	0.268
-226.713	-50.514	-0.287	0.135
-225.698	-181.845	-0.195	0.004
-224.684	800.000	0.055	0.163
-223.669	-74.063	0.206	0.075
-222.655	-153.461	0.217	-0.015
-221.640	-170.552	0.133	0.005
-220.625	-200.000	0.027	0.133
-219.611	166.098	-0.115	0.163
-218.596	-137.758	-0.123	0.014
-217.582	-14.292	0.367	0.237
-216.567	-119.769	-0.161	-0.028
-215.552	38.715	-0.272	0.243
-214.538	-200.000	-0.008	-0.254
-213.523	387.533	0.059	-0.122
-212.509	800.000	0.080	0.253
-211.494	-152.955	-0.213	0.015
-210.479	-200.000	-0.056	-0.398
-209.465	139.755	0.206	0.271
-208.450	-200.000	0.035	-0.162
-207.436	-200.000	0.027	-0.252
-206.421	-6.435	-0.253	0.173
-205.406	-84.770	0.137	0.043
-204.392	800.000	0.040	0.163
-203.377	19.123	-0.045	0.036
-202.363	55.219	0.121	0.117
-201.348	-200.000	0.026	0.403
-200.333	789.113	-0.070	-0.193
-199.319	-200.000	0.017	0.170
-198.304	112.307	0.202	-0.244
-197.290	276.580	0.157	-0.278
-196.275	355.251	-0.073	0.146
-195.260	557.175	0.113	0.272
-194.246	-18.483	0.285	-0.178
-193.231	363.221	-0.070	-0.140
-192.217	232.831	-0.175	0.287
-191.202	-79.963	0.198	0.066
-190.187	-9.686	-0.086	-0.057
-189.173	7.742	-0.144	-0.108
-188.158	-45.392	-0.174	0.086
-187.144	653.134	-0.151	0.388
-186.129	173.096	0.079	-0.114
-185.114	-200.000	0.035	-0.179
-184.100	290.533	0.147	-0.267
-183.085	23.576	0.137	0.113
-182.071	32.121	-0.237	-0.204
-181.056	208.562	-0.082	0.128
-180.042	-143.924	-0.101	0.009
-179.027	727.076	0.043	0.114
-178.012	-80.149	0.121	0.040
-176.998	-71.517	0.166	0.062
-175.983	71.068	0.172	0.178
-174.969	-5.943	-0.152	0.104
-173.954	380.731	0.096	0.196
-172.939	-138.478	0.094	-0.010
-171.925	-58.410	-0.068	-0.030
-170.910	-2.951	0.277	-0.193
-169.896	-14.913	0.093	0.059
-168.881	-200.000	0.079	-0.353
-167.866	317.610	0.085	-0.161
-166.852	-59.890	0.156	-0.067
-165.837	-11.077	0.373	0.246
-164.823	46.416	0.262	0.243
-163.808	-200.000	-0.048	0.350
-162.793	94.770	-0.103	0.117
-161.779	-8.876	0.213	0.142
-160.764	265.956	0.083	-0.144
-159.750	333.333	-0.193	-0.371
-158.735	92.881	-0.138	-0.156
-157.720	-69.736	-0.193	-0.073
-156.706	-99.320	-0.063	0.016
-155.691	-26.608	-0.118	-0.069
-154.677	-44.739	0.242	-0.121
-153.662	-113.368	-0.301	0.059
-152.647	96.361	-0.207	0.236
-151.633	183.755	0.044	-0.065
-150.618	8.721	-0.239	-0.180
-149.604	-126.407	0.073	-0.011
-148.589	-12.663	-0.524	0.341
-147.574	-101.166	0.360	0.088
-146.560	-123.032	-0.118	-0.019
-145.545	-117.996	-0.199	-0.036
-144.531	80.489	-0.173	-0.186
-143.516	-56.552	-0.252	0.111
-142.502	639.222	-0.022	-0.056
-141.487	157.821	0.185	0.255
-140.472	-27.684	0.184	0.107
-139.458	-154.348	-0.330	-0.022
-138.443	345.230	0.204	-0.400
-137.429	-200.000	-0.014	0.154
-136.414	-132.667	0.166	0.021
-135.399	-104.660	0.121	-0.028
-134.385	800.000	-0.113	0.392
-133.370	-147.603	-0.091	0.008
-132.356	45.989	-0.171	0.158
-131.341	-101.768	-0.502	-0.121
-130.326	12.021	-0.215	-0.164
-129.312	232.437	0.183	0.300
-128.297	-200.000	-0.013	-0.202
-127.283	207.185	0.054	-0.084
-126.268	-19.834	0.122	-0.075
-125.253	444.935	-0.058	0.126
-124.239	123.751	-0.191	-0.239
-123.224	210.878	-0.117	0.184
-122.210	-200.000	-0.031	0.160
-121.195	-113.183	0.204	-0.040
-120.180	-105.584	-0.281	0.064
-119.166	10.948	0.142	-0.108
-118.151	708.033	-0.090	-0.238
-117.137	-121.689	0.183	-0.030
-116.122	168.951	0.208	-0.296
-115.107	-159.151	0.136	-0.008
-114.093	800.000	-0.066	-0.195
-113.078	139.573	0.159	0.209
-112.064	-100.221	-0.239	0.059
-111.049	173.488	0.213	-0.306
-110.034	-200.000	-0.022	0.101
-109.020	19.393	-0.182	-0.145
-108.005	-77.177	0.196	0.068
-106.991	-200.000	0.061	-0.473
-105.976	-10.133	0.284	-0.188
-104.962	118.493	-0.252	-0.310
-103.947	-153.069	0.299	0.021
-102.932	800.000	-0.127	-0.402
-101.918	-200.000	0.078	-0.415
-100.903	2.322	0.233	0.168
-99.889	-190.622	-0.262	-0.003
-98.874	-127.216	-0.029	-0.004
-97.859	-117.626	-0.280	0.050
-96.845	-30.345	-0.181	0.102
-95.830	-200.000	-0.015	-0.142
-94.816	800.000	0.103	-0.428
-93.801	770.067	0.125	-0.340
-92.786	-113.966	-0.157	0.030
-91.772	-200.000	-0.023	0.100
-90.757	800.000	-0.059	0.182
-89.743	-55.662	0.118	-0.053
-88.728	-200.000	0.006	0.212
-87.713	-26.183	0.349	-0.204
-86.699	800.000	-0.083	-0.338
-85.684	-200.000	0.002	0.094
-84.670	-200.000	-0.021	0.347
-83.655	-200.000	-0.008	0.132
-82.640	-200.000	0.030	-0.234
-81.626	-39.675	-0.179	-0.093
-80.611	-145.424	0.228	-0.020
-79.597	-59.119	-0.252	-0.108
-78.582	-148.711	0.326	0.026
-77.567	293.653	0.094	-0.171
-76.553	193.502	0.085	0.128
-75.538	-37.402	-0.220	0.117
-74.524	326.350	-0.093	0.177
-73.509	-149.245	-0.374	0.030
-72.494	-10.070	-0.226	0.150
-71.480	-8.484	0.293	-0.196
-70.465	-13.530	-0.195	0.126
-69.451	-200.000	0.043	-0.211
-68.436	725.588	-0.094	0.250
-67.422	87.166	0.192	-0.211
-66.407	-118.143	-0.293	0.052
-65.392	800.000	-0.024	0.071
-64.378	-69.406	0.392	0.149
-63.363	-200.000	0.016	0.146
-62.349	-104.862	-0.230	-0.053
-61.334	87.357	-0.798	-0.877
-60.319	-10.744	0.463	0.304
-59.305	623.088	-0.349	-0.873
-58.290	-38.595	0.790	0.415
-57.276	583.887	0.608	1.483
-56.261	-200.000	86.780	524.177
-55.246	525.318	1341.985	3137.886
-54.232	152.786	2546.118	3456.941
-53.217	115.910	2194.835	2668.350
-52.203	50.447	1656.178	1555.516
-51.188	42.717	1391.116	1258.397
-50.173	39.292	1347.908	1198.445
-49.159	57.957	1390.809	1352.352
-48.144	62.988	1410.508	1402.559
-47.130	43.033	1367.213	1238.520
-46.115	39.304	1349.758	1199.971
-45.100	39.052	1345.289	1194.417
-44.086	38.999	1342.838	1191.874
-43.071	38.895	1340.206	1188.859
-42.057	38.893	1338.292	1187.105
-41.042	38.987	1336.475	1186.012
-40.027	39.090	1334.853	1185.148
-39.013	38.894	1333.348	1182.580
-37.998	39.062	1331.076	1181.529
-36.984	39.126	1329.085	1180.101
-35.969	39.172	1327.553	1178.970
-34.954	39.317	1325.582	1178.041
-33.940	39.228	1324.358	1176.372
-32.925	39.169	1323.670	1175.361
-31.911	39.225	1321.492	1173.715
-30.896	39.314	1319.558	1172.483
-29.881	39.283	1318.426	1171.247
-28.867	39.242	1317.211	1169.873
-27.852	39.250	1315.826	1168.646
-26.838	39.213	1314.598	1167.290
-25.823	39.252	1312.948	1166.012
-24.809	39.263	1311.447	1164.695
-23.794	39.254	1309.987	1163.299
-22.779	39.273	1308.518	1162.060
-21.765	39.160	1307.572	1160.510
-20.750	39.245	1306.092	1159.647
-19.736	39.052	1305.163	1157.639
-18.721	39.179	1303.569	1156.931
-17.706	39.071	1302.693	1155.471
-16.692	39.115	1301.652	1154.759
-15.677	39.037	1300.463	1153.200
-14.663	39.055	1299.676	1152.565
-13.648	39.121	1298.001	1151.421
-12.633	39.019	1297.383	1150.227
-11.619	39.119	1296.078	1149.608
-10.604	39.043	1295.373	1148.495
-9.590	38.993	1294.334	1147.237
-8.575	39.085	1293.258	1146.776
-7.560	39.059	1292.501	1145.908
-6.546	39.068	1291.716	1145.215
-5.531	39.069	1291.009	1144.548
-4.517	39.137	1289.565	1143.619
-3.502	39.013	1289.078	1142.422
-2.487	39.060	1288.133	1141.809
-1.473	38.908	1283.331	1136.632
-0.458	36.375	1266.015	1106.753
0.556	28.604	1243.186	1048.972
1.571	22.782	1244.279	1016.381
2.586	21.000	1258.416	1017.450
3.600	20.249	1247.519	1004.204
4.615	16.699	1178.901	929.432
5.629	10.697	1105.164	840.246
6.644	7.521	1084.520	808.327
7.659	7.264	1081.773	804.904
8.673	7.152	1080.690	803.458
9.688	7.134	1079.015	802.054
10.702	7.508	1077.663	802.866
11.717	11.174	1082.685	825.135
12.731	16.211	1089.552	855.907
13.746	18.014	1090.825	865.976
14.761	17.373	1089.683	861.749
15.775	16.224	1087.629	854.234
16.790	15.194	1085.684	847.427
17.804	14.459	1084.142	842.436
18.819	14.067	1082.969	839.469
19.834	13.756	1081.981	837.061
20.848	13.488	1081.305	835.112
21.863	13.323	1080.137	833.306
22.877	13.224	1079.078	831.917
23.892	13.163	1078.928	831.418
24.907	13.103	1078.358	830.605
25.921	13.174	1077.036	829.868
26.936	13.164	1075.648	828.675
27.950	13.279	1074.091	827.979
28.965	13.339	1072.595	827.051
29.980	13.369	1071.132	826.000
30.994	13.437	1069.938	825.345
32.009	13.592	1068.673	825.072
33.023	13.420	1068.161	823.745
34.038	13.433	1066.603	822.534
35.053	13.309	1065.927	821.324
36.067	13.385	1064.711	820.693
37.082	13.381	1063.894	819.969
38.096	13.358	1063.248	819.287
39.111	13.336	1062.934	818.864
40.126	13.292	1061.522	817.484
41.140	13.092	1060.089	815.323
42.155	13.089	1059.154	814.515
43.169	13.067	1057.953	813.412
44.184	13.130	1056.725	812.707
45.199	13.107	1055.799	811.811
46.213	13.165	1054.429	810.971
47.228	13.146	1053.691	810.234
48.242	13.261	1052.546	809.847
49.257	13.312	1051.316	809.080
50.271	13.352	1050.299	808.418
51.286	13.361	1049.338	807.654
52.301	13.281	1048.532	806.571
53.315	13.258	1047.765	805.798
54.330	13.174	1046.538	804.375
55.344	13.143	1045.892	803.653
56.359	13.147	1044.923	802.861
57.374	13.157	1044.005	802.131
58.388	13.254	1042.622	801.467
59.403	13.026	1042.152	799.931
60.417	13.178	1041.129	799.809
61.432	13.161	1040.285	799.011
62.447	13.014	1039.731	797.801
63.461	12.978	1038.559	796.656
64.476	12.992	1037.881	796.133
65.490	13.021	1037.012	795.538
66.505	13.072	1036.468	795.294
67.520	13.033	1035.689	794.442
68.534	13.073	1034.894	793.951
69.549	13.090	1033.894	793.197
70.563	12.979	1033.287	792.127
71.578	12.949	1032.254	791.124
72.593	12.951	1031.757	790.679
73.607	12.980	1030.832	790.040
74.622	12.973	1030.761	789.882
75.636	12.990	1029.718	789.094
76.651	12.878	1029.459	788.290
77.666	13.084	1028.093	788.160
78.680	12.985	1027.940	787.501
79.695	13.054	1027.267	787.244
80.709	13.189	1026.569	787.284
81.724	13.219	1025.702	786.688
82.739	13.191	1025.201	786.105
83.753	13.212	1024.707	785.754
84.768	13.401	1023.690	785.804
85.782	13.342	1022.671	784.673
86.797	13.347	1022.089	784.179
87.812	13.202	1021.090	782.657
88.826	13.300	1020.024	782.236
89.841	13.338	1018.914	781.492
90.855	13.281	1018.431	780.785
91.870	13.519	1017.007	780.745
92.884	13.554	1015.746	779.874
93.899	13.388	1015.648	778.949
94.914	13.479	1014.632	778.525
95.928	13.445	1013.965	777.787
96.943	13.403	1013.029	776.803
97.957	13.483	1011.572	775.994
98.972	13.265	1010.648	774.192
99.987	13.407	1009.959	774.262
101.001	13.242	1009.340	772.946
102.016	13.335	1008.462	772.641
103.030	13.311	1007.432	771.670
104.045	13.425	1007.122	771.897
105.060	13.343	1005.563	770.252
106.074	13.204	1004.823	768.970
107.089	13.053	1004.273	767.780
108.103	13.148	1003.104	767.258
109.118	13.091	1002.181	766.222
110.133	13.182	1001.160	765.793
111.147	13.118	1000.288	764.764
112.162	13.171	999.400	764.263
113.176	13.237	998.577	763.870
114.191	13.227	997.866	763.211
115.206	13.350	996.941	763.004
116.220	13.145	996.200	761.425
117.235	13.197	995.356	760.953
118.249	13.154	994.439	759.988
119.264	13.124	993.822	759.308
120.279	13.137	993.019	758.688
121.293	13.343	991.493	758.400
122.308	13.174	991.287	757.400
123.322	13.144	989.831	756.083
124.337	13.120	988.710	755.052
125.352	13.105	988.306	754.605
126.366	13.177	986.833	753.745
127.381	13.145	986.019	752.909
128.395	13.120	984.881	751.860
129.410	13.158	984.021	751.310
130.424	13.219	982.995	750.736
131.439	13.309	982.451	750.665
132.454	13.275	982.090	750.167
133.468	13.352	981.086	749.682
134.483	13.275	979.820	748.299
135.497	13.423	978.861	748.169
136.512	13.351	978.599	747.579
137.527	13.468	977.477	747.187
138.541	13.304	976.789	745.853
139.556	13.362	976.400	745.753
140.570	13.453	975.697	745.557
141.585	13.564	974.692	745.224
142.600	13.524	973.672	744.200
143.614	13.539	973.124	743.780
144.629	13.672	971.840	743.332
145.643	13.556	970.769	741.924
146.658	13.541	970.031	741.229
147.673	13.393	969.416	740.033
148.687	13.360	968.312	738.975
149.702	13.293	967.362	737.886
150.716	13.250	966.970	737.330
151.731	13.411	965.944	737.199
152.746	13.387	965.413	736.622
153.760	13.378	964.367	735.719
154.775	13.444	963.955	735.634
155.789	13.457	963.449	735.239
156.804	13.484	962.628	734.669
157.819	13.493	961.833	734.037
158.833	13.500	961.519	733.762
159.848	13.511	960.542	733.001
160.862	13.599	959.284	732.363
161.877	13.518	958.401	731.268
162.892	13.468	957.141	730.024
163.906	13.484	956.372	729.440
164.921	13.464	955.771	728.828
165.935	13.426	954.700	727.780
166.950	13.549	953.331	727.214
167.964	13.451	953.115	726.556
168.979	13.432	952.163	725.680
169.994	13.551	951.077	725.312
171.008	13.479	950.614	724.579
172.023	13.533	950.060	724.328
173.037	13.527	949.442	723.765
174.052	13.563	948.559	723.186
175.067	13.610	947.675	722.654
176.081	13.498	947.357	721.858
177.096	13.491	946.811	721.351
178.110	13.644	945.984	721.319
179.125	13.610	945.061	720.404
180.140	13.587	944.911	720.129
181.154	13.551	944.609	719.676
182.169	13.584	943.842	719.172
183.183	13.702	943.592	719.431
184.198	13.637	942.743	718.438
185.213	13.769	941.710	718.156
186.227	13.763	941.066	717.576
187.242	13.778	940.353	717.033
188.256	13.910	939.715	717.055
189.271	13.822	939.251	716.258
190.286	13.670	938.205	714.742
191.300	13.571	937.265	713.538
192.315	13.589	936.791	713.187
193.329	13.473	936.435	712.357
194.344	13.528	935.763	712.017
195.359	13.643	935.241	712.053
196.373	13.664	934.779	711.729
197.388	13.827	934.229	711.945
198.402	13.975	933.500	711.963
199.417	14.012	932.764	711.497
200.432	13.993	932.405	711.078
201.446	14.049	931.768	710.767
202.461	14.055	931.470	710.504
203.475	14.102	930.548	709.940
204.490	13.902	930.143	708.711
205.504	13.879	929.096	707.754
206.519	14.123	928.140	708.003
207.534	13.981	927.761	707.045
208.548	13.991	926.885	706.356
209.563	14.050	926.057	705.916
210.577	13.946	925.860	705.260
211.592	14.102	925.036	705.231
212.607	14.155	924.082	704.666
213.621	14.250	923.668	704.693
214.636	14.114	922.851	703.430
215.650	14.133	922.726	703.352
216.665	14.310	921.541	703.137
217.680	14.243	920.825	702.246
218.694	14.147	920.269	701.355
219.709	14.196	919.964	701.265
220.723	14.168	918.897	700.274
221.738	14.225	918.089	699.835
222.753	14.217	917.408	699.218
223.767	14.395	916.415	699.150
224.782	14.429	916.042	698.946
225.796	14.437	915.659	698.622
226.811	14.452	914.960	698.093
227.826	14.270	914.475	696.899
228.840	14.348	913.531	696.443
229.855	14.269	912.891	695.564
230.869	14.401	911.827	695.242
231.884	14.273	911.476	694.378
232.899	14.236	910.734	693.597
233.913	14.321	909.958	693.299
234.928	14.342	908.913	692.527
235.942	14.394	908.469	692.347
236.957	14.336	907.971	691.663
237.972	14.325	907.295	691.041
238.986	14.246	907.133	690.528
240.001	14.433	905.995	690.378
241.015	14.409	905.390	689.757
242.030	14.304	904.870	688.866
243.045	14.472	904.064	688.884
244.059	14.568	903.445	688.748
245.074	14.541	902.502	687.856
246.088	14.480	902.302	687.394
247.103	14.482	901.984	687.099
248.117	14.781	900.764	687.339
249.132	14.830	900.704	687.433
250.147	14.869	899.861	686.888
251.161	14.793	899.269	686.063
252.176	14.761	898.726	685.455
253.190	14.947	898.090	685.673
254.205	14.904	897.328	684.857
255.220	14.764	897.169	684.099
256.234	14.932	896.334	684.089
257.249	14.983	895.291	683.441
258.263	14.959	894.792	682.902
259.278	15.073	893.958	682.670
260.293	14.977	893.625	681.964
261.307	15.050	892.874	681.630
262.322	15.003	892.605	681.170
263.336	15.010	891.805	680.531
264.351	15.055	890.625	679.752
265.366	15.205	889.666	679.569
266.380	15.117	889.608	679.108
267.395	14.952	888.959	677.881
268.409	15.032	887.696	677.183
269.424	15.085	887.158	676.926
270.439	14.978	886.834	676.186
271.453	15.131	886.060	676.154
272.468	15.004	885.540	675.186
273.482	14.983	885.200	674.782
274.497	15.132	884.498	674.787
275.512	15.119	883.742	674.100
276.526	15.187	883.015	673.759
277.541	15.095	882.700	673.088
278.555	15.270	882.259	673.396
279.570	15.375	881.492	673.171
280.585	15.367	880.599	672.397
281.599	15.184	880.032	671.172
282.614	15.063	879.507	670.230
283.628	15.145	879.083	670.173
284.643	15.268	878.317	670.024
285.657	15.314	877.448	669.486
286.672	15.141	877.101	668.472
287.687	15.139	876.497	667.941
288.701	15.422	875.326	668.117
289.716	15.310	875.313	667.604
290.730	15.306	874.668	667.035
291.745	15.404	873.761	666.673
292.760	15.559	873.170	666.780
293.774	15.531	872.744	666.286
294.789	15.567	871.810	665.654
295.803	15.503	871.030	664.748
296.818	15.354	870.962	664.048
297.833	15.404	870.156	663.570
298.847	15.325	869.510	662.707
299.862	15.500	868.679	662.706
300.876	15.389	868.441	662.030
301.891	15.581	867.327	661.879
302.906	15.659	866.550	661.533
303.920	15.467	866.770	660.884
304.935	15.711	865.881	661.109
305.949	15.755	865.048	660.587
306.964	15.594	864.769	659.684
307.979	15.794	864.244	660.010
308.993	15.761	863.460	659.223
310.008	15.700	863.099	658.651
311.022	15.690	862.335	657.970
312.037	15.637	861.921	657.388
313.052	15.658	861.126	656.807
314.066	15.562	860.621	655.988
315.081	15.621	860.098	655.763
316.095	15.680	859.305	655.331
317.110	15.637	858.993	654.864
318.125	15.611	858.556	654.373
319.139	15.568	858.224	653.895
320.154	15.734	857.585	653.994
321.168	15.736	856.805	653.352
322.183	15.692	856.432	652.839
323.197	15.718	856.268	652.755
324.212	15.796	855.346	652.297
325.227	15.817	854.547	651.712
326.241	15.651	854.349	650.861
327.256	15.775	853.604	650.717
328.270	15.767	853.106	650.247
329.285	15.807	852.274	649.709
330.300	15.648	851.749	648.638
331.314	15.777	851.287	648.727
332.329	15.837	850.760	648.499
333.343	15.891	850.578	648.510
334.358	15.904	849.831	647.936
335.373	15.976	849.497	647.899
336.387	15.960	849.534	647.808
337.402	16.062	849.077	647.796
338.416	15.898	848.830	646.920
339.431	15.976	848.135	646.630
340.446	16.084	847.674	646.636
341.460	16.034	847.455	646.222
342.475	16.169	846.681	646.091
343.489	16.210	846.355	645.941
344.504	16.295	845.534	645.582
345.519	16.207	845.496	645.160
346.533	16.309	844.565	644.780
347.548	16.181	844.226	643.977
348.562	16.224	843.642	643.637
349.577	16.150	843.149	642.925
350.592	16.179	842.719	642.649
351.606	16.141	841.689	641.663
352.621	16.264	840.553	641.206
353.635	16.189	840.624	640.918
354.650	16.145	840.261	640.418
355.665	16.204	839.507	640.013
356.679	16.321	838.908	639.942
357.694	16.346	838.239	639.470
358.708	16.346	837.132	638.568
359.723	16.286	836.678	637.937
360.738	16.252	836.583	637.680
361.752	16.375	835.871	637.549
362.767	16.376	835.226	637.004
363.781	16.548	834.467	637.016
364.796	16.613	834.300	637.077
365.810	16.521	834.044	636.476
366.825	16.560	833.501	636.152
367.840	16.594	832.654	635.578
368.854	16.498	832.580	635.105
369.869	16.585	832.040	634.964
370.883	16.611	831.385	634.503
371.898	16.701	830.865	634.390
372.913	16.578	831.128	634.073
373.927	16.585	830.316	633.422
374.942	16.681	829.568	633.154
375.956	16.775	829.555	633.440
376.971	16.760	828.902	632.830
377.986	16.779	828.889	632.834
379.000	16.859	828.182	632.537
380.015	16.801	827.575	631.802
381.029	16.779	826.994	631.219
382.044	16.845	826.067	630.703
383.059	16.882	825.532	630.375
384.073	16.871	825.034	629.899
385.088	16.785	824.422	629.057
386.102	16.795	823.881	628.625
387.117	16.829	823.465	628.379
388.132	16.713	823.109	627.622
389.146	16.718	822.395	627.040
390.161	16.951	821.725	627.337
391.175	16.940	821.519	627.084
392.190	16.807	820.750	625.948
393.205	16.779	820.624	625.693
394.219	16.567	820.435	624.710
395.234	16.805	819.896	625.124
396.248	16.737	819.064	624.185
397.263	16.909	818.279	624.162
398.278	16.756	818.607	623.794
399.292	16.741	818.050	623.259
400.307	16.660	817.662	622.611
401.321	16.815	816.940	622.578
402.336	16.647	816.735	621.749
403.350	16.868	816.051	621.985
404.365	16.889	815.431	621.534
405.380	17.033	815.072	621.732
406.394	17.118	814.563	621.599
407.409	17.229	814.061	621.567
408.423	17.388	813.868	621.948
409.438	17.025	813.992	620.658
410.453	17.243	812.992	620.637
411.467	17.271	812.639	620.417
412.482	17.394	811.749	620.128
413.496	17.303	811.769	619.760
414.511	17.308	811.485	619.506
415.526	17.374	811.019	619.334
416.540	17.276	810.569	618.580
417.555	17.328	809.844	618.161
418.569	17.351	809.640	618.034
419.584	17.381	809.003	617.601
420.599	17.455	808.622	617.526
421.613	97.516	1275.939	1408.880
422.628	83.704	1344.034	1409.008
