DTS Sentinel unit serial number:	SN413079Multiplexer serial number:	ORYXHardware model number:	OX4-SRSoftware version number:	ORYX F/W v4.00 Oryx Data Collector v3.7.2.0data status	okinstallation	princeton_trtdifferential loss correction	single-endedforward channel	channel 1reverse channel	N/Adate	2019/09/14time	13:46:35forward acquisition time	60.00reverse acquisition time	0.00gamma	496.2192k internal	0.2295k external	0.2295temperature offset calibration	1.0083default loss term (dB/km)	0.3790temperature slope calibration	1.0000multiplexer offset coefficient	1.0000multiplexer slope coefficient	1.0000fibre end	0.00T internal ref (°C)	37.81T ext. ref 1 (°C)	4.94T ext. ref 2 (°C)	33.02length (m)	temperature (°C)	Stokes	anti-Stokes-747.200	59.739	-0.177	0.179
-746.185	52.595	0.107	0.105
-745.171	800.000	0.030	0.108
-744.156	-139.402	-0.264	0.029
-743.142	800.000	0.098	-0.318
-742.127	27.578	-0.116	-0.100
-741.112	800.000	-0.036	-0.106
-740.098	-200.000	-0.029	0.406
-739.083	-200.000	-0.024	-0.171
-738.069	114.194	0.138	0.171
-737.054	800.000	-0.046	-0.168
-736.039	-108.179	0.105	0.023
-735.025	-127.038	-0.205	-0.031
-734.010	566.606	-0.089	0.220
-732.996	21.837	-0.284	-0.236
-731.981	-200.000	0.005	0.116
-730.966	-25.316	0.221	0.134
-729.952	99.939	-0.135	-0.160
-728.937	-30.211	-0.101	-0.059
-727.923	249.487	-0.238	-0.412
-726.908	-56.484	-0.252	0.114
-725.894	-91.208	0.177	0.052
-724.879	-200.000	-0.008	-0.320
-723.864	800.000	-0.059	0.205
-722.850	60.917	0.191	-0.194
-721.835	-200.000	0.025	-0.114
-720.821	-200.000	-0.060	-0.290
-719.806	424.599	-0.133	-0.292
-718.791	-93.002	-0.317	0.090
-717.777	-200.000	0.231	0.001
-716.762	-11.688	0.145	-0.097
-715.748	-49.617	0.123	-0.060
-714.733	-72.981	-0.021	0.008
-713.718	-166.653	0.193	0.008
-712.704	139.439	0.097	0.130
-711.689	-76.908	0.151	-0.054
-710.675	259.709	0.036	0.064
-709.660	446.960	-0.071	0.159
-708.645	800.000	0.044	-0.149
-707.631	-96.334	0.207	-0.056
-706.616	800.000	-0.104	-0.377
-705.602	800.000	0.069	0.218
-704.587	-96.365	-0.187	0.051
-703.572	-152.439	-0.142	-0.010
-702.558	174.798	-0.128	-0.190
-701.543	4.329	0.057	-0.043
-700.529	-200.000	0.003	-0.138
-699.514	441.469	0.080	-0.178
-698.499	-46.368	0.047	0.023
-697.485	25.405	-0.314	0.266
-696.470	134.957	0.090	0.119
-695.456	-200.000	0.013	0.247
-694.441	172.341	-0.113	0.166
-693.426	-84.612	0.127	-0.041
-692.412	20.761	-0.085	-0.070
-691.397	-74.782	-0.120	-0.044
-690.383	-87.774	0.284	0.087
-689.368	-200.000	-0.021	-0.151
-688.354	121.304	0.143	-0.182
-687.339	-200.000	0.039	0.178
-686.324	-85.616	-0.408	-0.129
-685.310	-200.000	-0.002	-0.056
-684.295	148.832	-0.201	-0.278
-683.281	-200.000	0.014	-0.260
-682.266	-77.461	-0.184	-0.065
-681.251	208.809	-0.046	-0.074
-680.237	276.014	0.104	0.188
-679.222	800.000	-0.048	0.135
-678.208	-200.000	0.006	-0.029
-677.193	-102.627	-0.215	-0.052
-676.178	-73.772	0.229	-0.085
-675.164	-77.009	-0.316	-0.112
-674.149	-26.292	-0.090	0.054
-673.135	800.000	0.033	-0.144
-672.120	800.000	-0.031	0.139
-671.105	-200.000	-0.003	0.109
-670.091	-150.256	0.265	0.021
-669.076	-200.000	-0.052	-0.266
-668.062	-200.000	0.068	-0.356
-667.047	643.678	-0.065	-0.169
-666.032	54.377	-0.091	-0.090
-665.018	3.255	0.339	0.251
-664.003	-95.548	-0.110	0.030
-662.989	-27.738	-0.095	-0.056
-661.974	800.000	0.088	-0.281
-660.959	93.505	-0.022	0.026
-659.945	173.264	-0.258	0.379
-658.930	-15.357	-0.412	-0.268
-657.916	-103.242	-0.068	-0.016
-656.901	-200.000	0.033	0.207
-655.886	-45.293	-0.172	0.087
-654.872	800.000	-0.084	-0.255
-653.857	-54.423	-0.103	-0.047
-652.843	-177.095	0.251	-0.006
-651.828	-129.269	-0.249	-0.035
-650.814	-200.000	-0.075	0.515
-649.799	800.000	0.042	-0.127
-648.784	800.000	-0.049	-0.207
-647.770	800.000	0.066	0.223
-646.755	800.000	-0.026	-0.102
-645.741	276.894	0.155	-0.281
-644.726	-200.000	0.006	0.168
-643.711	132.643	-0.174	0.229
-642.697	-163.288	-0.201	0.010
-641.682	764.634	0.006	0.018
-640.668	-200.000	0.004	-0.090
-639.653	-116.474	-0.193	-0.036
-638.638	-56.983	0.173	-0.078
-637.624	-200.000	0.031	-0.153
-636.609	-163.858	0.331	-0.016
-635.595	-30.289	-0.117	-0.068
-634.580	-200.000	-0.026	-0.233
-633.565	-57.080	-0.057	0.026
-632.551	-76.410	-0.176	-0.063
-631.536	-200.000	-0.016	0.214
-630.522	-200.000	0.086	0.506
-629.507	800.000	-0.086	0.260
-628.492	14.657	0.098	0.078
-627.478	-200.000	-0.015	0.263
-626.463	-74.271	-0.224	0.082
-625.449	244.283	0.182	-0.311
-624.434	85.513	0.148	0.165
-623.419	260.956	0.109	0.192
-622.405	7.572	0.263	0.200
-621.390	-200.000	-0.070	0.374
-620.376	27.600	-0.144	-0.123
-619.361	-200.000	-0.045	0.208
-618.346	77.870	-0.069	0.075
-617.332	67.752	-0.246	-0.255
-616.317	-119.696	0.359	-0.063
-615.303	144.232	0.208	-0.283
-614.288	-25.404	0.311	-0.187
-613.273	14.645	-0.274	-0.218
-612.259	72.310	0.144	-0.153
-611.244	-200.000	0.044	-0.379
-610.230	410.762	-0.137	-0.296
-609.215	23.388	-0.328	0.274
-608.201	-78.252	0.211	0.074
-607.186	129.718	-0.167	-0.217
-606.171	618.516	-0.117	0.299
-605.157	-200.000	0.284	-0.001
-604.142	76.913	0.106	-0.115
-603.128	-120.985	-0.348	0.059
-602.113	242.749	-0.137	0.233
-601.098	-29.803	-0.312	-0.181
-600.084	-200.000	0.040	0.439
-599.069	800.000	0.098	-0.411
-598.055	526.803	-0.033	-0.080
-597.040	789.135	0.044	0.124
-596.025	155.854	0.136	-0.191
-595.011	-39.125	0.267	-0.143
-593.996	0.126	-0.199	0.144
-592.982	42.972	-0.155	-0.143
-591.967	-139.237	0.309	-0.034
-590.952	-200.000	-0.063	0.389
-589.938	337.564	-0.196	0.388
-588.923	-158.392	0.135	-0.008
-587.909	-18.881	0.036	-0.023
-586.894	315.906	0.106	0.203
-585.879	800.000	0.049	-0.194
-584.865	-56.028	-0.217	0.098
-583.850	14.248	-0.197	0.156
-582.836	800.000	-0.043	0.191
-581.821	-45.205	0.064	0.033
-580.806	338.562	-0.174	-0.344
-579.792	-66.834	-0.266	0.107
-578.777	-56.446	-0.221	0.100
-577.763	-137.270	-0.139	-0.016
-576.748	101.679	0.127	-0.150
-575.733	365.239	-0.118	0.241
-574.719	600.599	0.023	-0.058
-573.704	-16.309	-0.139	0.089
-572.690	-106.780	-0.436	0.098
-571.675	-65.155	0.171	0.070
-570.661	202.076	0.100	-0.157
-569.646	-200.000	0.016	0.235
-568.631	193.817	-0.219	0.336
-567.617	111.684	-0.120	0.147
-566.602	-200.000	0.019	-0.185
-565.588	-200.000	-0.015	-0.259
-564.573	-200.000	-0.023	-0.258
-563.558	144.680	0.128	-0.174
-562.544	-126.871	0.104	-0.016
-561.529	47.700	0.135	0.128
-560.515	-92.436	0.152	0.043
-559.500	-200.000	0.007	0.166
-558.485	19.408	-0.248	-0.203
-557.471	-200.000	0.010	0.137
-556.456	107.558	-0.075	-0.090
-555.442	-133.438	-0.492	0.063
-554.427	-23.657	0.083	-0.050
-553.412	-119.307	0.204	0.036
-552.398	-200.000	0.005	0.371
-551.383	82.525	0.251	-0.277
-550.369	-200.000	0.019	0.121
-549.354	15.529	-0.315	0.251
-548.339	166.725	-0.111	0.159
-547.325	95.005	0.061	-0.071
-546.310	134.423	-0.121	0.160
-545.296	-200.000	-0.017	-0.095
-544.281	60.798	0.111	0.111
-543.266	-47.339	0.320	-0.158
-542.252	-116.162	-0.266	0.050
-541.237	386.097	0.073	-0.153
-540.223	-200.000	-0.006	0.069
-539.208	-144.918	0.101	0.009
-538.193	589.830	-0.002	-0.005
-537.179	-34.991	-0.292	0.162
-536.164	-146.512	-0.231	0.020
-535.150	23.623	-0.096	0.080
-534.135	132.914	-0.167	-0.218
-533.121	-98.962	0.111	-0.029
-532.106	-200.000	0.038	0.324
-531.091	-43.322	0.250	0.128
-530.077	-114.514	0.184	0.036
-529.062	707.905	-0.067	0.178
-528.048	66.989	0.282	-0.292
-527.033	-44.912	-0.160	-0.081
-526.018	-94.599	-0.206	-0.057
-525.004	154.900	-0.171	-0.238
-523.989	-121.908	-0.251	-0.042
-522.975	-59.266	0.258	0.113
-521.960	32.755	-0.104	0.091
-520.945	-92.957	0.470	0.133
-519.931	131.976	-0.227	0.296
-518.916	145.040	0.171	0.231
-517.902	-184.701	0.205	-0.003
-516.887	-177.965	0.449	0.011
-515.872	-200.000	-0.005	-0.138
-514.858	-69.787	0.303	-0.117
-513.843	-52.672	0.138	-0.065
-512.829	132.144	-0.134	-0.175
-511.814	143.898	-0.132	-0.178
-510.799	-200.000	0.012	0.233
-509.785	185.272	0.227	-0.341
-508.770	0.314	-0.224	-0.162
-507.756	261.076	-0.033	0.057
-506.741	791.242	-0.048	-0.134
-505.726	800.000	-0.031	-0.093
-504.712	800.000	0.064	-0.266
-503.697	-16.996	0.148	-0.095
-502.683	78.507	-0.081	0.088
-501.668	199.195	-0.150	0.233
-500.653	29.309	0.254	0.218
-499.639	-169.694	0.440	0.016
-498.624	-60.449	0.119	0.051
-497.610	-200.000	-0.013	0.257
-496.595	142.428	0.028	0.038
-495.581	452.482	0.076	0.170
-494.566	-200.000	-0.014	-0.229
-493.551	61.194	0.272	-0.273
-492.537	349.853	-0.068	0.136
-491.522	-194.988	-0.260	0.002
-490.508	800.000	0.090	0.291
-489.493	239.460	0.101	0.170
-488.478	-130.580	-0.484	0.066
-487.464	800.000	0.078	-0.244
-486.449	-123.220	-0.168	0.027
-485.435	800.000	0.056	0.238
-484.420	-200.000	-0.002	-0.074
-483.405	376.976	-0.024	-0.050
-482.391	80.008	0.073	-0.079
-481.376	658.690	0.055	0.142
-480.362	36.651	-0.323	-0.288
-479.347	-41.303	-0.378	-0.197
-478.332	168.158	-0.283	0.407
-477.318	-121.904	-0.395	-0.066
-476.303	189.130	0.194	0.294
-475.289	196.592	0.222	0.342
-474.274	-128.188	0.318	0.046
-473.259	92.416	0.360	-0.410
-472.245	142.067	-0.102	-0.137
-471.230	-36.285	-0.226	0.123
-470.216	-200.000	-0.021	0.452
-469.201	78.729	0.277	-0.299
-468.186	25.959	-0.041	-0.034
-467.172	-118.750	0.332	0.059
-466.157	-145.944	-0.360	-0.032
-465.143	608.256	0.104	0.264
-464.128	-153.260	-0.242	0.017
-463.113	-83.705	-0.324	0.105
-462.099	-50.179	0.198	-0.095
-461.084	187.825	0.094	0.142
-460.070	-138.637	0.373	-0.041
-459.055	119.750	0.158	0.198
-458.040	737.110	0.059	-0.159
-457.026	737.857	-0.124	-0.336
-456.011	-89.385	0.342	0.102
-454.997	597.588	0.174	0.436
-453.982	97.280	0.197	-0.228
-452.968	120.394	0.189	0.237
-451.953	78.721	-0.235	-0.254
-450.938	-179.358	-0.257	0.006
-449.924	-65.668	-0.473	0.192
-448.909	334.589	-0.153	-0.299
-447.895	-23.333	-0.169	-0.103
-446.880	-79.829	0.257	0.087
-445.865	339.573	0.054	0.107
-444.851	-100.022	-0.083	0.021
-443.836	-55.365	0.059	0.027
-442.822	-8.040	0.148	0.101
-441.807	-77.216	-0.274	-0.096
-440.792	-200.000	0.006	0.180
-439.778	-96.047	-0.225	0.060
-438.763	210.453	0.125	0.198
-437.749	205.355	0.225	-0.352
-436.734	688.885	0.101	-0.267
-435.719	548.448	0.054	0.131
-434.705	94.948	-0.142	0.163
-433.690	96.144	0.063	0.072
-432.676	-15.320	0.154	0.099
-431.661	161.742	-0.080	0.113
-430.646	-200.000	-0.033	0.197
-429.632	-48.818	-0.071	0.034
-428.617	536.795	-0.099	0.238
-427.603	643.122	-0.024	0.062
-426.588	-200.000	0.037	0.248
-425.573	384.491	0.018	-0.038
-424.559	76.015	0.064	-0.068
-423.544	37.951	-0.107	-0.096
-422.530	-153.620	0.234	0.016
-421.515	-122.092	-0.196	-0.033
-420.500	40.228	-0.267	-0.242
-419.486	-158.230	0.416	0.025
-418.471	-120.714	-0.073	0.012
-417.457	142.446	-0.191	0.256
-416.442	-146.512	-0.320	0.028
-415.428	506.332	0.076	-0.177
-414.413	-42.134	-0.176	0.091
-413.398	-13.773	-0.172	-0.112
-412.384	-200.000	-0.032	-0.185
-411.369	53.226	0.174	-0.168
-410.355	800.000	0.055	-0.225
-409.340	800.000	0.035	-0.152
-408.325	-104.084	-0.291	0.068
-407.311	306.249	-0.110	-0.207
-406.296	127.191	0.037	0.048
-405.282	54.431	0.132	0.128
-404.267	599.342	0.049	0.123
-403.252	210.370	-0.168	0.266
-402.238	-113.716	0.227	0.045
-401.223	137.015	0.096	-0.126
-400.209	156.329	0.130	-0.181
-399.194	184.116	-0.130	-0.194
-398.179	112.710	-0.110	0.134
-397.165	800.000	-0.063	-0.233
-396.150	565.238	0.064	-0.156
-395.136	-131.487	0.266	0.035
-394.121	88.714	0.191	-0.214
-393.106	-3.738	0.228	0.159
-392.092	204.209	-0.228	0.357
-391.077	-200.000	-0.012	0.157
-390.063	51.705	0.126	0.121
-389.048	236.622	0.067	0.112
-388.033	454.652	-0.033	-0.074
-387.019	-53.898	-0.223	0.103
-386.004	-124.616	-0.279	0.044
-384.990	120.528	-0.130	0.163
-383.975	107.881	-0.187	0.224
-382.960	-184.738	-0.276	-0.004
-381.946	800.000	-0.049	-0.162
-380.931	800.000	0.038	-0.149
-379.917	701.538	-0.050	0.133
-378.902	800.000	-0.022	-0.089
-377.888	388.463	-0.083	-0.173
-376.873	-29.442	0.267	0.154
-375.858	-77.979	0.199	0.069
-374.844	-83.562	-0.230	-0.074
-373.829	-200.000	-0.011	0.125
-372.815	300.488	0.092	0.170
-371.800	504.394	-0.044	-0.103
-370.785	-41.267	0.069	0.036
-369.771	-200.000	-0.007	0.161
-368.756	79.856	-0.085	-0.092
-367.742	55.417	0.223	-0.218
-366.727	-96.106	0.097	0.026
-365.712	-200.000	-0.054	-0.272
-364.698	-12.268	-0.064	-0.042
-363.683	348.724	0.116	-0.230
-362.669	-182.744	0.220	0.004
-361.654	-200.000	-0.002	-0.271
-360.639	800.000	0.033	0.097
-359.625	51.856	0.042	-0.040
-358.610	-33.729	-0.463	-0.257
-357.596	-67.501	0.236	0.093
-356.581	103.395	-0.213	0.252
-355.566	-200.000	-0.010	0.100
-354.552	-200.000	-0.010	-0.117
-353.537	286.930	0.062	0.113
-352.523	26.024	-0.130	-0.109
-351.508	301.902	-0.057	-0.106
-350.493	292.957	0.044	-0.082
-349.479	494.894	0.113	-0.261
-348.464	36.869	-0.097	0.086
-347.450	-200.000	0.003	0.074
-346.435	214.495	-0.112	0.179
-345.420	361.153	-0.034	-0.069
-344.406	-200.000	-0.008	0.058
-343.391	35.033	0.114	0.100
-342.377	363.584	0.059	0.119
-341.362	158.756	0.150	-0.209
-340.348	484.703	-0.119	0.273
-339.333	42.930	0.296	0.272
-338.318	108.534	0.293	-0.352
-337.304	800.000	0.061	-0.202
-336.289	344.034	-0.044	0.086
-335.275	800.000	0.078	0.233
-334.260	128.761	0.118	0.151
-333.245	336.369	0.069	0.135
-332.231	-120.166	-0.238	0.041
-331.216	-200.000	-0.030	-0.350
-330.202	-18.161	0.168	0.106
-329.187	-72.298	0.210	0.078
-328.172	-119.717	-0.243	0.042
-327.158	47.443	-0.124	0.116
-326.143	29.723	-0.205	0.175
-325.129	291.827	-0.123	-0.225
-324.114	-20.161	0.166	-0.103
-323.099	-200.000	-0.015	-0.152
-322.085	-200.000	-0.042	-0.220
-321.070	800.000	0.051	-0.179
-320.056	76.916	0.180	-0.192
-319.041	124.893	-0.225	-0.285
-318.026	-167.704	0.384	0.015
-317.012	364.958	0.061	-0.124
-315.997	174.585	0.249	-0.361
-314.983	800.000	0.060	0.239
-313.968	11.584	0.043	0.033
-312.953	298.922	-0.075	-0.140
-311.939	263.921	0.063	0.110
-310.924	-20.258	0.130	0.080
-309.910	209.292	0.126	-0.199
-308.895	-88.827	-0.218	0.065
-307.880	-34.725	-0.330	0.182
-306.866	-55.282	-0.110	0.050
-305.851	-200.000	-0.056	0.297
-304.837	-166.499	0.320	-0.013
-303.822	-33.409	-0.260	0.145
-302.807	-132.077	0.296	0.039
-301.793	441.319	-0.040	-0.089
-300.778	47.020	-0.241	-0.226
-299.764	494.282	0.109	-0.252
-298.749	173.540	-0.143	-0.208
-297.735	-196.075	0.043	0.000
-296.720	-200.000	0.035	0.250
-295.705	197.619	0.011	0.017
-294.691	716.737	0.153	-0.409
-293.676	-200.000	-0.029	0.221
-292.662	145.682	-0.095	-0.128
-291.647	162.695	-0.173	-0.243
-290.632	800.000	0.083	0.255
-289.618	438.178	-0.086	-0.188
-288.603	-200.000	-0.012	-0.107
-287.589	124.432	0.137	0.173
-286.574	-52.659	0.177	0.082
-285.559	176.700	-0.181	-0.264
-284.545	-67.569	0.102	0.040
-283.530	8.910	0.113	-0.086
-282.516	76.734	-0.033	-0.036
-281.501	800.000	-0.033	-0.118
-280.486	800.000	-0.114	0.330
-279.472	-30.849	-0.078	0.044
-278.457	234.284	0.110	0.183
-277.443	90.184	0.156	-0.176
-276.428	-166.273	0.279	0.012
-275.413	36.826	-0.285	-0.253
-274.399	-144.982	0.296	0.027
-273.384	-200.000	-0.012	0.204
-272.370	160.507	0.043	-0.060
-271.355	-126.522	0.155	-0.023
-270.340	372.710	0.061	0.124
-269.326	-115.600	0.197	-0.037
-268.311	-111.669	0.182	0.037
-267.297	-76.005	0.108	-0.038
-266.282	-154.175	0.163	0.011
-265.267	469.224	0.147	-0.332
-264.253	800.000	-0.086	-0.359
-263.238	-150.147	-0.030	-0.002
-262.224	333.402	-0.195	0.378
-261.209	48.541	0.044	0.042
-260.195	534.218	0.050	-0.120
-259.180	-49.894	-0.190	-0.090
-258.165	287.991	-0.052	0.095
-257.151	-200.000	-0.033	-0.148
-256.136	183.321	-0.059	-0.088
-255.122	252.326	-0.092	0.157
-254.107	-120.466	0.176	-0.030
-253.092	-84.801	0.079	0.025
-252.078	453.605	0.098	-0.217
-251.063	13.152	-0.045	-0.035
-250.049	-59.861	0.313	0.134
-249.034	18.496	0.266	0.213
-248.019	-41.737	0.192	0.099
-247.005	173.729	0.216	-0.312
-245.990	-29.127	0.090	0.052
-244.976	378.581	-0.112	-0.230
-243.961	-181.600	-0.241	0.005
-242.946	288.458	0.032	-0.059
-241.932	-70.439	-0.224	0.085
-240.917	-200.000	0.006	-0.407
-239.903	-200.000	-0.020	0.242
-238.888	-27.016	-0.169	0.099
-237.873	-200.000	-0.058	-0.400
-236.859	-200.000	0.011	0.142
-235.844	435.099	0.035	-0.076
-234.830	45.580	0.070	0.065
-233.815	4.904	0.111	0.082
-232.800	-117.428	0.079	0.014
-231.786	-200.000	-0.024	0.236
-230.771	165.149	-0.047	0.067
-229.757	518.856	0.130	0.304
-228.742	269.921	0.047	0.082
-227.727	-43.962	-0.164	-0.082
-226.713	-119.126	-0.192	0.034
-225.698	-22.827	-0.130	0.079
-224.684	-26.684	-0.116	0.068
-223.669	761.065	-0.067	0.182
-222.655	-82.925	-0.327	0.106
-221.640	15.036	0.185	-0.145
-220.625	112.529	-0.136	-0.165
-219.611	136.218	0.068	-0.088
-218.596	-77.343	-0.450	0.157
-217.582	114.324	-0.223	-0.272
-216.567	-128.711	0.484	0.068
-215.552	15.935	0.246	-0.194
-214.538	-57.664	0.104	-0.046
-213.523	106.842	0.094	0.112
-212.509	-36.742	-0.185	-0.099
-211.494	-85.477	0.386	-0.120
-210.479	251.004	0.137	0.233
-209.465	284.142	-0.131	-0.236
-208.450	-168.069	-0.156	0.006
-207.436	-200.000	0.015	0.255
-206.421	-134.079	0.490	-0.061
-205.406	27.635	0.235	-0.198
-204.392	-200.000	-0.014	0.096
-203.377	-42.580	-0.405	0.206
-202.363	-40.253	-0.382	0.199
-201.348	373.912	0.069	-0.140
-200.333	800.000	-0.054	-0.152
-199.319	800.000	-0.031	0.106
-198.304	-200.000	-0.024	-0.143
-197.290	142.455	0.108	0.144
-196.275	800.000	0.019	0.054
-195.260	-200.000	0.037	-0.476
-194.246	-122.879	0.194	0.031
-193.231	-54.227	-0.135	-0.061
-192.217	-88.113	0.153	-0.046
-191.202	350.666	0.070	-0.138
-190.187	46.793	-0.335	-0.312
-189.173	23.205	0.250	-0.206
-188.158	-136.897	-0.228	-0.026
-187.144	201.381	-0.070	0.107
-186.129	-139.052	0.315	-0.034
-185.114	234.029	0.218	0.360
-184.100	381.067	-0.107	-0.220
-183.085	-200.000	-0.047	-0.254
-182.071	-19.925	0.234	-0.144
-181.056	110.885	0.032	-0.038
-180.042	130.567	0.064	0.082
-179.027	361.190	0.041	0.082
-178.012	-200.000	-0.220	0.001
-176.998	-60.820	0.030	-0.013
-175.983	-129.259	0.253	0.035
-174.969	800.000	-0.084	0.317
-173.954	474.111	0.065	-0.147
-172.939	800.000	-0.108	-0.414
-171.925	-31.047	-0.159	0.090
-170.910	74.296	-0.100	-0.105
-169.896	800.000	0.043	-0.163
-168.881	-118.226	-0.395	-0.070
-167.866	-126.219	0.110	-0.016
-166.852	-200.000	-0.016	-0.081
-165.837	-15.776	0.255	-0.162
-164.823	181.511	-0.171	0.251
-163.808	-77.286	0.146	0.051
-162.793	-200.000	0.019	-0.097
-161.779	215.146	-0.146	-0.231
-160.764	688.986	-0.135	0.354
-159.750	132.074	-0.132	0.169
-158.735	101.194	-0.104	0.121
-157.720	800.000	-0.061	-0.183
-156.706	-200.000	-0.003	-0.271
-155.691	104.541	-0.145	-0.171
-154.677	-121.374	-0.262	-0.044
-153.662	215.388	-0.144	0.228
-152.647	-200.000	-0.034	0.247
-151.633	198.113	0.126	0.193
-150.618	-52.816	0.332	0.153
-149.604	-155.601	0.303	0.019
-148.589	431.912	-0.057	0.123
-147.574	-200.000	-0.036	0.257
-146.560	-88.350	-0.165	0.049
-145.545	-200.000	-0.033	0.181
-144.531	-56.908	0.260	0.114
-143.516	338.423	-0.092	0.180
-142.502	-3.703	-0.033	0.023
-141.487	468.618	-0.114	-0.255
-140.472	125.069	-0.155	-0.195
-139.458	-4.765	-0.239	-0.164
-138.443	-158.009	-0.042	-0.002
-137.429	-200.000	0.002	0.030
-136.414	-200.000	-0.018	-0.080
-135.399	101.037	0.143	0.166
-134.385	3.873	0.234	-0.170
-133.370	-85.643	-0.152	-0.047
-132.356	80.813	0.331	0.356
-131.341	-115.327	-0.177	-0.033
-130.326	-60.631	-0.137	0.058
-129.312	-200.000	-0.000	0.345
-128.297	2.109	0.206	0.148
-127.283	-44.009	0.145	-0.073
-126.268	53.743	-0.136	0.130
-125.253	-200.000	-0.015	0.200
-124.239	116.153	-0.198	-0.242
-123.224	-200.000	-0.066	-0.361
-122.210	114.007	0.178	-0.216
-121.195	-200.000	0.022	0.270
-120.180	-41.222	0.070	-0.036
-119.166	-162.357	0.336	0.017
-118.151	-25.461	-0.292	0.172
-117.137	-200.000	0.025	0.261
-116.122	-65.496	0.200	0.080
-115.107	-114.273	-0.135	0.026
-114.093	-28.637	0.168	0.096
-113.078	-51.599	0.071	0.033
-112.064	-117.163	0.155	0.028
-111.049	-24.167	-0.126	0.075
-110.034	-200.000	-0.027	0.174
-109.020	119.275	0.145	0.179
-108.005	78.970	0.335	-0.357
-106.991	-68.508	0.233	0.090
-105.976	-200.000	0.025	0.235
-104.962	-200.000	-0.062	0.319
-103.947	-200.000	0.002	0.104
-102.932	-29.923	0.075	-0.043
-101.918	-200.000	-0.050	-0.392
-100.903	-123.512	-0.231	0.037
-99.889	-200.000	-0.015	-0.232
-98.874	-86.279	0.381	0.117
-97.859	-3.282	-0.022	0.015
-96.845	204.153	-0.262	0.404
-95.830	51.863	0.150	0.142
-94.816	-91.357	-0.183	0.052
-93.801	604.877	-0.060	0.149
-92.786	-200.000	0.027	0.516
-91.772	-200.000	-0.049	0.300
-90.757	76.507	-0.161	-0.170
-89.743	800.000	-0.158	0.523
-88.728	800.000	-0.028	0.077
-87.713	-141.132	0.252	-0.026
-86.699	-73.209	-0.254	-0.093
-85.684	-108.508	-0.075	0.016
-84.670	-126.354	0.131	0.019
-83.655	4.205	-0.103	0.075
-82.640	686.504	0.134	0.348
-81.626	201.901	-0.155	0.238
-80.611	-200.000	-0.002	0.139
-79.597	-104.860	0.312	-0.071
-78.582	800.000	0.062	0.182
-77.567	-200.000	-0.024	-0.231
-76.553	168.411	-0.016	-0.022
-75.538	-200.000	0.017	0.161
-74.524	40.335	0.362	0.325
-73.509	-51.191	0.229	0.107
-72.494	-108.414	0.211	-0.045
-71.480	214.956	0.203	0.321
-70.465	-68.772	-0.025	0.010
-69.451	-9.777	-0.098	-0.065
-68.436	21.142	0.115	0.093
-67.422	-200.000	0.003	0.321
-66.407	-200.000	0.013	0.274
-65.392	-200.000	0.007	0.239
-64.378	565.291	0.143	0.346
-63.363	277.947	-0.156	0.276
-62.349	132.994	0.242	0.311
-61.334	-21.846	-1.246	-0.755
-60.319	16.525	0.560	0.440
-59.305	263.718	-0.305	-0.528
-58.290	518.120	0.527	1.228
-57.276	293.562	0.868	1.577
-56.261	-200.000	86.529	494.693
-55.246	515.948	1394.549	3242.346
-54.232	181.358	2614.174	3825.567
-53.217	118.121	2230.699	2736.228
-52.203	48.499	1675.954	1562.205
-51.188	41.100	1406.375	1264.108
-50.173	37.892	1362.354	1204.710
-49.159	56.596	1404.834	1359.881
-48.144	61.273	1423.658	1407.358
-47.130	41.624	1381.384	1244.717
-46.115	37.924	1364.254	1206.396
-45.100	37.710	1359.157	1200.526
-44.086	37.640	1356.668	1197.849
-43.071	37.682	1354.048	1195.743
-42.057	37.733	1351.775	1194.004
-41.042	37.709	1350.287	1192.493
-40.027	37.731	1348.645	1191.130
-39.013	37.680	1346.782	1189.128
-37.998	37.636	1345.012	1187.247
-36.984	37.786	1343.163	1186.484
-35.969	37.829	1341.151	1184.918
-34.954	37.886	1339.211	1183.506
-33.940	37.807	1338.194	1182.077
-32.925	37.871	1336.874	1181.254
-31.911	37.821	1335.876	1180.025
-30.896	37.941	1333.784	1178.855
-29.881	37.933	1332.386	1177.526
-28.867	37.988	1331.005	1176.589
-27.852	37.901	1329.678	1174.845
-26.838	37.976	1327.913	1173.688
-25.823	37.975	1326.732	1172.595
-24.809	37.916	1325.186	1170.827
-23.794	37.880	1324.116	1169.617
-22.779	37.928	1322.476	1168.410
-21.765	37.879	1321.295	1167.029
-20.750	37.866	1320.060	1165.814
-19.736	37.781	1318.788	1164.135
-18.721	37.766	1317.440	1162.810
-17.706	37.734	1316.281	1161.548
-16.692	37.716	1314.690	1159.992
-15.677	37.772	1313.681	1159.391
-14.663	37.974	1312.084	1159.132
-13.648	37.660	1311.656	1156.847
-12.633	37.862	1309.913	1156.459
-11.619	37.917	1309.315	1156.212
-10.604	37.735	1308.561	1154.420
-9.590	37.661	1307.951	1153.401
-8.575	37.731	1306.526	1152.514
-7.560	37.683	1305.995	1151.712
-6.546	37.751	1304.900	1151.103
-5.531	37.616	1304.486	1149.895
-4.517	37.776	1302.848	1149.349
-3.502	37.823	1301.842	1148.692
-2.487	37.767	1301.116	1147.679
-1.473	37.761	1297.615	1144.507
-0.458	36.432	1281.582	1122.604
0.556	32.991	1261.743	1078.208
1.571	28.710	1264.832	1056.191
2.586	27.160	1279.562	1059.373
3.600	25.718	1267.493	1040.956
4.615	19.288	1191.962	943.745
5.629	9.706	1111.816	831.044
6.644	5.119	1089.320	790.947
7.659	4.798	1087.134	787.668
8.673	4.971	1086.160	787.770
9.688	4.883	1084.955	786.378
10.702	5.220	1083.230	786.756
11.717	10.537	1091.071	819.305
12.731	18.965	1103.451	871.414
13.746	21.289	1105.249	884.536
14.761	19.934	1102.503	875.410
15.775	18.937	1100.516	868.725
16.790	17.803	1098.173	861.078
17.804	16.983	1096.835	855.814
18.819	16.665	1096.024	853.505
19.834	16.443	1095.223	851.686
20.848	16.243	1093.970	849.631
21.863	16.134	1092.866	848.150
22.877	15.902	1092.447	846.583
23.892	15.937	1091.200	845.720
24.907	15.957	1090.720	845.370
25.921	15.971	1089.660	844.546
26.936	15.921	1088.547	843.358
27.950	16.010	1087.214	842.696
28.965	16.155	1085.063	841.678
29.980	16.302	1083.577	841.179
30.994	16.353	1082.456	840.490
32.009	16.195	1081.921	839.215
33.023	16.142	1080.969	838.139
34.038	16.125	1079.372	836.743
35.053	16.095	1078.707	836.004
36.067	16.034	1077.890	834.994
37.082	16.046	1076.946	834.250
38.096	16.232	1076.066	834.412
39.111	16.107	1075.577	833.342
40.126	16.070	1074.331	832.120
41.140	15.897	1072.659	829.899
42.155	15.831	1071.648	828.720
43.169	15.680	1070.655	827.136
44.184	15.777	1069.174	826.396
45.199	15.787	1068.161	825.588
46.213	15.813	1067.543	825.166
47.228	16.096	1066.461	825.641
48.242	16.047	1065.310	824.437
49.257	15.992	1064.529	823.489
50.271	15.997	1063.510	822.654
51.286	16.014	1062.562	821.932
52.301	16.098	1061.327	821.314
53.315	15.969	1060.544	820.007
54.330	15.855	1059.488	818.563
55.344	15.909	1058.818	818.234
56.359	15.943	1057.364	817.206
57.374	15.838	1056.971	816.319
58.388	15.719	1055.827	814.787
59.403	15.742	1055.015	814.200
60.417	15.811	1054.363	813.955
61.432	15.680	1053.650	812.701
62.447	15.660	1053.057	812.075
63.461	15.634	1051.798	810.907
64.476	15.641	1051.079	810.313
65.490	15.655	1050.470	809.843
66.505	15.795	1049.188	809.455
67.520	15.773	1049.002	809.134
68.534	15.845	1047.767	808.454
69.549	15.752	1047.008	807.353
70.563	15.602	1046.990	806.545
71.578	15.450	1045.644	804.712
72.593	15.532	1044.988	804.526
73.607	15.548	1044.465	804.128
74.622	15.567	1043.794	803.633
75.636	15.537	1043.177	802.943
76.651	15.678	1041.984	802.627
77.666	15.683	1041.623	802.301
78.680	15.602	1041.239	801.549
79.695	15.713	1040.440	801.391
80.709	15.785	1039.654	801.058
81.724	15.747	1039.421	800.628
82.739	15.932	1037.795	800.181
83.753	15.993	1037.566	800.224
84.768	16.179	1036.555	800.257
85.782	16.257	1036.154	800.245
86.797	16.242	1034.810	799.068
87.812	16.023	1033.721	797.121
88.826	16.150	1032.896	797.014
89.841	16.153	1032.110	796.349
90.855	16.148	1031.211	795.562
91.870	16.217	1030.377	795.175
92.884	16.240	1029.438	794.486
93.899	16.203	1028.896	793.822
94.914	16.288	1027.806	793.312
95.928	16.267	1027.253	792.715
96.943	16.146	1026.133	791.216
97.957	16.165	1025.075	790.417
98.972	16.125	1024.533	789.741
99.987	16.114	1023.789	789.047
101.001	16.049	1022.649	787.797
102.016	16.128	1021.640	787.315
103.030	16.193	1020.594	786.746
104.045	16.180	1020.057	786.201
105.060	16.072	1019.491	785.192
106.074	15.936	1018.000	783.342
107.089	15.785	1016.996	781.800
108.103	15.832	1016.230	781.359
109.118	15.909	1014.531	780.341
110.133	15.811	1014.106	779.491
111.147	15.892	1013.203	779.100
112.162	15.739	1012.804	778.017
113.176	16.044	1011.577	778.416
114.191	16.008	1011.021	777.752
115.206	15.889	1010.251	776.541
116.220	15.748	1009.685	775.388
117.235	15.892	1008.382	774.983
118.249	15.840	1007.728	774.171
119.264	15.911	1006.987	773.863
120.279	15.935	1006.158	773.267
121.293	15.795	1005.363	771.943
122.308	15.781	1004.110	770.847
123.322	15.654	1003.368	769.630
124.337	15.645	1002.229	768.648
125.352	15.713	1001.182	768.084
126.366	15.789	1000.162	767.584
127.381	15.790	999.137	766.732
128.395	15.776	998.405	766.041
129.410	15.881	997.495	765.752
130.424	15.903	996.624	765.116
131.439	15.942	996.239	764.928
132.454	15.966	995.103	764.099
133.468	16.022	994.178	763.575
134.483	15.919	993.549	762.556
135.497	15.854	992.412	761.321
136.512	15.901	991.450	760.731
137.527	16.032	990.829	760.777
138.541	15.903	990.232	759.671
139.556	16.040	989.440	759.611
140.570	16.209	988.776	759.799
141.585	16.415	987.888	759.971
142.600	16.287	986.996	758.644
143.614	16.397	986.283	758.523
144.629	16.359	985.576	757.742
145.643	16.263	984.755	756.616
146.658	16.230	983.618	755.525
147.673	16.110	982.638	754.167
148.687	16.034	981.519	752.906
149.702	15.940	980.844	751.899
150.716	16.026	979.958	751.540
151.731	16.071	978.814	750.796
152.746	16.017	978.286	750.081
153.760	16.187	977.419	750.107
154.775	16.320	977.194	750.460
155.789	16.321	976.464	749.838
156.804	16.216	975.961	748.917
157.819	16.217	975.153	748.236
158.833	16.314	974.503	748.100
159.848	16.440	973.828	748.074
160.862	16.231	972.820	746.311
161.877	16.248	971.835	745.561
162.892	16.103	970.607	743.917
163.906	16.099	969.413	742.916
164.921	16.081	968.928	742.401
165.935	16.224	967.661	741.992
166.950	16.142	967.123	741.156
167.964	16.184	965.988	740.404
168.979	16.173	965.370	739.817
169.994	16.145	964.466	738.937
171.008	16.292	963.781	738.987
172.023	16.449	962.895	738.930
173.037	16.432	962.215	738.269
174.052	16.231	961.637	736.881
175.067	16.332	960.562	736.433
176.081	16.062	960.384	735.054
177.096	16.134	959.637	734.731
178.110	16.169	959.077	734.391
179.125	16.271	958.579	734.388
180.140	16.323	957.764	733.923
181.154	16.269	957.655	733.544
182.169	16.298	956.811	732.955
183.183	16.496	956.275	733.341
184.198	16.504	955.489	732.704
185.213	16.495	954.931	732.174
186.227	16.371	954.303	731.092
187.242	16.526	953.429	731.028
188.256	16.593	952.791	730.762
189.271	16.607	952.167	730.282
190.286	16.395	951.143	728.515
191.300	16.252	949.884	726.872
192.315	16.129	949.499	725.986
193.329	16.055	949.257	725.418
194.344	16.226	948.330	725.378
195.359	16.352	947.570	725.274
196.373	16.444	947.218	725.333
197.388	16.507	946.588	725.061
198.402	16.752	946.230	725.772
199.417	16.788	945.862	725.578
200.432	16.713	945.734	725.096
201.446	16.816	945.072	724.963
202.461	16.903	944.435	724.782
203.475	16.830	943.571	723.743
204.490	16.725	942.891	722.708
205.504	16.715	941.601	721.613
206.519	16.750	940.918	721.177
207.534	16.691	940.206	720.318
208.548	16.697	939.717	719.901
209.563	16.596	939.222	719.029
210.577	16.714	938.257	718.729
211.592	16.952	937.565	719.147
212.607	16.948	936.744	718.434
213.621	17.002	936.059	718.076
214.636	16.863	935.074	716.666
215.650	17.016	934.381	716.719
216.665	17.005	934.051	716.355
217.680	17.066	933.650	716.244
218.694	17.112	932.560	715.536
219.709	17.142	931.447	714.746
220.723	16.942	931.465	713.856
221.738	16.980	930.689	713.357
222.753	17.029	929.771	712.796
223.767	17.045	929.363	712.488
224.782	17.109	929.084	712.479
225.796	17.153	928.557	712.197
226.811	16.967	928.078	710.986
227.826	17.083	927.081	710.647
228.840	16.956	926.337	709.479
229.855	16.938	925.386	708.615
230.869	16.910	924.586	707.824
231.884	16.939	924.173	707.564
232.899	16.916	923.088	706.576
233.913	16.958	922.517	706.250
234.928	16.822	921.669	704.973
235.942	17.014	921.010	705.205
236.957	16.992	920.594	704.733
237.972	16.886	919.977	703.759
238.986	16.910	919.472	703.410
240.001	16.740	919.147	702.391
241.015	17.011	917.926	702.522
242.030	17.038	917.416	702.180
243.045	17.173	916.989	702.347
244.059	17.169	916.334	701.770
245.074	17.032	915.508	700.510
246.088	17.143	915.125	700.609
247.103	17.223	914.524	700.419
248.117	17.448	913.745	700.685
249.132	17.460	913.695	700.634
250.147	17.633	912.952	700.714
251.161	17.683	912.315	700.369
252.176	17.704	911.413	699.703
253.190	17.686	911.042	699.279
254.205	17.685	910.525	698.819
255.220	17.703	909.728	698.218
256.234	17.637	909.020	697.345
257.249	17.796	908.157	697.268
258.263	17.656	907.553	696.174
259.278	17.698	906.746	695.662
260.293	17.894	905.924	695.768
261.307	17.769	905.782	695.089
262.322	17.742	905.565	694.751
263.336	17.746	904.533	693.915
264.351	17.914	903.526	693.762
265.366	17.889	902.831	693.066
266.380	17.771	902.371	692.174
267.395	17.827	901.688	691.816
268.409	17.799	900.674	690.861
269.424	17.833	899.909	690.355
270.439	17.768	899.357	689.606
271.453	17.879	898.391	689.251
272.468	17.677	898.266	688.281
273.482	17.671	897.632	687.710
274.497	17.724	896.983	687.366
275.512	17.774	896.821	687.381
276.526	17.761	896.121	686.731
277.541	17.784	895.422	686.227
278.555	17.973	894.683	686.360
279.570	18.053	894.293	686.320
280.585	17.965	893.316	685.155
281.599	17.887	892.022	683.790
282.614	17.922	891.525	683.490
283.628	17.778	891.520	682.848
284.643	18.008	890.456	682.893
285.657	18.022	889.686	682.300
286.672	17.965	889.429	681.816
287.687	17.904	888.833	681.053
288.701	18.005	887.741	680.557
289.716	17.935	887.627	680.132
290.730	18.014	886.935	679.857
291.745	18.065	886.290	679.506
292.760	18.122	885.763	679.267
293.774	18.269	885.477	679.570
294.789	18.099	884.360	677.979
295.803	18.108	883.781	677.511
296.818	18.187	882.428	676.726
297.833	18.071	882.044	675.914
298.847	18.184	881.701	676.037
299.862	18.088	881.134	675.163
300.876	18.168	880.809	675.172
301.891	18.284	880.225	675.121
302.906	18.352	879.419	674.709
303.920	18.511	878.980	674.939
304.935	18.390	878.615	674.127
305.949	18.360	877.848	673.359
306.964	18.388	876.844	672.639
307.979	18.349	876.182	671.917
308.993	18.411	876.062	672.008
310.008	18.319	875.874	671.446
311.022	18.277	874.884	670.462
312.037	18.273	874.430	670.041
313.052	18.270	873.276	669.084
314.066	18.392	872.722	669.078
315.081	18.287	872.270	668.263
316.095	18.300	871.768	667.870
317.110	18.324	871.073	667.371
318.125	18.342	870.602	667.021
319.139	18.290	869.944	666.255
320.154	18.245	869.763	665.884
321.168	18.362	869.014	665.704
322.183	18.376	868.723	665.480
323.197	18.320	867.783	664.484
324.212	18.426	867.452	664.581
325.227	18.384	867.148	664.124
326.241	18.433	866.227	663.550
327.256	18.328	865.580	662.591
328.270	18.257	865.101	661.890
329.285	18.344	864.228	661.503
330.300	18.466	864.042	661.770
331.314	18.455	863.342	661.136
332.329	18.477	863.324	661.145
333.343	18.516	862.432	660.555
334.358	18.607	861.921	660.454
335.373	18.578	861.977	660.330
336.387	18.629	861.324	659.965
337.402	18.695	861.021	659.931
338.416	18.787	860.954	660.172
339.431	18.699	860.776	659.640
340.446	18.886	859.961	659.674
341.460	18.718	860.028	659.022
342.475	18.831	859.524	659.014
343.489	18.890	859.271	658.986
344.504	19.061	858.077	658.667
345.519	19.091	857.494	658.276
346.533	19.052	857.015	657.700
347.548	18.938	856.507	656.815
348.562	18.778	855.958	655.725
349.577	18.593	855.686	654.754
350.592	18.730	854.549	654.348
351.606	18.749	853.962	653.914
352.621	18.610	853.592	653.043
353.635	18.698	852.921	652.808
354.650	18.754	852.129	652.356
355.665	18.942	851.378	652.437
356.679	18.866	851.040	651.830
357.694	19.010	850.295	651.750
358.708	18.925	849.802	650.992
359.723	19.012	848.922	650.589
360.738	19.052	848.177	650.112
361.752	18.996	847.810	649.559
362.767	19.132	847.107	649.478
363.781	19.201	846.915	649.534
364.796	19.284	846.459	649.440
365.810	19.353	846.075	649.345
366.825	19.283	845.488	648.577
367.840	19.395	845.145	648.676
368.854	19.397	844.207	647.906
369.869	19.458	843.810	647.775
370.883	19.376	843.191	646.934
371.898	19.217	843.353	646.402
372.913	19.315	842.927	646.389
373.927	19.244	842.501	645.737
374.942	19.400	841.757	645.694
375.956	19.432	841.630	645.659
376.971	19.549	840.923	645.498
377.986	19.641	840.358	645.350
379.000	19.594	840.130	644.944
380.015	19.455	839.720	644.051
381.029	19.571	838.610	643.575
382.044	19.588	838.375	643.403
383.059	19.562	838.026	642.980
384.073	19.606	836.906	642.228
385.088	19.483	836.469	641.377
386.102	19.419	835.652	640.458
387.117	19.291	835.679	639.947
388.132	19.417	834.797	639.682
389.146	19.594	833.979	639.656
390.161	19.529	833.732	639.169
391.175	19.594	833.350	639.060
392.190	19.427	832.909	638.045
393.205	19.337	832.654	637.460
394.219	19.510	831.891	637.458
395.234	19.500	831.327	636.933
396.248	19.242	831.387	635.973
397.263	19.227	830.719	635.349
398.278	19.390	830.017	635.357
399.292	19.402	829.516	634.961
400.307	19.352	829.626	634.807
401.321	19.432	828.788	634.403
402.336	19.505	828.154	634.127
403.350	19.720	827.733	634.538
404.365	19.478	827.610	633.500
405.380	19.797	826.682	633.903
406.394	19.877	826.382	633.912
407.409	19.818	826.227	633.521
408.423	19.917	825.999	633.651
409.438	19.842	825.500	632.939
410.453	19.946	824.950	632.839
411.467	19.978	824.417	632.494
412.482	19.911	824.309	632.110
413.496	20.070	823.591	632.084
414.511	19.978	823.811	631.860
415.526	20.022	823.160	631.464
416.540	20.037	822.570	631.010
417.555	20.075	821.891	630.573
418.569	19.975	821.560	629.898
419.584	20.067	821.258	629.946
420.599	20.080	820.628	629.455
421.613	152.606	1369.194	1778.320
422.628	132.882	1449.170	1778.432
