DTS Sentinel unit serial number:	SN413079Multiplexer serial number:	ORYXHardware model number:	OX4-SRSoftware version number:	ORYX F/W v4.00 Oryx Data Collector v3.7.2.0data status	okinstallation	princeton_trtdifferential loss correction	single-endedforward channel	channel 1reverse channel	N/Adate	2019/09/16time	09:30:35forward acquisition time	60.00reverse acquisition time	0.00gamma	496.2192k internal	0.2321k external	0.2321temperature offset calibration	0.9968default loss term (dB/km)	0.3790temperature slope calibration	1.0000multiplexer offset coefficient	1.0000multiplexer slope coefficient	1.0000fibre end	0.00T internal ref (°C)	31.86T ext. ref 1 (°C)	12.22T ext. ref 2 (°C)	29.58length (m)	temperature (°C)	Stokes	anti-Stokes-747.200	-200.000	0.009	0.075
-746.185	-163.376	-0.290	0.014
-745.171	800.000	-0.088	0.364
-744.156	-200.000	0.034	0.292
-743.142	-156.111	0.347	-0.022
-742.127	92.763	-0.172	0.196
-741.112	-53.184	-0.320	0.148
-740.098	-168.508	0.349	-0.013
-739.083	800.000	-0.109	0.368
-738.069	83.571	-0.023	-0.026
-737.054	-28.496	0.156	0.091
-736.039	-18.603	-0.372	-0.235
-735.025	-53.850	0.267	0.123
-734.010	141.379	0.073	0.098
-732.996	14.828	-0.108	-0.086
-731.981	29.252	-0.442	-0.380
-730.966	-200.000	0.051	-0.316
-729.952	-64.332	-0.157	-0.065
-728.937	516.550	-0.034	-0.080
-727.923	-29.641	-0.143	-0.082
-726.908	-55.154	-0.083	0.038
-725.894	-200.000	-0.048	-0.469
-724.879	-140.409	-0.299	-0.031
-723.864	375.341	-0.081	-0.167
-722.850	-57.284	-0.088	0.039
-721.835	309.001	-0.172	-0.324
-720.821	182.080	0.075	0.112
-719.806	23.594	0.101	-0.084
-718.791	800.000	-0.109	-0.323
-717.777	292.363	-0.167	0.308
-716.762	35.559	-0.055	0.049
-715.748	-97.208	0.268	-0.071
-714.733	5.877	0.223	-0.167
-713.718	445.548	0.077	0.171
-712.704	800.000	-0.054	0.212
-711.689	14.221	-0.088	0.069
-710.675	313.888	-0.014	0.027
-709.660	-80.393	0.163	-0.055
-708.645	-200.000	0.012	0.079
-707.631	800.000	0.014	0.055
-706.616	444.414	0.066	-0.146
-705.602	22.172	-0.032	0.026
-704.587	-73.281	0.194	0.072
-703.572	141.390	0.119	0.158
-702.558	-200.000	-0.006	-0.188
-701.543	131.619	-0.159	0.207
-700.529	-179.059	0.099	0.002
-699.514	275.970	-0.130	0.234
-698.499	110.399	0.076	-0.092
-697.485	800.000	-0.122	-0.427
-696.470	-200.000	0.036	-0.330
-695.456	800.000	-0.036	-0.129
-694.441	-8.751	-0.076	0.052
-693.426	-141.426	0.067	-0.007
-692.412	108.047	0.211	-0.254
-691.397	-145.989	-0.308	0.028
-690.383	-200.000	-0.004	-0.130
-689.368	270.300	-0.124	-0.220
-688.354	110.849	0.229	0.277
-687.339	-200.000	0.033	0.300
-686.324	-200.000	-0.004	0.313
-685.310	800.000	-0.092	0.274
-684.295	54.241	0.092	0.089
-683.281	-68.161	0.045	0.018
-682.266	-101.350	0.267	0.066
-681.251	-118.712	-0.081	0.014
-680.237	37.123	-0.101	0.090
-679.222	-8.047	0.081	0.055
-678.208	-119.859	0.100	-0.017
-677.193	-87.485	-0.234	-0.071
-676.178	-200.000	-0.024	0.186
-675.164	-0.118	0.091	-0.065
-674.149	-158.675	0.331	-0.019
-673.135	277.240	0.185	0.332
-672.120	-192.065	0.153	-0.001
-671.105	302.758	0.050	0.093
-670.091	-170.266	0.464	0.016
-669.076	-200.000	0.027	0.160
-668.062	800.000	-0.063	-0.249
-667.047	29.429	0.134	0.114
-666.032	-90.216	-0.224	-0.066
-665.018	1.978	-0.289	-0.210
-664.003	589.365	0.059	-0.145
-662.989	-15.160	0.316	-0.204
-661.974	-34.669	-0.134	0.074
-660.959	-147.485	-0.110	-0.009
-659.945	-77.336	0.273	0.096
-658.930	-23.390	0.092	0.056
-657.916	596.084	-0.166	-0.415
-656.901	485.627	0.115	0.263
-655.886	256.192	-0.052	-0.090
-654.872	-200.000	-0.011	0.050
-653.857	537.476	-0.159	-0.380
-652.843	16.583	0.163	-0.130
-651.828	800.000	-0.109	-0.452
-650.814	800.000	-0.023	0.064
-649.799	-0.480	0.116	0.083
-648.784	-126.763	-0.451	-0.067
-647.770	-200.000	-0.002	-0.107
-646.755	58.517	0.208	-0.205
-645.741	-114.786	-0.316	0.061
-644.726	18.204	0.090	0.072
-643.711	82.465	-0.146	-0.159
-642.697	681.169	-0.153	-0.401
-641.682	-132.838	-0.219	0.028
-640.668	-143.130	-0.308	0.030
-639.653	-70.474	-0.176	-0.067
-638.638	-200.000	-0.044	-0.278
-637.624	800.000	-0.006	-0.022
-636.609	-76.879	-0.446	0.157
-635.595	368.363	0.033	-0.066
-634.580	-200.000	-0.031	-0.181
-633.565	104.462	-0.027	0.033
-632.551	74.695	0.145	-0.154
-631.536	39.240	0.129	-0.116
-630.522	-68.690	0.143	-0.056
-629.507	-200.000	-0.030	0.219
-628.492	800.000	-0.115	-0.354
-627.478	506.634	0.060	0.141
-626.463	-86.374	-0.156	-0.048
-625.449	116.569	-0.079	-0.098
-624.434	-95.558	0.148	-0.040
-623.419	-200.000	0.043	-0.234
-622.405	-200.000	-0.049	-0.228
-621.390	-200.000	-0.032	0.250
-620.376	-124.215	-0.480	-0.076
-619.361	-162.425	-0.137	0.007
-618.346	-87.629	-0.160	0.048
-617.332	-70.589	-0.015	-0.006
-616.317	100.232	0.064	0.075
-615.303	475.917	0.011	-0.024
-614.288	186.570	0.109	-0.163
-613.273	-162.627	0.186	-0.009
-612.259	-200.000	0.036	0.347
-611.244	-200.000	-0.016	-0.070
-610.230	-67.365	0.144	0.057
-609.215	-91.568	0.379	0.109
-608.201	7.524	-0.185	-0.139
-607.186	-200.000	0.007	0.103
-606.171	-200.000	-0.038	0.223
-605.157	-44.126	-0.309	0.156
-604.142	800.000	-0.033	-0.110
-603.128	-58.785	-0.427	-0.186
-602.113	-83.599	-0.174	0.056
-601.098	-30.077	0.222	0.127
-600.084	-95.859	0.106	0.028
-599.069	-76.374	0.478	-0.169
-598.055	-101.512	0.137	0.033
-597.040	-74.781	-0.083	-0.030
-596.025	473.373	0.228	0.516
-595.011	-200.000	0.006	0.113
-593.996	494.439	0.065	-0.149
-592.982	-67.364	0.161	-0.063
-591.967	800.000	-0.155	-0.490
-590.952	-105.180	-0.394	0.090
-589.938	30.831	0.181	0.156
-588.923	-28.303	-0.050	-0.029
-587.909	-22.216	0.117	-0.071
-586.894	-154.252	-0.156	0.011
-585.879	463.563	-0.088	-0.198
-584.865	119.360	-0.193	0.239
-583.850	-65.910	-0.143	-0.058
-582.836	322.476	-0.059	0.113
-581.821	110.651	-0.146	-0.176
-580.806	-134.595	-0.235	0.029
-579.792	94.776	-0.199	-0.228
-578.777	-200.000	0.038	-0.379
-577.763	-114.229	-0.096	-0.019
-576.748	42.036	0.168	-0.153
-575.733	14.340	0.130	-0.102
-574.719	64.042	-0.271	0.274
-573.704	-115.129	-0.318	0.060
-572.690	-200.000	-0.044	0.341
-571.675	75.485	-0.195	0.206
-570.661	51.786	-0.019	0.018
-569.646	567.917	0.040	0.098
-568.631	-28.046	0.149	-0.086
-567.617	-27.724	-0.151	0.088
-566.602	-123.946	0.157	-0.025
-565.588	156.277	-0.008	-0.011
-564.573	-200.000	0.012	0.189
-563.558	-28.100	0.203	-0.118
-562.544	-37.156	-0.108	-0.058
-561.529	-200.000	-0.062	-0.285
-560.515	-200.000	-0.047	-0.224
-559.500	58.962	-0.046	-0.045
-558.485	-200.000	0.015	-0.103
-557.471	-200.000	-0.030	0.196
-556.456	800.000	0.020	0.072
-555.442	-86.289	-0.136	0.042
-554.427	800.000	0.026	-0.084
-553.412	-102.164	0.021	-0.005
-552.398	800.000	-0.113	0.326
-551.383	156.550	0.118	0.164
-550.369	-200.000	-0.022	-0.359
-549.354	-113.245	-0.349	-0.069
-548.339	-15.231	-0.095	0.061
-547.325	79.869	-0.245	-0.264
-546.310	87.753	0.280	0.311
-545.296	-200.000	-0.036	0.326
-544.281	-63.497	-0.288	-0.119
-543.266	-200.000	-0.029	-0.375
-542.252	-121.522	-0.434	0.072
-541.237	44.188	0.147	-0.135
-540.223	-132.727	0.219	-0.028
-539.208	2.047	-0.119	-0.086
-538.193	13.974	-0.073	-0.057
-537.179	-200.000	-0.008	0.045
-536.164	336.578	-0.060	0.118
-535.150	64.532	0.212	0.214
-534.135	-200.000	0.026	0.411
-533.121	-54.430	-0.237	0.108
-532.106	-147.794	-0.209	-0.018
-531.091	762.583	0.044	-0.121
-530.077	684.179	-0.044	-0.116
-529.062	-34.290	-0.363	0.200
-528.048	-6.990	0.126	0.086
-527.033	800.000	0.054	-0.203
-526.018	300.356	0.132	-0.244
-525.004	313.056	-0.204	-0.384
-523.989	2.750	-0.170	-0.123
-522.975	16.088	-0.041	0.033
-521.960	-106.257	0.219	-0.049
-520.945	477.660	-0.089	0.202
-519.931	-200.000	-0.005	0.028
-518.916	-158.643	-0.096	0.006
-517.902	68.334	0.145	0.149
-516.887	-200.000	0.002	0.018
-515.872	-141.940	-0.291	-0.029
-514.858	800.000	0.118	-0.448
-513.843	387.757	0.178	-0.368
-512.829	-67.785	0.152	0.060
-511.814	-126.607	-0.369	0.055
-510.799	-200.000	-0.049	-0.392
-509.785	-114.019	0.340	-0.066
-508.770	800.000	-0.069	0.209
-507.756	-200.000	0.002	0.320
-506.741	-146.434	0.071	-0.006
-505.726	-200.000	0.017	0.472
-504.712	-200.000	-0.037	0.237
-503.697	-200.000	-0.023	0.200
-502.683	-146.846	-0.246	-0.021
-501.668	-200.000	0.047	0.234
-500.653	-117.474	0.226	-0.041
-499.639	195.611	-0.083	-0.126
-498.624	-196.969	0.292	-0.002
-497.610	-54.398	-0.134	-0.061
-496.595	249.094	-0.164	0.278
-495.581	-19.688	-0.346	0.214
-494.566	-22.717	0.054	0.033
-493.551	-63.182	-0.122	0.051
-492.537	-108.947	0.159	-0.034
-491.522	712.816	0.110	0.291
-490.508	9.465	0.213	-0.161
-489.493	-46.874	-0.228	-0.112
-488.478	282.534	-0.086	0.154
-487.464	122.156	0.077	0.096
-486.449	159.897	0.060	0.084
-485.435	-9.314	0.183	0.122
-484.420	31.347	0.173	-0.148
-483.405	800.000	0.126	0.478
-482.391	358.695	-0.194	0.388
-481.376	-71.102	0.173	0.065
-480.362	-97.343	-0.152	-0.039
-479.347	-126.043	-0.170	0.026
-478.332	-200.000	0.026	0.185
-477.318	-100.219	0.446	-0.111
-476.303	-200.000	0.021	0.315
-475.289	-46.085	-0.327	0.161
-474.274	-72.238	-0.131	0.048
-473.259	800.000	0.050	0.164
-472.245	109.787	0.120	-0.144
-471.230	-63.116	-0.348	0.144
-470.216	-47.328	-0.209	-0.102
-469.201	-200.000	-0.121	0.768
-468.186	-200.000	-0.021	-0.099
-467.172	-200.000	-0.013	-0.168
-466.157	11.815	0.017	0.013
-465.143	-25.731	0.392	0.231
-464.128	-70.660	0.272	0.103
-463.113	-106.232	-0.312	0.070
-462.099	-108.123	0.274	0.059
-461.084	155.671	0.177	0.244
-460.070	800.000	0.109	0.389
-459.055	283.704	0.234	-0.420
-458.040	-98.336	0.414	0.106
-457.026	-200.000	-0.012	0.081
-456.011	27.615	-0.114	0.096
-454.997	766.515	0.087	-0.236
-453.982	-20.453	0.107	-0.066
-452.968	-200.000	0.003	-0.198
-451.953	-162.004	0.371	-0.019
-450.938	129.876	-0.197	-0.252
-449.924	800.000	-0.091	-0.359
-448.909	37.906	0.174	0.155
-447.895	81.923	0.229	-0.247
-446.880	-200.000	-0.061	-0.404
-445.865	82.428	-0.055	0.060
-444.851	109.778	-0.247	-0.296
-443.836	-32.074	0.061	0.034
-442.822	-127.659	-0.144	0.021
-441.807	-126.653	-0.607	0.090
-440.792	-125.668	-0.095	-0.014
-439.778	-22.143	-0.206	-0.125
-438.763	195.213	0.133	0.202
-437.749	-58.609	0.317	0.137
-436.734	-133.009	-0.184	0.023
-435.719	-120.503	-0.288	0.049
-434.705	99.742	-0.068	-0.078
-433.690	-200.000	-0.004	0.069
-432.676	800.000	0.044	-0.160
-431.661	264.110	-0.125	-0.217
-430.646	228.752	0.190	-0.309
-429.632	482.029	-0.070	0.158
-428.617	-12.273	-0.104	-0.068
-427.603	-200.000	0.025	-0.324
-426.588	-200.000	-0.070	-0.445
-425.573	-110.270	-0.314	0.065
-424.559	-200.000	0.042	-0.243
-423.544	800.000	0.154	-0.567
-422.530	-200.000	0.048	-0.277
-421.515	-200.000	0.071	0.334
-420.500	-166.064	0.287	0.012
-419.486	-200.000	-0.016	-0.314
-418.471	217.741	-0.087	0.139
-417.457	-93.689	0.199	0.055
-416.442	147.193	-0.345	-0.463
-415.428	-200.000	-0.011	-0.095
-414.413	451.883	0.215	0.474
-413.398	282.054	-0.130	-0.232
-412.384	-200.000	-0.030	-0.172
-411.369	-19.482	-0.202	0.125
-410.355	-200.000	0.046	-0.304
-409.340	-69.653	-0.324	0.124
-408.325	-44.803	0.246	0.122
-407.311	238.750	0.071	-0.118
-406.296	-200.000	0.010	-0.054
-405.282	-133.177	0.083	-0.011
-404.267	357.599	-0.144	0.286
-403.252	-77.562	-0.248	0.086
-402.238	800.000	0.066	0.250
-401.223	-200.000	-0.004	-0.036
-400.209	-35.142	-0.170	0.093
-399.194	-41.240	0.241	0.124
-398.179	-200.000	-0.024	-0.190
-397.165	-140.967	-0.159	-0.016
-396.150	81.552	0.053	-0.057
-395.136	-64.413	0.151	-0.061
-394.121	-200.000	0.031	0.188
-393.106	138.821	-0.032	-0.041
-392.092	-200.000	0.104	0.482
-391.077	165.633	-0.191	-0.269
-390.063	-200.000	-0.018	-0.580
-389.048	-72.086	-0.202	-0.075
-388.033	-26.873	-0.195	-0.114
-387.019	-4.435	0.147	0.101
-386.004	-33.168	0.366	-0.202
-384.990	-85.736	-0.176	-0.054
-383.975	-200.000	0.024	-0.152
-382.960	800.000	-0.057	-0.219
-381.946	447.660	0.024	-0.052
-380.931	-200.000	0.000	-0.086
-379.917	263.481	-0.092	0.159
-378.902	-19.953	-0.437	0.269
-377.888	255.165	-0.064	0.110
-376.873	477.494	-0.078	-0.177
-375.858	229.603	0.027	0.044
-374.844	-70.190	0.226	0.085
-373.829	-200.000	0.006	0.124
-372.815	43.781	-0.198	-0.180
-371.800	-36.883	-0.227	-0.121
-370.785	-78.479	-0.283	-0.096
-369.771	81.143	0.308	0.331
-368.756	0.147	-0.316	-0.224
-367.742	-105.222	0.203	-0.046
-366.727	-8.845	-0.310	0.207
-365.712	-177.515	0.268	-0.007
-364.698	-69.450	0.680	0.260
-363.683	-88.055	-0.099	0.030
-362.669	488.880	0.073	0.166
-361.654	-200.000	-0.046	0.232
-360.639	207.330	0.234	0.363
-359.625	-200.000	-0.046	0.305
-358.610	-68.797	0.326	0.125
-357.596	-159.616	-0.275	0.015
-356.581	-86.111	0.054	0.017
-355.566	-30.949	0.069	-0.039
-354.552	446.065	0.071	0.155
-353.537	-135.101	0.293	-0.035
-352.523	551.536	-0.046	-0.110
-351.508	-200.000	-0.000	-0.052
-350.493	-116.036	-0.300	-0.056
-349.479	-63.271	-0.125	-0.051
-348.464	-155.667	0.117	0.007
-347.450	195.632	0.088	-0.133
-346.435	800.000	-0.128	0.360
-345.420	-119.740	0.176	-0.030
-344.406	679.786	-0.031	-0.080
-343.391	800.000	-0.083	0.308
-342.377	736.539	0.039	0.104
-341.362	206.059	-0.083	0.129
-340.348	160.131	0.071	-0.098
-339.333	38.175	-0.233	0.207
-338.318	656.142	0.026	0.067
-337.304	130.159	0.182	-0.232
-336.289	-107.980	-0.069	-0.015
-335.275	-89.431	0.394	0.115
-334.260	94.505	-0.201	-0.227
-333.245	180.254	0.225	-0.328
-332.231	166.507	0.079	0.111
-331.216	-200.000	0.036	0.179
-330.202	794.921	-0.096	-0.264
-329.187	-85.367	0.223	0.069
-328.172	381.872	0.027	0.056
-327.158	-69.829	-0.103	-0.039
-326.143	-17.739	-0.172	-0.108
-325.129	52.873	0.040	0.038
-324.114	621.218	0.087	-0.217
-323.099	-139.164	-0.079	-0.008
-322.085	22.000	0.143	-0.116
-321.070	-150.578	-0.166	-0.013
-320.056	-29.864	0.349	0.198
-319.041	-200.000	0.031	0.163
-318.026	-151.443	0.222	0.016
-317.012	398.342	-0.145	0.302
-315.997	258.436	0.077	0.131
-314.983	-106.384	0.107	0.024
-313.968	-200.000	-0.011	-0.198
-312.953	26.284	0.117	-0.097
-311.939	-141.810	-0.063	0.006
-310.924	-200.000	-0.015	-0.245
-309.910	48.686	-0.228	0.212
-308.895	-15.492	-0.262	-0.166
-307.880	-16.523	0.067	0.042
-306.866	545.435	0.087	-0.207
-305.851	67.473	0.193	-0.196
-304.837	241.448	0.151	-0.250
-303.822	-106.012	0.213	0.048
-302.807	44.262	0.098	-0.089
-301.793	67.009	0.191	-0.194
-300.778	21.636	-0.203	-0.164
-299.764	68.086	0.174	-0.177
-298.749	-200.000	0.022	-0.208
-297.735	-200.000	0.001	-0.059
-296.720	201.843	0.116	-0.177
-295.705	800.000	0.049	0.181
-294.691	-200.000	-0.007	0.071
-293.676	408.012	-0.018	-0.038
-292.662	800.000	-0.026	-0.088
-291.647	800.000	0.118	-0.423
-290.632	800.000	0.029	-0.114
-289.618	26.864	0.245	0.204
-288.603	-200.000	-0.004	-0.249
-287.589	198.640	0.041	0.063
-286.574	-200.000	-0.061	-0.571
-285.559	-200.000	0.005	0.252
-284.545	800.000	-0.124	-0.437
-283.530	-138.382	-0.272	-0.030
-282.516	800.000	-0.050	-0.206
-281.501	144.070	0.252	0.333
-280.486	-31.423	-0.069	-0.038
-279.472	800.000	0.081	0.349
-278.457	-95.775	0.388	-0.103
-277.443	800.000	0.027	-0.082
-276.428	-200.000	-0.032	0.238
-275.413	-200.000	0.004	-0.154
-274.399	39.462	0.220	0.196
-273.384	126.101	-0.103	-0.130
-272.370	62.927	0.201	0.199
-271.355	20.369	0.372	0.299
-270.340	-65.900	0.111	-0.044
-269.326	13.413	-0.237	0.182
-268.311	-86.180	-0.321	0.098
-267.297	29.754	-0.277	0.234
-266.282	120.236	-0.161	-0.199
-265.267	-11.642	0.152	-0.099
-264.253	-200.000	0.004	-0.361
-263.238	-69.123	-0.101	0.039
-262.224	478.399	-0.040	-0.090
-261.209	-200.000	-0.068	0.328
-260.195	-21.612	-0.092	0.056
-259.180	-200.000	0.002	-0.292
-258.165	-48.061	0.108	0.052
-257.151	-200.000	-0.012	-0.291
-256.136	800.000	0.047	-0.141
-255.122	202.387	0.046	0.071
-254.107	-118.449	-0.098	-0.017
-253.092	-68.438	0.237	0.091
-252.078	-200.000	-0.029	0.361
-251.063	-59.365	0.089	-0.038
-250.049	-96.169	0.417	0.110
-249.034	3.783	-0.205	0.148
-248.019	-200.000	-0.029	-0.340
-247.005	236.022	-0.037	-0.061
-245.990	-25.565	0.163	-0.096
-244.976	329.167	0.077	0.147
-243.961	295.308	0.099	-0.179
-242.946	-200.000	0.014	-0.364
-241.932	752.925	-0.079	-0.210
-240.917	-200.000	0.006	-0.287
-239.903	5.914	-0.169	-0.124
-238.888	-1.338	0.207	-0.145
-237.873	-200.000	-0.000	0.056
-236.859	-100.319	0.118	-0.029
-235.844	-102.612	0.189	-0.045
-234.830	430.468	-0.138	-0.295
-233.815	-200.000	-0.005	-0.253
-232.800	70.141	0.279	0.285
-231.786	298.331	0.029	0.054
-230.771	-17.029	-0.387	0.242
-229.757	28.128	0.056	0.047
-228.742	800.000	0.128	0.353
-227.727	-16.644	0.103	-0.065
-226.713	-200.000	-0.006	0.270
-225.698	-200.000	-0.036	0.306
-224.684	-48.072	0.113	-0.054
-223.669	800.000	0.027	-0.088
-222.655	58.790	0.111	0.108
-221.640	-128.541	0.272	-0.038
-220.625	-69.623	0.288	-0.109
-219.611	-117.302	-0.315	-0.057
-218.596	-58.226	0.226	0.098
-217.582	-4.625	0.125	-0.085
-216.567	-60.216	-0.218	0.092
-215.552	44.275	0.234	0.213
-214.538	4.875	0.270	0.197
-213.523	85.074	0.242	-0.263
-212.509	-200.000	-0.008	-0.088
-211.494	187.073	-0.111	0.164
-210.479	-54.264	0.274	0.123
-209.465	-200.000	0.032	0.350
-208.450	-78.699	-0.157	0.053
-207.436	438.741	0.243	0.525
-206.421	800.000	-0.090	0.317
-205.406	69.948	-0.263	0.268
-204.392	-12.182	0.041	-0.027
-203.377	-200.000	-0.037	0.327
-202.363	630.424	0.055	-0.138
-201.348	280.078	0.207	-0.367
-200.333	-200.000	0.013	0.124
-199.319	-41.778	-0.214	0.109
-198.304	800.000	0.104	0.440
-197.290	114.559	0.071	0.085
-196.275	-56.939	-0.264	0.115
-195.260	-120.531	0.119	-0.020
-194.246	460.491	0.218	0.480
-193.231	334.860	0.036	0.069
-192.217	800.000	0.043	0.171
-191.202	98.274	0.016	-0.018
-190.187	-105.156	0.153	-0.035
-189.173	209.353	-0.108	-0.168
-188.158	470.697	-0.120	0.266
-187.144	-76.501	-0.197	0.068
-186.129	-90.033	0.368	0.106
-185.114	40.637	-0.266	0.237
-184.100	19.270	0.216	0.171
-183.085	32.262	-0.040	-0.034
-182.071	64.783	-0.110	0.109
-181.056	693.302	-0.085	-0.220
-180.042	-200.000	-0.051	-0.405
-179.027	135.380	-0.064	-0.082
-178.012	-123.016	-0.143	0.023
-176.998	800.000	0.087	0.254
-175.983	-200.000	0.020	-0.109
-174.969	-200.000	0.026	-0.186
-173.954	-27.744	-0.078	-0.045
-172.939	-161.509	0.099	0.005
-171.925	723.268	0.124	0.327
-170.910	-200.000	-0.004	0.332
-169.896	112.110	-0.091	0.109
-168.881	40.892	0.094	0.084
-167.866	-127.085	0.242	-0.035
-166.852	-200.000	0.008	-0.109
-165.837	22.513	0.255	-0.206
-164.823	-91.474	0.144	0.041
-163.808	-38.459	0.188	0.098
-162.793	800.000	0.015	-0.065
-161.779	9.515	-0.068	-0.051
-160.764	-21.977	-0.212	-0.127
-159.750	-200.000	-0.002	-0.122
-158.735	-99.790	-0.356	0.088
-157.720	800.000	0.076	-0.293
-156.706	-181.762	0.345	0.007
-155.691	-26.065	0.203	0.118
-154.677	800.000	0.058	-0.189
-153.662	-200.000	0.042	-0.301
-152.647	-200.000	0.005	0.033
-151.633	-102.884	-0.208	-0.049
-150.618	74.646	0.034	-0.035
-149.604	4.091	0.079	-0.057
-148.589	116.070	-0.103	-0.125
-147.574	-166.883	-0.169	0.007
-146.560	-200.000	-0.014	-0.241
-145.545	3.316	-0.118	0.085
-144.531	-200.000	0.001	0.390
-143.516	243.142	0.125	-0.206
-142.502	-77.304	0.212	-0.073
-141.487	-72.256	0.055	-0.020
-140.472	-174.646	0.376	0.011
-139.458	22.022	0.149	0.120
-138.443	-98.551	-0.259	0.065
-137.429	660.021	0.111	0.282
-136.414	-200.000	-0.022	0.386
-135.399	315.789	0.097	0.181
-134.385	48.505	-0.216	-0.200
-133.370	-83.567	-0.062	0.020
-132.356	107.876	-0.184	0.216
-131.341	-116.351	-0.184	0.034
-130.326	-97.898	0.077	0.020
-129.312	50.502	0.154	-0.144
-128.297	162.194	-0.030	-0.041
-127.283	133.510	0.298	0.380
-126.268	-5.538	0.159	0.107
-125.253	483.180	-0.009	0.021
-124.239	325.597	0.053	-0.100
-123.224	-9.133	-0.184	0.122
-122.210	800.000	0.063	0.174
-121.195	275.951	-0.013	-0.023
-120.180	-56.728	0.262	-0.114
-119.166	78.458	-0.164	0.173
-118.151	64.221	0.066	-0.066
-117.137	-83.531	0.114	-0.036
-116.122	348.905	-0.082	-0.160
-115.107	800.000	-0.062	-0.266
-114.093	90.982	0.102	0.113
-113.078	800.000	0.063	0.179
-112.064	-69.612	0.081	-0.030
-111.049	-106.628	-0.298	-0.065
-110.034	40.872	-0.091	0.081
-109.020	172.967	-0.026	0.037
-108.005	-21.965	0.127	-0.076
-106.991	181.345	-0.096	-0.139
-105.976	70.536	0.204	0.208
-104.962	-200.000	-0.009	0.302
-103.947	635.944	0.036	0.090
-102.932	-163.325	0.327	-0.015
-101.918	385.836	-0.080	-0.163
-100.903	9.548	0.068	-0.050
-99.889	-87.457	0.152	0.045
-98.874	-200.000	-0.011	-0.094
-97.859	795.384	0.013	0.036
-96.845	-200.000	-0.033	0.286
-95.830	156.525	0.126	0.171
-94.816	558.331	0.043	-0.102
-93.801	-155.379	-0.340	0.022
-92.786	-123.492	-0.247	0.039
-91.772	111.641	-0.120	0.143
-90.757	-6.087	-0.273	0.184
-89.743	-200.000	-0.042	0.195
-88.728	243.477	-0.185	0.306
-87.713	-200.000	0.032	-0.159
-86.699	546.720	0.109	-0.258
-85.684	207.018	-0.145	0.222
-84.670	800.000	-0.028	-0.101
-83.655	-72.897	0.249	-0.090
-82.640	-40.237	-0.369	-0.189
-81.626	-87.267	-0.213	0.064
-80.611	-200.000	-0.036	0.161
-79.597	-29.673	0.036	0.020
-78.582	800.000	-0.034	0.147
-77.567	81.733	0.248	-0.264
-76.553	43.890	0.196	0.176
-75.538	201.883	0.114	0.172
-74.524	127.617	0.139	0.173
-73.509	-35.889	0.199	-0.106
-72.494	-118.865	-0.245	-0.042
-71.480	-108.115	-0.087	-0.019
-70.465	109.936	-0.205	-0.242
-69.451	130.447	-0.113	-0.142
-68.436	-135.015	0.491	0.058
-67.422	114.999	0.055	0.066
-66.407	800.000	0.108	0.460
-65.392	-200.000	-0.016	0.253
-64.378	-86.285	0.478	-0.145
-63.363	-69.477	-0.063	0.024
-62.349	44.200	0.069	-0.063
-61.334	380.753	-0.363	-0.732
-60.319	6.336	0.283	0.207
-59.305	800.000	-0.277	-0.911
-58.290	401.103	0.519	1.072
-57.276	-200.000	0.309	1.576
-56.261	-200.000	94.569	580.572
-55.246	539.780	1406.558	3293.488
-54.232	154.993	2591.489	3505.729
-53.217	112.116	2179.462	2591.451
-52.203	43.979	1627.217	1467.027
-51.188	35.343	1360.548	1173.997
-50.173	32.056	1318.923	1118.485
-49.159	54.842	1364.643	1295.586
-48.144	56.562	1380.403	1320.882
-47.130	35.603	1340.784	1158.322
-46.115	32.083	1323.083	1121.998
-45.100	31.870	1318.178	1116.523
-44.086	31.768	1316.059	1114.083
-43.071	31.805	1313.750	1112.303
-42.057	31.615	1311.518	1109.243
-41.042	31.728	1309.359	1108.037
-40.027	31.822	1307.981	1107.383
-39.013	31.857	1306.304	1106.126
-37.998	31.729	1304.469	1103.775
-36.984	31.921	1302.445	1103.149
-35.969	31.898	1300.982	1101.729
-34.954	31.928	1298.967	1100.158
-33.940	31.912	1297.800	1099.033
-32.925	31.841	1295.913	1096.974
-31.911	32.027	1294.712	1097.003
-30.896	31.979	1293.158	1095.361
-29.881	31.896	1291.870	1093.742
-28.867	32.053	1290.495	1093.448
-27.852	32.038	1288.922	1091.983
-26.838	32.026	1287.075	1090.309
-25.823	32.132	1285.762	1089.769
-24.809	31.895	1285.155	1087.834
-23.794	31.899	1283.960	1086.804
-22.779	31.858	1282.791	1085.534
-21.765	32.006	1281.009	1084.841
-20.750	32.028	1279.179	1083.370
-19.736	31.906	1278.171	1081.773
-18.721	31.753	1277.457	1080.241
-17.706	31.813	1276.231	1079.506
-16.692	31.791	1274.866	1078.188
-15.677	31.897	1273.690	1077.758
-14.663	31.835	1272.414	1076.280
-13.648	31.755	1271.460	1074.970
-12.633	31.646	1271.218	1074.095
-11.619	31.737	1269.889	1073.451
-10.604	31.762	1268.857	1072.680
-9.590	31.834	1267.697	1072.069
-8.575	31.660	1266.896	1070.357
-7.560	31.699	1265.975	1069.759
-6.546	31.729	1265.396	1069.397
-5.531	31.706	1264.207	1068.221
-4.517	31.807	1263.143	1067.853
-3.502	31.759	1262.718	1067.177
-2.487	31.747	1261.697	1066.204
-1.473	31.850	1257.265	1063.002
-0.458	31.085	1243.196	1046.771
0.556	26.676	1227.571	1013.853
1.571	23.606	1233.612	1001.457
2.586	22.614	1249.351	1008.472
3.600	22.072	1237.921	996.084
4.615	19.344	1169.830	926.574
5.629	14.662	1099.841	847.352
6.644	12.415	1081.285	821.756
7.659	12.208	1078.900	818.840
8.673	12.148	1077.289	817.246
9.688	12.099	1076.147	816.062
10.702	12.374	1074.406	816.035
11.717	15.490	1078.127	834.297
12.731	18.998	1082.491	855.068
13.746	18.951	1081.706	854.142
14.761	17.714	1079.578	846.246
15.775	16.598	1077.340	838.887
16.790	15.544	1075.321	832.025
17.804	14.789	1073.882	827.099
18.819	14.386	1072.328	823.839
19.834	13.961	1071.725	821.204
20.848	13.889	1070.280	819.666
21.863	13.583	1069.602	817.567
22.877	13.441	1068.448	815.912
23.892	13.451	1068.431	815.875
24.907	13.418	1067.504	814.930
25.921	13.561	1066.072	814.470
26.936	13.612	1064.717	813.615
27.950	13.620	1063.326	812.516
28.965	13.628	1062.071	811.528
29.980	13.748	1060.516	810.854
30.994	13.747	1059.516	810.013
32.009	13.827	1058.287	809.390
33.023	13.682	1057.476	807.994
34.038	13.593	1056.313	806.598
35.053	13.628	1055.372	805.982
36.067	13.489	1055.026	804.968
37.082	13.642	1054.088	804.924
38.096	13.688	1053.040	804.273
39.111	13.640	1052.277	803.387
40.126	13.605	1050.847	802.058
41.140	13.409	1049.866	800.290
42.155	13.524	1047.996	799.348
43.169	13.354	1047.512	798.089
44.184	13.423	1046.411	797.512
45.199	13.349	1045.085	796.072
46.213	13.242	1044.709	795.202
47.228	13.560	1043.090	795.425
48.242	13.635	1041.512	794.513
49.257	13.508	1040.751	793.256
50.271	13.538	1040.457	793.101
51.286	13.601	1039.351	792.491
52.301	13.505	1038.924	791.637
53.315	13.555	1037.280	790.554
54.330	13.513	1035.669	789.055
55.344	13.548	1035.384	788.937
56.359	13.375	1034.900	787.675
57.374	13.428	1033.982	787.154
58.388	13.387	1032.492	785.755
59.403	13.447	1032.193	785.745
60.417	13.432	1031.431	785.025
61.432	13.417	1030.325	784.044
62.447	13.253	1029.612	782.652
63.461	13.243	1028.690	781.836
64.476	13.255	1028.195	781.447
65.490	13.287	1026.861	780.515
66.505	13.293	1026.412	780.133
67.520	13.362	1025.537	779.725
68.534	13.239	1025.047	778.706
69.549	13.466	1024.045	778.943
70.563	13.440	1023.135	778.058
71.578	13.282	1023.152	777.261
72.593	13.284	1022.149	776.440
73.607	13.142	1021.379	775.118
74.622	13.288	1020.414	775.002
75.636	13.279	1019.954	774.540
76.651	13.352	1019.086	774.154
77.666	13.326	1018.663	773.647
78.680	13.392	1017.403	772.926
79.695	13.305	1017.267	772.351
80.709	13.375	1016.928	772.353
81.724	13.450	1015.961	771.896
82.739	13.505	1014.888	771.273
83.753	13.520	1014.519	770.994
84.768	13.608	1013.501	770.558
85.782	13.694	1012.775	770.340
86.797	13.706	1011.598	769.433
87.812	13.645	1010.454	768.208
88.826	13.503	1009.664	766.884
89.841	13.552	1008.534	766.185
90.855	13.729	1007.785	766.367
91.870	13.645	1007.082	765.374
92.884	13.696	1005.793	764.561
93.899	13.639	1005.614	764.095
94.914	13.618	1004.790	763.307
95.928	13.724	1003.609	762.829
96.943	13.725	1002.779	762.136
97.957	13.579	1002.455	761.153
98.972	13.669	1001.598	760.846
99.987	13.527	1000.438	759.247
101.001	13.642	999.450	758.956
102.016	13.544	998.638	757.824
103.030	13.794	997.564	758.083
104.045	13.824	996.651	757.461
105.060	13.563	996.135	755.812
106.074	13.562	995.632	755.360
107.089	13.590	993.919	754.117
108.103	13.364	993.405	752.632
109.118	13.534	992.455	752.617
110.133	13.543	990.964	751.463
111.147	13.386	990.961	750.683
112.162	13.519	990.001	750.490
113.176	13.576	989.076	749.984
114.191	13.677	988.274	749.765
115.206	13.597	987.560	748.796
116.220	13.529	986.576	747.675
117.235	13.517	985.668	746.866
118.249	13.432	985.163	746.033
119.264	13.545	984.174	745.730
120.279	13.510	983.480	744.982
121.293	13.432	982.357	743.714
122.308	13.483	981.609	743.311
123.322	13.347	980.942	742.130
124.337	13.399	979.706	741.361
125.352	13.513	978.274	740.721
126.366	13.452	977.680	739.935
127.381	13.516	976.823	739.504
128.395	13.506	975.888	738.689
129.410	13.349	975.238	737.431
130.424	13.567	973.736	737.199
131.439	13.651	973.033	736.977
132.454	13.622	972.090	736.065
133.468	13.665	971.604	735.823
134.483	13.575	970.793	734.746
135.497	13.559	969.901	733.934
136.512	13.619	969.132	733.557
137.527	13.542	968.634	732.770
138.541	13.661	967.778	732.588
139.556	13.733	966.768	732.076
140.570	13.780	966.272	731.842
141.585	13.825	965.214	731.174
142.600	13.878	964.540	730.831
143.614	13.852	963.463	729.836
144.629	13.968	962.824	729.799
145.643	13.772	962.134	728.349
146.658	13.761	960.838	727.254
147.673	13.682	960.230	726.385
148.687	13.636	959.398	725.492
149.702	13.656	958.760	725.030
150.716	13.599	957.804	723.996
151.731	13.743	956.860	723.846
152.746	13.798	956.284	723.584
153.760	13.690	955.660	722.580
154.775	13.798	954.899	722.408
155.789	13.898	954.177	722.233
156.804	13.913	953.125	721.440
157.819	13.787	953.223	720.901
158.833	13.819	952.600	720.506
159.848	13.832	951.594	719.737
160.862	13.806	950.248	718.542
161.877	13.861	949.575	718.208
162.892	13.892	948.378	717.376
163.906	13.788	947.544	716.233
164.921	13.776	946.970	715.680
165.935	13.992	945.790	715.658
166.950	13.848	945.113	714.462
167.964	13.974	944.277	714.307
168.979	13.849	943.506	713.125
169.994	13.804	942.689	712.250
171.008	13.882	941.990	711.995
172.023	13.919	941.257	711.536
173.037	14.045	940.632	711.540
174.052	13.931	940.036	710.539
175.067	13.919	939.421	709.959
176.081	13.830	939.047	709.234
177.096	13.988	938.222	709.224
178.110	13.989	937.861	708.890
179.125	13.968	937.316	708.326
180.140	13.992	936.545	707.785
181.154	14.025	936.019	707.463
182.169	14.047	935.848	707.367
183.183	14.070	934.923	706.704
184.198	14.268	933.583	706.468
185.213	14.162	933.222	705.680
186.227	14.225	932.162	705.085
187.242	14.187	932.047	704.775
188.256	14.162	931.468	704.170
189.271	14.213	930.491	703.584
190.286	14.034	929.871	702.294
191.300	13.993	929.211	701.563
192.315	13.941	928.202	700.520
193.329	13.778	928.157	699.736
194.344	13.981	927.085	699.721
195.359	14.124	926.212	699.599
196.373	14.180	926.041	699.647
197.388	14.208	926.191	699.817
198.402	14.287	925.058	699.230
199.417	14.402	924.237	699.029
200.432	14.334	924.175	698.634
201.446	14.415	923.795	698.623
202.461	14.422	923.067	698.043
203.475	14.502	922.370	697.788
204.490	14.406	921.654	696.782
205.504	14.358	920.567	695.698
206.519	14.318	920.156	695.161
207.534	14.332	919.275	694.494
208.548	14.399	918.592	694.192
209.563	14.418	918.180	693.899
210.577	14.455	917.276	693.309
211.592	14.497	916.734	693.013
212.607	14.591	916.112	692.872
213.621	14.571	915.314	692.122
214.636	14.523	914.425	691.193
215.650	14.614	913.596	690.880
216.665	14.636	912.878	690.365
217.680	14.592	912.261	689.656
218.694	14.635	911.951	689.541
219.709	14.728	910.975	689.125
220.723	14.715	910.411	688.585
221.738	14.567	910.054	687.643
222.753	14.637	909.205	687.229
223.767	14.762	908.559	687.192
224.782	14.765	908.319	686.964
225.796	14.767	907.860	686.565
226.811	14.859	906.549	685.890
227.826	14.685	906.364	684.976
228.840	14.859	905.302	684.826
229.855	14.697	904.662	683.618
230.869	14.731	903.743	683.000
231.884	14.596	903.262	682.023
232.899	14.612	902.379	681.363
233.913	14.619	901.980	681.028
234.928	14.579	901.325	680.311
235.942	14.642	900.726	680.055
236.957	14.784	899.862	679.921
237.972	14.699	899.534	679.269
238.986	14.798	898.493	678.825
240.001	14.734	897.934	678.080
241.015	14.737	897.311	677.565
242.030	14.891	896.857	677.787
243.045	14.864	896.337	677.223
244.059	14.831	895.789	676.617
245.074	14.952	895.052	676.490
246.088	14.860	894.248	675.448
247.103	14.943	893.603	675.236
248.117	15.107	893.232	675.557
249.132	15.059	893.058	675.175
250.147	15.079	892.177	674.530
251.161	15.206	891.333	674.342
252.176	15.142	891.071	673.827
253.190	15.196	890.119	673.266
254.205	15.248	889.499	672.943
255.220	15.220	889.215	672.560
256.234	15.242	888.283	671.880
257.249	15.233	887.339	671.070
258.263	15.382	886.440	670.930
259.278	15.275	885.862	670.003
260.293	15.347	885.518	669.972
261.307	15.355	884.876	669.460
262.322	15.369	884.189	668.936
263.336	15.449	883.792	668.895
264.351	15.499	882.654	668.172
265.366	15.456	882.391	667.746
266.380	15.400	882.256	667.361
267.395	15.392	881.234	666.495
268.409	15.385	880.422	665.797
269.424	15.442	879.293	665.110
270.439	15.467	878.873	664.833
271.453	15.322	878.664	664.039
272.468	15.502	877.491	663.805
273.482	15.378	877.214	663.049
274.497	15.390	876.342	662.379
275.512	15.503	875.725	662.298
276.526	15.448	875.411	661.785
277.541	15.539	874.690	661.540
278.555	15.482	874.545	661.150
279.570	15.830	873.421	661.606
280.585	15.581	872.688	660.016
281.599	15.598	871.601	659.202
282.614	15.697	871.443	659.413
283.628	15.480	871.003	658.173
284.643	15.561	870.532	658.075
285.657	15.518	870.016	657.456
286.672	15.670	869.238	657.405
287.687	15.646	868.279	656.531
288.701	15.749	867.291	656.125
289.716	15.667	867.619	655.994
290.730	15.812	866.422	655.598
291.745	15.758	866.015	655.022
292.760	15.796	865.735	654.900
293.774	15.859	864.581	654.214
294.789	15.835	864.021	653.638
295.803	15.909	863.198	653.245
296.818	15.817	862.565	652.353
297.833	15.878	862.330	652.352
298.847	15.874	861.576	651.709
299.862	15.842	861.037	651.121
300.876	15.854	860.213	650.485
301.891	16.015	859.891	650.806
302.906	16.021	859.314	650.334
303.920	16.119	858.774	650.247
304.935	16.024	858.295	649.460
305.949	16.240	857.079	649.316
306.964	16.122	856.587	648.431
307.979	16.119	856.311	648.154
308.993	15.998	856.125	647.491
310.008	16.228	855.011	647.471
311.022	16.005	854.990	646.542
312.037	15.990	854.419	645.998
313.052	16.022	853.455	645.332
314.066	16.167	852.846	645.371
315.081	16.045	852.238	644.387
316.095	15.962	852.013	643.841
317.110	16.013	851.262	643.414
318.125	16.110	850.498	643.147
319.139	16.080	850.104	642.679
320.154	16.090	849.921	642.521
321.168	15.947	849.245	641.408
322.183	16.061	848.315	641.086
323.197	16.108	848.202	641.120
324.212	16.157	847.617	640.808
325.227	16.127	846.754	639.984
326.241	16.107	846.671	639.790
327.256	16.272	845.683	639.612
328.270	16.261	845.111	639.081
329.285	16.081	844.818	638.122
330.300	16.285	843.696	637.990
331.314	16.307	843.219	637.653
332.329	16.138	843.299	637.021
333.343	16.363	843.019	637.602
334.358	16.380	842.114	636.925
335.373	16.363	841.914	636.653
336.387	16.284	841.523	636.003
337.402	16.288	841.399	635.869
338.416	16.407	840.816	635.820
339.431	16.432	840.589	635.687
340.446	16.522	840.188	635.665
341.460	16.553	839.527	635.226
342.475	16.536	839.513	635.093
343.489	16.651	839.031	635.103
344.504	16.621	838.265	634.357
345.519	16.574	837.860	633.818
346.533	16.663	837.227	633.616
347.548	16.472	837.162	632.795
348.562	16.505	836.489	632.353
349.577	16.462	835.830	631.638
350.592	16.537	835.150	631.349
351.606	16.538	834.396	630.729
352.621	16.481	833.861	630.056
353.635	16.696	832.803	630.000
354.650	16.608	832.699	629.539
355.665	16.723	831.945	629.338
356.679	16.780	831.020	628.796
357.694	16.740	830.737	628.378
358.708	16.729	830.277	627.932
359.723	16.685	829.778	627.339
360.738	16.665	829.056	626.661
361.752	16.721	828.520	626.409
362.767	16.842	827.864	626.306
363.781	16.792	827.461	625.759
364.796	16.893	826.921	625.669
365.810	16.843	826.422	625.050
366.825	17.153	825.865	625.716
367.840	17.040	825.465	624.944
368.854	16.801	825.419	623.970
369.869	16.975	824.767	624.064
370.883	17.001	824.031	623.549
371.898	16.987	823.963	623.391
372.913	17.025	823.566	623.173
373.927	17.039	822.695	622.512
374.942	17.130	822.138	622.368
375.956	17.075	822.195	622.154
376.971	17.124	821.761	621.950
377.986	17.282	820.870	621.800
379.000	17.225	820.970	621.610
380.015	17.066	820.602	620.696
381.029	17.297	819.628	620.749
382.044	17.250	819.200	620.198
383.059	17.405	818.100	619.874
384.073	17.319	817.910	619.362
385.088	17.166	817.310	618.297
386.102	17.152	816.781	617.789
387.117	17.205	816.164	617.463
388.132	17.189	815.611	616.930
389.146	17.264	815.150	616.801
390.161	17.328	814.976	616.844
391.175	17.314	814.463	616.353
392.190	17.380	813.775	616.016
393.205	17.134	813.201	614.638
394.219	17.410	812.523	615.070
395.234	17.230	812.470	614.321
396.248	17.371	811.949	614.384
397.263	17.259	811.951	613.925
398.278	17.065	811.460	612.801
399.292	17.326	810.714	613.123
400.307	17.185	810.357	612.292
401.321	17.374	809.486	612.261
402.336	17.269	809.325	611.707
403.350	17.441	808.998	612.024
404.365	17.502	808.610	611.896
405.380	17.468	808.024	611.275
406.394	17.526	807.663	611.157
407.409	17.652	806.897	610.972
408.423	17.617	806.936	610.825
409.438	17.708	806.618	610.854
410.453	17.515	806.126	609.739
411.467	17.745	805.328	609.904
412.482	17.749	804.869	609.514
413.496	17.749	804.978	609.543
414.511	17.719	804.710	609.180
415.526	17.829	804.059	609.026
416.540	17.714	803.603	608.217
417.555	17.774	803.083	607.984
418.569	17.813	802.703	607.781
419.584	17.877	802.362	607.695
420.599	17.853	801.883	607.194
421.613	107.559	1288.259	1457.738
422.628	92.582	1359.111	1457.846
