DTS Sentinel unit serial number:	SN413079Multiplexer serial number:	ORYXHardware model number:	OX4-SRSoftware version number:	ORYX F/W v4.00 Oryx Data Collector v3.7.2.0data status	okinstallation	princeton_trtdifferential loss correction	single-endedforward channel	channel 1reverse channel	N/Adate	2019/09/11time	00:12:11forward acquisition time	60.00reverse acquisition time	0.00gamma	496.2192k internal	0.2331k external	0.2331temperature offset calibration	0.9939default loss term (dB/km)	0.3790temperature slope calibration	1.0000multiplexer offset coefficient	1.0000multiplexer slope coefficient	1.0000fibre end	0.00T internal ref (°C)	29.33T ext. ref 1 (°C)	-0.31T ext. ref 2 (°C)	22.89length (m)	temperature (°C)	Stokes	anti-Stokes-747.200	276.417	-0.144	-0.257
-746.185	65.274	-0.179	0.182
-745.171	-74.420	0.021	-0.008
-744.156	-62.984	0.233	0.097
-743.142	125.461	-0.198	0.251
-742.127	-200.000	0.018	0.254
-741.112	-200.000	0.060	0.398
-740.098	-65.484	0.157	0.063
-739.083	800.000	0.064	0.195
-738.069	-57.428	0.127	0.056
-737.054	-84.724	0.355	0.113
-736.039	454.477	-0.093	0.206
-735.025	-105.045	-0.097	0.022
-734.010	-100.540	-0.284	-0.071
-732.996	40.402	-0.137	-0.124
-731.981	349.249	0.021	-0.042
-730.966	-121.168	0.114	-0.019
-729.952	-200.000	-0.037	-0.290
-728.937	800.000	-0.076	-0.263
-727.923	-200.000	0.024	-0.124
-726.908	16.256	0.067	0.053
-725.894	755.030	-0.085	0.231
-724.879	-123.026	-0.186	0.030
-723.864	334.303	0.086	-0.168
-722.850	-16.202	-0.094	0.060
-721.835	457.046	-0.081	-0.180
-720.821	-145.066	-0.522	-0.048
-719.806	-200.000	-0.011	-0.197
-718.791	119.591	-0.090	-0.112
-717.777	-58.671	0.036	-0.016
-716.762	-37.925	-0.136	-0.073
-715.748	760.663	-0.078	-0.212
-714.733	-24.255	-0.185	-0.111
-713.718	70.161	-0.170	-0.176
-712.704	-95.981	-0.259	-0.069
-711.689	-80.462	-0.264	0.089
-710.675	800.000	-0.028	-0.098
-709.660	-135.579	0.122	0.015
-708.645	800.000	-0.029	-0.125
-707.631	-145.980	-0.103	-0.009
-706.616	800.000	-0.059	-0.223
-705.602	-200.000	0.024	-0.134
-704.587	-106.268	0.208	-0.047
-703.572	-200.000	0.032	0.182
-702.558	349.189	-0.097	0.192
-701.543	3.126	0.244	-0.178
-700.529	-138.370	-0.170	-0.019
-699.514	-200.000	-0.032	-0.143
-698.499	107.043	0.085	-0.101
-697.485	5.506	-0.092	0.068
-696.470	-98.006	-0.266	-0.069
-695.456	84.986	0.092	-0.101
-694.441	-96.500	-0.236	-0.063
-693.426	-101.256	-0.166	-0.041
-692.412	14.072	0.169	0.132
-691.397	-200.000	-0.094	0.417
-690.383	-22.802	-0.294	-0.178
-689.368	-177.539	-0.248	-0.006
-688.354	-127.653	-0.268	0.039
-687.339	-51.530	-0.184	0.086
-686.324	125.146	-0.054	0.068
-685.310	-94.968	-0.254	-0.069
-684.295	800.000	0.045	0.186
-683.281	22.187	0.280	-0.230
-682.266	-124.820	-0.285	-0.044
-681.251	-164.455	-0.363	-0.017
-680.237	-200.000	-0.026	0.130
-679.222	-110.887	-0.173	0.036
-678.208	758.668	0.060	-0.164
-677.193	-200.000	-0.002	-0.023
-676.178	-40.485	0.144	0.075
-675.164	800.000	0.031	0.091
-674.149	-4.358	0.260	-0.181
-673.135	97.117	0.111	0.128
-672.120	-200.000	0.046	0.399
-671.105	-110.429	-0.141	0.029
-670.091	419.651	0.053	-0.113
-669.076	-44.496	0.252	0.126
-668.062	28.871	-0.039	0.033
-667.047	110.605	0.042	0.051
-666.032	392.605	-0.179	-0.374
-665.018	280.602	0.150	-0.269
-664.003	224.756	-0.209	-0.338
-662.989	-21.983	0.178	-0.108
-661.974	79.872	-0.194	-0.209
-660.959	-200.000	-0.005	0.092
-659.945	-200.000	0.019	-0.419
-658.930	270.284	0.069	-0.122
-657.916	-200.000	0.008	-0.086
-656.901	-168.236	0.210	-0.008
-655.886	131.020	-0.118	-0.151
-654.872	-101.193	0.280	-0.069
-653.857	-53.221	-0.135	-0.062
-652.843	-81.590	0.318	-0.105
-651.828	800.000	0.041	-0.165
-650.814	800.000	0.061	0.205
-649.799	74.204	0.186	-0.196
-648.784	-200.000	0.063	-0.311
-647.770	597.721	0.076	0.190
-646.755	369.455	0.075	-0.152
-645.741	-73.344	0.257	-0.094
-644.726	41.028	-0.234	-0.212
-643.711	800.000	-0.090	-0.251
-642.697	-36.165	0.232	0.125
-641.682	34.758	-0.238	0.209
-640.668	800.000	-0.106	0.406
-639.653	-54.837	0.356	0.161
-638.638	-45.611	0.048	-0.024
-637.624	-88.538	-0.288	0.086
-636.609	-200.000	-0.006	0.035
-635.595	160.522	-0.096	-0.135
-634.580	-41.976	-0.115	0.059
-633.565	177.386	0.287	-0.419
-632.551	235.450	0.126	-0.208
-631.536	80.400	0.176	-0.190
-630.522	96.370	0.253	-0.290
-629.507	-200.000	0.010	0.211
-628.492	74.663	0.177	0.187
-627.478	-151.007	-0.271	0.020
-626.463	-35.456	-0.115	-0.062
-625.449	-200.000	0.014	-0.125
-624.434	60.765	0.292	-0.290
-623.419	64.155	0.193	-0.194
-622.405	800.000	0.127	0.433
-621.390	-56.925	0.490	0.217
-620.376	105.999	-0.233	-0.276
-619.361	618.532	0.110	-0.276
-618.346	5.823	0.158	-0.117
-617.332	237.377	0.167	-0.278
-616.317	800.000	-0.056	0.168
-615.303	493.390	-0.076	-0.174
-614.288	-173.027	0.331	-0.010
-613.273	800.000	-0.132	0.422
-612.259	76.528	0.119	-0.127
-611.244	63.660	0.118	0.119
-610.230	20.691	-0.455	-0.369
-609.215	-80.673	-0.020	-0.007
-608.201	-120.628	0.207	0.035
-607.186	-0.453	-0.134	-0.095
-606.171	9.412	0.161	0.122
-605.157	-4.095	0.128	0.089
-604.142	213.591	-0.039	-0.062
-603.128	-140.990	0.173	-0.018
-602.113	-200.000	-0.041	-0.275
-601.098	-98.248	-0.272	-0.070
-600.084	-200.000	-0.020	-0.293
-599.069	-151.296	-0.363	-0.027
-598.055	800.000	0.105	-0.293
-597.040	-19.554	0.110	0.068
-596.025	69.567	0.056	0.058
-595.011	-139.217	-0.089	-0.010
-593.996	232.237	0.151	-0.249
-592.982	-57.751	0.174	0.076
-591.967	-24.092	0.071	0.042
-590.952	397.403	-0.093	0.194
-589.938	106.821	0.180	0.214
-588.923	131.376	0.108	-0.139
-587.909	-200.000	0.012	-0.183
-586.894	-66.575	-0.030	-0.012
-585.879	751.025	0.078	-0.210
-584.865	-34.447	0.059	-0.032
-583.850	-132.067	0.187	-0.024
-582.836	17.515	0.150	-0.119
-581.821	19.345	-0.288	0.232
-580.806	792.411	0.039	0.108
-579.792	-200.000	0.003	-0.484
-578.777	800.000	-0.014	-0.040
-577.763	-130.052	0.250	0.034
-576.748	-121.838	0.388	0.064
-575.733	-10.253	0.172	-0.114
-574.719	-132.662	0.196	0.025
-573.704	800.000	-0.049	-0.183
-572.690	-178.470	-0.358	0.008
-571.675	-29.966	0.221	0.126
-570.661	800.000	-0.022	-0.069
-569.646	14.342	-0.130	-0.101
-568.631	-200.000	0.053	-0.247
-567.617	83.869	-0.206	-0.225
-566.602	-29.856	-0.288	0.164
-565.588	800.000	0.080	0.335
-564.573	-102.212	0.273	0.066
-563.558	-200.000	-0.055	0.416
-562.544	-39.996	0.093	-0.048
-561.529	58.648	-0.076	-0.074
-560.515	-134.945	-0.153	0.019
-559.500	-82.495	-0.239	-0.077
-558.485	222.647	0.134	0.215
-557.471	800.000	-0.081	0.240
-556.456	153.230	-0.080	-0.110
-555.442	-200.000	0.065	0.384
-554.427	-161.052	0.340	-0.018
-553.412	233.430	-0.178	0.293
-552.398	800.000	0.024	-0.090
-551.383	800.000	-0.042	0.119
-550.369	-99.502	0.199	-0.050
-549.354	36.227	0.181	0.159
-548.339	-200.000	0.021	-0.196
-547.325	156.120	-0.094	-0.130
-546.310	82.725	-0.166	0.181
-545.296	65.606	-0.242	-0.245
-544.281	-25.679	0.277	-0.163
-543.266	-61.770	-0.294	0.123
-542.252	441.826	0.064	-0.139
-541.237	800.000	-0.057	0.182
-540.223	11.890	0.260	0.200
-539.208	187.478	0.039	0.058
-538.193	-46.650	0.163	0.080
-537.179	-95.838	-0.127	-0.034
-536.164	71.837	-0.135	0.140
-535.150	-25.104	0.144	-0.085
-534.135	-96.149	0.162	-0.043
-533.121	-142.610	0.149	-0.015
-532.106	134.044	0.163	-0.211
-531.091	-168.953	0.171	-0.006
-530.077	31.635	-0.121	0.104
-529.062	-81.242	-0.340	-0.112
-528.048	25.684	0.146	-0.121
-527.033	-49.140	-0.223	0.106
-526.018	57.032	-0.275	0.268
-525.004	-50.155	-0.294	-0.139
-523.989	696.147	0.041	0.108
-522.975	23.513	-0.139	0.114
-521.960	-136.624	-0.170	0.020
-520.945	219.940	0.031	-0.050
-519.931	53.143	0.022	0.021
-518.916	-189.485	-0.089	-0.001
-517.902	238.532	0.307	-0.510
-516.887	-200.000	0.012	-0.081
-515.872	-55.487	-0.221	-0.099
-514.858	-200.000	-0.062	0.276
-513.843	90.613	-0.167	-0.186
-512.829	-22.594	0.176	-0.106
-511.814	-40.099	0.110	0.057
-510.799	800.000	0.076	-0.221
-509.785	-91.533	-0.235	-0.067
-508.770	108.160	0.072	-0.085
-507.756	114.773	0.074	0.090
-506.741	-77.779	-0.291	-0.100
-505.726	282.654	-0.042	0.075
-504.712	-64.767	-0.209	-0.084
-503.697	39.390	-0.351	0.313
-502.683	236.565	0.184	0.303
-501.668	371.546	0.069	-0.139
-500.653	145.954	-0.068	-0.091
-499.639	-109.842	0.286	0.060
-498.624	85.931	0.067	-0.073
-497.610	-47.150	0.148	0.072
-496.595	692.443	-0.097	0.254
-495.581	-122.523	0.106	0.017
-494.566	28.398	-0.107	-0.090
-493.551	-78.658	-0.044	0.015
-492.537	94.221	0.142	-0.160
-491.522	-28.149	0.072	-0.041
-490.508	-200.000	-0.012	0.213
-489.493	-187.944	-0.116	-0.001
-488.478	-53.523	-0.152	-0.069
-487.464	229.133	0.033	-0.053
-486.449	4.941	-0.319	0.234
-485.435	-10.564	0.036	-0.024
-484.420	148.298	0.142	-0.191
-483.405	-200.000	-0.020	-0.256
-482.391	-139.323	-0.298	0.032
-481.376	103.633	0.069	-0.080
-480.362	-200.000	0.023	0.369
-479.347	800.000	0.020	-0.085
-478.332	630.203	-0.096	-0.241
-477.318	574.134	0.107	-0.259
-476.303	9.425	0.205	0.155
-475.289	-93.369	-0.269	0.074
-474.274	73.389	0.279	-0.291
-473.259	68.909	0.242	0.248
-472.245	800.000	0.009	0.031
-471.230	63.629	-0.147	-0.147
-470.216	800.000	0.048	-0.162
-469.201	-200.000	-0.020	-0.133
-468.186	-137.395	0.126	0.014
-467.172	-200.000	0.004	0.097
-466.157	-200.000	-0.007	0.090
-465.143	765.982	-0.037	-0.101
-464.128	27.835	-0.044	0.037
-463.113	75.078	-0.020	0.021
-462.099	-7.748	-0.268	0.180
-461.084	9.906	-0.265	0.201
-460.070	-55.448	0.236	0.105
-459.055	367.620	0.023	0.047
-458.040	-116.236	-0.140	-0.026
-457.026	-200.000	-0.037	-0.487
-456.011	379.033	-0.035	-0.072
-454.997	-84.094	0.338	0.107
-453.982	515.245	0.037	0.085
-452.968	800.000	-0.053	-0.153
-451.953	327.672	-0.132	0.252
-450.938	135.558	-0.100	0.130
-449.924	446.721	-0.161	-0.352
-448.909	-89.222	-0.161	0.047
-447.895	-126.337	0.163	0.024
-446.880	164.821	-0.054	-0.076
-445.865	618.099	0.145	0.362
-444.851	-63.381	-0.191	-0.078
-443.836	461.713	0.175	0.387
-442.822	48.455	-0.222	0.207
-441.807	800.000	0.037	-0.131
-440.792	800.000	0.038	-0.163
-439.778	-200.000	0.006	-0.233
-438.763	-200.000	0.058	0.369
-437.749	-10.537	0.078	0.052
-436.734	206.905	0.079	-0.123
-435.719	70.958	-0.170	0.175
-434.705	-93.215	0.068	0.019
-433.690	746.357	-0.084	-0.225
-432.676	-200.000	-0.022	-0.222
-431.661	-51.131	0.299	-0.139
-430.646	-200.000	-0.024	-0.184
-429.632	164.355	0.059	-0.083
-428.617	-113.718	0.159	-0.031
-427.603	-3.546	0.106	0.074
-426.588	-102.212	-0.056	0.013
-425.573	-200.000	-0.038	0.207
-424.559	-54.090	-0.147	-0.067
-423.544	800.000	-0.073	0.249
-422.530	311.576	0.057	0.106
-421.515	-146.049	-0.242	0.021
-420.500	4.231	0.233	-0.170
-419.486	240.845	0.178	-0.295
-418.471	-117.398	-0.331	-0.059
-417.457	383.276	0.130	0.267
-416.442	-85.606	-0.103	-0.032
-415.428	-22.045	-0.351	-0.212
-414.413	-200.000	0.024	-0.119
-413.398	353.284	-0.062	0.123
-412.384	800.000	0.155	0.581
-411.369	800.000	0.060	0.215
-410.355	-150.310	-0.364	-0.028
-409.340	-127.706	-0.309	-0.044
-408.325	800.000	0.152	0.432
-407.311	800.000	-0.029	-0.096
-406.296	-34.861	0.252	0.137
-405.282	-200.000	-0.014	0.185
-404.267	77.797	0.067	-0.071
-403.252	-93.646	0.074	-0.020
-402.238	-140.280	0.108	0.011
-401.223	387.938	0.156	-0.321
-400.209	605.779	0.111	-0.275
-399.194	-162.233	-0.245	0.012
-398.179	-170.795	-0.118	-0.004
-397.165	-82.646	0.301	-0.097
-396.150	133.409	0.187	0.240
-395.136	-107.954	-0.160	0.034
-394.121	-39.542	-0.433	0.225
-393.106	515.058	-0.049	-0.115
-392.092	31.255	-0.191	-0.163
-391.077	35.717	0.230	-0.200
-390.063	-200.000	0.017	0.164
-389.048	221.881	-0.044	0.071
-388.033	800.000	-0.022	-0.085
-387.019	-200.000	0.015	0.320
-386.004	250.134	0.137	-0.232
-384.990	98.018	-0.291	-0.332
-383.975	-6.771	0.432	0.291
-382.960	-23.919	0.243	0.144
-381.946	11.900	-0.165	0.126
-380.931	-200.000	-0.001	-0.093
-379.917	154.332	-0.068	-0.092
-378.902	257.700	-0.157	-0.268
-377.888	156.818	-0.028	0.039
-376.873	99.411	0.169	-0.194
-375.858	-200.000	-0.001	-0.022
-374.844	-200.000	-0.407	-0.000
-373.829	-200.000	-0.076	-0.397
-372.815	437.622	0.181	0.391
-371.800	-119.170	-0.436	-0.076
-370.785	-200.000	-0.009	-0.549
-369.771	-95.372	0.224	0.060
-368.756	-72.129	-0.308	0.113
-367.742	763.428	-0.076	-0.205
-366.727	281.919	0.117	0.207
-365.712	185.820	-0.294	-0.434
-364.698	284.339	-0.054	-0.096
-363.683	-159.363	-0.150	0.008
-362.669	196.365	0.275	0.415
-361.654	800.000	-0.020	0.062
-360.639	-45.289	0.271	-0.133
-359.625	577.828	0.047	0.113
-358.610	-103.220	0.122	-0.028
-357.596	74.079	0.247	-0.257
-356.581	-32.549	-0.270	0.149
-355.566	179.260	-0.210	-0.305
-354.552	-95.934	0.112	0.030
-353.537	-113.095	0.161	0.032
-352.523	173.847	-0.079	0.113
-351.508	30.951	0.167	0.142
-350.493	-27.907	0.098	0.056
-349.479	-109.284	0.250	-0.053
-348.464	-56.151	0.091	-0.040
-347.450	-200.000	0.006	-0.360
-346.435	-109.687	0.061	0.013
-345.420	800.000	-0.056	-0.162
-344.406	581.393	0.144	-0.349
-343.391	-200.000	0.087	-0.428
-342.377	-187.192	-0.615	-0.008
-341.362	-200.000	-0.020	0.333
-340.348	-147.727	0.086	-0.007
-339.333	243.162	0.152	-0.253
-338.318	281.301	0.149	-0.264
-337.304	800.000	0.124	-0.418
-336.289	47.106	-0.086	0.079
-335.275	143.721	-0.134	0.177
-334.260	428.077	0.073	-0.156
-333.245	6.310	-0.030	0.022
-332.231	-31.757	-0.188	-0.104
-331.216	-200.000	-0.008	0.214
-330.202	41.725	0.084	0.076
-329.187	610.763	-0.090	-0.224
-328.172	227.708	-0.029	-0.047
-327.158	-120.530	0.126	-0.021
-326.143	-28.182	-0.365	0.209
-325.129	-149.275	-0.229	-0.018
-324.114	-46.429	-0.131	-0.064
-323.099	-82.446	0.341	-0.110
-322.085	-86.950	0.265	0.080
-321.070	-38.901	-0.037	-0.019
-320.056	-69.577	-0.206	-0.078
-319.041	-163.181	0.277	0.013
-318.026	121.080	0.166	-0.205
-317.012	800.000	0.067	0.208
-315.997	80.273	-0.272	-0.290
-314.983	-137.851	0.269	-0.030
-313.968	800.000	0.121	0.491
-312.953	-105.023	-0.332	0.075
-311.939	105.264	-0.118	-0.138
-310.924	388.084	-0.032	0.066
-309.910	-163.393	0.097	-0.005
-308.895	-129.882	-0.224	0.030
-307.880	-200.000	-0.021	-0.209
-306.866	-167.255	0.330	-0.013
-305.851	-200.000	-0.002	0.123
-304.837	37.175	0.070	0.062
-303.822	-21.436	-0.108	-0.065
-302.807	86.411	0.147	-0.160
-301.793	535.435	-0.033	0.076
-300.778	-2.001	0.095	-0.066
-299.764	800.000	0.029	0.099
-298.749	-200.000	0.007	-0.041
-297.735	-46.947	0.197	-0.095
-296.720	116.944	0.204	-0.248
-295.705	-200.000	0.166	-0.000
-294.691	91.414	0.137	0.152
-293.676	-96.147	0.255	-0.067
-292.662	-6.267	-0.378	0.255
-291.647	-74.217	0.066	-0.024
-290.632	-90.615	-0.166	-0.047
-289.618	-98.616	-0.197	-0.050
-288.603	194.505	-0.201	0.301
-287.589	-162.068	0.319	0.016
-286.574	13.366	0.093	-0.071
-285.559	14.814	-0.171	0.132
-284.545	-168.866	-0.387	0.014
-283.530	-172.709	-0.215	-0.007
-282.516	-200.000	0.099	0.590
-281.501	800.000	0.049	0.165
-280.486	94.433	-0.078	0.088
-279.472	365.667	0.068	0.136
-278.457	-36.848	0.072	-0.038
-277.443	-145.414	-0.310	-0.028
-276.428	-98.667	0.143	-0.036
-275.413	106.378	-0.140	0.164
-274.399	-24.242	0.214	0.126
-273.384	-200.000	0.023	0.163
-272.370	-29.385	-0.262	-0.148
-271.355	-29.683	0.220	0.124
-270.340	462.541	-0.085	0.189
-269.326	311.426	0.007	-0.013
-268.311	45.935	-0.204	-0.186
-267.297	-177.725	0.043	-0.001
-266.282	206.918	-0.086	0.132
-265.267	-200.000	0.050	0.221
-264.253	165.526	0.076	-0.106
-263.238	-187.148	0.275	0.004
-262.224	-171.026	0.217	-0.007
-261.209	800.000	0.113	-0.334
-260.195	-77.028	-0.279	-0.096
-259.180	-106.069	0.346	0.077
-258.165	85.769	-0.236	-0.257
-257.151	-28.403	-0.257	-0.146
-256.136	12.789	-0.255	0.195
-255.122	-108.026	-0.232	0.050
-254.107	526.003	-0.063	0.147
-253.092	0.616	-0.123	0.087
-252.078	120.253	-0.119	0.146
-251.063	306.777	-0.050	-0.091
-250.049	-62.455	-0.242	-0.099
-249.034	-200.000	0.036	-0.285
-248.019	-130.492	-0.351	-0.047
-247.005	325.034	0.098	0.185
-245.990	-129.369	-0.103	-0.014
-244.976	-200.000	-0.013	0.162
-243.961	-118.529	-0.388	0.068
-242.946	-67.442	0.040	0.015
-241.932	-200.000	-0.032	0.270
-240.917	800.000	0.117	0.382
-239.903	800.000	0.082	0.275
-238.888	227.865	0.124	0.199
-237.873	29.631	0.072	-0.060
-236.859	-200.000	-0.023	-0.132
-235.844	-187.295	-0.532	0.007
-234.830	-112.809	0.198	0.039
-233.815	-84.608	-0.134	0.042
-232.800	-182.875	-0.318	0.006
-231.786	-103.004	0.090	0.021
-230.771	-200.000	-0.020	0.442
-229.757	-139.790	0.449	0.047
-228.742	-117.409	-0.310	0.055
-227.727	-38.951	0.123	0.064
-226.713	23.386	0.074	-0.060
-225.698	31.448	-0.307	0.260
-224.684	-52.041	-0.397	-0.182
-223.669	-83.699	0.187	0.059
-222.655	-80.297	-0.358	0.118
-221.640	-35.435	0.020	-0.011
-220.625	800.000	-0.026	0.100
-219.611	249.723	-0.099	-0.165
-218.596	-106.890	0.123	-0.027
-217.582	800.000	-0.089	0.333
-216.567	800.000	-0.048	0.154
-215.552	-124.534	-0.200	-0.031
-214.538	757.738	0.084	0.224
-213.523	-182.461	-0.163	0.003
-212.509	-200.000	-0.054	0.352
-211.494	-200.000	0.056	0.338
-210.479	-159.577	-0.418	-0.023
-209.465	-45.798	-0.224	0.109
-208.450	-200.000	-0.009	-0.061
-207.436	-150.713	0.207	0.016
-206.421	58.512	0.102	-0.098
-205.406	-13.760	-0.318	0.203
-204.392	65.972	-0.131	0.131
-203.377	800.000	-0.023	0.089
-202.363	220.369	0.105	-0.166
-201.348	36.664	-0.146	0.127
-200.333	-60.157	-0.164	0.069
-199.319	-37.193	-0.078	0.041
-198.304	-58.632	0.380	0.162
-197.290	-200.000	0.054	0.259
-196.275	503.590	-0.216	0.493
-195.260	-200.000	-0.048	0.276
-194.246	338.441	0.214	-0.410
-193.231	-31.502	0.110	-0.061
-192.217	-107.812	-0.202	-0.043
-191.202	454.775	0.078	0.170
-190.187	-200.000	0.006	0.042
-189.173	-200.000	0.061	-0.000
-188.158	-149.841	0.317	0.024
-187.144	-127.244	-0.045	0.007
-186.129	-200.000	0.030	-0.174
-185.114	32.986	0.064	-0.055
-184.100	-200.000	-0.004	0.201
-183.085	-200.000	0.021	0.186
-182.071	194.559	-0.201	-0.301
-181.056	-70.954	-0.140	-0.052
-180.042	107.585	-0.193	-0.226
-179.027	-9.698	-0.196	0.129
-178.012	29.680	0.237	-0.199
-176.998	183.892	0.047	-0.069
-175.983	-197.937	0.453	-0.003
-174.969	-177.291	0.280	0.007
-173.954	29.337	0.178	-0.149
-172.939	-200.000	-0.008	-0.203
-171.925	-200.000	-0.072	-0.460
-170.910	144.715	0.088	-0.115
-169.896	1.417	0.206	0.146
-168.881	-51.180	-0.296	-0.136
-167.866	-170.535	0.138	-0.005
-166.852	-118.636	0.178	-0.031
-165.837	48.734	-0.089	0.082
-164.823	-20.823	0.152	0.092
-163.808	-170.362	-0.121	0.004
-162.793	205.039	0.159	-0.243
-161.779	-70.048	0.302	0.113
-160.764	-200.000	-0.033	0.437
-159.750	112.591	0.303	0.361
-158.735	-67.860	0.259	-0.100
-157.720	16.471	0.163	-0.127
-156.706	-88.476	0.182	0.053
-155.691	104.692	0.153	-0.177
-154.677	-200.000	0.031	0.227
-153.662	-22.994	-0.108	0.064
-152.647	-200.000	-0.009	-0.338
-151.633	-93.492	-0.118	-0.032
-150.618	132.561	-0.073	-0.092
-149.604	800.000	0.037	0.108
-148.589	-47.686	-0.226	-0.108
-147.574	307.094	-0.014	-0.026
-146.560	-86.308	-0.256	-0.077
-145.545	-93.337	-0.014	-0.004
-144.531	-200.000	0.055	0.323
-143.516	9.879	-0.155	0.116
-142.502	-84.120	-0.209	-0.065
-141.487	-99.698	0.498	-0.123
-140.472	-103.566	-0.218	0.050
-139.458	380.311	0.067	-0.136
-138.443	-200.000	0.117	0.000
-137.429	-169.064	0.073	-0.003
-136.414	-200.000	0.007	0.047
-135.399	337.696	-0.107	0.204
-134.385	55.059	0.272	0.258
-133.370	-200.000	0.032	0.238
-132.356	91.913	-0.098	0.108
-131.341	800.000	-0.056	0.178
-130.326	-153.823	0.256	0.017
-129.312	287.685	-0.063	-0.112
-128.297	225.676	-0.126	0.200
-127.283	800.000	0.114	0.309
-126.268	317.775	0.038	-0.071
-125.253	-200.000	0.017	0.139
-124.239	24.703	-0.369	-0.300
-123.224	-62.965	0.201	-0.082
-122.210	-67.668	0.187	-0.072
-121.195	11.659	-0.017	0.012
-120.180	123.897	0.081	0.100
-119.166	800.000	0.060	-0.167
-118.151	-88.404	0.205	0.060
-117.137	-200.000	0.023	-0.168
-116.122	49.079	0.110	0.102
-115.107	-43.795	0.032	0.016
-114.093	193.915	0.126	0.188
-113.078	-90.125	-0.241	0.069
-112.064	-200.000	0.010	-0.427
-111.049	-200.000	-0.030	0.251
-110.034	800.000	-0.102	0.358
-109.020	-45.198	-0.180	-0.088
-108.005	103.756	0.040	-0.046
-106.991	94.818	-0.040	-0.045
-105.976	-200.000	0.027	0.294
-104.962	-47.049	-0.257	0.123
-103.947	-16.941	-0.087	0.054
-102.932	-56.328	0.287	-0.125
-101.918	68.893	0.119	-0.120
-100.903	-85.757	0.235	-0.072
-99.889	131.106	-0.117	-0.147
-98.874	335.281	0.056	-0.107
-97.859	139.340	0.002	0.003
-96.845	800.000	0.040	0.119
-95.830	-200.000	0.014	-0.147
-94.816	239.164	-0.137	-0.223
-93.801	562.353	0.146	-0.347
-92.786	800.000	-0.072	0.265
-91.772	224.850	0.178	0.282
-90.757	-54.828	-0.125	-0.055
-89.743	-200.000	-0.052	-0.332
-88.728	471.667	0.098	-0.216
-87.713	-156.849	0.128	-0.008
-86.699	169.380	-0.110	0.154
-85.684	117.093	0.268	-0.323
-84.670	800.000	0.102	-0.308
-83.655	-105.288	-0.207	0.046
-82.640	258.636	-0.031	0.052
-81.626	267.192	-0.052	0.089
-80.611	32.219	-0.256	-0.217
-79.597	-200.000	-0.017	-0.141
-78.582	412.773	-0.056	0.118
-77.567	1.943	-0.280	0.198
-76.553	52.607	-0.118	-0.111
-75.538	-58.853	0.303	0.128
-74.524	-30.020	-0.378	0.211
-73.509	549.296	-0.066	-0.156
-72.494	213.356	-0.072	0.112
-71.480	14.154	0.259	-0.198
-70.465	-200.000	0.016	-0.290
-69.451	-19.547	-0.308	0.187
-68.436	-62.449	0.202	0.082
-67.422	-106.094	-0.019	0.004
-66.407	42.329	-0.214	0.191
-65.392	800.000	0.081	0.331
-64.378	-140.700	-0.255	-0.026
-63.363	25.237	0.314	0.256
-62.349	-47.309	0.354	0.169
-61.334	103.666	-1.046	-1.204
-60.319	-62.268	0.605	0.247
-59.305	800.000	-0.334	-0.947
-58.290	225.036	0.770	1.221
-57.276	322.591	0.941	1.756
-56.261	-200.000	106.799	621.774
-55.246	518.015	1508.979	3459.446
-54.232	176.919	2698.090	3845.258
-53.217	111.294	2158.492	2548.385
-52.203	41.158	1597.247	1413.787
-51.188	32.803	1334.750	1131.541
-50.173	29.676	1293.310	1078.157
-49.159	53.807	1347.885	1268.057
-48.144	54.029	1363.564	1284.077
-47.130	32.852	1317.976	1117.436
-46.115	29.493	1300.155	1082.621
-45.100	29.299	1295.155	1077.280
-44.086	29.200	1293.021	1074.886
-43.071	29.214	1290.174	1072.557
-42.057	29.067	1288.403	1070.184
-41.042	29.152	1286.715	1069.235
-40.027	29.192	1285.096	1068.081
-39.013	29.187	1283.257	1066.483
-37.998	29.304	1281.331	1065.510
-36.984	29.378	1279.903	1064.713
-35.969	29.357	1277.922	1062.898
-34.954	29.285	1276.195	1061.008
-33.940	29.337	1274.930	1060.209
-32.925	29.362	1273.384	1059.026
-31.911	29.438	1272.029	1058.296
-30.896	29.464	1270.774	1057.358
-29.881	29.406	1269.404	1055.846
-28.867	29.462	1267.580	1054.607
-27.852	29.386	1266.122	1052.913
-26.838	29.403	1264.872	1051.931
-25.823	29.356	1263.872	1050.791
-24.809	29.426	1261.956	1049.555
-23.794	29.401	1261.164	1048.711
-22.779	29.464	1259.734	1047.838
-21.765	29.391	1258.883	1046.673
-20.750	29.489	1257.102	1045.705
-19.736	29.426	1255.750	1044.184
-18.721	29.363	1254.907	1043.088
-17.706	29.373	1253.894	1042.262
-16.692	29.323	1252.520	1040.793
-15.677	29.390	1251.360	1040.164
-14.663	29.269	1250.353	1038.604
-13.648	29.237	1249.497	1037.672
-12.633	29.234	1248.752	1036.999
-11.619	29.269	1247.607	1036.204
-10.604	29.294	1246.836	1035.662
-9.590	29.173	1246.118	1034.341
-8.575	29.169	1245.261	1033.571
-7.560	29.106	1244.577	1032.606
-6.546	29.274	1243.439	1032.563
-5.531	29.180	1242.583	1031.283
-4.517	29.201	1241.884	1030.784
-3.502	29.190	1240.771	1029.752
-2.487	29.235	1239.626	1029.015
-1.473	29.188	1235.842	1025.571
-0.458	27.647	1220.967	1004.704
0.556	22.127	1203.406	967.517
1.571	18.537	1209.179	952.174
2.586	17.856	1223.497	959.534
3.600	17.681	1212.504	949.853
4.615	12.945	1141.371	869.154
5.629	4.064	1067.648	769.000
6.644	-0.062	1048.037	734.669
7.659	-0.304	1045.499	731.644
8.673	-0.429	1044.135	730.015
9.688	-0.444	1042.788	728.937
10.702	-0.101	1040.761	729.122
11.717	5.692	1048.767	762.932
12.731	14.575	1061.990	816.112
13.746	19.085	1067.237	842.191
14.761	19.945	1067.986	846.918
15.775	19.847	1067.845	846.251
16.790	19.668	1067.033	844.657
17.804	19.659	1066.179	843.864
18.819	19.620	1066.228	843.635
19.834	19.820	1065.184	843.710
20.848	19.749	1065.273	843.359
21.863	19.838	1064.018	842.726
22.877	19.821	1063.373	842.057
23.892	19.714	1062.990	841.157
24.907	19.760	1062.419	840.855
25.921	19.855	1061.012	840.131
26.936	19.832	1059.220	838.526
27.950	19.773	1057.936	837.149
28.965	19.587	1056.037	834.675
29.980	19.746	1054.407	834.080
30.994	19.880	1053.439	833.887
32.009	19.750	1052.730	832.625
33.023	19.688	1050.860	830.772
34.038	19.765	1050.407	830.711
35.053	20.005	1049.830	831.334
36.067	19.770	1049.315	829.723
37.082	19.955	1048.179	829.638
38.096	20.051	1047.798	829.723
39.111	20.244	1046.593	829.619
40.126	19.998	1045.363	827.396
41.140	19.702	1043.233	824.228
42.155	19.501	1041.951	822.181
43.169	19.566	1041.129	821.772
44.184	19.681	1039.976	821.336
45.199	19.622	1038.644	819.931
46.213	19.488	1038.026	818.734
47.228	19.514	1037.326	818.231
48.242	19.701	1036.332	818.259
49.257	19.729	1035.756	817.865
50.271	19.980	1034.820	818.241
51.286	19.862	1033.998	816.962
52.301	19.813	1033.056	815.915
53.315	19.840	1032.047	815.173
54.330	19.868	1030.801	814.248
55.344	19.898	1030.334	813.949
56.359	19.701	1029.282	812.119
57.374	19.662	1028.110	810.940
58.388	19.679	1027.600	810.547
59.403	19.667	1026.456	809.514
60.417	19.567	1025.399	808.144
61.432	19.650	1024.610	807.837
62.447	19.673	1024.510	807.794
63.461	19.814	1023.129	807.295
64.476	19.737	1022.563	806.417
65.490	19.527	1021.691	804.678
66.505	19.810	1020.080	804.656
67.520	19.761	1020.051	804.332
68.534	19.505	1018.856	802.130
69.549	19.389	1017.484	800.440
70.563	19.249	1017.314	799.588
71.578	19.258	1016.408	798.844
72.593	19.125	1015.498	797.442
73.607	19.288	1014.829	797.602
74.622	19.601	1014.747	798.913
75.636	19.557	1013.596	797.733
76.651	19.373	1012.579	796.013
77.666	19.416	1012.093	795.761
78.680	19.509	1010.934	795.205
79.695	19.583	1010.304	794.979
80.709	19.576	1009.897	794.557
81.724	19.486	1009.050	793.406
82.739	19.698	1008.169	793.621
83.753	19.820	1007.550	793.623
84.768	20.114	1006.844	794.341
85.782	20.242	1005.929	794.136
86.797	20.054	1004.605	792.163
87.812	19.935	1004.022	791.085
88.826	19.972	1002.904	790.308
89.841	20.177	1001.970	790.432
90.855	20.161	1000.991	789.519
91.870	20.047	1000.261	788.354
92.884	19.873	998.909	786.429
93.899	19.925	997.829	785.743
94.914	20.045	997.554	786.005
95.928	19.853	995.773	783.659
96.943	19.751	994.585	782.194
97.957	19.536	993.640	780.410
98.972	19.382	992.527	778.771
99.987	19.648	991.865	779.384
101.001	19.691	991.250	779.025
102.016	19.783	990.176	778.529
103.030	19.724	988.807	777.115
104.045	19.491	988.378	775.663
105.060	19.487	986.832	774.363
106.074	19.722	986.502	775.091
107.089	19.990	986.011	775.835
108.103	19.786	985.239	774.249
109.118	19.595	983.578	772.019
110.133	19.757	982.567	771.880
111.147	19.528	981.478	769.937
112.162	19.532	979.988	768.717
113.176	19.618	979.625	768.748
114.191	19.552	978.233	767.293
115.206	19.094	977.895	764.926
116.220	19.234	977.052	764.820
117.235	19.419	976.021	764.765
118.249	19.408	975.017	763.861
119.264	19.301	974.342	762.795
120.279	19.482	973.308	762.718
121.293	19.519	972.742	762.369
122.308	19.456	972.088	761.509
123.322	19.245	970.798	759.503
124.337	19.204	969.383	758.148
125.352	18.917	967.590	755.418
126.366	18.797	966.803	754.209
127.381	19.548	966.619	757.293
128.395	19.928	966.092	758.480
129.410	19.995	965.018	757.865
130.424	19.881	964.280	756.717
131.439	19.830	963.566	755.867
132.454	19.759	962.527	754.674
133.468	19.874	961.283	754.137
134.483	19.835	960.949	753.637
135.497	20.129	960.109	754.190
136.512	20.149	959.060	753.386
137.527	20.063	958.696	752.662
138.541	20.079	957.663	751.850
139.556	20.084	957.023	751.306
140.570	20.183	955.775	750.686
141.585	20.132	954.987	749.780
142.600	19.957	954.397	748.497
143.614	20.155	953.306	748.429
144.629	20.452	952.554	749.055
145.643	20.221	951.138	746.878
146.658	20.124	949.497	745.108
147.673	19.981	948.573	743.703
148.687	19.996	947.517	742.872
149.702	19.849	946.795	741.610
150.716	20.003	945.531	741.215
151.731	20.001	945.122	740.821
152.746	20.282	944.833	741.728
153.760	20.245	943.763	740.665
154.775	20.390	943.272	740.832
155.789	20.199	942.559	739.393
156.804	20.275	941.548	738.857
157.819	20.240	940.857	738.101
158.833	20.370	940.278	738.135
159.848	20.388	938.985	737.131
160.862	20.287	937.539	735.502
161.877	20.422	936.585	735.262
162.892	20.368	936.185	734.652
163.906	20.285	935.255	733.508
164.921	20.303	934.421	732.866
165.935	20.292	933.564	732.080
166.950	20.369	932.295	731.346
167.964	20.387	931.388	730.644
168.979	20.110	930.216	728.496
169.994	20.089	929.341	727.657
171.008	20.371	929.316	728.758
172.023	20.262	928.303	727.442
173.037	19.979	927.162	725.299
174.052	19.933	925.906	724.059
175.067	19.950	925.700	723.907
176.081	20.237	924.758	724.306
177.096	20.071	924.438	723.296
178.110	19.752	923.196	720.931
179.125	19.569	922.441	719.515
180.140	19.748	921.986	719.841
181.154	19.921	921.729	720.296
182.169	20.152	921.487	721.007
183.183	20.383	920.657	721.251
184.198	20.073	919.710	719.161
185.213	20.191	919.284	719.254
186.227	20.286	918.458	718.935
187.242	20.232	917.794	718.128
188.256	20.313	917.285	718.000
189.271	20.329	916.748	717.585
190.286	20.048	915.869	715.672
191.300	19.556	914.369	712.406
192.315	18.874	913.062	708.516
193.329	18.856	912.587	708.009
194.344	19.696	912.759	711.540
195.359	20.156	912.781	713.387
196.373	20.339	911.752	713.273
197.388	20.047	911.429	711.757
198.402	20.035	910.548	710.956
199.417	19.929	909.903	709.956
200.432	19.716	909.135	708.420
201.446	19.699	908.303	707.642
202.461	19.813	906.987	707.018
203.475	18.783	905.993	701.976
204.490	18.252	904.318	698.449
205.504	19.191	904.894	702.663
206.519	19.736	904.803	704.752
207.534	19.939	904.151	705.007
208.548	20.096	904.666	705.987
209.563	19.987	902.957	704.151
210.577	19.969	902.093	703.339
211.592	20.353	901.668	704.505
212.607	20.302	900.804	703.560
213.621	20.376	900.618	703.652
214.636	20.296	900.018	702.796
215.650	20.214	898.850	701.494
216.665	20.485	898.252	702.057
217.680	20.336	897.703	700.965
218.694	19.869	896.645	698.194
219.709	19.871	896.016	697.650
220.723	20.009	895.565	697.792
221.738	20.144	894.987	697.826
222.753	20.058	894.451	696.998
223.767	20.271	893.700	697.210
224.782	20.467	893.303	697.625
225.796	20.342	892.803	696.670
226.811	19.782	890.941	692.912
227.826	19.125	889.995	689.485
228.840	19.432	889.231	690.061
229.855	19.548	888.393	689.813
230.869	19.273	887.237	687.755
231.884	19.574	887.987	689.480
232.899	20.303	887.545	691.981
233.913	20.176	886.756	690.801
234.928	20.080	886.618	690.251
235.942	20.208	885.340	689.702
236.957	19.803	884.948	687.724
237.972	19.827	883.989	687.014
238.986	19.985	883.688	687.346
240.001	19.877	882.910	686.254
241.015	19.961	882.626	686.307
242.030	20.087	881.926	686.198
243.045	20.167	881.730	686.300
244.059	20.359	880.643	686.156
245.074	20.237	879.840	684.987
246.088	19.943	878.618	682.814
247.103	20.060	878.614	683.211
248.117	20.736	878.330	685.595
249.132	20.696	878.000	685.117
250.147	20.791	877.553	685.085
251.161	20.918	876.738	684.886
252.176	20.839	876.380	684.234
253.190	21.002	875.917	684.454
254.205	21.159	875.326	684.546
255.220	21.062	874.451	683.423
256.234	20.963	873.852	682.507
257.249	20.887	872.888	681.395
258.263	20.957	872.087	680.981
259.278	21.001	871.742	680.825
260.293	21.087	870.900	680.441
261.307	20.916	870.015	679.024
262.322	20.776	869.188	677.772
263.336	19.964	867.034	672.879
264.351	18.897	865.507	667.496
265.366	19.173	864.815	667.972
266.380	20.132	866.020	672.566
267.395	20.657	865.441	674.093
268.409	20.520	864.755	672.968
269.424	20.750	864.177	673.348
270.439	20.853	863.593	673.230
271.453	20.967	863.010	673.157
272.468	21.125	862.781	673.528
273.482	21.045	862.046	672.588
274.497	20.737	860.640	670.245
275.512	20.285	859.975	667.927
276.526	20.710	860.059	669.571
277.541	20.833	859.669	669.683
278.555	20.603	858.985	668.205
279.570	20.497	858.186	667.117
280.585	20.707	857.363	667.226
281.599	20.691	856.376	666.334
282.614	19.942	855.429	662.673
283.628	20.167	854.886	663.055
284.643	20.534	854.448	664.060
285.657	20.139	853.274	661.581
286.672	19.768	852.974	659.875
287.687	20.476	852.433	662.097
288.701	20.403	851.806	661.272
289.716	20.190	850.921	659.716
290.730	20.122	850.305	658.923
291.745	19.892	849.017	656.992
292.760	20.182	849.201	658.180
293.774	21.015	849.818	661.762
294.789	21.354	849.534	662.765
295.803	21.398	848.875	662.358
296.818	21.497	848.267	662.203
297.833	20.909	847.204	659.089
298.847	20.829	846.179	657.933
299.862	21.181	846.551	659.495
300.876	21.407	845.653	659.589
301.891	21.207	844.724	658.051
302.906	20.672	843.830	655.282
303.920	21.013	843.429	656.196
304.935	21.259	843.252	656.925
305.949	21.253	842.431	656.206
306.964	21.125	841.624	655.038
307.979	21.110	841.334	654.699
308.993	21.499	841.286	656.064
310.008	21.412	840.642	655.176
311.022	21.110	839.615	653.186
312.037	20.964	839.151	652.222
313.052	20.791	838.324	650.877
314.066	20.086	836.724	646.944
315.081	19.753	836.291	645.311
316.095	20.749	836.465	649.104
317.110	21.115	836.034	650.076
318.125	20.216	834.870	645.765
319.139	19.418	832.944	641.254
320.154	19.363	832.862	640.930
321.168	20.220	833.150	644.280
322.183	20.638	833.563	646.094
323.197	20.840	833.033	646.375
324.212	21.221	832.154	647.051
325.227	21.205	831.798	646.656
326.241	21.017	831.041	645.315
327.256	20.949	830.643	644.696
328.270	20.948	829.656	643.873
329.285	20.676	829.047	642.335
330.300	20.575	828.338	641.358
331.314	20.759	828.513	642.115
332.329	21.125	827.833	642.881
333.343	21.261	827.662	643.193
334.358	21.250	827.126	642.677
335.373	21.277	826.793	642.462
336.387	21.601	826.692	643.518
337.402	21.656	826.729	643.690
338.416	21.716	825.695	643.050
339.431	21.642	825.416	642.505
340.446	21.799	825.042	642.730
341.460	21.515	825.114	641.688
342.475	21.400	824.271	640.554
343.489	21.521	823.985	640.721
344.504	21.872	823.264	641.387
345.519	21.951	823.111	641.500
346.533	22.000	822.609	641.230
347.548	22.029	822.282	641.022
348.562	22.104	821.487	640.619
349.577	21.923	821.189	639.671
350.592	21.865	820.867	639.155
351.606	22.098	819.329	638.747
352.621	21.789	818.939	637.261
353.635	21.897	817.876	636.773
354.650	20.954	816.514	632.236
355.665	20.264	815.049	628.547
356.679	20.722	814.955	630.076
357.694	21.077	814.608	631.038
358.708	21.069	813.938	630.434
359.723	21.525	813.779	631.904
360.738	21.634	813.263	631.837
361.752	21.686	813.232	631.947
362.767	22.112	812.306	632.706
363.781	22.291	812.195	633.207
364.796	22.379	811.842	633.194
365.810	22.270	811.590	632.548
366.825	22.340	811.078	632.345
367.840	22.071	809.702	630.252
368.854	21.662	809.392	628.488
369.869	21.545	809.262	627.909
370.883	21.762	808.533	628.066
371.898	21.617	807.857	626.967
372.913	21.704	807.456	626.911
373.927	21.875	807.382	627.412
374.942	21.863	807.372	627.306
375.956	22.085	806.345	627.243
376.971	22.197	806.090	627.388
377.986	22.232	805.879	627.293
379.000	22.311	805.242	627.024
380.015	22.067	804.956	625.878
381.029	22.211	804.041	625.624
382.044	22.269	803.457	625.321
383.059	22.267	803.015	624.912
384.073	22.205	803.005	624.628
385.088	22.299	801.788	623.963
386.102	22.137	801.518	623.120
387.117	22.292	800.544	622.859
388.132	21.769	799.664	620.267
389.146	21.286	798.676	617.738
390.161	21.664	798.563	618.933
391.175	22.195	798.397	620.626
392.190	21.824	797.067	618.227
393.205	20.458	795.278	611.977
394.219	19.063	793.919	605.971
395.234	19.110	794.022	606.161
396.248	20.649	794.907	612.201
397.263	22.079	795.508	617.645
398.278	22.055	795.336	617.372
399.292	21.751	794.750	615.794
400.307	21.922	793.892	615.674
401.321	21.877	793.827	615.409
402.336	22.184	793.924	616.508
403.350	22.370	793.886	617.076
404.365	22.654	793.547	617.752
405.380	22.973	792.956	618.357
406.394	23.096	792.207	618.147
407.409	23.037	791.860	617.616
408.423	22.825	791.576	616.599
409.438	22.822	791.277	616.299
410.453	22.992	790.602	616.314
411.467	23.003	790.251	616.023
412.482	22.924	789.882	615.407
413.496	23.025	789.473	615.386
414.511	23.023	789.192	615.104
415.526	23.054	788.466	614.593
416.540	22.963	787.832	613.728
417.555	22.608	786.961	611.763
418.569	22.809	786.743	612.235
419.584	22.654	786.116	611.156
420.599	22.216	786.009	609.501
421.613	159.029	1363.282	1799.151
422.628	137.664	1447.370	1799.245
