DTS Sentinel unit serial number:	SN413079Multiplexer serial number:	ORYXHardware model number:	OX4-SRSoftware version number:	ORYX F/W v4.00 Oryx Data Collector v3.7.2.0data status	okinstallation	princeton_trtdifferential loss correction	single-endedforward channel	channel 1reverse channel	N/Adate	2019/09/18time	10:18:35forward acquisition time	60.00reverse acquisition time	0.00gamma	496.2192k internal	0.2329k external	0.2329temperature offset calibration	0.9977default loss term (dB/km)	0.3790temperature slope calibration	1.0000multiplexer offset coefficient	1.0000multiplexer slope coefficient	1.0000fibre end	0.00T internal ref (°C)	28.00T ext. ref 1 (°C)	0.34T ext. ref 2 (°C)	24.33length (m)	temperature (°C)	Stokes	anti-Stokes-747.200	-113.670	0.082	-0.016
-746.185	-182.420	-0.149	0.003
-745.171	43.941	0.307	-0.283
-744.156	79.243	-0.290	0.314
-743.142	58.357	0.240	0.237
-742.127	103.413	-0.140	0.166
-741.112	-200.000	0.035	0.195
-740.098	-137.798	-0.290	-0.033
-739.083	153.535	-0.242	0.334
-738.069	105.264	0.077	-0.092
-737.054	800.000	-0.110	0.319
-736.039	-200.000	-0.029	0.129
-735.025	155.227	-0.073	-0.102
-734.010	415.676	-0.114	-0.244
-732.996	45.611	-0.380	-0.353
-731.981	-200.000	0.007	-0.448
-730.966	-29.555	0.041	-0.024
-729.952	800.000	-0.063	-0.268
-728.937	-44.353	-0.374	0.189
-727.923	-200.000	-0.001	-0.093
-726.908	-200.000	-0.035	-0.306
-725.894	-92.502	-0.102	-0.029
-724.879	84.380	0.161	0.178
-723.864	-200.000	0.028	0.151
-722.850	-124.623	-0.092	-0.014
-721.835	-6.540	0.143	0.098
-720.821	245.405	-0.128	-0.217
-719.806	-33.460	-0.196	-0.109
-718.791	47.082	0.136	-0.127
-717.777	-134.332	-0.254	-0.031
-716.762	245.903	0.115	-0.196
-715.748	800.000	0.093	-0.336
-714.733	47.717	0.162	0.152
-713.718	-200.000	0.022	-0.125
-712.704	-110.042	-0.295	-0.062
-711.689	-126.276	-0.324	0.049
-710.675	270.422	-0.201	-0.356
-709.660	475.991	0.126	-0.286
-708.645	422.879	-0.056	0.122
-707.631	60.916	-0.168	0.167
-706.616	172.409	-0.156	0.226
-705.602	-200.000	0.030	-0.199
-704.587	-200.000	0.013	-0.466
-703.572	-88.301	0.181	0.054
-702.558	196.855	-0.110	0.168
-701.543	-86.485	0.304	0.094
-700.529	491.075	0.052	0.119
-699.514	46.927	0.247	0.231
-698.499	39.060	-0.197	0.177
-697.485	458.373	-0.019	0.043
-696.470	-183.245	-0.137	0.002
-695.456	-86.995	-0.125	-0.038
-694.441	-200.000	0.017	-0.118
-693.426	-24.334	-0.383	0.230
-692.412	800.000	0.080	-0.288
-691.397	50.362	-0.187	-0.177
-690.383	800.000	0.064	-0.237
-689.368	137.108	-0.164	0.216
-688.354	422.811	-0.068	0.147
-687.339	214.421	-0.145	-0.230
-686.324	7.269	0.105	-0.079
-685.310	-200.000	-0.014	0.157
-684.295	40.057	-0.143	-0.129
-683.281	-124.545	-0.137	0.021
-682.266	1.899	-0.062	-0.045
-681.251	348.150	0.044	-0.088
-680.237	800.000	0.053	0.225
-679.222	-100.722	0.139	-0.035
-678.208	-200.000	-0.006	0.249
-677.193	273.682	-0.183	-0.326
-676.178	-200.000	0.013	-0.345
-675.164	800.000	0.005	-0.020
-674.149	2.058	-0.344	-0.249
-673.135	-105.761	0.201	0.046
-672.120	-108.655	-0.368	-0.079
-671.105	-200.000	0.022	-0.215
-670.091	-55.135	0.173	0.078
-669.076	-200.000	0.005	-0.371
-668.062	-130.922	-0.223	0.030
-667.047	-200.000	-0.023	0.132
-666.032	-199.734	0.213	0.001
-665.018	-117.987	-0.427	0.077
-664.003	785.283	0.129	0.355
-662.989	-200.000	-0.004	-0.076
-661.974	316.173	-0.214	-0.406
-660.959	-83.137	-0.221	-0.072
-659.945	-74.605	-0.169	0.061
-658.930	15.975	-0.142	-0.112
-657.916	-200.000	0.019	0.154
-656.901	-50.310	-0.103	-0.049
-655.886	-122.593	0.137	-0.022
-654.872	-200.000	0.007	0.076
-653.857	125.807	-0.260	-0.329
-652.843	87.010	-0.146	-0.162
-651.828	301.507	0.071	-0.132
-650.814	-200.000	-0.020	-0.096
-649.799	-88.735	-0.349	0.104
-648.784	259.060	-0.127	0.220
-647.770	-61.533	-0.181	0.076
-646.755	-200.000	-0.021	0.177
-645.741	-61.357	-0.084	-0.035
-644.726	-52.285	-0.338	0.157
-643.711	637.491	-0.067	-0.170
-642.697	-151.221	-0.068	-0.005
-641.682	17.578	-0.256	0.204
-640.668	-114.868	-0.035	-0.007
-639.653	-29.455	0.082	0.047
-638.638	-114.278	0.228	-0.044
-637.624	-33.664	-0.205	0.113
-636.609	-139.429	-0.241	0.026
-635.595	-200.000	-0.031	0.200
-634.580	151.936	-0.220	0.302
-633.565	800.000	-0.104	-0.328
-632.551	800.000	0.092	0.361
-631.536	23.886	-0.132	-0.109
-630.522	-123.552	-0.271	-0.043
-629.507	-200.000	-0.011	-0.212
-628.492	-200.000	0.020	-0.109
-627.478	800.000	-0.030	0.091
-626.463	-180.700	0.089	-0.002
-625.449	66.786	-0.141	-0.144
-624.434	-144.125	0.226	0.021
-623.419	-108.094	0.175	0.038
-622.405	800.000	-0.054	-0.153
-621.390	64.006	-0.081	-0.082
-620.376	-142.763	0.367	-0.036
-619.361	-200.000	0.022	0.252
-618.346	-102.744	0.281	-0.067
-617.332	-200.000	-0.001	-0.455
-616.317	-65.745	0.055	-0.022
-615.303	157.751	0.038	0.053
-614.288	-200.000	-0.054	0.372
-613.273	134.940	0.185	-0.241
-612.259	293.345	0.021	-0.039
-611.244	132.961	-0.029	-0.037
-610.230	36.193	0.306	-0.271
-609.215	-65.333	-0.232	-0.093
-608.201	198.657	-0.118	-0.181
-607.186	-127.520	0.456	0.066
-606.171	115.829	0.168	0.206
-605.157	-200.000	0.015	-0.151
-604.142	-47.816	-0.242	0.117
-603.128	224.214	-0.098	0.158
-602.113	-57.574	-0.058	-0.025
-601.098	253.394	0.033	-0.056
-600.084	297.906	-0.173	-0.319
-599.069	-69.997	-0.335	0.128
-598.055	13.226	-0.318	0.247
-597.040	383.323	0.088	-0.181
-596.025	73.030	0.114	0.119
-595.011	-200.000	0.032	-0.195
-593.996	-86.595	-0.145	0.044
-592.982	220.919	0.071	0.114
-591.967	298.683	-0.060	-0.111
-590.952	800.000	0.095	0.302
-589.938	-200.000	0.014	0.264
-588.923	-8.976	-0.213	0.143
-587.909	6.790	-0.188	-0.140
-586.894	5.080	-0.069	-0.051
-585.879	-44.384	0.152	-0.076
-584.865	-200.000	0.006	0.073
-583.850	-142.393	-0.213	-0.021
-582.836	59.968	0.247	0.244
-581.821	-60.888	0.040	-0.017
-580.806	800.000	0.121	0.388
-579.792	28.381	-0.230	-0.195
-578.777	-114.921	0.391	0.074
-577.763	-143.120	-0.270	0.026
-576.748	13.621	-0.086	0.067
-575.733	194.951	0.143	-0.217
-574.719	-200.000	-0.012	0.067
-573.704	-82.865	-0.277	0.089
-572.690	286.318	0.151	0.273
-571.675	-99.359	0.241	0.061
-570.661	-7.314	0.098	0.066
-569.646	536.409	0.067	-0.158
-568.631	60.947	-0.099	0.098
-567.617	-186.762	-0.325	0.005
-566.602	-165.191	0.016	-0.001
-565.588	-62.431	-0.075	-0.031
-564.573	245.317	0.169	-0.284
-563.558	800.000	-0.036	0.157
-562.544	-200.000	-0.000	-0.194
-561.529	-200.000	-0.031	0.412
-560.515	-185.760	0.320	0.005
-559.500	46.316	0.142	-0.132
-558.485	-104.191	-0.323	-0.075
-557.471	94.172	0.104	0.118
-556.456	-85.061	0.251	-0.079
-555.442	-1.907	-0.306	0.215
-554.427	128.154	-0.126	0.160
-553.412	-57.079	0.143	-0.063
-552.398	-200.000	0.021	-0.214
-551.383	-153.709	-0.275	-0.019
-550.369	-108.998	-0.525	0.112
-549.354	-120.053	0.159	0.027
-548.339	222.337	-0.161	-0.260
-547.325	-200.000	-0.031	0.195
-546.310	800.000	0.041	-0.139
-545.296	-200.000	0.022	0.409
-544.281	33.208	0.166	0.144
-543.266	-148.426	-0.369	-0.030
-542.252	800.000	0.085	-0.294
-541.237	-37.608	-0.320	-0.170
-540.223	-20.186	-0.348	-0.214
-539.208	-103.829	0.316	0.074
-538.193	-45.456	0.128	0.064
-537.179	214.532	0.114	0.181
-536.164	-77.254	-0.144	0.050
-535.150	-85.970	0.108	-0.033
-534.135	-71.775	-0.169	-0.063
-533.121	800.000	0.067	0.289
-532.106	638.918	0.092	-0.234
-531.091	-200.000	-0.074	-0.401
-530.077	-131.988	0.368	-0.048
-529.062	-165.812	0.220	0.009
-528.048	-200.000	-0.002	0.126
-527.033	144.069	-0.096	0.128
-526.018	-53.725	-0.134	0.061
-525.004	-11.480	0.407	-0.267
-523.989	71.441	0.028	-0.029
-522.975	-129.320	0.138	-0.019
-521.960	-77.046	-0.085	0.029
-520.945	15.937	-0.148	-0.116
-519.931	-81.621	-0.196	0.064
-518.916	-200.000	-0.008	0.138
-517.902	-200.000	-0.010	0.139
-516.887	98.889	0.039	0.045
-515.872	-13.347	0.288	0.186
-514.858	95.638	0.097	0.110
-513.843	-166.006	-0.245	0.010
-512.829	264.999	0.063	-0.109
-511.814	49.026	0.186	-0.174
-510.799	-200.000	-0.097	-0.476
-509.785	-115.529	-0.234	0.044
-508.770	-200.000	-0.030	-0.192
-507.756	800.000	0.101	-0.358
-506.741	51.602	0.071	0.067
-505.726	-105.244	0.175	-0.040
-504.712	-135.020	-0.151	0.018
-503.697	-21.163	0.295	-0.180
-502.683	23.918	0.312	-0.256
-501.668	54.971	0.259	0.250
-500.653	-73.284	-0.150	0.055
-499.639	-76.329	0.254	-0.089
-498.624	-128.289	-0.362	-0.051
-497.610	800.000	0.091	0.322
-496.595	800.000	0.051	0.148
-495.581	-200.000	0.076	0.362
-494.566	408.122	-0.054	0.113
-493.551	167.396	-0.053	0.075
-492.537	-61.499	0.156	-0.066
-491.522	800.000	0.053	0.169
-490.508	800.000	-0.105	0.305
-489.493	-133.392	0.192	0.024
-488.478	196.611	-0.157	0.238
-487.464	-200.000	-0.014	-0.263
-486.449	800.000	0.066	-0.215
-485.435	-200.000	-0.010	0.319
-484.420	442.726	-0.040	0.087
-483.405	125.767	-0.290	0.365
-482.391	-15.437	-0.112	0.071
-481.376	416.695	0.050	0.106
-480.362	307.587	0.054	-0.101
-479.347	-99.932	0.204	0.051
-478.332	-87.117	-0.219	0.067
-477.318	-191.270	0.471	0.005
-476.303	-20.906	0.133	0.081
-475.289	32.776	-0.194	0.168
-474.274	-174.081	-0.396	0.012
-473.259	-200.000	-0.017	-0.186
-472.245	-85.501	0.092	0.029
-471.230	-97.175	0.456	-0.119
-470.216	159.787	0.051	0.071
-469.201	-200.000	-0.049	-0.291
-468.186	-16.265	-0.328	-0.208
-467.172	-85.945	-0.099	-0.031
-466.157	-106.921	-0.113	0.025
-465.143	562.259	0.033	-0.079
-464.128	-108.110	0.388	-0.084
-463.113	-126.431	0.097	-0.014
-462.099	449.420	0.039	-0.085
-461.084	800.000	0.119	0.399
-460.070	-69.776	-0.157	-0.060
-459.055	-107.742	-0.126	-0.027
-458.040	-120.448	0.066	0.011
-457.026	800.000	-0.055	-0.184
-456.011	-200.000	-0.441	0.001
-454.997	105.698	0.270	0.318
-453.982	41.415	-0.112	0.101
-452.968	410.746	0.076	0.161
-451.953	235.738	0.145	-0.238
-450.938	-200.000	-0.002	0.097
-449.924	-114.865	-0.226	-0.043
-448.909	-200.000	0.001	-0.372
-447.895	-200.000	-0.016	-0.178
-446.880	168.531	-0.032	-0.046
-445.865	800.000	0.096	0.303
-444.851	-200.000	-0.030	-0.199
-443.836	-21.428	0.269	0.163
-442.822	800.000	-0.058	0.185
-441.807	135.776	0.136	-0.176
-440.792	-79.515	-0.113	0.038
-439.778	221.522	0.097	0.154
-438.763	557.490	0.063	-0.151
-437.749	191.884	-0.068	0.101
-436.734	-13.927	-0.322	0.207
-435.719	92.151	0.177	-0.199
-434.705	113.657	-0.220	0.266
-433.690	-82.428	-0.020	0.006
-432.676	103.904	-0.320	-0.374
-431.661	800.000	0.029	0.101
-430.646	-80.674	0.102	-0.034
-429.632	148.416	0.121	0.162
-428.617	70.723	-0.037	-0.038
-427.603	-108.485	0.033	-0.007
-426.588	-108.901	-0.131	-0.028
-425.573	800.000	0.093	0.371
-424.559	645.884	0.115	-0.291
-423.544	65.743	-0.254	0.256
-422.530	-62.010	-0.114	-0.047
-421.515	177.566	-0.128	-0.186
-420.500	249.918	-0.099	0.166
-419.486	147.243	0.130	-0.174
-418.471	578.385	0.122	0.297
-417.457	-200.000	0.038	0.206
-416.442	-167.732	-0.258	0.010
-415.428	69.906	0.183	0.188
-414.413	-169.308	0.070	0.003
-413.398	163.612	0.067	0.094
-412.384	-200.000	0.023	0.227
-411.369	325.326	0.132	-0.251
-410.355	-200.000	0.005	-0.253
-409.340	-136.194	0.270	-0.031
-408.325	800.000	0.012	0.041
-407.311	473.432	0.149	0.334
-406.296	3.431	-0.140	-0.101
-405.282	126.636	-0.084	-0.106
-404.267	-60.173	-0.282	0.120
-403.252	800.000	-0.029	0.094
-402.238	31.868	0.319	-0.273
-401.223	165.805	0.143	-0.201
-400.209	194.095	-0.014	0.021
-399.194	459.858	0.068	0.151
-398.179	-200.000	-0.005	0.121
-397.165	11.672	-0.394	0.301
-396.150	24.702	-0.169	0.139
-395.136	-200.000	-0.011	0.098
-394.121	-49.899	0.217	0.103
-393.106	800.000	0.048	-0.170
-392.092	-161.349	-0.353	0.018
-391.077	91.116	0.174	-0.194
-390.063	-22.733	0.329	-0.198
-389.048	18.560	0.376	-0.299
-388.033	128.889	0.113	0.143
-387.019	-200.000	-0.252	0.001
-386.004	11.707	-0.030	-0.023
-384.990	524.995	-0.062	0.146
-383.975	-200.000	-0.021	0.109
-382.960	800.000	0.133	0.386
-381.946	-71.878	0.192	0.071
-380.931	800.000	0.039	-0.166
-379.917	-55.117	0.272	0.121
-378.902	-55.748	-0.099	0.044
-377.888	-19.237	-0.268	0.165
-376.873	-31.418	0.098	-0.055
-375.858	60.451	0.083	0.082
-374.844	800.000	-0.074	-0.205
-373.829	708.341	-0.046	-0.120
-372.815	-3.163	-0.303	-0.210
-371.800	-138.559	0.167	-0.018
-370.785	104.873	-0.222	-0.260
-369.771	-200.000	-0.028	-0.129
-368.756	430.470	0.241	-0.518
-367.742	-21.853	0.151	-0.091
-366.727	81.284	0.059	0.063
-365.712	107.851	-0.097	0.115
-364.698	112.440	-0.086	0.103
-363.683	-0.258	0.255	0.180
-362.669	-200.000	-0.020	-0.298
-361.654	-126.193	0.194	-0.029
-360.639	15.119	0.266	-0.207
-359.625	800.000	-0.043	0.180
-358.610	-126.093	-0.154	0.023
-357.596	50.535	0.041	-0.039
-356.581	-105.245	0.342	0.078
-355.566	800.000	0.074	-0.269
-354.552	132.735	-0.261	-0.334
-353.537	-123.088	0.247	0.039
-352.523	800.000	0.041	-0.154
-351.508	-132.533	-0.142	-0.018
-350.493	-1.197	0.029	0.020
-349.479	10.376	-0.023	-0.017
-348.464	800.000	-0.037	0.129
-347.450	-200.000	-0.026	-0.206
-346.435	428.924	0.114	0.244
-345.420	-78.209	-0.084	0.029
-344.406	-105.320	0.090	0.020
-343.391	-5.395	0.084	-0.057
-342.377	-200.000	0.020	0.153
-341.362	184.775	0.114	0.167
-340.348	246.225	-0.163	-0.273
-339.333	14.596	-0.339	-0.262
-338.318	406.499	0.010	-0.021
-337.304	-200.000	-0.008	-0.181
-336.289	-34.946	-0.285	0.154
-335.275	474.586	-0.080	-0.179
-334.260	232.361	0.056	-0.091
-333.245	94.505	-0.094	0.106
-332.231	-114.706	-0.197	-0.037
-331.216	-200.000	0.069	-0.403
-330.202	-66.509	-0.107	0.042
-329.187	-54.281	-0.013	-0.006
-328.172	-15.970	0.261	-0.165
-327.158	-200.000	-0.055	-0.482
-326.143	43.957	-0.101	0.091
-325.129	800.000	0.024	0.072
-324.114	148.396	0.064	-0.085
-323.099	-200.000	-0.010	-0.292
-322.085	515.574	-0.044	0.102
-321.070	-0.063	0.155	-0.109
-320.056	800.000	-0.085	0.247
-319.041	69.549	-0.201	-0.205
-318.026	791.208	-0.230	-0.625
-317.012	3.838	0.227	0.164
-315.997	-80.160	-0.096	0.032
-314.983	-80.509	-0.132	0.044
-313.968	-58.284	0.203	0.088
-312.953	-51.907	-0.251	-0.116
-311.939	-141.799	0.137	-0.014
-310.924	-35.049	-0.428	0.231
-309.910	-156.557	0.192	0.012
-308.895	-73.902	0.506	-0.182
-307.880	-48.217	-0.126	0.060
-306.866	-200.000	-0.001	0.112
-305.851	22.906	0.278	0.226
-304.837	219.098	0.097	0.154
-303.822	800.000	0.098	-0.325
-302.807	-165.366	0.422	0.018
-301.793	800.000	0.117	0.324
-300.778	-8.221	-0.188	0.126
-299.764	642.493	0.151	-0.382
-298.749	800.000	0.057	-0.198
-297.735	-126.002	-0.123	0.018
-296.720	-200.000	0.055	-0.301
-295.705	24.624	0.053	-0.044
-294.691	44.983	-0.246	-0.224
-293.676	-129.142	-0.278	0.038
-292.662	-74.377	0.147	0.053
-291.647	-156.497	-0.255	0.016
-290.632	172.966	-0.181	-0.258
-289.618	-200.000	-0.011	-0.106
-288.603	99.445	0.189	-0.216
-287.589	800.000	-0.133	-0.381
-286.574	2.930	0.320	0.230
-285.559	-195.120	0.251	0.002
-284.545	183.758	-0.016	0.024
-283.530	82.035	-0.215	-0.230
-282.516	-200.000	0.024	0.235
-281.501	-86.500	-0.105	0.032
-280.486	800.000	-0.024	0.099
-279.472	-100.102	0.125	0.031
-278.457	-59.167	-0.278	-0.119
-277.443	-142.971	-0.395	0.038
-276.428	52.495	-0.132	-0.125
-275.413	-200.000	0.012	-0.109
-274.399	-88.311	-0.468	-0.138
-273.384	-134.172	0.192	0.023
-272.370	307.914	0.118	0.218
-271.355	-200.000	0.013	0.072
-270.340	-12.133	0.083	-0.054
-269.326	-62.612	0.472	0.194
-268.311	163.797	0.089	0.124
-267.297	-200.000	-0.015	-0.136
-266.282	409.886	-0.083	0.173
-265.267	-200.000	-0.022	0.201
-264.253	39.566	0.156	0.138
-263.238	-200.000	-0.003	0.383
-262.224	-26.789	0.475	-0.275
-261.209	800.000	-0.015	-0.049
-260.195	-200.000	0.053	0.323
-259.180	-200.000	0.008	-0.167
-258.165	717.000	0.064	-0.168
-257.151	36.158	0.069	0.060
-256.136	159.178	-0.174	0.238
-255.122	184.816	0.089	-0.130
-254.107	-200.000	-0.021	0.218
-253.092	-200.000	-0.014	0.093
-252.078	631.083	0.180	0.450
-251.063	-200.000	-0.036	-0.525
-250.049	800.000	-0.105	0.407
-249.034	-200.000	0.009	0.040
-248.019	-32.072	-0.091	-0.050
-247.005	729.119	-0.232	-0.612
-245.990	-22.678	0.047	0.028
-244.976	23.073	0.197	-0.160
-243.961	-15.084	-0.315	-0.199
-242.946	56.367	-0.293	-0.281
-241.932	800.000	-0.049	-0.153
-240.917	800.000	0.088	0.298
-239.903	-79.360	-0.286	-0.096
-238.888	212.333	0.127	0.197
-237.873	73.450	-0.147	-0.152
-236.859	25.195	0.217	0.178
-235.844	-45.676	0.194	0.095
-234.830	-134.750	0.142	-0.017
-233.815	-200.000	-0.016	0.149
-232.800	800.000	-0.131	0.565
-231.786	-141.664	0.350	0.035
-230.771	110.073	-0.051	0.061
-229.757	507.077	-0.082	0.188
-228.742	-163.732	0.158	-0.007
-227.727	22.036	-0.222	0.179
-226.713	84.397	0.209	-0.226
-225.698	-80.016	-0.099	-0.033
-224.684	-97.351	-0.132	-0.034
-223.669	-38.688	0.268	0.140
-222.655	-100.895	-0.149	-0.036
-221.640	-93.447	0.067	-0.018
-220.625	310.105	0.099	0.183
-219.611	-53.639	0.161	0.073
-218.596	180.153	0.058	-0.084
-217.582	15.442	-0.182	-0.141
-216.567	7.583	0.307	0.227
-215.552	-200.000	0.031	-0.290
-214.538	-47.037	0.256	-0.124
-213.523	190.622	-0.122	0.180
-212.509	-196.001	0.228	0.002
-211.494	-147.524	0.340	-0.028
-210.479	-35.766	-0.309	0.165
-209.465	-145.788	0.221	-0.019
-208.450	-200.000	-0.085	-0.372
-207.436	-27.325	-0.085	-0.049
-206.421	-200.000	0.018	0.324
-205.406	537.057	0.045	0.105
-204.392	39.349	-0.339	-0.299
-203.377	13.140	-0.177	0.135
-202.363	129.786	-0.174	-0.219
-201.348	152.476	-0.127	-0.171
-200.333	-134.704	0.204	0.024
-199.319	12.912	0.116	0.088
-198.304	12.939	0.106	0.081
-197.290	800.000	0.009	-0.028
-196.275	-162.305	0.241	0.012
-195.260	-200.000	-0.063	0.467
-194.246	-162.048	-0.234	-0.012
-193.231	35.060	-0.174	-0.150
-192.217	44.547	0.045	0.041
-191.202	18.402	-0.091	-0.072
-190.187	83.344	0.082	0.088
-189.173	-200.000	0.004	0.080
-188.158	-195.258	0.275	0.002
-187.144	321.649	-0.196	-0.367
-186.129	-51.600	0.116	0.053
-185.114	-74.301	0.146	0.052
-184.100	-14.263	-0.305	0.194
-183.085	-64.086	0.130	-0.052
-182.071	551.129	-0.064	0.152
-181.056	198.515	0.199	-0.300
-180.042	-0.985	0.220	0.153
-179.027	-200.000	-0.064	-0.359
-178.012	96.122	0.267	-0.300
-176.998	-101.941	-0.095	0.023
-175.983	0.398	0.110	0.077
-174.969	-23.226	-0.217	0.128
-173.954	674.394	-0.106	0.272
-172.939	-33.676	0.355	0.193
-171.925	-165.290	0.306	-0.013
-170.910	-29.906	-0.290	-0.163
-169.896	32.438	-0.100	-0.085
-168.881	800.000	0.018	0.073
-167.866	-94.550	-0.238	-0.064
-166.852	-60.353	0.171	-0.072
-165.837	-9.651	-0.326	0.214
-164.823	-62.481	-0.442	-0.181
-163.808	-200.000	0.060	-0.287
-162.793	27.403	0.093	-0.077
-161.779	-68.385	0.181	-0.069
-160.764	-112.098	0.049	0.010
-159.750	-72.476	0.489	0.178
-158.735	-34.196	0.127	0.069
-157.720	590.141	0.045	-0.108
-156.706	-4.767	0.255	-0.173
-155.691	64.865	-0.244	0.242
-154.677	-200.000	-0.559	-0.001
-153.662	-5.633	-0.278	-0.188
-152.647	103.481	-0.327	0.378
-151.633	176.344	0.085	-0.122
-150.618	82.455	0.047	0.050
-149.604	118.619	-0.077	0.094
-148.589	166.307	-0.172	-0.240
-147.574	-87.820	-0.217	-0.064
-146.560	-200.000	0.008	0.316
-145.545	28.722	-0.205	-0.170
-144.531	-80.588	0.218	-0.071
-143.516	-28.999	0.080	-0.045
-142.502	494.662	0.037	0.084
-141.487	-200.000	-0.025	0.127
-140.472	81.871	0.195	-0.208
-139.458	0.387	-0.483	0.339
-138.443	-144.110	-0.014	-0.001
-137.429	-57.774	0.277	-0.119
-136.414	12.485	-0.215	0.163
-135.399	-65.243	0.301	-0.119
-134.385	655.556	-0.070	-0.177
-133.370	-200.000	-0.011	-0.050
-132.356	268.679	-0.222	-0.382
-131.341	-137.340	0.040	0.004
-130.326	-41.488	0.168	-0.085
-129.312	-123.157	-0.194	-0.031
-128.297	59.420	0.151	0.147
-127.283	800.000	-0.084	-0.251
-126.268	161.687	-0.077	0.107
-125.253	-200.000	-0.019	-0.109
-124.239	-48.700	-0.205	0.097
-123.224	279.161	0.149	0.261
-122.210	-13.079	-0.064	0.041
-121.195	800.000	-0.031	0.093
-120.180	6.423	-0.153	0.112
-119.166	-23.391	-0.285	0.169
-118.151	-105.590	0.141	-0.031
-117.137	-24.917	-0.293	-0.171
-116.122	-200.000	-0.036	0.199
-115.107	-64.607	-0.108	-0.043
-114.093	-109.846	0.212	0.044
-113.078	-160.440	0.249	-0.013
-112.064	-200.000	-0.053	0.261
-111.049	28.353	0.126	0.104
-110.034	-82.808	-0.280	-0.089
-109.020	120.584	-0.104	-0.128
-108.005	-200.000	-0.011	0.320
-106.991	31.038	-0.171	-0.144
-105.976	-124.089	-0.335	0.052
-104.962	35.790	-0.161	-0.139
-103.947	-160.644	-0.260	-0.014
-102.932	-200.000	0.023	-0.379
-101.918	18.021	0.253	0.198
-100.903	-200.000	-0.006	-0.343
-99.889	-67.925	-0.104	-0.040
-98.874	-99.733	-0.390	-0.096
-97.859	800.000	0.057	-0.156
-96.845	-108.286	-0.326	0.069
-95.830	18.384	-0.049	-0.038
-94.816	421.139	-0.070	0.147
-93.801	-77.842	-0.186	0.063
-92.786	651.278	-0.084	-0.212
-91.772	58.685	0.348	-0.335
-90.757	-66.348	-0.111	-0.043
-89.743	-110.394	0.103	0.021
-88.728	714.028	-0.065	0.169
-87.713	549.767	-0.074	0.174
-86.699	85.989	-0.190	0.205
-85.684	13.974	-0.207	0.158
-84.670	-51.081	0.111	-0.051
-83.655	-117.732	-0.274	0.048
-82.640	-200.000	0.007	-0.160
-81.626	-136.953	0.074	-0.008
-80.611	24.179	-0.146	-0.119
-79.597	322.432	0.110	-0.206
-78.582	11.807	0.007	0.006
-77.567	-16.624	-0.331	-0.206
-76.553	19.786	0.308	0.244
-75.538	-200.000	-0.013	-0.078
-74.524	-81.117	-0.135	-0.044
-73.509	37.019	-0.063	-0.054
-72.494	-120.614	-0.304	0.050
-71.480	145.846	-0.068	0.090
-70.465	-87.913	-0.066	-0.020
-69.451	-200.000	0.085	0.610
-68.436	82.130	0.116	0.124
-67.422	800.000	-0.055	0.177
-66.407	41.564	-0.238	-0.211
-65.392	-3.902	0.133	-0.091
-64.378	-200.000	0.027	-0.128
-63.363	553.666	-0.146	-0.344
-62.349	31.892	0.177	0.150
-61.334	51.422	-0.866	-0.807
-60.319	184.975	0.374	0.544
-59.305	-200.000	-0.168	-0.942
-58.290	351.419	0.667	1.296
-57.276	-200.000	0.371	1.937
-56.261	-200.000	110.619	596.731
-55.246	417.119	1528.642	3200.447
-54.232	141.349	2715.533	3523.950
-53.217	101.490	2189.601	2501.536
-52.203	39.231	1629.144	1429.349
-51.188	31.292	1370.353	1153.461
-50.173	28.370	1331.331	1103.011
-49.159	53.729	1386.058	1304.687
-48.144	53.412	1400.668	1316.447
-47.130	31.586	1356.641	1143.535
-46.115	28.260	1338.619	1108.209
-45.100	28.061	1333.523	1102.745
-44.086	27.937	1331.545	1100.320
-43.071	27.870	1329.242	1097.967
-42.057	27.763	1327.109	1095.521
-41.042	27.907	1324.873	1094.494
-40.027	27.970	1323.379	1093.591
-39.013	28.010	1321.383	1092.140
-37.998	27.874	1320.203	1090.307
-36.984	27.993	1317.860	1089.041
-35.969	28.030	1316.382	1087.996
-34.954	28.005	1314.642	1086.363
-33.940	27.976	1313.541	1085.242
-32.925	28.053	1311.923	1084.317
-31.911	28.039	1310.791	1083.254
-30.896	28.118	1309.553	1082.656
-29.881	28.075	1307.700	1080.827
-28.867	28.061	1306.573	1079.773
-27.852	28.140	1304.852	1078.773
-26.838	28.111	1303.502	1077.443
-25.823	27.989	1302.535	1075.885
-24.809	28.150	1300.911	1075.444
-23.794	28.037	1299.827	1073.844
-22.779	28.105	1298.145	1072.810
-21.765	28.213	1296.371	1071.933
-20.750	28.145	1295.048	1070.399
-19.736	28.007	1294.343	1068.967
-18.721	27.955	1293.034	1067.538
-17.706	27.944	1291.995	1066.573
-16.692	27.982	1291.139	1066.049
-15.677	27.940	1289.939	1064.770
-14.663	27.842	1288.759	1063.181
-13.648	28.034	1286.644	1062.511
-12.633	27.886	1286.572	1061.552
-11.619	27.947	1285.578	1061.039
-10.604	28.005	1285.007	1060.863
-9.590	27.858	1284.115	1059.232
-8.575	27.947	1282.809	1058.630
-7.560	27.873	1282.295	1057.738
-6.546	27.963	1281.218	1057.328
-5.531	27.927	1280.536	1056.512
-4.517	27.978	1279.376	1055.807
-3.502	27.922	1278.882	1055.037
-2.487	27.973	1277.324	1054.005
-1.473	27.951	1273.509	1050.687
-0.458	26.838	1259.076	1032.406
0.556	22.302	1242.505	997.043
1.571	18.884	1249.230	982.838
2.586	18.105	1264.051	989.903
3.600	17.710	1252.404	978.427
4.615	13.023	1177.824	894.727
5.629	4.634	1101.011	793.637
6.644	0.710	1081.180	759.583
7.659	0.328	1079.128	756.155
8.673	0.174	1078.390	754.802
9.688	0.169	1077.414	754.023
10.702	0.630	1074.668	754.340
11.717	5.527	1081.146	783.378
12.731	13.294	1091.677	830.063
13.746	16.714	1095.623	850.191
14.761	16.802	1095.417	850.394
15.775	16.175	1093.672	845.821
16.790	15.132	1091.495	838.842
17.804	14.565	1089.704	834.557
18.819	14.129	1089.122	831.859
19.834	13.826	1087.769	829.235
20.848	13.604	1086.912	827.402
21.863	13.405	1085.747	825.449
22.877	13.274	1085.022	824.171
23.892	13.257	1084.273	823.445
24.907	13.143	1083.817	822.458
25.921	13.338	1082.556	822.400
26.936	13.210	1082.212	821.430
27.950	13.292	1081.229	821.016
28.965	13.349	1080.044	820.325
29.980	13.491	1078.272	819.612
30.994	13.465	1077.478	818.806
32.009	13.537	1076.335	818.222
33.023	13.490	1075.796	817.506
34.038	13.339	1074.578	815.764
35.053	13.303	1073.720	814.864
36.067	13.363	1072.760	814.356
37.082	13.440	1072.101	814.164
38.096	13.401	1071.254	813.257
39.111	13.463	1070.898	813.218
40.126	13.259	1069.749	811.277
41.140	13.372	1068.173	810.561
42.155	13.233	1067.245	809.104
43.169	13.190	1066.155	807.996
44.184	13.314	1064.793	807.499
45.199	13.288	1063.734	806.495
46.213	13.221	1062.549	805.203
47.228	13.317	1061.835	805.056
48.242	13.390	1060.762	804.526
49.257	13.343	1059.603	803.348
50.271	13.393	1058.805	802.912
51.286	13.395	1058.199	802.392
52.301	13.294	1056.934	800.871
53.315	13.386	1055.506	800.166
54.330	13.257	1055.213	799.249
55.344	13.218	1054.225	798.242
56.359	13.419	1052.893	798.131
57.374	13.292	1052.325	797.019
58.388	13.194	1051.372	795.753
59.403	13.293	1050.819	795.741
60.417	13.302	1049.765	794.915
61.432	13.174	1049.176	793.788
62.447	13.237	1047.859	793.022
63.461	13.066	1047.491	791.852
64.476	13.144	1046.415	791.340
65.490	13.233	1045.668	791.133
66.505	13.203	1044.819	790.280
67.520	13.199	1043.785	789.406
68.534	13.175	1043.373	788.910
69.549	13.129	1042.559	788.008
70.563	13.262	1041.570	787.822
71.578	13.186	1040.999	786.961
72.593	12.996	1040.554	785.648
73.607	13.130	1039.446	785.381
74.622	13.151	1038.976	785.055
75.636	13.104	1038.281	784.239
76.651	13.230	1036.896	783.721
77.666	13.212	1036.602	783.341
78.680	13.096	1036.216	782.429
79.695	13.077	1035.872	782.011
80.709	13.246	1034.866	781.984
81.724	13.271	1034.383	781.669
82.739	13.271	1033.327	780.800
83.753	13.385	1032.469	780.619
84.768	13.404	1031.778	780.121
85.782	13.582	1030.822	780.165
86.797	13.342	1030.067	778.394
87.812	13.273	1029.306	777.428
88.826	13.419	1028.273	777.265
89.841	13.343	1027.052	775.916
90.855	13.321	1026.050	774.988
91.870	13.341	1025.416	774.533
92.884	13.345	1024.348	773.677
93.899	13.562	1023.314	773.841
94.914	13.514	1022.781	773.147
95.928	13.453	1022.371	772.482
96.943	13.382	1021.558	771.468
97.957	13.329	1020.637	770.456
98.972	13.509	1019.611	770.453
99.987	13.463	1018.614	769.418
101.001	13.426	1017.518	768.350
102.016	13.440	1016.583	767.642
103.030	13.450	1015.599	766.877
104.045	13.459	1015.106	766.480
105.060	13.452	1014.245	765.729
106.074	13.254	1013.551	764.219
107.089	13.383	1011.856	763.468
108.103	13.349	1011.158	762.718
109.118	13.267	1010.479	761.761
110.133	13.257	1009.457	760.876
111.147	13.322	1008.428	760.332
112.162	13.292	1007.510	759.438
113.176	13.372	1006.944	759.308
114.191	13.374	1006.282	758.752
115.206	13.263	1005.703	757.739
116.220	13.326	1004.679	757.189
117.235	13.349	1003.458	756.306
118.249	13.315	1002.887	755.654
119.264	13.345	1001.914	754.995
120.279	13.429	1000.879	754.529
121.293	13.259	1000.421	753.343
122.308	13.295	999.585	752.811
123.322	13.437	998.395	752.492
124.337	13.304	997.373	751.054
125.352	13.264	996.456	750.115
126.366	13.414	994.893	749.551
127.381	13.311	994.068	748.395
128.395	13.410	992.971	747.953
129.410	13.351	992.374	747.169
130.424	13.352	991.645	746.558
131.439	13.430	990.882	746.268
132.454	13.473	989.881	745.644
133.468	13.544	988.668	744.982
134.483	13.433	988.063	743.962
135.497	13.499	987.079	743.451
136.512	13.374	986.499	742.387
137.527	13.449	985.559	741.951
138.541	13.482	984.790	741.456
139.556	13.381	984.446	740.679
140.570	13.459	983.822	740.494
141.585	13.572	982.514	739.947
142.600	13.577	981.386	739.054
143.614	13.557	981.081	738.669
144.629	13.535	980.288	737.907
145.643	13.547	979.327	737.175
146.658	13.546	977.881	736.016
147.673	13.510	977.360	735.401
148.687	13.545	976.538	734.873
149.702	13.419	975.890	733.759
150.716	13.424	974.974	733.027
151.731	13.479	973.972	732.453
152.746	13.616	973.164	732.387
153.760	13.556	972.762	731.752
154.775	13.667	971.797	731.455
155.789	13.604	971.657	731.004
156.804	13.681	970.462	730.381
157.819	13.653	970.192	729.987
158.833	13.687	969.420	729.492
159.848	13.713	968.690	728.994
160.862	13.754	967.107	727.917
161.877	13.596	966.462	726.676
162.892	13.669	965.358	726.099
163.906	13.606	964.554	725.156
164.921	13.565	963.646	724.232
165.935	13.682	962.840	724.070
166.950	13.688	961.939	723.354
167.964	13.658	961.274	722.663
168.979	13.640	960.385	721.848
169.994	13.623	959.438	720.998
171.008	13.753	958.401	720.725
172.023	13.699	957.565	719.797
173.037	13.836	957.041	719.933
174.052	13.854	956.112	719.249
175.067	13.743	955.737	718.422
176.081	13.757	955.194	718.011
177.096	13.731	954.306	717.166
178.110	13.873	953.461	717.081
179.125	13.817	952.875	716.337
180.140	13.816	952.831	716.234
181.154	13.874	952.244	715.981
182.169	13.921	951.435	715.513
183.183	14.011	951.028	715.528
184.198	14.010	950.138	714.793
185.213	14.077	949.189	714.303
186.227	14.017	948.401	713.388
187.242	13.957	948.265	712.967
188.256	14.027	947.507	712.633
189.271	14.058	946.536	711.975
190.286	13.803	946.027	710.436
191.300	13.843	945.368	710.049
192.315	13.846	944.797	709.571
193.329	13.699	944.361	708.551
194.344	13.882	943.547	708.658
195.359	13.820	942.945	707.881
196.373	13.973	942.362	708.032
197.388	13.944	941.963	707.547
198.402	14.156	941.286	707.875
199.417	14.133	940.438	707.077
200.432	14.239	940.011	707.147
201.446	14.226	939.451	706.607
202.461	14.205	939.120	706.205
203.475	14.323	938.339	706.057
204.490	14.129	937.738	704.719
205.504	14.201	936.738	704.212
206.519	14.309	935.949	704.011
207.534	14.260	935.266	703.231
208.548	14.246	934.446	702.491
209.563	14.171	933.921	701.716
210.577	14.242	933.128	701.358
211.592	14.340	932.523	701.256
212.607	14.340	931.558	700.468
213.621	14.326	930.862	699.825
214.636	14.312	930.200	699.205
215.650	14.237	929.955	698.643
216.665	14.337	928.897	698.206
217.680	14.398	928.094	697.795
218.694	14.487	927.482	697.647
219.709	14.486	926.975	697.198
220.723	14.457	925.989	696.277
221.738	14.467	925.430	695.834
222.753	14.515	924.579	695.333
223.767	14.415	924.463	694.767
224.782	14.558	923.159	694.323
225.796	14.556	923.015	694.143
226.811	14.512	922.383	693.425
227.826	14.494	921.933	692.950
228.840	14.581	920.832	692.421
229.855	14.454	920.174	691.339
230.869	14.618	919.180	691.211
231.884	14.613	918.902	690.922
232.899	14.488	918.186	689.802
233.913	14.596	916.999	689.298
234.928	14.470	916.637	688.444
235.942	14.599	916.017	688.448
236.957	14.509	915.898	687.926
237.972	14.586	914.891	687.427
238.986	14.538	914.302	686.727
240.001	14.485	913.676	685.979
241.015	14.564	912.847	685.619
242.030	14.704	912.070	685.550
243.045	14.537	911.713	684.534
244.059	14.710	911.127	684.745
245.074	14.615	910.483	683.812
246.088	14.712	909.725	683.578
247.103	14.665	909.300	683.007
248.117	14.766	908.858	683.025
249.132	14.796	908.170	682.570
250.147	14.865	907.029	681.936
251.161	14.860	906.772	681.661
252.176	14.954	906.132	681.504
253.190	14.869	905.508	680.626
254.205	15.107	904.467	680.751
255.220	15.159	903.846	680.436
256.234	15.035	903.461	679.582
257.249	14.915	902.487	678.303
258.263	15.058	901.452	678.043
259.278	15.153	900.970	678.005
260.293	15.077	900.787	677.499
261.307	15.111	900.040	677.017
262.322	15.279	899.317	677.092
263.336	15.122	898.959	676.127
264.351	15.183	898.038	675.620
265.366	15.187	897.468	675.149
266.380	15.195	896.763	674.590
267.395	15.265	895.895	674.162
268.409	15.285	895.262	673.704
269.424	15.158	894.399	672.487
270.439	15.309	893.609	672.438
271.453	15.169	893.238	671.536
272.468	15.188	892.543	671.031
273.482	15.227	892.438	671.047
274.497	15.226	891.641	670.386
275.512	15.250	891.084	670.006
276.526	15.336	890.087	669.540
277.541	15.290	890.176	669.362
278.555	15.323	889.166	668.675
279.570	15.452	888.369	668.532
280.585	15.439	887.848	668.029
281.599	15.403	887.001	667.188
282.614	15.348	886.510	666.542
283.628	15.507	885.729	666.529
284.643	15.341	885.660	665.758
285.657	15.376	884.539	664.994
286.672	15.462	883.468	664.470
287.687	15.509	883.343	664.505
288.701	15.482	882.640	663.809
289.716	15.583	881.907	663.598
290.730	15.615	881.690	663.503
291.745	15.529	880.830	662.456
292.760	15.582	880.188	662.124
293.774	15.717	879.304	661.934
294.789	15.717	879.024	661.662
295.803	15.566	878.341	660.497
296.818	15.621	877.478	660.004
297.833	15.680	876.788	659.660
298.847	15.655	876.168	659.039
299.862	15.640	875.869	658.695
300.876	15.688	875.337	658.425
301.891	15.731	874.610	657.989
302.906	15.811	873.954	657.750
303.920	15.942	873.209	657.642
304.935	15.843	872.978	657.023
305.949	15.931	871.936	656.523
306.964	15.772	872.165	656.020
307.979	15.981	870.905	655.825
308.993	15.793	870.520	654.744
310.008	15.890	869.881	654.584
311.022	15.974	869.464	654.540
312.037	15.835	868.628	653.314
313.052	15.874	868.225	653.105
314.066	15.859	867.694	652.589
315.081	15.815	867.210	651.996
316.095	15.847	866.437	651.481
317.110	15.854	865.892	651.041
318.125	16.014	865.057	650.974
319.139	15.970	864.893	650.622
320.154	15.965	864.143	649.981
321.168	15.936	863.571	649.381
322.183	15.978	863.185	649.195
323.197	16.009	862.786	648.958
324.212	15.995	861.897	648.177
325.227	15.976	861.771	647.952
326.241	15.967	861.195	647.429
327.256	15.937	860.401	646.657
328.270	16.097	859.577	646.595
329.285	16.138	858.963	646.232
330.300	16.201	858.421	646.012
331.314	15.982	858.365	645.072
332.329	16.184	857.366	645.037
333.343	16.145	857.176	644.688
334.358	16.150	856.918	644.455
335.373	16.206	856.317	644.160
336.387	16.207	855.932	643.816
337.402	16.276	855.709	643.854
338.416	16.138	855.619	643.206
339.431	16.317	855.025	643.382
340.446	16.314	854.784	643.134
341.460	16.236	854.551	642.602
342.475	16.326	853.712	642.260
343.489	16.246	853.771	641.941
344.504	16.402	852.673	641.652
345.519	16.594	852.233	641.993
346.533	16.478	851.340	640.824
347.548	16.428	850.789	640.162
348.562	16.415	850.517	639.850
349.577	16.365	850.075	639.276
350.592	16.429	849.221	638.819
351.606	16.505	848.735	638.682
352.621	16.430	847.820	637.655
353.635	16.386	847.477	637.176
354.650	16.553	846.623	637.105
355.665	16.403	846.277	636.223
356.679	16.429	845.626	635.775
357.694	16.592	844.749	635.672
358.708	16.689	843.875	635.321
359.723	16.471	844.244	634.725
360.738	16.444	843.313	633.868
361.752	16.652	842.438	633.932
362.767	16.637	841.901	633.418
363.781	16.607	841.522	632.964
364.796	16.715	841.171	633.046
365.810	16.818	840.360	632.767
366.825	16.662	840.390	632.151
367.840	16.675	839.857	631.743
368.854	16.708	839.373	631.445
369.869	16.833	838.687	631.339
370.883	16.933	838.240	631.317
371.898	16.641	838.134	630.097
372.913	16.913	837.303	630.427
373.927	16.833	837.177	629.979
374.942	16.960	836.355	629.776
375.956	16.931	836.303	629.573
376.971	16.999	835.533	629.190
377.986	16.834	835.425	628.441
379.000	17.190	834.289	628.848
380.015	16.947	833.916	627.612
381.029	17.103	833.781	628.035
382.044	16.971	833.169	627.027
383.059	17.113	832.212	626.777
384.073	17.020	832.091	626.286
385.088	17.093	831.309	625.912
386.102	17.041	830.425	625.000
387.117	17.013	830.289	624.737
388.132	16.977	829.914	624.269
389.146	17.138	828.990	624.110
390.161	17.250	828.410	624.032
391.175	17.192	827.853	623.342
392.190	17.109	827.537	622.746
393.205	17.202	827.005	622.631
394.219	17.168	826.868	622.349
395.234	17.056	826.566	621.654
396.248	17.137	825.595	621.165
397.263	17.050	825.386	620.638
398.278	17.219	824.842	620.789
399.292	17.086	824.751	620.179
400.307	17.122	824.087	619.757
401.321	17.171	823.770	619.644
402.336	17.262	822.974	619.320
403.350	17.265	822.601	618.996
404.365	17.220	822.176	618.458
405.380	17.293	821.840	618.417
406.394	17.469	821.025	618.385
407.409	17.516	820.282	617.944
408.423	17.472	820.679	618.027
409.438	17.428	820.289	617.519
410.453	17.455	819.808	617.203
411.467	17.478	819.297	616.845
412.482	17.677	818.679	617.044
413.496	17.633	818.194	616.468
414.511	17.621	817.999	616.222
415.526	17.502	817.462	615.334
416.540	17.657	816.995	615.486
417.555	17.767	815.915	615.015
418.569	17.560	816.037	614.307
419.584	17.530	815.973	614.094
420.599	17.672	815.345	614.080
421.613	110.540	1297.033	1476.221
422.628	95.562	1367.207	1476.319
