DTS Sentinel unit serial number:	SN413079Multiplexer serial number:	ORYXHardware model number:	OX4-SRSoftware version number:	ORYX F/W v4.00 Oryx Data Collector v3.7.2.0data status	okinstallation	princeton_trtdifferential loss correction	single-endedforward channel	channel 1reverse channel	N/Adate	2019/09/15time	01:06:35forward acquisition time	60.00reverse acquisition time	0.00gamma	496.2192k internal	0.2321k external	0.2321temperature offset calibration	0.9989default loss term (dB/km)	0.3790temperature slope calibration	1.0000multiplexer offset coefficient	1.0000multiplexer slope coefficient	1.0000fibre end	0.00T internal ref (°C)	32.00T ext. ref 1 (°C)	4.53T ext. ref 2 (°C)	26.83length (m)	temperature (°C)	Stokes	anti-Stokes-747.200	40.278	0.097	0.088
-746.185	-66.503	-0.028	0.011
-745.171	177.140	0.030	-0.043
-744.156	142.213	0.061	0.082
-743.142	-200.000	-0.015	-0.262
-742.127	775.090	0.081	-0.223
-741.112	-88.277	-0.292	-0.088
-740.098	800.000	0.101	0.302
-739.083	-128.797	0.057	-0.008
-738.069	-126.699	-0.136	0.020
-737.054	800.000	0.012	-0.045
-736.039	-29.548	-0.358	-0.207
-735.025	-62.722	0.191	0.080
-734.010	80.183	0.088	0.096
-732.996	472.205	-0.086	-0.195
-731.981	-55.793	-0.262	-0.118
-730.966	-71.298	-0.358	0.136
-729.952	800.000	-0.030	0.087
-728.937	800.000	-0.066	0.193
-727.923	204.874	0.091	-0.143
-726.908	-23.758	-0.299	-0.181
-725.894	11.478	-0.108	-0.083
-724.879	-38.833	-0.396	-0.211
-723.864	-200.000	0.038	0.241
-722.850	88.570	-0.220	0.247
-721.835	691.037	0.061	-0.160
-720.821	800.000	-0.089	-0.324
-719.806	1.259	0.083	-0.060
-718.791	-57.992	0.258	0.114
-717.777	-124.805	-0.321	-0.050
-716.762	580.889	0.086	-0.213
-715.748	-41.281	-0.148	0.077
-714.733	95.344	0.153	-0.177
-713.718	-200.000	0.018	-0.372
-712.704	-32.756	-0.222	-0.125
-711.689	-99.178	-0.293	-0.075
-710.675	-22.361	-0.158	0.097
-709.660	-124.774	-0.421	-0.066
-708.645	163.581	0.268	-0.380
-707.631	-3.945	-0.133	0.093
-706.616	-133.095	0.611	0.078
-705.602	-200.000	0.032	0.195
-704.587	-200.000	0.029	-0.357
-703.572	800.000	0.070	-0.296
-702.558	-130.070	0.044	-0.006
-701.543	171.717	0.135	-0.196
-700.529	620.020	-0.026	0.065
-699.514	-61.970	-0.436	-0.184
-698.499	-72.234	0.165	-0.062
-697.485	-200.000	-0.015	0.158
-696.470	-200.000	0.031	0.179
-695.456	27.477	0.301	0.255
-694.441	702.962	-0.039	-0.104
-693.426	-64.327	-0.151	-0.062
-692.412	275.673	0.054	-0.097
-691.397	-163.109	0.221	-0.011
-690.383	-200.000	0.025	-0.166
-689.368	161.826	0.080	-0.113
-688.354	-200.000	-0.008	0.060
-687.339	266.172	0.161	-0.284
-686.324	800.000	0.072	-0.258
-685.310	-103.688	-0.039	-0.009
-684.295	800.000	-0.092	0.297
-683.281	25.491	0.255	-0.214
-682.266	73.881	0.152	-0.161
-681.251	74.711	0.136	0.144
-680.237	-200.000	-0.019	0.158
-679.222	217.361	-0.175	-0.280
-678.208	-44.773	0.171	-0.086
-677.193	-59.564	-0.353	-0.153
-676.178	-200.000	0.023	0.163
-675.164	-200.000	0.036	-0.165
-674.149	49.429	-0.123	0.117
-673.135	800.000	-0.053	0.231
-672.120	65.578	0.078	-0.080
-671.105	9.029	-0.189	0.143
-670.091	-200.000	-0.005	0.059
-669.076	800.000	0.125	0.388
-668.062	-200.000	-0.053	-0.261
-667.047	503.044	-0.077	-0.179
-666.032	306.737	0.183	-0.343
-665.018	-85.519	-0.235	-0.074
-664.003	206.987	-0.033	-0.051
-662.989	-68.884	0.061	0.024
-661.974	-200.000	-0.044	-0.211
-660.959	342.215	0.128	-0.252
-659.945	-157.580	0.214	0.013
-658.930	-59.121	-0.175	-0.076
-657.916	-116.208	0.114	-0.021
-656.901	168.913	0.207	-0.298
-655.886	393.105	-0.112	-0.234
-654.872	-200.000	-0.012	-0.148
-653.857	-103.903	-0.260	0.061
-652.843	179.767	0.058	0.086
-651.828	-146.735	-0.249	0.022
-650.814	161.839	-0.150	-0.212
-649.799	-63.596	-0.185	-0.076
-648.784	755.842	0.055	-0.151
-647.770	173.595	0.071	0.104
-646.755	-200.000	-0.026	-0.196
-645.741	130.938	0.128	-0.165
-644.726	-45.706	0.098	-0.049
-643.711	47.364	-0.141	-0.132
-642.697	49.318	-0.287	0.271
-641.682	70.102	0.317	0.330
-640.668	-200.000	-0.006	0.227
-639.653	-72.532	-0.240	0.089
-638.638	-102.116	-0.245	-0.059
-637.624	-200.000	-0.015	-0.067
-636.609	-62.598	-0.127	-0.053
-635.595	-145.821	-0.345	0.031
-634.580	398.414	-0.141	0.297
-633.565	-133.127	-0.155	0.020
-632.551	625.094	-0.189	-0.480
-631.536	-82.683	0.078	0.026
-630.522	-143.182	0.211	0.020
-629.507	206.733	0.073	0.115
-628.492	128.493	-0.255	-0.327
-627.478	-86.852	-0.220	0.068
-626.463	500.853	-0.040	0.092
-625.449	-138.421	-0.157	0.017
-624.434	800.000	0.039	0.124
-623.419	-65.364	-0.038	-0.015
-622.405	198.544	0.035	-0.054
-621.390	770.979	-0.160	0.440
-620.376	201.797	-0.068	-0.105
-619.361	800.000	0.042	0.168
-618.346	36.551	-0.176	-0.156
-617.332	9.557	0.115	-0.087
-616.317	95.169	-0.125	0.143
-615.303	-25.374	-0.135	-0.081
-614.288	-67.107	-0.242	-0.096
-613.273	-200.000	-0.027	-0.309
-612.259	-51.883	0.200	-0.094
-611.244	24.880	-0.364	-0.303
-610.230	93.809	-0.117	0.134
-609.215	-62.418	-0.189	-0.079
-608.201	-200.000	0.026	0.238
-607.186	-11.838	-0.227	0.150
-606.171	800.000	-0.097	0.301
-605.157	398.079	0.096	-0.202
-604.142	-163.616	-0.186	0.009
-603.128	-134.473	-0.171	0.021
-602.113	159.616	-0.042	0.058
-601.098	-150.011	-0.138	0.011
-600.084	800.000	0.058	0.205
-599.069	-200.000	0.034	0.233
-598.055	-101.841	-0.038	0.009
-597.040	-140.440	-0.328	0.034
-596.025	274.304	-0.134	-0.239
-595.011	-64.201	-0.153	0.062
-593.996	-99.105	-0.157	-0.040
-592.982	-76.295	0.127	0.045
-591.967	105.708	0.083	-0.099
-590.952	32.516	0.130	-0.113
-589.938	291.975	0.123	0.224
-588.923	110.358	-0.143	0.172
-587.909	-177.999	-0.270	0.006
-586.894	434.813	-0.256	0.559
-585.879	-159.297	-0.249	0.014
-584.865	-151.820	0.185	0.014
-583.850	-200.000	-0.029	0.199
-582.836	362.908	0.050	-0.100
-581.821	110.253	-0.015	0.018
-580.806	-75.603	0.050	0.018
-579.792	363.954	-0.061	0.124
-578.777	-200.000	0.006	0.100
-577.763	-200.000	-0.003	-0.191
-576.748	-5.635	-0.137	0.094
-575.733	-181.865	0.089	-0.002
-574.719	0.732	-0.274	-0.197
-573.704	-9.421	0.287	-0.192
-572.690	-200.000	0.000	-0.161
-571.675	24.152	-0.513	-0.425
-570.661	28.934	0.038	-0.032
-569.646	-13.468	0.131	0.085
-568.631	-17.647	-0.280	0.177
-567.617	30.572	0.073	-0.062
-566.602	-87.000	-0.103	-0.031
-565.588	45.170	-0.250	-0.231
-564.573	-119.508	0.219	0.038
-563.558	800.000	0.034	-0.120
-562.544	800.000	0.120	-0.351
-561.529	22.182	0.218	-0.179
-560.515	517.961	-0.107	-0.252
-559.500	399.310	-0.022	0.046
-558.485	-115.349	0.158	-0.030
-557.471	-200.000	-0.037	-0.166
-556.456	-135.424	0.222	-0.027
-555.442	-200.000	0.009	-0.178
-554.427	800.000	0.057	0.199
-553.412	-32.762	-0.054	0.030
-552.398	800.000	0.100	-0.390
-551.383	-131.972	-0.125	0.016
-550.369	19.892	0.284	0.230
-549.354	306.747	-0.194	0.363
-548.339	104.590	0.043	-0.051
-547.325	800.000	-0.053	0.178
-546.310	-113.140	-0.199	-0.039
-545.296	800.000	0.072	0.269
-544.281	-149.791	-0.470	0.037
-543.266	377.826	-0.068	-0.139
-542.252	254.967	0.161	-0.277
-541.237	28.263	-0.261	-0.221
-540.223	259.574	-0.016	-0.028
-539.208	800.000	0.071	-0.245
-538.193	-200.000	0.000	-0.091
-537.179	479.884	0.120	0.273
-536.164	48.254	0.027	-0.025
-535.150	-94.450	0.321	0.088
-534.135	260.630	-0.072	-0.125
-533.121	-120.371	-0.146	-0.025
-532.106	390.809	-0.035	-0.074
-531.091	-71.643	-0.338	-0.127
-530.077	151.398	0.086	0.118
-529.062	-200.000	0.064	0.341
-528.048	31.377	-0.039	0.034
-527.033	800.000	-0.049	-0.147
-526.018	119.155	0.125	0.155
-525.004	-200.000	-0.074	0.364
-523.989	-26.776	-0.254	0.149
-522.975	-110.528	-0.357	-0.074
-521.960	-200.000	0.003	-0.295
-520.945	-200.000	0.027	0.126
-519.931	99.411	0.213	-0.247
-518.916	-163.849	-0.052	-0.002
-517.902	-63.946	0.199	0.081
-516.887	-200.000	-0.070	0.325
-515.872	-86.974	0.259	0.079
-514.858	800.000	0.047	0.174
-513.843	246.342	0.068	-0.115
-512.829	87.315	-0.208	-0.230
-511.814	-13.535	-0.078	-0.051
-510.799	-6.977	0.101	-0.069
-509.785	307.984	0.076	-0.142
-508.770	-143.126	0.300	0.029
-507.756	51.241	-0.221	0.210
-506.741	800.000	-0.029	0.080
-505.726	194.591	0.065	-0.099
-504.712	-128.651	-0.166	0.024
-503.697	340.716	-0.101	0.198
-502.683	-200.000	-0.020	0.122
-501.668	-136.379	0.071	-0.008
-500.653	65.315	0.150	-0.151
-499.639	-38.427	-0.403	-0.213
-498.624	365.904	0.066	-0.133
-497.610	-200.000	0.006	0.086
-496.595	-182.910	0.450	-0.008
-495.581	-94.350	-0.180	0.049
-494.566	-89.789	0.310	0.091
-493.551	-1.865	-0.228	0.160
-492.537	191.579	0.074	-0.112
-491.522	125.311	0.050	0.064
-490.508	-48.908	-0.150	0.072
-489.493	-83.932	0.209	0.067
-488.478	127.712	0.171	0.217
-487.464	-139.388	0.223	0.024
-486.449	-77.354	-0.108	0.037
-485.435	-120.860	-0.070	0.012
-484.420	-64.861	0.336	0.136
-483.405	25.280	0.193	0.160
-482.391	32.154	0.285	-0.246
-481.376	800.000	0.043	0.146
-480.362	66.370	0.197	0.200
-479.347	-163.090	0.194	-0.009
-478.332	-62.575	0.319	0.132
-477.318	-71.996	0.111	-0.041
-476.303	72.864	0.226	-0.236
-475.289	-99.287	-0.109	0.028
-474.274	191.245	-0.019	0.028
-473.259	165.956	-0.018	-0.026
-472.245	-128.963	-0.252	0.035
-471.230	198.017	-0.235	0.360
-470.216	81.679	0.149	-0.162
-469.201	-154.411	0.493	-0.033
-468.186	-16.491	0.069	-0.044
-467.172	-200.000	-0.047	0.299
-466.157	36.204	-0.078	-0.069
-465.143	352.428	-0.137	0.271
-464.128	-36.456	-0.151	0.081
-463.113	430.964	0.030	0.066
-462.099	800.000	0.060	-0.171
-461.084	-191.649	-0.104	-0.001
-460.070	-38.954	0.327	-0.172
-459.055	-200.000	0.006	-0.234
-458.040	-49.674	0.160	-0.076
-457.026	-200.000	0.002	-0.112
-456.011	130.369	0.174	0.223
-454.997	-115.484	0.188	0.035
-453.982	-200.000	-0.018	-0.182
-452.968	-25.745	0.125	-0.074
-451.953	-34.339	0.091	0.050
-450.938	105.815	-0.048	0.057
-449.924	-18.495	0.113	0.070
-448.909	800.000	-0.071	0.264
-447.895	800.000	-0.007	-0.025
-446.880	12.541	-0.041	-0.032
-445.865	86.111	0.147	-0.161
-444.851	60.288	-0.214	0.211
-443.836	-92.178	-0.394	0.111
-442.822	-200.000	0.052	0.302
-441.807	19.584	-0.177	0.142
-440.792	-121.172	0.159	0.027
-439.778	-200.000	0.240	-0.001
-438.763	-29.268	0.257	0.147
-437.749	-200.000	-0.054	-0.304
-436.734	71.339	0.200	0.207
-435.719	-40.193	-0.326	-0.170
-434.705	78.376	0.102	-0.109
-433.690	124.530	-0.105	0.132
-432.676	214.758	0.121	-0.192
-431.661	-161.531	-0.157	-0.008
-430.646	-200.000	-0.004	0.018
-429.632	-200.000	0.051	-0.283
-428.617	-48.380	0.098	-0.047
-427.603	115.143	0.030	0.037
-426.588	43.342	0.049	-0.045
-425.573	-114.226	0.168	-0.032
-424.559	145.641	0.126	-0.169
-423.544	-15.439	-0.094	0.060
-422.530	-110.592	-0.303	0.063
-421.515	-84.964	-0.236	0.074
-420.500	32.690	0.313	0.270
-419.486	296.579	-0.136	-0.250
-418.471	265.381	-0.194	-0.337
-417.457	86.448	-0.310	0.341
-416.442	-200.000	-0.003	-0.113
-415.428	-110.353	0.352	-0.073
-414.413	-47.991	-0.243	-0.117
-413.398	-158.594	-0.265	0.015
-412.384	48.758	-0.064	0.060
-411.369	110.414	-0.167	-0.201
-410.355	189.658	0.085	-0.127
-409.340	-200.000	0.020	-0.251
-408.325	-62.538	-0.185	0.077
-407.311	288.849	0.167	0.303
-406.296	800.000	-0.099	-0.384
-405.282	-200.000	-0.033	-0.277
-404.267	-200.000	0.010	0.087
-403.252	181.568	0.128	-0.189
-402.238	598.783	0.069	0.170
-401.223	800.000	0.027	0.102
-400.209	-200.000	0.004	-0.092
-399.194	-200.000	0.027	-0.225
-398.179	-87.616	0.026	0.008
-397.165	-49.169	-0.211	0.100
-396.150	-98.347	0.211	-0.054
-395.136	309.618	0.024	-0.045
-394.121	205.281	0.035	-0.054
-393.106	45.748	-0.178	-0.164
-392.092	-200.000	0.018	-0.130
-391.077	800.000	0.030	0.119
-390.063	-200.000	-0.051	0.354
-389.048	123.524	-0.186	0.232
-388.033	494.399	-0.072	0.165
-387.019	87.689	0.081	0.089
-386.004	-200.000	0.012	-0.089
-384.990	-200.000	0.013	-0.554
-383.975	-200.000	-0.064	-0.368
-382.960	8.163	0.200	0.150
-381.946	-88.491	0.106	-0.031
-380.931	140.601	-0.147	0.193
-379.917	104.270	0.219	0.257
-378.902	-60.456	0.140	0.059
-377.888	288.090	0.029	0.052
-376.873	-0.579	0.041	0.029
-375.858	187.832	0.111	0.165
-374.844	124.345	0.028	-0.035
-373.829	-200.000	-0.083	0.460
-372.815	111.448	-0.277	-0.332
-371.800	800.000	0.137	-0.415
-370.785	-30.192	0.544	0.308
-369.771	-153.280	0.130	0.009
-368.756	-24.026	0.089	0.053
-367.742	-39.660	0.073	-0.038
-366.727	-200.000	-0.014	0.070
-365.712	-130.323	-0.121	0.016
-364.698	-152.560	0.355	0.025
-363.683	232.773	-0.108	-0.177
-362.669	52.884	0.107	0.102
-361.654	66.756	0.199	0.202
-360.639	94.933	0.175	-0.198
-359.625	-122.416	0.179	-0.029
-358.610	800.000	0.101	-0.299
-357.596	-145.940	-0.340	-0.030
-356.581	560.734	-0.093	-0.224
-355.566	202.472	0.165	-0.254
-354.552	-28.090	-0.263	-0.151
-353.537	797.281	-0.047	-0.128
-352.523	-85.114	0.150	0.047
-351.508	206.441	-0.026	0.040
-350.493	-200.000	-0.004	0.378
-349.479	-56.292	-0.171	0.076
-348.464	-200.000	0.021	0.113
-347.450	-200.000	-0.011	-0.144
-346.435	800.000	0.076	-0.273
-345.420	800.000	0.025	0.075
-344.406	800.000	-0.012	0.038
-343.391	292.173	0.136	0.247
-342.377	-111.883	0.260	-0.052
-341.362	291.048	0.038	-0.069
-340.348	205.782	-0.094	-0.145
-339.333	322.167	-0.120	0.228
-338.318	632.419	0.060	0.152
-337.304	600.876	0.052	0.128
-336.289	-200.000	0.052	0.285
-335.275	329.035	0.130	-0.249
-334.260	39.814	0.238	0.213
-333.245	-106.335	-0.385	0.086
-332.231	-200.000	-0.019	0.248
-331.216	416.355	0.074	0.157
-330.202	-69.327	0.250	0.096
-329.187	255.880	0.058	-0.098
-328.172	212.491	0.075	0.117
-327.158	-91.863	-0.066	-0.019
-326.143	100.176	0.027	-0.031
-325.129	237.943	0.175	-0.289
-324.114	-183.689	0.127	0.002
-323.099	22.295	0.159	0.129
-322.085	-200.000	-0.002	0.305
-321.070	42.491	-0.107	-0.097
-320.056	-49.961	0.378	-0.178
-319.041	-86.329	-0.195	-0.060
-318.026	-200.000	0.007	-0.198
-317.012	-118.687	-0.235	0.041
-315.997	-36.788	0.160	0.085
-314.983	-200.000	-0.019	-0.238
-313.968	800.000	-0.106	-0.420
-312.953	-186.962	0.108	0.001
-311.939	-200.000	-0.037	-0.238
-310.924	127.343	-0.283	-0.357
-309.910	-200.000	-0.007	0.118
-308.895	1.956	0.122	0.087
-307.880	800.000	-0.046	-0.171
-306.866	116.790	0.201	0.246
-305.851	54.638	-0.035	-0.033
-304.837	92.475	0.108	-0.121
-303.822	-200.000	0.007	0.257
-302.807	609.168	-0.066	0.164
-301.793	-200.000	-0.005	0.063
-300.778	21.825	-0.138	0.111
-299.764	175.357	0.296	0.427
-298.749	76.882	-0.025	0.026
-297.735	69.583	-0.233	0.239
-296.720	-97.886	-0.167	0.043
-295.705	-200.000	0.001	-0.139
-294.691	-43.229	0.027	0.013
-293.676	800.000	-0.088	-0.298
-292.662	196.002	-0.151	0.228
-291.647	-57.619	0.056	0.024
-290.632	0.353	0.219	-0.156
-289.618	328.395	-0.078	-0.149
-288.603	48.983	-0.059	-0.055
-287.589	155.885	-0.108	-0.147
-286.574	-34.328	0.196	0.107
-285.559	478.723	-0.054	-0.122
-284.545	67.609	-0.064	-0.065
-283.530	200.840	0.054	-0.083
-282.516	800.000	0.075	0.236
-281.501	-80.762	-0.304	0.100
-280.486	-75.891	-0.109	-0.038
-279.472	-200.000	0.089	0.387
-278.457	-200.000	0.005	0.220
-277.443	-44.075	-0.196	0.098
-276.428	-122.346	-0.227	0.037
-275.413	713.631	-0.124	-0.327
-274.399	-33.244	-0.063	-0.035
-273.384	-113.803	-0.549	-0.106
-272.370	-127.812	-0.156	0.022
-271.355	-100.032	0.137	0.034
-270.340	-56.490	0.194	-0.085
-269.326	766.726	0.104	-0.282
-268.311	20.718	-0.247	-0.198
-267.297	170.452	-0.158	0.224
-266.282	-13.580	0.169	0.108
-265.267	136.306	-0.032	-0.041
-264.253	-44.075	0.412	-0.205
-263.238	-21.647	-0.290	0.175
-262.224	-67.411	0.309	0.120
-261.209	589.577	-0.096	0.235
-260.195	-138.515	-0.353	-0.038
-259.180	-89.865	0.184	0.053
-258.165	800.000	0.062	-0.209
-257.151	-172.981	0.264	0.008
-256.136	28.602	0.226	0.190
-255.122	2.747	-0.154	-0.111
-254.107	705.053	0.048	0.125
-253.092	800.000	0.066	0.276
-252.078	-75.689	-0.136	0.048
-251.063	-76.859	0.221	0.077
-250.049	-200.000	0.043	0.261
-249.034	-200.000	-0.050	0.305
-248.019	-76.683	0.097	-0.034
-247.005	66.223	0.152	-0.153
-245.990	137.767	-0.019	0.025
-244.976	-200.000	0.036	0.193
-243.961	-89.813	0.176	0.051
-242.946	-103.698	0.219	0.051
-241.932	509.597	-0.134	-0.310
-240.917	800.000	0.023	-0.076
-239.903	667.901	-0.093	0.238
-238.888	800.000	0.076	0.269
-237.873	-57.507	0.251	0.109
-236.859	27.288	0.228	-0.190
-235.844	-81.468	-0.231	0.075
-234.830	-200.000	-0.014	-0.098
-233.815	-55.963	0.229	-0.101
-232.800	-200.000	-0.090	-0.472
-231.786	-43.118	-0.116	0.058
-230.771	-70.762	0.296	-0.111
-229.757	-0.931	-0.189	0.133
-228.742	-86.881	0.045	-0.014
-227.727	800.000	-0.041	-0.130
-226.713	607.534	-0.102	-0.251
-225.698	196.505	-0.071	0.107
-224.684	-23.493	0.194	-0.115
-223.669	32.405	-0.104	-0.089
-222.655	79.665	-0.250	0.265
-221.640	-74.828	-0.300	-0.107
-220.625	2.883	-0.205	0.147
-219.611	376.194	-0.288	-0.583
-218.596	-116.604	0.101	0.018
-217.582	-28.624	0.208	0.119
-216.567	198.356	0.101	0.154
-215.552	69.374	0.054	-0.055
-214.538	200.983	-0.186	0.284
-213.523	-200.000	-0.014	-0.441
-212.509	67.867	0.129	-0.131
-211.494	50.745	-0.151	-0.142
-210.479	-101.707	0.210	0.050
-209.465	-133.567	0.228	0.028
-208.450	-157.016	0.119	0.007
-207.436	800.000	-0.065	-0.242
-206.421	65.800	0.133	0.133
-205.406	800.000	0.073	-0.246
-204.392	20.943	-0.094	-0.076
-203.377	333.074	0.060	0.114
-202.363	-86.007	0.150	-0.046
-201.348	147.343	-0.061	0.082
-200.333	-96.533	-0.245	-0.064
-199.319	-122.580	-0.266	-0.043
-198.304	800.000	0.022	0.068
-197.290	-171.295	0.362	-0.012
-196.275	224.595	-0.128	-0.204
-195.260	459.959	-0.146	0.321
-194.246	-53.569	-0.095	0.043
-193.231	-36.506	0.284	0.151
-192.217	-114.990	-0.240	0.045
-191.202	-51.538	0.268	0.124
-190.187	800.000	-0.048	0.190
-189.173	311.751	-0.026	0.049
-188.158	-107.203	-0.150	0.033
-187.144	41.986	0.122	0.109
-186.129	-136.337	-0.317	0.037
-185.114	286.437	-0.126	0.224
-184.100	-200.000	-0.033	0.240
-183.085	-53.325	0.132	-0.060
-182.071	353.504	0.127	-0.250
-181.056	96.489	0.131	-0.148
-180.042	-38.175	-0.378	-0.198
-179.027	463.525	0.151	-0.334
-178.012	49.890	0.176	0.164
-176.998	800.000	0.056	0.194
-175.983	-20.930	-0.130	-0.079
-174.969	178.298	0.033	0.047
-173.954	-0.158	0.275	-0.193
-172.939	800.000	-0.069	-0.238
-171.925	-84.422	0.397	0.124
-170.910	79.455	0.298	-0.316
-169.896	800.000	-0.077	-0.318
-168.881	-75.024	-0.211	0.075
-167.866	-200.000	-0.005	0.133
-166.852	-40.029	0.203	-0.105
-165.837	-176.626	0.225	-0.006
-164.823	571.556	-0.017	0.041
-163.808	149.873	-0.084	0.112
-162.793	251.440	0.187	0.314
-161.779	-159.566	0.166	-0.009
-160.764	-200.000	-0.005	-0.097
-159.750	-200.000	-0.015	-0.114
-158.735	-200.000	0.020	-0.134
-157.720	-116.970	0.180	0.032
-156.706	-200.000	0.031	-0.221
-155.691	27.450	0.085	0.071
-154.677	800.000	0.045	-0.129
-153.662	14.616	-0.323	0.249
-152.647	800.000	0.050	-0.175
-151.633	-26.532	-0.021	-0.012
-150.618	412.788	-0.101	0.211
-149.604	800.000	0.059	-0.183
-148.589	-149.314	0.183	-0.014
-147.574	695.943	0.137	0.355
-146.560	-70.663	-0.151	0.056
-145.545	63.243	-0.212	-0.210
-144.531	-200.000	0.051	0.308
-143.516	-173.887	0.099	0.003
-142.502	800.000	0.132	0.411
-141.487	433.425	0.035	0.076
-140.472	-200.000	-0.066	-0.347
-139.458	95.556	0.204	0.229
-138.443	-200.000	-0.042	-0.188
-137.429	-58.105	-0.147	-0.063
-136.414	-200.000	-0.002	0.179
-135.399	-200.000	-0.009	0.182
-134.385	235.023	0.124	0.203
-133.370	800.000	-0.031	0.111
-132.356	-85.841	0.292	0.089
-131.341	-86.798	-0.054	-0.016
-130.326	-77.639	0.106	-0.036
-129.312	196.501	0.137	-0.206
-128.297	800.000	-0.045	-0.171
-127.283	65.154	-0.304	0.303
-126.268	176.626	-0.264	-0.379
-125.253	-7.202	-0.082	-0.055
-124.239	-200.000	0.010	0.085
-123.224	-100.138	-0.195	-0.048
-122.210	-200.000	-0.008	-0.297
-121.195	-101.886	-0.335	-0.080
-120.180	-200.000	0.044	-0.376
-119.166	-2.375	-0.044	0.031
-118.151	-54.912	0.090	0.040
-117.137	-34.245	0.188	-0.102
-116.122	-122.632	0.155	-0.025
-115.107	89.463	-0.171	-0.189
-114.093	-200.000	0.035	-0.260
-113.078	266.288	-0.070	0.120
-112.064	5.736	0.200	-0.146
-111.049	21.483	-0.342	-0.274
-110.034	-200.000	0.049	-0.245
-109.020	800.000	-0.104	0.443
-108.005	283.838	-0.128	-0.227
-106.991	16.663	0.411	-0.320
-105.976	-200.000	-0.042	-0.345
-104.962	87.296	-0.173	0.189
-103.947	-88.399	-0.144	-0.042
-102.932	34.629	0.106	0.091
-101.918	-66.068	-0.347	0.136
-100.903	-80.178	-0.055	0.018
-99.889	-200.000	-0.055	0.335
-98.874	14.467	-0.251	-0.193
-97.859	-169.525	0.314	-0.011
-96.845	257.074	-0.125	-0.211
-95.830	100.116	-0.096	0.110
-94.816	-200.000	-0.007	0.207
-93.801	800.000	-0.121	-0.351
-92.786	-200.000	-0.011	0.111
-91.772	149.090	-0.094	-0.125
-90.757	-57.504	0.154	0.067
-89.743	-200.000	0.002	0.208
-88.728	-43.180	0.199	-0.099
-87.713	627.860	-0.108	-0.268
-86.699	-47.826	-0.157	-0.075
-85.684	189.411	0.092	0.136
-84.670	93.011	0.164	-0.182
-83.655	47.477	-0.292	0.268
-82.640	-47.643	-0.115	0.055
-81.626	-38.405	-0.102	-0.053
-80.611	616.806	0.053	-0.132
-79.597	-76.889	-0.172	0.059
-78.582	-200.000	0.033	0.243
-77.567	-64.992	0.054	0.021
-76.553	534.126	0.061	-0.142
-75.538	0.559	-0.279	0.196
-74.524	-200.000	0.024	-0.125
-73.509	20.787	0.079	-0.063
-72.494	-200.000	0.051	-0.278
-71.480	120.856	0.066	-0.081
-70.465	317.768	0.160	0.298
-69.451	-200.000	-0.036	0.156
-68.436	363.209	0.226	0.446
-67.422	-200.000	0.003	0.181
-66.407	-200.000	0.015	-0.453
-65.392	353.258	-0.085	-0.166
-64.378	3.188	-0.071	0.051
-63.363	-200.000	-0.072	0.396
-62.349	-161.035	-0.295	-0.015
-61.334	131.243	-0.710	-0.897
-60.319	76.919	0.267	0.279
-59.305	-200.000	-0.222	-1.214
-58.290	105.811	0.774	0.901
-57.276	800.000	0.446	1.507
-56.261	-200.000	95.620	593.451
-55.246	652.957	1369.567	3455.128
-54.232	199.890	2544.530	3842.341
-53.217	120.754	2138.707	2615.756
-52.203	43.978	1602.284	1444.495
-51.188	35.574	1340.449	1158.005
-50.173	32.362	1298.246	1102.709
-49.159	54.734	1345.119	1276.371
-48.144	56.598	1362.223	1303.656
-47.130	35.737	1321.008	1141.997
-46.115	32.193	1303.927	1106.363
-45.100	32.020	1298.893	1101.038
-44.086	31.913	1296.738	1098.538
-43.071	31.928	1294.152	1096.393
-42.057	31.803	1292.016	1093.809
-41.042	31.858	1290.443	1092.753
-40.027	31.909	1288.779	1091.597
-39.013	31.964	1286.822	1090.215
-37.998	31.962	1284.757	1088.414
-36.984	31.943	1283.646	1087.320
-35.969	31.953	1281.894	1085.849
-34.954	31.936	1279.967	1084.076
-33.940	31.986	1278.854	1083.377
-32.925	32.117	1277.171	1082.662
-31.911	32.059	1275.824	1081.147
-30.896	32.009	1274.751	1079.904
-29.881	32.028	1273.245	1078.696
-28.867	32.162	1271.943	1078.322
-27.852	32.142	1270.190	1076.675
-26.838	32.126	1268.877	1075.431
-25.823	32.095	1267.752	1074.256
-24.809	32.095	1266.234	1072.929
-23.794	32.108	1264.793	1071.739
-22.779	32.046	1263.598	1070.330
-21.765	32.036	1262.510	1069.307
-20.750	32.112	1260.767	1068.222
-19.736	31.967	1259.917	1066.634
-18.721	31.978	1258.563	1065.506
-17.706	31.987	1257.707	1064.790
-16.692	31.992	1255.942	1063.287
-15.677	31.908	1255.507	1062.396
-14.663	32.032	1253.863	1061.667
-13.648	31.938	1252.889	1060.270
-12.633	31.980	1251.877	1059.604
-11.619	31.901	1251.287	1058.620
-10.604	31.986	1250.460	1058.354
-9.590	31.970	1249.356	1057.289
-8.575	31.917	1248.153	1055.933
-7.560	31.894	1247.655	1055.341
-6.546	31.955	1246.445	1054.615
-5.531	31.959	1245.457	1053.762
-4.517	31.995	1244.889	1053.441
-3.502	32.021	1243.780	1052.605
-2.487	31.928	1242.924	1051.318
-1.473	31.896	1239.127	1047.890
-0.458	30.487	1223.935	1027.214
0.556	25.736	1207.043	989.662
1.571	22.109	1212.342	973.855
2.586	21.129	1227.120	980.133
3.600	20.644	1215.565	968.121
4.615	15.639	1145.537	885.951
5.629	8.000	1071.914	791.128
6.644	4.632	1052.865	760.546
7.659	4.414	1050.492	757.702
8.673	4.510	1049.219	757.186
9.688	4.545	1047.767	756.242
10.702	4.627	1046.372	755.568
11.717	8.905	1052.128	780.521
12.731	16.039	1061.589	822.398
13.746	18.825	1064.266	838.005
14.761	18.100	1062.943	833.359
15.775	16.892	1061.173	826.012
16.790	15.981	1058.484	819.422
17.804	15.222	1057.292	814.735
18.819	14.864	1056.202	812.083
19.834	14.618	1055.640	810.387
20.848	14.410	1054.661	808.553
21.863	14.188	1053.412	806.447
22.877	14.127	1053.056	805.808
23.892	13.996	1052.338	804.557
24.907	14.069	1051.374	804.100
25.921	14.047	1050.365	803.148
26.936	14.151	1049.054	802.578
27.950	14.211	1047.952	801.954
28.965	14.334	1046.385	801.277
29.980	14.334	1044.965	800.119
30.994	14.333	1043.608	799.004
32.009	14.410	1042.930	798.783
33.023	14.423	1041.610	797.763
34.038	14.438	1040.359	796.806
35.053	14.258	1039.779	795.428
36.067	14.210	1038.850	794.420
37.082	14.155	1038.404	793.744
38.096	14.332	1037.408	793.758
39.111	14.373	1036.449	793.152
40.126	14.196	1035.492	791.506
41.140	13.976	1034.050	789.286
42.155	13.968	1033.090	788.449
43.169	14.064	1031.543	787.650
44.184	14.013	1030.785	786.764
45.199	13.913	1029.921	785.559
46.213	14.131	1028.688	785.581
47.228	14.164	1027.657	784.880
48.242	14.215	1026.123	783.879
49.257	14.069	1026.504	783.412
50.271	14.134	1025.328	782.750
51.286	14.112	1024.641	782.054
52.301	14.148	1023.310	781.138
53.315	14.171	1022.379	780.463
54.330	13.996	1021.072	778.580
55.344	13.978	1020.753	778.181
56.359	14.012	1019.856	777.587
57.374	13.987	1018.773	776.578
58.388	13.968	1017.903	775.755
59.403	13.921	1017.123	774.873
60.417	13.955	1016.118	774.200
61.432	13.942	1015.351	773.487
62.447	13.971	1014.358	772.795
63.461	13.862	1013.603	771.646
64.476	13.978	1012.727	771.449
65.490	13.985	1011.522	770.493
66.505	13.924	1011.099	769.820
67.520	13.863	1010.701	769.168
68.534	13.924	1009.823	768.715
69.549	13.980	1009.137	768.385
70.563	13.802	1008.729	767.182
71.578	13.842	1007.685	766.505
72.593	13.881	1006.576	765.771
73.607	13.725	1006.212	764.709
74.622	13.791	1005.726	764.575
75.636	13.832	1004.732	763.941
76.651	13.737	1004.307	763.115
77.666	13.743	1004.199	762.989
78.680	13.818	1003.213	762.519
79.695	13.907	1002.216	762.103
80.709	13.847	1001.824	761.464
81.724	13.929	1001.161	761.269
82.739	14.003	1000.716	761.200
83.753	14.170	999.510	760.982
84.768	14.335	998.559	760.942
85.782	14.346	997.661	760.240
86.797	14.289	997.275	759.618
87.812	14.223	995.919	758.220
88.826	14.238	995.245	757.706
89.841	14.171	994.310	756.623
90.855	14.266	992.956	755.957
91.870	14.388	992.395	756.016
92.884	14.278	991.793	754.991
93.899	14.373	991.019	754.766
94.914	14.455	989.918	754.234
95.928	14.470	989.146	753.647
96.943	14.401	988.297	752.620
97.957	14.220	987.655	751.250
98.972	14.270	986.600	750.604
99.987	14.288	985.922	750.102
101.001	14.280	985.035	749.325
102.016	14.183	984.585	748.482
103.030	14.320	983.536	748.232
104.045	14.281	982.490	747.196
105.060	14.215	981.984	746.448
106.074	14.194	980.683	745.299
107.089	13.934	980.351	743.816
108.103	14.004	978.869	742.943
109.118	13.870	978.167	741.742
110.133	13.946	977.034	741.160
111.147	13.943	976.255	740.486
112.162	13.944	975.719	740.019
113.176	13.957	974.953	739.433
114.191	14.152	974.117	739.601
115.206	14.240	972.992	739.070
116.220	14.126	972.558	738.171
117.235	14.034	971.400	736.816
118.249	14.074	970.680	736.385
119.264	14.063	969.647	735.485
120.279	13.954	969.336	734.701
121.293	13.971	968.268	733.902
122.308	13.903	967.369	732.858
123.322	13.918	966.476	732.179
124.337	14.052	965.033	731.615
125.352	14.035	964.184	730.831
126.366	13.894	963.295	729.470
127.381	14.061	962.387	729.455
128.395	13.968	961.602	728.387
129.410	13.998	960.249	727.429
130.424	14.079	959.404	727.077
131.439	14.113	959.156	726.973
132.454	14.103	958.487	726.360
133.468	14.200	957.390	725.884
134.483	14.075	956.938	724.936
135.497	14.111	955.634	724.040
136.512	14.196	954.925	723.807
137.527	14.237	954.022	723.236
138.541	14.103	953.574	722.254
139.556	14.123	952.926	721.785
140.570	14.160	952.357	721.451
141.585	14.401	951.052	721.443
142.600	14.405	950.545	721.008
143.614	14.517	949.175	720.389
144.629	14.486	948.684	719.819
145.643	14.435	947.920	718.958
146.658	14.089	947.415	717.017
147.673	14.266	945.772	716.473
148.687	14.150	945.135	715.428
149.702	14.215	944.186	714.929
150.716	14.208	943.382	714.225
151.731	14.227	942.591	713.643
152.746	14.246	942.149	713.328
153.760	14.226	941.667	712.813
154.775	14.269	941.036	712.456
155.789	14.308	940.408	712.083
156.804	14.313	939.456	711.321
157.819	14.474	938.578	711.281
158.833	14.339	938.920	710.903
159.848	14.563	937.456	710.685
160.862	14.554	936.288	709.698
161.877	14.402	935.203	708.166
162.892	14.230	934.570	706.894
163.906	14.254	933.428	706.070
164.921	14.346	932.783	705.909
165.935	14.240	932.086	704.872
166.950	14.335	931.251	704.581
167.964	14.433	930.008	703.992
168.979	14.219	929.673	702.769
169.994	14.309	928.595	702.275
171.008	14.390	927.912	702.037
172.023	14.415	927.414	701.704
173.037	14.541	926.545	701.514
174.052	14.486	926.001	700.809
175.067	14.370	925.335	699.755
176.081	14.352	924.503	698.988
177.096	14.549	923.806	699.224
178.110	14.553	923.165	698.694
179.125	14.452	922.428	697.654
180.140	14.591	921.795	697.691
181.154	14.585	921.312	697.240
182.169	14.584	921.105	697.019
183.183	14.583	920.478	696.479
184.198	14.732	919.379	696.207
185.213	14.646	918.695	695.266
186.227	14.674	918.196	694.948
187.242	14.634	918.108	694.652
188.256	14.742	917.257	694.397
189.271	14.768	915.922	693.429
190.286	14.518	915.386	691.928
191.300	14.554	914.257	691.161
192.315	14.442	913.703	690.219
193.329	14.356	913.546	689.681
194.344	14.563	913.091	690.133
195.359	14.682	912.400	690.044
196.373	14.786	911.481	689.717
197.388	14.743	911.535	689.517
198.402	14.837	910.908	689.372
199.417	14.899	910.549	689.293
200.432	14.918	909.808	688.750
201.446	14.990	909.565	688.802
202.461	14.948	909.087	688.205
203.475	14.968	908.322	687.648
204.490	14.832	907.334	686.281
205.504	14.825	906.445	685.518
206.519	14.793	905.900	684.915
207.534	14.841	905.344	684.632
208.548	14.932	904.442	684.257
209.563	14.942	903.700	683.680
210.577	14.904	903.332	683.184
211.592	14.914	902.637	682.641
212.607	15.122	901.291	682.408
213.621	14.969	901.202	681.657
214.636	15.008	900.549	681.262
215.650	15.067	899.507	680.652
216.665	15.259	898.702	680.765
217.680	15.184	898.514	680.255
218.694	15.167	897.582	679.423
219.709	15.181	897.212	679.137
220.723	15.049	896.806	678.235
221.738	15.098	895.957	677.734
222.753	15.097	895.366	677.219
223.767	15.194	894.813	677.136
224.782	15.397	893.784	677.116
225.796	15.270	893.619	676.418
226.811	15.264	892.965	675.840
227.826	15.125	892.571	674.921
228.840	15.255	891.200	674.349
229.855	15.233	890.685	673.809
230.869	15.301	889.905	673.434
231.884	15.240	889.492	672.816
232.899	15.088	889.111	671.858
233.913	15.096	887.883	670.905
234.928	15.121	887.243	670.462
235.942	15.153	887.031	670.367
236.957	15.145	886.231	669.674
237.972	15.145	885.654	669.178
238.986	15.090	885.066	668.454
240.001	15.199	884.284	668.241
241.015	15.285	883.312	667.790
242.030	15.237	883.221	667.472
243.045	15.330	882.697	667.385
244.059	15.207	882.159	666.430
245.074	15.403	881.508	666.657
246.088	15.296	880.750	665.603
247.103	15.398	880.390	665.675
248.117	15.482	880.032	665.678
249.132	15.671	879.433	665.914
250.147	15.772	878.698	665.698
251.161	15.756	877.815	664.909
252.176	15.700	877.529	664.410
253.190	15.864	876.862	664.494
254.205	15.799	876.299	663.754
255.220	15.798	875.423	663.028
256.234	15.841	874.817	662.678
257.249	15.903	874.446	662.584
258.263	15.814	873.531	661.482
259.278	15.943	872.385	661.063
260.293	15.915	872.551	661.020
261.307	16.056	871.568	660.768
262.322	16.033	871.040	660.221
263.336	16.020	870.358	659.592
264.351	16.093	869.348	659.056
265.366	15.992	869.365	658.615
266.380	15.946	868.492	657.714
267.395	15.971	867.967	657.357
268.409	15.952	867.187	656.634
269.424	15.989	866.200	655.972
270.439	15.929	865.838	655.409
271.453	15.830	865.064	654.377
272.468	15.827	864.455	653.848
273.482	15.916	864.563	654.218
274.497	16.021	863.412	653.697
275.512	15.949	862.813	652.905
276.526	16.032	862.382	652.844
277.541	15.998	861.882	652.277
278.555	16.114	861.258	652.196
279.570	16.096	860.816	651.733
280.585	16.138	859.761	651.036
281.599	16.207	859.043	650.702
282.614	16.162	858.001	649.683
283.628	16.122	857.993	649.465
284.643	16.208	856.922	648.926
285.657	16.216	856.474	648.561
286.672	16.064	856.303	647.791
287.687	16.151	855.516	647.471
288.701	16.198	854.889	647.122
289.716	16.241	854.402	646.859
290.730	16.324	854.012	646.826
291.745	16.214	853.479	645.942
292.760	16.274	852.640	645.482
293.774	16.518	851.597	645.565
294.789	16.410	851.553	645.061
295.803	16.254	850.762	643.812
296.818	16.203	849.834	642.859
297.833	16.259	849.423	642.704
298.847	16.303	848.888	642.409
299.862	16.428	848.170	642.282
300.876	16.483	847.696	642.075
301.891	16.561	846.854	641.677
302.906	16.570	846.795	641.612
303.920	16.649	846.271	641.457
304.935	16.783	845.413	641.256
305.949	16.616	844.867	640.153
306.964	16.558	844.320	639.465
307.979	16.598	843.626	639.033
308.993	16.461	843.709	638.520
310.008	16.734	842.645	638.690
311.022	16.698	841.895	637.927
312.037	16.533	841.524	636.970
313.052	16.547	840.800	636.419
314.066	16.474	840.279	635.692
315.081	16.444	839.668	635.061
316.095	16.486	839.410	634.968
317.110	16.467	838.429	634.099
318.125	16.459	838.153	633.804
319.139	16.586	837.486	633.719
320.154	16.491	837.435	633.269
321.168	16.480	836.895	632.763
322.183	16.698	836.206	633.001
323.197	16.714	835.277	632.300
324.212	16.622	834.933	631.642
325.227	16.614	834.513	631.238
326.241	16.510	834.031	630.432
327.256	16.536	833.295	629.915
328.270	16.658	832.640	629.818
329.285	16.662	832.111	629.378
330.300	16.592	831.529	628.620
331.314	16.596	831.270	628.383
332.329	16.748	830.522	628.329
333.343	16.708	830.414	628.043
334.358	16.798	829.812	627.866
335.373	16.865	829.270	627.646
336.387	16.869	829.169	627.531
337.402	16.874	829.090	627.431
338.416	16.826	829.067	627.183
339.431	16.872	828.426	626.810
340.446	17.098	827.515	626.901
341.460	17.057	827.605	626.761
342.475	17.121	827.090	626.554
343.489	17.112	826.729	626.192
344.504	17.147	826.078	625.772
345.519	17.195	825.578	625.516
346.533	17.208	824.883	624.979
347.548	16.998	824.788	624.080
348.562	17.036	823.563	623.239
349.577	16.839	823.544	622.444
350.592	16.987	822.596	622.215
351.606	17.046	821.664	621.674
352.621	17.024	821.450	621.374
353.635	17.064	820.643	620.857
354.650	16.902	820.347	619.986
355.665	17.110	819.431	619.996
356.679	17.256	819.166	620.274
357.694	17.202	818.457	619.484
358.708	17.189	817.583	618.725
359.723	17.296	817.338	618.870
360.738	17.230	816.751	618.132
361.752	17.212	816.122	617.536
362.767	17.329	815.552	617.476
363.781	17.412	815.085	617.369
364.796	17.510	814.487	617.216
365.810	17.572	814.036	617.043
366.825	17.507	814.088	616.793
367.840	17.304	813.889	615.854
368.854	17.439	813.010	615.620
369.869	17.666	811.937	615.577
370.883	17.507	812.263	615.192
371.898	17.434	811.877	614.583
372.913	17.661	811.355	614.951
373.927	17.557	810.725	614.045
374.942	17.613	810.528	614.042
375.956	17.651	809.931	613.674
376.971	17.686	809.513	613.429
377.986	17.645	809.250	613.028
379.000	17.715	808.561	612.704
380.015	17.678	808.277	612.302
381.029	17.700	807.753	611.927
382.044	17.672	807.136	611.308
383.059	17.895	806.034	611.219
384.073	17.756	805.649	610.374
385.088	17.545	805.343	609.332
386.102	17.722	804.410	609.207
387.117	17.790	803.678	608.841
388.132	17.734	803.513	608.459
389.146	17.631	803.477	608.014
390.161	17.725	802.977	607.914
391.175	17.665	802.328	607.156
392.190	17.749	801.547	606.811
393.205	17.905	800.522	606.535
394.219	17.649	800.475	605.537
395.234	17.680	800.324	605.477
396.248	17.474	800.186	604.591
397.263	17.617	799.500	604.524
398.278	17.616	799.218	604.253
399.292	17.537	799.275	603.964
400.307	17.504	798.450	603.170
401.321	17.730	797.796	603.422
402.336	17.837	797.072	603.200
403.350	17.846	796.643	602.853
404.365	17.795	796.731	602.686
405.380	17.985	795.977	602.734
406.394	18.087	795.202	602.455
407.409	18.203	794.819	602.517
408.423	18.250	794.694	602.537
409.438	18.090	794.669	601.899
410.453	18.055	794.221	601.383
411.467	18.149	793.249	600.924
412.482	18.073	793.163	600.541
413.496	18.266	792.930	600.989
414.511	18.346	792.556	600.933
415.526	18.328	792.010	600.403
416.540	18.125	791.912	599.563
417.555	18.197	791.473	599.428
418.569	18.404	790.785	599.579
419.584	18.224	790.115	598.389
420.599	18.330	789.650	598.353
421.613	156.657	1369.799	1795.107
422.628	135.512	1454.325	1795.205
