DTS Sentinel unit serial number:	SN413079Multiplexer serial number:	ORYXHardware model number:	OX4-SRSoftware version number:	ORYX F/W v4.00 Oryx Data Collector v3.7.2.0data status	okinstallation	princeton_trtdifferential loss correction	single-endedforward channel	channel 1reverse channel	N/Adate	2019/09/14time	19:22:35forward acquisition time	60.00reverse acquisition time	0.00gamma	496.2192k internal	0.2312k external	0.2312temperature offset calibration	1.0025default loss term (dB/km)	0.3790temperature slope calibration	1.0000multiplexer offset coefficient	1.0000multiplexer slope coefficient	1.0000fibre end	0.00T internal ref (°C)	34.98T ext. ref 1 (°C)	4.88T ext. ref 2 (°C)	29.06length (m)	temperature (°C)	Stokes	anti-Stokes-747.200	684.128	-0.079	-0.210
-746.185	-120.859	-0.288	0.049
-745.171	-39.616	0.126	0.067
-744.156	-80.039	0.112	-0.038
-743.142	25.624	-0.152	-0.128
-742.127	-41.276	-0.094	-0.049
-741.112	24.095	-0.041	-0.034
-740.098	286.280	-0.074	0.135
-739.083	800.000	-0.047	0.144
-738.069	-200.000	0.000	0.180
-737.054	75.885	0.108	0.116
-736.039	-50.088	-0.207	0.100
-735.025	-25.934	0.074	-0.044
-734.010	-23.012	-0.431	-0.263
-732.996	-146.617	-0.230	0.020
-731.981	-200.000	-0.016	0.122
-730.966	4.171	-0.269	0.200
-729.952	-200.000	-0.059	0.282
-728.937	8.212	-0.216	-0.164
-727.923	800.000	0.027	-0.119
-726.908	714.266	0.063	-0.169
-725.894	32.691	-0.271	0.238
-724.879	-103.087	-0.170	0.041
-723.864	-200.000	-0.019	-0.153
-722.850	800.000	-0.070	0.243
-721.835	306.363	0.168	0.317
-720.821	-13.314	0.190	0.125
-719.806	90.266	-0.051	-0.058
-718.791	-138.204	0.081	0.009
-717.777	255.754	0.086	-0.150
-716.762	470.317	0.085	-0.194
-715.748	133.021	0.052	-0.068
-714.733	-139.474	-0.102	0.011
-713.718	33.687	-0.035	-0.030
-712.704	83.647	0.132	-0.146
-711.689	178.487	0.245	0.362
-710.675	-200.000	0.018	-0.204
-709.660	655.759	-0.195	-0.508
-708.645	31.855	-0.199	-0.174
-707.631	139.078	-0.111	-0.148
-706.616	627.253	0.126	0.321
-705.602	346.655	-0.120	-0.239
-704.587	-172.882	-0.114	0.004
-703.572	-87.507	0.410	-0.126
-702.558	129.834	-0.170	-0.221
-701.543	-200.000	-0.020	-0.165
-700.529	226.971	-0.125	0.206
-699.514	-165.323	-0.204	0.009
-698.499	-200.000	-0.030	-0.153
-697.485	-200.000	-0.046	-0.240
-696.470	583.717	-0.127	0.315
-695.456	-31.431	-0.246	0.140
-694.441	-200.000	-0.032	0.302
-693.426	129.776	0.061	0.079
-692.412	-200.000	-0.031	0.154
-691.397	206.467	0.038	0.060
-690.383	-135.192	-0.309	0.038
-689.368	-157.740	-0.091	-0.005
-688.354	-67.833	-0.360	-0.142
-687.339	89.270	-0.044	-0.050
-686.324	67.652	-0.143	-0.148
-685.310	-46.863	0.140	0.070
-684.295	226.682	0.124	-0.204
-683.281	-25.094	0.278	-0.167
-682.266	-37.840	0.209	0.112
-681.251	-75.988	0.226	0.081
-680.237	-102.798	-0.323	0.078
-679.222	185.120	0.081	-0.121
-678.208	-36.985	-0.325	-0.176
-677.193	742.038	0.052	0.141
-676.178	36.818	-0.305	-0.273
-675.164	710.536	0.143	0.382
-674.149	136.319	-0.195	-0.257
-673.135	-64.428	-0.341	-0.140
-672.120	472.885	0.048	-0.110
-671.105	-42.503	0.077	-0.039
-670.091	-71.408	-0.193	-0.073
-669.076	106.608	-0.203	-0.243
-668.062	-89.606	-0.041	-0.012
-667.047	-49.450	-0.123	0.059
-666.032	185.952	-0.174	-0.262
-665.018	121.429	-0.125	0.158
-664.003	212.422	0.115	0.183
-662.989	-200.000	-0.056	-0.260
-661.974	599.301	-0.086	0.215
-660.959	-134.463	0.241	0.030
-659.945	-200.000	-0.068	0.000
-658.930	-200.000	-0.048	0.327
-657.916	243.432	0.088	0.149
-656.901	-75.627	0.314	0.113
-655.886	124.258	0.104	-0.132
-654.872	-66.447	0.198	0.080
-653.857	-138.777	0.230	0.025
-652.843	3.641	0.300	0.221
-651.828	58.870	0.087	-0.087
-650.814	-114.058	-0.042	0.008
-649.799	34.842	0.115	-0.102
-648.784	-200.000	-0.016	0.175
-647.770	388.749	-0.046	-0.095
-646.755	-200.000	-0.016	-0.087
-645.741	370.149	-0.233	-0.478
-644.726	-68.330	0.155	0.061
-643.711	-174.580	-0.145	0.004
-642.697	-200.000	-0.015	-0.155
-641.682	-161.037	-0.210	-0.011
-640.668	-20.629	0.072	0.045
-639.653	800.000	0.046	0.162
-638.638	78.796	0.085	0.092
-637.624	-165.726	-0.231	-0.010
-636.609	20.119	0.128	0.105
-635.595	427.989	-0.068	-0.149
-634.580	-21.986	-0.153	-0.094
-633.565	109.297	-0.060	-0.072
-632.551	154.038	-0.134	0.186
-631.536	332.879	-0.245	0.479
-630.522	-76.717	-0.117	0.041
-629.507	800.000	-0.162	-0.581
-628.492	123.213	-0.132	0.167
-627.478	-103.270	-0.240	-0.057
-626.463	-2.604	0.237	-0.168
-625.449	-33.304	-0.317	0.177
-624.434	259.976	0.241	0.420
-623.419	-84.149	-0.246	0.079
-622.405	-122.544	-0.112	0.018
-621.390	800.000	-0.194	0.557
-620.376	53.615	-0.223	0.217
-619.361	774.622	0.068	-0.186
-618.346	40.590	0.154	-0.140
-617.332	298.677	-0.159	0.295
-616.317	77.967	0.272	-0.293
-615.303	-116.803	0.296	-0.055
-614.288	-200.000	0.145	0.000
-613.273	-93.285	-0.305	-0.085
-612.259	162.995	-0.055	-0.078
-611.244	658.582	-0.070	-0.182
-610.230	-9.537	-0.205	-0.138
-609.215	-132.326	0.062	-0.008
-608.201	-200.000	-0.010	-0.078
-607.186	-200.000	-0.013	0.172
-606.171	-184.550	0.362	-0.006
-605.157	-200.000	0.032	-0.217
-604.142	397.653	0.008	-0.016
-603.128	176.112	-0.101	-0.148
-602.113	104.886	0.121	0.144
-601.098	288.822	0.182	0.334
-600.084	-200.000	0.035	0.181
-599.069	800.000	0.101	0.396
-598.055	-86.536	0.033	-0.010
-597.040	146.020	0.176	-0.238
-596.025	-159.325	-0.218	-0.012
-595.011	-200.000	0.052	-0.257
-593.996	-200.000	-0.015	-0.307
-592.982	68.080	0.113	0.117
-591.967	-200.000	0.035	0.234
-590.952	-128.917	0.307	0.044
-589.938	-144.285	0.540	-0.051
-588.923	-84.481	-0.231	-0.074
-587.909	-87.786	-0.177	0.054
-586.894	-29.000	0.022	0.012
-585.879	-59.934	-0.120	0.052
-584.865	800.000	-0.058	-0.211
-583.850	-109.117	-0.382	0.082
-582.836	800.000	0.060	-0.192
-581.821	240.219	-0.178	-0.299
-580.806	-55.092	0.325	-0.147
-579.792	271.673	-0.152	-0.270
-578.777	119.607	-0.224	-0.280
-577.763	569.466	0.042	0.103
-576.748	-17.000	0.346	-0.220
-575.733	-200.000	-0.009	-0.067
-574.719	13.461	-0.170	0.133
-573.704	-83.358	0.263	0.085
-572.690	800.000	-0.058	-0.196
-571.675	-154.672	-0.255	-0.017
-570.661	-72.176	0.127	-0.047
-569.646	800.000	-0.050	-0.143
-568.631	479.320	0.061	0.139
-567.617	723.138	-0.058	-0.157
-566.602	-200.000	-0.002	-0.264
-565.588	800.000	0.066	-0.260
-564.573	800.000	-0.019	-0.079
-563.558	-82.517	0.265	0.087
-562.544	16.070	0.085	-0.068
-561.529	-200.000	0.015	0.126
-560.515	-27.317	-0.283	-0.166
-559.500	800.000	0.093	0.266
-558.485	-53.453	0.418	0.193
-557.471	655.576	0.066	-0.170
-556.456	93.572	0.081	-0.092
-555.442	7.961	-0.076	-0.058
-554.427	15.767	-0.028	-0.023
-553.412	39.052	0.161	-0.145
-552.398	-34.185	0.132	0.073
-551.383	10.585	-0.178	0.137
-550.369	800.000	-0.025	-0.093
-549.354	485.511	-0.085	0.195
-548.339	-135.411	-0.325	-0.039
-547.325	-144.582	-0.254	-0.024
-546.310	-9.273	-0.183	-0.123
-545.296	373.126	0.090	-0.185
-544.281	-63.316	-0.214	-0.089
-543.266	-141.331	-0.343	-0.035
-542.252	32.050	-0.215	-0.186
-541.237	-200.000	-0.001	0.198
-540.223	96.868	-0.244	0.281
-539.208	800.000	-0.076	-0.243
-538.193	800.000	0.035	0.117
-537.179	616.526	-0.006	0.014
-536.164	251.858	-0.058	-0.099
-535.150	-29.693	0.094	0.054
-534.135	-200.000	0.013	0.079
-533.121	-31.531	-0.203	-0.115
-532.106	-41.344	0.124	0.064
-531.091	-166.370	-0.168	-0.007
-530.077	35.912	-0.266	0.236
-529.062	285.309	-0.010	-0.017
-528.048	67.605	-0.136	0.140
-527.033	-26.324	0.332	-0.196
-526.018	800.000	0.050	-0.145
-525.004	70.577	0.064	0.067
-523.989	-138.283	-0.091	-0.010
-522.975	523.663	-0.063	-0.150
-521.960	182.605	0.076	-0.112
-520.945	-200.000	0.012	0.153
-519.931	-62.011	-0.150	0.063
-518.916	-79.113	0.126	-0.043
-517.902	477.910	0.059	-0.135
-516.887	-200.000	0.056	0.277
-515.872	282.184	-0.066	-0.119
-514.858	69.241	0.139	-0.144
-513.843	800.000	0.094	0.304
-512.829	633.448	-0.055	-0.141
-511.814	376.680	0.049	0.100
-510.799	269.347	-0.064	0.113
-509.785	800.000	0.018	0.068
-508.770	-200.000	-0.012	-0.205
-507.756	138.025	0.099	0.131
-506.741	-22.564	0.069	-0.042
-505.726	34.610	0.121	0.107
-504.712	-115.842	0.185	-0.035
-503.697	-200.000	-0.072	0.398
-502.683	52.290	-0.124	0.119
-501.668	179.571	0.152	-0.223
-500.653	334.567	-0.131	-0.255
-499.639	-200.000	0.035	-0.177
-498.624	-93.261	0.233	-0.065
-497.610	800.000	-0.065	0.181
-496.595	-200.000	-0.022	0.313
-495.581	-165.664	-0.246	0.011
-494.566	-200.000	0.033	0.220
-493.551	37.012	-0.110	0.098
-492.537	-120.859	-0.275	0.047
-491.522	335.845	-0.153	-0.299
-490.508	169.656	-0.106	0.153
-489.493	11.556	0.271	0.209
-488.478	-200.000	0.027	0.500
-487.464	-137.777	0.055	-0.006
-486.449	-116.735	0.199	-0.037
-485.435	679.638	0.068	0.178
-484.420	-33.216	0.117	0.065
-483.405	-69.202	0.212	0.082
-482.391	-80.405	0.175	-0.059
-481.376	-36.355	-0.098	0.053
-480.362	-73.843	-0.251	-0.091
-479.347	-81.584	-0.122	0.040
-478.332	-200.000	0.028	-0.293
-477.318	800.000	0.048	0.166
-476.303	-125.832	0.169	0.026
-475.289	304.757	-0.028	-0.052
-474.274	340.995	-0.133	0.262
-473.259	800.000	-0.070	-0.259
-472.245	451.949	-0.132	-0.293
-471.230	-200.000	0.008	0.217
-470.216	350.989	0.077	0.152
-469.201	323.541	-0.067	0.128
-468.186	-110.972	0.156	0.032
-467.172	800.000	0.032	0.132
-466.157	-18.950	0.173	0.108
-465.143	104.841	0.315	0.372
-464.128	800.000	-0.042	0.144
-463.113	290.338	-0.034	0.061
-462.099	800.000	-0.025	0.109
-461.084	373.069	0.071	0.146
-460.070	-200.000	-0.016	0.203
-459.055	125.734	-0.116	0.147
-458.040	386.333	0.116	0.240
-457.026	-5.969	-0.166	0.114
-456.011	136.496	-0.227	-0.298
-454.997	100.320	0.112	0.130
-453.982	800.000	-0.022	0.071
-452.968	231.380	-0.098	0.161
-451.953	800.000	-0.060	-0.184
-450.938	-200.000	0.063	-0.369
-449.924	-118.595	-0.158	-0.028
-448.909	-109.489	0.288	-0.061
-447.895	-74.611	0.281	-0.101
-446.880	-91.455	0.205	-0.059
-445.865	75.238	-0.122	-0.129
-444.851	-112.240	-0.275	0.055
-443.836	175.354	-0.035	-0.050
-442.822	-200.000	-0.029	-0.222
-441.807	153.131	0.194	-0.266
-440.792	-122.591	-0.338	-0.055
-439.778	176.703	-0.054	-0.079
-438.763	-93.886	0.273	-0.075
-437.749	59.548	-0.192	-0.189
-436.734	52.543	-0.117	0.112
-435.719	-84.301	-0.059	0.019
-434.705	-92.135	0.122	-0.034
-433.690	800.000	0.018	0.066
-432.676	-24.437	-0.284	0.170
-431.661	-131.984	-0.310	0.041
-430.646	-200.000	0.004	-0.163
-429.632	60.712	-0.054	0.054
-428.617	-25.427	0.239	-0.141
-427.603	10.113	0.160	-0.122
-426.588	78.163	0.157	-0.168
-425.573	13.706	-0.091	0.071
-424.559	49.529	-0.160	-0.151
-423.544	-142.208	0.274	-0.027
-422.530	6.101	0.116	-0.086
-421.515	-200.000	-0.016	-0.138
-420.500	-6.307	-0.151	-0.103
-419.486	-36.693	0.293	0.158
-418.471	800.000	-0.081	-0.238
-417.457	-158.425	0.054	0.003
-416.442	-28.779	0.166	-0.096
-415.428	-200.000	0.027	0.212
-414.413	101.809	-0.183	-0.214
-413.398	-200.000	0.014	-0.210
-412.384	-63.557	0.340	-0.140
-411.369	343.958	-0.054	-0.106
-410.355	187.266	0.065	-0.097
-409.340	66.531	0.084	-0.085
-408.325	-78.341	0.025	0.008
-407.311	793.884	-0.026	0.071
-406.296	-33.535	0.158	-0.087
-405.282	-1.994	-0.072	0.051
-404.267	-200.000	0.016	0.243
-403.252	-200.000	0.073	0.356
-402.238	-96.882	-0.199	-0.052
-401.223	-25.975	-0.404	0.238
-400.209	9.559	-0.048	0.036
-399.194	434.717	0.056	0.121
-398.179	108.486	0.094	-0.112
-397.165	771.849	0.044	-0.119
-396.150	-120.145	-0.094	0.016
-395.136	-200.000	-0.001	-0.374
-394.121	-123.009	-0.064	-0.010
-393.106	-81.770	-0.386	-0.127
-392.092	-200.000	-0.006	0.069
-391.077	238.098	-0.009	0.015
-390.063	132.397	-0.192	0.248
-389.048	-153.655	0.226	0.016
-388.033	-2.840	0.095	0.066
-387.019	-200.000	0.015	-0.240
-386.004	-200.000	0.022	0.299
-384.990	-28.761	0.167	0.096
-383.975	-200.000	-0.012	0.109
-382.960	-200.000	-0.047	-0.368
-381.946	373.356	-0.096	-0.196
-380.931	87.980	-0.094	-0.105
-379.917	800.000	-0.053	0.206
-378.902	-42.577	0.197	-0.100
-377.888	-200.000	-0.011	-0.226
-376.873	-200.000	0.005	-0.164
-375.858	89.653	0.064	0.071
-374.844	-19.552	-0.180	0.111
-373.829	-3.099	-0.101	-0.070
-372.815	359.361	-0.035	-0.070
-371.800	-200.000	-0.001	0.194
-370.785	210.518	0.122	-0.191
-369.771	-200.000	0.031	-0.167
-368.756	800.000	-0.067	-0.225
-367.742	-200.000	-0.005	0.107
-366.727	389.918	-0.090	0.186
-365.712	400.301	0.034	0.072
-364.698	-161.122	0.111	-0.006
-363.683	-15.101	-0.214	0.137
-362.669	-121.413	0.140	-0.023
-361.654	-200.000	-0.018	0.116
-360.639	65.087	-0.139	-0.140
-359.625	-200.000	-0.010	-0.062
-358.610	49.842	0.195	0.183
-357.596	465.996	-0.057	0.127
-356.581	677.294	0.098	0.254
-355.566	-13.762	-0.036	0.023
-354.552	108.028	0.099	-0.118
-353.537	-55.092	0.116	0.052
-352.523	-147.713	0.156	-0.013
-351.508	-126.109	-0.343	0.051
-350.493	319.851	0.168	0.318
-349.479	6.122	-0.037	0.027
-348.464	49.072	0.238	0.224
-347.450	42.071	0.114	-0.104
-346.435	295.012	-0.077	-0.140
-345.420	-150.106	0.128	-0.010
-344.406	-9.934	-0.188	-0.125
-343.391	-200.000	-0.056	-0.318
-342.377	28.637	0.092	0.078
-341.362	242.567	0.086	-0.143
-340.348	-200.000	-0.008	-0.087
-339.333	340.772	-0.061	-0.119
-338.318	-88.566	-0.254	0.075
-337.304	-178.880	-0.408	0.009
-336.289	-99.423	-0.096	0.024
-335.275	-88.286	0.197	0.059
-334.260	-80.332	0.100	0.033
-333.245	-97.737	-0.191	-0.049
-332.231	-117.093	0.048	-0.009
-331.216	-200.000	-0.018	0.318
-330.202	800.000	0.019	-0.059
-329.187	85.486	-0.225	-0.246
-328.172	-142.610	0.312	0.030
-327.158	417.462	0.179	-0.383
-326.143	-112.220	0.255	0.051
-325.129	184.863	-0.112	0.166
-324.114	-64.755	-0.358	-0.145
-323.099	-115.202	0.177	0.033
-322.085	66.065	-0.051	-0.052
-321.070	800.000	-0.072	-0.213
-320.056	-200.000	0.030	0.209
-319.041	98.230	-0.107	-0.124
-318.026	-16.071	0.299	-0.189
-317.012	108.675	0.066	0.079
-315.997	46.243	0.076	-0.071
-314.983	-25.920	-0.157	-0.092
-313.968	4.193	-0.191	-0.140
-312.953	-23.678	-0.144	-0.086
-311.939	-53.998	-0.203	0.092
-310.924	637.069	0.038	0.095
-309.910	-200.000	-0.050	-0.325
-308.895	187.405	0.060	-0.089
-307.880	-119.517	-0.246	0.042
-306.866	101.666	-0.115	0.134
-305.851	-200.000	-0.005	-0.099
-304.837	800.000	0.079	-0.227
-303.822	-119.835	-0.121	-0.021
-302.807	-174.141	0.295	-0.009
-301.793	-182.904	0.099	-0.002
-300.778	8.986	-0.172	0.130
-299.764	-34.530	0.417	-0.228
-298.749	-122.135	-0.375	0.061
-297.735	800.000	0.113	-0.334
-296.720	-200.000	-0.002	0.171
-295.705	-28.535	0.244	-0.140
-294.691	-200.000	-0.003	-0.034
-293.676	81.251	-0.187	-0.202
-292.662	230.472	0.131	-0.213
-291.647	800.000	-0.099	0.315
-290.632	-200.000	0.007	-0.277
-289.618	800.000	0.044	0.158
-288.603	89.106	-0.049	0.055
-287.589	-175.802	0.212	0.006
-286.574	263.348	-0.084	0.146
-285.559	760.912	0.029	0.078
-284.545	206.404	0.085	-0.133
-283.530	-130.123	-0.534	-0.073
-282.516	800.000	0.015	0.044
-281.501	0.481	0.341	0.243
-280.486	-162.261	-0.266	0.013
-279.472	86.456	-0.106	0.117
-278.457	11.268	0.405	0.309
-277.443	-102.105	0.085	0.021
-276.428	223.808	-0.097	0.156
-275.413	130.115	-0.044	0.056
-274.399	21.952	-0.081	-0.065
-273.384	5.219	0.099	-0.073
-272.370	275.858	0.041	-0.072
-271.355	-200.000	0.052	0.375
-270.340	-200.000	0.008	0.052
-269.326	-91.519	0.291	0.083
-268.311	800.000	-0.010	-0.032
-267.297	46.249	0.140	0.129
-266.282	-89.373	0.184	0.054
-265.267	-200.000	-0.001	-0.029
-264.253	568.814	-0.082	-0.198
-263.238	800.000	-0.036	-0.154
-262.224	-114.947	0.117	-0.022
-261.209	273.383	-0.009	-0.015
-260.195	-43.833	-0.063	-0.031
-259.180	73.585	-0.134	0.139
-258.165	99.390	0.219	-0.252
-257.151	-183.636	-0.192	0.003
-256.136	-165.519	-0.226	0.010
-255.122	800.000	0.021	-0.059
-254.107	96.102	-0.114	-0.130
-253.092	-100.001	-0.179	0.045
-252.078	-200.000	-0.009	-0.334
-251.063	-104.887	-0.150	-0.034
-250.049	800.000	-0.097	0.295
-249.034	-86.091	-0.456	-0.140
-248.019	-48.725	0.272	0.130
-247.005	25.846	-0.174	-0.144
-245.990	800.000	-0.089	0.255
-244.976	203.856	0.042	-0.065
-243.961	15.451	-0.152	0.119
-242.946	154.586	0.229	0.312
-241.932	21.779	0.131	-0.106
-240.917	-42.241	0.117	-0.060
-239.903	-76.243	0.205	0.072
-238.888	-200.000	0.044	0.342
-237.873	-200.000	0.044	0.239
-236.859	137.253	-0.242	0.314
-235.844	-96.728	-0.341	-0.089
-234.830	-92.059	-0.168	0.047
-233.815	76.658	0.137	0.145
-232.800	-109.639	0.214	0.045
-231.786	-183.749	-0.077	-0.001
-230.771	-200.000	0.063	-0.397
-229.757	197.654	0.147	-0.224
-228.742	-200.000	-0.030	0.142
-227.727	-87.306	0.257	-0.077
-226.713	800.000	0.040	0.149
-225.698	-200.000	-0.063	0.299
-224.684	-123.291	0.125	-0.020
-223.669	800.000	0.071	0.266
-222.655	518.213	-0.069	-0.162
-221.640	41.604	0.076	0.069
-220.625	101.683	-0.220	0.255
-219.611	-200.000	0.036	0.260
-218.596	-7.124	-0.118	-0.080
-217.582	44.591	0.004	-0.004
-216.567	-200.000	0.009	0.269
-215.552	134.974	-0.121	0.156
-214.538	164.482	-0.104	-0.146
-213.523	800.000	0.016	0.067
-212.509	126.980	0.110	-0.138
-211.494	-200.000	0.192	0.000
-210.479	-80.415	-0.025	-0.008
-209.465	121.104	-0.178	-0.220
-208.450	55.009	0.486	0.467
-207.436	-156.620	0.185	-0.011
-206.421	400.256	0.053	-0.110
-205.406	-123.987	-0.112	-0.017
-204.392	1.808	-0.198	0.142
-203.377	123.263	0.147	-0.183
-202.363	-102.546	0.036	-0.008
-201.348	-41.000	0.243	0.125
-200.333	-73.196	-0.233	-0.085
-199.319	102.514	0.068	0.079
-198.304	-200.000	-0.011	-0.084
-197.290	-17.819	0.303	0.189
-196.275	-7.689	-0.273	0.184
-195.260	-145.807	0.359	-0.032
-194.246	510.519	0.074	-0.170
-193.231	-76.851	-0.088	-0.030
-192.217	147.965	-0.089	-0.119
-191.202	-127.370	0.246	0.036
-190.187	-200.000	0.016	0.126
-189.173	82.614	0.191	0.206
-188.158	90.903	0.147	-0.164
-187.144	-4.376	0.049	0.034
-186.129	-84.359	-0.414	0.130
-185.114	490.939	0.128	0.292
-184.100	-200.000	0.021	-0.198
-183.085	88.511	0.301	0.332
-182.071	377.836	-0.036	0.073
-181.056	68.230	0.209	-0.213
-180.042	91.107	0.219	0.244
-179.027	-124.995	0.403	0.062
-178.012	-192.365	-0.157	-0.001
-176.998	195.645	-0.061	0.093
-175.983	-147.623	0.267	-0.022
-174.969	-200.000	0.029	0.126
-173.954	-200.000	0.053	-0.317
-172.939	106.856	-0.178	-0.209
-171.925	800.000	-0.071	-0.269
-170.910	-200.000	-0.004	-0.023
-169.896	111.196	-0.101	0.120
-168.881	-18.532	-0.082	-0.051
-167.866	133.262	0.053	-0.068
-166.852	-154.326	0.209	-0.014
-165.837	-122.875	0.108	-0.017
-164.823	-200.000	-0.007	-0.354
-163.808	-116.949	-0.274	0.050
-162.793	-18.568	0.188	0.116
-161.779	-200.000	-0.011	-0.105
-160.764	95.577	0.063	0.071
-159.750	-9.997	-0.175	0.115
-158.735	-200.000	0.000	0.049
-157.720	-200.000	-0.016	0.231
-156.706	-56.116	0.236	-0.104
-155.691	43.398	-0.254	0.230
-154.677	-76.632	-0.378	-0.132
-153.662	142.777	0.078	-0.103
-152.647	40.783	0.283	-0.253
-151.633	-57.639	0.305	0.133
-150.618	-196.235	-0.300	-0.002
-149.604	-123.599	-0.096	-0.015
-148.589	34.608	0.058	0.050
-147.574	-128.590	-0.331	0.047
-146.560	254.878	-0.208	0.353
-145.545	267.345	-0.122	-0.212
-144.531	800.000	-0.036	-0.151
-143.516	-67.133	-0.261	0.102
-142.502	800.000	0.055	-0.156
-141.487	-40.961	0.198	-0.102
-140.472	463.102	-0.111	0.245
-139.458	39.400	0.044	-0.039
-138.443	800.000	-0.078	-0.270
-137.429	-200.000	-0.052	-0.282
-136.414	65.852	-0.298	-0.299
-135.399	107.788	-0.152	-0.179
-134.385	104.733	0.231	-0.269
-133.370	217.858	-0.083	0.131
-132.356	320.233	-0.035	0.066
-131.341	231.727	-0.112	0.182
-130.326	-48.200	-0.119	-0.057
-129.312	-50.186	-0.223	-0.105
-128.297	-132.222	0.102	-0.013
-127.283	165.031	0.099	-0.138
-126.268	-47.186	0.221	0.107
-125.253	-73.754	0.301	-0.108
-124.239	-108.833	-0.330	0.070
-123.224	788.478	-0.116	0.316
-122.210	-10.892	-0.198	-0.129
-121.195	-19.355	-0.040	-0.024
-120.180	-196.449	-0.224	0.002
-119.166	50.607	-0.263	-0.247
-118.151	267.259	-0.133	0.231
-117.137	-200.000	0.040	0.556
-116.122	-135.588	0.286	-0.034
-115.107	88.504	0.246	0.270
-114.093	-200.000	0.025	-0.152
-113.078	-63.192	0.346	0.141
-112.064	-17.891	0.259	-0.161
-111.049	-127.457	0.046	0.007
-110.034	85.426	0.058	0.063
-109.020	-73.652	0.145	0.052
-108.005	-200.000	0.139	-0.000
-106.991	97.543	-0.097	0.110
-105.976	-70.254	0.550	-0.207
-104.962	800.000	-0.122	-0.395
-103.947	-200.000	-0.031	-0.145
-102.932	110.313	0.191	-0.228
-101.918	48.694	0.232	-0.215
-100.903	227.825	-0.057	0.092
-99.889	184.594	0.081	-0.118
-98.874	-200.000	-0.013	0.241
-97.859	-108.157	0.160	0.034
-96.845	800.000	0.007	0.022
-95.830	121.831	0.196	0.242
-94.816	-200.000	-0.069	-0.396
-93.801	65.472	-0.179	0.179
-92.786	-38.225	0.112	0.059
-91.772	800.000	-0.083	0.291
-90.757	-153.400	0.115	0.008
-89.743	72.142	0.161	-0.166
-88.728	-80.794	0.224	-0.074
-87.713	362.733	-0.131	-0.260
-86.699	-93.605	0.145	0.040
-85.684	-200.000	0.018	-0.189
-84.670	585.475	0.172	0.419
-83.655	70.990	0.256	-0.262
-82.640	-106.803	0.130	-0.028
-81.626	800.000	-0.051	-0.188
-80.611	-200.000	-0.013	0.161
-79.597	-137.764	-0.170	-0.019
-78.582	-59.605	0.100	0.042
-77.567	-200.000	0.043	0.355
-76.553	-34.510	0.103	0.056
-75.538	-200.000	0.033	-0.208
-74.524	338.650	-0.136	0.262
-73.509	-95.358	0.363	0.097
-72.494	-40.329	0.287	-0.148
-71.480	-119.760	0.310	0.053
-70.465	-88.433	0.293	-0.087
-69.451	138.737	0.094	-0.122
-68.436	57.074	0.166	-0.160
-67.422	128.808	0.107	0.134
-66.407	-99.225	0.267	0.067
-65.392	70.284	-0.207	-0.212
-64.378	-200.000	0.039	0.313
-63.363	14.516	-0.018	-0.014
-62.349	-28.951	0.157	0.089
-61.334	64.136	-0.868	-0.863
-60.319	-77.108	0.667	0.230
-59.305	-200.000	-0.059	-0.750
-58.290	251.463	0.515	0.866
-57.276	312.048	0.812	1.505
-56.261	-200.000	97.525	582.699
-55.246	656.768	1387.204	3521.349
-54.232	190.144	2588.392	3838.563
-53.217	124.277	2166.166	2689.805
-52.203	46.946	1621.733	1489.329
-51.188	38.510	1358.408	1196.193
-50.173	35.249	1315.821	1139.301
-49.159	57.764	1364.943	1318.511
-48.144	61.984	1383.765	1362.119
-47.130	38.744	1337.694	1179.173
-46.115	35.124	1319.677	1141.714
-45.100	34.932	1314.834	1136.339
-44.086	34.881	1312.565	1134.031
-43.071	34.811	1310.265	1131.582
-42.057	34.833	1308.065	1129.768
-41.042	34.817	1306.605	1128.367
-40.027	34.909	1304.800	1127.307
-39.013	34.950	1303.035	1125.980
-37.998	34.909	1301.099	1124.022
-36.984	34.986	1299.138	1122.732
-35.969	35.047	1297.213	1121.384
-34.954	34.930	1296.370	1119.926
-33.940	35.013	1295.039	1119.216
-32.925	35.198	1293.024	1118.511
-31.911	35.170	1291.767	1117.213
-30.896	35.021	1290.896	1115.546
-29.881	35.137	1288.968	1114.512
-28.867	34.991	1288.429	1113.156
-27.852	35.101	1286.366	1111.964
-26.838	35.121	1285.152	1110.990
-25.823	35.088	1283.910	1109.682
-24.809	35.066	1282.478	1108.269
-23.794	34.996	1281.230	1106.740
-22.779	35.134	1279.634	1106.115
-21.765	35.091	1278.790	1105.097
-20.750	35.159	1277.077	1103.961
-19.736	34.928	1276.098	1101.741
-18.721	34.982	1274.645	1100.756
-17.706	34.935	1273.493	1099.445
-16.692	34.894	1272.415	1098.239
-15.677	34.893	1271.657	1097.533
-14.663	34.943	1270.314	1096.619
-13.648	34.912	1269.081	1095.330
-12.633	34.806	1268.619	1094.284
-11.619	34.799	1267.512	1093.246
-10.604	34.992	1266.388	1093.333
-9.590	34.959	1265.685	1092.493
-8.575	34.936	1264.475	1091.277
-7.560	34.859	1264.220	1090.576
-6.546	34.889	1262.843	1089.514
-5.531	34.870	1262.117	1088.735
-4.517	34.894	1261.066	1087.921
-3.502	34.933	1260.300	1087.440
-2.487	34.830	1259.686	1086.283
-1.473	34.852	1255.113	1082.420
-0.458	33.195	1240.178	1060.219
0.556	28.699	1221.651	1018.466
1.571	24.641	1225.096	998.625
2.586	23.329	1240.230	1003.446
3.600	22.673	1228.805	990.431
4.615	17.219	1156.600	903.240
5.629	8.756	1081.537	802.311
6.644	4.950	1060.635	768.009
7.659	4.816	1058.089	765.435
8.673	4.853	1057.197	764.909
9.688	4.901	1055.912	764.143
10.702	5.038	1053.906	763.295
11.717	9.419	1060.925	789.855
12.731	17.109	1070.715	835.034
13.746	19.701	1073.682	850.038
14.761	18.909	1072.054	844.783
15.775	17.729	1070.034	837.327
16.790	16.649	1067.822	830.228
17.804	16.056	1065.982	825.818
18.819	15.685	1065.033	823.192
19.834	15.323	1064.318	820.795
20.848	15.164	1063.293	819.158
21.863	15.065	1062.566	818.040
22.877	14.894	1061.774	816.526
23.892	14.820	1061.089	815.564
24.907	14.963	1060.084	815.418
25.921	14.934	1058.859	814.260
26.936	14.804	1057.990	812.886
27.950	14.798	1056.713	811.805
28.965	14.880	1055.403	811.127
29.980	15.081	1053.441	810.516
30.994	15.197	1052.042	809.930
32.009	15.086	1051.697	809.057
33.023	15.175	1049.807	807.960
34.038	15.001	1049.487	806.804
35.053	15.075	1048.263	806.147
36.067	14.951	1047.839	805.153
37.082	15.007	1046.712	804.486
38.096	15.166	1045.602	804.326
39.111	15.103	1045.431	803.819
40.126	14.951	1043.886	801.833
41.140	14.742	1042.685	799.839
42.155	14.736	1041.423	798.770
43.169	14.704	1040.572	797.893
44.184	14.622	1039.517	796.623
45.199	14.664	1038.316	795.832
46.213	14.813	1037.225	795.638
47.228	14.838	1036.408	795.058
48.242	14.839	1035.217	794.079
49.257	14.772	1034.228	792.931
50.271	15.000	1032.936	792.951
51.286	14.879	1032.724	792.144
52.301	14.898	1031.527	791.248
53.315	14.864	1030.125	789.939
54.330	14.793	1029.626	789.156
55.344	14.854	1028.584	788.573
56.359	14.793	1027.784	787.601
57.374	14.829	1026.611	786.804
58.388	14.792	1025.830	785.963
59.403	14.581	1024.972	784.241
60.417	14.841	1023.886	784.563
61.432	14.709	1023.587	783.646
62.447	14.578	1022.388	782.045
63.461	14.636	1021.443	781.525
64.476	14.584	1020.795	780.713
65.490	14.507	1020.208	779.837
66.505	14.623	1019.409	779.700
67.520	14.635	1018.728	779.166
68.534	14.687	1017.914	778.717
69.549	14.689	1017.008	777.963
70.563	14.552	1016.532	776.890
71.578	14.427	1015.969	775.813
72.593	14.519	1014.283	774.884
73.607	14.475	1013.846	774.274
74.622	14.605	1013.633	774.649
75.636	14.470	1012.929	773.417
76.651	14.607	1011.927	773.219
77.666	14.506	1011.424	772.295
78.680	14.578	1010.828	772.108
79.695	14.762	1009.512	771.882
80.709	14.677	1009.702	771.566
81.724	14.787	1009.038	771.498
82.739	14.780	1008.254	770.798
83.753	14.991	1007.318	770.987
84.768	15.077	1006.281	770.523
85.782	15.194	1005.576	770.454
86.797	14.997	1004.742	768.840
87.812	14.970	1004.074	768.137
88.826	14.984	1002.972	767.289
89.841	15.031	1002.065	766.744
90.855	15.103	1000.964	766.164
91.870	15.120	1000.289	765.658
92.884	15.072	999.823	765.011
93.899	15.075	998.589	764.016
94.914	15.171	997.850	763.821
95.928	15.215	997.113	763.388
96.943	15.129	996.432	762.407
97.957	15.200	995.273	761.778
98.972	15.100	994.577	760.721
99.987	15.065	993.878	759.958
101.001	15.185	992.660	759.508
102.016	15.031	991.870	758.138
103.030	15.034	991.384	757.710
104.045	15.019	990.857	757.176
105.060	14.992	989.899	756.253
106.074	14.889	988.757	754.851
107.089	14.733	987.563	753.167
108.103	14.692	986.913	752.419
109.118	14.759	985.556	751.622
110.133	14.657	985.069	750.725
111.147	14.754	984.174	750.410
112.162	14.667	983.559	749.483
113.176	14.816	982.597	749.355
114.191	14.883	982.128	749.229
115.206	14.818	981.233	748.190
116.220	14.764	980.662	747.449
117.235	14.906	979.451	747.094
118.249	14.914	978.183	746.092
119.264	14.821	977.708	745.252
120.279	14.775	976.905	744.370
121.293	14.767	976.324	743.823
122.308	14.898	974.683	743.092
123.322	14.714	974.286	741.905
124.337	14.661	972.917	740.562
125.352	14.691	972.222	740.100
126.366	14.742	971.059	739.374
127.381	14.816	969.975	738.810
128.395	14.751	969.577	738.156
129.410	14.734	968.897	737.497
130.424	14.840	967.655	736.952
131.439	15.070	966.641	737.129
132.454	14.829	967.067	736.329
133.468	15.004	965.657	735.959
134.483	14.862	964.867	734.669
135.497	14.971	963.575	734.099
136.512	14.843	963.170	733.164
137.527	14.929	962.123	732.676
138.541	14.933	961.374	732.061
139.556	15.038	961.164	732.295
140.570	15.004	960.273	731.403
141.585	15.208	959.488	731.630
142.600	15.134	958.574	730.547
143.614	15.307	957.493	730.413
144.629	15.320	956.860	729.920
145.643	15.187	955.476	728.221
146.658	15.051	954.408	726.754
147.673	15.139	953.784	726.594
148.687	14.964	953.125	725.268
149.702	14.959	952.006	724.332
150.716	15.011	951.341	723.990
151.731	15.116	950.624	723.834
152.746	15.170	949.564	723.193
153.760	15.093	949.565	722.799
154.775	15.107	949.175	722.500
155.789	15.109	948.316	721.791
156.804	15.177	947.631	721.498
157.819	15.242	947.081	721.295
158.833	15.253	946.283	720.671
159.848	15.296	945.574	720.249
160.862	15.227	944.434	719.022
161.877	15.264	943.072	718.081
162.892	15.021	942.222	716.331
163.906	15.124	941.071	715.833
164.921	14.894	940.654	714.466
165.935	15.061	940.058	714.665
166.950	15.281	938.650	714.470
167.964	15.298	937.611	713.689
168.979	15.146	937.173	712.646
169.994	15.096	936.388	711.772
171.008	15.140	935.789	711.441
172.023	15.365	934.672	711.482
173.037	15.345	934.267	711.028
174.052	15.347	933.752	710.580
175.067	15.178	933.102	709.307
176.081	15.035	932.832	708.435
177.096	15.088	932.090	708.031
178.110	15.095	930.932	707.118
179.125	15.271	930.264	707.291
180.140	15.289	930.240	707.287
181.154	15.253	929.944	706.847
182.169	15.392	929.210	706.812
183.183	15.455	928.629	706.575
184.198	15.449	927.845	705.892
185.213	15.448	927.315	705.418
186.227	15.571	926.167	704.999
187.242	15.542	926.084	704.751
188.256	15.596	925.542	704.506
189.271	15.538	924.448	703.368
190.286	15.401	923.909	702.320
191.300	15.050	923.195	700.247
192.315	15.107	922.451	699.858
193.329	15.122	922.143	699.625
194.344	15.162	921.517	699.258
195.359	15.354	920.850	699.490
196.373	15.381	920.368	699.176
197.388	15.547	919.936	699.476
198.402	15.636	919.426	699.394
199.417	15.635	919.054	699.048
200.432	15.718	918.503	698.913
201.446	15.809	917.544	698.497
202.461	15.809	917.426	698.346
203.475	15.854	916.520	697.778
204.490	15.737	915.558	696.501
205.504	15.686	914.654	695.541
206.519	15.765	913.878	695.217
207.534	15.511	913.709	693.976
208.548	15.658	912.781	693.819
209.563	15.532	912.600	693.100
210.577	15.656	911.802	692.944
211.592	15.922	910.928	693.313
212.607	15.906	910.378	692.768
213.621	15.799	909.556	691.641
214.636	15.896	908.831	691.424
215.650	15.841	908.145	690.615
216.665	15.935	907.727	690.624
217.680	16.025	906.717	690.164
218.694	16.032	906.099	689.662
219.709	15.881	905.992	688.898
220.723	16.059	904.988	688.803
221.738	16.046	903.997	687.935
222.753	16.078	903.337	687.500
223.767	15.977	903.327	687.020
224.782	16.114	902.404	686.817
225.796	16.151	901.991	686.592
226.811	15.977	901.447	685.409
227.826	15.999	900.806	684.951
228.840	15.969	899.875	684.061
229.855	15.950	899.423	683.581
230.869	16.089	898.030	683.025
231.884	15.938	897.803	682.179
232.899	15.854	897.449	681.510
233.913	15.843	896.727	680.857
234.928	15.942	895.941	680.599
235.942	15.930	895.109	679.857
236.957	15.795	894.978	679.154
237.972	16.018	893.674	679.003
238.986	15.806	893.341	677.834
240.001	15.967	892.315	677.644
241.015	16.028	892.217	677.756
242.030	16.084	891.414	677.310
243.045	16.004	891.096	676.687
244.059	16.052	890.247	676.177
245.074	16.068	890.032	676.016
246.088	16.102	889.362	675.583
247.103	16.185	888.519	675.216
248.117	16.195	888.239	674.982
249.132	16.382	887.867	675.389
250.147	16.658	887.040	675.804
251.161	16.466	886.518	674.578
252.176	16.569	885.902	674.462
253.190	16.711	885.184	674.420
254.205	16.666	884.398	673.585
255.220	16.577	883.745	672.673
256.234	16.629	883.437	672.587
257.249	16.674	882.644	672.100
258.263	16.779	881.385	671.500
259.278	16.673	881.087	670.794
260.293	16.733	880.590	670.593
261.307	16.801	880.276	670.565
262.322	16.802	879.631	670.016
263.336	17.000	878.389	669.791
264.351	16.878	877.889	668.870
265.366	16.870	877.145	668.215
266.380	16.858	876.613	667.701
267.395	16.789	876.223	667.074
268.409	16.831	875.377	666.534
269.424	16.794	874.502	665.666
270.439	16.806	873.765	665.093
271.453	16.594	873.276	663.831
272.468	16.650	872.886	663.695
273.482	16.762	872.077	663.458
274.497	16.817	871.282	663.012
275.512	16.849	870.868	662.760
276.526	16.801	870.417	662.174
277.541	16.799	869.878	661.698
278.555	16.738	869.788	661.330
279.570	16.980	868.650	661.349
280.585	17.086	867.876	661.115
281.599	16.917	867.215	659.895
282.614	16.835	866.905	659.284
283.628	16.890	866.152	658.866
284.643	16.852	865.503	658.168
285.657	16.841	865.163	657.805
286.672	16.968	864.361	657.633
287.687	17.060	863.591	657.342
288.701	17.024	862.898	656.617
289.716	16.968	862.427	655.984
290.730	16.994	861.943	655.661
291.745	17.023	861.494	655.374
292.760	17.011	860.605	654.591
293.774	17.181	860.224	654.900
294.789	17.089	859.545	653.969
295.803	17.156	858.576	653.431
296.818	17.119	857.990	652.785
297.833	17.008	857.520	651.945
298.847	17.128	856.892	651.871
299.862	17.218	856.148	651.593
300.876	17.130	855.987	651.074
301.891	17.294	854.896	650.816
302.906	17.234	855.154	650.723
303.920	17.423	854.043	650.543
304.935	17.402	853.324	649.858
305.949	17.217	852.893	648.766
306.964	17.370	852.195	648.762
307.979	17.487	851.485	648.611
308.993	17.402	851.281	648.074
310.008	17.496	850.649	647.893
311.022	17.318	850.008	646.670
312.037	17.166	849.589	645.714
313.052	17.170	848.734	645.025
314.066	17.303	847.944	644.871
315.081	17.244	847.354	644.143
316.095	17.177	846.871	643.462
317.110	17.302	846.131	643.319
318.125	17.362	845.751	643.198
319.139	17.359	845.225	642.732
320.154	17.331	845.128	642.495
321.168	17.275	845.034	642.155
322.183	17.416	843.572	641.517
323.197	17.251	843.753	640.975
324.212	17.453	842.769	640.933
325.227	17.388	842.178	640.182
326.241	17.339	841.782	639.640
327.256	17.353	841.374	639.327
328.270	17.383	840.533	638.742
329.285	17.525	839.980	638.799
330.300	17.372	839.260	637.623
331.314	17.360	838.934	637.273
332.329	17.596	838.374	637.672
333.343	17.490	838.038	636.966
334.358	17.452	838.019	636.753
335.373	17.527	837.603	636.659
336.387	17.708	836.902	636.747
337.402	17.795	836.236	636.508
338.416	17.723	836.588	636.453
339.431	17.920	836.045	636.719
340.446	17.790	835.734	635.941
341.460	17.764	835.294	635.451
342.475	17.930	834.615	635.496
343.489	17.946	834.334	635.286
344.504	17.918	833.856	634.760
345.519	18.064	833.412	634.910
346.533	18.011	832.976	634.324
347.548	18.012	832.329	633.781
348.562	17.771	831.695	632.347
349.577	17.740	830.880	631.557
350.592	17.717	830.316	630.988
351.606	17.743	829.712	630.568
352.621	17.837	828.962	630.289
353.635	17.950	828.138	630.023
354.650	17.958	827.649	629.628
355.665	17.857	827.523	629.102
356.679	17.859	827.031	628.679
357.694	17.913	826.008	628.045
358.708	17.948	825.588	627.802
359.723	17.933	825.236	627.420
360.738	17.980	824.416	626.915
361.752	17.971	824.043	626.542
362.767	17.942	823.536	625.995
363.781	18.150	822.990	626.287
364.796	18.231	822.802	626.386
365.810	18.231	822.158	625.840
366.825	18.409	821.496	625.932
367.840	18.425	820.883	625.467
368.854	18.169	820.509	624.193
369.869	18.304	820.208	624.401
370.883	18.240	820.092	624.023
371.898	18.263	819.772	623.807
372.913	18.319	819.184	623.510
373.927	18.331	818.527	622.997
374.942	18.373	818.252	622.886
375.956	18.403	817.714	622.531
376.971	18.385	817.478	622.230
377.986	18.431	817.165	622.103
379.000	18.542	816.431	621.893
380.015	18.453	815.645	620.917
381.029	18.587	814.426	620.419
382.044	18.667	814.591	620.781
383.059	18.594	813.875	619.913
384.073	18.451	813.556	619.098
385.088	18.274	813.006	617.986
386.102	18.522	812.201	618.216
387.117	18.450	811.681	617.504
388.132	18.404	811.531	617.170
389.146	18.428	810.645	616.529
390.161	18.563	810.345	616.731
391.175	18.553	810.112	616.463
392.190	18.342	809.549	615.222
393.205	18.565	808.925	615.497
394.219	18.404	808.528	614.561
395.234	18.602	808.045	614.849
396.248	18.442	807.301	613.657
397.263	18.412	806.933	613.214
398.278	18.324	806.549	612.552
399.292	18.348	806.386	612.460
400.307	18.481	805.460	612.179
401.321	18.641	804.749	612.154
402.336	18.398	805.208	611.584
403.350	18.496	804.344	611.223
404.365	18.735	803.895	611.677
405.380	18.627	803.881	611.229
406.394	18.772	803.020	611.035
407.409	18.850	802.459	610.830
408.423	18.891	802.235	610.754
409.438	18.906	801.970	610.552
410.453	18.910	801.358	610.045
411.467	19.091	800.866	610.257
412.482	18.999	800.536	609.627
413.496	18.959	800.176	609.157
414.511	19.009	800.108	609.227
415.526	19.014	799.665	608.853
416.540	19.070	799.032	608.518
417.555	19.162	798.383	608.295
418.569	18.981	798.266	607.512
419.584	19.064	797.851	607.436
420.599	18.941	797.679	606.816
421.613	155.580	1370.100	1790.958
422.628	134.796	1453.513	1791.036
