DTS Sentinel unit serial number:	SN413079Multiplexer serial number:	ORYXHardware model number:	OX4-SRSoftware version number:	ORYX F/W v4.00 Oryx Data Collector v3.7.2.0data status	okinstallation	princeton_trtdifferential loss correction	single-endedforward channel	channel 1reverse channel	N/Adate	2019/09/12time	19:16:34forward acquisition time	15.00reverse acquisition time	0.00gamma	496.2192k internal	0.2321k external	0.2321temperature offset calibration	1.0129default loss term (dB/km)	0.3790temperature slope calibration	1.0000multiplexer offset coefficient	1.0000multiplexer slope coefficient	1.0000fibre end	0.00T internal ref (°C)	32.50T ext. ref 1 (°C)	3.21T ext. ref 2 (°C)	27.02length (m)	temperature (°C)	Stokes	anti-Stokes-747.200	-117.744	0.446	0.081
-746.185	185.464	-0.220	-0.330
-745.171	-200.000	0.095	0.762
-744.156	515.275	-0.127	0.299
-743.142	-200.000	-0.098	-0.739
-742.127	-34.292	-0.771	0.428
-741.112	-28.725	0.714	0.415
-740.098	268.243	-0.195	0.345
-739.083	26.678	0.693	0.586
-738.069	-65.214	-0.663	0.270
-737.054	-132.597	0.620	-0.080
-736.039	-109.727	0.430	-0.091
-735.025	-200.000	-0.087	0.624
-734.010	-48.207	-0.649	0.316
-732.996	-41.416	-0.509	-0.265
-731.981	-115.416	-0.666	-0.127
-730.966	68.376	0.149	0.154
-729.952	-63.281	0.643	0.268
-728.937	-53.231	-0.624	-0.289
-727.923	-46.197	0.303	0.151
-726.908	800.000	-0.122	0.489
-725.894	-200.000	0.063	-0.639
-724.879	-200.000	-0.068	0.396
-723.864	-60.431	-0.636	-0.273
-722.850	-74.460	-0.872	-0.317
-721.835	800.000	0.057	0.195
-720.821	-88.287	0.274	-0.083
-719.806	14.905	-0.304	-0.240
-718.791	-137.327	-1.071	-0.123
-717.777	55.832	-0.413	0.405
-716.762	-67.091	0.320	0.127
-715.748	-53.469	-0.430	0.199
-714.733	-200.000	0.021	-0.430
-713.718	-8.103	0.172	0.117
-712.704	-200.000	0.047	0.963
-711.689	389.655	-0.339	-0.710
-710.675	457.045	-0.040	-0.091
-709.660	-116.823	-0.664	0.123
-708.645	135.858	0.394	0.519
-707.631	-70.737	-0.247	-0.094
-706.616	148.432	-0.569	0.775
-705.602	800.000	0.191	0.785
-704.587	72.237	0.109	0.115
-703.572	105.920	0.337	-0.402
-702.558	-51.450	0.696	0.328
-701.543	-25.539	0.415	0.247
-700.529	-200.000	-0.004	-0.126
-699.514	565.486	0.186	-0.455
-698.499	213.854	0.334	-0.533
-697.485	169.457	-0.246	-0.354
-696.470	132.787	0.611	0.795
-695.456	45.992	0.504	0.470
-694.441	-68.238	-1.042	-0.409
-693.426	-200.000	0.106	0.794
-692.412	800.000	0.018	-0.063
-691.397	800.000	-0.125	0.413
-690.383	-200.000	0.042	-0.512
-689.368	800.000	0.201	-0.765
-688.354	-39.634	-0.464	-0.245
-687.339	-200.000	-0.003	-0.446
-686.324	-28.503	-0.426	0.248
-685.310	30.823	-0.618	-0.534
-684.295	179.541	-0.349	-0.515
-683.281	-154.127	-0.903	-0.062
-682.266	37.393	0.552	0.493
-681.251	-200.000	-0.025	0.506
-680.237	800.000	0.135	-0.392
-679.222	118.072	0.218	-0.270
-678.208	-94.831	-0.080	-0.022
-677.193	-6.805	-0.168	-0.115
-676.178	-200.000	-0.031	-0.488
-675.164	-70.288	0.846	-0.324
-674.149	800.000	0.128	-0.524
-673.135	-200.000	0.026	-0.213
-672.120	571.432	-0.125	0.306
-671.105	800.000	-0.071	-0.261
-670.091	-10.756	0.452	-0.301
-669.076	181.008	0.358	0.530
-668.062	120.120	-0.386	-0.482
-667.047	-43.479	-0.539	0.274
-666.032	53.179	-0.392	0.379
-665.018	-4.816	0.420	-0.292
-664.003	-167.329	0.781	-0.032
-662.989	292.449	-0.312	0.572
-661.974	138.738	0.412	-0.545
-660.959	-200.000	-0.040	-0.342
-659.945	361.166	0.134	-0.271
-658.930	587.301	0.209	0.518
-657.916	-200.000	0.062	-0.400
-656.901	455.198	0.207	0.462
-655.886	-125.222	0.773	-0.119
-654.872	1.215	0.319	0.231
-653.857	409.384	0.266	0.568
-652.843	152.857	-0.259	0.357
-651.828	5.410	-0.457	0.340
-650.814	26.313	0.657	0.553
-649.799	-24.444	0.615	-0.369
-648.784	-62.296	0.622	-0.261
-647.770	-36.106	-0.849	-0.462
-646.755	-200.000	0.030	-0.337
-645.741	325.422	-0.400	0.771
-644.726	-107.234	1.147	-0.254
-643.711	800.000	-0.081	0.237
-642.697	330.665	0.450	0.873
-641.682	442.500	0.342	-0.754
-640.668	166.480	-0.387	0.553
-639.653	-143.956	-0.167	-0.016
-638.638	-83.613	-0.273	0.088
-637.624	-200.000	0.049	-0.447
-636.609	-133.268	0.673	0.086
-635.595	128.364	-0.472	0.604
-634.580	-194.778	-0.694	-0.005
-633.565	32.484	0.416	-0.362
-632.551	249.323	0.192	-0.328
-631.536	-52.496	-0.806	-0.375
-630.522	-200.000	0.007	0.189
-629.507	169.749	-0.358	-0.514
-628.492	366.491	0.099	-0.201
-627.478	10.885	-0.484	0.372
-626.463	6.830	0.354	0.265
-625.449	-153.898	0.403	0.028
-624.434	-200.000	0.108	-0.519
-623.419	279.202	0.210	0.377
-622.405	-200.000	0.174	0.818
-621.390	530.539	0.412	0.980
-620.376	70.227	-0.390	-0.405
-619.361	-85.560	0.990	-0.310
-618.346	-112.553	-0.135	-0.027
-617.332	800.000	0.277	0.861
-616.317	-143.146	0.857	-0.083
-615.303	-14.081	-0.678	-0.440
-614.288	354.463	-0.252	0.503
-613.273	-183.235	-0.309	-0.005
-612.259	-200.000	0.027	-0.544
-611.244	91.397	0.472	-0.533
-610.230	-93.036	0.436	-0.122
-609.215	-9.929	-0.295	-0.197
-608.201	64.687	0.568	0.576
-607.186	63.703	0.645	0.652
-606.171	-200.000	-0.152	-0.869
-605.157	253.668	-0.737	-1.265
-604.142	-96.051	-0.748	-0.200
-603.128	-28.696	-0.333	-0.193
-602.113	345.350	-0.084	-0.166
-601.098	330.257	-0.528	-1.022
-600.084	800.000	-0.343	-0.963
-599.069	-79.371	0.587	-0.200
-598.055	-59.406	0.434	0.187
-597.040	5.224	-0.035	-0.026
-596.025	-200.000	0.014	0.424
-595.011	-50.084	-0.323	-0.154
-593.996	-44.932	-0.445	0.223
-592.982	-68.697	0.525	0.204
-591.967	-118.661	-0.828	-0.147
-590.952	-23.637	0.745	-0.449
-589.938	-115.635	0.323	-0.061
-588.923	-70.385	0.631	0.240
-587.909	72.895	-0.391	0.410
-586.894	-159.530	0.320	-0.018
-585.879	-33.196	0.610	0.340
-584.865	-148.006	-0.170	0.014
-583.850	-200.000	-0.055	0.368
-582.836	148.181	-0.210	0.285
-581.821	-67.445	-0.111	0.044
-580.806	-100.433	-0.754	-0.188
-579.792	8.047	-0.256	0.193
-578.777	800.000	-0.069	-0.236
-577.763	-200.000	0.017	0.140
-576.748	101.682	-0.066	-0.078
-575.733	68.448	-0.615	-0.633
-574.719	207.326	-0.281	0.440
-573.704	-200.000	0.214	0.956
-572.690	23.953	-0.343	-0.284
-571.675	-73.912	1.019	-0.372
-570.661	152.457	-0.728	0.998
-569.646	495.739	-0.122	0.281
-568.631	-87.570	0.209	0.063
-567.617	423.027	-0.305	-0.659
-566.602	800.000	-0.136	0.545
-565.588	-124.144	-0.394	0.062
-564.573	-36.122	0.826	0.448
-563.558	800.000	-0.114	0.447
-562.544	77.598	0.320	0.342
-561.529	-23.922	-0.341	-0.205
-560.515	60.090	0.350	0.347
-559.500	115.419	-0.463	-0.568
-558.485	800.000	-0.170	0.685
-557.471	-171.381	-1.042	0.035
-556.456	414.175	-0.027	0.058
-555.442	800.000	-0.198	-0.821
-554.427	-108.965	0.214	-0.046
-553.412	-88.457	0.582	-0.174
-552.398	504.228	-0.133	-0.309
-551.383	-116.815	-0.803	0.148
-550.369	-72.838	-0.622	-0.230
-549.354	-200.000	0.041	-0.203
-548.339	-200.000	0.069	0.467
-547.325	-23.119	0.677	0.409
-546.310	130.062	0.399	-0.512
-545.296	-30.187	-0.150	-0.085
-544.281	-52.645	0.252	-0.117
-543.266	225.229	-0.324	-0.527
-542.252	291.631	0.233	-0.425
-541.237	800.000	-0.300	1.120
-540.223	214.319	-0.389	0.617
-539.208	-13.979	1.105	0.716
-538.193	89.764	0.644	-0.721
-537.179	-106.843	-0.009	0.002
-536.164	-200.000	0.088	-0.569
-535.150	2.563	-1.078	-0.783
-534.135	-53.649	-0.695	0.318
-533.121	-200.000	0.029	-0.186
-532.106	107.722	0.266	-0.318
-531.091	-184.988	1.366	0.022
-530.077	-0.259	-0.544	0.388
-529.062	-82.407	0.702	0.229
-528.048	40.065	-0.359	-0.324
-527.033	-23.667	0.297	0.179
-526.018	93.568	0.237	0.269
-525.004	473.649	-0.138	0.312
-523.989	-200.000	0.001	0.044
-522.975	-81.531	-0.109	-0.036
-521.960	-35.539	0.523	0.284
-520.945	-86.441	-0.439	0.135
-519.931	-80.952	-0.163	-0.054
-518.916	-173.981	0.454	-0.013
-517.902	-200.000	0.049	-0.417
-516.887	-9.667	0.474	0.316
-515.872	153.515	-0.459	0.630
-514.858	797.480	-0.152	0.419
-513.843	103.519	-0.317	-0.373
-512.829	-22.638	-0.531	0.322
-511.814	800.000	0.301	-0.869
-510.799	-118.049	0.741	0.133
-509.785	-80.142	-1.407	-0.472
-508.770	-200.000	-0.252	1.215
-507.756	-175.553	0.624	-0.017
-506.741	-29.495	0.122	-0.070
-505.726	-61.307	0.277	-0.117
-504.712	-200.000	0.001	0.781
-503.697	100.389	-0.327	-0.380
-502.683	-5.731	-0.704	0.483
-501.668	-77.316	-0.221	0.077
-500.653	150.133	0.574	-0.780
-499.639	800.000	0.167	0.524
-498.624	61.272	-0.253	-0.252
-497.610	22.511	0.436	0.357
-496.595	-128.847	-0.126	0.018
-495.581	57.539	-0.278	0.272
-494.566	-146.842	0.712	0.061
-493.551	-59.185	-0.800	0.345
-492.537	-95.660	-0.215	-0.058
-491.522	-200.000	0.026	-0.794
-490.508	-77.372	-0.719	-0.250
-489.493	136.130	0.227	0.297
-488.478	49.318	-0.294	-0.277
-487.464	-94.626	-0.471	0.128
-486.449	800.000	0.314	-1.123
-485.435	107.533	-0.382	0.455
-484.420	-107.976	0.545	0.118
-483.405	140.083	-0.176	0.232
-482.391	481.368	0.061	-0.138
-481.376	123.993	-0.419	0.526
-480.362	-65.471	0.563	0.226
-479.347	156.478	0.110	-0.152
-478.332	-200.000	0.062	-0.517
-477.318	-200.000	0.071	-0.695
-476.303	800.000	-0.234	-0.836
-475.289	66.516	0.211	0.215
-474.274	52.780	0.318	0.304
-473.259	-200.000	0.072	-0.350
-472.245	655.572	0.145	-0.373
-471.230	-126.760	-0.313	-0.046
-470.216	-85.426	-0.301	-0.094
-469.201	184.575	-0.138	0.204
-468.186	-155.392	0.430	-0.028
-467.172	73.582	-0.174	-0.182
-466.157	-200.000	-0.035	0.632
-465.143	21.896	1.007	0.821
-464.128	85.540	0.176	-0.193
-463.113	800.000	-0.213	-0.600
-462.099	39.318	0.730	0.653
-461.084	150.423	0.213	0.289
-460.070	127.836	0.359	-0.456
-459.055	-92.773	-0.144	0.040
-458.040	16.115	0.960	-0.756
-457.026	800.000	-0.172	0.724
-456.011	128.197	-0.464	0.590
-454.997	800.000	-0.206	0.727
-453.982	-114.867	-0.217	-0.041
-452.968	287.178	-0.208	-0.376
-451.953	748.652	0.317	0.854
-450.938	-62.408	0.379	0.158
-449.924	-200.000	-0.086	-0.380
-448.909	800.000	0.013	-0.041
-447.895	217.254	-0.054	0.086
-446.880	-200.000	-0.040	-0.347
-445.865	-12.154	0.517	-0.338
-444.851	102.300	-0.260	-0.303
-443.836	33.015	0.470	-0.407
-442.822	712.890	-0.219	-0.580
-441.807	-108.675	-0.591	-0.127
-440.792	-31.060	0.425	-0.240
-439.778	800.000	0.174	0.532
-438.763	-200.000	-0.005	-0.260
-437.749	-200.000	-0.069	0.406
-436.734	48.085	0.143	0.134
-435.719	-105.548	0.881	0.200
-434.705	-168.371	-0.430	-0.017
-433.690	-86.131	-0.794	-0.245
-432.676	405.973	-0.013	-0.028
-431.661	155.273	-0.568	-0.780
-430.646	40.065	-0.317	0.284
-429.632	-27.075	-0.758	0.441
-428.617	-23.441	-0.548	0.329
-427.603	466.653	-0.353	-0.789
-426.588	-200.000	0.071	-0.862
-425.573	-200.000	-0.085	0.711
-424.559	458.005	0.326	0.724
-423.544	-105.446	-0.574	-0.130
-422.530	-2.111	0.471	-0.330
-421.515	40.138	-0.348	0.313
-420.500	-125.177	-0.300	-0.046
-419.486	-64.099	0.710	-0.289
-418.471	16.578	0.331	0.261
-417.457	638.208	-0.208	-0.529
-416.442	-20.075	0.721	0.444
-415.428	-75.570	-0.628	0.223
-414.413	267.336	-0.305	-0.533
-413.398	66.636	0.349	-0.354
-412.384	-200.000	0.090	-0.618
-411.369	-200.000	-0.003	0.119
-410.355	-200.000	0.063	-0.378
-409.340	-36.477	0.937	0.503
-408.325	-103.876	0.510	-0.119
-407.311	244.210	-0.249	0.417
-406.296	-93.649	0.252	-0.069
-405.282	-143.781	0.844	-0.080
-404.267	515.612	0.375	0.873
-403.252	82.784	-0.626	0.678
-402.238	-8.471	0.120	-0.080
-401.223	-162.604	-1.633	0.080
-400.209	-15.613	-0.509	-0.324
-399.194	-127.570	-0.778	-0.113
-398.179	800.000	0.216	-0.928
-397.165	29.280	0.479	-0.405
-396.150	-72.030	-0.433	-0.160
-395.136	-3.241	-0.543	0.378
-394.121	-200.000	-0.111	0.597
-393.106	800.000	-0.123	0.397
-392.092	-200.000	0.025	0.162
-391.077	-134.278	-0.659	0.081
-390.063	-200.000	-0.037	0.173
-389.048	-72.111	0.613	-0.227
-388.033	114.263	-0.206	-0.251
-387.019	800.000	-0.166	-0.503
-386.004	-200.000	-0.002	-0.094
-384.990	-89.084	0.904	-0.266
-383.975	-83.294	0.217	0.069
-382.960	356.929	0.472	0.939
-381.946	-87.378	-1.061	-0.320
-380.931	-184.419	-0.314	-0.005
-379.917	-95.465	0.675	0.181
-378.902	-200.000	0.121	-0.553
-377.888	706.473	-0.081	-0.213
-376.873	-44.382	-0.376	-0.187
-375.858	-185.290	-0.297	-0.005
-374.844	-200.000	0.123	-0.727
-373.829	-200.000	-0.038	-0.640
-372.815	-84.060	-0.775	-0.245
-371.800	34.215	0.077	0.067
-370.785	78.451	-0.243	0.258
-369.771	-13.422	0.654	0.423
-368.756	-165.712	-0.388	-0.017
-367.742	800.000	-0.011	0.039
-366.727	4.358	0.566	0.414
-365.712	-88.876	0.479	-0.142
-364.698	382.688	-0.107	-0.220
-363.683	12.956	-0.214	0.165
-362.669	353.836	-0.135	-0.267
-361.654	51.991	-0.371	0.352
-360.639	390.820	0.602	-1.244
-359.625	358.301	-0.394	-0.783
-358.610	-113.789	-0.500	0.097
-357.596	65.961	0.249	0.252
-356.581	-113.364	0.589	-0.115
-355.566	161.046	-0.243	0.338
-354.552	-93.364	-0.684	0.189
-353.537	48.764	-0.614	0.574
-352.523	-70.148	0.491	0.186
-351.508	468.684	0.195	-0.436
-350.493	-49.779	-0.615	0.291
-349.479	20.984	-0.763	0.616
-348.464	194.834	-0.462	-0.698
-347.450	-200.000	-0.088	-0.604
-346.435	-69.529	-0.276	-0.105
-345.420	52.538	0.178	-0.169
-344.406	-200.000	-0.091	0.401
-343.391	-18.096	-0.782	-0.488
-342.377	-155.683	-0.445	0.028
-341.362	550.190	0.321	0.766
-340.348	800.000	0.067	0.229
-339.333	-56.901	-0.378	0.166
-338.318	-58.771	0.521	-0.224
-337.304	-200.000	0.012	-0.210
-336.289	-200.000	0.185	-0.876
-335.275	167.325	-0.150	0.212
-334.260	-9.317	-0.043	-0.028
-333.245	228.197	-0.183	0.297
-332.231	82.248	0.115	-0.124
-331.216	78.222	0.376	0.400
-330.202	31.859	-0.630	0.540
-329.187	-98.674	0.437	0.111
-328.172	-64.760	-0.150	-0.061
-327.158	109.386	-0.370	-0.441
-326.143	100.628	0.181	-0.209
-325.129	-200.000	0.147	0.663
-324.114	-200.000	-0.016	0.328
-323.099	93.677	-0.183	-0.206
-322.085	92.177	0.406	0.455
-321.070	-150.803	0.577	0.044
-320.056	31.094	-0.013	-0.011
-319.041	-86.527	0.513	0.156
-318.026	-59.563	0.570	-0.243
-317.012	-200.000	0.220	-1.150
-315.997	-200.000	0.175	-1.220
-314.983	-18.932	0.318	0.197
-313.968	10.758	-0.609	0.462
-312.953	-44.115	0.395	-0.197
-311.939	-101.174	-0.274	-0.067
-310.924	140.486	0.105	-0.138
-309.910	-60.897	0.422	0.178
-308.895	558.045	-0.311	-0.746
-307.880	800.000	-0.093	-0.275
-306.866	-200.000	-0.025	-0.332
-305.851	-119.972	0.907	0.155
-304.837	-26.146	0.532	0.311
-303.822	626.370	0.338	-0.847
-302.807	69.712	0.359	0.367
-301.793	800.000	-0.101	-0.364
-300.778	-33.783	-0.581	-0.318
-299.764	-200.000	-0.035	0.294
-298.749	-200.000	-0.046	0.543
-297.735	621.768	0.475	1.189
-296.720	34.713	0.737	-0.640
-295.705	330.851	0.151	0.288
-294.691	105.101	0.171	0.200
-293.676	800.000	-0.050	-0.207
-292.662	800.000	0.068	0.296
-291.647	41.946	-0.672	-0.605
-290.632	-200.000	0.001	0.286
-289.618	800.000	0.167	-0.538
-288.603	-84.726	-0.906	-0.283
-287.589	-2.170	0.256	0.178
-286.574	-160.592	0.489	0.026
-285.559	-115.700	-0.218	-0.041
-284.545	-142.939	-0.130	0.013
-283.530	-117.299	0.277	0.050
-282.516	69.976	0.569	0.583
-281.501	47.768	0.416	-0.385
-280.486	71.977	0.194	-0.200
-279.472	-30.856	-0.663	-0.372
-278.457	-200.000	0.077	0.662
-277.443	800.000	0.205	-0.667
-276.428	-12.017	0.179	0.116
-275.413	55.057	-0.666	0.639
-274.399	8.936	-0.695	0.521
-273.384	-100.942	0.490	0.119
-272.370	-200.000	0.063	-1.090
-271.355	-58.118	0.520	0.225
-270.340	247.218	0.299	0.501
-269.326	-57.472	-0.756	0.329
-268.311	-125.818	0.462	0.069
-267.297	-182.452	-0.355	0.006
-266.282	80.338	-0.671	-0.716
-265.267	-138.308	0.823	0.090
-264.253	-131.121	0.669	0.088
-263.238	88.913	-0.450	-0.497
-262.224	-200.000	-0.088	-0.734
-261.209	800.000	-0.112	-0.411
-260.195	-200.000	-0.086	-0.661
-259.180	-200.000	0.036	-0.400
-258.165	-200.000	0.017	-0.277
-257.151	157.765	0.501	0.688
-256.136	-200.000	0.034	-0.487
-255.122	-74.926	-0.501	-0.178
-254.107	156.061	0.494	0.675
-253.092	384.063	0.431	0.879
-252.078	800.000	0.096	0.350
-251.063	196.418	0.134	0.202
-250.049	197.936	0.256	-0.388
-249.034	184.035	0.256	-0.376
-248.019	-126.731	0.785	0.115
-247.005	624.278	0.162	0.405
-245.990	250.561	0.127	0.214
-244.976	12.360	0.384	0.293
-243.961	-63.329	-0.439	0.179
-242.946	-137.458	0.713	-0.080
-241.932	-77.367	-0.010	0.004
-240.917	256.980	0.186	-0.317
-239.903	-40.151	0.631	-0.326
-238.888	68.048	0.165	-0.168
-237.873	-56.962	0.656	0.287
-236.859	-60.880	-0.320	-0.134
-235.844	109.594	-0.308	-0.366
-234.830	-107.448	0.255	0.056
-233.815	800.000	-0.006	-0.021
-232.800	-5.560	-0.374	0.254
-231.786	335.855	0.093	-0.179
-230.771	-119.160	-0.475	0.082
-229.757	-200.000	0.027	0.503
-228.742	-118.190	-0.411	-0.073
-227.727	-118.487	0.333	-0.058
-226.713	-44.536	-0.177	-0.088
-225.698	-200.000	0.074	-0.670
-224.684	-39.354	-0.629	-0.327
-223.669	-190.104	-0.952	0.011
-222.655	-200.000	0.030	0.547
-221.640	432.916	-0.075	0.162
-220.625	-200.000	-0.037	-0.706
-219.611	7.649	0.268	-0.199
-218.596	348.717	-0.333	-0.652
-217.582	85.432	-0.641	0.697
-216.567	-68.119	-0.239	0.092
-215.552	800.000	-0.213	0.769
-214.538	273.268	-0.231	-0.405
-213.523	-46.745	-0.162	-0.078
-212.509	652.628	0.168	0.426
-211.494	122.492	-0.153	0.189
-210.479	508.955	0.275	-0.634
-209.465	-118.209	-0.519	0.092
-208.450	77.814	0.080	0.085
-207.436	-9.952	1.163	0.766
-206.421	365.115	-0.395	0.787
-205.406	-20.272	0.170	0.104
-204.392	-96.912	0.449	0.117
-203.377	79.464	-0.291	0.309
-202.363	92.884	0.594	0.664
-201.348	-200.000	-0.076	0.424
-200.333	0.942	-0.351	-0.249
-199.319	-36.938	0.384	0.204
-198.304	24.579	-0.471	-0.386
-197.290	-200.000	0.015	-0.190
-196.275	-16.379	-0.131	-0.082
-195.260	670.707	0.159	0.407
-194.246	-53.993	0.329	0.148
-193.231	655.145	-0.186	-0.471
-192.217	648.497	-0.103	-0.261
-191.202	800.000	-0.104	0.288
-190.187	-29.929	0.496	0.279
-189.173	-40.645	-0.345	-0.177
-188.158	-62.799	-0.797	-0.326
-187.144	-104.522	0.435	-0.099
-186.129	800.000	-0.060	-0.250
-185.114	-61.146	-0.265	0.111
-184.100	-94.327	-0.426	-0.115
-183.085	-198.641	0.441	-0.002
-182.071	152.255	-0.064	0.087
-181.056	-120.088	-0.382	-0.065
-180.042	19.043	0.570	0.452
-179.027	637.548	-0.179	-0.449
-178.012	175.296	0.615	-0.881
-176.998	637.210	-0.269	-0.676
-175.983	90.131	0.076	0.084
-174.969	-138.967	-0.452	0.048
-173.954	12.300	0.244	0.186
-172.939	-160.697	0.455	-0.024
-171.925	9.768	-0.254	0.190
-170.910	-105.747	0.316	-0.071
-169.896	-50.525	0.251	0.117
-168.881	-11.838	-0.293	-0.190
-167.866	-30.708	-0.178	-0.100
-166.852	-135.278	0.536	-0.064
-165.837	91.759	-0.248	-0.276
-164.823	800.000	0.199	0.639
-163.808	-61.355	0.406	0.169
-162.793	524.796	-0.277	0.644
-161.779	800.000	-0.086	0.324
-160.764	800.000	0.253	0.726
-159.750	593.973	-0.122	0.297
-158.735	800.000	0.034	-0.116
-157.720	32.105	-0.475	0.405
-156.706	-1.869	-0.307	-0.213
-155.691	-111.861	-0.321	-0.064
-154.677	-200.000	-0.012	-0.156
-153.662	-200.000	-0.130	1.254
-152.647	800.000	-0.117	0.321
-151.633	-200.000	-0.003	0.995
-150.618	280.492	0.483	-0.854
-149.604	-200.000	-0.203	0.929
-148.589	361.508	0.262	-0.519
-147.574	153.866	0.395	-0.534
-146.560	188.299	0.256	0.378
-145.545	-24.689	-0.384	-0.225
-144.531	309.795	-0.092	0.170
-143.516	101.876	-0.246	-0.284
-142.502	-123.790	-0.438	0.068
-141.487	298.989	0.208	-0.378
-140.472	-146.835	-0.223	0.019
-139.458	-200.000	-0.008	-0.461
-138.443	-200.000	-0.044	-0.254
-137.429	-79.091	0.014	-0.005
-136.414	-70.996	-0.221	-0.082
-135.399	-29.942	-0.682	-0.383
-134.385	9.527	0.191	-0.143
-133.370	-28.419	0.638	-0.363
-132.356	-14.275	-0.201	0.128
-131.341	119.396	-0.388	0.474
-130.326	408.781	0.298	0.623
-129.312	260.469	-0.180	0.307
-128.297	68.470	-0.398	-0.403
-127.283	-200.000	-0.100	-0.532
-126.268	52.599	-0.369	-0.348
-125.253	800.000	-0.039	-0.138
-124.239	-200.000	0.113	-0.545
-123.224	81.106	-0.336	-0.358
-122.210	800.000	-0.103	0.398
-121.195	38.085	0.207	0.181
-120.180	157.090	-0.198	0.270
-119.166	800.000	-0.147	0.409
-118.151	28.751	0.460	-0.385
-117.137	-11.218	0.651	0.423
-116.122	23.881	0.064	0.052
-115.107	800.000	-0.191	0.806
-114.093	-200.000	-0.001	0.373
-113.078	47.988	0.773	0.712
-112.064	-59.338	-0.450	-0.191
-111.049	-90.084	-0.202	0.058
-110.034	366.996	0.160	-0.319
-109.020	309.104	-0.117	-0.216
-108.005	-93.471	-0.694	0.190
-106.991	800.000	0.075	0.254
-105.976	-136.871	-0.458	-0.052
-104.962	800.000	0.157	-0.447
-103.947	80.750	0.454	0.482
-102.932	322.770	-0.178	-0.335
-101.918	-59.688	0.265	0.112
-100.903	-200.000	-0.062	-0.664
-99.889	-147.400	-0.044	0.004
-98.874	-168.104	0.181	0.007
-97.859	-200.000	0.064	-0.537
-96.845	-82.362	0.579	0.186
-95.830	334.014	-0.246	0.469
-94.816	190.698	0.198	-0.293
-93.801	-200.000	-0.018	0.168
-92.786	45.599	-0.714	0.650
-91.772	800.000	-0.189	-0.602
-90.757	214.735	0.467	0.729
-89.743	-54.568	-1.177	-0.525
-88.728	461.242	-0.164	0.361
-87.713	92.196	-0.377	0.419
-86.699	-200.000	-0.134	-0.752
-85.684	305.600	-0.162	0.296
-84.670	-76.347	-0.320	0.111
-83.655	-200.000	0.021	-0.277
-82.640	-97.856	-0.375	-0.096
-81.626	800.000	-0.188	-0.664
-80.611	-50.581	-0.380	0.177
-79.597	-153.607	0.246	0.017
-78.582	380.564	0.276	0.559
-77.567	-95.407	0.627	-0.166
-76.553	162.980	0.556	0.769
-75.538	169.092	-0.121	0.170
-74.524	150.853	0.422	0.565
-73.509	-5.233	-0.301	-0.204
-72.494	96.946	0.596	0.672
-71.480	-148.895	-0.042	0.003
-70.465	111.630	-0.345	-0.409
-69.451	-34.676	0.100	0.054
-68.436	800.000	0.257	0.722
-67.422	800.000	-0.141	-0.425
-66.407	518.180	0.182	0.419
-65.392	482.276	-0.324	0.724
-64.378	-61.306	-0.775	0.321
-63.363	-13.352	-0.471	-0.301
-62.349	-86.459	-0.135	-0.041
-61.334	107.503	-0.402	-0.470
-60.319	-82.706	1.397	0.445
-59.305	64.532	-0.761	-0.755
-58.290	772.080	0.406	1.088
-57.276	438.703	0.511	1.097
-56.261	-200.000	95.588	595.998
-55.246	679.960	1352.741	3465.461
-54.232	204.727	2515.391	3839.533
-53.217	120.154	2119.938	2588.249
-52.203	44.428	1592.772	1439.345
-51.188	36.134	1333.258	1155.345
-50.173	32.833	1292.390	1100.667
-49.159	56.008	1340.895	1280.057
-48.144	56.953	1357.588	1301.541
-47.130	36.031	1315.761	1139.392
-46.115	32.814	1298.473	1105.560
-45.100	32.473	1293.946	1099.669
-44.086	32.273	1292.295	1097.061
-43.071	32.602	1288.916	1096.062
-42.057	32.564	1286.391	1093.650
-41.042	32.569	1285.269	1092.679
-40.027	32.571	1283.603	1091.232
-39.013	32.371	1282.531	1089.119
-37.998	32.551	1279.533	1087.572
-36.984	32.446	1278.790	1086.293
-35.969	32.587	1276.303	1084.944
-34.954	32.431	1275.394	1083.234
-33.940	32.417	1273.022	1081.094
-32.925	32.656	1271.957	1081.521
-31.911	32.785	1270.465	1080.948
-30.896	32.454	1269.075	1077.827
-29.881	32.556	1268.682	1078.036
-28.867	32.691	1267.178	1077.482
-27.852	32.532	1265.397	1075.019
-26.838	32.626	1263.528	1073.925
-25.823	32.612	1261.965	1072.477
-24.809	32.860	1260.084	1072.243
-23.794	32.666	1259.133	1070.288
-22.779	32.657	1258.172	1069.379
-21.765	32.692	1256.811	1068.376
-20.750	32.361	1256.765	1066.422
-19.736	32.747	1253.731	1065.985
-18.721	32.626	1252.706	1064.392
-17.706	32.751	1251.772	1064.260
-16.692	32.371	1250.849	1061.287
-15.677	32.246	1250.814	1060.511
-14.663	32.308	1249.886	1060.029
-13.648	32.177	1249.447	1058.881
-12.633	32.142	1248.202	1057.588
-11.619	32.427	1246.623	1057.806
-10.604	32.486	1244.596	1056.374
-9.590	32.602	1243.864	1056.363
-8.575	32.329	1243.849	1054.777
-7.560	32.539	1241.571	1053.978
-6.546	32.380	1241.662	1053.128
-5.531	32.155	1240.904	1051.182
-4.517	32.669	1238.966	1052.372
-3.502	32.426	1238.842	1050.867
-2.487	32.290	1237.347	1048.799
-1.473	32.334	1233.675	1045.888
-0.458	30.685	1219.243	1024.541
0.556	28.452	1201.737	986.480
1.571	24.716	1205.246	969.072
2.586	23.382	1219.834	973.389
3.600	22.991	1206.910	960.865
4.615	17.142	1137.078	875.140
5.629	7.794	1060.932	771.320
6.644	3.632	1042.351	737.886
7.659	3.131	1039.788	733.616
8.673	3.031	1039.110	732.597
9.688	3.047	1036.340	730.656
10.702	3.718	1035.533	733.207
11.717	9.386	1043.557	765.869
12.731	19.089	1057.625	822.732
13.746	24.227	1062.731	851.241
14.761	24.644	1062.557	853.013
15.775	24.344	1061.951	851.024
16.790	24.113	1061.192	849.235
17.804	24.151	1059.025	847.610
18.819	23.606	1059.761	845.526
19.834	23.636	1060.587	846.253
20.848	23.767	1058.965	845.511
21.863	23.722	1058.562	844.900
22.877	24.110	1056.814	845.270
23.892	23.764	1057.108	843.786
24.907	23.706	1056.217	842.727
25.921	23.719	1055.466	842.113
26.936	23.696	1053.482	840.349
27.950	23.325	1051.837	837.208
28.965	23.831	1049.537	837.687
29.980	23.870	1049.181	837.514
30.994	23.795	1048.810	836.793
32.009	23.744	1047.913	835.760
33.023	23.777	1047.066	835.168
34.038	23.587	1045.855	833.238
35.053	23.557	1044.349	831.823
36.067	23.542	1043.917	831.333
37.082	23.644	1043.479	831.388
38.096	23.616	1043.251	831.001
39.111	24.100	1041.626	831.897
40.126	23.652	1040.328	828.697
41.140	22.929	1040.080	825.050
42.155	23.401	1036.915	824.662
43.169	23.273	1037.001	824.060
44.184	23.214	1036.022	822.939
45.199	23.068	1034.919	821.310
46.213	23.109	1035.009	821.502
47.228	23.712	1035.255	824.420
48.242	23.861	1033.880	823.946
49.257	23.669	1033.281	822.503
50.271	24.026	1031.587	822.735
51.286	23.995	1030.688	821.801
52.301	24.154	1029.558	821.563
53.315	23.870	1029.763	820.342
54.330	23.846	1028.213	818.923
55.344	23.749	1027.544	817.874
56.359	23.630	1026.012	816.035
57.374	23.519	1025.369	814.942
58.388	23.511	1023.848	813.622
59.403	23.433	1024.241	813.503
60.417	23.377	1023.121	812.287
61.432	23.337	1022.680	811.680
62.447	23.189	1022.302	810.632
63.461	23.169	1020.276	808.864
64.476	23.153	1019.626	808.201
65.490	23.414	1017.863	807.923
66.505	23.306	1018.686	808.010
67.520	23.061	1017.154	805.610
68.534	23.025	1016.649	804.976
69.549	22.597	1015.869	802.336
70.563	22.673	1015.372	802.219
71.578	22.636	1014.368	801.185
72.593	22.137	1013.425	798.107
73.607	22.474	1011.729	798.227
74.622	22.463	1012.714	798.884
75.636	22.590	1012.264	799.035
76.651	22.818	1010.640	798.715
77.666	22.973	1009.376	798.345
78.680	22.937	1009.141	797.927
79.695	22.846	1008.985	797.321
80.709	22.697	1009.775	797.199
81.724	22.910	1008.080	796.751
82.739	23.132	1007.458	797.189
83.753	23.639	1006.694	798.799
84.768	23.967	1007.022	800.464
85.782	24.157	1006.532	800.858
86.797	23.978	1005.089	798.835
87.812	24.167	1003.670	798.485
88.826	23.863	1002.751	796.319
89.841	24.000	1002.799	796.901
90.855	24.361	1000.906	796.941
91.870	24.120	1000.471	795.446
92.884	24.387	998.917	795.332
93.899	23.636	998.793	791.814
94.914	24.054	997.227	792.363
95.928	24.033	996.468	791.598
96.943	23.762	995.564	789.602
97.957	23.753	994.639	788.760
98.972	23.788	993.814	788.192
99.987	23.898	993.006	787.971
101.001	23.628	992.876	786.601
102.016	23.648	991.140	785.245
103.030	23.715	991.208	785.524
104.045	23.998	989.376	785.253
105.060	23.633	989.805	783.911
106.074	23.560	988.305	782.330
107.089	23.772	986.651	781.885
108.103	23.399	986.071	779.715
109.118	23.286	983.703	777.281
110.133	22.915	983.608	775.508
111.147	23.025	982.342	774.920
112.162	23.055	981.424	774.263
113.176	23.221	980.903	774.506
114.191	22.945	980.840	773.184
115.206	23.131	979.351	772.754
116.220	23.148	978.327	771.951
117.235	22.585	977.567	768.828
118.249	23.014	976.049	769.433
119.264	22.835	974.806	767.607
120.279	22.712	975.196	767.310
121.293	22.704	974.283	766.491
122.308	22.584	972.995	764.890
123.322	22.629	972.995	765.018
124.337	22.761	971.050	763.990
125.352	22.588	971.111	763.222
126.366	22.632	969.963	762.443
127.381	23.030	970.529	764.544
128.395	23.026	968.798	763.094
129.410	22.888	968.501	762.196
130.424	23.644	966.223	763.588
131.439	23.614	966.156	763.342
132.454	23.291	965.196	761.128
133.468	23.499	964.190	761.156
134.483	23.597	963.337	760.837
135.497	23.369	963.149	759.644
136.512	23.688	960.999	759.247
137.527	23.455	961.736	758.765
138.541	23.643	960.628	758.626
139.556	23.752	960.611	759.014
140.570	23.875	959.629	758.694
141.585	23.971	958.435	758.091
142.600	24.208	957.624	758.390
143.614	23.992	957.408	757.234
144.629	24.635	955.849	758.666
145.643	24.139	954.478	755.405
146.658	23.830	953.963	753.624
147.673	23.950	951.727	752.295
148.687	23.718	950.972	750.654
149.702	23.391	951.908	749.942
150.716	23.458	950.547	749.086
151.731	23.786	949.577	749.641
152.746	23.843	948.910	749.289
153.760	24.131	947.684	749.467
154.775	23.740	948.066	748.053
155.789	23.672	947.798	747.490
156.804	23.641	946.341	746.147
157.819	24.002	945.770	747.145
158.833	23.849	946.617	747.106
159.848	24.167	943.989	746.300
160.862	23.977	943.358	744.936
161.877	23.729	941.915	742.695
162.892	23.658	941.286	741.838
163.906	23.909	939.470	741.385
164.921	23.582	938.607	739.276
165.935	23.531	939.265	739.516
166.950	23.542	937.940	738.457
167.964	23.787	936.474	738.252
168.979	23.061	935.491	734.397
169.994	23.387	934.691	735.056
171.008	23.854	934.368	736.676
172.023	24.263	934.083	738.079
173.037	23.974	933.716	736.528
174.052	24.000	931.356	734.707
175.067	24.118	930.383	734.362
176.081	23.477	929.442	730.912
177.096	23.095	929.970	729.689
178.110	23.269	928.179	728.937
179.125	23.075	927.899	727.852
180.140	23.049	928.644	728.263
181.154	23.283	928.759	729.254
182.169	23.721	927.423	729.940
183.183	23.938	927.024	730.453
184.198	23.800	926.114	729.104
185.213	23.866	925.443	728.783
186.227	24.271	924.061	729.287
187.242	23.896	924.229	727.823
188.256	23.795	923.275	726.594
189.271	24.363	923.190	728.784
190.286	23.688	921.419	724.568
191.300	23.232	920.309	721.770
192.315	22.810	919.077	719.022
193.329	22.816	918.945	718.881
194.344	23.579	917.992	721.173
195.359	23.451	919.194	721.533
196.373	24.182	918.013	723.514
197.388	23.879	918.459	722.571
198.402	24.447	917.452	724.015
199.417	24.332	917.827	723.784
200.432	24.267	916.683	722.553
201.446	24.530	915.871	722.915
202.461	24.280	916.288	722.165
203.475	23.936	915.411	720.020
204.490	23.609	913.050	716.778
205.504	23.297	913.854	716.082
206.519	23.801	912.237	716.789
207.534	23.966	911.073	716.473
208.548	24.080	911.573	717.261
209.563	24.078	909.955	715.918
210.577	24.262	909.019	715.856
211.592	24.329	909.933	716.784
212.607	24.714	908.377	717.038
213.621	24.214	908.790	715.295
214.636	24.306	906.939	714.142
215.650	24.344	906.446	713.842
216.665	24.313	905.816	713.160
217.680	24.461	906.197	713.988
218.694	24.258	904.761	711.986
219.709	23.831	904.781	710.229
220.723	24.087	903.095	709.864
221.738	24.051	901.919	708.734
222.753	24.050	902.318	708.981
223.767	24.304	901.159	709.017
224.782	24.267	901.345	708.953
225.796	24.158	901.462	708.549
226.811	24.190	899.483	707.059
227.826	23.681	897.857	703.703
228.840	23.812	898.615	704.755
229.855	23.689	898.201	703.881
230.869	23.662	896.964	702.740
231.884	23.637	896.967	702.583
232.899	23.813	895.777	702.283
233.913	23.739	894.985	701.308
234.928	23.547	894.120	699.810
235.942	23.645	893.584	699.716
236.957	23.270	893.338	697.982
237.972	23.332	893.178	698.040
238.986	23.270	892.713	697.371
240.001	23.121	892.201	696.321
241.015	23.326	891.437	696.471
242.030	23.477	891.311	696.906
243.045	23.654	890.409	696.832
244.059	23.777	889.542	696.573
245.074	23.823	889.169	696.401
246.088	23.698	889.099	695.797
247.103	23.867	889.034	696.344
248.117	24.889	887.558	699.121
249.132	24.676	888.917	699.298
250.147	25.032	887.805	699.751
251.161	25.485	887.309	701.064
252.176	25.215	886.733	699.495
253.190	25.149	885.722	698.378
254.205	25.021	885.736	697.831
255.220	24.862	884.660	696.301
256.234	24.867	884.012	695.749
257.249	24.866	882.859	694.775
258.263	24.877	881.713	693.856
259.278	24.529	882.757	693.264
260.293	24.668	882.067	693.201
261.307	25.197	881.211	694.514
262.322	24.573	880.766	691.689
263.336	24.748	880.440	692.047
264.351	24.540	879.300	690.287
265.366	24.364	877.648	688.248
266.380	25.286	877.153	691.356
267.395	25.053	876.453	689.845
268.409	24.771	876.746	688.929
269.424	24.902	875.634	688.495
270.439	24.732	874.604	686.975
271.453	24.544	874.066	685.767
272.468	24.914	873.859	686.964
273.482	24.822	872.851	685.759
274.497	24.850	872.614	685.621
275.512	24.908	871.815	685.153
276.526	25.055	870.710	684.784
277.541	25.145	870.665	685.032
278.555	25.121	869.872	684.258
279.570	25.145	870.646	684.897
280.585	24.991	869.765	683.557
281.599	24.695	868.359	681.264
282.614	24.455	868.052	680.048
283.628	24.872	867.085	680.817
284.643	24.483	867.041	679.242
285.657	24.244	866.271	677.669
286.672	24.403	865.492	677.603
287.687	24.763	865.144	678.637
288.701	24.673	864.256	677.540
289.716	24.504	864.532	677.056
290.730	24.714	864.010	677.384
291.745	24.814	863.022	676.927
292.760	25.376	861.525	677.817
293.774	25.348	861.907	677.950
294.789	25.243	861.059	676.825
295.803	25.039	860.070	675.222
296.818	24.881	859.757	674.319
297.833	24.637	859.189	672.896
298.847	24.825	858.170	672.745
299.862	24.851	857.870	672.547
300.876	24.769	857.550	671.931
301.891	25.234	857.700	673.736
302.906	25.218	856.964	673.036
303.920	25.640	856.418	674.128
304.935	25.646	855.062	673.024
305.949	25.513	854.980	672.404
306.964	25.060	853.550	669.528
307.979	24.937	853.044	668.612
308.993	25.300	853.506	670.272
310.008	24.996	854.130	669.564
311.022	24.784	852.590	667.509
312.037	25.011	851.595	667.514
313.052	24.902	850.391	666.108
314.066	24.179	850.001	663.055
315.081	24.419	849.999	663.886
316.095	24.597	848.860	663.598
317.110	24.749	847.734	663.226
318.125	24.382	847.941	661.966
319.139	24.364	847.053	661.148
320.154	24.295	846.113	660.100
321.168	24.358	845.545	659.832
322.183	24.688	845.848	661.230
323.197	24.850	844.752	660.915
324.212	24.686	844.605	660.135
325.227	24.562	843.303	658.602
326.241	24.589	843.393	658.713
327.256	24.364	842.421	657.067
328.270	24.115	842.608	656.236
329.285	24.322	841.335	655.948
330.300	24.473	839.873	655.306
331.314	24.479	840.791	655.986
332.329	24.664	840.131	656.092
333.343	24.814	840.378	656.776
334.358	24.629	840.262	655.950
335.373	25.122	839.028	656.734
336.387	25.008	838.663	655.974
337.402	25.095	839.012	656.506
338.416	25.262	838.921	656.987
339.431	25.340	839.755	657.868
340.446	25.619	838.288	657.682
341.460	25.819	838.026	658.150
342.475	25.963	837.783	658.425
343.489	25.931	837.024	657.653
344.504	25.689	837.323	656.947
345.519	26.076	836.540	657.688
346.533	25.707	836.232	656.043
347.548	26.039	834.180	655.581
348.562	25.184	834.645	652.779
349.577	25.397	833.499	652.597
350.592	25.735	832.155	652.712
351.606	25.172	831.182	649.855
352.621	24.821	832.176	649.300
353.635	25.277	830.172	649.328
354.650	25.091	829.679	648.214
355.665	24.752	829.257	646.601
356.679	25.051	828.999	647.422
357.694	25.319	828.355	647.829
358.708	25.109	827.433	646.295
359.723	25.044	826.858	645.555
360.738	25.223	827.046	646.288
361.752	25.171	826.314	645.470
362.767	25.533	826.368	646.758
363.781	25.585	825.289	646.046
364.796	25.577	825.150	645.851
365.810	25.946	825.031	647.026
366.825	25.929	824.266	646.306
367.840	25.530	824.693	645.153
368.854	25.277	822.662	642.600
369.869	25.961	822.775	645.081
370.883	25.394	822.533	642.805
371.898	25.532	822.062	642.872
372.913	26.190	820.790	644.169
373.927	25.529	821.401	642.230
374.942	25.231	821.143	640.909
375.956	25.793	819.586	641.640
376.971	26.112	819.093	642.332
377.986	26.173	819.637	642.919
379.000	25.792	819.427	641.341
380.015	25.892	818.169	640.655
381.029	25.826	817.645	639.952
382.044	25.955	817.509	640.250
383.059	26.326	816.447	640.676
384.073	25.690	815.678	637.764
385.088	25.888	814.406	637.411
386.102	25.355	814.498	635.544
387.117	25.298	813.525	634.526
388.132	25.178	813.020	633.651
389.146	25.359	812.795	634.059
390.161	25.837	812.157	635.193
391.175	26.215	812.188	636.491
392.190	26.020	810.929	634.762
393.205	25.278	810.803	631.997
394.219	24.312	810.045	627.949
395.234	24.802	809.065	628.858
396.248	24.926	808.654	628.916
397.263	25.106	808.472	629.351
398.278	24.798	808.522	628.254
399.292	24.946	807.730	628.103
400.307	25.213	806.785	628.247
401.321	24.858	806.497	626.723
402.336	25.285	806.141	627.885
403.350	25.603	806.521	629.238
404.365	26.294	805.520	630.817
405.380	26.505	805.995	631.869
406.394	26.741	805.392	632.162
407.409	26.361	804.499	630.081
408.423	26.394	804.839	630.410
409.438	26.411	804.412	630.076
410.453	26.792	803.234	630.423
411.467	26.539	802.787	629.136
412.482	26.365	802.362	628.146
413.496	26.384	802.229	628.053
414.511	26.246	801.734	627.130
415.526	26.330	800.283	626.228
416.540	26.289	800.699	626.358
417.555	26.229	800.740	626.127
418.569	26.486	800.038	626.410
419.584	26.223	799.625	625.122
420.599	26.589	798.590	625.524
421.613	161.133	1370.734	1792.993
422.628	139.827	1454.153	1793.063
