DTS Sentinel unit serial number:	SN413079Multiplexer serial number:	ORYXHardware model number:	OX4-SRSoftware version number:	ORYX F/W v4.00 Oryx Data Collector v3.7.2.0data status	okinstallation	princeton_trtdifferential loss correction	single-endedforward channel	channel 1reverse channel	N/Adate	2019/09/17time	12:34:35forward acquisition time	60.00reverse acquisition time	0.00gamma	496.2192k internal	0.2317k external	0.2317temperature offset calibration	0.9974default loss term (dB/km)	0.3790temperature slope calibration	1.0000multiplexer offset coefficient	1.0000multiplexer slope coefficient	1.0000fibre end	0.00T internal ref (°C)	32.08T ext. ref 1 (°C)	0.42T ext. ref 2 (°C)	29.56length (m)	temperature (°C)	Stokes	anti-Stokes-747.200	-200.000	0.035	0.191
-746.185	234.430	-0.124	0.208
-745.171	-79.487	0.305	0.104
-744.156	280.252	0.061	-0.110
-743.142	800.000	0.085	0.305
-742.127	-77.692	0.031	0.011
-741.112	-98.602	0.279	0.072
-740.098	-200.000	-0.024	0.144
-739.083	218.674	0.210	-0.339
-738.069	48.869	-0.106	0.101
-737.054	191.105	0.107	-0.163
-736.039	-200.000	-0.059	-0.392
-735.025	388.569	0.145	0.305
-734.010	-200.000	-0.031	-0.169
-732.996	219.129	-0.135	0.218
-731.981	-120.585	-0.157	-0.027
-730.966	4.957	0.132	0.098
-729.952	-200.000	0.048	0.302
-728.937	-37.627	0.054	-0.029
-727.923	340.924	0.168	-0.332
-726.908	800.000	-0.031	-0.128
-725.894	800.000	-0.093	0.267
-724.879	750.215	-0.127	0.347
-723.864	639.857	-0.095	-0.244
-722.850	800.000	0.123	-0.489
-721.835	-200.000	-0.009	0.385
-720.821	-75.117	0.333	-0.120
-719.806	800.000	0.085	-0.249
-718.791	325.550	0.102	0.197
-717.777	77.534	-0.093	0.100
-716.762	-200.000	0.065	-0.344
-715.748	-15.620	-0.194	-0.125
-714.733	-82.200	-0.173	-0.057
-713.718	-200.000	-0.027	-0.250
-712.704	-26.776	0.118	0.070
-711.689	-200.000	-0.038	-0.277
-710.675	-107.469	-0.058	-0.013
-709.660	-34.471	-0.227	-0.126
-708.645	800.000	-0.085	-0.244
-707.631	-199.996	0.070	-0.000
-706.616	-23.643	-0.121	0.073
-705.602	-200.000	0.021	0.163
-704.587	800.000	0.020	0.082
-703.572	-200.000	0.034	0.285
-702.558	-200.000	-0.008	-0.041
-701.543	-200.000	-0.011	-0.076
-700.529	-127.819	0.225	-0.033
-699.514	164.144	0.126	0.180
-698.499	-89.706	-0.190	0.056
-697.485	800.000	-0.010	-0.033
-696.470	28.897	-0.224	0.191
-695.456	396.953	0.032	-0.067
-694.441	-54.796	-0.237	0.108
-693.426	-122.610	-0.320	0.052
-692.412	-35.847	0.033	-0.018
-691.397	29.679	-0.267	0.229
-690.383	-0.980	-0.201	-0.144
-689.368	15.124	-0.356	0.282
-688.354	33.969	-0.186	-0.164
-687.339	275.673	-0.044	-0.079
-686.324	163.630	-0.155	0.220
-685.310	800.000	0.066	-0.230
-684.295	-2.466	-0.129	0.091
-683.281	-17.601	0.195	-0.124
-682.266	-78.077	-0.195	-0.068
-681.251	-24.037	0.241	0.145
-680.237	-200.000	-0.019	-0.104
-679.222	-79.391	0.305	0.104
-678.208	399.584	0.030	-0.064
-677.193	511.105	0.067	-0.158
-676.178	178.434	-0.115	-0.170
-675.164	4.337	-0.457	-0.338
-674.149	-200.000	0.008	0.077
-673.135	216.933	0.113	-0.181
-672.120	-200.000	0.050	-0.493
-671.105	-45.597	0.140	-0.070
-670.091	-26.690	0.142	0.084
-669.076	-120.901	-0.214	0.036
-668.062	-200.000	0.007	-0.290
-667.047	-1.209	0.158	-0.112
-666.032	-24.304	0.169	-0.102
-665.018	-104.669	-0.421	-0.098
-664.003	424.685	0.203	-0.442
-662.989	-161.136	0.089	0.005
-661.974	702.625	0.053	-0.140
-660.959	15.086	-0.158	-0.125
-659.945	82.355	0.058	0.063
-658.930	-200.000	0.000	0.163
-657.916	-200.000	0.014	0.225
-656.901	-187.230	0.169	0.002
-655.886	-30.872	0.086	0.049
-654.872	557.669	-0.071	0.174
-653.857	-44.533	-0.308	-0.155
-652.843	318.724	0.089	-0.170
-651.828	120.526	-0.241	0.302
-650.814	99.764	0.238	0.277
-649.799	99.332	0.033	-0.039
-648.784	-70.446	-0.510	-0.195
-647.770	-200.000	0.011	-0.360
-646.755	-105.956	0.219	0.050
-645.741	-133.731	0.125	-0.016
-644.726	800.000	0.057	-0.222
-643.711	95.825	0.090	-0.103
-642.697	263.594	0.129	0.225
-641.682	-200.000	0.016	0.071
-640.668	169.839	0.209	-0.301
-639.653	800.000	0.053	0.208
-638.638	-22.077	-0.203	0.125
-637.624	-166.814	0.290	-0.012
-636.609	121.427	-0.120	0.151
-635.595	-200.000	-0.008	-0.349
-634.580	-117.797	-0.323	-0.058
-633.565	-114.775	0.527	-0.101
-632.551	-148.921	0.049	0.004
-631.536	170.528	0.228	0.328
-630.522	-200.000	-0.028	0.307
-629.507	800.000	-0.095	-0.287
-628.492	-200.000	-0.006	-0.045
-627.478	112.050	-0.163	0.198
-626.463	-200.000	0.007	0.078
-625.449	-114.114	0.241	0.047
-624.434	-172.970	-0.106	-0.003
-623.419	-9.198	0.218	-0.147
-622.405	98.114	0.267	-0.310
-621.390	-200.000	0.006	0.165
-620.376	-55.235	0.155	-0.070
-619.361	800.000	-0.044	-0.139
-618.346	800.000	-0.049	-0.215
-617.332	-200.000	-0.011	0.132
-616.317	800.000	-0.075	-0.235
-615.303	-72.329	-0.241	0.090
-614.288	-64.092	-0.208	-0.085
-613.273	353.858	0.032	0.064
-612.259	500.177	-0.093	-0.217
-611.244	-71.187	-0.415	0.157
-610.230	-126.651	-0.385	0.057
-609.215	-122.229	-0.250	0.041
-608.201	92.977	0.118	-0.135
-607.186	800.000	0.051	0.215
-606.171	-125.116	-0.399	0.062
-605.157	-184.154	-0.335	0.006
-604.142	-27.475	0.099	0.058
-603.128	25.732	-0.249	-0.209
-602.113	128.320	0.087	-0.112
-601.098	-200.000	0.039	-0.223
-600.084	800.000	-0.078	0.271
-599.069	-143.848	0.135	0.013
-598.055	71.602	-0.080	-0.084
-597.040	-79.117	0.383	-0.131
-596.025	-50.646	-0.390	-0.185
-595.011	264.025	0.082	-0.143
-593.996	394.810	-0.099	-0.207
-592.982	-70.663	-0.297	-0.113
-591.967	104.916	-0.064	0.076
-590.952	166.693	-0.260	-0.371
-589.938	-43.881	-0.137	0.070
-588.923	67.335	0.270	-0.277
-587.909	366.278	-0.104	0.211
-586.894	-140.219	-0.099	-0.010
-585.879	-200.000	0.024	0.235
-584.865	-76.812	0.128	0.045
-583.850	-200.000	0.033	-0.184
-582.836	-200.000	-0.077	-0.347
-581.821	245.828	0.031	0.052
-580.806	145.405	0.133	-0.179
-579.792	14.308	0.120	-0.094
-578.777	800.000	-0.142	-0.401
-577.763	-13.351	0.199	-0.130
-576.748	-200.000	0.029	0.250
-575.733	-200.000	0.054	0.255
-574.719	-170.166	0.318	-0.011
-573.704	2.343	-0.370	-0.269
-572.690	-200.000	-0.059	-0.388
-571.675	123.493	-0.166	-0.209
-570.661	-103.434	0.189	-0.045
-569.646	362.796	0.062	0.124
-568.631	17.180	0.143	-0.114
-567.617	189.811	-0.133	-0.200
-566.602	-125.406	-0.231	0.035
-565.588	-37.291	-0.249	-0.134
-564.573	-124.702	0.273	-0.042
-563.558	226.397	0.111	-0.181
-562.544	150.369	-0.075	0.102
-561.529	-29.401	-0.150	-0.086
-560.515	-73.365	-0.258	0.095
-559.500	795.332	0.059	0.164
-558.485	316.117	0.182	-0.346
-557.471	-189.773	0.073	0.001
-556.456	579.812	0.255	-0.628
-555.442	116.630	0.154	-0.189
-554.427	-50.797	-0.108	0.051
-553.412	-200.000	-0.007	-0.150
-552.398	-62.009	-0.359	-0.151
-551.383	-147.905	-0.110	-0.009
-550.369	191.283	0.053	-0.081
-549.354	-95.461	0.036	0.010
-548.339	633.147	-0.077	0.196
-547.325	-117.293	0.130	0.024
-546.310	-71.368	-0.225	0.085
-545.296	614.404	0.112	-0.282
-544.281	116.090	0.168	-0.207
-543.266	97.294	-0.173	0.199
-542.252	363.515	-0.028	0.056
-541.237	78.108	-0.031	0.033
-540.223	-200.000	0.008	-0.288
-539.208	-34.283	0.129	0.071
-538.193	-200.000	0.017	0.089
-537.179	-4.070	-0.194	0.135
-536.164	-200.000	0.063	0.372
-535.150	265.577	-0.052	-0.091
-534.135	-200.000	0.014	0.249
-533.121	-63.992	0.114	0.047
-532.106	29.435	0.099	-0.084
-531.091	95.579	-0.074	0.084
-530.077	83.033	0.110	-0.120
-529.062	-106.889	0.087	0.019
-528.048	66.268	-0.172	0.175
-527.033	162.460	0.344	0.485
-526.018	236.085	0.121	-0.200
-525.004	44.096	-0.079	-0.072
-523.989	-29.810	-0.273	-0.156
-522.975	285.530	-0.107	-0.194
-521.960	-17.483	-0.059	0.037
-520.945	-122.348	0.098	0.016
-519.931	-200.000	-0.031	-0.389
-518.916	-200.000	0.015	0.074
-517.902	12.493	0.260	0.201
-516.887	31.453	0.085	-0.073
-515.872	-92.949	0.541	0.152
-514.858	26.175	0.114	-0.096
-513.843	-200.000	-0.026	0.205
-512.829	-89.001	0.485	0.144
-511.814	-46.348	0.173	0.085
-510.799	-200.000	0.039	0.263
-509.785	-18.470	-0.141	0.088
-508.770	591.034	0.067	0.167
-507.756	-32.921	0.105	0.058
-506.741	-136.621	-0.181	-0.021
-505.726	413.647	-0.129	-0.274
-504.712	-200.000	-0.004	-0.050
-503.697	-145.753	0.263	0.024
-502.683	161.273	-0.078	0.109
-501.668	800.000	-0.031	0.130
-500.653	14.994	-0.049	-0.039
-499.639	93.056	-0.046	0.052
-498.624	-181.491	-0.063	-0.001
-497.610	388.217	0.157	0.326
-496.595	-178.184	-0.417	-0.010
-495.581	-141.553	0.358	-0.036
-494.566	-200.000	-0.036	-0.228
-493.551	38.895	-0.203	-0.182
-492.537	235.072	-0.107	0.177
-491.522	8.017	0.249	-0.187
-490.508	-85.467	-0.519	0.162
-489.493	-146.053	-0.126	-0.011
-488.478	-54.608	0.144	-0.065
-487.464	542.055	-0.158	-0.378
-486.449	42.764	-0.210	0.191
-485.435	-200.000	-0.028	0.167
-484.420	-122.431	0.232	0.038
-483.405	84.966	0.132	0.145
-482.391	800.000	0.048	-0.156
-481.376	75.053	0.089	-0.094
-480.362	-137.043	-0.145	-0.017
-479.347	800.000	-0.093	-0.307
-478.332	-200.000	-0.015	-0.130
-477.318	-78.267	-0.072	-0.025
-476.303	-137.615	0.250	-0.028
-475.289	306.405	-0.122	0.228
-474.274	121.575	-0.153	-0.191
-473.259	-200.000	0.005	0.100
-472.245	397.749	-0.057	0.119
-471.230	-48.835	0.376	-0.181
-470.216	754.945	0.073	0.199
-469.201	14.834	-0.109	-0.086
-468.186	32.141	0.072	-0.062
-467.172	405.437	0.055	-0.116
-466.157	22.819	-0.131	0.107
-465.143	-95.741	-0.332	0.089
-464.128	800.000	-0.006	-0.024
-463.113	-19.928	0.256	0.158
-462.099	779.430	-0.070	0.191
-461.084	-185.869	-0.246	0.004
-460.070	-157.853	0.099	0.006
-459.055	641.365	0.063	-0.161
-458.040	-200.000	-0.028	-0.303
-457.026	-200.000	0.020	0.087
-456.011	-98.349	-0.163	0.042
-454.997	128.367	0.136	-0.173
-453.982	-200.000	-0.035	-0.334
-452.968	4.802	0.217	0.159
-451.953	-2.392	0.269	0.189
-450.938	800.000	-0.023	-0.072
-449.924	-63.897	0.195	0.080
-448.909	374.947	-0.117	-0.240
-447.895	-154.188	-0.186	0.013
-446.880	107.244	0.149	0.178
-445.865	-53.811	0.072	0.033
-444.851	3.141	-0.163	0.119
-443.836	-200.000	-0.029	0.308
-442.822	191.175	-0.067	-0.100
-441.807	425.630	-0.021	-0.046
-440.792	-191.218	0.141	0.001
-439.778	800.000	-0.042	0.159
-438.763	285.055	0.079	0.143
-437.749	-135.218	0.185	0.022
-436.734	90.806	0.145	-0.163
-435.719	555.108	0.180	0.433
-434.705	-200.000	0.026	-0.183
-433.690	-11.500	0.225	-0.148
-432.676	718.535	-0.047	-0.125
-431.661	800.000	-0.042	0.123
-430.646	153.016	0.348	-0.476
-429.632	-66.523	0.085	-0.034
-428.617	-102.010	0.130	0.031
-427.603	-138.704	-0.030	-0.003
-426.588	65.409	0.062	0.063
-425.573	-200.000	-0.052	-0.320
-424.559	-26.432	-0.043	-0.025
-423.544	1.229	0.107	0.077
-422.530	113.500	-0.324	0.394
-421.515	-127.746	-0.054	0.008
-420.500	-62.519	-0.210	-0.087
-419.486	-147.395	-0.073	0.006
-418.471	-72.272	0.374	0.139
-417.457	101.820	0.162	-0.189
-416.442	-200.000	0.037	-0.173
-415.428	800.000	0.058	-0.205
-414.413	800.000	-0.093	0.333
-413.398	-4.618	-0.591	0.408
-412.384	-200.000	0.000	-0.019
-411.369	-124.749	-0.249	0.039
-410.355	794.071	-0.065	0.178
-409.340	800.000	-0.001	-0.004
-408.325	212.737	-0.120	0.189
-407.311	-133.885	0.071	-0.009
-406.296	5.601	0.074	0.054
-405.282	299.504	-0.049	0.090
-404.267	800.000	0.110	0.353
-403.252	269.916	0.021	0.036
-402.238	177.833	0.145	-0.211
-401.223	187.978	0.145	-0.216
-400.209	42.504	-0.070	0.064
-399.194	-10.306	0.298	0.198
-398.179	353.639	-0.138	-0.274
-397.165	357.615	-0.098	-0.196
-396.150	215.774	-0.078	-0.123
-395.136	-200.000	0.009	-0.324
-394.121	-152.955	0.104	-0.007
-393.106	-86.673	0.144	-0.044
-392.092	800.000	-0.051	0.167
-391.077	572.728	0.072	-0.176
-390.063	800.000	-0.067	0.212
-389.048	-189.178	0.292	-0.003
-388.033	-200.000	-0.008	-0.045
-387.019	800.000	-0.047	0.135
-386.004	54.860	-0.175	-0.168
-384.990	760.062	-0.096	-0.260
-383.975	-200.000	0.028	0.178
-382.960	-91.286	-0.288	-0.082
-381.946	197.809	-0.126	-0.191
-380.931	-22.860	-0.144	-0.087
-379.917	-79.508	-0.264	-0.089
-378.902	255.742	0.109	-0.187
-377.888	21.150	0.102	0.082
-376.873	-72.130	-0.250	0.093
-375.858	-200.000	-0.024	0.290
-374.844	-200.000	-0.002	0.033
-373.829	248.230	0.060	0.102
-372.815	349.047	-0.047	0.092
-371.800	800.000	0.022	0.069
-370.785	-81.190	-0.470	-0.155
-369.771	800.000	-0.112	-0.408
-368.756	244.876	-0.187	-0.314
-367.742	-200.000	0.033	0.261
-366.727	53.024	-0.131	0.125
-365.712	645.822	0.098	-0.250
-364.698	-200.000	0.034	-0.157
-363.683	699.441	-0.124	0.327
-362.669	237.384	0.103	-0.171
-361.654	-16.201	-0.296	-0.188
-360.639	-126.803	0.118	-0.017
-359.625	5.831	-0.133	0.098
-358.610	23.944	0.152	-0.125
-357.596	731.193	0.040	0.106
-356.581	283.499	-0.016	0.029
-355.566	-82.540	-0.169	0.055
-354.552	6.518	0.019	-0.014
-353.537	43.700	0.173	0.158
-352.523	-52.441	-0.174	-0.080
-351.508	-20.362	-0.157	0.096
-350.493	-163.708	0.119	0.006
-349.479	83.137	-0.133	-0.144
-348.464	-1.752	0.307	0.216
-347.450	-172.501	-0.138	-0.004
-346.435	1.020	0.313	-0.223
-345.420	53.945	-0.196	0.187
-344.406	11.909	-0.255	0.196
-343.391	-136.014	-0.238	-0.028
-342.377	-94.558	-0.463	-0.126
-341.362	-200.000	0.002	-0.114
-340.348	-12.795	0.178	0.115
-339.333	-67.700	-0.217	0.085
-338.318	-21.037	0.054	0.033
-337.304	345.104	-0.120	-0.234
-336.289	-49.791	-0.171	0.081
-335.275	434.500	0.029	0.062
-334.260	-80.818	-0.203	-0.067
-333.245	486.423	0.051	0.116
-332.231	544.781	0.150	0.357
-331.216	37.638	-0.359	0.318
-330.202	731.529	0.165	-0.440
-329.187	40.112	0.046	0.041
-328.172	49.989	-0.241	0.227
-327.158	-178.631	-0.031	0.001
-326.143	336.412	0.168	-0.325
-325.129	-109.838	0.321	0.067
-324.114	80.647	0.152	-0.163
-323.099	800.000	-0.053	0.220
-322.085	-1.349	-0.110	0.077
-321.070	653.648	-0.098	-0.251
-320.056	-180.195	0.229	-0.005
-319.041	34.358	-0.265	0.230
-318.026	-148.112	-0.172	-0.014
-317.012	-161.280	-0.189	0.010
-315.997	-183.424	-0.143	0.002
-314.983	-167.379	0.763	0.031
-313.968	64.965	0.056	-0.056
-312.953	37.495	-0.166	0.147
-311.939	-45.909	0.102	0.050
-310.924	800.000	-0.075	0.299
-309.910	-200.000	-0.042	0.419
-308.895	-70.725	0.169	0.064
-307.880	-144.371	-0.198	0.018
-306.866	27.624	0.238	0.199
-305.851	-110.978	-0.240	-0.049
-304.837	109.073	0.162	0.193
-303.822	800.000	-0.071	0.204
-302.807	-65.479	0.358	-0.143
-301.793	-200.000	-0.002	-0.032
-300.778	-48.362	-0.302	-0.145
-299.764	-200.000	-0.063	0.286
-298.749	224.631	0.177	0.284
-297.735	47.800	0.260	0.241
-296.720	209.808	0.111	0.173
-295.705	800.000	0.091	0.293
-294.691	-53.704	-0.115	0.052
-293.676	-92.494	0.097	0.027
-292.662	201.513	-0.136	0.209
-291.647	29.680	0.257	-0.218
-290.632	-105.899	0.226	0.051
-289.618	-200.000	0.035	-0.184
-288.603	449.138	-0.156	-0.342
-287.589	-32.521	-0.115	-0.064
-286.574	-200.000	0.027	-0.139
-285.559	-128.799	0.284	-0.040
-284.545	6.679	-0.152	-0.112
-283.530	-155.236	-0.338	0.022
-282.516	-29.359	-0.155	0.088
-281.501	-200.000	-0.430	-0.001
-280.486	-12.088	-0.153	-0.100
-279.472	-137.930	-0.355	-0.039
-278.457	69.882	0.196	-0.201
-277.443	361.405	-0.033	0.066
-276.428	-200.000	-0.029	-0.161
-275.413	55.340	0.301	-0.289
-274.399	-200.000	0.018	0.139
-273.384	-73.239	0.184	0.067
-272.370	800.000	0.042	-0.153
-271.355	-12.162	-0.022	0.015
-270.340	-46.052	-0.120	0.059
-269.326	-200.000	0.034	-0.190
-268.311	375.243	0.123	0.248
-267.297	-63.808	-0.059	-0.024
-266.282	-30.152	0.138	0.078
-265.267	-79.799	0.258	0.086
-264.253	-120.365	-0.331	-0.056
-263.238	-45.813	0.193	0.095
-262.224	151.932	0.271	0.368
-261.209	-118.896	-0.118	0.021
-260.195	-35.851	-0.191	-0.103
-259.180	9.735	0.142	-0.107
-258.165	83.562	-0.099	-0.107
-257.151	-200.000	0.016	0.109
-256.136	-200.000	0.018	-0.167
-255.122	-200.000	0.053	0.247
-254.107	15.580	0.113	-0.088
-253.092	-130.218	0.171	0.023
-252.078	800.000	0.052	-0.194
-251.063	-58.147	0.193	0.084
-250.049	114.078	0.187	-0.226
-249.034	16.761	-0.244	0.192
-248.019	-87.321	0.074	-0.022
-247.005	-68.489	0.409	0.157
-245.990	-119.402	-0.094	0.016
-244.976	276.210	-0.064	-0.112
-243.961	-70.485	-0.030	0.011
-242.946	90.818	0.146	-0.163
-241.932	800.000	0.109	-0.422
-240.917	-28.368	0.029	0.017
-239.903	800.000	-0.170	0.570
-238.888	-80.339	-0.045	-0.015
-237.873	-200.000	-0.013	0.134
-236.859	-139.421	0.317	-0.034
-235.844	-155.255	-0.118	-0.008
-234.830	50.654	0.156	-0.147
-233.815	-49.932	0.166	-0.078
-232.800	-200.000	0.006	0.360
-231.786	518.895	-0.009	0.021
-230.771	-20.216	-0.037	-0.022
-229.757	-93.580	0.095	0.026
-228.742	-30.555	-0.144	-0.081
-227.727	185.487	0.349	0.514
-226.713	-36.099	0.181	-0.097
-225.698	-200.000	0.036	-0.333
-224.684	-181.380	0.284	-0.006
-223.669	82.725	-0.269	-0.290
-222.655	-2.340	0.161	0.112
-221.640	531.751	-0.132	0.310
-220.625	35.654	-0.038	-0.033
-219.611	501.742	-0.069	0.158
-218.596	800.000	0.095	-0.300
-217.582	403.634	0.087	0.181
-216.567	356.396	0.136	-0.268
-215.552	128.481	-0.149	0.188
-214.538	0.032	0.191	0.135
-213.523	-200.000	0.035	0.168
-212.509	-71.832	-0.013	-0.005
-211.494	-68.745	-0.278	-0.107
-210.479	276.946	0.165	0.291
-209.465	-34.338	0.295	0.161
-208.450	-123.158	0.439	-0.070
-207.436	20.471	-0.253	-0.203
-206.421	708.652	0.034	-0.089
-205.406	130.088	-0.198	-0.251
-204.392	187.303	-0.074	0.110
-203.377	247.093	-0.031	-0.052
-202.363	-200.000	-0.032	-0.156
-201.348	-200.000	0.017	-0.114
-200.333	-132.090	0.334	0.043
-199.319	304.770	-0.189	0.347
-198.304	-175.250	-0.056	-0.002
-197.290	-200.000	-0.002	0.107
-196.275	1.829	-0.205	0.146
-195.260	47.832	-0.195	0.181
-194.246	-128.718	-0.188	-0.026
-193.231	800.000	0.129	-0.389
-192.217	-200.000	0.017	-0.115
-191.202	79.326	-0.253	-0.269
-190.187	500.199	-0.153	0.350
-189.173	-42.096	0.214	0.108
-188.158	273.158	-0.054	0.095
-187.144	439.440	0.145	0.315
-186.129	-53.885	-0.088	-0.040
-185.114	167.532	-0.165	0.232
-184.100	219.015	0.116	-0.184
-183.085	48.089	0.160	0.149
-182.071	112.173	-0.151	0.181
-181.056	-87.736	-0.440	0.131
-180.042	50.889	0.091	0.085
-179.027	332.088	0.052	0.099
-178.012	631.565	0.058	0.144
-176.998	536.166	-0.081	0.191
-175.983	97.254	0.089	0.102
-174.969	800.000	-0.022	0.076
-173.954	-200.000	0.027	0.161
-172.939	-165.114	0.307	0.013
-171.925	-27.712	0.307	0.176
-170.910	-200.000	0.061	-0.332
-169.896	-185.084	0.205	-0.003
-168.881	-110.612	0.079	0.016
-167.866	-99.460	-0.262	0.065
-166.852	-1.339	0.042	0.030
-165.837	-127.395	0.142	-0.021
-164.823	800.000	-0.126	-0.373
-163.808	-48.876	-0.191	-0.091
-162.793	-200.000	0.012	0.130
-161.779	-127.053	0.083	-0.012
-160.764	128.464	-0.034	-0.042
-159.750	172.722	-0.134	-0.191
-158.735	-44.719	-0.141	-0.069
-157.720	-93.291	-0.140	-0.038
-156.706	-200.000	-0.023	0.371
-155.691	-20.631	0.161	-0.098
-154.677	-39.471	-0.122	0.063
-153.662	38.115	0.130	0.114
-152.647	-59.345	0.222	0.094
-151.633	-200.000	0.057	0.488
-150.618	140.788	0.069	-0.090
-149.604	-86.698	0.259	-0.078
-148.589	621.669	-0.089	0.221
-147.574	800.000	0.003	0.012
-146.560	23.578	-0.178	0.145
-145.545	-200.000	0.002	-0.058
-144.531	-10.056	-0.294	-0.193
-143.516	11.395	0.253	0.192
-142.502	-199.403	-0.208	-0.001
-141.487	-156.593	0.390	-0.024
-140.472	-99.748	0.287	0.071
-139.458	-200.000	0.189	-0.000
-138.443	-97.871	0.139	0.035
-137.429	501.062	0.109	-0.249
-136.414	800.000	0.015	0.042
-135.399	-13.112	-0.205	-0.132
-134.385	-126.818	-0.348	0.051
-133.370	800.000	-0.046	0.137
-132.356	-200.000	-0.045	0.276
-131.341	-47.516	-0.195	-0.094
-130.326	293.222	-0.144	0.259
-129.312	-41.007	0.255	0.130
-128.297	-182.543	0.284	0.005
-127.283	-93.726	0.390	-0.106
-126.268	-175.114	0.215	0.006
-125.253	-200.000	0.021	0.224
-124.239	-42.834	0.096	-0.048
-123.224	-82.144	0.149	0.048
-122.210	-94.629	0.233	-0.062
-121.195	-72.353	-0.295	-0.108
-120.180	-113.506	-0.453	-0.088
-119.166	249.315	0.110	-0.183
-118.151	225.926	0.115	0.184
-117.137	119.904	0.121	-0.148
-116.122	-159.935	0.242	-0.013
-115.107	-57.369	-0.026	-0.011
-114.093	425.260	-0.139	0.295
-113.078	-136.618	0.433	0.049
-112.064	-11.666	0.079	0.051
-111.049	-42.787	0.272	-0.137
-110.034	117.357	0.150	0.182
-109.020	800.000	-0.111	0.312
-108.005	-61.209	0.157	0.065
-106.991	-99.270	0.103	-0.026
-105.976	103.684	0.057	0.066
-104.962	-91.021	-0.186	-0.053
-103.947	31.047	-0.276	-0.234
-102.932	-200.000	0.008	-0.119
-101.918	573.875	0.045	-0.108
-100.903	-34.889	-0.124	-0.067
-99.889	48.326	0.050	-0.046
-98.874	203.229	-0.050	-0.077
-97.859	15.492	0.375	0.291
-96.845	55.964	0.126	-0.120
-95.830	602.611	0.108	0.265
-94.816	-200.000	0.018	0.099
-93.801	-126.630	-0.094	0.014
-92.786	800.000	0.056	-0.163
-91.772	-62.267	0.186	-0.076
-90.757	-200.000	-0.044	0.269
-89.743	54.062	0.067	0.064
-88.728	-188.776	0.168	0.002
-87.713	24.814	0.039	0.032
-86.699	97.195	0.205	0.232
-85.684	105.590	-0.190	-0.222
-84.670	9.887	0.234	0.175
-83.655	81.525	-0.072	0.077
-82.640	251.172	-0.026	0.043
-81.626	-102.658	-0.200	0.047
-80.611	-158.419	0.188	-0.011
-79.597	275.708	-0.051	0.089
-78.582	44.958	0.234	-0.213
-77.567	-107.030	0.581	-0.127
-76.553	-71.045	0.170	-0.063
-75.538	-200.000	0.003	-0.026
-74.524	61.658	-0.145	0.142
-73.509	229.730	0.090	0.145
-72.494	-77.184	-0.242	-0.083
-71.480	-14.799	0.250	0.158
-70.465	-71.262	0.273	-0.101
-69.451	45.731	-0.281	-0.256
-68.436	800.000	-0.129	-0.515
-67.422	-113.915	0.272	0.052
-66.407	136.784	0.157	-0.202
-65.392	-117.504	-0.413	-0.074
-64.378	-200.000	0.029	0.171
-63.363	800.000	0.080	0.292
-62.349	11.430	-0.249	-0.188
-61.334	163.020	-0.840	-1.163
-60.319	-21.914	0.409	0.245
-59.305	620.132	-0.447	-1.108
-58.290	254.669	0.646	1.089
-57.276	287.754	0.764	1.362
-56.261	-200.000	95.386	577.044
-55.246	529.589	1417.070	3297.593
-54.232	153.526	2597.526	3505.350
-53.217	111.991	2179.845	2594.837
-52.203	43.996	1627.116	1469.335
-51.188	35.466	1360.339	1176.387
-50.173	32.298	1318.238	1121.084
-49.159	55.197	1363.737	1298.859
-48.144	57.207	1380.095	1326.525
-47.130	35.796	1340.362	1160.919
-46.115	32.227	1323.198	1124.695
-45.100	32.199	1317.579	1119.709
-44.086	32.016	1315.536	1116.838
-43.071	31.969	1313.033	1114.389
-42.057	31.934	1310.827	1112.269
-41.042	32.020	1309.169	1111.328
-40.027	32.017	1307.742	1110.050
-39.013	32.091	1305.484	1108.531
-37.998	32.055	1303.986	1106.999
-36.984	32.090	1301.765	1105.276
-35.969	32.020	1300.681	1103.900
-34.954	32.160	1298.753	1103.042
-33.940	32.044	1297.645	1101.376
-32.925	32.134	1295.994	1100.460
-31.911	32.185	1294.382	1099.348
-30.896	32.128	1293.226	1097.988
-29.881	32.213	1291.420	1096.910
-28.867	32.225	1290.280	1095.967
-27.852	32.204	1288.627	1094.397
-26.838	32.239	1287.464	1093.568
-25.823	32.227	1286.102	1092.299
-24.809	32.147	1284.251	1090.219
-23.794	32.133	1283.499	1089.458
-22.779	32.114	1282.017	1088.045
-21.765	32.126	1280.578	1086.848
-20.750	32.120	1279.445	1085.812
-19.736	32.089	1278.271	1084.594
-18.721	31.933	1276.879	1082.470
-17.706	31.947	1275.990	1081.754
-16.692	32.035	1274.437	1080.898
-15.677	32.065	1273.303	1080.069
-14.663	32.024	1272.309	1078.942
-13.648	32.002	1271.004	1077.671
-12.633	32.122	1270.147	1077.590
-11.619	32.117	1269.113	1076.638
-10.604	32.074	1268.269	1075.633
-9.590	31.898	1267.664	1074.073
-8.575	31.995	1266.593	1073.675
-7.560	32.005	1265.538	1072.796
-6.546	31.920	1265.009	1071.816
-5.531	31.998	1264.103	1071.456
-4.517	32.024	1262.968	1070.597
-3.502	31.966	1262.306	1069.663
-2.487	32.023	1261.136	1068.957
-1.473	32.177	1256.750	1066.067
-0.458	31.221	1243.150	1049.124
0.556	26.794	1227.016	1014.993
1.571	23.119	1232.926	999.078
2.586	21.720	1248.128	1003.302
3.600	20.814	1236.208	988.492
4.615	15.220	1161.316	898.610
5.629	5.523	1082.258	788.696
6.644	0.856	1061.042	750.068
7.659	0.334	1059.115	746.055
8.673	0.265	1058.110	744.943
9.688	0.227	1056.938	743.863
10.702	0.536	1055.512	744.318
11.717	5.987	1062.351	776.069
12.731	14.517	1073.814	826.832
13.746	17.726	1077.280	845.362
14.761	17.308	1075.327	841.685
15.775	16.302	1073.841	835.471
16.790	15.290	1071.279	828.406
17.804	14.574	1069.875	823.716
18.819	14.211	1068.921	821.116
19.834	13.916	1067.943	818.837
20.848	13.707	1067.209	817.174
21.863	13.448	1066.147	815.011
22.877	13.383	1065.143	813.854
23.892	13.370	1064.611	813.312
24.907	13.222	1064.155	812.165
25.921	13.308	1063.034	811.660
26.936	13.431	1062.214	811.564
27.950	13.312	1061.320	810.225
28.965	13.402	1060.460	809.940
29.980	13.476	1058.864	809.010
30.994	13.554	1058.034	808.685
32.009	13.465	1057.433	807.720
33.023	13.622	1055.792	807.160
34.038	13.548	1054.731	805.916
35.053	13.525	1054.398	805.480
36.067	13.484	1053.057	804.184
37.082	13.482	1052.312	803.536
38.096	13.533	1051.889	803.385
39.111	13.457	1051.241	802.450
40.126	13.503	1049.240	801.076
41.140	13.346	1048.386	799.595
42.155	13.262	1047.804	798.677
43.169	13.234	1046.674	797.607
44.184	13.421	1045.537	797.572
45.199	13.381	1044.605	796.598
46.213	13.242	1043.776	795.225
47.228	13.228	1042.741	794.300
48.242	13.264	1041.692	793.605
49.257	13.283	1040.748	792.903
50.271	13.373	1039.586	792.382
51.286	13.356	1038.846	791.664
52.301	13.356	1038.013	790.961
53.315	13.425	1036.557	790.112
54.330	13.311	1035.828	788.942
55.344	13.261	1035.353	788.272
56.359	13.283	1033.918	787.212
57.374	13.302	1033.109	786.620
58.388	13.377	1032.247	786.249
59.403	13.354	1031.048	785.156
60.417	13.254	1031.093	784.646
61.432	13.223	1029.740	783.401
62.447	13.169	1029.080	782.573
63.461	13.187	1027.997	781.765
64.476	13.162	1027.404	781.127
65.490	13.275	1026.302	780.754
66.505	13.344	1025.617	780.489
67.520	13.270	1025.027	779.625
68.534	13.276	1024.444	779.139
69.549	13.223	1023.719	778.271
70.563	13.238	1022.876	777.629
71.578	13.254	1022.303	777.203
72.593	13.185	1021.245	776.003
73.607	13.112	1021.072	775.459
74.622	13.171	1020.271	775.060
75.636	13.048	1019.641	773.937
76.651	13.159	1018.791	773.743
77.666	13.190	1017.849	773.105
78.680	13.275	1017.010	772.795
79.695	13.194	1016.594	772.035
80.709	13.331	1015.799	772.001
81.724	13.210	1014.911	770.691
82.739	13.325	1014.282	770.685
83.753	13.383	1013.353	770.178
84.768	13.502	1012.526	770.034
85.782	13.377	1011.968	768.961
86.797	13.404	1010.876	768.188
87.812	13.416	1010.002	767.514
88.826	13.348	1008.862	766.264
89.841	13.321	1007.930	765.365
90.855	13.400	1007.243	765.141
91.870	13.565	1006.105	764.971
92.884	13.444	1005.390	763.802
93.899	13.621	1004.300	763.719
94.914	13.578	1003.827	763.092
95.928	13.575	1002.946	762.344
96.943	13.613	1002.237	761.911
97.957	13.432	1001.240	760.256
98.972	13.492	1000.886	760.193
99.987	13.506	999.711	759.300
101.001	13.531	998.753	758.619
102.016	13.495	997.612	757.520
103.030	13.416	996.898	756.550
104.045	13.521	996.343	756.541
105.060	13.556	995.233	755.792
106.074	13.421	994.643	754.662
107.089	13.366	993.231	753.273
108.103	13.348	992.587	752.638
109.118	13.409	991.306	751.877
110.133	13.465	990.552	751.491
111.147	13.422	989.523	750.449
112.162	13.399	989.347	750.144
113.176	13.393	988.333	749.280
114.191	13.430	987.485	748.739
115.206	13.393	986.716	747.922
116.220	13.420	986.041	747.469
117.235	13.532	984.782	746.952
118.249	13.421	984.167	745.919
119.264	13.402	983.659	745.383
120.279	13.386	982.789	744.585
121.293	13.408	981.903	743.949
122.308	13.375	980.756	742.862
123.322	13.402	979.588	742.035
124.337	13.359	978.734	741.129
125.352	13.343	977.702	740.210
126.366	13.467	976.488	739.780
127.381	13.354	976.093	738.913
128.395	13.346	975.151	738.096
129.410	13.363	974.360	737.509
130.424	13.393	973.369	736.828
131.439	13.453	972.513	736.380
132.454	13.476	972.162	736.154
133.468	13.451	971.033	735.121
134.483	13.523	970.381	734.881
135.497	13.519	969.314	733.991
136.512	13.488	968.253	732.984
137.527	13.522	967.513	732.513
138.541	13.581	967.379	732.605
139.556	13.593	966.071	731.605
140.570	13.498	965.801	730.914
141.585	13.618	964.937	730.725
142.600	13.641	963.703	729.826
143.614	13.601	963.185	729.197
144.629	13.661	961.929	728.444
145.643	13.697	961.228	728.005
146.658	13.595	960.052	726.605
147.673	13.603	958.801	725.627
148.687	13.544	958.220	724.865
149.702	13.501	957.487	724.061
150.716	13.672	956.382	723.906
151.731	13.619	956.251	723.513
152.746	13.551	955.626	722.676
153.760	13.607	955.154	722.499
154.775	13.587	954.494	721.849
155.789	13.618	953.761	721.366
156.804	13.644	952.728	720.635
157.819	13.769	952.309	720.799
158.833	13.713	951.600	719.957
159.848	13.851	950.679	719.794
160.862	13.810	949.806	718.889
161.877	13.704	949.413	718.069
162.892	13.710	947.799	716.812
163.906	13.588	947.325	715.863
164.921	13.681	946.309	715.433
165.935	13.746	945.406	714.967
166.950	13.805	944.782	714.684
167.964	13.764	943.991	713.848
168.979	13.740	943.388	713.226
169.994	13.618	942.588	712.033
171.008	13.657	941.567	711.366
172.023	13.886	940.788	711.698
173.037	13.850	940.385	711.176
174.052	13.874	940.008	710.930
175.067	13.935	938.857	710.258
176.081	13.738	938.410	709.013
177.096	13.789	937.863	708.755
178.110	13.808	937.230	708.296
179.125	13.831	936.556	707.821
180.140	13.796	936.448	707.530
181.154	13.980	935.832	707.784
182.169	14.029	935.120	707.394
183.183	14.020	934.617	706.910
184.198	13.986	933.694	706.006
185.213	14.008	932.896	705.433
186.227	14.073	932.549	705.386
187.242	14.041	931.547	704.427
188.256	14.036	931.087	703.999
189.271	14.137	930.069	703.590
190.286	13.846	929.852	702.133
191.300	13.727	929.154	701.042
192.315	13.875	928.639	701.215
193.329	13.993	927.603	700.869
194.344	13.980	927.328	700.548
195.359	13.973	926.545	699.862
196.373	13.988	925.959	699.420
197.388	14.118	925.501	699.561
198.402	14.172	925.231	699.522
199.417	14.200	924.462	698.996
200.432	14.276	923.738	698.706
201.446	14.296	923.177	698.301
202.461	14.238	922.995	697.860
203.475	14.251	922.109	697.182
204.490	14.368	921.250	696.964
205.504	14.201	920.436	695.585
206.519	14.263	919.634	695.179
207.534	14.287	918.992	694.732
208.548	14.309	918.417	694.325
209.563	14.272	917.984	693.782
210.577	14.386	917.007	693.459
211.592	14.287	916.995	692.977
212.607	14.402	915.785	692.478
213.621	14.499	915.102	692.302
214.636	14.316	914.898	691.328
215.650	14.419	913.611	690.721
216.665	14.552	913.120	690.839
217.680	14.481	912.721	690.182
218.694	14.502	912.054	689.705
219.709	14.528	911.455	689.296
220.723	14.509	910.628	688.534
221.738	14.413	910.000	687.602
222.753	14.437	909.806	687.493
223.767	14.436	909.266	687.021
224.782	14.470	908.243	686.326
225.796	14.720	907.260	686.550
226.811	14.779	906.724	686.325
227.826	14.669	905.892	685.183
228.840	14.653	905.528	684.781
229.855	14.651	904.812	684.171
230.869	14.570	904.039	683.196
231.884	14.655	903.277	682.906
232.899	14.529	902.905	682.051
233.913	14.614	901.928	681.599
234.928	14.530	901.400	680.798
235.942	14.520	901.006	680.396
236.957	14.579	900.296	680.042
237.972	14.607	899.734	679.670
238.986	14.644	898.564	678.879
240.001	14.593	898.152	678.298
241.015	14.782	897.241	678.319
242.030	14.651	897.011	677.555
243.045	14.846	896.380	677.807
244.059	14.742	895.683	676.800
245.074	14.763	895.367	676.588
246.088	14.688	894.739	675.749
247.103	14.740	894.023	675.358
248.117	14.897	893.434	675.489
249.132	14.818	893.022	674.799
250.147	15.014	891.913	674.691
251.161	14.979	891.706	674.333
252.176	15.150	890.700	674.198
253.190	15.190	889.885	673.686
254.205	14.998	889.726	672.731
255.220	15.140	888.724	672.485
256.234	15.124	888.326	672.061
257.249	15.074	887.824	671.420
258.263	15.206	886.769	671.092
259.278	14.966	886.359	669.762
260.293	15.242	885.250	669.966
261.307	15.111	885.331	669.445
262.322	15.199	884.500	669.112
263.336	15.205	883.858	668.589
264.351	15.335	882.758	668.217
265.366	15.350	882.084	667.705
266.380	15.463	881.659	667.776
267.395	15.354	880.719	666.573
268.409	15.513	879.851	666.487
269.424	15.324	879.596	665.486
270.439	15.303	879.109	664.973
271.453	15.346	878.384	664.536
272.468	15.450	877.491	664.215
273.482	15.278	877.169	663.230
274.497	15.394	876.352	663.014
275.512	15.405	875.843	662.614
276.526	15.341	875.737	662.220
277.541	15.355	875.350	661.924
278.555	15.541	874.398	661.879
279.570	15.476	873.532	660.909
280.585	15.585	872.809	660.732
281.599	15.460	872.141	659.680
282.614	15.538	871.336	659.315
283.628	15.434	871.026	658.616
284.643	15.610	870.464	658.823
285.657	15.513	869.827	657.903
286.672	15.639	868.955	657.679
287.687	15.418	868.739	656.592
288.701	15.540	867.990	656.445
289.716	15.620	867.196	656.099
290.730	15.710	866.763	656.064
291.745	15.572	866.557	655.312
292.760	15.622	865.945	654.987
293.774	15.757	865.377	655.024
294.789	15.612	864.699	653.888
295.803	15.697	863.824	653.498
296.818	15.619	863.121	652.606
297.833	15.687	862.435	652.294
298.847	15.685	861.645	651.631
299.862	15.791	861.314	651.731
300.876	15.822	860.592	651.248
301.891	15.833	860.049	650.823
302.906	15.881	859.575	650.594
303.920	15.856	859.051	650.040
304.935	15.939	858.573	649.941
305.949	15.940	857.733	649.255
306.964	15.849	857.447	648.628
307.979	15.990	856.491	648.392
308.993	15.953	856.360	648.094
310.008	16.006	855.687	647.728
311.022	16.059	854.914	647.289
312.037	15.993	854.617	646.754
313.052	15.983	853.660	645.933
314.066	15.959	853.149	645.397
315.081	15.985	852.286	644.787
316.095	15.990	851.783	644.370
317.110	15.990	851.638	644.202
318.125	16.039	850.740	643.655
319.139	16.005	850.382	643.195
320.154	15.983	850.024	642.784
321.168	15.931	849.536	642.160
322.183	16.028	848.976	642.049
323.197	16.095	848.335	641.765
324.212	16.051	848.052	641.324
325.227	16.112	847.142	640.811
326.241	16.050	846.833	640.287
327.256	15.996	846.231	639.571
328.270	16.092	845.504	639.328
329.285	16.139	844.948	639.029
330.300	16.087	844.245	638.242
331.314	16.127	843.531	637.800
332.329	16.150	843.168	637.555
333.343	16.325	842.609	637.737
334.358	16.091	842.856	636.984
335.373	16.214	842.044	636.778
336.387	16.213	841.874	636.589
337.402	16.391	840.954	636.509
338.416	16.396	841.057	636.549
339.431	16.485	840.385	636.317
340.446	16.410	840.367	635.966
341.460	16.398	839.979	635.571
342.475	16.421	839.493	635.235
343.489	16.485	838.826	634.911
344.504	16.437	838.495	634.426
345.519	16.472	838.097	634.200
346.533	16.491	837.874	634.048
347.548	16.535	837.134	633.594
348.562	16.408	836.653	632.700
349.577	16.435	835.855	632.142
350.592	16.443	834.649	631.202
351.606	16.455	834.371	630.980
352.621	16.660	833.742	631.216
353.635	16.502	832.929	629.955
354.650	16.530	832.575	629.734
355.665	16.591	831.691	629.238
356.679	16.544	831.379	628.773
357.694	16.655	830.843	628.723
358.708	16.500	830.357	627.722
359.723	16.547	829.584	627.258
360.738	16.650	828.857	627.034
361.752	16.606	828.386	626.459
362.767	16.672	827.843	626.238
363.781	16.783	827.390	626.251
364.796	16.832	827.116	626.169
365.810	16.761	826.668	625.513
366.825	16.814	826.026	625.167
367.840	16.905	825.465	625.022
368.854	16.947	824.862	624.665
369.869	16.839	824.604	624.017
370.883	16.824	824.378	623.733
371.898	16.756	824.167	623.269
372.913	16.993	823.377	623.487
373.927	16.874	823.347	622.973
374.942	16.982	822.435	622.626
375.956	17.191	821.666	622.754
376.971	17.033	821.566	622.044
377.986	16.975	821.593	621.796
379.000	17.116	820.591	621.500
380.015	17.067	820.084	620.880
381.029	17.158	819.472	620.696
382.044	17.188	818.996	620.388
383.059	17.080	818.786	619.781
384.073	17.112	818.231	619.422
385.088	17.136	817.484	618.889
386.102	17.204	816.573	618.393
387.117	17.225	816.019	617.996
388.132	17.205	815.162	617.220
389.146	17.252	814.753	617.024
390.161	17.225	814.481	616.668
391.175	17.468	813.909	617.060
392.190	17.063	813.858	615.497
393.205	17.178	813.001	615.212
394.219	17.217	812.766	615.122
395.234	17.137	812.539	614.606
396.248	17.162	811.945	614.192
397.263	17.150	811.389	613.675
398.278	17.287	810.916	613.756
399.292	17.124	810.962	613.147
400.307	17.164	810.166	612.636
401.321	17.275	809.611	612.562
402.336	17.273	809.448	612.378
403.350	17.257	809.117	612.015
404.365	17.347	808.680	611.954
405.380	17.413	808.149	611.735
406.394	17.443	807.524	611.318
407.409	17.458	807.092	610.989
408.423	17.473	806.617	610.630
409.438	17.463	806.309	610.305
410.453	17.643	805.793	610.508
411.467	17.549	805.511	609.902
412.482	17.537	805.046	609.453
413.496	17.553	804.748	609.231
414.511	17.525	804.727	609.060
415.526	17.657	804.129	609.025
416.540	17.723	803.312	608.589
417.555	17.752	802.866	608.300
418.569	17.715	802.224	607.629
419.584	17.585	802.114	607.030
420.599	17.861	801.385	607.406
421.613	107.358	1287.635	1457.372
422.628	92.390	1358.466	1457.461
