DTS Sentinel unit serial number:	SN413079Multiplexer serial number:	ORYXHardware model number:	OX4-SRSoftware version number:	ORYX F/W v4.00 Oryx Data Collector v3.7.2.0data status	okinstallation	princeton_trtdifferential loss correction	single-endedforward channel	channel 1reverse channel	N/Adate	2019/09/11time	08:32:11forward acquisition time	60.00reverse acquisition time	0.00gamma	496.2192k internal	0.2315k external	0.2315temperature offset calibration	0.9949default loss term (dB/km)	0.3790temperature slope calibration	1.0000multiplexer offset coefficient	1.0000multiplexer slope coefficient	1.0000fibre end	0.00T internal ref (°C)	33.19T ext. ref 1 (°C)	0.09T ext. ref 2 (°C)	30.85length (m)	temperature (°C)	Stokes	anti-Stokes-747.200	800.000	-0.148	0.474
-746.185	-135.609	-0.493	0.059
-745.171	-200.000	0.020	-0.185
-744.156	167.009	-0.084	-0.120
-743.142	13.252	0.259	0.203
-742.127	-76.212	0.315	0.113
-741.112	24.196	0.310	-0.259
-740.098	-200.000	0.052	0.328
-739.083	-33.905	0.077	-0.043
-738.069	-200.000	0.014	0.396
-737.054	173.309	-0.312	0.455
-736.039	800.000	0.030	0.131
-735.025	199.007	0.047	0.073
-734.010	96.771	-0.146	-0.169
-732.996	-200.000	0.000	-0.008
-731.981	-29.912	0.323	-0.187
-730.966	-70.620	-0.371	0.142
-729.952	171.784	-0.053	0.077
-728.937	-200.000	0.054	-0.288
-727.923	-132.294	-0.296	-0.039
-726.908	84.522	-0.093	0.103
-725.894	-200.000	-0.016	0.096
-724.879	-36.288	-0.286	0.156
-723.864	-75.749	0.147	0.053
-722.850	-114.615	-0.314	-0.061
-721.835	48.267	0.183	-0.173
-720.821	-65.518	-0.139	-0.056
-719.806	53.021	0.137	-0.133
-718.791	-79.950	-0.167	-0.057
-717.777	9.209	0.158	-0.121
-716.762	496.069	0.048	-0.111
-715.748	800.000	0.057	-0.190
-714.733	-200.000	-0.013	-0.095
-713.718	-200.000	-0.044	-0.372
-712.704	599.261	0.011	0.029
-711.689	-91.198	-0.103	0.030
-710.675	-122.696	0.152	0.025
-709.660	-200.000	0.015	0.143
-708.645	-68.218	-0.116	-0.046
-707.631	-17.038	0.312	-0.199
-706.616	-156.767	-0.330	-0.021
-705.602	-200.000	0.001	-0.012
-704.587	-157.598	0.040	0.002
-703.572	-200.000	0.070	-0.351
-702.558	-2.063	0.116	0.082
-701.543	208.573	-0.061	0.097
-700.529	800.000	0.118	-0.331
-699.514	112.023	-0.125	-0.152
-698.499	-191.107	-0.335	-0.004
-697.485	-88.591	-0.155	0.047
-696.470	-130.245	0.265	0.036
-695.456	672.459	0.071	-0.186
-694.441	-127.707	-0.335	-0.049
-693.426	280.474	0.014	0.025
-692.412	-200.000	0.025	0.192
-691.397	112.463	0.161	-0.198
-690.383	-110.149	0.211	0.044
-689.368	391.253	0.015	-0.032
-688.354	-200.000	0.002	-0.099
-687.339	-200.000	0.037	0.270
-686.324	-198.363	0.144	-0.001
-685.310	-200.000	0.027	0.239
-684.295	513.936	-0.117	0.276
-683.281	0.533	-0.312	-0.225
-682.266	-32.391	-0.115	0.065
-681.251	560.467	0.042	0.102
-680.237	359.529	0.211	-0.426
-679.222	800.000	0.044	-0.133
-678.208	-13.009	-0.153	0.101
-677.193	-100.392	-0.207	0.052
-676.178	800.000	0.137	-0.409
-675.164	-51.041	0.077	0.037
-674.149	-200.000	0.012	-0.149
-673.135	-69.212	-0.341	0.132
-672.120	415.285	0.051	0.111
-671.105	-62.606	-0.158	-0.066
-670.091	-200.000	-0.005	-0.245
-669.076	26.731	-0.078	0.066
-668.062	7.185	0.186	-0.140
-667.047	-103.397	0.246	-0.059
-666.032	114.250	-0.170	-0.208
-665.018	-118.648	-0.191	0.034
-664.003	-174.868	-0.275	-0.008
-662.989	-15.979	-0.167	0.107
-661.974	486.574	-0.029	0.066
-660.959	-200.000	0.012	-0.194
-659.945	800.000	0.121	-0.443
-658.930	-151.880	-0.453	0.033
-657.916	515.663	-0.148	0.350
-656.901	-102.233	0.261	0.063
-655.886	-92.633	0.139	0.039
-654.872	-109.399	-0.206	-0.044
-653.857	-100.014	-0.225	-0.057
-652.843	2.021	-0.181	-0.132
-651.828	176.455	0.141	-0.207
-650.814	395.089	0.090	-0.190
-649.799	-116.186	0.084	-0.016
-648.784	-84.468	0.191	-0.061
-647.770	-8.698	-0.033	-0.022
-646.755	-71.887	-0.408	-0.153
-645.741	-48.655	-0.302	-0.147
-644.726	-88.511	0.231	0.070
-643.711	192.349	-0.184	-0.281
-642.697	-200.000	0.018	0.106
-641.682	74.945	0.242	0.257
-640.668	-21.552	-0.130	0.080
-639.653	-200.000	-0.096	-0.000
-638.638	-79.817	-0.208	0.071
-637.624	800.000	-0.081	-0.332
-636.609	529.124	-0.149	0.354
-635.595	-82.705	-0.498	-0.163
-634.580	154.403	-0.155	-0.214
-633.565	443.350	-0.107	-0.237
-632.551	-101.766	-0.324	0.079
-631.536	-200.000	0.023	-0.294
-630.522	-50.254	-0.151	0.072
-629.507	323.524	-0.114	-0.219
-628.492	-200.000	0.026	-0.329
-627.478	-200.000	-0.044	0.352
-626.463	800.000	-0.138	0.386
-625.449	-62.361	-0.083	0.035
-624.434	-101.203	0.182	0.045
-623.419	635.344	-0.200	-0.511
-622.405	81.989	0.149	-0.163
-621.390	-200.000	-0.018	0.290
-620.376	210.718	0.180	-0.286
-619.361	-63.284	-0.222	-0.092
-618.346	-41.118	0.098	0.051
-617.332	753.421	0.133	-0.361
-616.317	20.425	0.279	0.228
-615.303	-115.107	-0.218	-0.042
-614.288	-200.000	0.035	-0.345
-613.273	-200.000	0.005	0.186
-612.259	-101.495	-0.238	0.058
-611.244	28.913	0.025	-0.022
-610.230	-71.258	-0.285	-0.108
-609.215	-104.064	-0.184	0.043
-608.201	103.998	-0.181	0.215
-607.186	-200.000	-0.019	0.175
-606.171	-46.312	0.088	-0.044
-605.157	39.559	-0.133	-0.120
-604.142	-87.317	0.190	-0.058
-603.128	758.961	-0.042	0.115
-602.113	-66.838	0.319	-0.127
-601.098	-200.000	-0.017	0.488
-600.084	408.135	0.115	0.244
-599.069	178.516	0.116	-0.171
-598.055	-49.939	-0.199	-0.095
-597.040	-113.302	-0.212	-0.042
-596.025	104.864	0.142	-0.168
-595.011	-69.479	-0.197	0.076
-593.996	18.542	-0.198	0.159
-592.982	-122.915	0.209	-0.034
-591.967	800.000	0.102	0.291
-590.952	37.327	0.158	0.141
-589.938	-13.128	-0.154	-0.101
-588.923	343.227	-0.101	0.198
-587.909	-23.964	0.059	0.035
-586.894	-34.023	-0.325	0.180
-585.879	800.000	-0.106	-0.363
-584.865	185.879	0.073	0.109
-583.850	224.109	-0.114	0.185
-582.836	-200.000	0.067	0.393
-581.821	800.000	-0.051	-0.183
-580.806	800.000	0.099	-0.346
-579.792	227.069	-0.358	-0.586
-578.777	140.973	0.074	-0.099
-577.763	23.774	0.031	0.026
-576.748	-145.771	-0.180	-0.016
-575.733	-84.566	-0.128	0.041
-574.719	-48.653	0.215	-0.104
-573.704	277.732	-0.184	0.329
-572.690	117.162	-0.021	-0.026
-571.675	516.895	0.089	0.210
-570.661	595.320	-0.125	0.312
-569.646	-41.401	-0.226	0.117
-568.631	95.876	-0.069	0.079
-567.617	-75.696	0.142	0.051
-566.602	800.000	-0.030	-0.116
-565.588	-62.002	0.192	-0.081
-564.573	-200.000	-0.023	-0.177
-563.558	399.333	-0.041	0.087
-562.544	-151.519	-0.300	-0.022
-561.529	-110.532	-0.161	-0.034
-560.515	-98.399	-0.306	-0.079
-559.500	-101.010	0.296	-0.073
-558.485	2.251	0.022	-0.016
-557.471	800.000	-0.099	-0.372
-556.456	800.000	-0.035	0.140
-555.442	463.014	0.158	0.354
-554.427	-76.453	-0.189	-0.067
-553.412	112.214	0.120	0.146
-552.398	800.000	0.108	0.403
-551.383	153.470	0.223	0.308
-550.369	729.530	0.025	-0.068
-549.354	-133.662	0.200	-0.025
-548.339	316.118	-0.117	-0.221
-547.325	530.067	-0.059	-0.141
-546.310	162.429	-0.054	-0.077
-545.296	42.163	0.038	0.035
-544.281	82.632	-0.181	-0.198
-543.266	-49.858	0.204	-0.098
-542.252	-200.000	0.066	-0.303
-541.237	800.000	0.016	0.048
-540.223	38.053	0.269	-0.241
-539.208	83.016	0.137	-0.150
-538.193	246.751	0.048	0.081
-537.179	-33.400	-0.082	0.045
-536.164	221.975	0.188	-0.303
-535.150	-178.568	-0.439	0.010
-534.135	294.969	-0.118	-0.216
-533.121	27.178	-0.083	-0.070
-532.106	-48.463	0.073	0.035
-531.091	30.221	-0.283	0.243
-530.077	262.480	0.183	-0.319
-529.062	515.990	-0.105	-0.246
-528.048	-60.490	0.232	-0.099
-527.033	257.613	0.060	-0.103
-526.018	-39.356	0.251	-0.132
-525.004	-58.230	0.134	0.059
-523.989	-170.974	-0.075	0.003
-522.975	75.573	0.123	-0.130
-521.960	542.175	0.110	-0.263
-520.945	221.931	-0.087	-0.140
-519.931	-200.000	0.004	-0.084
-518.916	78.020	-0.189	0.203
-517.902	-42.104	-0.015	-0.008
-516.887	217.225	-0.083	-0.132
-515.872	800.000	0.127	-0.441
-514.858	123.098	-0.140	-0.176
-513.843	800.000	-0.017	0.063
-512.829	-96.360	-0.084	-0.022
-511.814	90.422	-0.095	-0.107
-510.799	-200.000	-0.006	-0.051
-509.785	-12.768	-0.106	0.069
-508.770	288.231	0.044	0.079
-507.756	-123.446	-0.270	0.043
-506.741	162.546	0.114	0.161
-505.726	-178.135	0.254	-0.006
-504.712	-106.404	0.325	0.073
-503.697	-126.085	-0.252	0.038
-502.683	-71.272	0.229	-0.086
-501.668	352.672	-0.077	-0.154
-500.653	-149.676	0.213	-0.017
-499.639	-92.005	-0.231	0.065
-498.624	-16.934	0.114	0.072
-497.610	-200.000	-0.027	0.274
-496.595	-200.000	0.015	0.099
-495.581	-200.000	0.006	0.127
-494.566	-29.633	0.364	-0.209
-493.551	800.000	-0.062	-0.217
-492.537	-101.394	0.344	0.084
-491.522	36.658	-0.214	0.189
-490.508	327.289	0.186	0.358
-489.493	-200.000	0.013	-0.470
-488.478	-106.361	-0.132	0.030
-487.464	800.000	-0.032	0.137
-486.449	-2.714	0.188	-0.132
-485.435	-3.264	0.038	0.027
-484.420	606.392	0.080	-0.200
-483.405	224.345	0.045	0.074
-482.391	-121.968	-0.157	-0.026
-481.376	-200.000	0.029	0.266
-480.362	41.533	0.272	0.247
-479.347	-52.945	-0.261	-0.120
-478.332	-33.863	0.039	-0.022
-477.318	-200.000	0.020	0.221
-476.303	-65.094	0.327	-0.132
-475.289	-191.871	-0.161	-0.002
-474.274	-200.000	-0.008	-0.319
-473.259	59.527	-0.103	0.102
-472.245	-200.000	0.080	-0.000
-471.230	-200.000	0.057	0.348
-470.216	106.159	0.034	0.041
-469.201	-153.440	-0.436	0.030
-468.186	-94.933	-0.118	0.032
-467.172	-26.436	-0.025	0.015
-466.157	800.000	-0.033	0.118
-465.143	800.000	-0.026	-0.107
-464.128	-16.399	0.264	0.168
-463.113	-58.109	0.392	0.171
-462.099	-68.111	0.218	-0.085
-461.084	85.885	0.104	-0.115
-460.070	800.000	-0.040	0.123
-459.055	-200.000	-0.018	0.146
-458.040	49.944	0.104	0.098
-457.026	-121.116	-0.058	0.010
-456.011	-77.168	0.249	-0.087
-454.997	286.940	0.070	-0.127
-453.982	800.000	0.080	0.297
-452.968	-32.615	-0.202	0.113
-451.953	-20.655	0.242	-0.149
-450.938	236.264	0.123	0.204
-449.924	428.391	0.146	0.317
-448.909	3.262	0.316	0.230
-447.895	-6.933	0.138	0.094
-446.880	800.000	-0.010	0.037
-445.865	-148.071	-0.226	0.019
-444.851	0.512	0.288	0.206
-443.836	135.798	-0.117	-0.152
-442.822	119.556	-0.017	0.021
-441.807	393.150	-0.113	-0.236
-440.792	-97.346	-0.199	-0.052
-439.778	471.885	-0.094	-0.212
-438.763	-11.259	-0.257	0.170
-437.749	-59.891	0.214	0.092
-436.734	191.666	-0.099	-0.149
-435.719	80.157	-0.075	0.081
-434.705	158.390	0.201	-0.279
-433.690	-124.942	-0.194	0.030
-432.676	-0.491	-0.216	-0.153
-431.661	-74.148	-0.171	0.062
-430.646	800.000	0.102	0.437
-429.632	-177.642	0.094	-0.002
-428.617	113.046	-0.126	0.153
-427.603	-88.506	0.265	0.079
-426.588	-55.398	-0.184	-0.082
-425.573	115.289	0.086	0.105
-424.559	146.530	0.034	-0.046
-423.544	320.722	-0.032	-0.061
-422.530	449.905	0.033	0.073
-421.515	-115.056	-0.113	-0.021
-420.500	15.127	0.115	-0.090
-419.486	800.000	-0.084	0.266
-418.471	-65.669	0.174	-0.070
-417.457	40.223	0.157	-0.141
-416.442	-87.938	0.066	-0.020
-415.428	29.344	0.237	-0.201
-414.413	70.136	0.240	-0.248
-413.398	-4.969	-0.118	0.082
-412.384	306.981	-0.107	-0.200
-411.369	-7.319	-0.208	0.141
-410.355	-200.000	0.043	-0.217
-409.340	800.000	-0.113	0.334
-408.325	-72.900	-0.188	-0.069
-407.311	-125.448	0.465	-0.071
-406.296	-139.311	0.152	0.016
-405.282	-161.067	0.225	-0.012
-404.267	-200.000	0.075	0.394
-403.252	-140.607	-0.302	0.031
-402.238	-31.258	0.146	-0.082
-401.223	-29.673	0.124	0.071
-400.209	-200.000	0.024	0.317
-399.194	-21.856	-0.354	0.215
-398.179	13.951	0.030	0.024
-397.165	77.218	0.176	0.188
-396.150	-33.716	-0.161	0.089
-395.136	-33.156	-0.267	-0.148
-394.121	-183.478	0.398	0.007
-393.106	96.272	-0.141	-0.161
-392.092	243.204	0.165	-0.276
-391.077	135.687	0.124	-0.162
-390.063	62.681	0.222	0.222
-389.048	-0.933	-0.322	0.228
-388.033	800.000	0.026	-0.110
-387.019	88.347	-0.081	0.090
-386.004	492.721	-0.090	0.207
-384.990	367.456	0.045	0.090
-383.975	75.051	-0.198	-0.208
-382.960	-200.000	-0.029	0.271
-381.946	-31.912	0.280	-0.156
-380.931	-45.468	0.353	-0.175
-379.917	374.905	0.064	0.129
-378.902	2.394	-0.060	0.043
-377.888	121.905	-0.055	0.068
-376.873	-8.014	0.129	-0.087
-375.858	-71.447	0.078	0.029
-374.844	800.000	0.020	-0.068
-373.829	-158.055	0.282	-0.017
-372.815	-200.000	-0.020	-0.097
-371.800	-67.090	-0.088	-0.035
-370.785	-200.000	-0.038	-0.339
-369.771	-2.251	0.201	0.141
-368.756	-200.000	-0.023	0.251
-367.742	-200.000	-0.028	-0.354
-366.727	17.637	0.236	0.187
-365.712	-36.394	-0.255	0.137
-364.698	-200.000	0.008	-0.066
-363.683	13.519	0.127	-0.098
-362.669	171.374	0.060	0.085
-361.654	-175.455	0.144	0.004
-360.639	-200.000	0.025	-0.145
-359.625	61.379	0.038	-0.038
-358.610	33.746	0.247	-0.215
-357.596	75.886	-0.161	0.170
-356.581	232.714	-0.028	-0.045
-355.566	800.000	0.129	0.432
-354.552	-200.000	0.014	0.316
-353.537	-36.332	0.215	-0.115
-352.523	-23.287	0.245	0.147
-351.508	328.557	-0.047	-0.089
-350.493	-182.239	-0.268	0.005
-349.479	-66.942	-0.409	0.161
-348.464	-30.938	-0.315	-0.178
-347.450	-84.656	-0.204	-0.064
-346.435	-162.113	-0.316	0.016
-345.420	-107.008	0.210	-0.046
-344.406	282.768	0.150	0.268
-343.391	-86.954	-0.484	0.147
-342.377	800.000	0.025	0.079
-341.362	-101.856	0.246	0.059
-340.348	118.244	-0.129	0.159
-339.333	88.466	0.083	0.093
-338.318	44.225	-0.271	0.248
-337.304	-66.900	-0.163	-0.064
-336.289	-100.341	-0.133	-0.033
-335.275	88.716	-0.113	0.125
-334.260	-13.927	0.157	0.101
-333.245	127.333	0.027	0.034
-332.231	-46.042	0.068	0.033
-331.216	-74.074	0.121	0.044
-330.202	79.183	-0.112	-0.120
-329.187	-52.941	0.276	0.126
-328.172	800.000	-0.138	-0.476
-327.158	800.000	-0.026	0.079
-326.143	-200.000	-0.010	-0.174
-325.129	-200.000	0.006	-0.147
-324.114	91.227	-0.239	-0.267
-323.099	-20.346	-0.278	0.171
-322.085	-15.074	-0.122	0.078
-321.070	353.003	-0.054	0.107
-320.056	-41.625	0.120	-0.061
-319.041	-200.000	0.039	0.180
-318.026	40.027	-0.287	-0.257
-317.012	-48.094	0.121	-0.058
-315.997	65.990	-0.062	-0.063
-314.983	710.425	-0.055	0.145
-313.968	800.000	-0.145	0.431
-312.953	1.277	-0.188	0.134
-311.939	59.037	-0.056	-0.055
-310.924	170.788	0.068	0.097
-309.910	42.933	0.161	-0.147
-308.895	-167.554	0.360	0.014
-307.880	-200.000	-0.003	-0.095
-306.866	-14.787	0.073	0.047
-305.851	277.891	0.097	-0.172
-304.837	-200.000	0.003	0.037
-303.822	-4.630	-0.235	-0.162
-302.807	171.104	0.084	-0.120
-301.793	-1.819	-0.177	0.124
-300.778	-118.992	0.458	0.080
-299.764	-44.054	-0.170	0.085
-298.749	-200.000	0.004	-0.188
-297.735	192.627	-0.166	0.249
-296.720	12.859	0.111	0.085
-295.705	-34.273	0.092	-0.050
-294.691	800.000	0.024	-0.102
-293.676	15.199	-0.155	0.121
-292.662	-96.160	0.207	0.055
-291.647	590.905	-0.101	0.249
-290.632	-34.457	-0.214	0.117
-289.618	800.000	0.069	-0.263
-288.603	-11.197	0.109	-0.071
-287.589	-43.852	-0.118	0.059
-286.574	-66.191	0.201	0.080
-285.559	53.582	0.105	-0.100
-284.545	94.346	-0.146	0.165
-283.530	200.388	0.094	0.143
-282.516	-167.227	0.223	-0.009
-281.501	81.203	0.205	0.221
-280.486	12.331	-0.217	0.166
-279.472	-200.000	0.010	-0.056
-278.457	800.000	-0.040	-0.164
-277.443	-33.035	0.201	-0.111
-276.428	124.052	0.132	-0.166
-275.413	432.935	0.078	0.168
-274.399	112.050	0.138	-0.166
-273.384	-73.003	0.274	-0.100
-272.370	-77.760	0.090	-0.031
-271.355	-200.000	0.013	-0.099
-270.340	-8.415	-0.121	-0.081
-269.326	-36.075	0.204	-0.109
-268.311	177.339	-0.130	0.188
-267.297	-40.299	0.161	-0.083
-266.282	-57.277	0.111	0.049
-265.267	-44.339	0.180	-0.090
-264.253	-200.000	0.005	0.098
-263.238	-200.000	0.045	-0.199
-262.224	108.061	-0.232	-0.274
-261.209	252.800	-0.157	0.266
-260.195	92.368	0.212	-0.238
-259.180	-45.923	-0.296	0.145
-258.165	-200.000	0.009	0.046
-257.151	-200.000	0.001	-0.214
-256.136	-60.887	0.251	-0.106
-255.122	537.796	-0.026	-0.062
-254.107	69.985	0.191	-0.196
-253.092	-111.680	-0.249	-0.050
-252.078	351.112	-0.159	0.312
-251.063	-13.974	0.175	0.112
-250.049	-29.114	-0.150	-0.086
-249.034	-123.370	0.165	0.026
-248.019	-200.000	-0.048	0.291
-247.005	256.371	0.216	0.369
-245.990	-200.000	-0.009	0.121
-244.976	258.588	0.060	0.102
-243.961	-200.000	0.037	0.222
-242.946	800.000	-0.090	-0.290
-241.932	120.347	-0.127	-0.157
-240.917	18.583	-0.088	0.070
-239.903	31.063	-0.024	-0.020
-238.888	-51.247	0.308	-0.143
-237.873	276.542	0.043	0.076
-236.859	47.326	-0.198	-0.183
-235.844	-8.904	0.093	0.062
-234.830	-85.081	-0.395	0.123
-233.815	-47.518	0.155	-0.075
-232.800	-179.992	0.255	-0.005
-231.786	-22.403	-0.082	-0.049
-230.771	-200.000	0.005	0.097
-229.757	529.605	0.078	-0.183
-228.742	489.604	0.118	0.267
-227.727	-110.717	0.390	0.080
-226.713	-10.016	0.324	0.214
-225.698	-200.000	0.047	0.239
-224.684	184.399	0.190	-0.279
-223.669	-73.811	0.191	0.069
-222.655	800.000	0.023	-0.097
-221.640	-49.114	0.063	-0.030
-220.625	-29.349	-0.258	-0.146
-219.611	800.000	0.011	0.038
-218.596	-80.346	-0.199	-0.066
-217.582	37.655	-0.180	0.158
-216.567	-200.000	-0.011	0.060
-215.552	459.474	0.034	-0.074
-214.538	174.791	0.060	0.086
-213.523	-0.991	0.176	-0.124
-212.509	-200.000	-0.043	-0.220
-211.494	-188.874	-0.229	-0.003
-210.479	-59.533	-0.218	0.093
-209.465	-200.000	0.027	-0.310
-208.450	-200.000	-0.004	-0.125
-207.436	-0.797	-0.381	-0.268
-206.421	57.900	-0.208	-0.202
-205.406	-49.473	0.063	0.030
-204.392	-63.338	-0.334	-0.136
-203.377	-200.000	0.016	0.157
-202.363	397.233	0.081	0.169
-201.348	686.172	-0.037	0.097
-200.333	51.792	-0.125	0.118
-199.319	-153.048	0.282	-0.020
-198.304	-113.413	-0.395	-0.077
-197.290	-7.514	0.222	0.149
-196.275	214.370	-0.035	-0.055
-195.260	800.000	-0.095	0.270
-194.246	-120.581	0.351	-0.059
-193.231	-196.717	0.240	-0.002
-192.217	193.385	0.116	0.173
-191.202	-90.816	-0.193	-0.055
-190.187	-28.511	-0.261	-0.149
-189.173	141.825	-0.181	-0.238
-188.158	47.230	-0.163	-0.151
-187.144	-76.399	-0.056	-0.020
-186.129	40.359	0.155	0.138
-185.114	-126.443	0.013	0.002
-184.100	-200.000	-0.020	0.345
-183.085	-200.000	-0.055	0.298
-182.071	74.375	-0.285	0.297
-181.056	-200.000	-0.001	0.109
-180.042	19.672	0.238	-0.190
-179.027	230.022	0.039	-0.064
-178.012	-91.432	0.108	-0.031
-176.998	87.322	-0.124	-0.136
-175.983	-138.438	-0.067	0.007
-174.969	-166.913	-0.247	-0.010
-173.954	418.865	0.065	-0.137
-172.939	-200.000	0.038	-0.266
-171.925	-200.000	-0.020	-0.205
-170.910	488.873	0.084	0.190
-169.896	800.000	-0.102	-0.389
-168.881	-200.000	0.010	0.140
-167.866	800.000	0.051	-0.218
-166.852	-36.937	-0.062	-0.033
-165.837	196.580	0.042	-0.064
-164.823	-124.228	0.198	0.031
-163.808	266.724	0.060	0.104
-162.793	-40.829	0.214	-0.110
-161.779	-147.858	-0.195	0.016
-160.764	-83.531	0.135	-0.043
-159.750	-102.368	-0.225	0.054
-158.735	-99.990	0.066	0.016
-157.720	-158.941	0.228	-0.013
-156.706	232.690	0.152	-0.247
-155.691	-152.223	0.135	-0.010
-154.677	-85.960	-0.193	-0.059
-153.662	219.727	-0.299	-0.474
-152.647	-200.000	0.032	0.174
-151.633	-200.000	-0.039	0.342
-150.618	56.214	-0.274	0.263
-149.604	800.000	-0.041	-0.136
-148.589	177.327	0.165	-0.237
-147.574	12.403	0.288	0.220
-146.560	-59.482	-0.268	0.114
-145.545	163.529	0.175	-0.243
-144.531	-153.446	-0.118	-0.008
-143.516	-200.000	-0.012	-0.171
-142.502	611.738	-0.163	-0.403
-141.487	-200.000	-0.006	-0.140
-140.472	-120.626	-0.287	-0.048
-139.458	34.696	-0.138	-0.119
-138.443	34.987	-0.280	0.242
-137.429	-76.782	0.400	0.139
-136.414	-80.743	-0.399	0.131
-135.399	-117.542	0.247	-0.044
-134.385	-97.277	-0.176	0.045
-133.370	160.317	-0.104	0.143
-132.356	20.415	-0.027	-0.022
-131.341	-195.248	-0.093	0.001
-130.326	-146.012	0.128	0.011
-129.312	-46.481	0.104	-0.051
-128.297	-64.704	0.253	0.101
-127.283	67.501	0.083	0.083
-126.268	-158.232	-0.225	-0.013
-125.253	92.776	0.183	0.204
-124.239	-71.231	-0.342	0.127
-123.224	-191.383	0.109	-0.001
-122.210	-76.986	0.234	0.081
-121.195	635.864	-0.059	0.148
-120.180	51.336	0.066	-0.062
-119.166	-200.000	-0.042	-0.238
-118.151	-76.057	-0.172	0.060
-117.137	-134.603	0.276	0.033
-116.122	68.347	-0.060	-0.060
-115.107	176.238	0.154	-0.221
-114.093	571.252	0.063	0.152
-113.078	-72.853	0.159	0.058
-112.064	-60.730	-0.126	-0.053
-111.049	291.810	-0.138	0.249
-110.034	-40.947	-0.307	-0.157
-109.020	528.193	0.028	-0.065
-108.005	-200.000	-0.009	0.237
-106.991	-97.831	-0.209	0.053
-105.976	790.874	-0.088	0.238
-104.962	800.000	0.021	0.090
-103.947	-129.683	-0.253	0.034
-102.932	-200.000	-0.025	-0.256
-101.918	76.034	-0.099	-0.103
-100.903	-73.264	0.228	0.083
-99.889	593.114	-0.060	0.146
-98.874	186.051	0.146	-0.215
-97.859	173.405	-0.140	0.199
-96.845	-200.000	-0.046	0.333
-95.830	181.957	-0.082	-0.119
-94.816	71.808	0.155	-0.159
-93.801	51.607	-0.180	-0.169
-92.786	-200.000	-0.059	0.476
-91.772	98.612	-0.215	0.245
-90.757	116.701	0.150	0.182
-89.743	-14.407	0.036	-0.023
-88.728	-113.226	-0.384	0.075
-87.713	-20.987	0.239	-0.145
-86.699	-47.897	-0.521	-0.249
-85.684	-150.747	0.146	-0.011
-84.670	-200.000	-0.013	-0.134
-83.655	681.828	0.151	0.388
-82.640	-96.039	0.218	-0.057
-81.626	-200.000	-0.029	0.135
-80.611	-49.776	-0.197	-0.093
-79.597	-200.000	-0.000	-0.035
-78.582	800.000	-0.064	0.224
-77.567	-200.000	0.016	-0.113
-76.553	428.543	-0.164	-0.350
-75.538	-39.400	-0.132	0.068
-74.524	146.478	-0.059	-0.079
-73.509	-162.780	0.417	-0.020
-72.494	646.559	0.059	-0.149
-71.480	55.624	-0.283	0.271
-70.465	565.923	0.136	0.325
-69.451	-24.293	-0.158	-0.093
-68.436	-143.182	0.299	0.028
-67.422	800.000	0.042	-0.166
-66.407	-99.692	-0.119	0.029
-65.392	-127.560	0.273	0.039
-64.378	421.217	0.139	-0.293
-63.363	9.385	-0.198	0.148
-62.349	13.285	-0.059	0.045
-61.334	55.997	-1.345	-1.288
-60.319	46.355	0.472	0.432
-59.305	-200.000	-0.129	-0.899
-58.290	-17.098	0.672	0.418
-57.276	235.375	0.788	1.283
-56.261	-200.000	101.842	621.114
-55.246	628.206	1436.544	3579.987
-54.232	179.330	2661.735	3841.714
-53.217	120.871	2196.765	2694.407
-52.203	45.448	1637.177	1490.320
-51.188	36.845	1369.315	1193.706
-50.173	33.495	1326.380	1136.188
-49.159	56.922	1378.055	1324.072
-48.144	60.344	1394.495	1360.645
-47.130	37.040	1348.189	1176.289
-46.115	33.396	1329.775	1138.318
-45.100	33.164	1325.090	1132.874
-44.086	33.068	1322.609	1130.133
-43.071	32.989	1320.251	1127.604
-42.057	33.023	1318.507	1126.274
-41.042	33.056	1316.885	1125.036
-40.027	33.113	1314.864	1123.604
-39.013	33.039	1312.825	1121.381
-37.998	33.031	1311.293	1119.979
-36.984	33.167	1309.454	1119.169
-35.969	33.123	1307.771	1117.427
-34.954	33.193	1306.074	1116.346
-33.940	33.175	1304.782	1115.093
-32.925	33.309	1303.200	1114.482
-31.911	33.310	1301.332	1112.846
-30.896	33.269	1300.197	1111.592
-29.881	33.363	1298.928	1111.015
-28.867	33.358	1297.405	1109.640
-27.852	33.338	1296.163	1108.414
-26.838	33.400	1294.095	1106.966
-25.823	33.315	1292.962	1105.453
-24.809	33.212	1292.018	1104.004
-23.794	33.236	1290.400	1102.720
-22.779	33.329	1288.873	1101.908
-21.765	33.317	1287.678	1100.777
-20.750	33.343	1286.314	1099.713
-19.736	33.225	1285.202	1098.036
-18.721	33.256	1283.862	1097.030
-17.706	33.160	1282.659	1095.403
-16.692	33.120	1281.693	1094.302
-15.677	33.155	1280.886	1093.768
-14.663	33.081	1279.328	1091.968
-13.648	33.000	1278.933	1091.121
-12.633	33.194	1277.496	1090.971
-11.619	33.073	1276.761	1089.600
-10.604	33.087	1275.538	1088.597
-9.590	33.159	1274.434	1088.027
-8.575	33.160	1273.564	1087.247
-7.560	33.083	1272.701	1086.023
-6.546	33.019	1272.141	1085.135
-5.531	33.000	1271.013	1084.021
-4.517	33.031	1270.251	1083.505
-3.502	33.032	1269.699	1082.999
-2.487	33.116	1268.207	1082.163
-1.473	33.051	1265.089	1079.085
-0.458	32.185	1250.165	1061.427
0.556	27.393	1232.598	1026.463
1.571	23.932	1238.336	1011.502
2.586	23.192	1253.774	1019.763
3.600	22.159	1242.272	1004.414
4.615	15.302	1166.037	905.777
5.629	4.787	1086.740	790.919
6.644	0.336	1065.481	753.173
7.659	0.093	1063.230	750.301
8.673	-0.111	1061.644	748.102
9.688	0.033	1060.049	747.629
10.702	0.320	1058.847	748.137
11.717	6.872	1068.173	787.393
12.731	16.685	1083.098	847.688
13.746	21.280	1087.889	874.417
14.761	21.784	1089.162	877.887
15.775	21.910	1088.161	877.630
16.790	21.616	1087.627	875.654
17.804	21.500	1086.713	874.262
18.819	21.580	1086.535	874.439
19.834	21.803	1085.971	875.023
20.848	21.767	1085.553	874.429
21.863	21.873	1084.484	874.018
22.877	21.695	1084.326	872.923
23.892	21.645	1083.262	871.745
24.907	21.761	1082.729	871.811
25.921	21.757	1081.303	870.566
26.936	21.652	1080.532	869.349
27.950	21.684	1078.754	867.999
28.965	21.506	1076.815	865.484
29.980	21.598	1074.943	864.356
30.994	21.866	1074.147	864.960
32.009	21.730	1073.139	863.405
33.023	21.495	1072.022	861.270
34.038	21.647	1070.876	861.023
35.053	21.704	1070.828	861.189
36.067	21.772	1069.707	860.542
37.082	21.901	1068.862	860.421
38.096	21.969	1068.438	860.335
39.111	21.970	1067.531	859.535
40.126	21.972	1065.544	857.866
41.140	21.507	1064.502	854.685
42.155	21.352	1062.424	852.185
43.169	21.363	1062.047	851.859
44.184	21.335	1060.765	850.619
45.199	21.290	1059.676	849.454
46.213	21.497	1058.428	849.380
47.228	21.451	1058.012	848.749
48.242	21.562	1056.966	848.373
49.257	21.745	1055.956	848.374
50.271	21.863	1054.937	848.052
51.286	21.766	1054.543	847.188
52.301	21.840	1053.508	846.642
53.315	21.745	1052.356	845.182
54.330	21.688	1051.457	844.110
55.344	21.766	1050.583	843.709
56.359	21.642	1049.795	842.408
57.374	21.541	1048.752	841.010
58.388	21.598	1047.947	840.562
59.403	21.548	1047.235	839.679
60.417	21.337	1046.374	837.903
61.432	21.425	1045.578	837.609
62.447	21.518	1045.158	837.647
63.461	21.678	1044.083	837.473
64.476	21.545	1042.862	835.789
65.490	21.551	1041.996	835.047
66.505	21.588	1041.368	834.645
67.520	21.562	1040.826	834.016
68.534	21.436	1039.246	832.076
69.549	21.133	1038.528	829.987
70.563	21.050	1037.976	829.078
71.578	21.007	1036.843	827.895
72.593	20.899	1036.067	826.688
73.607	21.040	1035.268	826.645
74.622	21.268	1035.309	827.685
75.636	21.291	1034.763	827.286
76.651	21.279	1033.363	826.037
77.666	21.187	1032.516	824.850
78.680	21.352	1031.625	824.847
79.695	21.323	1031.586	824.606
80.709	21.424	1030.879	824.445
81.724	21.405	1029.634	823.286
82.739	21.445	1029.218	823.070
83.753	21.761	1028.755	824.111
84.768	21.985	1027.918	824.421
85.782	22.087	1026.842	823.960
86.797	21.908	1025.958	822.340
87.812	21.859	1024.850	821.150
88.826	21.958	1023.802	820.704
89.841	22.013	1022.909	820.170
90.855	22.024	1021.854	819.303
91.870	22.015	1020.876	818.404
92.884	21.822	1020.142	816.846
93.899	21.758	1019.047	815.599
94.914	21.949	1018.020	815.592
95.928	21.826	1017.083	814.197
96.943	21.484	1016.115	811.762
97.957	21.349	1014.634	809.881
98.972	21.299	1013.208	808.442
99.987	21.590	1012.742	809.343
101.001	21.593	1012.227	808.875
102.016	21.692	1011.004	808.283
103.030	21.613	1009.937	806.992
104.045	21.406	1009.028	805.241
105.060	21.268	1007.776	803.540
106.074	21.512	1007.398	804.290
107.089	21.818	1006.898	805.223
108.103	21.618	1005.674	803.255
109.118	21.517	1004.473	801.764
110.133	21.485	1003.534	800.793
111.147	21.466	1001.981	799.399
112.162	21.327	1000.937	797.859
113.176	21.507	1000.741	798.454
114.191	21.345	999.644	796.771
115.206	21.230	998.313	795.114
116.220	21.052	997.613	793.680
117.235	21.314	996.998	794.310
118.249	21.352	995.843	793.492
119.264	21.247	994.813	792.122
120.279	21.251	994.542	791.858
121.293	21.376	993.564	791.575
122.308	21.283	992.424	790.174
123.322	21.103	991.345	788.434
124.337	21.037	990.123	787.093
125.352	20.692	987.983	783.770
126.366	20.529	987.128	782.289
127.381	21.355	987.172	785.969
128.395	21.731	986.460	787.020
129.410	21.718	985.888	786.436
130.424	21.694	985.191	785.703
131.439	21.705	983.902	784.654
132.454	21.586	982.757	783.143
133.468	21.660	982.263	783.008
134.483	21.765	981.413	782.733
135.497	21.973	980.427	782.805
136.512	21.879	979.926	781.913
137.527	22.021	978.714	781.509
138.541	22.014	977.851	780.722
139.556	21.991	976.943	779.824
140.570	22.080	976.473	779.774
141.585	22.154	975.088	778.931
142.600	22.083	974.031	777.703
143.614	22.122	973.900	777.700
144.629	22.238	973.032	777.451
145.643	22.090	971.847	775.782
146.658	21.949	970.246	773.816
147.673	21.908	969.176	772.713
148.687	21.754	968.150	771.148
149.702	21.801	967.090	770.443
150.716	21.733	966.065	769.260
151.731	21.877	965.479	769.358
152.746	22.073	965.263	769.974
153.760	22.224	964.131	769.664
154.775	22.204	963.778	769.228
155.789	22.107	962.929	768.057
156.804	22.106	962.016	767.257
157.819	22.092	961.272	766.537
158.833	22.163	960.569	766.216
159.848	22.282	959.234	765.600
160.862	22.157	958.099	764.084
161.877	22.054	957.412	763.020
162.892	22.247	956.257	762.873
163.906	22.072	955.599	761.521
164.921	22.099	954.330	760.558
165.935	22.113	953.510	759.898
166.950	21.908	952.793	758.372
167.964	22.169	951.710	758.569
168.979	22.006	950.530	756.860
169.994	21.943	949.283	755.528
171.008	22.195	948.733	756.110
172.023	22.342	947.645	755.806
173.037	21.994	946.614	753.426
174.052	21.777	945.755	751.743
175.067	21.859	945.447	751.784
176.081	21.999	944.401	751.484
177.096	21.796	944.084	750.296
178.110	21.649	942.817	748.595
179.125	21.313	942.728	747.023
180.140	21.610	941.476	747.233
181.154	21.677	941.402	747.392
182.169	21.911	941.499	748.403
183.183	22.040	941.198	748.647
184.198	22.002	939.899	747.386
185.213	22.017	938.734	746.458
186.227	22.061	938.301	746.235
187.242	21.969	938.018	745.551
188.256	22.232	936.883	745.700
189.271	22.206	936.159	744.946
190.286	21.986	934.936	742.976
191.300	21.336	933.816	739.272
192.315	20.524	932.273	734.553
193.329	20.483	932.117	734.193
194.344	21.469	932.201	738.361
195.359	22.035	932.220	740.695
196.373	21.960	931.844	740.016
197.388	21.855	931.315	739.089
198.402	22.079	930.153	739.042
199.417	22.018	929.348	738.080
200.432	21.653	928.436	735.760
201.446	21.515	928.084	734.836
202.461	21.689	927.375	734.939
203.475	20.675	925.650	729.261
204.490	19.975	924.070	725.020
205.504	20.969	924.540	729.488
206.519	21.671	924.247	732.125
207.534	21.748	924.044	732.222
208.548	22.145	923.679	733.527
209.563	21.867	922.644	731.481
210.577	21.857	922.149	730.981
211.592	22.167	921.724	731.869
212.607	22.163	920.509	730.824
213.621	22.282	920.024	730.867
214.636	22.182	919.501	729.974
215.650	22.103	918.774	729.006
216.665	22.361	917.958	729.360
217.680	22.206	917.038	727.926
218.694	21.753	916.038	725.193
219.709	21.610	915.376	724.012
220.723	21.858	915.161	724.805
221.738	21.948	914.525	724.608
222.753	21.968	913.548	723.851
223.767	22.116	913.254	724.166
224.782	22.265	913.097	724.592
225.796	22.187	912.766	723.941
226.811	21.619	910.905	720.068
227.826	21.037	909.623	716.600
228.840	21.187	909.090	716.730
229.855	21.375	908.235	716.763
230.869	20.908	907.189	713.964
231.884	21.340	907.328	715.781
232.899	22.051	906.981	718.350
233.913	21.975	906.683	717.740
234.928	21.875	905.986	716.716
235.942	21.807	905.182	715.742
236.957	21.595	904.532	714.300
237.972	21.625	903.419	713.478
238.986	21.744	902.905	713.496
240.001	21.772	902.515	713.238
241.015	21.799	902.222	713.051
242.030	21.910	901.761	713.077
243.045	22.016	901.393	713.154
244.059	22.153	900.893	713.248
245.074	21.973	899.582	711.420
246.088	21.630	899.061	709.553
247.103	21.892	898.408	710.037
248.117	22.522	898.428	712.538
249.132	22.616	898.228	712.695
250.147	22.734	897.365	712.424
251.161	22.815	897.187	712.548
252.176	22.805	896.230	711.684
253.190	22.955	895.747	711.844
254.205	23.102	894.998	711.776
255.220	23.047	894.360	710.984
256.234	22.825	893.575	709.406
257.249	22.727	893.173	708.632
258.263	22.845	892.515	708.517
259.278	22.883	891.543	707.838
260.293	22.851	891.007	707.221
261.307	22.797	890.278	706.363
262.322	22.583	889.693	704.981
263.336	21.869	887.668	700.463
264.351	20.800	885.651	694.550
265.366	20.923	885.537	694.886
266.380	21.994	886.220	699.633
267.395	22.346	886.042	700.834
268.409	22.642	884.866	701.017
269.424	22.678	884.349	700.690
270.439	22.745	883.770	700.434
271.453	22.784	883.460	700.281
272.468	22.931	883.240	700.628
273.482	22.966	882.496	700.113
274.497	22.464	881.381	697.183
275.512	22.180	879.975	694.884
276.526	22.668	880.071	696.827
277.541	22.797	879.384	696.734
278.555	22.567	878.586	695.133
279.570	22.369	878.325	694.083
280.585	22.668	877.629	694.648
281.599	22.528	876.605	693.226
282.614	21.905	875.583	689.909
283.628	21.973	875.066	689.707
284.643	22.217	875.195	690.706
285.657	22.070	873.422	688.671
286.672	21.589	872.860	686.280
287.687	22.206	872.776	688.569
288.701	22.411	871.996	688.695
289.716	21.874	871.262	685.956
290.730	21.979	870.418	685.642
291.745	21.622	869.844	683.733
292.760	21.913	869.607	684.624
293.774	23.030	869.711	688.999
294.789	23.270	869.663	689.838
295.803	23.297	868.800	689.198
296.818	23.352	868.339	688.985
297.833	22.901	867.155	686.231
298.847	22.739	866.536	685.051
299.862	23.016	866.498	686.038
300.876	23.235	865.821	686.289
301.891	23.123	864.994	685.138
302.906	22.704	864.083	682.735
303.920	22.777	864.172	683.029
304.935	23.327	863.425	684.505
305.949	23.091	862.677	682.938
306.964	22.970	861.932	681.822
307.979	23.014	861.870	681.883
308.993	23.234	861.594	682.451
310.008	23.608	860.697	683.120
311.022	23.144	860.057	680.765
312.037	22.997	859.428	679.641
313.052	22.718	858.579	677.841
314.066	21.933	856.711	673.294
315.081	21.689	856.190	671.889
316.095	22.412	856.654	674.968
317.110	22.925	856.288	676.587
318.125	22.133	854.654	672.205
319.139	21.002	853.738	667.102
320.154	21.113	852.983	666.876
321.168	21.968	853.390	670.401
322.183	22.695	853.461	673.174
323.197	22.845	852.708	673.093
324.212	23.023	852.720	673.722
325.227	23.131	852.302	673.744
326.241	22.743	851.505	671.578
327.256	22.787	850.669	671.026
328.270	22.651	850.114	670.012
329.285	22.486	849.627	668.941
330.300	22.323	848.701	667.535
331.314	22.532	848.253	667.917
332.329	22.935	848.239	669.372
333.343	23.138	847.955	669.857
334.358	23.048	847.684	669.244
335.373	23.119	847.195	669.066
336.387	23.470	847.223	670.357
337.402	23.360	847.038	669.735
338.416	23.423	846.301	669.333
339.431	23.657	845.922	669.858
340.446	23.765	845.814	670.120
341.460	23.468	844.990	668.287
342.475	23.273	844.322	666.966
343.489	23.554	843.755	667.517
344.504	23.730	844.141	668.425
345.519	23.679	843.863	667.956
346.533	23.898	842.870	667.932
347.548	23.831	842.891	667.636
348.562	23.912	841.992	667.169
349.577	23.830	841.513	666.425
350.592	23.809	840.757	665.687
351.606	23.836	839.918	665.066
352.621	23.747	838.786	663.777
353.635	23.526	838.518	662.681
354.650	22.983	836.855	659.282
355.665	21.971	835.362	654.278
356.679	22.525	835.453	656.358
357.694	22.838	835.228	657.289
358.708	22.660	834.384	655.902
359.723	23.225	834.367	657.933
360.738	23.624	834.077	659.126
361.752	23.498	833.834	658.409
362.767	23.804	833.308	659.070
363.781	24.140	832.801	659.857
364.796	24.349	832.068	659.992
365.810	24.303	831.718	659.485
366.825	24.191	831.765	659.049
367.840	23.864	830.720	656.955
368.854	23.754	829.219	655.303
369.869	23.667	829.235	654.937
370.883	23.718	828.735	654.673
371.898	23.622	828.130	653.783
372.913	23.572	828.332	653.700
373.927	23.774	827.481	653.713
374.942	23.835	827.466	653.868
375.956	23.884	827.124	653.721
376.971	23.933	827.029	653.770
377.986	24.314	826.217	654.468
379.000	24.136	825.726	653.366
380.015	23.956	825.002	652.078
381.029	23.916	824.744	651.668
382.044	24.217	823.992	652.118
383.059	24.174	823.420	651.450
384.073	24.187	822.832	650.975
385.088	24.163	822.221	650.346
386.102	24.020	821.290	649.032
387.117	24.141	820.451	648.751
388.132	23.653	819.665	646.296
389.146	23.141	819.127	643.954
390.161	23.449	819.034	644.941
391.175	23.872	818.636	646.111
392.190	23.685	817.458	644.446
393.205	22.277	815.353	637.630
394.219	20.801	813.993	631.162
395.234	20.792	813.823	630.941
396.248	22.446	814.669	637.537
397.263	23.860	815.961	643.613
398.278	23.882	815.078	642.939
399.292	23.546	814.895	641.524
400.307	23.509	814.125	640.729
401.321	23.624	814.035	641.016
402.336	24.016	813.873	642.246
403.350	24.480	813.466	643.542
404.365	24.513	813.584	643.694
405.380	24.877	813.245	644.683
406.394	24.855	812.848	644.231
407.409	24.729	812.547	643.483
408.423	24.904	811.798	643.459
409.438	24.930	811.356	643.147
410.453	24.743	810.985	642.126
411.467	24.842	810.088	641.713
412.482	24.771	810.155	641.453
413.496	24.915	809.855	641.677
414.511	24.831	809.389	640.950
415.526	24.962	808.455	640.622
416.540	24.720	808.063	639.390
417.555	24.421	807.328	637.683
418.569	24.512	806.955	637.657
419.584	24.607	806.284	637.410
420.599	24.337	805.910	636.093
421.613	155.379	1365.194	1794.379
422.628	134.991	1446.700	1794.479
