DTS Sentinel unit serial number:	SN413079Multiplexer serial number:	ORYXHardware model number:	OX4-SRSoftware version number:	ORYX F/W v4.00 Oryx Data Collector v3.7.2.0data status	okinstallation	princeton_trtdifferential loss correction	single-endedforward channel	channel 1reverse channel	N/Adate	2019/09/13time	13:06:35forward acquisition time	60.00reverse acquisition time	0.00gamma	496.2192k internal	0.2305k external	0.2305temperature offset calibration	1.0166default loss term (dB/km)	0.3790temperature slope calibration	1.0000multiplexer offset coefficient	1.0000multiplexer slope coefficient	1.0000fibre end	0.00T internal ref (°C)	34.81T ext. ref 1 (°C)	4.55T ext. ref 2 (°C)	31.41length (m)	temperature (°C)	Stokes	anti-Stokes-747.200	130.537	-0.237	0.309
-746.185	-51.437	-0.331	0.158
-745.171	-120.573	0.211	0.036
-744.156	-164.647	-0.547	0.025
-743.142	526.048	-0.025	-0.060
-742.127	-101.579	-0.385	0.095
-741.112	28.712	-0.040	0.034
-740.098	-41.354	0.079	-0.042
-739.083	141.052	-0.048	0.064
-738.069	-200.000	-0.023	-0.336
-737.054	-200.000	-0.020	-0.111
-736.039	800.000	0.038	0.145
-735.025	-200.000	0.157	-0.001
-734.010	-200.000	-0.050	-0.411
-732.996	64.154	-0.055	0.056
-731.981	-92.547	-0.206	0.059
-730.966	211.586	-0.053	-0.084
-729.952	-103.294	-0.449	-0.108
-728.937	92.552	-0.188	-0.215
-727.923	-200.000	0.048	0.227
-726.908	800.000	-0.057	-0.252
-725.894	-72.831	-0.189	0.071
-724.879	139.986	-0.047	-0.063
-723.864	-200.000	-0.001	-0.259
-722.850	11.177	-0.406	-0.316
-721.835	-109.139	-0.366	0.079
-720.821	-2.168	-0.217	0.155
-719.806	800.000	-0.113	-0.369
-718.791	-30.080	-0.277	-0.160
-717.777	209.756	0.098	-0.157
-716.762	-34.763	0.050	-0.028
-715.748	-156.489	0.077	0.005
-714.733	-200.000	0.017	-0.160
-713.718	-93.942	-0.442	-0.123
-712.704	660.099	-0.106	0.279
-711.689	-200.000	-0.018	0.205
-710.675	-200.000	0.004	0.036
-709.660	23.422	-0.091	-0.076
-708.645	48.997	0.376	0.359
-707.631	-198.658	-0.139	-0.001
-706.616	99.044	0.227	0.266
-705.602	-33.018	0.101	-0.057
-704.587	-129.617	0.517	-0.073
-703.572	61.566	0.119	0.120
-702.558	-200.000	0.024	0.201
-701.543	-111.167	0.263	0.055
-700.529	38.502	0.120	0.109
-699.514	-77.096	0.255	-0.090
-698.499	201.061	0.068	-0.107
-697.485	-124.989	0.093	0.014
-696.470	265.212	0.059	0.105
-695.456	800.000	0.031	-0.121
-694.441	418.517	0.048	0.104
-693.426	-200.000	0.023	-0.252
-692.412	-146.325	0.276	-0.025
-691.397	-77.354	0.149	-0.053
-690.383	-98.799	-0.067	0.017
-689.368	-162.986	-0.059	0.003
-688.354	314.450	0.059	0.112
-687.339	156.407	0.147	0.205
-686.324	-169.057	-0.316	-0.012
-685.310	-137.020	-0.325	-0.038
-684.295	131.507	-0.183	0.240
-683.281	-94.533	-0.102	0.028
-682.266	-200.000	0.033	-0.234
-681.251	70.079	0.049	0.052
-680.237	-200.000	0.028	0.170
-679.222	24.178	0.347	-0.291
-678.208	-200.000	0.043	0.203
-677.193	-108.623	0.153	0.033
-676.178	-200.000	0.024	0.142
-675.164	117.932	0.050	-0.063
-674.149	-143.224	0.422	0.041
-673.135	-133.249	-0.296	-0.038
-672.120	-91.180	-0.103	-0.030
-671.105	109.324	0.085	-0.103
-670.091	105.001	-0.055	-0.066
-669.076	88.017	0.072	-0.081
-668.062	-200.000	0.001	0.068
-667.047	-141.413	0.401	0.041
-666.032	-84.883	0.044	0.014
-665.018	-200.000	0.067	-0.334
-664.003	-83.196	0.249	-0.081
-662.989	-6.450	0.035	-0.024
-661.974	-200.000	0.045	-0.514
-660.959	-1.766	0.121	-0.087
-659.945	702.146	-0.070	-0.188
-658.930	-84.834	0.279	0.089
-657.916	-200.000	-0.031	0.203
-656.901	10.450	-0.271	0.209
-655.886	35.707	-0.153	0.137
-654.872	-200.000	0.070	-0.378
-653.857	161.499	0.134	-0.190
-652.843	800.000	-0.044	-0.167
-651.828	-101.572	0.154	0.038
-650.814	-200.000	-0.082	-0.404
-649.799	-107.646	-0.142	0.032
-648.784	24.467	-0.205	-0.172
-647.770	-43.808	-0.150	-0.077
-646.755	800.000	0.066	-0.251
-645.741	-63.822	0.055	-0.023
-644.726	5.341	0.043	0.032
-643.711	402.290	-0.145	-0.309
-642.697	-67.134	0.186	-0.074
-641.682	340.309	-0.136	-0.269
-640.668	21.779	-0.102	0.084
-639.653	-57.419	-0.296	-0.132
-638.638	102.785	0.131	0.156
-637.624	-200.000	0.014	0.076
-636.609	28.080	0.265	0.226
-635.595	800.000	-0.016	0.051
-634.580	-179.539	-0.306	0.007
-633.565	26.470	-0.136	-0.116
-632.551	-82.893	0.054	0.018
-631.536	800.000	-0.029	0.091
-630.522	-65.457	0.176	0.072
-629.507	800.000	0.065	0.194
-628.492	-200.000	-0.005	0.211
-627.478	-172.545	0.192	-0.006
-626.463	-200.000	0.009	-0.064
-625.449	-78.768	-0.227	0.079
-624.434	-200.000	0.025	0.235
-623.419	-170.334	-0.231	0.008
-622.405	43.697	-0.102	-0.094
-621.390	-114.405	-0.341	-0.066
-620.376	-16.845	0.121	0.078
-619.361	215.648	0.157	0.252
-618.346	77.635	-0.187	0.202
-617.332	-107.770	-0.151	-0.033
-616.317	800.000	0.061	-0.246
-615.303	72.130	-0.239	-0.252
-614.288	-200.000	0.010	-0.208
-613.273	-200.000	0.036	-0.259
-612.259	-87.974	-0.415	-0.126
-611.244	52.562	-0.163	0.158
-610.230	370.523	-0.042	0.087
-609.215	273.302	0.156	0.279
-608.201	800.000	0.077	0.217
-607.186	800.000	-0.040	-0.160
-606.171	30.838	0.309	-0.268
-605.157	-200.000	-0.012	-0.191
-604.142	249.158	-0.129	0.221
-603.128	-159.736	-0.214	-0.012
-602.113	-80.989	-0.164	0.055
-601.098	-200.000	0.002	-0.158
-600.084	800.000	0.053	0.171
-599.069	800.000	-0.050	-0.161
-598.055	-200.000	0.005	0.164
-597.040	-200.000	-0.009	0.070
-596.025	394.167	0.126	-0.266
-595.011	-74.141	0.181	-0.066
-593.996	-200.000	-0.029	-0.132
-592.982	-46.462	0.194	0.097
-591.967	-59.925	0.274	-0.119
-590.952	-114.760	-0.370	-0.072
-589.938	-28.396	-0.333	0.194
-588.923	-31.223	-0.187	-0.106
-587.909	-200.000	0.003	-0.279
-586.894	-200.000	-0.021	-0.281
-585.879	149.049	-0.302	-0.413
-584.865	39.456	-0.103	-0.093
-583.850	-200.000	-0.035	-0.159
-582.836	-127.548	0.207	0.030
-581.821	-200.000	0.013	0.166
-580.806	-104.486	0.111	0.026
-579.792	-100.350	-0.394	0.099
-578.777	358.388	0.124	0.250
-577.763	-41.639	-0.140	0.073
-576.748	-151.382	0.269	-0.020
-575.733	-200.000	-0.035	0.280
-574.719	-40.335	-0.297	0.156
-573.704	5.250	0.238	0.178
-572.690	-200.000	0.093	-0.453
-571.675	519.047	0.068	-0.162
-570.661	441.607	-0.133	-0.295
-569.646	241.930	-0.154	-0.260
-568.631	-25.695	-0.271	-0.161
-567.617	-200.000	-0.007	-0.291
-566.602	-200.000	0.031	-0.214
-565.588	800.000	0.074	0.209
-564.573	-82.632	0.117	-0.038
-563.558	122.709	0.235	-0.298
-562.544	-170.534	0.150	0.005
-561.529	636.147	-0.166	-0.426
-560.515	800.000	0.007	0.022
-559.500	92.339	0.140	-0.160
-558.485	-200.000	0.009	-0.094
-557.471	-108.379	0.212	-0.046
-556.456	12.728	0.146	-0.114
-555.442	-191.419	0.281	-0.003
-554.427	-17.345	0.185	-0.118
-553.412	800.000	-0.024	0.104
-552.398	59.225	-0.231	-0.230
-551.383	800.000	-0.088	0.257
-550.369	-200.000	0.142	-0.000
-549.354	-200.000	0.025	-0.196
-548.339	67.258	-0.097	0.100
-547.325	-94.474	-0.328	0.090
-546.310	68.710	0.073	0.076
-545.296	-2.203	-0.168	0.119
-544.281	12.972	-0.180	0.141
-543.266	800.000	0.025	0.104
-542.252	-58.093	0.446	-0.197
-541.237	-66.947	0.121	-0.048
-540.223	411.151	0.037	0.079
-539.208	-78.820	0.232	-0.080
-538.193	54.635	0.056	0.055
-537.179	-200.000	0.078	0.345
-536.164	-103.882	-0.280	-0.066
-535.150	65.597	-0.231	-0.236
-534.135	42.957	-0.073	0.067
-533.121	-21.386	0.108	-0.067
-532.106	-90.093	-0.222	0.065
-531.091	-200.000	0.093	-0.441
-530.077	510.707	-0.121	0.283
-529.062	64.546	0.110	0.112
-528.048	-168.491	0.071	0.003
-527.033	498.219	0.054	0.126
-526.018	96.791	-0.209	0.242
-525.004	117.068	-0.038	-0.047
-523.989	144.545	-0.095	-0.128
-522.975	210.211	0.133	0.210
-521.960	-104.518	-0.116	-0.027
-520.945	263.154	-0.068	0.120
-519.931	43.885	0.164	-0.152
-518.916	-200.000	0.009	-0.198
-517.902	-40.488	0.191	-0.100
-516.887	236.421	-0.158	0.265
-515.872	-69.884	-0.201	0.078
-514.858	-200.000	0.060	0.285
-513.843	198.298	-0.297	0.459
-512.829	637.190	0.074	-0.188
-511.814	-103.206	0.322	0.077
-510.799	-161.114	0.185	0.010
-509.785	35.060	-0.082	-0.072
-508.770	-68.811	-0.116	0.045
-507.756	-107.871	-0.198	-0.043
-506.741	15.438	-0.241	0.191
-505.726	-200.000	0.037	0.319
-504.712	-157.969	-0.416	0.025
-503.697	172.287	-0.027	0.039
-502.683	-32.716	0.208	0.116
-501.668	415.862	0.126	0.271
-500.653	-200.000	0.041	-0.211
-499.639	-200.000	0.015	0.221
-498.624	800.000	-0.053	0.152
-497.610	800.000	-0.022	0.078
-496.595	-29.378	-0.063	0.036
-495.581	-200.000	0.066	-0.313
-494.566	-200.000	0.011	-0.198
-493.551	686.529	-0.122	-0.320
-492.537	-200.000	0.005	-0.079
-491.522	800.000	0.019	-0.059
-490.508	-17.980	-0.149	-0.094
-489.493	-107.522	0.187	0.041
-488.478	-141.049	0.060	0.006
-487.464	-10.738	-0.137	-0.091
-486.449	-19.737	-0.225	0.140
-485.435	-108.620	0.294	0.064
-484.420	-77.934	-0.284	0.099
-483.405	557.991	-0.058	-0.142
-482.391	-52.491	-0.054	-0.025
-481.376	-200.000	-0.039	0.185
-480.362	-186.851	-0.320	-0.005
-479.347	-200.000	0.011	0.189
-478.332	800.000	0.032	0.099
-477.318	537.773	0.026	-0.062
-476.303	-200.000	-0.002	-0.337
-475.289	84.934	0.094	-0.104
-474.274	-136.267	-0.167	-0.020
-473.259	-97.625	0.226	0.059
-472.245	-96.313	0.549	-0.146
-471.230	-90.515	0.245	-0.071
-470.216	-112.814	-0.339	0.068
-469.201	-200.000	0.011	0.153
-468.186	370.435	0.166	-0.340
-467.172	-107.950	-0.124	-0.027
-466.157	79.824	0.076	0.082
-465.143	-88.308	-0.218	-0.066
-464.128	-90.295	0.503	-0.147
-463.113	166.108	-0.100	-0.143
-462.099	2.198	-0.145	-0.106
-461.084	-200.000	0.006	-0.062
-460.070	800.000	0.025	-0.105
-459.055	8.919	0.078	-0.059
-458.040	259.601	-0.164	0.284
-457.026	657.627	0.164	0.425
-456.011	61.755	-0.129	-0.129
-454.997	114.833	0.072	-0.089
-453.982	-45.357	0.153	0.076
-452.968	-7.537	-0.084	0.057
-451.953	378.917	-0.051	-0.105
-450.938	352.355	0.122	0.243
-449.924	-176.223	0.024	-0.001
-448.909	-100.872	0.134	-0.033
-447.895	-189.266	-0.145	0.002
-446.880	38.238	0.141	0.126
-445.865	102.505	0.132	-0.156
-444.851	-1.232	0.223	-0.158
-443.836	117.407	0.111	0.137
-442.822	-185.433	0.371	0.006
-441.807	800.000	0.044	-0.154
-440.792	99.093	0.017	0.020
-439.778	800.000	0.052	-0.195
-438.763	-1.723	0.248	0.175
-437.749	409.769	-0.066	0.140
-436.734	800.000	0.141	0.437
-435.719	800.000	0.086	0.314
-434.705	17.046	-0.190	-0.152
-433.690	603.289	-0.032	0.079
-432.676	-200.000	-0.012	0.206
-431.661	390.947	-0.219	0.458
-430.646	472.809	-0.115	-0.260
-429.632	158.832	-0.130	-0.181
-428.617	93.088	0.110	-0.125
-427.603	-200.000	-0.039	0.182
-426.588	-85.153	0.134	0.042
-425.573	-95.350	0.219	0.059
-424.559	-16.458	0.187	0.119
-423.544	800.000	-0.035	0.143
-422.530	120.632	-0.137	-0.171
-421.515	323.915	-0.052	-0.099
-420.500	800.000	0.020	0.063
-419.486	-103.404	0.176	0.042
-418.471	172.534	0.100	-0.145
-417.457	-99.527	0.202	-0.051
-416.442	139.498	0.102	0.135
-415.428	-155.467	0.189	0.012
-414.413	-200.000	-0.015	-0.076
-413.398	-135.092	-0.139	0.017
-412.384	800.000	-0.079	0.240
-411.369	68.333	0.069	-0.071
-410.355	-45.568	-0.284	0.141
-409.340	-76.538	0.305	0.108
-408.325	-200.000	-0.005	-0.104
-407.311	-200.000	0.004	0.069
-406.296	-119.115	0.106	0.019
-405.282	-200.000	0.072	0.504
-404.267	-65.308	-0.166	0.067
-403.252	605.325	0.128	-0.319
-402.238	-160.934	0.229	-0.012
-401.223	-137.503	0.198	0.022
-400.209	145.771	0.060	0.081
-399.194	-200.000	0.053	0.428
-398.179	-37.773	-0.055	-0.029
-397.165	800.000	-0.081	-0.289
-396.150	-163.016	-0.294	0.014
-395.136	182.457	0.166	-0.246
-394.121	-200.000	0.043	-0.219
-393.106	-135.575	-0.218	0.026
-392.092	60.881	0.069	-0.069
-391.077	133.998	0.066	0.085
-390.063	-32.417	-0.145	-0.081
-389.048	-10.205	0.303	-0.202
-388.033	-160.056	-0.178	-0.010
-387.019	-129.895	0.247	0.034
-386.004	-90.997	0.161	0.047
-384.990	-36.015	-0.056	0.030
-383.975	28.891	0.288	-0.245
-382.960	735.463	0.061	0.165
-381.946	623.013	-0.062	-0.156
-380.931	-158.833	0.283	-0.016
-379.917	-141.042	0.097	0.010
-378.902	-73.307	-0.106	-0.039
-377.888	-200.000	0.007	0.122
-376.873	-181.038	-0.477	0.010
-375.858	201.060	-0.090	-0.138
-374.844	-17.758	0.295	-0.186
-373.829	-77.373	-0.353	0.123
-372.815	800.000	-0.095	0.297
-371.800	-5.409	0.324	0.223
-370.785	-149.619	0.204	0.016
-369.771	16.478	-0.124	-0.098
-368.756	-200.000	-0.032	0.263
-367.742	116.208	-0.097	0.119
-366.727	-50.169	0.301	0.143
-365.712	-41.460	0.144	0.075
-364.698	66.952	-0.192	-0.196
-363.683	-150.682	0.286	-0.022
-362.669	4.894	-0.255	0.188
-361.654	800.000	-0.022	0.076
-360.639	-200.000	-0.013	0.172
-359.625	347.270	-0.144	-0.285
-358.610	-156.223	0.362	0.023
-357.596	107.320	-0.228	-0.271
-356.581	-7.142	-0.158	0.108
-355.566	-200.000	-0.036	0.188
-354.552	-200.000	-0.003	0.226
-353.537	458.556	-0.131	0.293
-352.523	430.129	0.071	-0.154
-351.508	-55.220	-0.222	-0.100
-350.493	-57.275	0.326	0.144
-349.479	-131.641	0.168	0.022
-348.464	-200.000	-0.016	0.080
-347.450	-48.159	0.072	0.035
-346.435	-0.058	0.163	0.116
-345.420	6.115	0.075	0.056
-344.406	-165.884	-0.016	0.001
-343.391	83.156	0.100	0.109
-342.377	-111.863	0.294	0.059
-341.362	-200.000	-0.002	-0.170
-340.348	800.000	0.005	-0.019
-339.333	-155.559	0.523	0.034
-338.318	100.047	-0.097	-0.113
-337.304	-57.462	0.183	-0.080
-336.289	312.844	-0.052	0.097
-335.275	208.891	-0.115	0.180
-334.260	-175.454	-0.460	0.013
-333.245	-175.067	-0.178	0.005
-332.231	712.295	-0.034	-0.090
-331.216	35.759	-0.088	-0.078
-330.202	-130.310	-0.071	0.010
-329.187	-200.000	-0.035	0.179
-328.172	-200.000	-0.006	0.040
-327.158	153.732	-0.207	0.284
-326.143	800.000	-0.033	-0.136
-325.129	800.000	-0.083	0.336
-324.114	552.469	0.136	-0.326
-323.099	82.511	0.097	0.106
-322.085	102.205	0.124	0.145
-321.070	715.351	-0.082	0.219
-320.056	-89.452	-0.116	0.034
-319.041	-41.837	0.147	-0.075
-318.026	-31.943	0.119	-0.067
-317.012	-44.625	-0.176	0.088
-315.997	-200.000	0.009	-0.217
-314.983	374.576	-0.032	-0.065
-313.968	375.640	0.032	-0.066
-312.953	-147.574	-0.113	0.010
-311.939	11.121	-0.106	-0.081
-310.924	-174.313	0.484	0.014
-309.910	800.000	0.032	-0.108
-308.895	-99.504	0.230	-0.058
-307.880	260.138	-0.159	-0.275
-306.866	-136.108	0.135	0.016
-305.851	-30.773	0.070	0.040
-304.837	-200.000	-0.043	0.294
-303.822	71.148	-0.154	-0.160
-302.807	800.000	-0.101	0.409
-301.793	192.619	-0.134	0.202
-300.778	-79.143	0.281	0.096
-299.764	-200.000	-0.004	-0.164
-298.749	800.000	-0.018	0.070
-297.735	-169.636	0.108	-0.004
-296.720	-200.000	0.039	-0.442
-295.705	9.611	-0.138	-0.104
-294.691	-56.526	0.264	-0.117
-293.676	209.590	0.048	-0.075
-292.662	11.726	-0.098	0.076
-291.647	396.679	0.028	-0.059
-290.632	800.000	0.022	-0.074
-289.618	117.420	-0.123	-0.151
-288.603	-106.556	0.111	0.025
-287.589	9.925	-0.164	-0.124
-286.574	81.022	0.079	0.085
-285.559	230.689	0.089	-0.145
-284.545	-72.652	-0.292	-0.108
-283.530	-200.000	-0.022	0.215
-282.516	240.587	-0.044	-0.073
-281.501	-122.139	0.129	0.021
-280.486	-200.000	-0.009	0.121
-279.472	729.783	-0.068	-0.181
-278.457	54.079	0.223	0.214
-277.443	-200.000	-0.022	-0.121
-276.428	-1.045	0.143	0.101
-275.413	180.525	-0.078	0.114
-274.399	155.789	0.070	0.096
-273.384	-10.154	-0.176	-0.117
-272.370	236.733	-0.236	-0.391
-271.355	181.247	-0.078	-0.114
-270.340	-58.800	-0.156	0.067
-269.326	32.443	0.082	-0.071
-268.311	-126.037	-0.199	-0.030
-267.297	108.618	-0.244	-0.291
-266.282	63.781	0.080	0.080
-265.267	-39.400	-0.201	0.105
-264.253	800.000	-0.031	-0.103
-263.238	-92.102	0.210	0.059
-262.224	800.000	-0.052	0.147
-261.209	-2.469	-0.078	0.055
-260.195	-101.491	0.174	0.042
-259.180	-88.187	0.339	0.101
-258.165	800.000	-0.028	-0.078
-257.151	124.409	-0.228	-0.287
-256.136	-200.000	-0.062	-0.290
-255.122	188.958	-0.199	0.297
-254.107	-0.119	0.121	0.086
-253.092	-56.112	0.300	0.133
-252.078	227.184	-0.097	0.157
-251.063	40.112	-0.039	0.035
-250.049	609.654	-0.024	0.059
-249.034	18.805	-0.365	0.291
-248.019	-200.000	-0.045	-0.271
-247.005	-5.391	0.054	0.037
-245.990	-200.000	0.037	-0.167
-244.976	144.229	-0.233	0.311
-243.961	-123.141	0.180	-0.029
-242.946	46.256	0.066	-0.061
-241.932	237.992	-0.047	0.078
-240.917	109.989	0.187	-0.224
-239.903	800.000	-0.110	-0.448
-238.888	-33.963	0.101	-0.055
-237.873	-200.000	0.010	0.138
-236.859	-200.000	0.012	-0.050
-235.844	-200.000	-0.001	0.365
-234.830	-20.028	0.217	0.133
-233.815	-200.000	0.051	-0.315
-232.800	800.000	0.070	-0.202
-231.786	800.000	0.090	0.367
-230.771	-177.926	-0.251	-0.006
-229.757	58.352	-0.077	0.075
-228.742	20.072	-0.183	-0.147
-227.727	335.117	-0.041	-0.080
-226.713	167.646	-0.120	0.170
-225.698	61.073	-0.155	0.154
-224.684	381.125	-0.037	-0.075
-223.669	-200.000	-0.045	-0.226
-222.655	-200.000	-0.013	0.417
-221.640	278.556	0.195	0.346
-220.625	800.000	-0.069	0.229
-219.611	-108.172	-0.239	0.052
-218.596	-200.000	-0.035	-0.492
-217.582	734.152	0.019	-0.051
-216.567	502.138	0.011	-0.026
-215.552	44.649	0.082	0.075
-214.538	-200.000	-0.055	-0.252
-213.523	-200.000	0.033	-0.176
-212.509	-68.193	-0.099	-0.038
-211.494	8.000	0.076	0.057
-210.479	38.655	-0.115	-0.103
-209.465	49.709	0.278	-0.261
-208.450	-92.721	-0.149	0.042
-207.436	-200.000	-0.011	0.171
-206.421	-200.000	0.046	-0.289
-205.406	-23.801	0.290	-0.173
-204.392	-200.000	-0.001	0.043
-203.377	576.417	-0.096	-0.234
-202.363	29.592	0.365	-0.310
-201.348	-200.000	0.000	0.175
-200.333	-200.000	-0.007	0.323
-199.319	386.916	-0.089	-0.183
-198.304	644.150	-0.058	0.147
-197.290	-15.040	-0.191	0.122
-196.275	78.317	0.162	0.173
-195.260	800.000	-0.028	-0.104
-194.246	-16.572	-0.197	-0.124
-193.231	-200.000	0.063	-0.369
-192.217	-105.962	-0.087	-0.019
-191.202	444.446	-0.311	-0.680
-190.187	-96.459	-0.138	-0.036
-189.173	16.025	-0.263	-0.207
-188.158	-200.000	-0.023	0.112
-187.144	-200.000	-0.037	0.263
-186.129	800.000	-0.044	0.133
-185.114	-108.708	0.246	0.053
-184.100	21.399	-0.145	-0.117
-183.085	36.698	0.112	-0.099
-182.071	-200.000	0.011	0.210
-181.056	-157.858	-0.336	-0.020
-180.042	-102.355	0.160	-0.038
-179.027	-84.139	0.173	0.055
-178.012	225.322	0.060	0.097
-176.998	800.000	-0.031	0.104
-175.983	-200.000	0.080	-0.353
-174.969	-154.935	0.157	-0.010
-173.954	800.000	0.126	0.366
-172.939	114.084	-0.150	0.182
-171.925	19.954	0.252	0.202
-170.910	32.186	-0.207	-0.178
-169.896	-84.946	0.396	-0.124
-168.881	800.000	-0.063	0.185
-167.866	275.028	-0.121	-0.213
-166.852	-200.000	0.065	0.407
-165.837	-17.022	0.236	0.148
-164.823	800.000	-0.017	0.050
-163.808	-200.000	-0.035	0.301
-162.793	221.822	0.018	0.029
-161.779	194.889	0.038	0.058
-160.764	560.028	0.101	0.242
-159.750	-82.164	-0.217	-0.071
-158.735	74.115	0.081	-0.084
-157.720	800.000	-0.061	0.217
-156.706	800.000	-0.062	0.186
-155.691	-16.140	0.125	0.079
-154.677	297.500	-0.109	-0.198
-153.662	39.112	-0.101	-0.090
-152.647	29.206	0.267	-0.225
-151.633	-67.022	-0.142	-0.056
-150.618	-200.000	-0.002	-0.178
-149.604	-88.341	0.046	0.014
-148.589	-86.562	-0.288	0.088
-147.574	115.558	0.188	-0.229
-146.560	13.358	-0.222	-0.171
-145.545	-30.418	0.236	-0.133
-144.531	162.747	-0.093	-0.130
-143.516	-155.846	0.280	0.018
-142.502	-26.596	0.218	-0.127
-141.487	84.548	0.068	-0.075
-140.472	-55.154	-0.134	0.060
-139.458	123.225	0.240	0.299
-138.443	31.881	-0.120	0.103
-137.429	-200.000	0.013	-0.144
-136.414	-20.214	0.216	-0.132
-135.399	-65.932	0.194	0.077
-134.385	60.313	0.125	-0.122
-133.370	-44.284	-0.270	-0.134
-132.356	-72.713	-0.295	0.108
-131.341	-127.093	0.126	0.018
-130.326	52.990	-0.170	-0.161
-129.312	197.020	-0.068	0.104
-128.297	-17.367	0.233	-0.146
-127.283	110.730	-0.211	0.252
-126.268	23.935	0.241	0.198
-125.253	238.076	-0.279	0.461
-124.239	-30.221	-0.293	-0.166
-123.224	397.520	-0.052	0.108
-122.210	-200.000	0.019	-0.111
-121.195	-178.653	-0.251	0.006
-120.180	-101.162	0.239	0.058
-119.166	-47.429	0.089	0.043
-118.151	363.332	0.085	-0.170
-117.137	-23.758	0.217	0.129
-116.122	4.211	-0.336	-0.245
-115.107	-123.301	-0.370	-0.059
-114.093	-129.964	0.078	0.011
-113.078	-16.267	-0.197	-0.124
-112.064	-200.000	-0.021	-0.099
-111.049	-2.412	-0.100	0.070
-110.034	-200.000	0.030	0.167
-109.020	800.000	-0.109	-0.468
-108.005	-140.540	-0.226	0.023
-106.991	559.912	0.145	-0.349
-105.976	359.444	0.095	-0.189
-104.962	-146.629	-0.210	0.018
-103.947	199.738	0.021	0.032
-102.932	102.790	-0.099	0.115
-101.918	800.000	0.138	0.384
-100.903	-95.210	-0.452	0.121
-99.889	434.734	-0.084	-0.181
-98.874	323.581	0.044	0.084
-97.859	-103.530	-0.305	-0.071
-96.845	-180.660	0.194	0.004
-95.830	212.521	0.047	0.074
-94.816	155.807	-0.177	-0.242
-93.801	37.674	0.248	0.219
-92.786	-200.000	0.013	0.514
-91.772	-59.580	-0.228	0.097
-90.757	110.420	0.206	-0.245
-89.743	-138.773	-0.072	0.008
-88.728	-2.754	-0.314	-0.218
-87.713	-112.852	-0.089	-0.018
-86.699	202.083	0.089	0.137
-85.684	800.000	-0.070	-0.303
-84.670	-168.979	0.045	-0.002
-83.655	339.627	-0.082	-0.159
-82.640	25.605	0.114	0.094
-81.626	-12.002	-0.088	0.057
-80.611	91.174	-0.115	-0.128
-79.597	477.240	0.161	0.362
-78.582	62.999	-0.270	0.268
-77.567	82.659	0.125	0.134
-76.553	175.784	-0.115	0.165
-75.538	97.057	0.103	-0.117
-74.524	35.061	-0.306	-0.266
-73.509	-4.119	0.233	-0.160
-72.494	11.549	-0.246	0.187
-71.480	-182.548	-0.070	-0.001
-70.465	-200.000	0.056	-0.295
-69.451	141.795	0.092	-0.121
-68.436	69.738	0.271	0.277
-67.422	143.528	0.080	-0.106
-66.407	31.409	-0.195	0.166
-65.392	-200.000	0.089	0.399
-64.378	141.009	-0.046	0.061
-63.363	8.682	-0.179	0.134
-62.349	-139.704	-0.206	-0.022
-61.334	43.905	-0.993	-0.902
-60.319	800.000	0.120	0.502
-59.305	-200.000	-0.053	-0.949
-58.290	174.440	0.439	0.629
-57.276	442.212	0.696	1.511
-56.261	-200.000	94.746	556.810
-55.246	629.368	1383.491	3466.325
-54.232	185.220	2609.322	3837.334
-53.217	121.700	2199.018	2716.933
-52.203	46.824	1647.983	1517.283
-51.188	38.357	1381.215	1219.138
-50.173	35.023	1338.262	1160.995
-49.159	55.219	1386.927	1328.419
-48.144	59.635	1404.828	1372.764
-47.130	38.654	1359.188	1201.325
-46.115	34.928	1341.681	1163.198
-45.100	34.709	1336.901	1157.681
-44.086	34.638	1334.089	1154.773
-43.071	34.629	1331.860	1152.744
-42.057	34.673	1329.789	1151.171
-41.042	34.617	1328.214	1149.424
-40.027	34.701	1326.568	1148.457
-39.013	34.722	1323.924	1146.247
-37.998	34.725	1322.658	1145.125
-36.984	34.890	1320.500	1144.196
-35.969	34.811	1319.122	1142.486
-34.954	34.913	1316.873	1141.101
-33.940	34.913	1316.064	1140.353
-32.925	34.919	1314.317	1138.832
-31.911	35.007	1312.781	1137.979
-30.896	34.894	1311.156	1135.855
-29.881	34.907	1309.937	1134.829
-28.867	35.026	1308.433	1134.187
-27.852	34.916	1307.102	1132.341
-26.838	34.887	1305.733	1130.935
-25.823	34.905	1304.983	1130.350
-24.809	34.879	1302.666	1128.146
-23.794	34.988	1301.700	1127.906
-22.779	34.943	1300.396	1126.464
-21.765	34.840	1299.550	1125.081
-20.750	34.783	1298.100	1123.446
-19.736	34.718	1296.948	1122.020
-18.721	34.750	1295.688	1121.077
-17.706	34.739	1294.140	1119.625
-16.692	34.729	1293.131	1118.655
-15.677	34.756	1291.774	1117.592
-14.663	34.832	1290.305	1116.722
-13.648	34.776	1289.354	1115.523
-12.633	34.827	1288.434	1114.986
-11.619	34.664	1287.437	1113.125
-10.604	34.635	1287.351	1112.840
-9.590	34.885	1285.554	1112.695
-8.575	34.772	1284.795	1111.338
-7.560	34.600	1284.430	1109.978
-6.546	34.699	1283.186	1109.431
-5.531	34.598	1282.722	1108.399
-4.517	34.763	1281.514	1108.273
-3.502	34.722	1280.641	1107.237
-2.487	34.630	1279.942	1106.052
-1.473	34.722	1275.941	1103.084
-0.458	33.431	1260.987	1082.739
0.556	31.851	1241.242	1041.228
1.571	27.472	1245.598	1020.325
2.586	25.953	1258.788	1022.429
3.600	24.041	1245.804	1001.052
4.615	17.898	1172.061	909.105
5.629	9.096	1094.967	805.257
6.644	4.974	1074.135	769.553
7.659	4.550	1071.614	765.586
8.673	4.307	1069.995	763.167
9.688	4.391	1068.568	762.498
10.702	4.996	1067.542	764.666
11.717	10.916	1076.206	799.999
12.731	19.502	1087.555	850.875
13.746	22.470	1090.747	867.944
14.761	21.963	1090.262	864.983
15.775	21.268	1087.643	859.412
16.790	20.123	1086.066	852.464
17.804	19.438	1084.459	847.761
18.819	19.212	1083.328	845.693
19.834	18.969	1082.861	844.060
20.848	18.919	1081.861	842.964
21.863	18.600	1081.409	840.970
22.877	18.621	1080.481	840.276
23.892	18.441	1080.118	839.039
24.907	18.520	1078.837	838.357
25.921	18.627	1077.615	837.856
26.936	18.530	1076.597	836.517
27.950	18.565	1075.377	835.667
28.965	18.677	1073.373	834.579
29.980	18.811	1072.220	834.260
30.994	18.828	1071.426	833.649
32.009	18.879	1070.346	832.984
33.023	18.751	1069.818	831.880
34.038	18.700	1067.962	830.117
35.053	18.520	1067.095	828.498
36.067	18.533	1066.515	828.039
37.082	18.628	1065.807	827.873
38.096	18.798	1064.762	827.806
39.111	18.774	1064.101	827.103
40.126	18.654	1062.781	825.430
41.140	18.500	1060.761	823.046
42.155	18.238	1059.826	820.990
43.169	18.179	1058.580	819.670
44.184	18.184	1057.837	819.045
45.199	18.248	1057.016	818.647
46.213	18.380	1055.951	818.379
47.228	18.543	1055.236	818.532
48.242	18.535	1054.610	817.935
49.257	18.543	1053.363	816.932
50.271	18.726	1052.187	816.819
51.286	18.818	1051.592	816.722
52.301	18.780	1050.542	815.652
53.315	18.560	1049.390	813.643
54.330	18.404	1048.398	812.066
55.344	18.347	1047.791	811.251
56.359	18.466	1046.878	811.036
57.374	18.403	1045.718	809.766
58.388	18.164	1045.668	808.525
59.403	18.097	1044.235	807.033
60.417	18.268	1043.352	807.087
61.432	18.208	1042.723	806.244
62.447	18.109	1041.727	804.937
63.461	17.960	1041.086	803.669
64.476	17.988	1039.706	802.663
65.490	17.906	1039.511	802.059
66.505	18.077	1038.162	801.747
67.520	18.018	1037.823	801.137
68.534	18.172	1036.833	801.022
69.549	18.136	1036.198	800.295
70.563	17.914	1035.539	798.677
71.578	17.880	1034.136	797.364
72.593	17.735	1033.625	796.222
73.607	17.628	1033.113	795.260
74.622	17.770	1033.126	795.860
75.636	17.898	1032.076	795.578
76.651	17.904	1031.409	795.022
77.666	17.867	1030.466	794.053
78.680	17.856	1030.136	793.676
79.695	17.874	1029.151	792.930
80.709	18.222	1028.650	794.090
81.724	18.196	1028.272	793.607
82.739	18.365	1027.183	793.481
83.753	18.623	1026.746	794.266
84.768	18.693	1026.244	794.132
85.782	18.953	1025.396	794.609
86.797	18.916	1023.943	793.241
87.812	18.730	1022.919	791.518
88.826	18.702	1022.291	790.834
89.841	18.730	1021.337	790.153
90.855	18.839	1020.640	790.048
91.870	18.908	1019.646	789.526
92.884	18.913	1018.472	788.568
93.899	18.986	1017.695	788.231
94.914	18.984	1016.840	787.491
95.928	18.871	1016.314	786.496
96.943	18.837	1014.955	785.222
97.957	18.704	1014.601	784.272
98.972	18.721	1013.096	783.115
99.987	18.865	1012.532	783.264
101.001	18.837	1011.286	782.107
102.016	18.776	1010.664	781.279
103.030	18.686	1010.309	780.523
104.045	18.703	1009.535	779.935
105.060	18.605	1008.151	778.353
106.074	18.417	1006.924	776.484
107.089	18.274	1005.789	774.894
108.103	18.035	1004.897	773.057
109.118	18.049	1004.204	772.515
110.133	18.020	1002.824	771.255
111.147	18.068	1002.149	770.886
112.162	18.112	1001.583	770.580
113.176	18.325	1000.881	770.930
114.191	18.413	1000.067	770.634
115.206	18.401	999.130	769.787
116.220	18.274	998.369	768.561
117.235	18.296	997.379	767.830
118.249	18.263	996.627	767.038
119.264	18.245	995.437	765.973
120.279	18.063	994.801	764.604
121.293	18.015	993.907	763.632
122.308	17.959	992.631	762.332
123.322	17.920	992.066	761.658
124.337	17.968	990.428	760.548
125.352	17.912	989.849	759.787
126.366	17.878	988.850	758.801
127.381	17.913	987.905	758.163
128.395	18.019	986.976	757.857
129.410	18.144	985.749	757.399
130.424	18.132	985.758	757.287
131.439	18.323	985.024	757.498
132.454	18.276	984.028	756.461
133.468	18.323	983.264	756.012
134.483	18.301	982.425	755.205
135.497	18.388	981.420	754.749
136.512	18.297	981.052	753.998
137.527	18.442	979.635	753.481
138.541	18.464	979.153	753.137
139.556	18.433	978.568	752.487
140.570	18.581	977.711	752.408
141.585	18.904	976.526	752.846
142.600	18.856	976.193	752.314
143.614	19.049	975.356	752.446
144.629	19.039	974.610	751.759
145.643	18.840	973.891	750.269
146.658	18.604	972.611	748.189
147.673	18.691	971.463	747.615
148.687	18.481	970.455	745.864
149.702	18.382	969.687	744.775
150.716	18.254	969.181	743.764
151.731	18.398	967.980	743.404
152.746	18.516	967.182	743.236
153.760	18.609	966.590	743.115
154.775	18.576	966.131	742.554
155.789	18.715	965.514	742.617
156.804	18.844	964.521	742.346
157.819	18.823	964.359	742.065
158.833	18.821	963.600	741.406
159.848	18.910	963.180	741.400
160.862	18.828	961.621	739.783
161.877	18.545	960.328	737.503
162.892	18.399	959.366	736.075
163.906	18.359	958.141	734.898
164.921	18.300	957.674	734.219
165.935	18.564	956.950	734.729
166.950	18.559	955.856	733.805
167.964	18.535	955.117	733.072
168.979	18.413	954.173	731.759
169.994	18.676	952.987	731.909
171.008	18.490	952.736	730.859
172.023	18.790	952.164	731.633
173.037	18.865	951.498	731.376
174.052	18.890	950.147	730.379
175.067	18.434	949.731	728.057
176.081	18.302	949.258	727.069
177.096	18.386	948.050	726.433
178.110	18.468	947.703	726.453
179.125	18.517	946.898	725.979
180.140	18.504	946.748	725.747
181.154	18.733	946.491	726.453
182.169	18.858	946.294	726.765
183.183	18.908	945.333	726.173
184.198	18.973	944.267	725.567
185.213	18.729	944.066	724.318
186.227	18.952	943.260	724.574
187.242	19.004	942.643	724.255
188.256	19.200	942.064	724.571
189.271	19.092	941.308	723.472
190.286	18.836	940.136	721.432
191.300	18.245	939.567	718.450
192.315	18.208	938.565	717.467
193.329	18.432	937.946	717.870
194.344	18.449	937.624	717.631
195.359	18.724	937.214	718.401
196.373	18.911	936.253	718.383
197.388	18.991	936.436	718.796
198.402	19.241	935.632	719.158
199.417	19.279	935.265	718.969
200.432	19.191	935.231	718.514
201.446	19.507	934.374	719.110
202.461	19.310	934.133	718.040
203.475	19.188	933.343	716.860
204.490	19.140	931.750	715.373
205.504	19.000	931.309	714.390
206.519	18.953	930.533	713.536
207.534	18.937	929.928	712.944
208.548	19.003	929.323	712.691
209.563	19.051	928.645	712.307
210.577	19.092	927.588	711.601
211.592	19.406	927.300	712.614
212.607	19.338	926.496	711.656
213.621	19.298	925.918	710.984
214.636	19.235	925.510	710.347
215.650	19.161	925.089	709.655
216.665	19.363	924.115	709.676
217.680	19.581	923.053	709.694
218.694	19.551	922.729	709.260
219.709	19.402	921.956	707.989
220.723	19.309	921.709	707.358
221.738	19.294	920.782	706.521
222.753	19.470	919.944	706.535
223.767	19.518	919.231	706.121
224.782	19.609	919.085	706.320
225.796	19.460	918.613	705.287
226.811	19.442	917.829	704.550
227.826	19.404	916.674	703.446
228.840	19.330	915.818	702.426
229.855	19.149	914.982	700.982
230.869	19.191	914.381	700.634
231.884	19.282	913.485	700.252
232.899	19.259	912.419	699.280
233.913	19.103	912.428	698.593
234.928	19.102	911.611	697.902
235.942	18.994	910.934	696.886
236.957	19.084	910.254	696.665
237.972	19.285	909.714	697.005
238.986	19.245	909.032	696.260
240.001	19.152	908.441	695.368
241.015	19.279	907.984	695.470
242.030	19.250	907.661	695.045
243.045	19.158	907.298	694.334
244.059	19.334	906.639	694.477
245.074	19.495	905.614	694.278
246.088	19.485	905.117	693.797
247.103	19.625	904.635	693.928
248.117	19.769	904.158	694.080
249.132	20.025	903.885	694.832
250.147	20.267	903.343	695.326
251.161	20.339	902.597	694.980
252.176	20.374	902.381	694.889
253.190	20.298	901.547	693.885
254.205	20.324	900.961	693.473
255.220	20.222	900.580	692.713
256.234	20.135	900.211	692.022
257.249	20.190	899.009	691.252
258.263	20.083	898.193	690.139
259.278	20.310	896.936	690.014
260.293	20.288	897.126	690.012
261.307	20.315	896.432	689.525
262.322	20.348	896.103	689.342
263.336	20.401	895.018	688.657
264.351	20.375	894.245	687.897
265.366	20.508	893.429	687.736
266.380	20.340	893.259	686.878
267.395	20.282	892.294	685.849
268.409	20.182	891.869	685.064
269.424	20.288	890.462	684.341
270.439	20.023	890.118	682.971
271.453	20.089	889.587	682.763
272.468	20.051	888.882	682.013
273.482	20.148	888.330	681.910
274.497	20.242	887.565	681.631
275.512	20.174	886.844	680.751
276.526	19.965	886.977	679.975
277.541	20.219	886.392	680.460
278.555	20.300	885.909	680.346
279.570	20.340	885.258	679.944
280.585	20.394	884.230	679.304
281.599	20.397	883.121	678.405
282.614	20.352	882.390	677.609
283.628	20.163	881.850	676.394
284.643	20.221	881.438	676.245
285.657	20.188	880.989	675.714
286.672	20.359	880.071	675.617
287.687	20.304	879.395	674.821
288.701	20.342	878.997	674.604
289.716	20.261	878.482	673.835
290.730	20.384	877.771	673.706
291.745	20.400	877.406	673.430
292.760	20.429	876.549	672.824
293.774	20.721	876.118	673.563
294.789	20.464	875.346	671.916
295.803	20.391	874.676	671.063
296.818	20.370	873.799	670.249
297.833	20.357	872.966	669.499
298.847	20.382	872.582	669.242
299.862	20.539	871.971	669.320
300.876	20.546	871.390	668.840
301.891	20.740	871.076	669.287
302.906	20.840	870.689	669.316
303.920	20.938	870.221	669.272
304.935	21.009	869.593	669.001
305.949	20.875	869.153	668.091
306.964	20.616	868.709	666.699
307.979	20.813	867.570	666.519
308.993	20.822	867.300	666.287
310.008	20.911	866.414	665.886
311.022	20.841	866.118	665.334
312.037	20.684	865.310	664.056
313.052	20.415	864.597	662.422
314.066	20.388	863.939	661.759
315.081	20.473	863.192	661.450
316.095	20.558	862.432	661.133
317.110	20.437	862.173	660.417
318.125	20.382	861.819	659.879
319.139	20.363	861.322	659.367
320.154	20.403	861.053	659.255
321.168	20.505	860.404	659.083
322.183	20.604	859.867	658.991
323.197	20.711	859.271	658.882
324.212	20.713	858.654	658.355
325.227	20.527	858.323	657.342
326.241	20.704	857.137	657.043
327.256	20.627	856.511	656.216
328.270	20.599	856.031	655.684
329.285	20.543	855.579	655.068
330.300	20.566	854.744	654.458
331.314	20.718	854.442	654.739
332.329	20.889	854.286	655.205
333.343	20.848	854.142	654.884
334.358	20.915	853.229	654.376
335.373	20.872	852.754	653.794
336.387	20.862	852.758	653.700
337.402	20.844	852.905	653.687
338.416	21.158	852.661	654.621
339.431	21.179	852.234	654.316
340.446	21.250	852.049	654.379
341.460	21.365	851.221	654.117
342.475	21.444	850.888	654.100
343.489	21.495	850.759	654.132
344.504	21.383	850.058	653.117
345.519	21.535	849.584	653.263
346.533	21.419	849.009	652.329
347.548	21.185	848.207	650.784
348.562	21.044	847.660	649.781
349.577	20.989	846.877	648.919
350.592	21.025	845.772	648.149
351.606	20.998	845.192	647.548
352.621	20.991	844.778	647.145
353.635	21.193	844.254	647.436
354.650	21.027	843.594	646.257
355.665	21.138	843.039	646.188
356.679	21.258	842.516	646.172
357.694	21.168	841.512	645.012
358.708	21.346	840.755	645.034
359.723	21.198	840.367	644.133
360.738	21.104	840.359	643.720
361.752	21.248	839.445	643.496
362.767	21.503	838.837	643.912
363.781	21.625	838.331	643.914
364.796	21.683	838.005	643.820
365.810	21.718	837.878	643.794
366.825	21.844	837.233	643.704
367.840	21.801	836.761	643.128
368.854	21.704	836.010	642.137
369.869	21.569	835.661	641.319
370.883	21.615	835.436	641.256
371.898	21.684	835.280	641.333
372.913	21.858	834.598	641.389
373.927	21.653	833.892	640.039
374.942	21.719	833.556	639.967
375.956	21.787	833.686	640.257
376.971	21.847	833.053	639.935
377.986	21.788	832.388	639.152
379.000	22.062	831.473	639.389
380.015	22.093	831.091	639.154
381.029	22.011	830.548	638.379
382.044	22.038	829.951	637.962
383.059	22.003	829.603	637.514
384.073	21.834	829.025	636.397
385.088	21.587	828.440	634.997
386.102	21.704	827.664	634.769
387.117	21.631	826.943	633.898
388.132	21.660	826.393	633.526
389.146	21.586	826.241	633.084
390.161	21.873	825.384	633.407
391.175	22.012	824.785	633.392
392.190	21.960	824.366	632.829
393.205	21.671	824.006	631.454
394.219	21.727	823.568	631.263
395.234	21.568	822.909	630.130
396.248	21.456	822.642	629.466
397.263	21.518	822.060	629.190
398.278	21.456	821.559	628.526
399.292	21.474	821.118	628.200
400.307	21.563	820.626	628.085
401.321	21.468	820.219	627.380
402.336	21.533	819.891	627.305
403.350	21.668	819.402	627.361
404.365	21.862	819.091	627.761
405.380	22.030	818.878	628.143
406.394	22.087	818.238	627.801
407.409	22.170	817.574	627.532
408.423	22.299	817.546	627.916
409.438	22.429	817.125	627.999
410.453	22.365	816.640	627.343
411.467	22.378	816.366	627.124
412.482	22.392	816.311	627.074
413.496	22.422	816.051	626.927
414.511	22.384	815.372	626.213
415.526	22.370	814.751	625.633
416.540	22.345	814.122	625.007
417.555	22.417	813.740	624.912
418.569	22.398	813.246	624.409
419.584	22.397	812.843	624.043
420.599	22.320	812.365	623.347
421.613	159.369	1370.107	1789.792
422.628	138.731	1451.379	1789.884
