DTS Sentinel unit serial number:	SN413079Multiplexer serial number:	ORYXHardware model number:	OX4-SRSoftware version number:	ORYX F/W v4.00 Oryx Data Collector v3.7.2.0data status	okinstallation	princeton_trtdifferential loss correction	single-endedforward channel	channel 1reverse channel	N/Adate	2019/09/14time	03:14:35forward acquisition time	60.00reverse acquisition time	0.00gamma	496.2192k internal	0.2336k external	0.2336temperature offset calibration	1.0074default loss term (dB/km)	0.3790temperature slope calibration	1.0000multiplexer offset coefficient	1.0000multiplexer slope coefficient	1.0000fibre end	0.00T internal ref (°C)	26.61T ext. ref 1 (°C)	3.26T ext. ref 2 (°C)	21.67length (m)	temperature (°C)	Stokes	anti-Stokes-747.200	-200.000	0.024	0.288
-746.185	-200.000	-0.021	0.476
-745.171	800.000	-0.061	-0.264
-744.156	103.092	-0.121	0.142
-743.142	273.463	-0.193	0.343
-742.127	246.781	0.059	-0.099
-741.112	-200.000	0.017	-0.117
-740.098	-27.925	-0.195	0.113
-739.083	-200.000	0.103	0.481
-738.069	-200.000	0.047	0.277
-737.054	-200.000	-0.066	0.333
-736.039	-78.671	-0.084	0.029
-735.025	34.946	0.212	0.187
-734.010	-20.545	-0.253	-0.156
-732.996	122.729	-0.091	0.114
-731.981	-200.000	0.011	0.390
-730.966	-76.548	-0.183	0.065
-729.952	-200.000	0.010	-0.148
-728.937	425.378	-0.234	-0.505
-727.923	1.657	0.255	-0.184
-726.908	800.000	-0.045	-0.198
-725.894	-200.000	0.019	-0.106
-724.879	-65.530	-0.059	-0.024
-723.864	87.985	0.230	-0.256
-722.850	-1.445	-0.111	-0.079
-721.835	-4.202	-0.228	-0.158
-720.821	-154.199	-0.306	0.021
-719.806	-200.000	0.027	0.148
-718.791	469.770	-0.077	0.174
-717.777	-138.872	-0.081	-0.009
-716.762	-200.000	0.013	0.348
-715.748	-94.106	-0.181	-0.050
-714.733	800.000	-0.029	-0.100
-713.718	-92.487	-0.242	-0.068
-712.704	-6.322	-0.243	-0.166
-711.689	-200.000	0.014	0.070
-710.675	-200.000	-0.013	0.237
-709.660	800.000	-0.134	0.536
-708.645	267.999	-0.134	0.235
-707.631	94.825	0.116	0.133
-706.616	-110.389	0.078	-0.016
-705.602	-79.162	0.294	0.100
-704.587	-54.326	-0.025	0.011
-703.572	407.804	-0.046	-0.098
-702.558	284.075	0.089	-0.161
-701.543	198.685	-0.088	-0.135
-700.529	800.000	-0.099	0.282
-699.514	-44.991	0.204	0.102
-698.499	800.000	-0.065	-0.265
-697.485	76.157	0.204	-0.217
-696.470	-67.052	-0.343	-0.136
-695.456	-200.000	-0.010	-0.334
-694.441	-117.093	0.233	-0.043
-693.426	-200.000	-0.013	0.249
-692.412	-103.617	0.243	-0.057
-691.397	350.638	-0.029	-0.058
-690.383	56.921	0.345	-0.337
-689.368	156.230	-0.057	0.079
-688.354	-104.224	0.191	-0.044
-687.339	-75.238	-0.130	-0.047
-686.324	-200.000	0.006	0.239
-685.310	102.941	0.169	0.198
-684.295	63.475	-0.071	-0.071
-683.281	-14.375	0.143	-0.092
-682.266	331.934	-0.130	0.252
-681.251	800.000	0.072	0.208
-680.237	-200.000	0.013	0.168
-679.222	103.081	0.162	0.190
-678.208	-200.000	-0.017	0.162
-677.193	413.613	0.028	0.059
-676.178	-113.638	-0.334	-0.065
-675.164	-91.429	-0.462	0.132
-674.149	-133.927	0.125	0.016
-673.135	98.021	-0.090	0.104
-672.120	-150.760	-0.314	0.024
-671.105	-117.155	0.261	0.048
-670.091	-22.507	0.214	0.130
-669.076	783.402	-0.165	-0.453
-668.062	-43.189	-0.208	0.105
-667.047	80.374	0.034	-0.037
-666.032	-122.531	-0.149	-0.024
-665.018	-200.000	0.046	-0.216
-664.003	239.238	-0.216	-0.360
-662.989	-142.182	-0.128	-0.013
-661.974	-96.983	0.257	-0.067
-660.959	-125.156	0.123	-0.019
-659.945	800.000	-0.021	0.078
-658.930	227.845	-0.078	-0.127
-657.916	130.177	-0.076	-0.098
-656.901	104.050	0.058	-0.068
-655.886	96.950	0.198	-0.227
-654.872	130.482	0.092	0.118
-653.857	-55.833	0.039	-0.017
-652.843	426.219	0.080	-0.172
-651.828	523.208	-0.070	0.164
-650.814	59.131	0.223	-0.220
-649.799	60.786	0.084	0.083
-648.784	-200.000	-0.034	-0.219
-647.770	61.700	-0.204	-0.203
-646.755	800.000	-0.068	-0.202
-645.741	-200.000	-0.047	0.249
-644.726	691.804	0.080	0.210
-643.711	800.000	-0.105	0.292
-642.697	19.694	0.096	0.078
-641.682	-91.256	-0.180	0.052
-640.668	-200.000	-0.009	-0.247
-639.653	388.059	-0.041	0.085
-638.638	482.543	-0.039	0.089
-637.624	800.000	-0.029	-0.091
-636.609	-75.839	-0.076	0.027
-635.595	-110.911	-0.186	0.038
-634.580	-68.269	-0.330	-0.128
-633.565	-155.433	-0.252	0.016
-632.551	306.077	0.129	0.239
-631.536	600.386	-0.101	0.250
-630.522	800.000	0.052	-0.144
-629.507	-40.953	0.141	-0.073
-628.492	-43.411	-0.007	-0.004
-627.478	-90.945	0.095	-0.027
-626.463	5.954	0.314	-0.232
-625.449	-184.831	0.318	0.005
-624.434	800.000	0.068	-0.282
-623.419	-23.053	-0.301	-0.181
-622.405	417.022	-0.108	0.231
-621.390	-200.000	-0.291	0.000
-620.376	-115.374	0.269	-0.051
-619.361	395.986	0.022	-0.046
-618.346	-113.487	0.331	0.065
-617.332	7.762	-0.118	0.088
-616.317	800.000	0.070	-0.216
-615.303	-146.289	-0.369	-0.032
-614.288	-130.218	-0.319	0.043
-613.273	30.725	-0.252	-0.215
-612.259	-63.558	0.074	-0.031
-611.244	55.112	-0.067	-0.064
-610.230	779.175	-0.135	-0.368
-609.215	-110.852	-0.228	-0.047
-608.201	-200.000	-0.053	-0.345
-607.186	-61.063	-0.220	-0.093
-606.171	117.051	-0.243	-0.298
-605.157	152.268	0.100	-0.137
-604.142	107.202	0.206	0.244
-603.128	-190.567	-0.316	-0.003
-602.113	279.967	-0.221	-0.394
-601.098	-200.000	0.005	0.220
-600.084	-103.695	-0.071	0.017
-599.069	-111.376	0.382	-0.078
-598.055	800.000	-0.054	-0.228
-597.040	11.278	-0.029	0.022
-596.025	101.816	-0.223	-0.260
-595.011	51.601	-0.164	0.156
-593.996	-122.835	-0.059	-0.009
-592.982	-41.612	0.172	-0.088
-591.967	800.000	-0.035	-0.099
-590.952	-200.000	-0.006	-0.318
-589.938	800.000	0.020	-0.081
-588.923	-124.546	0.062	0.010
-587.909	-200.000	-0.007	-0.085
-586.894	-116.203	-0.231	-0.043
-585.879	595.197	0.079	0.196
-584.865	96.638	-0.193	-0.220
-583.850	-84.531	0.254	0.080
-582.836	-129.791	0.608	0.083
-581.821	800.000	-0.012	-0.053
-580.806	-120.049	0.062	0.011
-579.792	-57.994	0.323	-0.140
-578.777	539.538	-0.114	-0.270
-577.763	52.896	-0.215	-0.206
-576.748	-17.354	0.263	-0.165
-575.733	-123.277	-0.086	-0.014
-574.719	-157.827	0.221	-0.013
-573.704	-122.582	0.119	0.019
-572.690	800.000	0.029	0.116
-571.675	-140.308	-0.180	-0.019
-570.661	237.179	0.106	0.176
-569.646	-200.000	0.009	-0.063
-568.631	-132.299	0.201	0.026
-567.617	41.293	0.092	-0.083
-566.602	-200.000	0.016	-0.341
-565.588	-29.205	-0.054	0.031
-564.573	-163.190	-0.158	-0.008
-563.558	-103.775	-0.120	0.028
-562.544	800.000	0.028	-0.095
-561.529	-137.405	-0.174	0.020
-560.515	116.253	-0.079	0.097
-559.500	-200.000	-0.009	0.212
-558.485	195.465	0.094	-0.142
-557.471	-16.543	0.132	0.083
-556.456	56.746	-0.174	-0.169
-555.442	-121.710	0.139	0.023
-554.427	-76.293	-0.173	-0.061
-553.412	-190.446	0.112	0.001
-552.398	37.754	-0.094	0.083
-551.383	-113.907	-0.141	0.027
-550.369	800.000	0.050	0.185
-549.354	-85.973	0.315	-0.097
-548.339	-65.618	0.154	-0.062
-547.325	-99.722	0.363	-0.091
-546.310	-110.955	-0.030	0.006
-545.296	83.791	-0.141	0.153
-544.281	-200.000	-0.273	0.001
-543.266	800.000	-0.014	-0.053
-542.252	20.998	-0.081	0.065
-541.237	-200.000	0.031	-0.393
-540.223	-200.000	0.028	0.345
-539.208	-200.000	0.013	0.409
-538.193	-45.188	-0.232	-0.115
-537.179	-64.535	-0.255	-0.103
-536.164	151.579	-0.099	-0.134
-535.150	20.476	0.192	0.154
-534.135	5.238	0.153	0.112
-533.121	-16.605	0.090	-0.057
-532.106	-132.377	-0.325	-0.042
-531.091	-200.000	0.044	-0.443
-530.077	800.000	0.051	-0.174
-529.062	-200.000	0.029	-0.174
-528.048	-200.000	-0.001	0.208
-527.033	517.978	0.158	0.368
-526.018	20.000	0.313	0.251
-525.004	52.695	-0.165	0.157
-523.989	-96.785	-0.197	-0.052
-522.975	-91.266	0.321	0.091
-521.960	633.117	0.007	0.019
-520.945	-162.908	0.166	0.008
-519.931	800.000	-0.018	0.069
-518.916	-172.747	-0.323	-0.010
-517.902	800.000	-0.048	-0.208
-516.887	-174.506	-0.228	-0.007
-515.872	-140.997	0.385	-0.039
-514.858	38.010	-0.141	0.125
-513.843	144.732	0.083	-0.110
-512.829	-123.139	0.302	-0.048
-511.814	-200.000	-0.066	0.480
-510.799	-40.941	0.269	-0.139
-509.785	57.910	-0.258	0.252
-508.770	-136.414	0.114	-0.013
-507.756	800.000	0.090	-0.250
-506.741	-24.731	-0.214	-0.126
-505.726	-92.981	-0.314	0.087
-504.712	78.022	-0.078	0.082
-503.697	-100.835	0.179	0.044
-502.683	21.488	-0.115	0.093
-501.668	-105.208	0.165	0.038
-500.653	-112.404	-0.164	-0.033
-499.639	-67.089	0.436	0.171
-498.624	-107.634	-0.401	0.087
-497.610	-200.000	-0.031	0.318
-496.595	-200.000	-0.029	0.125
-495.581	-200.000	-0.053	0.247
-494.566	800.000	-0.104	-0.378
-493.551	-50.997	-0.215	0.100
-492.537	38.568	0.146	0.130
-491.522	-55.543	0.313	-0.139
-490.508	-58.023	-0.116	-0.050
-489.493	-200.000	-0.030	-0.189
-488.478	-200.000	0.016	0.076
-487.464	-200.000	0.002	0.149
-486.449	101.705	0.241	0.279
-485.435	-46.618	-0.236	-0.115
-484.420	-67.179	0.171	0.067
-483.405	-200.000	-0.011	-0.111
-482.391	42.591	-0.256	-0.231
-481.376	-33.531	0.336	-0.184
-480.362	107.122	-0.112	0.133
-479.347	734.480	0.102	-0.270
-478.332	302.811	0.046	0.084
-477.318	161.857	-0.109	0.152
-476.303	-94.349	-0.207	0.056
-475.289	-101.748	0.104	-0.025
-474.274	-149.794	0.145	0.011
-473.259	-82.603	0.080	0.026
-472.245	-79.909	-0.282	-0.094
-471.230	-200.000	-0.069	-0.332
-470.216	-83.381	0.262	-0.084
-469.201	-73.593	0.303	0.110
-468.186	-187.733	0.157	-0.002
-467.172	-24.304	0.069	0.041
-466.157	683.049	0.131	-0.339
-465.143	-84.642	0.351	0.110
-464.128	719.153	-0.064	0.170
-463.113	-200.000	0.023	0.222
-462.099	-200.000	0.009	0.052
-461.084	-84.016	0.197	0.062
-460.070	-140.631	-0.160	-0.016
-459.055	149.659	-0.209	-0.281
-458.040	-134.346	-0.150	0.018
-457.026	-200.000	-0.015	0.092
-456.011	-18.477	-0.155	0.096
-454.997	-166.546	0.108	0.004
-453.982	523.075	0.106	-0.248
-452.968	800.000	0.025	-0.084
-451.953	800.000	0.034	-0.145
-450.938	-200.000	0.016	-0.103
-449.924	-75.223	0.146	0.052
-448.909	800.000	0.059	-0.190
-447.895	-176.981	0.126	0.003
-446.880	-193.485	0.347	0.003
-445.865	303.529	-0.062	0.114
-444.851	-200.000	0.059	0.270
-443.836	346.631	0.053	-0.103
-442.822	185.338	-0.095	0.140
-441.807	95.759	-0.211	0.239
-440.792	-105.163	0.232	-0.053
-439.778	800.000	0.022	-0.086
-438.763	334.646	-0.117	0.225
-437.749	-113.805	0.259	0.050
-436.734	-42.509	0.173	-0.088
-435.719	-115.204	-0.291	-0.055
-434.705	102.825	-0.046	0.053
-433.690	579.742	0.053	-0.129
-432.676	-36.955	0.281	0.149
-431.661	-102.729	-0.301	0.071
-430.646	-113.913	-0.049	0.009
-429.632	-25.299	-0.294	0.173
-428.617	-200.000	-0.024	0.161
-427.603	-61.547	-0.325	0.135
-426.588	-56.742	0.134	-0.059
-425.573	-79.612	-0.277	0.093
-424.559	-200.000	0.043	-0.214
-423.544	-200.000	-0.018	0.076
-422.530	-134.248	0.326	0.040
-421.515	174.207	0.104	0.149
-420.500	-58.723	0.158	0.068
-419.486	105.312	-0.170	0.199
-418.471	-3.192	0.246	-0.170
-417.457	-147.615	-0.154	-0.013
-416.442	602.610	0.085	-0.210
-415.428	50.146	0.376	-0.352
-414.413	-131.883	-0.173	0.022
-413.398	800.000	0.032	-0.100
-412.384	-30.667	0.055	0.031
-411.369	168.061	0.075	-0.106
-410.355	258.247	-0.052	-0.089
-409.340	800.000	0.093	0.300
-408.325	-75.069	0.154	-0.054
-407.311	45.656	0.297	0.272
-406.296	-10.347	0.136	0.089
-405.282	-60.517	0.079	-0.033
-404.267	21.665	0.165	-0.133
-403.252	-124.114	0.135	0.021
-402.238	87.182	-0.065	0.071
-401.223	335.956	0.083	0.160
-400.209	-200.000	-0.033	0.207
-399.194	118.672	-0.043	-0.053
-398.179	400.836	0.118	-0.245
-397.165	86.295	0.347	-0.379
-396.150	177.163	0.192	-0.277
-395.136	-143.998	-0.219	0.020
-394.121	170.303	-0.205	0.290
-393.106	56.303	0.137	0.132
-392.092	-74.304	-0.099	-0.036
-391.077	268.151	0.098	0.170
-390.063	-37.875	-0.141	0.074
-389.048	229.010	0.100	-0.161
-388.033	-141.721	0.219	0.022
-387.019	-5.937	-0.101	-0.068
-386.004	90.790	0.039	0.043
-384.990	-132.903	-0.076	-0.010
-383.975	-200.000	-0.023	0.436
-382.960	-68.241	-0.297	0.114
-381.946	800.000	-0.053	-0.179
-380.931	800.000	0.046	0.153
-379.917	5.438	-0.074	-0.054
-378.902	281.370	0.104	-0.185
-377.888	302.759	0.059	0.107
-376.873	-7.376	0.167	0.112
-375.858	272.790	-0.126	0.220
-374.844	-39.206	0.263	-0.137
-373.829	50.195	0.140	0.131
-372.815	384.997	-0.094	0.193
-371.800	-77.151	-0.100	-0.035
-370.785	227.911	-0.068	-0.109
-369.771	-21.973	-0.203	-0.122
-368.756	-6.386	0.108	-0.073
-367.742	-200.000	0.022	0.160
-366.727	-171.320	-0.202	0.007
-365.712	-72.555	-0.080	0.029
-364.698	5.619	-0.053	0.039
-363.683	-149.694	0.208	-0.016
-362.669	480.587	0.029	0.066
-361.654	139.111	0.206	0.268
-360.639	-200.000	-0.026	-0.227
-359.625	-180.586	-0.335	-0.007
-358.610	-143.564	0.016	0.002
-357.596	767.853	0.073	0.196
-356.581	36.809	-0.254	-0.222
-355.566	800.000	-0.043	-0.154
-354.552	286.710	0.066	-0.119
-353.537	-49.424	-0.096	-0.045
-352.523	-70.403	0.254	-0.095
-351.508	287.321	-0.119	0.213
-350.493	-14.011	0.183	0.117
-349.479	129.086	0.114	0.144
-348.464	-45.044	-0.232	0.114
-347.450	-200.000	-0.079	0.367
-346.435	-45.131	0.119	0.058
-345.420	-152.699	-0.324	-0.023
-344.406	84.127	0.108	0.117
-343.391	-130.041	0.093	0.013
-342.377	313.423	0.153	-0.285
-341.362	93.424	0.190	-0.213
-340.348	144.802	0.200	-0.264
-339.333	-114.695	0.304	0.057
-338.318	-85.825	0.043	0.013
-337.304	20.745	-0.072	-0.057
-336.289	278.485	0.112	-0.198
-335.275	-22.683	-0.155	-0.093
-334.260	221.786	-0.133	0.212
-333.245	276.678	-0.039	0.068
-332.231	-200.000	0.043	0.239
-331.216	-200.000	0.039	0.206
-330.202	-200.000	-0.064	0.330
-329.187	3.537	-0.239	0.172
-328.172	227.437	-0.135	0.218
-327.158	237.475	0.104	-0.171
-326.143	-175.370	0.083	0.002
-325.129	-200.000	0.020	-0.144
-324.114	-200.000	-0.045	0.227
-323.099	344.994	0.030	0.057
-322.085	-122.771	-0.174	-0.028
-321.070	540.015	0.049	-0.116
-320.056	45.708	-0.030	-0.027
-319.041	-200.000	0.029	-0.170
-318.026	-101.016	0.197	0.048
-317.012	10.636	-0.256	0.192
-315.997	155.342	0.026	-0.035
-314.983	800.000	0.005	0.021
-313.968	-14.533	-0.174	0.111
-312.953	213.979	-0.049	0.076
-311.939	172.293	0.063	-0.089
-310.924	-200.000	-0.001	-0.066
-309.910	800.000	-0.091	-0.273
-308.895	615.235	-0.049	0.122
-307.880	-200.000	0.010	-0.072
-306.866	-200.000	-0.033	-0.244
-305.851	-32.893	-0.248	-0.136
-304.837	-123.844	0.299	-0.047
-303.822	222.465	-0.074	0.117
-302.807	800.000	-0.023	0.068
-301.793	-4.403	-0.145	-0.099
-300.778	75.194	-0.185	0.193
-299.764	-200.000	0.001	0.037
-298.749	216.804	0.095	0.149
-297.735	-83.998	-0.504	0.158
-296.720	449.985	-0.093	0.203
-295.705	649.897	0.122	0.308
-294.691	-41.430	-0.138	0.070
-293.676	-200.000	-0.022	0.298
-292.662	-56.408	-0.247	0.108
-291.647	800.000	-0.071	0.214
-290.632	112.982	0.022	0.026
-289.618	-85.288	0.192	-0.059
-288.603	-200.000	-0.021	-0.227
-287.589	-182.833	0.124	-0.002
-286.574	-33.841	-0.308	-0.167
-285.559	800.000	-0.048	0.185
-284.545	-200.000	-0.001	-0.169
-283.530	-55.392	-0.285	-0.126
-282.516	-12.648	0.314	0.202
-281.501	800.000	-0.031	0.100
-280.486	800.000	0.073	-0.311
-279.472	-200.000	-0.060	0.327
-278.457	72.769	-0.058	-0.060
-277.443	114.351	-0.287	-0.344
-276.428	351.310	-0.067	-0.132
-275.413	34.345	-0.145	0.124
-274.399	107.074	0.252	0.296
-273.384	-200.000	0.013	0.142
-272.370	-26.378	0.133	0.077
-271.355	55.033	0.118	-0.112
-270.340	-177.346	0.434	0.011
-269.326	718.068	0.082	0.216
-268.311	192.655	-0.149	0.221
-267.297	-154.638	-0.285	-0.019
-266.282	200.545	0.164	-0.248
-265.267	-85.787	0.348	-0.106
-264.253	800.000	0.154	-0.642
-263.238	129.190	-0.026	0.033
-262.224	-142.454	-0.285	-0.028
-261.209	86.141	-0.241	0.261
-260.195	13.287	0.187	-0.143
-259.180	800.000	0.141	0.388
-258.165	-200.000	-0.055	-0.236
-257.151	-114.789	-0.171	0.032
-256.136	523.872	-0.237	0.550
-255.122	-200.000	-0.036	-0.277
-254.107	-164.843	-0.229	0.010
-253.092	-41.354	-0.378	0.192
-252.078	39.076	-0.090	-0.080
-251.063	84.922	0.228	0.246
-250.049	137.959	0.121	-0.156
-249.034	-8.502	0.155	0.103
-248.019	-200.000	-0.030	-0.400
-247.005	299.252	-0.099	-0.180
-245.990	391.320	0.086	0.175
-244.976	86.668	-0.190	0.207
-243.961	17.712	0.094	0.073
-242.946	679.165	0.124	-0.319
-241.932	270.711	0.082	-0.142
-240.917	-200.000	-0.039	0.183
-239.903	-68.083	-0.254	0.097
-238.888	-200.000	0.028	-0.217
-237.873	109.321	-0.116	-0.136
-236.859	681.021	-0.069	0.178
-235.844	220.192	-0.129	-0.203
-234.830	165.211	-0.189	0.262
-233.815	-200.000	0.012	-0.171
-232.800	599.628	-0.094	-0.229
-231.786	166.714	0.176	0.245
-230.771	72.602	-0.199	0.205
-229.757	261.963	0.136	0.232
-228.742	-58.271	0.140	-0.060
-227.727	151.716	-0.390	0.524
-226.713	-84.204	-0.326	-0.102
-225.698	-80.609	-0.536	-0.176
-224.684	166.701	0.125	-0.174
-223.669	800.000	-0.052	0.207
-222.655	32.888	0.255	-0.217
-221.640	-75.476	0.404	-0.141
-220.625	44.312	0.154	0.139
-219.611	238.184	0.128	0.208
-218.596	-200.000	-0.018	0.109
-217.582	-200.000	0.006	-0.462
-216.567	-108.358	-0.074	0.016
-215.552	-97.214	0.197	-0.051
-214.538	-6.852	0.245	-0.164
-213.523	800.000	-0.060	0.175
-212.509	-200.000	-0.038	-0.261
-211.494	445.323	0.091	-0.196
-210.479	-183.710	0.193	-0.003
-209.465	117.450	0.034	0.041
-208.450	800.000	0.010	0.032
-207.436	781.608	0.093	-0.250
-206.421	24.903	0.165	-0.135
-205.406	-200.000	-0.050	-0.304
-204.392	-200.000	0.066	0.291
-203.377	293.420	-0.060	0.108
-202.363	-50.089	0.126	-0.059
-201.348	-200.000	-0.036	0.244
-200.333	125.127	0.129	-0.160
-199.319	-18.275	0.169	-0.104
-198.304	-38.735	0.042	0.022
-197.290	8.002	0.098	0.072
-196.275	-92.377	0.199	-0.055
-195.260	800.000	-0.031	0.104
-194.246	81.230	0.049	0.052
-193.231	-200.000	-0.017	-0.236
-192.217	-46.964	-0.188	-0.090
-191.202	-200.000	-0.005	-0.051
-190.187	800.000	-0.039	0.135
-189.173	161.560	-0.049	0.068
-188.158	-75.392	0.061	0.021
-187.144	161.177	-0.087	0.119
-186.129	209.595	0.021	-0.032
-185.114	371.854	-0.081	-0.161
-184.100	139.057	0.042	0.055
-183.085	-200.000	0.006	-0.034
-182.071	-200.000	0.049	0.261
-181.056	800.000	0.119	0.448
-180.042	-96.903	0.166	-0.043
-179.027	-20.718	-0.121	-0.073
-178.012	74.096	0.236	0.244
-176.998	-13.367	-0.114	-0.073
-175.983	40.818	-0.171	-0.151
-174.969	150.374	0.252	-0.335
-173.954	196.476	-0.053	-0.079
-172.939	-96.800	-0.061	-0.016
-171.925	-176.890	-0.178	-0.004
-170.910	800.000	0.062	0.193
-169.896	-70.623	0.168	0.062
-168.881	44.203	-0.155	-0.139
-167.866	-200.000	-0.007	0.081
-166.852	-113.674	-0.204	-0.039
-165.837	33.659	0.325	0.277
-164.823	157.761	0.054	0.073
-163.808	1.911	-0.069	0.049
-162.793	-167.574	-0.198	0.008
-161.779	-200.000	-0.008	-0.155
-160.764	-183.840	-0.028	0.000
-159.750	-79.585	-0.233	-0.077
-158.735	-18.721	-0.311	-0.190
-157.720	-200.000	-0.035	-0.263
-156.706	-83.973	0.102	-0.032
-155.691	-200.000	0.074	-0.340
-154.677	-24.907	-0.190	-0.111
-153.662	-20.146	0.326	0.197
-152.647	7.684	0.152	-0.112
-151.633	-200.000	0.049	0.339
-150.618	-200.000	0.015	0.169
-149.604	-68.460	0.352	-0.134
-148.589	-63.672	0.258	0.104
-147.574	710.581	0.145	0.377
-146.560	631.657	0.056	-0.138
-145.545	-200.000	0.021	-0.400
-144.531	532.798	-0.023	-0.054
-143.516	-200.000	0.021	0.109
-142.502	-111.916	0.548	-0.108
-141.487	-200.000	-0.011	-0.228
-140.472	-132.734	-0.051	0.006
-139.458	800.000	-0.125	-0.347
-138.443	-112.530	-0.082	0.016
-137.429	-34.330	-0.087	-0.047
-136.414	-196.180	0.260	-0.002
-135.399	-108.511	-0.205	0.043
-134.385	-140.218	0.150	0.015
-133.370	212.119	-0.209	0.323
-132.356	-48.449	-0.301	0.142
-131.341	151.335	0.120	0.161
-130.326	-133.754	0.185	0.023
-129.312	302.806	-0.086	-0.157
-128.297	-147.852	0.181	0.015
-127.283	-105.520	0.373	-0.083
-126.268	497.837	0.036	-0.082
-125.253	69.266	-0.142	0.143
-124.239	229.569	0.055	-0.088
-123.224	-12.096	0.104	-0.066
-122.210	-84.923	0.152	0.047
-121.195	-63.785	0.089	0.036
-120.180	-200.000	0.019	-0.142
-119.166	-97.353	0.076	0.019
-118.151	-77.025	0.089	0.031
-117.137	-97.297	0.202	0.052
-116.122	-127.227	0.113	-0.016
-115.107	-46.368	-0.195	0.094
-114.093	800.000	0.059	0.170
-113.078	4.638	-0.233	0.167
-112.064	51.483	-0.067	0.063
-111.049	-114.764	0.206	-0.039
-110.034	-128.244	-0.435	0.061
-109.020	-84.896	-0.326	-0.100
-108.005	797.308	0.055	-0.149
-106.991	-106.093	0.291	0.064
-105.976	-102.493	0.199	0.047
-104.962	800.000	0.078	-0.239
-103.947	-111.210	-0.255	-0.051
-102.932	-39.835	0.275	-0.141
-101.918	-132.814	0.246	0.031
-100.903	-87.366	-0.271	-0.080
-99.889	-158.197	0.140	0.008
-98.874	-200.000	-0.000	0.194
-97.859	16.230	0.202	0.156
-96.845	-136.734	0.182	-0.021
-95.830	-25.868	0.354	0.204
-94.816	-200.000	0.039	-0.191
-93.801	800.000	-0.034	0.129
-92.786	-118.872	0.121	0.021
-91.772	800.000	-0.005	-0.014
-90.757	-200.000	0.027	0.137
-89.743	9.582	0.129	0.096
-88.728	-112.848	-0.067	0.013
-87.713	25.883	0.090	-0.073
-86.699	-100.135	-0.354	-0.086
-85.684	-200.000	-0.029	0.128
-84.670	-144.741	0.381	0.034
-83.655	-40.354	-0.167	0.085
-82.640	-59.088	-0.324	-0.137
-81.626	-149.236	0.423	-0.033
-80.611	101.219	-0.132	0.151
-79.597	28.320	0.232	-0.192
-78.582	33.646	-0.250	0.213
-77.567	-1.870	0.029	-0.020
-76.553	-200.000	0.028	0.165
-75.538	4.473	-0.338	0.243
-74.524	-111.437	0.207	0.041
-73.509	92.470	-0.252	-0.278
-72.494	218.218	0.154	-0.241
-71.480	424.050	-0.122	0.257
-70.465	765.758	-0.042	0.112
-69.451	-150.426	0.243	0.018
-68.436	161.403	0.223	-0.306
-67.422	-41.092	0.038	0.019
-66.407	-129.612	-0.042	-0.006
-65.392	268.476	-0.102	0.175
-64.378	114.727	-0.145	0.173
-63.363	-97.867	0.110	0.028
-62.349	-200.000	0.029	0.156
-61.334	10.883	-1.251	-0.934
-60.319	82.092	0.490	0.519
-59.305	800.000	-0.357	-1.022
-58.290	76.284	0.975	1.009
-57.276	800.000	0.494	1.669
-56.261	-200.000	116.056	649.127
-55.246	512.688	1537.619	3502.539
-54.232	175.843	2710.147	3843.893
-53.217	106.823	2157.231	2503.069
-52.203	38.380	1591.820	1386.273
-51.188	29.916	1334.514	1111.580
-50.173	27.222	1295.396	1063.223
-49.159	53.747	1353.667	1270.380
-48.144	51.994	1367.229	1272.600
-47.130	30.223	1321.469	1102.367
-46.115	26.731	1303.636	1066.928
-45.100	26.493	1298.390	1061.195
-44.086	26.461	1296.188	1059.167
-43.071	26.468	1293.406	1056.897
-42.057	26.416	1291.231	1054.771
-41.042	26.527	1289.311	1053.810
-40.027	26.456	1288.142	1052.398
-39.013	26.469	1286.450	1051.051
-37.998	26.331	1285.058	1049.070
-36.984	26.625	1282.522	1048.657
-35.969	26.538	1281.570	1047.338
-34.954	26.701	1279.382	1046.450
-33.940	26.740	1277.478	1045.073
-32.925	26.726	1276.521	1044.170
-31.911	26.621	1275.163	1042.414
-30.896	26.716	1273.524	1041.577
-29.881	26.657	1272.402	1040.279
-28.867	26.801	1271.080	1039.986
-27.852	26.686	1269.632	1038.099
-26.838	26.756	1268.044	1037.157
-25.823	26.685	1267.039	1035.888
-24.809	26.646	1265.523	1034.385
-23.794	26.629	1264.120	1033.105
-22.779	26.683	1263.000	1032.453
-21.765	26.634	1261.415	1030.837
-20.750	26.747	1260.096	1030.362
-19.736	26.538	1259.382	1028.550
-18.721	26.586	1257.796	1027.487
-17.706	26.654	1256.728	1026.958
-16.692	26.647	1255.611	1025.963
-15.677	26.590	1254.962	1025.071
-14.663	26.520	1253.428	1023.383
-13.648	26.578	1252.360	1022.798
-12.633	26.517	1251.575	1021.773
-11.619	26.576	1250.381	1021.090
-10.604	26.601	1249.646	1020.587
-9.590	26.550	1249.156	1019.860
-8.575	26.504	1248.059	1018.664
-7.560	26.593	1247.111	1018.350
-6.546	26.587	1246.219	1017.549
-5.531	26.518	1245.469	1016.509
-4.517	26.545	1244.583	1015.895
-3.502	26.536	1244.182	1015.477
-2.487	26.641	1242.741	1014.854
-1.473	26.584	1238.347	1010.907
-0.458	25.198	1223.606	991.179
0.556	21.950	1207.473	954.756
1.571	18.421	1213.906	940.422
2.586	17.569	1229.392	947.597
3.600	17.218	1217.400	936.337
4.615	12.768	1146.066	858.259
5.629	6.155	1074.999	772.559
6.644	3.355	1057.960	746.692
7.659	3.160	1055.598	744.018
8.673	3.173	1054.470	743.218
9.688	3.332	1052.786	742.733
10.702	3.410	1051.085	741.842
11.717	7.119	1055.885	763.068
12.731	14.448	1066.145	805.973
13.746	18.927	1071.467	831.639
14.761	19.484	1072.066	834.724
15.775	18.771	1070.448	829.945
16.790	17.786	1068.582	823.673
17.804	17.019	1067.067	818.731
18.819	16.729	1065.680	816.201
19.834	16.628	1064.834	814.994
20.848	16.380	1064.687	813.614
21.863	16.206	1063.600	811.874
22.877	16.117	1062.585	810.597
23.892	16.124	1062.024	810.132
24.907	16.114	1060.928	809.180
25.921	15.920	1060.845	808.111
26.936	16.195	1058.644	807.681
27.950	16.240	1057.613	807.037
28.965	16.210	1056.219	805.760
29.980	16.457	1054.684	805.696
30.994	16.300	1054.060	804.401
32.009	16.558	1052.325	804.233
33.023	16.286	1052.138	802.722
34.038	16.370	1051.172	802.315
35.053	16.288	1049.717	800.743
36.067	16.299	1048.731	799.975
37.082	16.219	1048.234	799.146
38.096	16.303	1047.544	798.943
39.111	16.222	1046.799	797.922
40.126	16.247	1044.828	796.471
41.140	15.910	1044.118	794.268
42.155	15.928	1042.894	793.352
43.169	15.939	1041.652	792.387
44.184	15.870	1040.413	791.052
45.199	15.912	1039.519	790.496
46.213	16.085	1038.672	790.594
47.228	16.162	1037.937	790.329
48.242	16.260	1036.354	789.512
49.257	16.157	1035.929	788.634
50.271	16.237	1035.093	788.302
51.286	16.283	1034.109	787.700
52.301	16.252	1032.963	786.612
53.315	16.145	1031.901	785.233
54.330	16.128	1030.808	784.255
55.344	15.941	1030.056	782.743
56.359	16.084	1029.118	782.628
57.374	16.015	1028.146	781.497
58.388	15.920	1027.308	780.353
59.403	15.845	1026.578	779.378
60.417	15.962	1025.368	778.933
61.432	15.882	1024.844	778.096
62.447	15.744	1024.250	776.938
63.461	15.805	1023.176	776.339
64.476	15.623	1022.620	775.006
65.490	15.795	1021.688	775.025
66.505	15.779	1020.612	774.068
67.520	15.845	1020.110	773.922
68.534	15.846	1019.282	773.228
69.549	15.792	1018.458	772.289
70.563	15.771	1017.506	771.400
71.578	15.587	1016.894	770.027
72.593	15.613	1016.157	769.520
73.607	15.612	1015.356	768.840
74.622	15.617	1014.911	768.458
75.636	15.637	1014.018	767.805
76.651	15.756	1013.292	767.730
77.666	15.682	1012.534	766.750
78.680	15.746	1012.334	766.825
79.695	15.747	1011.459	766.096
80.709	15.763	1011.189	765.898
81.724	15.925	1010.248	765.856
82.739	15.947	1009.506	765.322
83.753	16.192	1008.709	765.766
84.768	16.350	1008.100	765.949
85.782	16.321	1007.368	765.193
86.797	16.310	1006.424	764.360
87.812	16.119	1005.565	762.776
88.826	16.442	1003.991	762.972
89.841	16.314	1003.530	761.979
90.855	16.366	1002.658	761.481
91.870	16.407	1002.571	761.536
92.884	16.390	1001.057	760.241
93.899	16.314	1000.360	759.300
94.914	16.450	999.497	759.189
95.928	16.550	998.432	758.765
96.943	16.378	997.845	757.477
97.957	16.409	996.558	756.573
98.972	16.341	995.618	755.488
99.987	16.370	995.059	755.125
101.001	16.327	994.217	754.231
102.016	16.285	993.211	753.211
103.030	16.289	992.533	752.647
104.045	16.378	991.283	752.031
105.060	16.250	990.648	750.914
106.074	16.054	989.520	749.122
107.089	15.956	988.659	747.968
108.103	15.728	987.615	746.098
109.118	15.950	986.549	746.212
110.133	15.785	985.616	744.710
111.147	15.902	984.733	744.495
112.162	15.882	984.337	744.042
113.176	15.975	983.551	743.790
114.191	16.066	982.656	743.451
115.206	15.927	982.166	742.402
116.220	15.985	980.879	741.618
117.235	15.943	979.925	740.647
118.249	16.017	979.325	740.453
119.264	16.006	978.034	739.363
120.279	15.855	977.393	738.150
121.293	15.798	976.524	737.180
122.308	15.788	975.717	736.462
123.322	15.624	974.740	734.941
124.337	15.645	973.911	734.345
125.352	15.678	973.067	733.784
126.366	15.777	971.458	732.938
127.381	15.840	970.606	732.505
128.395	15.831	969.944	731.904
129.410	15.885	969.071	731.411
130.424	16.006	968.127	731.159
131.439	16.131	967.341	731.044
132.454	16.053	967.058	730.430
133.468	16.074	965.788	729.496
134.483	16.119	965.138	729.134
135.497	16.066	964.099	728.054
136.512	16.048	963.650	727.577
137.527	15.941	962.993	726.553
138.541	16.150	962.215	726.801
139.556	16.088	961.121	725.646
140.570	16.246	960.551	725.830
141.585	16.369	959.967	725.851
142.600	16.329	959.342	725.145
143.614	16.486	958.587	725.183
144.629	16.452	957.537	724.180
145.643	16.448	956.558	723.359
146.658	16.232	956.001	721.946
147.673	16.354	954.156	721.012
148.687	16.117	953.701	719.592
149.702	16.169	952.770	719.049
150.716	16.142	952.069	718.342
151.731	16.132	951.512	717.815
152.746	16.125	950.902	717.262
153.760	16.211	949.877	716.791
154.775	16.349	949.791	717.249
155.789	16.216	949.232	716.196
156.804	16.516	948.076	716.533
157.819	16.422	947.630	715.735
158.833	16.517	947.027	715.618
159.848	16.610	946.042	715.201
160.862	16.561	944.909	714.076
161.877	16.324	943.999	712.327
162.892	16.102	942.960	710.543
163.906	16.022	942.036	709.448
164.921	16.175	941.312	709.484
165.935	16.235	940.570	709.114
166.950	16.328	939.817	708.875
167.964	16.295	939.073	708.110
168.979	16.185	938.149	706.890
169.994	16.191	937.106	706.068
171.008	16.348	936.456	706.173
172.023	16.546	935.691	706.359
173.037	16.521	935.015	705.685
174.052	16.531	934.179	705.029
175.067	16.350	933.761	703.899
176.081	16.063	933.535	702.470
177.096	16.188	932.487	702.137
178.110	16.228	931.754	701.690
179.125	16.223	931.427	701.365
180.140	16.392	930.643	701.412
181.154	16.450	930.259	701.302
182.169	16.557	930.002	701.490
183.183	16.632	929.287	701.200
184.198	16.531	928.531	700.147
185.213	16.802	927.379	700.338
186.227	16.675	926.854	699.353
187.242	16.698	926.952	699.462
188.256	16.827	926.027	699.235
189.271	16.717	925.185	698.085
190.286	16.666	924.034	696.941
191.300	16.273	923.212	694.644
192.315	16.278	922.682	694.203
193.329	16.215	922.015	693.381
194.344	16.252	921.511	693.094
195.359	16.561	920.801	693.766
196.373	16.672	920.318	693.797
197.388	16.764	920.215	694.033
198.402	16.894	919.552	694.007
199.417	16.922	918.776	693.474
200.432	16.829	918.918	693.139
201.446	17.060	917.773	693.158
202.461	16.991	917.434	692.557
203.475	16.927	916.979	691.891
204.490	16.888	915.687	690.696
205.504	16.779	915.239	689.855
206.519	16.942	914.182	689.657
207.534	16.901	913.764	689.116
208.548	16.713	913.182	687.852
209.563	16.795	912.468	687.585
210.577	16.977	911.942	687.865
211.592	17.079	911.088	687.575
212.607	17.034	910.558	686.935
213.621	17.012	909.742	686.165
214.636	16.900	909.090	685.162
215.650	17.007	908.378	684.997
216.665	17.090	907.828	684.857
217.680	17.271	906.955	684.865
218.694	17.207	906.271	684.030
219.709	17.197	905.967	683.702
220.723	17.181	904.627	682.564
221.738	17.102	904.433	682.042
222.753	17.207	903.807	681.931
223.767	17.205	903.552	681.670
224.782	17.248	902.831	681.237
225.796	17.387	902.155	681.225
226.811	17.277	901.485	680.218
227.826	17.143	900.654	678.994
228.840	17.131	899.990	678.387
229.855	17.091	899.070	677.472
230.869	17.106	898.192	676.813
231.884	17.132	897.491	676.325
232.899	17.109	896.684	675.569
233.913	16.955	896.356	674.647
234.928	16.946	895.670	674.035
235.942	16.926	895.414	673.706
236.957	16.892	894.549	672.861
237.972	16.949	894.093	672.684
238.986	17.013	893.148	672.166
240.001	17.125	892.837	672.316
241.015	17.087	892.044	671.510
242.030	17.149	891.859	671.554
243.045	17.224	890.986	671.135
244.059	17.163	890.225	670.261
245.074	17.356	889.891	670.712
246.088	17.286	889.278	669.914
247.103	17.394	888.612	669.780
248.117	17.694	888.170	670.567
249.132	17.773	887.570	670.366
250.147	17.827	887.178	670.222
251.161	17.860	886.154	669.516
252.176	17.810	885.940	669.102
253.190	17.820	885.329	668.620
254.205	17.854	884.518	668.080
255.220	17.973	883.705	667.874
256.234	17.830	883.792	667.320
257.249	17.998	882.620	667.032
258.263	17.999	881.462	666.102
259.278	17.964	880.967	665.534
260.293	17.935	880.870	665.290
261.307	17.973	880.077	664.777
262.322	18.021	879.420	664.412
263.336	17.947	878.831	663.618
264.351	18.095	877.711	663.286
265.366	18.028	877.369	662.712
266.380	18.005	877.150	662.397
267.395	17.960	876.060	661.342
268.409	17.893	875.273	660.429
269.424	17.962	874.546	660.091
270.439	17.830	874.097	659.184
271.453	17.902	873.185	658.714
272.468	17.910	872.706	658.325
273.482	18.004	872.113	658.181
274.497	17.913	871.745	657.498
275.512	17.924	871.162	657.041
276.526	18.012	870.757	657.016
277.541	17.978	870.134	656.357
278.555	18.047	869.781	656.298
279.570	18.268	868.840	656.377
280.585	18.228	868.086	655.594
281.599	18.170	867.141	654.603
282.614	18.095	866.861	654.046
283.628	17.925	866.486	653.054
284.643	17.939	865.762	652.505
285.657	18.067	865.179	652.498
286.672	17.962	864.607	651.607
287.687	18.096	863.920	651.541
288.701	18.118	863.382	651.161
289.716	18.267	862.568	651.058
290.730	18.205	862.178	650.471
291.745	18.269	861.260	649.962
292.760	18.247	860.751	649.436
293.774	18.322	860.582	649.539
294.789	18.236	860.019	648.731
295.803	18.277	858.901	647.983
296.818	18.255	858.416	647.478
297.833	18.181	857.964	646.800
298.847	18.177	857.392	646.293
299.862	18.162	857.005	645.889
300.876	18.237	856.280	645.568
301.891	18.307	855.990	645.556
302.906	18.483	855.117	645.504
303.920	18.598	854.863	645.690
304.935	18.583	854.165	645.049
305.949	18.496	853.362	644.057
306.964	18.468	852.877	643.530
307.979	18.454	852.204	642.911
308.993	18.574	851.583	642.836
310.008	18.595	851.000	642.419
311.022	18.542	850.622	641.879
312.037	18.396	849.969	640.780
313.052	18.204	849.391	639.573
314.066	18.211	848.568	638.923
315.081	18.375	848.089	639.118
316.095	18.522	847.633	639.266
317.110	18.347	847.078	638.136
318.125	18.256	846.380	637.217
319.139	18.356	845.932	637.194
320.154	18.394	845.519	636.969
321.168	18.492	844.716	636.672
322.183	18.410	844.311	636.007
323.197	18.469	843.880	635.844
324.212	18.376	843.552	635.193
325.227	18.505	842.640	634.929
326.241	18.486	841.974	634.300
327.256	18.509	841.546	634.009
328.270	18.532	841.152	633.741
329.285	18.420	840.533	632.803
330.300	18.512	839.929	632.633
331.314	18.508	839.312	632.096
332.329	18.713	838.671	632.313
333.343	18.609	838.797	631.968
334.358	18.661	838.162	631.628
335.373	18.718	837.995	631.655
336.387	18.779	837.694	631.596
337.402	18.792	837.422	631.384
338.416	18.865	837.314	631.514
339.431	18.861	837.157	631.325
340.446	19.027	836.338	631.262
341.460	19.024	835.647	630.672
342.475	19.030	835.482	630.516
343.489	19.045	835.193	630.294
344.504	19.117	834.989	630.351
345.519	19.184	834.340	630.049
346.533	18.949	833.787	628.718
347.548	19.007	832.941	628.235
348.562	18.953	832.085	627.337
349.577	18.807	831.580	626.366
350.592	18.763	830.948	625.677
351.606	18.754	830.522	625.266
352.621	18.818	829.580	624.736
353.635	18.787	829.539	624.537
354.650	19.014	828.605	624.601
355.665	18.839	828.123	623.549
356.679	19.134	827.375	623.998
357.694	19.212	826.523	623.585
358.708	19.024	825.993	622.447
359.723	19.069	825.526	622.204
360.738	19.105	824.625	621.602
361.752	19.081	824.516	621.376
362.767	19.146	824.172	621.295
363.781	19.439	823.314	621.651
364.796	19.388	823.107	621.254
365.810	19.599	822.801	621.729
366.825	19.510	822.597	621.200
367.840	19.474	821.502	620.190
368.854	19.512	821.216	620.055
369.869	19.466	821.029	619.693
370.883	19.438	820.487	619.131
371.898	19.486	820.050	618.918
372.913	19.524	819.362	618.478
373.927	19.426	819.172	617.930
374.942	19.421	818.913	617.660
375.956	19.539	818.561	617.762
376.971	19.605	817.968	617.499
377.986	19.792	817.507	617.764
379.000	19.832	816.687	617.230
380.015	19.659	816.521	616.435
381.029	19.816	815.512	616.176
382.044	19.713	815.281	615.580
383.059	19.743	814.770	615.249
384.073	19.716	814.050	614.553
385.088	19.621	812.961	613.338
386.102	19.541	812.684	612.795
387.117	19.626	812.142	612.631
388.132	19.478	811.448	611.529
389.146	19.601	810.912	611.508
390.161	19.641	810.939	611.616
391.175	19.761	810.376	611.561
392.190	19.741	809.746	610.960
393.205	19.552	809.488	610.042
394.219	19.710	808.690	609.945
395.234	19.477	808.539	608.957
396.248	19.522	808.185	608.796
397.263	19.363	807.554	607.702
398.278	19.337	807.350	607.407
399.292	19.514	806.633	607.437
400.307	19.418	806.285	606.783
401.321	19.549	805.686	606.739
402.336	19.663	805.051	606.606
403.350	19.629	804.889	606.311
404.365	19.732	804.651	606.441
405.380	19.792	803.788	605.948
406.394	19.898	803.595	606.118
407.409	19.928	803.280	605.932
408.423	20.023	803.070	606.052
409.438	20.097	802.570	605.879
410.453	20.127	802.220	605.667
411.467	20.233	801.401	605.366
412.482	20.240	801.210	605.190
413.496	20.307	801.065	605.263
414.511	20.152	800.590	604.307
415.526	20.163	800.305	604.080
416.540	20.085	799.758	603.342
417.555	20.054	799.285	602.824
418.569	20.221	798.439	602.712
419.584	20.072	798.308	602.044
420.599	20.115	798.037	601.932
421.613	162.366	1372.166	1798.517
422.628	140.911	1455.817	1798.609
