DTS Sentinel unit serial number:	SN413079Multiplexer serial number:	ORYXHardware model number:	OX4-SRSoftware version number:	ORYX F/W v4.00 Oryx Data Collector v3.7.2.0data status	okinstallation	princeton_trtdifferential loss correction	single-endedforward channel	channel 1reverse channel	N/Adate	2019/09/12time	00:48:11forward acquisition time	60.00reverse acquisition time	0.00gamma	496.2192k internal	0.2319k external	0.2319temperature offset calibration	1.0081default loss term (dB/km)	0.3790temperature slope calibration	1.0000multiplexer offset coefficient	1.0000multiplexer slope coefficient	1.0000fibre end	0.00T internal ref (°C)	33.25T ext. ref 1 (°C)	2.06T ext. ref 2 (°C)	28.05length (m)	temperature (°C)	Stokes	anti-Stokes-747.200	-133.732	-0.267	0.034
-746.185	-87.359	-0.347	-0.106
-745.171	-134.675	0.253	0.031
-744.156	-30.499	-0.418	0.240
-743.142	206.788	-0.196	0.310
-742.127	-108.698	-0.140	-0.030
-741.112	139.998	-0.215	-0.287
-740.098	-160.820	-0.329	0.018
-739.083	586.539	0.030	-0.075
-738.069	-83.123	-0.234	-0.076
-737.054	-124.356	-0.300	-0.047
-736.039	357.327	-0.159	-0.320
-735.025	-107.429	0.215	0.048
-734.010	143.545	-0.272	-0.367
-732.996	-128.806	-0.324	-0.046
-731.981	192.994	-0.233	-0.357
-730.966	200.515	0.123	-0.191
-729.952	-50.643	0.287	-0.137
-728.937	-200.000	-0.111	-0.741
-727.923	-101.749	0.024	0.006
-726.908	-40.764	-0.361	0.189
-725.894	-200.000	-0.030	-0.281
-724.879	800.000	-0.111	0.407
-723.864	237.561	-0.154	0.258
-722.850	58.214	-0.144	0.142
-721.835	236.769	0.088	0.147
-720.821	494.394	-0.145	-0.337
-719.806	-34.963	-0.236	0.130
-718.791	63.163	-0.060	0.060
-717.777	-55.791	-0.153	0.069
-716.762	343.994	-0.202	-0.400
-715.748	31.373	0.242	-0.210
-714.733	800.000	0.044	0.126
-713.718	800.000	0.044	-0.134
-712.704	29.409	-0.134	-0.115
-711.689	-84.910	-0.307	-0.097
-710.675	3.341	-0.129	-0.095
-709.660	-125.266	0.324	0.050
-708.645	800.000	0.099	-0.318
-707.631	-55.780	-0.151	0.068
-706.616	-57.450	0.300	0.133
-705.602	-32.131	-0.195	0.110
-704.587	-76.816	-0.196	-0.069
-703.572	-77.294	0.121	0.043
-702.558	-122.916	0.096	0.016
-701.543	-34.963	0.247	0.136
-700.529	35.773	-0.326	0.289
-699.514	216.881	-0.215	-0.346
-698.499	-75.245	-0.011	0.004
-697.485	-200.000	0.010	-0.064
-696.470	-158.672	0.287	-0.017
-695.456	-47.838	0.114	0.056
-694.441	689.268	-0.050	0.133
-693.426	286.348	0.221	-0.402
-692.412	-200.000	-0.004	0.302
-691.397	111.509	0.259	0.315
-690.383	561.418	-0.124	0.302
-689.368	-116.994	-0.394	0.073
-688.354	-108.136	-0.240	-0.053
-687.339	62.223	0.053	0.054
-686.324	-30.588	0.278	-0.159
-685.310	145.078	-0.050	-0.068
-684.295	-1.578	-0.221	-0.157
-683.281	25.287	-0.230	-0.193
-682.266	-200.000	-0.028	-0.204
-681.251	-196.385	0.101	0.001
-680.237	-58.986	-0.207	-0.090
-679.222	168.211	-0.050	0.071
-678.208	225.132	-0.146	-0.239
-677.193	-47.140	-0.229	-0.113
-676.178	28.283	0.394	-0.336
-675.164	759.591	0.069	-0.188
-674.149	218.566	0.210	-0.338
-673.135	35.910	0.078	-0.069
-672.120	270.912	0.115	0.205
-671.105	-92.862	-0.167	0.047
-670.091	755.946	0.056	-0.153
-669.076	-7.998	0.247	0.168
-668.062	34.809	-0.227	-0.200
-667.047	-10.870	-0.142	0.094
-666.032	-37.297	-0.304	0.164
-665.018	800.000	-0.048	-0.193
-664.003	800.000	0.079	-0.275
-662.989	216.176	-0.162	0.260
-661.974	153.946	-0.066	-0.091
-660.959	-134.743	0.252	0.031
-659.945	-123.381	-0.254	-0.041
-658.930	67.099	0.300	-0.309
-657.916	506.621	-0.049	0.115
-656.901	158.312	-0.171	0.239
-655.886	-136.898	0.330	0.038
-654.872	-67.104	-0.062	0.025
-653.857	-200.000	-0.070	-0.359
-652.843	-64.726	0.277	0.113
-651.828	185.957	0.148	0.222
-650.814	159.670	0.050	0.070
-649.799	-200.000	0.024	0.129
-648.784	217.957	0.063	0.101
-647.770	212.183	-0.079	-0.125
-646.755	-105.584	-0.265	0.061
-645.741	-17.019	0.170	-0.108
-644.726	-200.000	0.039	-0.366
-643.711	292.412	0.159	-0.292
-642.697	-121.729	0.278	-0.046
-641.682	-200.000	-0.044	-0.215
-640.668	53.850	-0.101	-0.097
-639.653	-84.512	-0.123	0.039
-638.638	44.995	0.077	0.071
-637.624	59.038	0.238	0.236
-636.609	-200.000	-0.053	-0.338
-635.595	-200.000	-0.008	-0.248
-634.580	-81.330	-0.292	0.097
-633.565	124.553	-0.105	0.133
-632.551	-200.000	0.006	-0.065
-631.536	-200.000	0.017	0.522
-630.522	-90.959	-0.092	-0.027
-629.507	-200.000	0.057	-0.472
-628.492	116.561	-0.120	0.149
-627.478	89.912	-0.122	0.138
-626.463	189.375	-0.077	0.116
-625.449	126.990	0.143	0.183
-624.434	-58.677	-0.125	0.055
-623.419	41.801	0.230	-0.210
-622.405	242.847	0.059	0.099
-621.390	800.000	0.050	-0.171
-620.376	338.632	0.093	-0.183
-619.361	-200.000	-0.003	-0.136
-618.346	-200.000	-0.047	0.521
-617.332	-18.815	0.222	0.139
-616.317	91.952	-0.114	-0.129
-615.303	-148.720	0.388	-0.032
-614.288	207.945	0.002	-0.004
-613.273	-200.000	0.012	-0.213
-612.259	800.000	-0.038	-0.148
-611.244	800.000	0.048	0.135
-610.230	-200.000	0.027	-0.249
-609.215	-4.473	0.250	-0.174
-608.201	450.412	0.089	-0.198
-607.186	173.161	0.061	-0.088
-606.171	-200.000	0.028	0.219
-605.157	356.277	0.094	0.189
-604.142	-84.224	0.319	0.102
-603.128	-77.149	0.238	0.083
-602.113	40.676	0.068	-0.062
-601.098	315.818	0.233	0.442
-600.084	-127.207	-0.045	0.007
-599.069	-38.079	0.166	-0.089
-598.055	91.296	0.153	-0.172
-597.040	26.922	0.222	-0.187
-596.025	-32.490	0.242	-0.135
-595.011	67.720	-0.181	-0.186
-593.996	-144.658	-0.083	0.008
-592.982	283.233	-0.139	0.252
-591.967	800.000	0.088	-0.313
-590.952	22.204	-0.111	-0.091
-589.938	-18.710	-0.302	0.189
-588.923	-67.423	-0.605	-0.239
-587.909	-104.924	0.198	-0.046
-586.894	-133.977	0.102	0.013
-585.879	-65.939	0.404	0.162
-584.865	-65.897	-0.139	0.056
-583.850	83.411	-0.059	0.064
-582.836	4.770	-0.182	0.134
-581.821	324.224	0.160	0.306
-580.806	-5.236	-0.193	0.133
-579.792	-188.508	0.376	0.005
-578.777	-62.014	-0.130	0.054
-577.763	-154.150	0.322	0.022
-576.748	-22.086	0.338	0.206
-575.733	26.681	0.059	0.050
-574.719	79.941	0.053	-0.058
-573.704	800.000	0.132	-0.380
-572.690	78.641	-0.172	-0.184
-571.675	19.084	-0.088	0.071
-570.661	-107.792	0.332	-0.073
-569.646	10.844	-0.147	0.113
-568.631	94.563	-0.174	0.198
-567.617	47.252	-0.137	0.128
-566.602	-200.000	-0.034	0.278
-565.588	-139.616	-0.142	0.015
-564.573	-126.317	-0.114	-0.017
-563.558	800.000	0.077	0.232
-562.544	-24.217	-0.241	0.144
-561.529	639.140	0.010	-0.025
-560.515	75.758	-0.311	0.331
-559.500	-200.000	-0.077	-0.345
-558.485	52.545	0.208	0.199
-557.471	-106.918	0.321	-0.071
-556.456	25.429	-0.159	0.133
-555.442	169.232	-0.229	-0.328
-554.427	-56.421	-0.286	0.127
-553.412	-200.000	0.020	-0.175
-552.398	95.879	0.043	0.050
-551.383	-9.102	0.235	-0.158
-550.369	141.425	0.018	-0.024
-549.354	-178.995	-0.232	-0.005
-548.339	-83.589	-0.397	0.127
-547.325	-185.493	-0.404	0.006
-546.310	-155.057	-0.142	-0.009
-545.296	461.088	-0.080	-0.178
-544.281	-49.362	-0.205	-0.098
-543.266	-200.000	0.039	-0.444
-542.252	175.300	0.051	0.075
-541.237	512.620	0.198	-0.464
-540.223	313.079	0.161	0.304
-539.208	146.070	0.223	0.300
-538.193	16.734	0.204	-0.162
-537.179	-123.122	-0.286	0.046
-536.164	-139.857	0.099	0.011
-535.150	436.959	-0.068	0.148
-534.135	800.000	0.078	0.219
-533.121	-200.000	-0.015	0.122
-532.106	405.890	-0.111	-0.234
-531.091	800.000	-0.139	0.401
-530.077	288.391	0.014	-0.025
-529.062	-149.271	0.248	0.020
-528.048	131.384	-0.086	-0.111
-527.033	-111.239	0.090	0.018
-526.018	-98.994	0.417	-0.106
-525.004	-126.513	-0.240	0.036
-523.989	8.316	0.167	-0.126
-522.975	-6.920	-0.028	0.019
-521.960	-42.402	0.152	-0.078
-520.945	800.000	0.088	0.258
-519.931	-200.000	-0.010	0.385
-518.916	-51.132	0.148	0.070
-517.902	-200.000	-0.019	0.086
-516.887	116.650	-0.165	0.203
-515.872	-90.663	-0.226	0.066
-514.858	800.000	-0.114	-0.322
-513.843	-73.109	-0.078	-0.029
-512.829	-31.292	0.268	-0.151
-511.814	-200.000	-0.001	0.228
-510.799	2.466	0.104	0.075
-509.785	550.492	-0.015	-0.036
-508.770	800.000	-0.131	-0.553
-507.756	-87.253	0.489	-0.149
-506.741	155.248	-0.063	-0.087
-505.726	84.378	0.151	-0.165
-504.712	515.437	0.035	-0.082
-503.697	800.000	-0.081	-0.237
-502.683	-87.233	0.349	0.106
-501.668	-183.113	0.192	-0.003
-500.653	-13.850	0.166	0.107
-499.639	21.713	0.231	0.188
-498.624	800.000	0.013	-0.055
-497.610	10.214	0.198	-0.151
-496.595	-189.895	0.187	-0.002
-495.581	-50.681	-0.021	0.010
-494.566	293.116	-0.142	-0.259
-493.551	-200.000	0.002	-0.022
-492.537	-0.449	-0.241	-0.171
-491.522	-190.222	0.416	0.005
-490.508	-49.110	-0.340	-0.163
-489.493	68.742	0.115	0.119
-488.478	-90.797	-0.063	0.018
-487.464	-71.813	0.109	-0.041
-486.449	-157.912	0.212	0.013
-485.435	800.000	0.031	0.130
-484.420	800.000	-0.041	0.128
-483.405	89.537	0.200	0.224
-482.391	-200.000	-0.016	0.073
-481.376	86.324	-0.135	-0.149
-480.362	214.992	0.123	0.195
-479.347	-200.000	-0.004	0.148
-478.332	496.906	0.055	0.127
-477.318	197.556	0.115	0.176
-476.303	-35.275	0.064	-0.035
-475.289	111.936	0.110	-0.133
-474.274	-98.802	0.147	0.038
-473.259	630.898	-0.103	0.261
-472.245	182.966	0.116	-0.171
-471.230	-152.541	0.178	0.013
-470.216	-43.918	0.050	0.025
-469.201	289.491	0.175	-0.317
-468.186	163.129	-0.228	0.321
-467.172	225.386	0.091	-0.148
-466.157	-112.641	0.137	0.027
-465.143	83.780	0.124	0.136
-464.128	-176.010	0.377	-0.010
-463.113	-98.053	0.273	-0.070
-462.099	800.000	0.035	0.135
-461.084	-149.571	0.233	-0.018
-460.070	402.832	-0.060	0.126
-459.055	34.838	-0.119	0.104
-458.040	-18.394	0.063	0.039
-457.026	-200.000	-0.077	-0.401
-456.011	432.149	-0.087	0.188
-454.997	-106.907	-0.437	0.097
-453.982	-200.000	0.011	-0.067
-452.968	282.100	-0.132	0.237
-451.953	800.000	0.080	-0.233
-450.938	-3.707	0.101	0.070
-449.924	-92.211	0.309	-0.087
-448.909	-124.977	-0.376	-0.058
-447.895	-19.784	-0.098	0.060
-446.880	800.000	0.081	0.252
-445.865	-76.577	-0.294	-0.103
-444.851	-104.572	-0.093	0.021
-443.836	16.612	-0.022	-0.018
-442.822	157.762	0.089	-0.124
-441.807	-121.551	0.208	0.035
-440.792	-145.770	-0.227	-0.020
-439.778	-200.000	-0.076	0.377
-438.763	581.260	0.147	-0.361
-437.749	1.443	-0.394	-0.283
-436.734	72.990	-0.201	0.210
-435.719	-200.000	0.043	0.247
-434.705	32.533	-0.034	-0.029
-433.690	54.816	0.033	-0.032
-432.676	-200.000	0.002	0.039
-431.661	765.325	0.198	-0.537
-430.646	1.461	-0.050	0.036
-429.632	-27.700	0.189	-0.110
-428.617	800.000	0.047	-0.198
-427.603	-43.385	0.193	0.097
-426.588	-158.811	-0.281	-0.016
-425.573	-109.031	0.279	-0.059
-424.559	-200.000	-0.018	-0.140
-423.544	116.771	-0.067	0.082
-422.530	-190.781	-0.294	0.003
-421.515	130.102	-0.189	-0.241
-420.500	-21.569	-0.166	-0.101
-419.486	-127.235	-0.300	-0.044
-418.471	-26.242	0.263	-0.154
-417.457	10.706	0.123	-0.094
-416.442	76.797	0.163	0.173
-415.428	-200.000	-0.022	-0.279
-414.413	-200.000	0.006	-0.080
-413.398	460.909	0.034	0.075
-412.384	-200.000	0.003	0.182
-411.369	-200.000	-0.010	-0.261
-410.355	-77.418	0.084	-0.029
-409.340	-200.000	0.026	0.344
-408.325	723.182	0.032	0.085
-407.311	-173.166	0.440	0.013
-406.296	-43.162	-0.504	0.255
-405.282	16.775	0.267	0.211
-404.267	-28.734	-0.103	-0.059
-403.252	-153.569	0.087	-0.006
-402.238	-111.491	-0.208	-0.042
-401.223	-200.000	-0.018	0.228
-400.209	331.541	0.074	-0.142
-399.194	-200.000	0.014	0.171
-398.179	292.362	0.122	-0.222
-397.165	42.093	-0.156	-0.141
-396.150	100.979	-0.099	-0.115
-395.136	-200.000	-0.034	0.410
-394.121	800.000	0.068	0.271
-393.106	176.764	-0.254	0.368
-392.092	-33.418	-0.173	-0.096
-391.077	40.531	-0.278	0.250
-390.063	157.354	-0.114	-0.158
-389.048	569.177	0.122	0.296
-388.033	800.000	-0.039	-0.165
-387.019	92.566	0.082	-0.092
-386.004	11.916	-0.127	0.098
-384.990	-197.581	-0.176	-0.001
-383.975	-18.466	-0.164	-0.102
-382.960	800.000	-0.088	-0.307
-381.946	800.000	0.126	-0.457
-380.931	-200.000	-0.035	-0.179
-379.917	265.263	0.046	-0.080
-378.902	-134.149	0.119	0.015
-377.888	225.768	-0.074	-0.120
-376.873	16.079	-0.207	0.162
-375.858	800.000	-0.036	0.102
-374.844	-91.194	0.198	0.057
-373.829	113.794	0.073	0.088
-372.815	332.826	-0.061	0.117
-371.800	-111.789	-0.255	-0.051
-370.785	800.000	-0.042	0.178
-369.771	294.490	-0.062	0.113
-368.756	800.000	0.057	0.187
-367.742	-7.426	-0.168	0.113
-366.727	800.000	0.091	-0.334
-365.712	-200.000	0.019	-0.183
-364.698	6.617	-0.288	0.214
-363.683	-27.276	-0.215	-0.125
-362.669	-66.620	0.348	-0.137
-361.654	-200.000	-0.015	-0.217
-360.639	109.519	0.301	-0.360
-359.625	-90.261	0.242	-0.070
-358.610	-7.195	-0.086	-0.058
-357.596	475.611	-0.101	-0.227
-356.581	-200.000	0.050	0.245
-355.566	123.472	0.139	0.174
-354.552	-200.000	-0.009	0.091
-353.537	148.655	0.070	-0.095
-352.523	-170.905	-0.067	-0.002
-351.508	-200.000	0.005	0.065
-350.493	62.222	0.212	0.210
-349.479	-96.329	0.272	0.072
-348.464	348.866	0.077	-0.152
-347.450	-200.000	-0.019	-0.097
-346.435	7.979	-0.136	-0.102
-345.420	-200.000	-0.018	-0.164
-344.406	148.195	-0.156	-0.210
-343.391	-174.121	0.286	-0.008
-342.377	384.953	0.062	-0.127
-341.362	-13.642	-0.076	-0.049
-340.348	-89.457	-0.039	-0.011
-339.333	-182.993	-0.192	0.003
-338.318	-200.000	0.033	0.201
-337.304	393.216	-0.044	0.091
-336.289	177.756	-0.082	0.119
-335.275	10.661	0.030	0.023
-334.260	577.949	0.091	0.221
-333.245	-82.177	-0.174	0.056
-332.231	-200.000	-0.027	-0.214
-331.216	-140.550	0.284	0.029
-330.202	-13.798	-0.201	0.129
-329.187	-134.796	0.441	0.053
-328.172	-177.603	-0.314	-0.008
-327.158	-178.458	-0.231	-0.005
-326.143	-135.216	-0.236	-0.028
-325.129	115.759	-0.149	0.181
-324.114	-82.667	-0.031	-0.010
-323.099	-106.357	-0.055	-0.012
-322.085	-92.850	-0.479	-0.133
-321.070	800.000	-0.036	-0.117
-320.056	800.000	0.069	-0.205
-319.041	-99.332	-0.303	0.076
-318.026	-95.258	-0.185	-0.049
-317.012	192.760	0.148	0.222
-315.997	-173.056	-0.166	-0.005
-314.983	-177.685	-0.209	0.005
-313.968	-160.785	0.119	-0.006
-312.953	198.527	-0.144	-0.220
-311.939	252.624	-0.184	-0.313
-310.924	411.653	0.109	0.229
-309.910	29.145	0.117	-0.099
-308.895	-89.297	0.215	0.063
-307.880	-200.000	0.016	0.176
-306.866	-128.887	-0.178	-0.025
-305.851	-49.669	-0.051	0.024
-304.837	55.382	-0.114	-0.109
-303.822	-43.871	-0.096	0.048
-302.807	-200.000	0.019	0.304
-301.793	-200.000	-0.061	0.476
-300.778	191.952	0.113	0.169
-299.764	-5.744	0.235	0.160
-298.749	-122.216	-0.068	-0.011
-297.735	390.847	0.206	-0.426
-296.720	800.000	-0.015	0.049
-295.705	800.000	-0.102	-0.304
-294.691	-104.095	-0.440	0.102
-293.676	403.569	0.060	0.126
-292.662	459.641	-0.114	0.252
-291.647	-200.000	0.006	-0.223
-290.632	316.984	0.162	-0.304
-289.618	800.000	-0.066	0.214
-288.603	-200.000	-0.019	0.305
-287.589	172.292	0.208	-0.297
-286.574	96.356	0.117	-0.133
-285.559	-200.000	-0.016	0.234
-284.545	377.206	0.151	0.307
-283.530	-90.589	-0.156	0.045
-282.516	-174.383	0.124	-0.004
-281.501	-200.000	0.004	-0.100
-280.486	800.000	0.089	0.291
-279.472	500.122	-0.063	0.145
-278.457	-20.220	0.268	-0.164
-277.443	36.406	0.286	-0.251
-276.428	-178.173	-0.222	0.005
-275.413	800.000	0.029	0.104
-274.399	-49.859	-0.201	-0.095
-273.384	240.865	-0.128	-0.212
-272.370	-200.000	-0.016	-0.163
-271.355	109.269	0.348	-0.414
-270.340	493.982	0.116	-0.265
-269.326	-200.000	0.072	-0.372
-268.311	-200.000	-0.044	0.305
-267.297	-62.778	-0.156	-0.064
-266.282	-87.524	-0.100	-0.030
-265.267	721.818	-0.076	0.200
-264.253	71.895	-0.209	-0.216
-263.238	359.337	0.025	0.049
-262.224	800.000	0.129	-0.381
-261.209	28.169	-0.055	0.046
-260.195	-200.000	-0.016	-0.136
-259.180	-200.000	-0.016	0.092
-258.165	46.282	0.182	0.168
-257.151	-64.430	-0.171	-0.069
-256.136	166.878	-0.025	-0.035
-255.122	383.966	0.039	0.080
-254.107	54.957	-0.135	0.130
-253.092	467.949	-0.091	-0.202
-252.078	-200.000	-0.020	-0.328
-251.063	495.169	-0.088	-0.200
-250.049	-71.709	0.291	0.108
-249.034	74.459	0.152	-0.159
-248.019	-91.625	-0.126	0.035
-247.005	-69.727	0.217	-0.082
-245.990	-200.000	-0.028	0.206
-244.976	394.837	0.151	0.313
-243.961	-83.783	-0.227	0.072
-242.946	-200.000	-0.003	-0.179
-241.932	679.309	0.022	-0.057
-240.917	301.755	0.069	-0.127
-239.903	-24.347	0.134	0.080
-238.888	143.147	-0.092	0.122
-237.873	-20.855	-0.378	-0.230
-236.859	-27.776	0.116	0.067
-235.844	236.958	0.070	0.115
-234.830	53.648	-0.140	0.133
-233.815	269.332	0.114	0.199
-232.800	-200.000	-0.009	0.081
-231.786	18.712	0.086	0.069
-230.771	-34.301	-0.226	0.123
-229.757	800.000	0.076	0.236
-228.742	-200.000	0.046	-0.339
-227.727	43.625	0.411	0.372
-226.713	381.152	0.209	-0.424
-225.698	-200.000	0.002	-0.092
-224.684	-30.019	0.183	0.103
-223.669	-125.823	-0.122	-0.018
-222.655	-200.000	-0.008	0.164
-221.640	800.000	-0.020	-0.068
-220.625	-200.000	-0.126	0.571
-219.611	16.211	0.249	-0.195
-218.596	16.835	-0.258	0.202
-217.582	417.422	-0.135	0.286
-216.567	51.990	0.141	0.133
-215.552	114.194	0.026	-0.031
-214.538	800.000	-0.109	0.329
-213.523	0.544	-0.118	-0.083
-212.509	800.000	-0.090	0.251
-211.494	-192.742	-0.229	-0.002
-210.479	-43.043	-0.437	0.220
-209.465	-200.000	0.032	0.145
-208.450	-109.669	0.177	0.037
-207.436	-117.206	-0.152	0.027
-206.421	-184.731	0.241	0.004
-205.406	196.894	-0.038	-0.058
-204.392	-102.209	0.103	-0.025
-203.377	358.654	0.086	0.171
-202.363	16.826	0.336	-0.263
-201.348	101.092	0.119	-0.137
-200.333	-200.000	0.013	-0.193
-199.319	146.626	0.214	0.285
-198.304	67.089	-0.171	0.173
-197.290	-146.824	-0.186	0.016
-196.275	344.648	-0.091	-0.176
-195.260	65.154	-0.195	-0.195
-194.246	-112.712	0.034	-0.007
-193.231	-200.000	0.053	-0.379
-192.217	16.869	-0.369	-0.289
-191.202	-127.751	0.224	0.032
-190.187	10.436	-0.307	0.231
-189.173	-64.362	-0.076	0.031
-188.158	-171.732	-0.382	0.012
-187.144	32.968	-0.199	-0.171
-186.129	81.999	-0.038	0.041
-185.114	-200.000	0.028	-0.170
-184.100	-100.167	-0.215	-0.053
-183.085	4.064	0.291	-0.211
-182.071	28.550	-0.294	0.246
-181.056	192.052	0.180	-0.269
-180.042	50.872	-0.201	-0.189
-179.027	-200.000	0.027	-0.167
-178.012	652.409	-0.077	-0.195
-176.998	44.732	-0.173	-0.158
-175.983	165.248	0.345	0.483
-174.969	-45.140	-0.155	-0.076
-173.954	-200.000	-0.047	-0.303
-172.939	31.231	-0.035	-0.030
-171.925	-200.000	0.044	0.243
-170.910	95.743	0.044	-0.049
-169.896	800.000	0.037	-0.102
-168.881	-81.729	-0.433	-0.140
-167.866	15.959	0.254	-0.198
-166.852	-200.000	-0.027	-0.132
-165.837	-200.000	0.040	-0.173
-164.823	-15.374	-0.221	0.140
-163.808	-95.243	0.097	0.026
-162.793	469.611	-0.159	-0.353
-161.779	800.000	0.027	-0.083
-160.764	-200.000	0.019	0.168
-159.750	-20.819	0.076	-0.046
-158.735	-200.000	0.004	0.035
-157.720	-200.000	-0.051	0.281
-156.706	199.760	0.089	0.135
-155.691	-200.000	0.071	0.465
-154.677	800.000	-0.057	0.223
-153.662	-68.962	-0.386	0.147
-152.647	-9.381	0.283	0.187
-151.633	-200.000	-0.037	0.517
-150.618	800.000	0.054	0.154
-149.604	56.192	0.335	0.322
-148.589	800.000	-0.064	0.244
-147.574	337.858	0.145	0.278
-146.560	-158.940	0.077	0.004
-145.545	-19.730	0.056	-0.034
-144.531	-6.317	0.217	-0.147
-143.516	102.463	0.125	0.144
-142.502	-115.892	0.142	0.026
-141.487	-200.000	-0.018	0.140
-140.472	-51.442	-0.367	-0.169
-139.458	-84.593	-0.099	0.031
-138.443	-86.487	0.119	-0.036
-137.429	-22.165	0.264	0.158
-136.414	-159.930	0.173	-0.009
-135.399	23.109	0.093	-0.076
-134.385	410.029	-0.048	-0.100
-133.370	-89.645	-0.240	-0.070
-132.356	-91.893	0.180	-0.050
-131.341	704.279	0.032	0.083
-130.326	-200.000	0.043	-0.203
-129.312	101.522	0.235	0.270
-128.297	800.000	0.127	0.481
-127.283	-107.538	-0.513	0.111
-126.268	30.328	-0.055	-0.046
-125.253	-50.357	0.183	0.086
-124.239	-200.000	-0.008	-0.123
-123.224	7.151	-0.024	-0.018
-122.210	-176.276	0.046	-0.001
-121.195	231.596	-0.134	0.216
-120.180	-168.159	0.174	-0.007
-119.166	-200.000	-0.015	0.165
-118.151	-200.000	0.035	-0.205
-117.137	691.497	-0.014	-0.036
-116.122	-72.102	0.308	0.113
-115.107	64.424	0.103	-0.103
-114.093	-116.976	0.497	-0.090
-113.078	461.926	0.158	0.347
-112.064	4.938	0.119	-0.086
-111.049	-200.000	-0.005	0.087
-110.034	-200.000	-0.022	-0.239
-109.020	-200.000	0.008	0.072
-108.005	51.182	0.252	0.236
-106.991	331.366	0.091	-0.174
-105.976	-200.000	0.026	-0.120
-104.962	-141.138	-0.133	-0.013
-103.947	-139.943	0.199	-0.021
-102.932	-200.000	0.011	-0.142
-101.918	-137.960	0.194	0.021
-100.903	188.217	0.067	0.099
-99.889	41.843	-0.084	0.075
-98.874	26.640	0.101	-0.084
-97.859	8.657	-0.253	0.188
-96.845	-4.742	0.265	0.180
-95.830	155.296	0.328	-0.445
-94.816	-141.330	-0.307	-0.031
-93.801	-108.746	0.216	-0.046
-92.786	174.697	0.110	-0.156
-91.772	6.126	0.262	-0.191
-90.757	-0.639	0.138	0.097
-89.743	63.639	-0.255	0.252
-88.728	88.818	0.172	0.189
-87.713	800.000	0.034	0.127
-86.699	-134.944	0.248	-0.030
-85.684	561.286	0.063	0.150
-84.670	-68.416	0.354	0.135
-83.655	3.971	-0.109	0.079
-82.640	-200.000	0.019	0.088
-81.626	29.650	0.217	0.182
-80.611	800.000	-0.023	0.074
-79.597	53.162	-0.082	-0.077
-78.582	171.632	0.337	-0.476
-77.567	800.000	0.024	-0.077
-76.553	800.000	-0.092	-0.317
-75.538	118.968	0.200	-0.243
-74.524	-17.360	-0.148	0.092
-73.509	83.498	0.102	-0.109
-72.494	-14.467	-0.115	0.073
-71.480	-116.232	-0.243	0.044
-70.465	800.000	-0.080	0.219
-69.451	-200.000	0.021	-0.247
-68.436	-41.001	0.189	-0.096
-67.422	92.181	0.167	-0.186
-66.407	444.924	-0.078	-0.168
-65.392	21.110	-0.148	0.118
-64.378	26.950	0.284	-0.235
-63.363	-169.564	0.203	0.007
-62.349	800.000	0.068	0.236
-61.334	65.140	-1.032	-1.028
-60.319	-200.000	0.177	0.833
-59.305	-200.000	-0.103	-0.909
-58.290	226.196	0.484	0.774
-57.276	-200.000	0.134	1.375
-56.261	-200.000	96.430	580.085
-55.246	548.091	1388.027	3273.342
-54.232	157.735	2567.648	3502.516
-53.217	113.068	2145.862	2562.043
-52.203	44.775	1607.285	1456.124
-51.188	36.739	1345.498	1170.562
-50.173	33.534	1303.134	1114.847
-49.159	55.636	1350.483	1288.060
-48.144	58.054	1366.945	1318.151
-47.130	36.900	1325.207	1153.684
-46.115	33.437	1307.494	1117.830
-45.100	33.189	1303.312	1112.751
-44.086	33.166	1300.302	1109.998
-43.071	32.983	1298.820	1107.615
-42.057	33.034	1296.561	1105.947
-41.042	33.179	1294.489	1104.980
-40.027	33.145	1293.176	1103.621
-39.013	33.102	1291.722	1102.085
-37.998	33.231	1289.683	1101.053
-36.984	33.260	1287.802	1099.572
-35.969	33.259	1286.218	1098.167
-34.954	33.330	1284.747	1097.280
-33.940	33.321	1283.275	1095.926
-32.925	33.377	1281.978	1095.098
-31.911	33.339	1280.694	1093.740
-30.896	33.344	1278.897	1092.190
-29.881	33.350	1277.629	1091.098
-28.867	33.371	1276.514	1090.223
-27.852	33.224	1274.919	1087.975
-26.838	33.330	1273.609	1087.422
-25.823	33.392	1272.362	1086.667
-24.809	33.343	1270.646	1084.880
-23.794	33.319	1269.157	1083.432
-22.779	33.377	1268.145	1082.856
-21.765	33.344	1267.016	1081.657
-20.750	33.362	1265.329	1080.277
-19.736	33.200	1264.384	1078.503
-18.721	33.291	1262.930	1077.740
-17.706	33.226	1261.974	1076.512
-16.692	33.139	1260.706	1074.895
-15.677	33.204	1259.662	1074.327
-14.663	33.198	1258.673	1073.409
-13.648	33.132	1258.115	1072.517
-12.633	33.150	1256.795	1071.452
-11.619	33.130	1256.245	1070.826
-10.604	33.169	1255.283	1070.183
-9.590	33.048	1254.452	1068.749
-8.575	33.216	1252.801	1068.250
-7.560	33.211	1251.941	1067.444
-6.546	33.251	1251.755	1067.471
-5.531	33.199	1250.711	1066.242
-4.517	33.129	1250.324	1065.475
-3.502	33.235	1248.612	1064.574
-2.487	33.040	1248.560	1063.386
-1.473	33.144	1244.158	1060.177
-0.458	31.776	1229.531	1040.084
0.556	28.911	1213.004	1003.812
1.571	25.276	1219.187	988.857
2.586	24.653	1234.701	997.872
3.600	24.154	1224.335	986.645
4.615	17.821	1150.943	894.332
5.629	7.280	1072.691	781.699
6.644	2.445	1051.475	742.754
7.659	1.940	1049.251	738.671
8.673	1.927	1048.102	737.733
9.688	1.929	1046.503	736.555
10.702	2.475	1045.356	738.317
11.717	9.269	1054.994	778.030
12.731	19.476	1069.472	838.483
13.746	24.234	1075.869	866.622
14.761	25.151	1076.332	871.379
15.775	25.236	1075.588	871.111
16.790	25.016	1074.935	869.435
17.804	24.919	1074.615	868.630
18.819	25.277	1073.614	869.476
19.834	25.342	1073.242	869.414
20.848	25.338	1072.625	868.820
21.863	25.183	1072.908	868.223
22.877	25.143	1071.573	866.868
23.892	25.112	1071.081	866.245
24.907	25.298	1070.098	866.271
25.921	25.198	1069.392	865.143
26.936	25.188	1068.021	863.910
27.950	25.204	1066.456	862.642
28.965	24.888	1064.993	859.865
29.980	25.130	1063.592	859.819
30.994	25.187	1062.345	859.007
32.009	25.211	1061.632	858.471
33.023	25.034	1060.498	856.632
34.038	25.105	1059.636	856.199
35.053	25.260	1059.004	856.351
36.067	25.266	1058.148	855.614
37.082	25.409	1057.256	855.495
38.096	25.403	1056.744	854.980
39.111	25.441	1056.609	854.973
40.126	25.415	1054.859	853.358
41.140	24.959	1053.103	849.700
42.155	24.836	1051.688	847.901
43.169	24.940	1050.446	847.314
44.184	24.777	1049.809	845.956
45.199	24.688	1049.147	844.926
46.213	24.818	1048.314	844.797
47.228	25.105	1047.061	845.063
48.242	25.189	1045.955	844.491
49.257	25.262	1045.505	844.398
50.271	25.208	1045.337	843.932
51.286	25.243	1044.447	843.304
52.301	25.186	1043.841	842.474
53.315	25.212	1042.412	841.366
54.330	25.128	1041.701	840.325
55.344	25.180	1040.902	839.848
56.359	25.143	1039.528	838.492
57.374	24.968	1038.710	836.940
58.388	24.903	1038.205	836.156
59.403	24.890	1037.067	835.106
60.417	24.833	1036.376	834.210
61.432	24.826	1035.949	833.762
62.447	24.926	1035.640	833.902
63.461	25.026	1034.415	833.309
64.476	24.870	1033.991	832.166
65.490	24.804	1032.657	830.716
66.505	24.844	1031.859	830.184
67.520	25.043	1031.304	830.587
68.534	24.670	1030.394	828.051
69.549	24.477	1029.387	826.276
70.563	24.405	1028.340	825.030
71.578	24.538	1027.389	824.811
72.593	24.317	1026.890	823.313
73.607	24.475	1025.810	823.106
74.622	24.673	1026.106	824.181
75.636	24.704	1025.297	823.601
76.651	24.454	1024.699	821.899
77.666	24.419	1023.543	820.737
78.680	24.745	1022.434	821.272
79.695	24.716	1022.362	821.010
80.709	24.887	1021.188	820.780
81.724	24.761	1021.004	819.979
82.739	24.943	1020.024	819.952
83.753	25.260	1019.479	820.895
84.768	25.440	1018.751	821.056
85.782	25.547	1017.673	820.606
86.797	25.424	1017.057	819.474
87.812	25.400	1015.679	818.179
88.826	25.506	1014.988	818.036
89.841	25.602	1013.892	817.518
90.855	25.392	1013.018	815.784
91.870	25.487	1012.085	815.395
92.884	25.242	1011.055	813.382
93.899	25.250	1010.133	812.602
94.914	25.605	1009.325	813.488
95.928	25.342	1008.322	811.419
96.943	25.102	1007.161	809.328
97.957	24.917	1005.723	807.269
98.972	24.885	1004.470	806.047
99.987	25.011	1004.015	806.177
101.001	25.133	1003.568	806.293
102.016	25.283	1002.684	806.189
103.030	25.096	1001.936	804.677
104.045	25.032	1000.277	802.986
105.060	24.691	999.685	800.912
106.074	25.012	998.991	801.723
107.089	25.238	998.543	802.303
108.103	25.165	997.455	801.029
109.118	24.752	996.323	798.208
110.133	24.884	995.457	798.033
111.147	24.764	994.008	796.263
112.162	24.679	993.229	795.193
113.176	24.756	992.689	795.030
114.191	24.716	991.846	794.111
115.206	24.506	990.463	792.000
116.220	24.485	989.631	791.172
117.235	24.598	988.951	791.057
118.249	24.599	988.260	790.440
119.264	24.653	987.398	789.920
120.279	24.660	986.437	789.111
121.293	24.766	985.840	789.030
122.308	24.639	984.878	787.633
123.322	24.533	984.063	786.444
124.337	24.495	982.812	785.207
125.352	24.078	980.735	781.649
126.366	23.953	980.092	780.520
127.381	24.642	980.367	783.691
128.395	25.111	979.709	785.152
129.410	25.151	979.337	784.956
130.424	25.166	977.903	783.804
131.439	25.157	977.101	783.053
132.454	25.267	976.313	782.833
133.468	25.115	975.193	781.202
134.483	25.286	974.586	781.391
135.497	25.339	974.293	781.318
136.512	25.448	973.189	780.837
137.527	25.447	972.147	779.927
138.541	25.499	971.271	779.382
139.556	25.383	970.335	778.059
140.570	25.572	969.727	778.322
141.585	25.601	968.819	777.650
142.600	25.495	967.737	776.254
143.614	25.658	967.025	776.316
144.629	25.784	966.298	776.208
145.643	25.646	965.179	774.648
146.658	25.431	964.007	772.713
147.673	25.368	962.567	771.221
148.687	25.276	962.080	770.364
149.702	25.140	960.970	768.827
150.716	25.248	959.910	768.375
151.731	25.394	959.566	768.655
152.746	25.491	958.966	768.522
153.760	25.603	958.394	768.475
154.775	25.709	957.437	768.092
155.789	25.503	956.528	766.413
156.804	25.607	955.897	766.283
157.819	25.599	955.060	765.510
158.833	25.691	954.581	765.452
159.848	25.763	953.356	764.708
160.862	25.457	952.309	762.503
161.877	25.648	950.705	761.960
162.892	25.584	950.352	761.339
163.906	25.496	949.186	759.964
164.921	25.466	948.497	759.220
165.935	25.528	947.382	758.521
166.950	25.477	946.681	757.676
167.964	25.615	945.916	757.579
168.979	25.409	944.605	755.596
169.994	25.418	943.845	754.958
171.008	25.667	943.244	755.455
172.023	25.708	942.290	754.798
173.037	25.452	941.252	752.826
174.052	25.097	940.362	750.561
175.067	25.357	939.946	751.250
176.081	25.304	939.588	750.675
177.096	25.317	938.591	749.870
178.110	25.109	937.360	747.949
179.125	25.035	936.703	747.051
180.140	24.998	936.650	746.792
181.154	25.080	936.222	746.724
182.169	25.393	936.362	748.073
183.183	25.556	935.744	748.191
184.198	25.434	935.063	747.075
185.213	25.524	933.599	746.211
186.227	25.571	933.530	746.286
187.242	25.560	932.691	745.501
188.256	25.514	932.269	744.911
189.271	25.648	931.542	744.818
190.286	25.320	930.131	742.266
191.300	24.660	928.659	738.301
192.315	23.853	927.153	733.710
193.329	24.023	926.580	733.894
194.344	24.711	927.538	737.425
195.359	25.272	927.488	739.631
196.373	25.592	926.488	740.086
197.388	25.387	926.196	738.946
198.402	25.465	925.552	738.688
199.417	25.551	924.672	738.271
200.432	25.132	924.246	736.145
201.446	25.148	923.216	735.326
202.461	25.118	922.421	734.505
203.475	24.171	920.995	729.428
204.490	23.478	919.710	725.512
205.504	24.313	919.890	729.004
206.519	25.111	919.678	732.035
207.534	25.037	919.552	731.564
208.548	25.481	919.290	733.106
209.563	25.325	917.814	731.228
210.577	25.291	917.512	730.782
211.592	25.617	917.253	731.841
212.607	25.629	916.326	731.085
213.621	25.565	916.243	730.695
214.636	25.716	914.879	730.152
215.650	25.586	914.178	729.003
216.665	25.704	914.038	729.304
217.680	25.557	913.078	727.878
218.694	25.354	911.388	725.647
219.709	25.216	910.850	724.598
220.723	25.244	910.794	724.601
221.738	25.439	910.085	724.761
222.753	25.289	909.791	723.856
223.767	25.515	909.071	724.129
224.782	25.729	909.002	724.874
225.796	25.748	908.213	724.255
226.811	25.081	906.604	720.230
227.826	24.446	905.495	716.737
228.840	24.576	905.342	717.074
229.855	24.788	904.138	716.905
230.869	24.326	903.608	714.571
231.884	24.819	903.293	716.233
232.899	25.516	903.466	719.095
233.913	25.376	902.862	717.990
234.928	25.388	902.152	717.411
235.942	25.303	901.549	716.529
236.957	25.048	900.244	714.411
237.972	25.216	899.785	714.656
238.986	24.965	899.904	713.684
240.001	25.096	899.241	713.616
241.015	25.152	898.704	713.351
242.030	25.452	897.911	713.849
243.045	25.555	897.384	713.777
244.059	25.662	896.702	713.597
245.074	25.289	896.563	711.943
246.088	25.122	895.101	710.058
247.103	25.401	894.693	710.774
248.117	25.911	895.117	713.070
249.132	26.086	894.667	713.339
250.147	26.182	894.250	713.321
251.161	26.291	893.926	713.430
252.176	26.366	892.822	712.783
253.190	26.477	892.589	712.972
254.205	26.636	892.041	713.095
255.220	26.399	891.451	711.628
256.234	26.359	890.286	710.480
257.249	26.344	889.807	709.975
258.263	26.240	889.459	709.224
259.278	26.225	888.570	708.394
260.293	26.295	888.482	708.536
261.307	26.201	887.607	707.409
262.322	26.194	886.292	706.270
263.336	25.306	884.642	701.426
264.351	24.353	882.802	696.185
265.366	24.434	882.536	696.231
266.380	25.576	883.110	701.076
267.395	25.867	882.815	701.912
268.409	25.902	882.177	701.482
269.424	26.224	881.294	701.968
270.439	26.257	880.912	701.732
271.453	26.112	880.680	700.920
272.468	26.318	880.312	701.365
273.482	26.381	879.540	700.933
274.497	26.113	878.379	698.907
275.512	25.680	877.666	696.603
276.526	26.081	877.721	698.137
277.541	26.223	877.417	698.384
278.555	25.949	876.660	696.660
279.570	25.831	875.829	695.480
280.585	25.965	875.211	695.446
281.599	26.192	874.022	695.315
282.614	25.469	872.766	691.471
283.628	25.474	872.434	691.166
284.643	25.691	872.174	691.733
285.657	25.411	870.722	689.446
286.672	24.970	870.674	687.654
287.687	25.714	870.220	690.089
288.701	25.753	869.677	689.746
289.716	25.410	868.838	687.708
290.730	25.313	868.260	686.818
291.745	25.044	867.377	685.033
292.760	25.453	867.223	686.412
293.774	26.321	867.843	690.157
294.789	26.631	867.605	691.089
295.803	26.869	866.594	691.129
296.818	26.816	866.053	690.437
297.833	26.249	865.211	687.545
298.847	26.186	864.277	686.503
299.862	26.484	864.298	687.594
300.876	26.759	863.715	688.111
301.891	26.688	863.068	687.265
302.906	26.252	862.095	684.778
303.920	26.353	861.941	684.980
304.935	26.871	861.576	686.591
305.949	26.748	860.914	685.536
306.964	26.342	860.201	683.373
307.979	26.369	859.774	683.075
308.993	26.744	859.581	684.277
310.008	26.894	858.912	684.252
311.022	26.650	857.931	682.487
312.037	26.550	857.127	681.413
313.052	26.174	856.636	679.545
314.066	25.275	854.802	674.656
315.081	25.099	853.955	673.265
316.095	25.796	854.740	676.443
317.110	26.414	854.380	678.419
318.125	25.524	852.948	673.884
319.139	24.487	851.095	668.483
320.154	24.469	851.065	668.332
321.168	25.319	851.852	672.073
322.183	25.978	851.757	674.406
323.197	26.203	851.426	674.925
324.212	26.454	850.791	675.301
325.227	26.281	850.477	674.344
326.241	26.357	849.824	674.050
327.256	26.081	849.305	672.549
328.270	26.095	848.460	671.875
329.285	25.976	847.420	670.547
330.300	25.856	846.451	669.276
331.314	25.958	846.596	669.711
332.329	26.386	846.655	671.286
333.343	26.562	846.005	671.368
334.358	26.536	845.613	670.898
335.373	26.588	845.195	670.700
336.387	26.817	845.298	671.573
337.402	26.987	844.901	671.824
338.416	26.860	844.844	671.250
339.431	27.046	844.177	671.347
340.446	27.206	844.032	671.766
341.460	27.025	843.403	670.537
342.475	26.799	842.991	669.315
343.489	27.037	842.496	669.741
344.504	27.229	842.144	670.111
345.519	27.469	841.798	670.661
346.533	27.582	841.262	670.587
347.548	27.400	840.680	669.398
348.562	27.276	840.366	668.631
349.577	27.242	839.617	667.853
350.592	27.299	838.975	667.492
351.606	27.178	838.501	666.611
352.621	27.111	837.558	665.556
353.635	27.015	836.986	664.692
354.650	26.313	835.385	660.796
355.665	25.439	833.765	656.264
356.679	25.882	833.777	657.834
357.694	26.332	833.063	658.853
358.708	26.231	832.584	658.048
359.723	26.710	832.381	659.575
360.738	27.023	832.191	660.503
361.752	27.056	831.720	660.191
362.767	27.503	831.186	661.335
363.781	27.655	830.899	661.598
364.796	27.758	830.605	661.678
365.810	27.829	830.259	661.600
366.825	27.650	830.179	660.831
367.840	27.491	829.004	659.260
368.854	27.011	828.194	656.824
369.869	27.049	827.859	656.634
370.883	27.040	827.420	656.197
371.898	26.891	827.235	655.455
372.913	27.248	826.710	656.268
373.927	27.189	825.808	655.280
374.942	27.281	826.279	655.928
375.956	27.443	825.399	655.757
376.971	27.548	824.936	655.709
377.986	27.829	824.736	656.501
379.000	27.645	824.053	655.238
380.015	27.385	823.932	654.150
381.029	27.510	823.118	653.896
382.044	27.709	822.536	654.088
383.059	27.802	822.151	654.057
384.073	27.679	821.496	653.040
385.088	27.691	820.841	652.504
386.102	27.399	819.952	650.696
387.117	27.425	819.402	650.295
388.132	27.083	818.068	647.957
389.146	26.483	817.238	645.106
390.161	26.997	817.269	646.904
391.175	27.328	817.095	647.886
392.190	27.109	816.101	646.264
393.205	25.737	814.140	639.781
394.219	24.163	812.080	632.524
395.234	24.300	812.046	632.926
396.248	25.802	813.651	639.459
397.263	27.327	814.256	645.290
398.278	27.240	813.730	644.509
399.292	27.014	813.131	643.178
400.307	26.903	813.049	642.662
401.321	27.116	812.296	642.762
402.336	27.598	812.304	644.415
403.350	27.723	812.244	644.754
404.365	28.162	812.035	646.083
405.380	28.601	811.445	647.104
406.394	28.468	811.234	646.408
407.409	28.383	810.625	645.568
408.423	28.297	810.475	645.086
409.438	28.376	810.207	645.097
410.453	28.396	809.758	644.750
411.467	28.383	808.671	643.784
412.482	28.306	808.580	643.382
413.496	28.347	808.350	643.287
414.511	28.363	808.023	643.026
415.526	28.360	807.552	642.582
416.540	28.264	806.516	641.366
417.555	28.124	805.631	640.115
418.569	28.221	805.485	640.283
419.584	27.967	805.213	639.123
420.599	27.830	804.608	638.108
421.613	110.921	1283.996	1454.580
422.628	95.842	1353.817	1454.674
