DTS Sentinel unit serial number:	SN413079Multiplexer serial number:	ORYXHardware model number:	OX4-SRSoftware version number:	ORYX F/W v4.00 Oryx Data Collector v3.7.2.0data status	okinstallation	princeton_trtdifferential loss correction	single-endedforward channel	channel 1reverse channel	N/Adate	2019/09/12time	13:20:11forward acquisition time	60.00reverse acquisition time	0.00gamma	496.2192k internal	0.2291k external	0.2291temperature offset calibration	1.0047default loss term (dB/km)	0.3790temperature slope calibration	1.0000multiplexer offset coefficient	1.0000multiplexer slope coefficient	1.0000fibre end	0.00T internal ref (°C)	41.02T ext. ref 1 (°C)	2.13T ext. ref 2 (°C)	37.31length (m)	temperature (°C)	Stokes	anti-Stokes-747.200	121.660	0.054	-0.069
-746.185	138.101	-0.255	0.343
-745.171	583.743	-0.076	0.191
-744.156	275.298	-0.141	0.255
-743.142	-133.483	0.328	0.042
-742.127	152.376	0.163	-0.227
-741.112	178.030	-0.198	-0.296
-740.098	331.276	-0.063	0.124
-739.083	50.386	-0.083	0.081
-738.069	-200.000	-0.005	-0.184
-737.054	-49.641	0.196	0.096
-736.039	-200.000	0.006	0.342
-735.025	197.515	0.095	0.148
-734.010	49.548	-0.334	-0.322
-732.996	187.887	-0.197	-0.300
-731.981	-200.000	-0.002	-0.068
-730.966	59.308	0.054	0.054
-729.952	73.455	0.098	-0.105
-728.937	-129.644	-0.320	-0.045
-727.923	-34.845	-0.224	-0.125
-726.908	-34.794	0.303	-0.170
-725.894	-95.054	-0.264	-0.073
-724.879	-109.891	-0.477	-0.102
-723.864	-168.537	0.163	-0.006
-722.850	593.804	-0.103	-0.261
-721.835	-200.000	-0.005	0.311
-720.821	199.212	0.117	-0.183
-719.806	800.000	0.039	-0.124
-718.791	-200.000	-0.024	-0.268
-717.777	-200.000	-0.101	-0.496
-716.762	-36.353	0.174	-0.096
-715.748	-24.770	-0.366	0.223
-714.733	447.487	0.010	-0.022
-713.718	159.415	0.108	0.154
-712.704	-3.166	-0.252	-0.180
-711.689	-109.778	-0.396	-0.085
-710.675	503.502	-0.149	-0.353
-709.660	-119.791	-0.230	-0.040
-708.645	-51.483	0.108	-0.052
-707.631	-129.267	-0.176	0.025
-706.616	800.000	-0.036	0.142
-705.602	-200.000	0.017	0.241
-704.587	-7.922	-0.171	-0.118
-703.572	99.858	0.162	-0.192
-702.558	-84.438	-0.303	-0.098
-701.543	21.088	-0.070	0.058
-700.529	-29.433	0.380	-0.222
-699.514	86.740	-0.114	0.128
-698.499	-200.000	0.021	0.133
-697.485	-168.179	0.150	0.006
-696.470	-93.445	-0.137	0.039
-695.456	-126.331	-0.258	0.039
-694.441	3.678	0.184	0.137
-693.426	-36.075	0.224	-0.124
-692.412	-54.104	-0.201	-0.093
-691.397	800.000	0.062	0.258
-690.383	-200.000	0.051	-0.437
-689.368	-200.000	0.003	-0.020
-688.354	800.000	0.044	-0.188
-687.339	-200.000	-0.033	-0.347
-686.324	800.000	0.137	-0.396
-685.310	-151.218	-0.390	0.030
-684.295	478.729	-0.194	-0.448
-683.281	-200.000	-0.031	-0.285
-682.266	-56.116	0.201	-0.092
-681.251	-200.000	-0.014	-0.145
-680.237	-200.000	0.026	0.122
-679.222	-186.390	-0.344	0.005
-678.208	-11.000	-0.158	-0.106
-677.193	-200.000	0.001	-0.019
-676.178	-8.249	-0.149	-0.103
-675.164	-200.000	-0.048	-0.235
-674.149	328.039	-0.118	-0.231
-673.135	113.980	0.271	-0.336
-672.120	39.678	-0.128	-0.117
-671.105	796.962	0.128	-0.359
-670.091	-103.189	0.322	-0.078
-669.076	168.776	0.321	0.467
-668.062	12.575	0.122	-0.096
-667.047	-111.160	0.192	0.040
-666.032	800.000	-0.037	0.162
-665.018	-77.497	-0.253	0.090
-664.003	-33.629	-0.286	0.161
-662.989	-111.803	0.190	0.039
-661.974	526.745	-0.028	-0.067
-660.959	121.153	-0.162	0.206
-659.945	-200.000	-0.029	0.207
-658.930	-200.000	-0.004	0.314
-657.916	800.000	-0.008	0.026
-656.901	-12.555	0.170	0.113
-655.886	216.568	0.079	-0.129
-654.872	324.850	0.129	-0.252
-653.857	-78.172	-0.293	0.103
-652.843	281.776	-0.025	-0.046
-651.828	-200.000	-0.033	-0.309
-650.814	-200.000	0.226	-0.000
-649.799	79.897	0.130	0.142
-648.784	75.416	-0.155	-0.167
-647.770	102.335	-0.169	-0.201
-646.755	-142.263	-0.244	0.025
-645.741	-3.099	0.147	-0.105
-644.726	800.000	-0.070	-0.246
-643.711	252.937	0.190	-0.330
-642.697	391.740	-0.046	-0.097
-641.682	-200.000	0.171	-0.000
-640.668	1.887	-0.208	-0.153
-639.653	-39.803	-0.293	-0.156
-638.638	-0.294	0.085	-0.062
-637.624	-68.401	-0.435	0.172
-636.609	-200.000	-0.004	0.326
-635.595	-159.691	-0.181	0.010
-634.580	22.088	0.156	0.130
-633.565	-107.372	0.037	-0.008
-632.551	-77.573	0.358	0.127
-631.536	131.627	-0.061	-0.080
-630.522	-69.564	0.298	0.116
-629.507	325.585	-0.062	-0.120
-628.492	10.814	-0.146	-0.114
-627.478	-200.000	-0.002	0.115
-626.463	15.794	0.218	0.175
-625.449	82.308	0.048	0.053
-624.434	38.371	0.232	0.210
-623.419	-183.275	-0.264	0.005
-622.405	800.000	-0.097	-0.347
-621.390	509.101	0.026	0.061
-620.376	331.386	0.045	0.088
-619.361	-103.766	-0.085	-0.020
-618.346	30.397	0.223	-0.194
-617.332	40.355	-0.225	0.206
-616.317	476.613	-0.087	0.201
-615.303	-151.172	-0.276	0.021
-614.288	-200.000	-0.077	-0.394
-613.273	-109.547	-0.143	0.031
-612.259	63.697	-0.090	-0.092
-611.244	-200.000	-0.027	0.163
-610.230	-36.705	-0.132	-0.072
-609.215	-71.664	-0.223	-0.085
-608.201	20.313	-0.239	-0.197
-607.186	-18.968	-0.148	-0.094
-606.171	-55.622	-0.126	-0.058
-605.157	328.582	0.137	-0.268
-604.142	-179.379	-0.185	0.004
-603.128	-94.157	0.192	-0.054
-602.113	71.298	-0.221	0.234
-601.098	-15.031	-0.169	0.110
-600.084	166.501	0.183	0.263
-599.069	-28.594	0.120	-0.070
-598.055	-74.909	0.216	0.079
-597.040	-30.682	0.096	-0.055
-596.025	800.000	-0.049	0.208
-595.011	479.334	-0.053	-0.122
-593.996	-105.107	0.140	-0.032
-592.982	800.000	0.020	-0.076
-591.967	800.000	-0.070	0.229
-590.952	782.773	0.091	0.253
-589.938	-120.956	0.167	-0.029
-588.923	15.622	0.076	0.061
-587.909	800.000	-0.081	-0.257
-586.894	-200.000	-0.023	0.110
-585.879	-81.572	0.240	0.080
-584.865	167.244	-0.229	0.331
-583.850	651.554	-0.050	-0.131
-582.836	142.620	0.046	0.062
-581.821	230.820	0.121	-0.202
-580.806	51.142	0.245	-0.237
-579.792	-200.000	0.029	-0.215
-578.777	86.075	-0.024	0.027
-577.763	-161.081	-0.284	0.015
-576.748	-200.000	0.031	0.202
-575.733	-69.027	-0.074	0.029
-574.719	15.352	-0.179	0.143
-573.704	287.174	-0.157	0.288
-572.690	-174.024	-0.188	0.006
-571.675	355.716	0.143	-0.289
-570.661	-70.782	0.176	0.068
-569.646	220.030	-0.146	0.239
-568.631	31.079	0.259	-0.226
-567.617	-200.000	-0.054	0.327
-566.602	800.000	-0.061	0.271
-565.588	-76.310	-0.301	-0.108
-564.573	-48.262	0.195	0.096
-563.558	-23.475	0.212	0.129
-562.544	-99.998	0.363	0.092
-561.529	50.140	0.217	-0.208
-560.515	147.517	-0.281	-0.385
-559.500	-115.644	-0.174	-0.033
-558.485	-72.724	0.050	0.019
-557.471	6.330	0.123	0.092
-556.456	110.875	-0.134	0.164
-555.442	341.297	-0.034	0.067
-554.427	380.083	0.047	-0.098
-553.412	-77.670	0.216	-0.076
-552.398	61.621	-0.213	-0.215
-551.383	-200.000	-0.036	0.359
-550.369	-179.372	-0.226	-0.005
-549.354	-121.650	0.152	-0.026
-548.339	-140.713	0.245	-0.026
-547.325	-113.181	-0.207	0.041
-546.310	645.237	-0.077	0.199
-545.296	800.000	-0.124	-0.368
-544.281	-200.000	0.064	-0.318
-543.266	186.881	-0.092	0.139
-542.252	731.204	0.130	0.354
-541.237	25.281	0.275	-0.232
-540.223	-197.206	0.211	-0.001
-539.208	527.461	-0.099	-0.237
-538.193	4.147	-0.036	-0.027
-537.179	165.474	0.064	-0.092
-536.164	-131.382	0.156	-0.021
-535.150	-129.251	-0.153	0.022
-534.135	115.567	-0.201	0.249
-533.121	789.611	0.070	-0.196
-532.106	-5.423	-0.202	0.141
-531.091	-119.610	0.215	-0.038
-530.077	67.153	-0.363	0.376
-529.062	340.528	-0.164	-0.325
-528.048	-200.000	-0.002	-0.091
-527.033	-79.496	0.256	0.088
-526.018	800.000	-0.097	-0.322
-525.004	111.673	-0.099	-0.121
-523.989	-200.000	0.009	0.478
-522.975	-200.000	-0.027	0.236
-521.960	800.000	-0.038	0.111
-520.945	-118.393	0.067	0.012
-519.931	41.202	-0.110	0.101
-518.916	81.503	-0.186	0.204
-517.902	-200.000	0.024	0.242
-516.887	-200.000	0.005	0.113
-515.872	800.000	-0.036	-0.109
-514.858	374.023	-0.084	-0.173
-513.843	-144.154	-0.263	-0.025
-512.829	292.888	0.073	0.135
-511.814	93.372	0.181	-0.207
-510.799	57.994	-0.181	0.179
-509.785	533.111	-0.065	0.156
-508.770	54.132	-0.246	0.240
-507.756	226.722	0.119	-0.196
-506.741	-85.000	-0.204	-0.065
-505.726	137.344	0.063	-0.083
-504.712	-200.000	-0.033	0.606
-503.697	515.533	0.195	0.462
-502.683	-110.384	-0.036	0.008
-501.668	800.000	-0.072	-0.250
-500.653	-200.000	0.002	-0.014
-499.639	409.281	0.117	-0.251
-498.624	1.180	0.141	0.102
-497.610	19.171	-0.034	-0.028
-496.595	-105.471	0.122	0.028
-495.581	387.756	0.101	0.212
-494.566	-75.815	-0.108	0.039
-493.551	800.000	-0.028	-0.100
-492.537	155.489	-0.077	-0.108
-491.522	47.864	-0.259	-0.245
-490.508	800.000	-0.062	-0.233
-489.493	76.684	0.073	0.078
-488.478	617.119	0.066	0.167
-487.464	-83.923	-0.072	0.023
-486.449	-128.777	-0.158	-0.023
-485.435	-64.704	-0.143	0.059
-484.420	-28.566	0.322	-0.188
-483.405	-187.128	-0.169	0.002
-482.391	-43.162	0.285	-0.146
-481.376	139.594	-0.013	0.017
-480.362	-152.226	0.301	-0.022
-479.347	-66.452	0.229	0.092
-478.332	32.324	-0.191	-0.167
-477.318	381.049	0.107	-0.223
-476.303	-85.037	0.221	-0.070
-475.289	204.038	0.171	-0.268
-474.274	391.593	0.186	0.390
-473.259	-200.000	0.023	0.550
-472.245	-41.481	-0.084	0.044
-471.230	96.692	0.273	-0.316
-470.216	158.119	0.092	-0.129
-469.201	-200.000	0.042	-0.459
-468.186	800.000	0.073	-0.264
-467.172	141.058	-0.170	-0.227
-466.157	-50.356	0.323	0.155
-465.143	173.199	0.176	-0.257
-464.128	-187.212	-0.236	-0.003
-463.113	800.000	-0.075	0.248
-462.099	591.655	0.057	0.143
-461.084	-152.525	-0.149	0.011
-460.070	-70.701	0.408	-0.156
-459.055	168.188	0.079	-0.114
-458.040	-200.000	0.009	0.109
-457.026	96.157	-0.109	-0.126
-456.011	203.088	0.123	-0.192
-454.997	-200.000	-0.008	0.051
-453.982	-119.185	0.149	0.026
-452.968	-163.255	0.143	0.007
-451.953	-200.000	0.030	-0.386
-450.938	69.364	0.010	0.011
-449.924	-92.296	-0.339	0.097
-448.909	-103.550	-0.090	0.021
-447.895	800.000	0.011	0.035
-446.880	-93.519	0.034	0.009
-445.865	86.729	0.051	0.057
-444.851	-81.123	0.182	-0.061
-443.836	509.519	-0.153	-0.359
-442.822	-99.931	0.251	0.063
-441.807	551.143	-0.066	-0.160
-440.792	-179.485	0.226	0.005
-439.778	215.646	0.148	-0.238
-438.763	-83.455	0.173	0.056
-437.749	-18.090	-0.082	0.052
-436.734	-200.000	0.002	0.015
-435.719	-105.340	-0.166	0.038
-434.705	-104.018	0.381	0.090
-433.690	-50.723	0.099	0.047
-432.676	800.000	0.034	-0.108
-431.661	49.658	-0.116	0.111
-430.646	246.431	-0.030	0.051
-429.632	258.094	0.111	-0.192
-428.617	258.687	-0.208	-0.363
-427.603	39.070	-0.022	0.020
-426.588	-78.204	0.187	-0.065
-425.573	87.762	-0.043	0.048
-424.559	250.419	-0.224	-0.385
-423.544	-11.752	0.178	0.118
-422.530	-200.000	0.017	-0.528
-421.515	-69.485	0.241	-0.093
-420.500	436.388	-0.129	0.284
-419.486	120.762	0.125	0.157
-418.471	-84.744	-0.261	0.083
-417.457	465.627	-0.115	0.261
-416.442	-73.021	0.129	-0.048
-415.428	-136.019	0.137	-0.016
-414.413	156.474	-0.187	0.261
-413.398	93.922	0.064	0.074
-412.384	-86.280	-0.209	0.065
-411.369	-200.000	0.056	0.263
-410.355	-134.177	-0.294	0.037
-409.340	473.300	0.072	0.163
-408.325	800.000	0.042	-0.147
-407.311	80.054	-0.295	-0.321
-406.296	-85.418	0.116	-0.037
-405.282	457.308	0.103	-0.231
-404.267	-129.281	-0.455	0.064
-403.252	362.924	0.161	0.326
-402.238	800.000	0.038	-0.106
-401.223	-53.329	-0.255	0.118
-400.209	68.558	0.276	0.286
-399.194	318.443	0.117	0.224
-398.179	453.178	-0.052	0.117
-397.165	-200.000	-0.010	0.111
-396.150	75.319	0.073	-0.078
-395.136	85.147	0.119	-0.131
-394.121	-133.519	0.440	0.056
-393.106	-55.632	-0.350	-0.158
-392.092	203.481	-0.119	0.185
-391.077	123.811	0.130	0.165
-390.063	-100.842	-0.146	-0.036
-389.048	-105.160	-0.179	-0.041
-388.033	118.154	-0.063	0.078
-387.019	-28.547	0.266	0.155
-386.004	-200.000	-0.028	0.171
-384.990	-153.849	0.249	-0.017
-383.975	-80.689	0.136	-0.046
-382.960	800.000	-0.119	0.468
-381.946	-56.558	0.132	-0.059
-380.931	-26.552	0.124	0.073
-379.917	510.333	-0.126	-0.297
-378.902	800.000	-0.099	-0.412
-377.888	-42.258	-0.203	0.105
-376.873	217.752	0.247	-0.398
-375.858	-99.676	0.219	0.055
-374.844	-48.036	-0.287	-0.140
-373.829	-142.202	-0.082	-0.008
-372.815	162.384	-0.175	-0.247
-371.800	-23.014	0.092	0.056
-370.785	547.402	-0.094	0.226
-369.771	-136.401	-0.393	0.046
-368.756	221.804	-0.119	-0.194
-367.742	800.000	0.040	0.146
-366.727	800.000	0.060	-0.227
-365.712	-72.167	0.159	-0.060
-364.698	-53.435	0.312	-0.144
-363.683	-26.797	0.241	-0.142
-362.669	800.000	0.011	0.044
-361.654	34.215	0.103	-0.091
-360.639	-200.000	0.039	-0.234
-359.625	-200.000	-0.015	0.189
-358.610	-83.354	-0.226	0.073
-357.596	30.741	0.087	0.075
-356.581	800.000	0.053	0.180
-355.566	-200.000	-0.029	-0.261
-354.552	132.557	-0.052	-0.067
-353.537	414.638	-0.067	0.144
-352.523	-156.485	0.168	0.011
-351.508	161.453	-0.080	0.113
-350.493	-24.300	-0.080	0.048
-349.479	4.460	0.180	0.133
-348.464	-91.630	0.050	-0.014
-347.450	489.977	-0.084	-0.194
-346.435	-57.990	-0.152	-0.067
-345.420	-31.057	0.224	-0.127
-344.406	481.154	0.073	0.168
-343.391	266.725	-0.076	-0.134
-342.377	48.598	-0.164	-0.155
-341.362	-91.118	-0.103	0.030
-340.348	-0.955	0.131	0.093
-339.333	-153.831	-0.325	-0.022
-338.318	-47.259	-0.139	-0.068
-337.304	18.650	-0.037	-0.030
-336.289	-200.000	-0.019	-0.135
-335.275	-150.876	-0.119	-0.009
-334.260	-200.000	0.036	-0.176
-333.245	800.000	-0.054	0.184
-332.231	-125.422	-0.247	0.038
-331.216	-31.274	0.321	-0.182
-330.202	-200.000	0.041	-0.283
-329.187	-200.000	0.013	-0.089
-328.172	-97.304	0.066	0.017
-327.158	384.528	0.170	-0.353
-326.143	-72.948	0.328	-0.122
-325.129	206.308	-0.050	0.078
-324.114	-107.152	0.204	-0.045
-323.099	-135.356	-0.225	0.027
-322.085	-159.120	0.339	0.019
-321.070	91.194	-0.184	-0.207
-320.056	-104.900	-0.033	0.008
-319.041	-173.937	0.304	0.009
-318.026	235.543	-0.113	-0.188
-317.012	184.030	0.084	0.125
-315.997	-200.000	-0.028	-0.268
-314.983	24.716	-0.150	-0.125
-313.968	85.649	-0.163	-0.180
-312.953	-27.409	-0.142	0.083
-311.939	341.427	0.130	-0.256
-310.924	-32.967	-0.069	-0.038
-309.910	-133.456	-0.219	-0.028
-308.895	272.680	-0.141	0.251
-307.880	343.284	-0.096	0.188
-306.866	394.841	-0.140	0.294
-305.851	144.599	-0.207	-0.278
-304.837	-200.000	-0.001	0.231
-303.822	-38.646	0.168	0.089
-302.807	-200.000	0.022	-0.224
-301.793	-2.807	0.219	-0.154
-300.778	-200.000	0.023	-0.111
-299.764	-80.610	0.181	-0.061
-298.749	800.000	0.048	0.207
-297.735	-39.968	-0.467	0.245
-296.720	-151.996	0.277	0.020
-295.705	-174.002	-0.291	0.009
-294.691	800.000	0.027	0.079
-293.676	-200.000	-0.000	-0.197
-292.662	-14.280	0.135	0.088
-291.647	73.061	-0.234	0.246
-290.632	-200.000	0.006	0.182
-289.618	206.070	0.036	0.056
-288.603	-138.209	0.180	-0.020
-287.589	-82.871	0.183	0.059
-286.574	35.923	-0.257	-0.228
-285.559	-115.725	-0.113	-0.021
-284.545	-153.019	-0.287	0.020
-283.530	13.937	-0.414	0.324
-282.516	-200.000	0.017	-0.217
-281.501	-8.165	-0.186	-0.126
-280.486	78.225	-0.073	-0.079
-279.472	61.952	-0.139	-0.140
-278.457	-28.533	0.171	0.099
-277.443	-114.305	-0.338	-0.065
-276.428	-77.565	0.147	-0.051
-275.413	-32.614	0.286	0.160
-274.399	76.865	0.259	0.276
-273.384	-200.000	-0.005	0.098
-272.370	-125.760	0.388	-0.059
-271.355	212.748	0.117	-0.185
-270.340	295.354	-0.104	-0.192
-269.326	16.751	-0.238	0.189
-268.311	-86.315	0.114	-0.035
-267.297	272.121	-0.062	0.110
-266.282	97.412	-0.119	-0.137
-265.267	800.000	-0.091	0.262
-264.253	-85.732	-0.205	0.064
-263.238	12.593	0.087	0.068
-262.224	87.730	-0.233	0.260
-261.209	-67.510	0.198	-0.078
-260.195	-200.000	0.045	-0.252
-259.180	-9.846	0.239	-0.159
-258.165	625.384	0.125	-0.316
-257.151	12.825	0.304	-0.236
-256.136	-36.543	-0.162	-0.088
-255.122	-76.213	0.173	0.061
-254.107	-200.000	0.048	-0.300
-253.092	-11.978	0.127	0.083
-252.078	25.280	-0.091	-0.076
-251.063	86.624	-0.319	-0.353
-250.049	-99.065	0.297	0.076
-249.034	102.984	-0.184	0.217
-248.019	-200.000	-0.032	-0.343
-247.005	-139.836	0.395	-0.042
-245.990	800.000	0.040	0.129
-244.976	-55.301	0.184	0.083
-243.961	-200.000	-0.037	0.179
-242.946	22.961	-0.265	0.218
-241.932	-200.000	-0.037	-0.242
-240.917	800.000	-0.119	-0.341
-239.903	-112.097	0.249	0.050
-238.888	50.992	-0.156	0.149
-237.873	100.870	0.333	0.389
-236.859	35.307	-0.212	0.186
-235.844	800.000	0.031	0.137
-234.830	-87.103	0.267	-0.082
-233.815	-146.631	0.172	0.015
-232.800	57.046	0.136	0.133
-231.786	-101.376	0.345	0.084
-230.771	51.917	0.285	0.273
-229.757	-38.688	0.265	0.140
-228.742	-120.063	0.150	-0.026
-227.727	546.747	-0.077	-0.185
-226.713	-1.844	-0.206	-0.146
-225.698	-126.475	-0.072	0.011
-224.684	-70.598	-0.412	-0.156
-223.669	16.467	-0.229	-0.182
-222.655	20.396	0.212	-0.172
-221.640	188.027	0.116	0.174
-220.625	-103.186	0.222	-0.053
-219.611	-90.649	-0.247	0.072
-218.596	128.017	0.218	0.278
-217.582	-171.035	0.295	0.010
-216.567	800.000	0.173	-0.490
-215.552	81.371	-0.182	-0.198
-214.538	800.000	-0.080	0.237
-213.523	17.083	-0.198	0.158
-212.509	-162.977	-0.223	-0.011
-211.494	-200.000	0.005	0.092
-210.479	206.347	-0.139	-0.216
-209.465	46.563	0.189	-0.176
-208.450	-200.000	0.015	0.208
-207.436	429.234	-0.141	-0.306
-206.421	582.841	0.045	0.111
-205.406	-176.579	-0.200	0.005
-204.392	78.329	-0.139	0.149
-203.377	-54.574	-0.317	0.144
-202.363	800.000	-0.009	0.026
-201.348	175.892	0.048	0.069
-200.333	800.000	0.032	0.091
-199.319	506.932	0.057	-0.132
-198.304	-200.000	0.010	0.366
-197.290	-200.000	-0.008	0.227
-196.275	-16.619	-0.236	0.150
-195.260	-149.483	-0.108	0.009
-194.246	34.646	0.242	0.212
-193.231	667.749	0.128	0.332
-192.217	724.442	-0.051	0.137
-191.202	-16.421	0.255	0.162
-190.187	184.861	0.101	0.150
-189.173	607.477	-0.088	0.221
-188.158	449.722	0.073	-0.162
-187.144	154.514	-0.235	-0.323
-186.129	-56.207	-0.378	0.169
-185.114	-114.201	0.172	-0.033
-184.100	-200.000	-0.023	0.127
-183.085	-200.000	-0.028	-0.137
-182.071	107.705	-0.075	-0.089
-181.056	-74.680	-0.243	-0.087
-180.042	-61.422	-0.215	0.090
-179.027	-28.424	0.196	-0.113
-178.012	-22.017	-0.436	0.265
-176.998	296.758	-0.213	0.391
-175.983	-1.861	-0.261	0.184
-174.969	-140.264	0.307	-0.032
-173.954	169.194	0.127	0.181
-172.939	103.329	-0.147	0.173
-171.925	-200.000	0.015	-0.136
-170.910	214.552	-0.165	-0.262
-169.896	-152.657	-0.162	0.012
-168.881	-200.000	-0.013	0.401
-167.866	-200.000	0.014	0.302
-166.852	-129.023	0.350	-0.049
-165.837	598.197	-0.011	-0.027
-164.823	-200.000	-0.032	-0.305
-163.808	-32.770	-0.089	-0.050
-162.793	53.946	-0.048	0.046
-161.779	-58.867	0.023	0.010
-160.764	284.950	0.184	0.331
-159.750	-37.708	0.210	-0.112
-158.735	-46.485	0.163	-0.080
-157.720	-105.741	0.237	-0.054
-156.706	-94.430	-0.125	0.034
-155.691	-91.620	0.102	-0.029
-154.677	-200.000	0.011	0.072
-153.662	800.000	0.028	0.089
-152.647	-19.360	0.137	0.085
-151.633	504.989	0.098	-0.226
-150.618	61.053	0.101	-0.100
-149.604	-31.314	0.303	0.171
-148.589	-115.057	-0.183	-0.035
-147.574	800.000	-0.071	-0.302
-146.560	800.000	0.039	0.130
-145.545	-148.306	0.141	0.012
-144.531	-23.342	-0.308	0.185
-143.516	157.295	-0.147	0.204
-142.502	191.951	0.096	0.144
-141.487	-92.634	0.283	-0.079
-140.472	609.852	0.036	0.089
-139.458	800.000	0.043	0.121
-138.443	-200.000	-0.053	0.462
-137.429	92.301	0.148	0.166
-136.414	87.711	-0.123	0.136
-135.399	-5.546	-0.059	-0.040
-134.385	299.222	0.164	-0.301
-133.370	-159.309	-0.405	-0.023
-132.356	17.866	0.080	0.064
-131.341	-200.000	0.100	-0.450
-130.326	9.630	-0.191	0.145
-129.312	-59.065	0.228	-0.098
-128.297	665.810	0.140	0.362
-127.283	132.270	0.078	0.101
-126.268	-112.366	0.154	-0.031
-125.253	742.227	0.131	0.352
-124.239	3.767	0.338	0.246
-123.224	-47.696	-0.141	0.068
-122.210	-114.111	-0.097	0.019
-121.195	175.142	0.258	0.374
-120.180	-165.976	0.159	0.007
-119.166	683.266	0.052	0.135
-118.151	-80.670	0.121	-0.040
-117.137	-35.600	0.414	0.224
-116.122	178.125	-0.116	0.170
-115.107	247.170	-0.091	-0.153
-114.093	800.000	0.061	0.185
-113.078	194.399	0.158	0.239
-112.064	-118.256	0.275	-0.049
-111.049	-200.000	-0.001	0.140
-110.034	800.000	0.031	0.109
-109.020	-185.393	-0.320	0.005
-108.005	-69.115	0.331	0.127
-106.991	-18.090	-0.125	-0.078
-105.976	-200.000	-0.071	-0.336
-104.962	24.290	0.126	-0.104
-103.947	800.000	0.082	-0.253
-102.932	-39.008	0.402	0.211
-101.918	-11.249	-0.271	0.178
-100.903	-199.723	-0.264	0.001
-99.889	193.098	-0.144	0.217
-98.874	800.000	0.052	0.171
-97.859	-200.000	0.006	0.155
-96.845	-12.870	-0.155	-0.101
-95.830	800.000	-0.072	-0.291
-94.816	93.716	0.294	0.332
-93.801	84.815	-0.177	-0.193
-92.786	279.551	0.080	-0.143
-91.772	-26.280	-0.051	0.030
-90.757	120.891	-0.062	-0.077
-89.743	-200.000	-0.012	0.084
-88.728	-108.584	-0.343	0.073
-87.713	800.000	-0.030	-0.114
-86.699	126.309	-0.025	-0.031
-85.684	-181.166	0.338	-0.007
-84.670	722.350	-0.085	-0.227
-83.655	614.421	0.044	-0.110
-82.640	-10.611	-0.189	0.125
-81.626	-43.695	-0.327	-0.164
-80.611	251.904	0.073	-0.124
-79.597	16.036	0.151	-0.119
-78.582	16.650	-0.305	0.241
-77.567	-60.719	-0.118	0.050
-76.553	183.799	-0.251	-0.370
-75.538	26.987	-0.092	-0.077
-74.524	-117.557	-0.414	0.074
-73.509	-200.000	-0.025	-0.346
-72.494	-105.885	-0.055	0.012
-71.480	-200.000	0.009	-0.277
-70.465	183.191	0.149	-0.220
-69.451	-200.000	0.015	-0.299
-68.436	7.961	-0.024	-0.018
-67.422	513.120	0.130	-0.302
-66.407	-86.384	0.177	0.054
-65.392	12.517	0.290	0.223
-64.378	800.000	-0.021	0.067
-63.363	-200.000	-0.012	0.438
-62.349	44.474	-0.229	0.210
-61.334	83.704	-0.655	-0.712
-60.319	800.000	0.066	0.276
-59.305	-200.000	-0.049	-0.770
-58.290	-200.000	0.119	0.603
-57.276	464.600	0.548	1.221
-56.261	-200.000	76.162	510.767
-55.246	522.987	1325.750	3103.982
-54.232	145.967	2558.704	3419.479
-53.217	118.206	2227.492	2736.941
-52.203	53.022	1669.704	1592.291
-51.188	44.927	1392.830	1277.760
-50.173	41.159	1347.812	1213.503
-49.159	59.741	1382.435	1359.291
-48.144	66.471	1401.142	1418.929
-47.130	45.274	1364.214	1253.438
-46.115	41.184	1347.866	1213.510
-45.100	40.966	1343.109	1207.861
-44.086	40.842	1340.454	1204.670
-43.071	40.882	1338.001	1202.659
-42.057	40.748	1335.992	1200.001
-41.042	40.871	1334.165	1199.048
-40.027	40.791	1333.096	1197.558
-39.013	40.870	1331.174	1196.264
-37.998	40.867	1328.781	1194.046
-36.984	41.005	1327.178	1193.387
-35.969	41.025	1325.652	1192.089
-34.954	41.071	1323.659	1190.521
-33.940	41.026	1322.649	1189.297
-32.925	41.068	1321.147	1188.150
-31.911	41.106	1319.845	1187.161
-30.896	41.068	1318.132	1185.345
-29.881	41.017	1316.883	1183.870
-28.867	41.045	1315.301	1182.570
-27.852	41.082	1313.653	1181.259
-26.838	41.073	1312.426	1180.055
-25.823	41.215	1310.481	1179.103
-24.809	40.987	1309.780	1177.076
-23.794	41.037	1308.231	1175.931
-22.779	41.144	1306.888	1175.309
-21.765	41.157	1305.047	1173.684
-20.750	41.255	1303.977	1173.253
-19.736	41.001	1303.312	1171.109
-18.721	40.928	1302.071	1169.520
-17.706	41.044	1300.492	1168.738
-16.692	41.051	1299.340	1167.696
-15.677	40.982	1298.156	1166.184
-14.663	40.968	1297.015	1165.029
-13.648	40.975	1296.122	1164.224
-12.633	40.956	1294.917	1162.982
-11.619	41.000	1294.031	1162.395
-10.604	40.949	1293.381	1161.470
-9.590	41.015	1291.836	1160.421
-8.575	41.032	1290.951	1159.679
-7.560	40.952	1290.028	1158.335
-6.546	40.919	1289.405	1157.538
-5.531	40.896	1288.929	1156.931
-4.517	40.880	1288.210	1156.152
-3.502	40.888	1287.099	1155.150
-2.487	40.919	1285.919	1154.225
-1.473	40.960	1282.140	1151.026
-0.458	39.818	1266.997	1130.851
0.556	36.343	1247.233	1090.041
1.571	32.260	1251.267	1070.283
2.586	31.010	1266.796	1076.256
3.600	29.232	1254.077	1055.187
4.615	20.676	1176.304	943.479
5.629	8.096	1092.589	812.503
6.644	2.620	1068.078	766.864
7.659	2.087	1065.422	762.227
8.673	1.994	1063.875	760.589
9.688	1.831	1062.716	758.879
10.702	2.229	1061.669	760.047
11.717	9.282	1071.773	802.524
12.731	20.538	1088.058	871.388
13.746	25.374	1093.440	899.921
14.761	25.477	1093.934	900.764
15.775	25.448	1093.259	899.985
16.790	25.399	1092.060	898.671
17.804	25.189	1091.521	897.100
18.819	25.244	1091.421	897.212
19.834	25.453	1090.994	897.824
20.848	25.399	1090.459	897.034
21.863	25.357	1089.961	896.340
22.877	25.438	1089.143	895.991
23.892	25.258	1088.515	894.498
24.907	25.371	1088.046	894.597
25.921	25.304	1086.500	892.912
26.936	25.432	1084.799	892.068
27.950	25.366	1083.353	890.474
28.965	25.180	1082.175	888.508
29.980	25.321	1080.123	887.441
30.994	25.437	1079.130	887.119
32.009	25.364	1078.710	886.336
33.023	25.061	1077.499	883.770
34.038	25.201	1076.737	883.755
35.053	25.421	1075.879	884.057
36.067	25.315	1075.269	882.953
37.082	25.476	1074.349	882.910
38.096	25.634	1073.735	883.106
39.111	25.653	1073.196	882.676
40.126	25.503	1071.462	880.436
41.140	25.082	1069.981	877.084
42.155	25.019	1068.142	875.190
43.169	24.956	1067.693	874.437
44.184	24.908	1066.657	873.277
45.199	24.842	1066.104	872.423
46.213	24.883	1065.184	871.796
47.228	25.137	1064.190	872.140
48.242	25.158	1063.434	871.546
49.257	25.298	1062.366	871.275
50.271	25.371	1061.919	871.183
51.286	25.427	1061.107	870.712
52.301	25.380	1060.355	869.791
53.315	25.346	1059.215	868.612
54.330	25.183	1058.334	867.028
55.344	25.339	1057.641	867.135
56.359	25.254	1057.115	866.217
57.374	25.148	1055.929	864.658
58.388	25.070	1055.126	863.546
59.403	25.081	1054.329	862.872
60.417	24.848	1053.630	861.103
61.432	24.972	1053.026	861.129
62.447	25.004	1052.451	860.736
63.461	25.131	1051.348	860.368
64.476	25.110	1050.070	859.145
65.490	25.041	1049.418	858.207
66.505	25.019	1048.997	857.681
67.520	25.063	1048.552	857.448
68.534	24.971	1046.947	855.620
69.549	24.549	1046.188	852.911
70.563	24.537	1045.256	852.017
71.578	24.443	1044.819	851.140
72.593	24.363	1043.510	849.615
73.607	24.483	1043.115	849.789
74.622	24.820	1042.678	850.960
75.636	24.856	1041.866	850.396
76.651	24.678	1041.002	848.771
77.666	24.625	1040.417	847.967
78.680	24.728	1039.512	847.641
79.695	24.886	1038.680	847.635
80.709	25.076	1037.881	847.809
81.724	24.944	1037.372	846.695
82.739	25.003	1036.455	846.150
83.753	25.299	1036.352	847.389
84.768	25.632	1035.195	847.937
85.782	25.724	1034.526	847.748
86.797	25.618	1033.506	846.337
87.812	25.521	1032.187	844.726
88.826	25.489	1031.875	844.247
89.841	25.669	1030.820	844.155
90.855	25.616	1030.298	843.402
91.870	25.590	1028.914	842.072
92.884	25.437	1027.512	840.135
93.899	25.311	1027.044	839.089
94.914	25.570	1025.906	839.294
95.928	25.576	1025.309	838.758
96.943	25.278	1023.732	836.009
97.957	24.902	1022.936	833.536
98.972	24.915	1021.712	832.522
99.987	25.236	1020.857	833.245
101.001	25.341	1020.353	833.244
102.016	25.268	1019.878	832.444
103.030	25.224	1018.550	831.084
104.045	25.186	1017.923	830.324
105.060	24.893	1016.866	828.034
106.074	25.038	1016.273	828.148
107.089	25.325	1015.743	828.967
108.103	25.279	1014.801	827.912
109.118	25.054	1013.113	825.427
110.133	25.031	1012.604	824.833
111.147	24.865	1011.497	823.094
112.162	24.601	1010.642	821.114
113.176	25.070	1009.943	822.624
114.191	24.878	1009.260	821.117
115.206	24.673	1007.749	818.874
116.220	24.569	1007.299	817.959
117.235	24.847	1006.248	818.305
118.249	24.602	1005.890	816.820
119.264	24.630	1004.965	816.128
120.279	24.659	1003.836	815.271
121.293	24.583	1003.524	814.599
122.308	24.728	1002.430	814.297
123.322	24.721	1001.179	813.180
124.337	24.475	1000.240	811.225
125.352	24.066	998.251	807.686
126.366	23.955	997.326	806.362
127.381	24.755	997.740	810.253
128.395	25.077	997.478	811.428
129.410	25.358	996.189	811.576
130.424	25.302	995.026	810.303
131.439	25.199	994.520	809.355
132.454	25.226	993.742	808.770
133.468	25.158	992.899	807.709
134.483	25.290	991.992	807.492
135.497	25.495	991.507	807.946
136.512	25.572	990.467	807.374
137.527	25.566	989.604	806.571
138.541	25.601	988.928	806.107
139.556	25.603	988.357	805.579
140.570	25.617	987.637	804.984
141.585	25.724	986.294	804.295
142.600	25.567	985.318	802.729
143.614	25.750	984.772	803.028
144.629	25.880	984.236	803.100
145.643	25.730	982.712	801.119
146.658	25.540	981.723	799.397
147.673	25.561	980.350	798.300
148.687	25.334	979.171	796.264
149.702	25.271	978.164	795.095
150.716	25.309	977.337	794.522
151.731	25.421	976.893	794.584
152.746	25.684	976.754	795.566
153.760	25.726	975.635	794.770
154.775	25.615	975.198	793.851
155.789	25.730	973.986	793.304
156.804	25.667	973.350	792.435
157.819	25.761	972.685	792.237
158.833	25.819	972.005	791.870
159.848	25.746	971.043	790.696
160.862	25.596	970.074	789.179
161.877	25.687	968.245	788.020
162.892	25.687	967.674	787.485
163.906	25.755	966.079	786.414
164.921	25.591	965.521	785.172
165.935	25.661	964.940	784.936
166.950	25.698	963.607	783.947
167.964	25.576	962.693	782.603
168.979	25.508	961.797	781.507
169.994	25.554	960.653	780.709
171.008	25.669	960.338	780.881
172.023	25.706	959.821	780.554
173.037	25.531	958.505	778.657
174.052	25.410	957.545	777.284
175.067	25.432	956.906	776.792
176.081	25.551	956.285	776.735
177.096	25.423	956.221	776.060
178.110	25.320	954.759	774.359
179.125	25.071	954.513	773.020
180.140	25.054	953.580	772.120
181.154	25.118	953.670	772.403
182.169	25.537	953.275	773.817
183.183	25.597	953.280	774.010
184.198	25.601	952.027	772.943
185.213	25.541	951.101	771.865
186.227	25.670	950.680	772.007
187.242	25.700	949.998	771.516
188.256	25.669	949.454	770.874
189.271	25.766	948.587	770.515
190.286	25.438	947.553	768.206
191.300	24.703	946.225	763.923
192.315	23.947	944.337	759.104
193.329	23.854	943.817	758.223
194.344	24.847	944.394	762.852
195.359	25.496	944.187	765.383
196.373	25.692	943.856	765.882
197.388	25.439	943.187	764.196
198.402	25.373	942.995	763.692
199.417	25.546	942.304	763.801
200.432	25.340	941.151	761.923
201.446	25.109	940.613	760.439
202.461	25.416	939.522	760.792
203.475	24.566	937.642	755.610
204.490	23.601	936.331	750.407
205.504	24.570	936.564	754.622
206.519	25.036	936.813	756.725
207.534	25.152	936.274	756.712
208.548	25.568	936.121	758.277
209.563	25.342	935.209	756.520
210.577	25.490	934.021	756.112
211.592	25.746	934.109	757.194
212.607	25.763	933.419	756.639
213.621	25.806	932.638	756.119
214.636	25.759	932.136	755.449
215.650	25.666	931.362	754.364
216.665	25.750	930.962	754.325
217.680	25.741	929.848	753.317
218.694	25.316	929.096	750.866
219.709	25.280	928.093	749.838
220.723	25.431	928.052	750.370
221.738	25.637	927.238	750.503
222.753	25.552	926.610	749.574
223.767	25.665	926.425	749.831
224.782	25.810	925.914	749.953
225.796	25.882	925.333	749.718
226.811	25.334	923.636	745.998
227.826	24.579	922.511	741.891
228.840	24.652	922.058	741.763
229.855	24.809	921.367	741.791
230.869	24.509	920.327	739.648
231.884	24.876	920.041	740.873
232.899	25.595	920.966	744.527
233.913	25.602	919.532	743.330
234.928	25.441	919.313	742.423
235.942	25.375	918.697	741.586
236.957	24.989	918.239	739.560
237.972	25.155	917.286	739.413
238.986	25.335	916.325	739.314
240.001	25.262	915.719	738.457
241.015	25.361	915.301	738.463
242.030	25.448	914.932	738.457
243.045	25.620	914.459	738.716
244.059	25.675	914.460	738.878
245.074	25.395	913.464	736.857
246.088	25.181	912.081	734.801
247.103	25.345	912.087	735.413
248.117	25.942	912.130	737.827
249.132	26.207	911.659	738.467
250.147	26.383	911.131	738.689
251.161	26.358	910.672	738.150
252.176	26.344	910.349	737.765
253.190	26.465	909.667	737.641
254.205	26.556	909.493	737.807
255.220	26.558	908.328	736.804
256.234	26.492	907.940	736.157
257.249	26.239	907.274	734.524
258.263	26.258	906.502	733.909
259.278	26.537	905.602	734.250
260.293	26.603	904.790	733.792
261.307	26.419	904.312	732.593
262.322	26.239	903.460	731.109
263.336	25.399	902.033	726.497
264.351	24.431	899.646	720.600
265.366	24.550	899.492	720.897
266.380	25.635	900.229	725.802
267.395	26.039	900.293	727.418
268.409	25.992	899.269	726.339
269.424	26.113	898.846	726.419
270.439	26.220	898.353	726.387
271.453	26.264	897.732	725.996
272.468	26.278	897.619	725.899
273.482	26.491	896.808	726.033
274.497	26.116	895.904	723.732
275.512	25.667	894.740	720.929
276.526	26.129	894.635	722.634
277.541	26.379	894.486	723.450
278.555	26.181	893.381	721.698
279.570	25.982	892.712	720.300
280.585	26.188	892.359	720.772
281.599	26.135	891.226	719.583
282.614	25.507	889.976	716.011
283.628	25.363	889.967	715.368
284.643	25.823	889.710	716.926
285.657	25.548	888.049	714.434
286.672	25.204	887.237	712.353
287.687	25.880	887.161	714.910
288.701	25.869	886.542	714.305
289.716	25.428	886.067	712.110
290.730	25.567	885.116	711.834
291.745	25.130	884.576	709.608
292.760	25.441	884.228	710.494
293.774	26.436	884.833	714.855
294.789	26.773	884.346	715.728
295.803	26.820	883.937	715.517
296.818	26.881	883.301	715.182
297.833	26.460	882.265	712.621
298.847	26.251	881.255	710.921
299.862	26.473	881.301	711.766
300.876	26.716	881.045	712.451
301.891	26.852	879.924	712.016
302.906	26.391	878.982	709.384
303.920	26.394	878.878	709.251
304.935	26.885	878.536	710.834
305.949	26.715	877.601	709.351
306.964	26.493	876.947	707.890
307.979	26.507	876.773	707.741
308.993	27.032	876.292	709.343
310.008	26.738	875.927	707.836
311.022	26.718	874.538	706.574
312.037	26.524	874.344	705.596
313.052	26.171	873.666	703.614
314.066	25.347	871.926	698.942
315.081	24.878	871.280	696.539
316.095	25.776	871.676	700.285
317.110	26.494	871.205	702.638
318.125	25.755	869.679	698.476
319.139	24.520	868.328	692.543
320.154	24.528	867.728	692.036
321.168	25.435	867.913	695.638
322.183	26.064	868.483	698.467
323.197	26.358	868.206	699.319
324.212	26.522	868.186	699.877
325.227	26.727	867.032	699.674
326.241	26.476	866.392	698.128
327.256	26.256	865.739	696.691
328.270	26.308	864.921	696.171
329.285	26.021	864.292	694.499
330.300	25.924	863.265	693.241
331.314	26.091	862.983	693.594
332.329	26.435	863.399	695.191
333.343	26.670	863.089	695.783
334.358	26.635	862.344	694.983
335.373	26.646	862.069	694.743
336.387	26.903	862.240	695.807
337.402	27.034	861.929	695.996
338.416	27.042	861.513	695.628
339.431	27.080	861.365	695.593
340.446	27.224	861.030	695.812
341.460	27.143	860.384	694.921
342.475	26.952	860.037	693.846
343.489	27.163	859.194	693.911
344.504	27.408	859.114	694.720
345.519	27.519	858.846	694.867
346.533	27.658	858.103	694.731
347.548	27.552	857.663	693.912
348.562	27.427	857.141	692.953
349.577	27.420	856.930	692.695
350.592	27.328	855.994	691.527
351.606	27.421	855.244	691.212
352.621	27.165	854.289	689.408
353.635	27.133	853.386	688.497
354.650	26.684	851.751	685.418
355.665	25.593	850.639	680.338
356.679	25.999	850.364	681.592
357.694	26.464	849.671	682.735
358.708	26.314	849.057	681.612
359.723	26.753	849.253	683.367
360.738	27.019	848.893	684.020
361.752	27.288	848.088	684.320
362.767	27.535	848.086	685.189
363.781	27.823	847.960	686.109
364.796	27.789	847.536	685.575
365.810	28.001	846.984	685.866
366.825	27.908	846.485	685.052
367.840	27.552	845.590	682.932
368.854	27.240	844.773	681.042
369.869	27.073	844.399	680.059
370.883	27.143	843.983	679.924
371.898	27.054	843.429	679.086
372.913	27.312	843.177	679.787
373.927	27.336	842.768	679.486
374.942	27.408	842.467	679.452
375.956	27.530	841.826	679.331
376.971	27.794	841.550	680.031
377.986	27.864	841.254	679.992
379.000	27.921	840.353	679.414
380.015	27.723	839.679	678.074
381.029	27.593	839.421	677.324
382.044	27.761	838.830	677.409
383.059	27.810	838.336	677.133
384.073	27.780	837.879	676.592
385.088	27.721	837.188	675.756
386.102	27.409	836.526	674.006
387.117	27.528	835.473	673.538
388.132	27.082	834.516	671.061
389.146	26.726	833.300	668.712
390.161	26.880	833.938	669.732
391.175	27.450	833.796	671.663
392.190	27.195	832.647	669.739
393.205	25.874	830.493	663.089
394.219	24.418	828.286	655.920
395.234	24.095	828.634	654.951
396.248	25.711	829.489	661.511
397.263	27.292	830.639	668.184
398.278	27.217	830.127	667.437
399.292	27.144	829.185	666.351
400.307	27.096	828.845	665.844
401.321	27.176	828.731	665.987
402.336	27.491	828.460	666.862
403.350	27.877	828.479	668.233
404.365	28.220	828.234	669.229
405.380	28.521	828.118	670.176
406.394	28.584	827.717	670.021
407.409	28.347	827.248	668.721
408.423	28.388	827.155	668.733
409.438	28.466	826.642	668.547
410.453	28.543	825.842	668.121
411.467	28.450	825.329	667.307
412.482	28.473	824.899	666.984
413.496	28.599	824.619	667.158
414.511	28.591	824.497	666.971
415.526	28.485	823.777	665.942
416.540	28.310	823.083	664.688
417.555	28.116	822.415	663.385
418.569	28.249	821.914	663.407
419.584	28.141	821.288	662.449
420.599	27.937	820.846	661.299
421.613	94.427	1263.544	1371.381
422.628	81.392	1328.086	1371.514
