DTS Sentinel unit serial number:	SN413079Multiplexer serial number:	ORYXHardware model number:	OX4-SRSoftware version number:	ORYX F/W v4.00 Oryx Data Collector v3.7.2.0data status	okinstallation	princeton_trtdifferential loss correction	single-endedforward channel	channel 1reverse channel	N/Adate	2019/09/10time	22:36:11forward acquisition time	60.00reverse acquisition time	0.00gamma	496.2192k internal	0.2332k external	0.2332temperature offset calibration	0.9934default loss term (dB/km)	0.3790temperature slope calibration	1.0000multiplexer offset coefficient	1.0000multiplexer slope coefficient	1.0000fibre end	0.00T internal ref (°C)	30.28T ext. ref 1 (°C)	-0.31T ext. ref 2 (°C)	23.70length (m)	temperature (°C)	Stokes	anti-Stokes-747.200	108.725	-0.149	-0.179
-746.185	800.000	-0.032	-0.110
-745.171	-200.000	0.013	-0.057
-744.156	-25.565	-0.194	0.115
-743.142	384.389	-0.132	-0.274
-742.127	-27.605	-0.107	0.062
-741.112	-169.516	-0.287	0.011
-740.098	13.807	-0.048	0.037
-739.083	-72.506	0.203	0.076
-738.069	15.247	-0.133	-0.105
-737.054	800.000	-0.031	-0.106
-736.039	800.000	-0.083	0.304
-735.025	290.937	-0.166	0.303
-734.010	800.000	-0.033	0.099
-732.996	-146.983	-0.317	-0.027
-731.981	-46.973	-0.274	-0.135
-730.966	351.436	-0.150	-0.298
-729.952	-63.569	0.193	-0.080
-728.937	238.535	-0.063	0.106
-727.923	-107.425	-0.356	-0.078
-726.908	315.437	0.080	-0.153
-725.894	-168.748	-0.048	0.002
-724.879	-124.689	-0.315	0.049
-723.864	800.000	0.067	-0.231
-722.850	3.197	-0.144	0.105
-721.835	531.247	0.034	-0.081
-720.821	-73.201	0.081	-0.030
-719.806	-159.162	-0.223	0.013
-718.791	-189.257	0.126	-0.002
-717.777	-200.000	-0.034	-0.170
-716.762	557.175	0.068	0.164
-715.748	-200.000	0.005	0.162
-714.733	-143.904	0.083	0.008
-713.718	-6.079	0.258	0.177
-712.704	-76.363	0.049	0.017
-711.689	-93.079	0.150	0.042
-710.675	-59.791	-0.328	0.141
-709.660	-55.867	-0.189	0.085
-708.645	-6.777	-0.501	-0.343
-707.631	-18.889	0.170	-0.106
-706.616	800.000	-0.025	0.093
-705.602	-75.974	0.413	0.147
-704.587	-200.000	-0.057	-0.382
-703.572	800.000	-0.061	-0.252
-702.558	-124.662	-0.186	0.029
-701.543	326.248	0.132	0.254
-700.529	-39.789	-0.155	0.081
-699.514	800.000	-0.073	0.236
-698.499	-200.000	-0.077	0.379
-697.485	-183.388	0.273	0.005
-696.470	800.000	-0.060	0.245
-695.456	38.159	-0.075	0.067
-694.441	128.848	-0.039	-0.050
-693.426	399.329	0.039	-0.082
-692.412	30.329	-0.023	-0.019
-691.397	-157.540	-0.261	-0.016
-690.383	-200.000	0.021	-0.132
-689.368	-87.899	-0.259	0.078
-688.354	-26.539	0.305	-0.179
-687.339	-25.066	0.136	-0.081
-686.324	-96.293	-0.186	0.049
-685.310	-36.008	-0.302	-0.164
-684.295	-108.557	-0.218	0.047
-683.281	-105.182	0.165	-0.038
-682.266	-126.761	0.354	-0.053
-681.251	229.999	-0.204	-0.335
-680.237	57.731	-0.125	-0.123
-679.222	-2.402	-0.113	-0.080
-678.208	-200.000	0.016	-0.332
-677.193	8.651	-0.123	0.093
-676.178	-200.000	-0.001	0.077
-675.164	-90.570	0.138	0.040
-674.149	225.426	0.153	-0.248
-673.135	5.012	-0.245	-0.181
-672.120	-142.055	-0.263	-0.026
-671.105	3.135	-0.174	-0.127
-670.091	490.284	0.009	0.021
-669.076	-102.830	-0.116	0.028
-668.062	274.357	-0.119	0.211
-667.047	89.419	-0.090	0.101
-666.032	-59.555	-0.107	0.046
-665.018	800.000	0.033	0.094
-664.003	-200.000	-0.051	-0.247
-662.989	230.101	-0.129	0.212
-661.974	-84.698	0.283	-0.090
-660.959	85.846	-0.159	0.175
-659.945	-86.305	0.184	0.057
-658.930	182.385	0.115	-0.170
-657.916	-200.000	-0.017	-0.228
-656.901	17.519	-0.235	0.187
-655.886	99.554	0.135	-0.157
-654.872	-200.000	0.038	-0.234
-653.857	-110.736	0.241	-0.050
-652.843	-167.065	0.404	0.016
-651.828	109.173	-0.078	0.094
-650.814	-155.304	-0.070	-0.005
-649.799	26.323	-0.277	-0.232
-648.784	389.962	0.088	-0.183
-647.770	204.832	0.139	-0.217
-646.755	167.781	0.224	0.320
-645.741	142.226	0.215	0.286
-644.726	106.220	0.034	-0.040
-643.711	-200.000	0.005	0.051
-642.697	-200.000	-0.053	0.259
-641.682	-108.727	-0.288	-0.062
-640.668	-200.000	0.034	0.171
-639.653	-61.942	-0.042	0.018
-638.638	3.292	0.163	-0.119
-637.624	800.000	-0.036	-0.137
-636.609	-200.000	-0.078	0.452
-635.595	-200.000	0.003	-0.106
-634.580	30.072	-0.160	-0.137
-633.565	282.879	-0.125	-0.225
-632.551	800.000	0.081	0.282
-631.536	33.158	0.118	-0.102
-630.522	-31.786	-0.293	-0.165
-629.507	-91.775	0.246	-0.070
-628.492	-49.067	0.234	0.112
-627.478	-5.572	-0.254	0.175
-626.463	-200.000	0.020	-0.108
-625.449	135.627	0.134	0.175
-624.434	-37.159	-0.212	-0.114
-623.419	-28.422	-0.213	0.123
-622.405	109.190	0.132	-0.159
-621.390	485.941	0.040	-0.091
-620.376	29.261	0.265	-0.225
-619.361	478.994	0.141	-0.320
-618.346	-120.002	-0.159	-0.027
-617.332	-56.897	-0.402	-0.178
-616.317	62.015	-0.026	-0.026
-615.303	-53.460	-0.118	-0.054
-614.288	-95.060	-0.085	0.023
-613.273	73.702	-0.080	-0.084
-612.259	113.011	-0.335	0.406
-611.244	800.000	0.080	0.290
-610.230	-54.623	-0.237	0.107
-609.215	-200.000	0.013	0.179
-608.201	95.133	0.260	0.296
-607.186	249.995	0.146	-0.248
-606.171	800.000	-0.044	-0.124
-605.157	-17.154	0.133	0.084
-604.142	139.240	-0.102	-0.134
-603.128	-113.900	0.167	-0.032
-602.113	192.196	-0.232	0.350
-601.098	110.847	-0.036	0.044
-600.084	-102.600	-0.343	0.082
-599.069	529.222	-0.046	0.109
-598.055	235.887	-0.134	0.222
-597.040	393.245	0.096	-0.199
-596.025	25.866	-0.120	0.100
-595.011	20.494	0.201	-0.163
-593.996	800.000	-0.101	0.338
-592.982	73.957	0.204	0.214
-591.967	134.702	-0.190	0.246
-590.952	25.672	0.119	0.099
-589.938	-200.000	0.021	0.244
-588.923	-106.341	-0.235	0.053
-587.909	-12.513	0.090	0.058
-586.894	-35.698	0.059	0.032
-585.879	800.000	-0.098	-0.297
-584.865	183.458	0.193	0.286
-583.850	-57.525	-0.330	0.145
-582.836	-200.000	0.066	-0.351
-581.821	-200.000	-0.010	0.137
-580.806	-75.244	-0.214	0.076
-579.792	800.000	0.016	0.066
-578.777	189.432	0.172	0.258
-577.763	-200.000	0.009	0.126
-576.748	682.618	0.108	-0.281
-575.733	115.143	0.137	0.167
-574.719	396.069	-0.051	-0.106
-573.704	106.576	0.147	-0.175
-572.690	-171.298	0.262	-0.009
-571.675	55.235	0.110	-0.106
-570.661	279.438	-0.061	0.108
-569.646	-7.052	0.195	-0.132
-568.631	-156.731	-0.452	0.028
-567.617	-166.986	0.099	0.004
-566.602	-133.614	0.211	0.026
-565.588	-11.353	-0.243	-0.160
-564.573	720.032	0.045	-0.120
-563.558	328.164	0.140	0.268
-562.544	112.846	-0.102	-0.123
-561.529	-200.000	0.073	0.324
-560.515	204.097	-0.119	-0.184
-559.500	394.863	-0.198	-0.411
-558.485	570.403	0.174	-0.424
-557.471	11.143	0.085	-0.065
-556.456	-124.160	0.326	-0.051
-555.442	229.373	-0.116	0.188
-554.427	104.110	-0.289	0.339
-553.412	800.000	0.100	-0.307
-552.398	-200.000	0.048	0.212
-551.383	-18.747	0.102	0.064
-550.369	-48.305	0.397	0.191
-549.354	-163.071	0.126	-0.006
-548.339	-143.315	0.059	-0.006
-547.325	166.627	-0.103	-0.146
-546.310	-133.091	0.286	-0.036
-545.296	-85.588	-0.267	-0.083
-544.281	-200.000	-0.074	-0.547
-543.266	-54.799	0.361	-0.163
-542.252	-47.768	-0.142	0.069
-541.237	-41.730	-0.115	0.059
-540.223	42.518	-0.089	0.080
-539.208	-135.970	0.161	0.019
-538.193	-29.974	0.027	0.015
-537.179	-43.086	0.082	0.042
-536.164	255.222	0.107	-0.184
-535.150	56.203	0.178	-0.172
-534.135	-111.570	0.098	0.020
-533.121	290.057	0.076	0.138
-532.106	-27.085	-0.390	-0.227
-531.091	409.543	0.144	-0.305
-530.077	486.873	0.015	0.034
-529.062	-104.274	0.071	-0.016
-528.048	345.507	0.040	0.077
-527.033	443.442	0.069	0.150
-526.018	-37.258	0.026	0.014
-525.004	559.579	-0.142	-0.342
-523.989	-9.659	0.285	-0.189
-522.975	-200.000	-0.017	-0.266
-521.960	87.304	-0.150	0.165
-520.945	-7.838	0.126	-0.085
-519.931	-200.000	-0.027	0.156
-518.916	484.960	-0.031	-0.072
-517.902	219.872	-0.043	-0.068
-516.887	37.161	0.130	0.115
-515.872	153.122	-0.200	-0.273
-514.858	-118.475	0.221	0.039
-513.843	128.573	-0.150	-0.190
-512.829	20.877	-0.250	0.202
-511.814	800.000	-0.084	-0.359
-510.799	246.432	0.047	0.079
-509.785	117.641	0.046	-0.057
-508.770	58.715	-0.329	0.322
-507.756	-130.622	-0.112	-0.015
-506.741	403.920	-0.115	0.242
-505.726	-200.000	-0.018	-0.409
-504.712	-200.000	0.017	-0.500
-503.697	386.354	-0.083	0.171
-502.683	-21.804	-0.258	-0.156
-501.668	413.357	0.110	0.233
-500.653	-58.032	0.395	0.172
-499.639	74.603	-0.170	0.178
-498.624	84.479	-0.096	-0.105
-497.610	-200.000	-0.026	0.185
-496.595	-200.000	-0.048	0.238
-495.581	157.091	0.159	0.219
-494.566	-200.000	-0.023	0.174
-493.551	800.000	0.104	-0.351
-492.537	-19.295	-0.271	0.167
-491.522	-50.297	-0.283	0.133
-490.508	311.855	-0.064	-0.120
-489.493	41.638	0.299	-0.270
-488.478	-200.000	-0.008	-0.090
-487.464	113.478	0.064	0.077
-486.449	-200.000	-0.085	-0.388
-485.435	110.930	-0.075	-0.090
-484.420	-200.000	0.006	0.114
-483.405	-93.907	0.069	0.019
-482.391	-52.198	0.078	-0.036
-481.376	-148.128	0.516	0.043
-480.362	-23.888	0.200	-0.119
-479.347	800.000	-0.034	0.140
-478.332	-83.376	-0.126	0.040
-477.318	-148.297	-0.165	-0.014
-476.303	-132.850	0.272	-0.035
-475.289	800.000	0.104	0.350
-474.274	-138.822	0.203	0.022
-473.259	-122.654	-0.313	0.050
-472.245	99.033	-0.096	-0.110
-471.230	-157.468	0.169	-0.010
-470.216	110.841	0.105	-0.126
-469.201	-152.727	0.260	-0.018
-468.186	-190.188	0.132	-0.001
-467.172	-49.626	0.124	-0.059
-466.157	642.394	0.067	-0.170
-465.143	-106.961	0.140	-0.031
-464.128	50.760	0.149	-0.141
-463.113	800.000	0.023	-0.082
-462.099	481.300	0.040	0.091
-461.084	-200.000	-0.010	-0.159
-460.070	800.000	-0.053	0.157
-459.055	-62.870	0.132	0.054
-458.040	800.000	0.204	0.669
-457.026	-90.186	-0.249	0.072
-456.011	-157.031	0.264	0.016
-454.997	61.199	-0.182	-0.180
-453.982	-200.000	0.000	0.076
-452.968	398.352	0.113	0.236
-451.953	270.246	0.096	-0.168
-450.938	327.846	-0.051	0.098
-449.924	-13.957	-0.157	0.101
-448.909	82.807	-0.187	0.202
-447.895	-132.694	-0.339	-0.043
-446.880	-162.411	0.253	-0.012
-445.865	103.117	0.069	0.081
-444.851	-200.000	-0.007	0.135
-443.836	-15.070	0.224	-0.142
-442.822	-43.523	-0.077	0.038
-441.807	-81.691	-0.367	-0.120
-440.792	-145.838	0.336	-0.030
-439.778	-40.228	0.279	0.144
-438.763	800.000	-0.012	0.036
-437.749	-160.254	0.324	0.017
-436.734	363.104	-0.075	0.150
-435.719	-200.000	-0.019	0.257
-434.705	-200.000	-0.074	0.352
-433.690	-7.865	0.222	-0.149
-432.676	-112.284	-0.117	-0.023
-431.661	477.237	0.104	-0.233
-430.646	-42.755	-0.153	0.077
-429.632	4.083	-0.306	-0.223
-428.617	-107.064	0.361	-0.079
-427.603	800.000	-0.013	-0.055
-426.588	52.971	-0.084	0.080
-425.573	-128.990	0.089	-0.012
-424.559	-61.695	0.092	-0.038
-423.544	-104.974	0.156	-0.035
-422.530	-68.062	-0.258	-0.100
-421.515	-126.470	0.354	-0.052
-420.500	-90.010	0.484	0.140
-419.486	231.945	-0.136	0.221
-418.471	-143.225	-0.334	0.032
-417.457	106.979	-0.152	-0.180
-416.442	57.480	0.087	0.084
-415.428	-140.017	-0.087	0.009
-414.413	-200.000	0.038	-0.487
-413.398	800.000	-0.027	-0.091
-412.384	159.129	-0.162	-0.224
-411.369	-198.594	-0.110	0.001
-410.355	800.000	0.095	0.264
-409.340	-165.705	0.263	0.011
-408.325	-200.000	-0.031	-0.254
-407.311	61.749	0.065	-0.065
-406.296	-50.999	-0.218	-0.101
-405.282	-200.000	-0.013	-0.083
-404.267	-105.642	-0.110	-0.025
-403.252	108.398	0.153	0.181
-402.238	74.153	0.273	0.284
-401.223	134.852	0.116	0.149
-400.209	376.259	0.027	-0.054
-399.194	46.128	0.149	-0.137
-398.179	78.198	0.269	0.285
-397.165	476.912	0.121	-0.272
-396.150	-200.000	-0.001	0.167
-395.136	155.320	-0.026	0.035
-394.121	-75.842	0.279	0.098
-393.106	489.665	0.046	0.105
-392.092	-13.931	0.284	0.182
-391.077	-107.782	0.235	0.051
-390.063	-38.053	-0.228	0.120
-389.048	628.725	0.089	0.222
-388.033	-200.000	0.027	-0.270
-387.019	148.883	0.050	-0.068
-386.004	-200.000	0.017	0.249
-384.990	157.804	-0.041	-0.056
-383.975	-3.159	0.118	-0.082
-382.960	-200.000	-0.018	0.199
-381.946	143.938	0.113	0.149
-380.931	-80.949	0.315	-0.104
-379.917	-200.000	-0.029	-0.259
-378.902	494.107	-0.226	0.515
-377.888	110.436	-0.138	-0.164
-376.873	282.104	0.061	-0.108
-375.858	-200.000	0.030	-0.366
-374.844	-11.955	0.057	-0.037
-373.829	-72.260	-0.104	0.038
-372.815	800.000	-0.066	-0.268
-371.800	-93.191	-0.092	-0.025
-370.785	588.009	-0.038	-0.094
-369.771	137.237	0.033	0.043
-368.756	-123.046	-0.222	0.035
-367.742	800.000	-0.055	-0.182
-366.727	431.208	-0.142	-0.306
-365.712	-200.000	-0.034	-0.224
-364.698	-121.362	-0.105	0.017
-363.683	-200.000	-0.015	-0.163
-362.669	369.216	0.081	-0.163
-361.654	-73.578	-0.180	0.065
-360.639	-149.074	-0.037	-0.003
-359.625	1.259	0.203	0.144
-358.610	70.014	0.251	0.257
-357.596	340.849	-0.166	-0.320
-356.581	-200.000	-0.035	-0.225
-355.566	-85.588	0.121	0.037
-354.552	36.891	0.127	0.111
-353.537	800.000	0.031	-0.107
-352.523	-29.485	-0.137	-0.077
-351.508	-128.218	-0.193	0.027
-350.493	-200.000	-0.009	-0.067
-349.479	-69.186	-0.475	0.181
-348.464	-1.362	0.217	0.152
-347.450	-200.000	-0.007	-0.046
-346.435	-23.925	-0.108	0.064
-345.420	-112.156	0.140	-0.028
-344.406	-186.421	0.148	0.002
-343.391	64.478	0.186	0.185
-342.377	73.091	0.073	0.076
-341.362	-176.453	-0.318	0.008
-340.348	326.581	0.070	-0.133
-339.333	-8.405	0.252	-0.168
-338.318	-28.751	-0.090	0.051
-337.304	-200.000	0.010	-0.146
-336.289	-18.738	-0.105	0.065
-335.275	-200.000	0.016	-0.207
-334.260	295.328	-0.038	-0.068
-333.245	99.798	0.115	-0.132
-332.231	15.705	0.100	-0.078
-331.216	-123.916	-0.090	-0.014
-330.202	-107.321	-0.335	-0.073
-329.187	-200.000	-0.062	-0.300
-328.172	316.493	-0.121	-0.226
-327.158	64.550	0.141	-0.141
-326.143	-80.742	-0.064	0.021
-325.129	-47.835	-0.554	0.266
-324.114	15.674	0.127	0.099
-323.099	285.482	0.062	0.111
-322.085	-13.395	-0.151	-0.097
-321.070	-139.859	-0.015	0.002
-320.056	153.461	-0.075	-0.102
-319.041	1.110	-0.118	0.084
-318.026	-126.830	-0.288	0.042
-317.012	340.957	0.076	0.147
-315.997	221.590	-0.151	0.240
-314.983	51.567	0.048	0.045
-313.968	-58.367	0.251	-0.108
-312.953	-200.000	0.041	-0.208
-311.939	-200.000	0.056	0.275
-310.924	26.735	0.143	0.119
-309.910	-200.000	-0.017	-0.241
-308.895	96.403	-0.129	0.146
-307.880	57.781	0.146	-0.141
-306.866	800.000	0.217	0.677
-305.851	59.918	-0.313	0.306
-304.837	-172.248	0.369	0.012
-303.822	-122.442	0.366	0.059
-302.807	86.426	-0.112	0.122
-301.793	53.521	-0.318	-0.302
-300.778	107.240	-0.098	-0.115
-299.764	47.644	-0.253	-0.234
-298.749	455.336	0.097	0.212
-297.735	213.642	0.049	-0.076
-296.720	-110.856	-0.205	-0.042
-295.705	-200.000	0.008	-0.122
-294.691	-25.605	0.230	0.134
-293.676	800.000	0.037	0.141
-292.662	-34.725	-0.117	0.063
-291.647	-200.000	0.010	-0.170
-290.632	0.146	-0.051	-0.036
-289.618	-29.984	0.081	-0.046
-288.603	-200.000	-0.058	-0.288
-287.589	95.795	-0.032	0.037
-286.574	800.000	-0.108	0.455
-285.559	-52.573	0.175	0.080
-284.545	-115.069	-0.093	-0.018
-283.530	-200.000	0.010	-0.116
-282.516	734.624	-0.056	-0.149
-281.501	-48.218	-0.152	-0.072
-280.486	-86.398	-0.109	-0.033
-279.472	-200.000	-0.018	0.100
-278.457	691.664	-0.099	0.255
-277.443	76.913	0.162	0.170
-276.428	800.000	-0.043	-0.140
-275.413	800.000	0.044	0.168
-274.399	-56.466	-0.403	0.176
-273.384	-200.000	0.091	0.443
-272.370	-29.605	0.343	0.194
-271.355	-77.115	-0.110	-0.038
-270.340	-200.000	0.017	-0.355
-269.326	800.000	-0.091	-0.344
-268.311	-200.000	0.007	-0.220
-267.297	800.000	-0.059	0.227
-266.282	-59.632	-0.309	0.131
-265.267	201.413	-0.194	0.294
-264.253	25.445	-0.292	-0.240
-263.238	-200.000	-0.009	0.163
-262.224	145.021	0.179	0.236
-261.209	685.455	-0.065	-0.166
-260.195	5.296	0.195	0.142
-259.180	685.589	-0.116	0.298
-258.165	37.824	-0.191	0.167
-257.151	-200.000	-0.010	0.140
-256.136	205.889	0.131	0.202
-255.122	-43.412	-0.052	0.026
-254.107	187.615	0.037	-0.055
-253.092	101.450	0.211	-0.243
-252.078	168.617	0.032	-0.045
-251.063	254.680	-0.050	0.085
-250.049	141.793	-0.061	-0.080
-249.034	520.227	-0.138	-0.318
-248.019	-57.595	-0.380	0.164
-247.005	-76.975	0.183	-0.063
-245.990	507.544	-0.105	0.240
-244.976	6.173	-0.290	-0.212
-243.961	191.154	0.123	-0.183
-242.946	-168.205	-0.291	-0.011
-241.932	-141.994	-0.273	0.027
-240.917	-82.091	0.214	0.069
-239.903	-200.000	-0.034	0.172
-238.888	398.357	-0.062	0.128
-237.873	-200.000	0.027	0.126
-236.859	-4.594	0.178	-0.121
-235.844	-97.050	-0.122	-0.031
-234.830	129.659	0.099	0.125
-233.815	102.356	-0.167	0.193
-232.800	-31.768	0.369	-0.204
-231.786	-200.000	0.051	-0.231
-230.771	-122.073	-0.385	0.062
-229.757	-50.010	-0.148	0.069
-228.742	800.000	-0.034	-0.118
-227.727	-200.000	-0.036	-0.309
-226.713	-61.926	-0.189	0.078
-225.698	800.000	-0.114	0.326
-224.684	116.738	0.079	0.095
-223.669	108.209	-0.038	0.045
-222.655	800.000	0.081	-0.291
-221.640	109.737	-0.096	0.114
-220.625	63.830	0.250	-0.247
-219.611	729.921	-0.072	-0.190
-218.596	-147.447	0.098	-0.008
-217.582	-79.745	0.243	-0.081
-216.567	-200.000	-0.030	-0.255
-215.552	117.459	-0.073	0.088
-214.538	-200.000	-0.009	-0.273
-213.523	-200.000	-0.018	-0.328
-212.509	-200.000	-0.016	-0.086
-211.494	736.853	0.052	-0.138
-210.479	-200.000	-0.024	-0.135
-209.465	-42.842	0.263	-0.132
-208.450	64.428	-0.128	-0.127
-207.436	-200.000	-0.006	0.156
-206.421	404.263	-0.110	-0.228
-205.406	-34.103	-0.027	0.015
-204.392	1.131	-0.229	-0.162
-203.377	150.768	-0.096	0.129
-202.363	117.923	-0.339	-0.412
-201.348	800.000	-0.120	0.389
-200.333	324.178	-0.160	0.301
-199.319	-200.000	-0.009	-0.075
-198.304	80.119	0.065	-0.069
-197.290	505.922	0.020	-0.045
-196.275	197.383	0.146	0.220
-195.260	-75.917	0.111	-0.039
-194.246	-200.000	0.062	0.366
-193.231	63.032	0.118	-0.116
-192.217	274.989	0.024	-0.041
-191.202	-134.516	0.427	0.051
-190.187	539.667	-0.017	0.039
-189.173	-127.246	-0.318	0.046
-188.158	-27.650	0.255	-0.146
-187.144	46.569	-0.063	-0.057
-186.129	-200.000	-0.002	0.340
-185.114	121.585	0.103	-0.126
-184.100	559.866	0.178	-0.424
-183.085	800.000	-0.072	-0.215
-182.071	-13.817	-0.351	0.223
-181.056	151.650	0.205	-0.275
-180.042	-123.888	-0.320	0.050
-179.027	62.924	-0.157	0.154
-178.012	-108.894	0.026	0.006
-176.998	-127.610	0.076	0.011
-175.983	-108.818	0.190	0.040
-174.969	-200.000	0.040	0.249
-173.954	157.658	-0.061	0.083
-172.939	117.002	0.212	0.256
-171.925	-200.000	0.019	-0.178
-170.910	-126.784	-0.029	0.004
-169.896	-39.370	-0.098	0.050
-168.881	-92.640	0.038	-0.010
-167.866	-5.300	0.122	0.083
-166.852	-36.685	0.197	-0.104
-165.837	82.182	0.080	-0.086
-164.823	800.000	-0.041	-0.164
-163.808	800.000	-0.005	0.015
-162.793	-200.000	-0.042	0.237
-161.779	-130.311	-0.233	-0.031
-160.764	331.661	0.063	0.119
-159.750	-38.172	0.079	-0.041
-158.735	-200.000	0.027	0.164
-157.720	-117.822	0.076	-0.013
-156.706	-64.764	-0.180	-0.072
-155.691	-200.000	-0.008	0.262
-154.677	114.695	-0.089	-0.107
-153.662	-200.000	-0.010	0.100
-152.647	-116.195	0.103	-0.019
-151.633	337.380	-0.041	-0.078
-150.618	278.792	-0.017	0.030
-149.604	-200.000	0.018	0.244
-148.589	671.078	-0.059	0.151
-147.574	117.828	0.262	0.317
-146.560	-36.421	-0.135	-0.072
-145.545	-2.231	0.329	0.227
-144.531	-110.546	0.316	0.064
-143.516	377.144	0.102	-0.206
-142.502	-41.606	0.074	-0.037
-141.487	50.567	-0.264	-0.246
-140.472	-101.210	0.318	-0.076
-139.458	-158.602	-0.369	-0.021
-138.443	73.072	-0.221	0.227
-137.429	92.759	0.295	0.328
-136.414	-99.039	-0.158	0.039
-135.399	800.000	-0.065	0.232
-134.385	800.000	-0.050	0.187
-133.370	-11.651	-0.222	0.143
-132.356	123.782	0.165	-0.203
-131.341	-118.628	-0.094	-0.016
-130.326	-10.074	-0.155	-0.101
-129.312	-200.000	0.009	0.102
-128.297	-159.792	0.079	0.004
-127.283	-194.210	-0.151	0.001
-126.268	-200.000	-0.021	-0.172
-125.253	15.462	-0.199	-0.154
-124.239	-84.657	-0.058	0.018
-123.224	667.623	0.131	-0.332
-122.210	-49.652	0.145	-0.068
-121.195	-0.855	0.186	-0.129
-120.180	-104.456	0.348	0.079
-119.166	-85.486	0.289	-0.088
-118.151	259.528	0.055	-0.093
-117.137	255.563	0.085	-0.142
-116.122	175.336	0.165	0.235
-115.107	204.157	-0.131	0.199
-114.093	63.827	-0.039	-0.039
-113.078	-110.859	0.255	-0.051
-112.064	284.037	-0.225	0.398
-111.049	-200.000	-0.002	0.144
-110.034	-200.000	0.070	-0.409
-109.020	-200.000	0.118	0.538
-108.005	79.118	-0.090	0.095
-106.991	-172.431	0.009	-0.000
-105.976	281.227	0.098	-0.173
-104.962	-200.000	-0.014	-0.073
-103.947	-3.606	0.147	-0.100
-102.932	0.107	0.372	-0.260
-101.918	348.967	-0.092	-0.177
-100.903	73.992	0.117	-0.120
-99.889	321.880	0.048	-0.090
-98.874	-55.836	0.151	-0.066
-97.859	800.000	-0.092	0.265
-96.845	-200.000	-0.041	-0.239
-95.830	79.106	0.166	0.174
-94.816	-27.570	0.244	0.139
-93.801	800.000	-0.095	0.259
-92.786	326.016	-0.095	0.178
-91.772	-126.141	0.143	0.021
-90.757	274.559	-0.032	0.056
-89.743	800.000	0.065	0.212
-88.728	-74.281	-0.137	0.049
-87.713	-22.976	0.014	-0.008
-86.699	137.303	-0.131	-0.168
-85.684	319.423	-0.146	0.272
-84.670	-200.000	-0.010	0.143
-83.655	454.372	0.050	-0.108
-82.640	-149.417	-0.165	-0.013
-81.626	-143.680	-0.263	0.024
-80.611	-37.890	0.291	-0.151
-79.597	800.000	-0.078	-0.330
-78.582	800.000	-0.141	0.440
-77.567	81.563	-0.242	0.256
-76.553	62.226	0.106	0.103
-75.538	373.536	-0.085	0.170
-74.524	181.123	-0.074	0.106
-73.509	-200.000	-0.017	-0.276
-72.494	-200.000	-0.079	-0.367
-71.480	800.000	0.015	0.054
-70.465	800.000	0.044	0.144
-69.451	-79.525	0.102	-0.034
-68.436	-200.000	-0.015	0.070
-67.422	100.778	-0.224	-0.255
-66.407	236.941	0.231	0.374
-65.392	-94.802	0.409	0.109
-64.378	19.513	0.040	0.031
-63.363	121.502	0.202	-0.246
-62.349	74.672	0.283	0.291
-61.334	11.520	-1.183	-0.889
-60.319	216.060	0.283	0.440
-59.305	800.000	-0.213	-0.904
-58.290	163.953	0.829	1.143
-57.276	800.000	0.530	1.771
-56.261	-200.000	103.776	616.469
-55.246	525.136	1473.479	3395.832
-54.232	182.005	2665.855	3845.079
-53.217	114.999	2149.480	2568.317
-52.203	42.370	1589.478	1414.979
-51.188	33.810	1324.003	1128.026
-50.173	30.690	1282.768	1074.859
-49.159	54.967	1335.969	1263.168
-48.144	55.731	1351.409	1282.211
-47.130	34.028	1307.152	1114.768
-46.115	30.498	1289.532	1079.240
-45.100	30.238	1284.986	1073.890
-44.086	30.293	1282.414	1072.015
-43.071	30.072	1280.086	1068.750
-42.057	30.091	1277.699	1066.827
-41.042	30.233	1276.131	1066.292
-40.027	30.145	1275.219	1064.981
-39.013	30.074	1273.196	1062.839
-37.998	30.266	1271.424	1062.420
-36.984	30.212	1269.670	1060.604
-35.969	30.338	1267.807	1059.724
-34.954	30.287	1266.532	1058.325
-33.940	30.239	1265.307	1056.986
-32.925	30.356	1264.049	1056.557
-31.911	30.254	1262.710	1054.820
-30.896	30.312	1261.147	1053.800
-29.881	30.387	1259.940	1053.174
-28.867	30.350	1258.206	1051.476
-27.852	30.384	1257.002	1050.618
-26.838	30.493	1255.224	1049.707
-25.823	30.498	1254.006	1048.675
-24.809	30.407	1252.984	1047.266
-23.794	30.419	1251.360	1045.935
-22.779	30.451	1250.135	1045.052
-21.765	30.356	1249.241	1043.727
-20.750	30.302	1247.658	1042.060
-19.736	30.222	1246.494	1040.598
-18.721	30.350	1244.744	1039.814
-17.706	30.309	1243.928	1038.859
-16.692	30.255	1242.792	1037.565
-15.677	30.178	1241.983	1036.422
-14.663	30.250	1240.617	1035.639
-13.648	30.178	1239.608	1034.353
-12.633	30.190	1238.701	1033.627
-11.619	30.320	1237.609	1033.398
-10.604	30.315	1236.749	1032.609
-9.590	30.147	1236.462	1031.394
-8.575	30.210	1235.054	1030.529
-7.560	30.116	1234.672	1029.645
-6.546	30.206	1233.262	1028.928
-5.531	30.162	1232.298	1027.842
-4.517	30.251	1231.438	1027.577
-3.502	30.204	1231.039	1026.943
-2.487	30.210	1230.268	1026.292
-1.473	30.235	1225.322	1022.265
-0.458	28.704	1211.167	1002.068
0.556	22.934	1192.755	963.473
1.571	19.226	1197.502	946.885
2.586	18.578	1211.482	954.248
3.600	18.338	1200.777	944.408
4.615	13.233	1130.140	862.211
5.629	4.222	1056.244	761.658
6.644	-0.031	1036.304	726.683
7.659	-0.262	1033.440	723.496
8.673	-0.516	1032.959	721.869
9.688	-0.449	1030.814	720.629
10.702	-0.072	1029.533	721.482
11.717	5.531	1037.379	753.966
12.731	14.653	1050.261	807.576
13.746	18.853	1055.246	831.709
14.761	19.436	1055.976	835.034
15.775	19.360	1055.420	834.153
16.790	19.172	1054.300	832.286
17.804	19.053	1053.739	831.192
18.819	19.225	1053.190	831.515
19.834	19.351	1052.882	831.806
20.848	19.416	1052.233	831.534
21.863	19.313	1051.544	830.421
22.877	19.197	1051.228	829.538
23.892	19.114	1050.489	828.484
24.907	19.320	1049.757	828.824
25.921	19.215	1048.586	827.321
26.936	19.270	1047.132	826.363
27.950	19.184	1045.684	824.737
28.965	19.082	1043.453	822.414
29.980	19.155	1042.037	821.574
30.994	19.328	1041.257	821.711
32.009	19.335	1039.887	820.590
33.023	19.125	1038.889	818.735
34.038	19.291	1037.732	818.537
35.053	19.310	1036.989	817.969
36.067	19.311	1036.405	817.441
37.082	19.319	1035.487	816.680
38.096	19.484	1034.960	816.975
39.111	19.641	1034.038	816.918
40.126	19.421	1032.687	814.739
41.140	19.091	1030.546	811.424
42.155	18.986	1029.361	809.922
43.169	18.901	1028.695	808.926
44.184	18.935	1027.661	808.204
45.199	18.903	1026.041	806.707
46.213	18.987	1025.073	806.269
47.228	19.100	1024.164	806.011
48.242	19.209	1023.337	805.798
49.257	19.253	1022.256	805.082
50.271	19.347	1021.765	805.062
51.286	19.288	1020.662	803.848
52.301	19.368	1019.829	803.494
53.315	19.305	1018.958	802.443
54.330	19.239	1018.262	801.517
55.344	19.360	1017.278	801.235
56.359	19.392	1015.661	800.039
57.374	19.081	1015.187	798.150
58.388	19.192	1014.451	798.016
59.403	19.116	1013.405	796.773
60.417	18.969	1012.453	795.274
61.432	19.117	1011.825	795.393
62.447	19.203	1011.341	795.337
63.461	19.178	1010.504	794.496
64.476	19.159	1009.070	793.211
65.490	18.969	1008.462	791.788
66.505	19.055	1007.917	791.685
67.520	19.159	1007.088	791.443
68.534	18.982	1006.220	789.878
69.549	18.760	1004.739	787.627
70.563	18.774	1004.372	787.334
71.578	18.803	1003.396	786.631
72.593	18.577	1002.497	784.823
73.607	18.760	1002.072	785.258
74.622	19.037	1001.668	786.137
75.636	19.098	1000.259	785.241
76.651	18.869	999.870	783.821
77.666	18.711	999.180	782.489
78.680	18.889	998.370	782.598
79.695	19.022	997.509	782.458
80.709	19.086	997.093	782.352
81.724	18.970	996.376	781.195
82.739	19.026	995.626	780.793
83.753	19.317	994.882	781.459
84.768	19.528	994.230	781.832
85.782	19.491	993.373	780.922
86.797	19.462	992.209	779.807
87.812	19.293	991.073	778.083
88.826	19.521	989.461	777.776
89.841	19.653	988.712	777.711
90.855	19.609	987.594	776.569
91.870	19.537	987.025	775.728
92.884	19.237	985.983	773.492
93.899	19.165	984.937	772.283
94.914	19.578	984.230	773.507
95.928	19.311	983.321	771.532
96.943	19.152	981.992	769.710
97.957	18.967	981.048	768.074
98.972	18.730	979.717	765.906
99.987	19.112	979.018	766.998
101.001	19.322	978.146	767.179
102.016	19.327	977.323	766.491
103.030	19.178	976.575	765.174
104.045	18.929	975.713	763.324
105.060	18.858	974.386	761.903
106.074	19.101	973.861	762.502
107.089	19.546	973.245	763.923
108.103	19.321	971.950	761.842
109.118	19.180	970.609	760.104
110.133	19.073	970.021	759.103
111.147	19.052	968.442	757.708
112.162	18.811	967.527	755.864
113.176	19.049	967.030	756.456
114.191	18.970	965.864	755.129
115.206	18.699	964.900	753.120
116.220	18.702	963.903	752.290
117.235	18.856	963.159	752.317
118.249	18.877	962.102	751.515
119.264	18.824	961.643	750.860
120.279	18.975	960.360	750.451
121.293	19.054	959.957	750.414
122.308	18.941	959.114	749.193
123.322	18.851	957.719	747.647
124.337	18.785	956.303	746.191
125.352	18.381	954.973	743.335
126.366	18.319	953.586	741.920
127.381	19.022	953.171	744.575
128.395	19.472	952.849	746.201
129.410	19.357	952.334	745.238
130.424	19.416	950.896	744.301
131.439	19.282	950.089	743.024
132.454	19.350	949.232	742.582
133.468	19.260	948.060	741.214
134.483	19.400	947.362	741.201
135.497	19.502	946.486	740.888
136.512	19.601	945.525	740.497
137.527	19.701	944.577	740.114
138.541	19.592	943.849	739.015
139.556	19.506	943.224	738.093
140.570	19.613	942.717	738.088
141.585	19.560	941.288	736.677
142.600	19.497	940.429	735.672
143.614	19.838	939.358	736.217
144.629	19.834	938.679	735.605
145.643	19.762	937.383	734.218
146.658	19.528	936.708	732.633
147.673	19.450	935.237	731.086
148.687	19.430	934.329	730.226
149.702	19.452	933.613	729.695
150.716	19.371	932.820	728.668
151.731	19.472	932.128	728.492
152.746	19.611	931.653	728.643
153.760	19.753	930.874	728.566
154.775	19.768	930.258	728.082
155.789	19.714	929.220	726.979
156.804	19.753	928.526	726.536
157.819	19.748	927.616	725.737
158.833	19.783	926.896	725.258
159.848	19.789	926.070	724.574
160.862	19.707	924.791	723.163
161.877	19.644	923.968	722.195
162.892	19.739	922.994	721.766
163.906	19.664	922.233	720.795
164.921	19.701	921.279	720.138
165.935	19.863	920.377	720.043
166.950	19.841	919.258	719.012
167.964	19.855	918.516	718.428
168.979	19.632	917.546	716.680
169.994	19.546	916.610	715.528
171.008	19.811	916.296	716.320
172.023	19.724	915.236	715.066
173.037	19.626	913.524	713.259
174.052	19.462	913.020	712.128
175.067	19.585	912.492	712.161
176.081	19.587	912.470	712.086
177.096	19.408	911.488	710.521
178.110	19.354	910.363	709.360
179.125	19.208	909.769	708.231
180.140	19.136	909.844	707.932
181.154	19.267	908.788	707.585
182.169	19.669	908.585	709.017
183.183	19.722	908.198	708.870
184.198	19.589	907.226	707.504
185.213	19.637	906.657	707.191
186.227	19.751	905.801	706.930
187.242	19.713	905.273	706.298
188.256	19.893	904.151	706.096
189.271	19.748	903.509	704.941
190.286	19.686	902.464	703.808
191.300	19.148	901.298	700.648
192.315	18.384	899.767	696.292
193.329	18.268	899.540	695.584
194.344	19.165	900.055	699.565
195.359	19.664	899.942	701.444
196.373	19.679	899.136	700.813
197.388	19.549	898.193	699.489
198.402	19.573	897.616	699.077
199.417	19.514	896.854	698.183
200.432	19.186	895.577	695.800
201.446	19.126	894.911	694.979
202.461	19.198	894.541	694.920
203.475	18.353	892.813	690.112
204.490	17.649	891.852	686.476
205.504	18.568	892.228	690.406
206.519	19.219	891.791	692.623
207.534	19.381	891.455	692.955
208.548	19.680	891.351	694.012
209.563	19.495	889.738	691.952
210.577	19.464	889.441	691.538
211.592	19.798	889.157	692.591
212.607	19.684	888.299	691.408
213.621	19.738	887.839	691.202
214.636	19.779	887.087	690.719
215.650	19.667	886.358	689.644
216.665	19.863	885.800	689.932
217.680	19.812	884.633	688.759
218.694	19.276	883.585	685.749
219.709	19.186	882.969	684.851
220.723	19.517	882.665	685.872
221.738	19.633	881.836	685.627
222.753	19.709	881.404	685.532
223.767	19.809	880.559	685.209
224.782	19.858	880.554	685.339
225.796	19.813	879.906	684.597
226.811	19.280	878.456	681.301
227.826	18.742	877.101	678.067
228.840	18.814	876.564	677.874
229.855	19.160	875.273	678.181
230.869	18.637	874.438	675.414
231.884	18.965	874.663	676.821
232.899	19.736	874.561	679.715
233.913	19.729	873.620	678.896
234.928	19.537	873.400	677.909
235.942	19.580	872.791	677.546
236.957	19.308	871.685	675.562
237.972	19.572	870.919	675.943
238.986	19.449	870.640	675.186
240.001	19.385	870.072	674.434
241.015	19.506	869.483	674.390
242.030	19.592	869.042	674.325
243.045	19.741	868.074	674.093
244.059	19.857	867.832	674.298
245.074	19.537	867.136	672.454
246.088	19.169	865.850	669.963
247.103	19.625	865.606	671.489
248.117	20.132	865.227	673.105
249.132	20.213	864.597	672.871
250.147	20.337	864.096	672.901
251.161	20.424	863.371	672.613
252.176	20.348	863.063	672.020
253.190	20.492	862.379	671.985
254.205	20.624	862.157	672.264
255.220	20.550	861.376	671.307
256.234	20.445	860.513	670.170
257.249	20.229	860.018	668.892
258.263	20.347	859.433	668.832
259.278	20.444	858.883	668.722
260.293	20.441	858.121	668.057
261.307	20.221	857.360	666.558
262.322	20.141	856.316	665.381
263.336	19.327	854.430	660.737
264.351	18.267	852.657	655.254
265.366	18.543	852.177	655.881
266.380	19.677	852.948	660.757
267.395	20.142	852.577	662.187
268.409	20.026	851.718	661.018
269.424	20.144	851.317	661.101
270.439	20.232	850.921	661.067
271.453	20.313	850.544	661.028
272.468	20.576	850.200	661.701
273.482	20.493	849.137	660.500
274.497	20.208	848.005	658.480
275.512	19.874	847.003	656.375
276.526	20.153	847.249	657.568
277.541	20.391	847.025	658.238
278.555	19.885	845.951	655.428
279.570	19.948	844.873	654.773
280.585	20.246	844.334	655.424
281.599	20.098	843.420	654.098
282.614	19.673	842.031	651.359
283.628	19.756	841.534	651.232
284.643	19.990	841.555	652.072
285.657	19.542	840.309	649.365
286.672	19.316	839.749	648.022
287.687	20.022	839.301	650.273
288.701	19.767	839.332	649.282
289.716	19.585	838.375	647.802
290.730	19.692	837.589	647.539
291.745	19.279	836.595	645.166
292.760	19.679	836.644	646.643
293.774	20.585	836.917	650.185
294.789	20.968	836.547	651.271
295.803	20.918	836.130	650.705
296.818	20.972	835.285	650.191
297.833	20.510	833.866	647.307
298.847	20.268	833.931	646.399
299.862	20.702	833.524	647.642
300.876	20.917	833.041	648.008
301.891	20.745	832.153	646.623
302.906	20.357	830.833	644.099
303.920	20.511	830.687	644.500
304.935	20.675	830.763	645.110
305.949	20.615	830.003	644.243
306.964	20.517	829.316	643.287
307.979	20.630	828.737	643.200
308.993	20.891	828.859	644.204
310.008	21.075	827.705	643.930
311.022	20.532	827.363	641.601
312.037	20.690	826.372	641.357
313.052	20.492	825.559	639.940
314.066	19.596	824.051	635.422
315.081	19.358	823.471	634.045
316.095	20.103	824.111	637.221
317.110	20.515	823.686	638.348
318.125	19.727	822.368	634.379
319.139	18.781	821.121	629.895
320.154	18.878	820.551	629.756
321.168	19.678	820.941	632.933
322.183	20.333	821.149	635.434
323.197	20.478	820.748	635.597
324.212	20.686	820.345	635.989
325.227	20.764	819.632	635.667
326.241	20.774	818.678	634.908
327.256	20.522	818.460	633.764
328.270	20.348	818.012	632.727
329.285	20.236	816.914	631.414
330.300	20.111	816.004	630.198
331.314	20.243	815.867	630.517
332.329	20.535	815.805	631.474
333.343	20.749	815.099	631.648
334.358	20.702	814.599	631.036
335.373	20.699	814.490	630.883
336.387	20.964	814.447	631.756
337.402	21.072	814.138	631.851
338.416	21.063	813.599	631.342
339.431	21.104	813.270	631.181
340.446	21.276	812.962	631.510
341.460	21.079	812.503	630.382
342.475	20.915	811.799	629.191
343.489	21.045	811.664	629.498
344.504	21.264	811.314	629.960
345.519	21.333	810.960	629.882
346.533	21.485	810.263	629.828
347.548	21.476	810.306	629.775
348.562	21.400	809.442	628.773
349.577	21.525	808.570	628.490
350.592	21.503	807.705	627.682
351.606	21.524	807.165	627.283
352.621	21.392	806.328	626.106
353.635	21.322	805.716	625.322
354.650	20.740	803.880	621.766
355.665	19.825	802.760	617.579
356.679	20.047	802.831	618.372
357.694	20.574	802.258	619.755
358.708	20.325	802.274	618.824
359.723	20.895	801.493	620.198
360.738	21.164	800.928	620.663
361.752	21.264	800.727	620.805
362.767	21.497	800.506	621.408
363.781	21.773	799.895	621.857
364.796	21.805	799.630	621.709
365.810	21.868	799.323	621.638
366.825	21.837	798.767	621.043
367.840	21.504	798.175	619.347
368.854	21.113	797.476	617.367
369.869	21.183	797.193	617.343
370.883	21.190	796.429	616.721
371.898	21.045	796.071	615.876
372.913	21.210	795.523	615.980
373.927	21.328	795.374	616.225
374.942	21.415	795.223	616.363
375.956	21.415	795.015	616.145
376.971	21.641	794.067	616.152
377.986	21.738	793.807	616.237
379.000	21.604	793.642	615.582
380.015	21.614	792.487	614.666
381.029	21.598	791.809	614.031
382.044	21.807	791.619	614.562
383.059	21.641	791.322	613.695
384.073	21.829	790.580	613.723
385.088	21.782	789.932	613.003
386.102	21.548	789.426	611.739
387.117	21.602	788.732	611.335
388.132	21.174	787.418	608.770
389.146	20.711	786.669	606.525
390.161	21.165	786.768	608.128
391.175	21.565	786.606	609.344
392.190	21.210	785.635	607.301
393.205	20.031	783.630	601.606
394.219	18.654	781.934	595.475
395.234	18.641	782.169	595.556
396.248	20.117	783.332	601.517
397.263	21.404	783.711	606.217
398.278	21.466	783.338	606.092
399.292	21.211	782.951	604.856
400.307	21.414	781.996	604.766
401.321	21.379	782.042	604.628
402.336	21.820	781.755	605.877
403.350	21.994	781.906	606.540
404.365	22.179	781.156	606.543
405.380	22.587	780.772	607.599
406.394	22.423	780.510	606.775
407.409	22.322	779.950	605.939
408.423	22.239	779.478	605.232
409.438	22.386	779.521	605.719
410.453	22.385	778.679	605.005
411.467	22.527	778.216	605.081
412.482	22.330	777.798	604.027
413.496	22.416	777.572	604.092
414.511	22.455	776.869	603.628
415.526	22.531	776.724	603.723
416.540	22.441	775.845	602.677
417.555	22.150	775.250	601.167
418.569	22.211	774.949	601.086
419.584	22.175	774.482	600.550
420.599	21.867	773.931	599.018
421.613	159.078	1362.425	1798.473
422.628	137.314	1448.146	1798.577
