DTS Sentinel unit serial number:	SN413079Multiplexer serial number:	ORYXHardware model number:	OX4-SRSoftware version number:	ORYX F/W v4.00 Oryx Data Collector v3.7.2.0data status	okinstallation	princeton_trtdifferential loss correction	single-endedforward channel	channel 1reverse channel	N/Adate	2019/09/19time	10:02:35forward acquisition time	60.00reverse acquisition time	0.00gamma	496.2192k internal	0.2339k external	0.2339temperature offset calibration	1.0004default loss term (dB/km)	0.3790temperature slope calibration	1.0000multiplexer offset coefficient	1.0000multiplexer slope coefficient	1.0000fibre end	0.00T internal ref (°C)	23.78T ext. ref 1 (°C)	0.67T ext. ref 2 (°C)	19.56length (m)	temperature (°C)	Stokes	anti-Stokes-747.200	-133.672	0.157	-0.020
-746.185	-25.758	0.163	0.096
-745.171	-59.823	0.046	-0.020
-744.156	-2.928	-0.240	0.168
-743.142	153.486	-0.087	0.120
-742.127	-200.000	0.014	-0.161
-741.112	-66.645	0.109	-0.043
-740.098	800.000	0.002	-0.008
-739.083	-12.610	-0.109	-0.071
-738.069	-20.441	-0.174	-0.107
-737.054	-200.000	0.015	0.331
-736.039	-66.026	-0.363	0.145
-735.025	490.462	0.077	-0.176
-734.010	-200.000	0.015	0.120
-732.996	-3.350	0.076	-0.053
-731.981	-106.864	0.085	-0.019
-730.966	-102.182	-0.098	-0.024
-729.952	-138.027	0.250	-0.028
-728.937	70.336	0.176	-0.182
-727.923	800.000	0.020	0.080
-726.908	126.386	0.092	-0.117
-725.894	139.111	-0.034	-0.044
-724.879	136.896	0.048	0.063
-723.864	-200.000	0.099	-0.487
-722.850	-68.538	-0.201	0.078
-721.835	800.000	-0.061	0.203
-720.821	800.000	0.063	-0.183
-719.806	-173.034	-0.040	0.001
-718.791	133.441	-0.276	-0.358
-717.777	-84.718	0.277	-0.087
-716.762	-200.000	-0.029	0.194
-715.748	-127.684	-0.040	0.006
-714.733	723.154	0.057	-0.152
-713.718	-185.416	-0.123	-0.002
-712.704	-73.305	0.368	0.135
-711.689	198.205	-0.136	0.208
-710.675	-21.936	0.203	-0.124
-709.660	2.895	-0.228	0.166
-708.645	-104.938	-0.185	0.042
-707.631	-14.966	-0.333	-0.214
-706.616	775.593	-0.036	-0.098
-705.602	-65.117	0.210	-0.085
-704.587	-200.000	-0.006	0.056
-703.572	-200.000	-0.047	0.279
-702.558	-74.003	-0.168	-0.061
-701.543	-37.685	0.461	-0.246
-700.529	2.634	0.133	0.097
-699.514	-9.891	-0.252	0.168
-698.499	111.888	0.131	-0.158
-697.485	54.637	-0.144	0.139
-696.470	0.915	-0.054	0.038
-695.456	-200.000	0.006	0.031
-694.441	800.000	-0.036	-0.145
-693.426	-54.055	0.144	-0.066
-692.412	-108.373	-0.195	0.042
-691.397	194.421	0.152	-0.231
-690.383	-200.000	-0.025	0.229
-689.368	-26.077	0.120	0.071
-688.354	367.819	-0.253	-0.511
-687.339	218.878	-0.112	-0.179
-686.324	-200.000	-0.057	0.293
-685.310	800.000	-0.067	0.237
-684.295	-189.644	-0.280	-0.003
-683.281	-51.549	-0.082	0.038
-682.266	800.000	0.069	-0.222
-681.251	-200.000	0.066	-0.317
-680.237	-160.019	0.055	0.003
-679.222	-155.422	-0.566	-0.037
-678.208	-26.249	0.113	-0.066
-677.193	-50.860	-0.237	0.112
-676.178	33.915	-0.217	0.189
-675.164	-154.204	0.317	0.021
-674.149	14.736	-0.182	0.142
-673.135	800.000	0.060	0.202
-672.120	-200.000	0.004	-0.084
-671.105	-76.256	0.151	-0.053
-670.091	-150.818	-0.383	-0.029
-669.076	800.000	-0.044	-0.191
-668.062	-28.542	0.209	-0.121
-667.047	34.022	-0.131	0.114
-666.032	106.421	0.128	-0.151
-665.018	-136.605	0.418	-0.048
-664.003	-22.697	-0.126	0.076
-662.989	14.476	0.170	-0.133
-661.974	-200.000	0.039	-0.259
-660.959	-133.600	0.236	0.030
-659.945	-63.529	0.139	0.057
-658.930	291.649	-0.103	-0.187
-657.916	-200.000	-0.005	-0.113
-656.901	-166.178	0.173	0.007
-655.886	-200.000	-0.006	0.126
-654.872	-115.603	0.315	-0.059
-653.857	499.551	-0.152	-0.350
-652.843	-200.000	-0.033	-0.184
-651.828	-125.952	0.165	-0.025
-650.814	259.754	0.046	-0.079
-649.799	-170.137	0.183	-0.006
-648.784	-3.177	-0.405	-0.282
-647.770	38.019	-0.346	-0.307
-646.755	59.514	-0.120	-0.118
-645.741	-63.136	-0.153	0.063
-644.726	-8.248	0.027	-0.018
-643.711	-200.000	-0.013	-0.542
-642.697	-61.861	-0.195	0.082
-641.682	-138.696	-0.112	-0.012
-640.668	-88.367	0.252	-0.075
-639.653	-200.000	-0.012	-0.147
-638.638	444.941	-0.009	0.021
-637.624	-200.000	-0.045	-0.305
-636.609	122.031	-0.041	-0.051
-635.595	800.000	0.129	-0.377
-634.580	38.690	0.357	0.318
-633.565	-68.081	-0.410	-0.160
-632.551	800.000	-0.019	-0.067
-631.536	451.687	0.030	0.065
-630.522	-78.993	-0.282	0.096
-629.507	114.630	0.014	0.017
-628.492	-123.749	-0.114	-0.018
-627.478	-62.658	-0.263	-0.109
-626.463	-200.000	0.014	-0.151
-625.449	-200.000	0.017	-0.358
-624.434	-200.000	-0.037	-0.330
-623.419	-200.000	-0.071	-0.352
-622.405	-31.847	0.093	-0.052
-621.390	191.314	0.115	-0.173
-620.376	96.494	-0.151	-0.173
-619.361	-122.786	-0.096	-0.016
-618.346	800.000	-0.034	-0.124
-617.332	158.486	0.111	-0.154
-616.317	-62.514	0.077	-0.032
-615.303	-140.382	0.396	-0.041
-614.288	-68.063	0.058	0.023
-613.273	-200.000	-0.010	-0.227
-612.259	-132.886	0.219	-0.028
-611.244	82.032	0.125	-0.135
-610.230	-13.062	-0.221	-0.144
-609.215	161.171	-0.050	-0.069
-608.201	-174.425	-0.286	0.008
-607.186	45.400	0.112	-0.103
-606.171	-24.496	-0.083	0.049
-605.157	-200.000	-0.039	-0.362
-604.142	-25.148	-0.111	-0.066
-603.128	-5.552	-0.355	-0.243
-602.113	21.926	-0.178	0.145
-601.098	-115.922	-0.145	-0.027
-600.084	-81.373	-0.107	0.035
-599.069	562.809	0.095	0.230
-598.055	-128.518	-0.246	0.035
-597.040	-169.642	0.338	0.012
-596.025	127.225	0.237	0.300
-595.011	-200.000	-0.014	-0.085
-593.996	56.423	0.038	0.036
-592.982	-200.000	-0.006	-0.033
-591.967	-200.000	-0.014	0.101
-590.952	72.462	0.116	0.121
-589.938	-62.656	0.082	0.034
-588.923	363.953	-0.098	-0.196
-587.909	122.534	-0.133	-0.166
-586.894	-156.973	-0.109	-0.007
-585.879	-200.000	-0.035	0.209
-584.865	-52.430	0.075	-0.034
-583.850	800.000	-0.144	-0.536
-582.836	-129.820	0.199	-0.027
-581.821	30.035	0.217	0.185
-580.806	-148.906	0.113	0.009
-579.792	-58.227	0.239	0.103
-578.777	-200.000	0.021	-0.295
-577.763	800.000	0.071	-0.274
-576.748	131.368	-0.088	0.113
-575.733	334.536	-0.185	-0.357
-574.719	-134.533	0.199	0.024
-573.704	-200.000	0.016	-0.586
-572.690	-96.649	-0.176	0.046
-571.675	-54.309	0.053	-0.024
-570.661	-200.000	0.006	-0.331
-569.646	22.946	0.280	-0.228
-568.631	137.936	-0.115	-0.150
-567.617	-200.000	-0.053	-0.306
-566.602	800.000	-0.084	0.238
-565.588	-200.000	-0.042	-0.209
-564.573	459.788	-0.175	0.387
-563.558	218.997	0.267	0.425
-562.544	11.224	-0.240	-0.183
-561.529	-69.145	0.166	0.063
-560.515	104.354	-0.211	-0.247
-559.500	800.000	-0.154	-0.448
-558.485	-100.254	-0.354	-0.088
-557.471	171.392	-0.059	0.084
-556.456	-64.568	0.207	-0.084
-555.442	-105.586	0.128	0.029
-554.427	157.355	0.036	-0.049
-553.412	216.253	-0.213	0.338
-552.398	97.838	0.018	-0.020
-551.383	-23.725	-0.328	-0.196
-550.369	56.645	0.110	0.106
-549.354	-108.094	0.157	0.034
-548.339	-90.662	0.202	0.058
-547.325	662.383	0.067	0.173
-546.310	-83.065	-0.151	-0.048
-545.296	-56.471	-0.150	-0.066
-544.281	-53.633	-0.218	0.099
-543.266	224.579	-0.101	0.162
-542.252	154.152	0.092	-0.126
-541.237	-124.264	0.182	-0.028
-540.223	-140.929	0.293	-0.030
-539.208	-35.171	-0.257	0.139
-538.193	-200.000	-0.015	-0.281
-537.179	-54.948	0.417	0.187
-536.164	-54.277	-0.064	0.029
-535.150	-80.486	0.345	0.114
-534.135	8.889	0.216	0.162
-533.121	-53.529	0.161	0.073
-532.106	30.042	-0.164	-0.139
-531.091	-89.246	-0.088	0.026
-530.077	361.902	-0.116	-0.231
-529.062	73.060	0.263	-0.274
-528.048	-45.917	0.040	0.020
-527.033	166.981	0.227	-0.321
-526.018	151.833	0.151	0.205
-525.004	-200.000	0.030	-0.392
-523.989	500.851	-0.051	-0.117
-522.975	153.465	-0.082	-0.112
-521.960	-200.000	0.077	0.368
-520.945	-116.807	-0.088	0.016
-519.931	334.992	0.050	0.096
-518.916	-54.172	0.530	-0.239
-517.902	-72.833	-0.326	0.119
-516.887	-182.093	-0.172	-0.003
-515.872	-77.857	0.195	-0.067
-514.858	-44.762	-0.279	0.138
-513.843	615.092	-0.029	0.073
-512.829	-109.291	-0.234	-0.049
-511.814	800.000	0.046	-0.143
-510.799	800.000	-0.062	0.185
-509.785	800.000	-0.028	-0.083
-508.770	-116.733	-0.324	0.059
-507.756	-7.369	0.298	-0.200
-506.741	800.000	-0.108	0.300
-505.726	309.966	-0.094	-0.174
-504.712	40.095	-0.065	-0.058
-503.697	114.870	-0.171	-0.207
-502.683	-121.540	0.322	-0.053
-501.668	-200.000	-0.032	0.482
-500.653	-200.000	0.100	0.459
-499.639	18.599	0.090	0.071
-498.624	800.000	-0.084	-0.359
-497.610	175.354	0.208	0.300
-496.595	19.717	-0.236	-0.189
-495.581	-200.000	0.044	-0.196
-494.566	628.527	0.025	0.064
-493.551	298.904	-0.179	-0.328
-492.537	-87.692	0.414	-0.124
-491.522	-200.000	-0.002	0.204
-490.508	56.736	-0.219	-0.212
-489.493	86.202	-0.076	0.083
-488.478	127.453	-0.211	-0.266
-487.464	800.000	0.040	-0.115
-486.449	58.176	0.196	0.190
-485.435	332.325	-0.146	-0.280
-484.420	73.766	-0.424	-0.441
-483.405	-129.861	-0.370	0.050
-482.391	26.076	-0.294	0.243
-481.376	-41.571	0.209	0.107
-480.362	602.342	0.049	0.122
-479.347	13.900	-0.121	-0.093
-478.332	-200.000	0.008	-0.189
-477.318	-155.582	-0.306	-0.020
-476.303	-20.314	0.179	-0.109
-475.289	-200.000	-0.027	0.352
-474.274	15.968	-0.255	0.199
-473.259	-200.000	-0.023	-0.105
-472.245	251.662	0.169	-0.286
-471.230	-80.689	0.114	0.038
-470.216	-200.000	-0.031	-0.145
-469.201	401.906	-0.085	0.178
-468.186	483.883	-0.067	0.150
-467.172	-200.000	0.046	-0.420
-466.157	246.973	0.201	0.336
-465.143	137.405	0.187	0.243
-464.128	-187.941	0.159	-0.002
-463.113	-200.000	-0.027	0.160
-462.099	-200.000	0.130	-0.000
-461.084	-200.000	0.024	-0.224
-460.070	-128.335	-0.138	-0.020
-459.055	-145.126	0.142	0.013
-458.040	-10.214	-0.125	0.082
-457.026	-200.000	-0.018	0.111
-456.011	196.434	-0.106	-0.160
-454.997	181.505	0.279	0.406
-453.982	800.000	-0.059	-0.229
-452.968	-35.091	-0.431	-0.233
-451.953	222.415	0.075	0.119
-450.938	32.260	0.182	0.156
-449.924	-200.000	-0.019	-0.085
-448.909	-129.730	-0.068	-0.009
-447.895	-116.330	-0.229	-0.042
-446.880	-200.000	0.063	-0.481
-445.865	83.760	0.054	-0.059
-444.851	149.163	-0.230	-0.309
-443.836	737.219	-0.062	-0.164
-442.822	-157.932	-0.082	0.005
-441.807	756.006	-0.068	0.183
-440.792	800.000	0.100	-0.319
-439.778	274.850	-0.245	0.431
-438.763	-62.912	-0.197	0.081
-437.749	598.591	-0.072	-0.176
-436.734	800.000	-0.074	0.208
-435.719	-200.000	0.061	0.542
-434.705	509.305	-0.045	-0.103
-433.690	217.742	-0.138	0.219
-432.676	800.000	0.061	-0.190
-431.661	75.818	0.186	0.195
-430.646	-93.503	0.362	0.099
-429.632	-53.685	0.230	-0.104
-428.617	-89.393	-0.211	-0.062
-427.603	-200.000	0.018	0.124
-426.588	122.748	0.061	0.075
-425.573	120.644	0.126	0.155
-424.559	68.023	0.024	-0.024
-423.544	-52.118	-0.106	0.049
-422.530	13.193	-0.152	-0.117
-421.515	-200.000	0.062	0.407
-420.500	-139.982	-0.401	0.042
-419.486	-164.058	0.243	0.011
-418.471	56.227	0.125	0.120
-417.457	-55.066	0.172	0.077
-416.442	67.709	-0.302	0.306
-415.428	131.615	0.215	-0.274
-414.413	-88.398	-0.480	-0.142
-413.398	-7.770	0.106	-0.071
-412.384	-100.741	-0.124	0.030
-411.369	-15.835	-0.236	-0.149
-410.355	111.780	-0.194	0.232
-409.340	-200.000	-0.049	-0.244
-408.325	-36.551	0.160	-0.085
-407.311	800.000	0.063	-0.224
-406.296	-104.536	0.287	0.066
-405.282	800.000	0.113	-0.332
-404.267	-19.698	-0.301	-0.184
-403.252	58.748	-0.298	0.289
-402.238	-124.961	-0.252	0.038
-401.223	-164.499	0.121	-0.005
-400.209	-42.192	0.167	-0.084
-399.194	59.337	0.280	0.273
-398.179	18.853	0.039	0.031
-397.165	-200.000	-0.021	0.142
-396.150	72.973	-0.108	-0.111
-395.136	58.325	0.103	0.100
-394.121	372.587	-0.111	0.222
-393.106	194.902	0.079	0.118
-392.092	169.384	-0.062	0.087
-391.077	-122.317	-0.093	-0.015
-390.063	-111.955	0.403	-0.080
-389.048	257.890	-0.061	0.104
-388.033	-91.120	-0.481	0.137
-387.019	-101.193	0.141	0.034
-386.004	-87.301	-0.102	0.031
-384.990	-3.212	-0.079	-0.055
-383.975	-200.000	-0.019	0.125
-382.960	75.004	0.102	-0.107
-381.946	-109.145	0.169	-0.035
-380.931	-24.427	0.050	-0.030
-379.917	386.741	0.173	0.353
-378.902	264.182	0.099	-0.170
-377.888	-117.667	0.174	0.031
-376.873	-97.078	-0.121	0.031
-375.858	429.515	-0.050	0.107
-374.844	-200.000	-0.031	-0.247
-373.829	-38.585	0.331	-0.173
-372.815	264.092	0.033	0.057
-371.800	134.049	0.093	-0.119
-370.785	800.000	-0.027	0.108
-369.771	-53.771	-0.262	-0.118
-368.756	19.253	-0.072	-0.057
-367.742	-142.460	-0.349	0.034
-366.727	6.511	-0.118	0.086
-365.712	-87.593	-0.223	0.067
-364.698	-74.263	0.228	0.081
-363.683	-47.222	-0.139	0.067
-362.669	88.627	0.092	-0.101
-361.654	-97.539	-0.156	0.040
-360.639	-200.000	0.041	0.586
-359.625	48.415	-0.125	0.116
-358.610	152.732	0.115	0.156
-357.596	-70.583	-0.256	0.096
-356.581	403.354	0.022	-0.046
-355.566	-30.245	-0.238	-0.134
-354.552	519.104	-0.028	-0.066
-353.537	800.000	0.040	0.165
-352.523	-71.119	0.149	0.055
-351.508	-12.072	-0.184	0.119
-350.493	77.763	-0.028	-0.029
-349.479	800.000	-0.003	-0.012
-348.464	-56.082	0.061	0.027
-347.450	-76.964	-0.208	0.072
-346.435	472.344	0.020	0.045
-345.420	76.599	0.151	0.158
-344.406	-111.570	-0.089	-0.018
-343.391	-200.000	-0.088	0.385
-342.377	-71.951	0.196	-0.072
-341.362	399.959	0.044	-0.091
-340.348	-200.000	0.010	0.047
-339.333	800.000	-0.023	-0.088
-338.318	218.801	0.132	0.208
-337.304	270.259	-0.186	0.324
-336.289	-71.882	0.342	0.126
-335.275	-2.364	0.112	-0.077
-334.260	204.072	0.073	-0.112
-333.245	-12.032	-0.111	0.071
-332.231	-106.357	-0.274	-0.060
-331.216	-14.305	0.239	0.152
-330.202	-9.675	0.390	0.257
-329.187	-144.316	-0.266	-0.024
-328.172	-39.067	0.154	0.080
-327.158	-200.000	0.040	-0.228
-326.143	-3.287	0.100	0.068
-325.129	-82.840	0.217	-0.069
-324.114	-21.752	-0.208	0.125
-323.099	800.000	-0.036	-0.108
-322.085	408.255	0.108	0.226
-321.070	124.394	-0.133	0.165
-320.056	54.484	-0.093	-0.089
-319.041	102.228	0.035	0.040
-318.026	-200.000	-0.032	-0.229
-317.012	800.000	0.032	-0.094
-315.997	-151.726	0.217	0.016
-314.983	-5.011	0.325	-0.221
-313.968	-200.000	-0.014	0.306
-312.953	46.167	-0.125	0.114
-311.939	140.349	0.235	-0.306
-310.924	341.679	-0.077	0.148
-309.910	495.099	0.045	-0.103
-308.895	-13.733	-0.062	0.040
-307.880	164.250	0.134	0.187
-306.866	-200.000	0.016	0.112
-305.851	800.000	0.069	-0.214
-304.837	-147.719	0.217	-0.018
-303.822	80.316	-0.115	0.122
-302.807	194.239	0.122	-0.182
-301.793	270.273	-0.160	-0.278
-300.778	173.632	-0.071	-0.102
-299.764	488.261	-0.100	-0.225
-298.749	160.512	0.071	-0.097
-297.735	-79.661	-0.103	0.034
-296.720	-81.782	0.142	0.046
-295.705	55.829	0.269	0.257
-294.691	800.000	0.061	0.229
-293.676	-37.006	-0.100	0.053
-292.662	-60.256	0.174	0.073
-291.647	77.421	-0.216	0.227
-290.632	-109.112	0.309	-0.065
-289.618	-79.600	-0.288	0.096
-288.603	304.158	0.152	0.278
-287.589	172.947	-0.130	0.184
-286.574	800.000	-0.102	0.306
-285.559	800.000	-0.057	0.168
-284.545	54.228	0.327	-0.310
-283.530	800.000	-0.079	-0.243
-282.516	-131.710	0.603	0.078
-281.501	146.243	0.203	0.268
-280.486	-200.000	0.016	-0.333
-279.472	-200.000	-0.058	-0.340
-278.457	800.000	0.120	0.384
-277.443	-123.614	-0.473	-0.074
-276.428	-133.552	0.083	0.010
-275.413	-200.000	-0.022	0.154
-274.399	800.000	-0.067	0.225
-273.384	192.822	-0.107	-0.159
-272.370	800.000	0.041	-0.167
-271.355	216.702	0.034	-0.053
-270.340	124.350	0.078	0.097
-269.326	532.411	-0.052	0.122
-268.311	-200.000	0.022	-0.147
-267.297	-57.725	0.355	-0.153
-266.282	-125.247	-0.368	0.055
-265.267	494.730	0.119	0.270
-264.253	-200.000	0.085	0.415
-263.238	424.909	0.007	-0.015
-262.224	800.000	-0.109	0.303
-261.209	-174.145	-0.182	0.005
-260.195	596.149	-0.067	0.164
-259.180	-116.873	0.386	-0.070
-258.165	97.220	-0.337	-0.381
-257.151	-63.173	0.182	0.074
-256.136	119.564	0.108	-0.132
-255.122	45.825	-0.120	0.109
-254.107	223.451	0.098	-0.155
-253.092	-200.000	0.023	0.181
-252.078	-85.877	0.473	0.144
-251.063	646.674	0.179	0.449
-250.049	-171.639	0.312	0.010
-249.034	-115.485	-0.128	0.024
-248.019	-200.000	-0.049	0.213
-247.005	-136.900	-0.522	-0.059
-245.990	-175.110	0.134	-0.004
-244.976	-26.155	0.410	0.237
-243.961	9.305	0.198	0.147
-242.946	-135.882	-0.064	-0.007
-241.932	-92.373	0.050	-0.014
-240.917	-88.005	0.232	-0.068
-239.903	-58.762	0.254	-0.108
-238.888	-200.000	0.057	0.417
-237.873	-18.865	0.262	-0.160
-236.859	167.408	-0.167	-0.233
-235.844	0.678	0.302	0.213
-234.830	-99.934	0.066	-0.016
-233.815	33.741	0.073	-0.062
-232.800	74.503	-0.030	-0.031
-231.786	524.105	-0.197	-0.455
-230.771	223.552	0.104	-0.165
-229.757	150.126	0.191	0.254
-228.742	-77.402	-0.221	0.076
-227.727	-70.986	0.111	0.041
-226.713	-91.353	-0.224	0.063
-225.698	-129.162	-0.287	0.039
-224.684	-200.000	0.040	-0.257
-223.669	-77.134	0.210	-0.072
-222.655	-106.178	0.303	-0.067
-221.640	-200.000	0.079	0.360
-220.625	340.388	0.069	-0.132
-219.611	317.983	0.142	0.265
-218.596	-200.000	-0.046	0.212
-217.582	-72.532	-0.501	-0.182
-216.567	-111.105	-0.245	0.049
-215.552	-46.443	0.230	0.111
-214.538	-111.061	-0.211	-0.043
-213.523	194.916	0.236	0.352
-212.509	-200.000	0.061	-0.479
-211.494	-103.317	0.072	-0.017
-210.479	8.230	0.067	-0.049
-209.465	-122.206	-0.232	0.037
-208.450	81.983	0.361	-0.384
-207.436	-130.308	-0.064	0.009
-206.421	-106.855	-0.340	0.074
-205.406	-158.072	0.351	0.020
-204.392	-55.780	-0.151	0.066
-203.377	-113.893	0.151	-0.029
-202.363	391.923	0.014	-0.028
-201.348	-3.596	-0.076	-0.052
-200.333	-100.016	0.144	-0.035
-199.319	9.002	-0.043	-0.032
-198.304	12.663	0.066	-0.050
-197.290	800.000	0.094	0.272
-196.275	800.000	-0.124	0.344
-195.260	256.526	0.008	0.013
-194.246	728.020	-0.079	0.207
-193.231	-68.903	-0.142	0.054
-192.217	-200.000	0.138	0.000
-191.202	800.000	0.125	0.457
-190.187	276.314	-0.101	0.177
-189.173	334.684	-0.140	0.266
-188.158	61.005	-0.098	-0.095
-187.144	-200.000	-0.002	0.148
-186.129	637.334	0.028	-0.069
-185.114	-95.217	-0.123	0.033
-184.100	395.841	-0.065	-0.133
-183.085	292.501	0.164	0.293
-182.071	-200.000	0.027	-0.200
-181.056	1.744	0.174	-0.123
-180.042	175.294	-0.130	0.184
-179.027	32.499	0.130	0.110
-178.012	-200.000	-0.042	0.265
-176.998	-94.866	-0.252	0.067
-175.983	-200.000	0.030	-0.196
-174.969	345.854	-0.011	0.022
-173.954	-32.388	-0.040	0.022
-172.939	35.851	0.202	0.174
-171.925	-70.143	-0.104	-0.039
-170.910	-119.885	-0.148	-0.025
-169.896	-200.000	0.025	-0.179
-168.881	-200.000	-0.007	0.194
-167.866	800.000	0.059	0.247
-166.852	169.088	0.153	-0.214
-165.837	800.000	-0.045	-0.161
-164.823	800.000	-0.088	0.344
-163.808	-27.726	0.204	-0.116
-162.793	800.000	0.003	0.009
-161.779	-107.235	0.302	-0.065
-160.764	-76.099	-0.287	0.099
-159.750	-120.534	-0.225	-0.037
-158.735	68.409	0.299	-0.301
-157.720	-200.000	0.087	0.413
-156.706	-98.667	-0.205	-0.051
-155.691	-68.153	-0.386	-0.147
-154.677	-89.864	0.085	-0.024
-153.662	150.591	-0.120	0.159
-152.647	-0.949	0.200	-0.139
-151.633	-64.703	-0.095	-0.038
-150.618	44.328	0.155	-0.139
-149.604	800.000	-0.091	-0.298
-148.589	163.710	0.240	-0.331
-147.574	267.475	-0.048	0.082
-146.560	-65.464	-0.063	0.025
-145.545	-53.701	0.066	-0.029
-144.531	-200.000	0.000	-0.003
-143.516	165.963	-0.068	-0.094
-142.502	800.000	0.071	-0.199
-141.487	-200.000	-0.035	-0.320
-140.472	-122.504	0.111	-0.018
-139.458	-200.000	-0.050	0.267
-138.443	800.000	0.058	0.194
-137.429	-200.000	-0.006	-0.090
-136.414	65.488	0.190	0.188
-135.399	-90.725	0.453	0.128
-134.385	-200.000	-0.026	-0.251
-133.370	-145.396	-0.215	-0.019
-132.356	142.975	0.174	0.226
-131.341	-186.724	0.396	-0.005
-130.326	213.742	-0.162	0.251
-129.312	320.170	0.188	0.349
-128.297	800.000	-0.029	-0.089
-127.283	88.981	0.176	0.192
-126.268	60.974	-0.130	0.127
-125.253	-200.000	-0.016	0.193
-124.239	-87.698	-0.082	-0.024
-123.224	-154.295	0.078	-0.005
-122.210	-168.076	-0.096	-0.004
-121.195	-23.122	-0.251	-0.148
-120.180	4.862	0.335	0.241
-119.166	10.742	0.146	0.109
-118.151	67.624	-0.262	-0.262
-117.137	88.374	-0.252	0.274
-116.122	566.207	0.120	-0.285
-115.107	379.778	-0.143	-0.287
-114.093	-200.000	-0.022	-0.256
-113.078	122.547	-0.058	0.071
-112.064	800.000	-0.036	-0.129
-111.049	63.350	0.131	0.129
-110.034	363.598	0.123	0.241
-109.020	38.649	0.227	0.198
-108.005	-200.000	-0.076	-0.332
-106.991	536.128	0.099	-0.230
-105.976	357.738	-0.179	-0.349
-104.962	-170.217	0.240	-0.008
-103.947	-200.000	0.032	0.178
-102.932	-77.071	0.125	0.043
-101.918	-62.631	-0.154	-0.062
-100.903	-33.620	0.286	-0.154
-99.889	-77.425	0.365	-0.124
-98.874	235.718	0.062	0.100
-97.859	-200.000	-0.047	-0.237
-96.845	-200.000	0.035	0.196
-95.830	-98.806	0.315	-0.078
-94.816	36.609	-0.105	0.091
-93.801	-42.478	-0.182	-0.091
-92.786	324.414	0.060	-0.111
-91.772	190.827	0.225	0.331
-90.757	235.462	-0.127	-0.205
-89.743	154.122	0.145	-0.195
-88.728	-200.000	0.010	-0.128
-87.713	-68.637	-0.253	-0.096
-86.699	-96.478	0.314	-0.081
-85.684	-127.628	0.383	-0.054
-84.670	-38.710	0.219	-0.113
-83.655	-200.000	0.052	-0.316
-82.640	800.000	0.083	0.276
-81.626	-44.018	-0.238	0.117
-80.611	-200.000	0.003	-0.058
-79.597	800.000	-0.053	-0.181
-78.582	-106.531	0.284	-0.062
-77.567	800.000	-0.101	0.312
-76.553	-133.508	0.135	-0.017
-75.538	130.738	-0.213	-0.266
-74.524	-41.736	0.024	-0.012
-73.509	-6.759	0.112	-0.075
-72.494	116.752	-0.096	-0.115
-71.480	162.046	0.180	0.246
-70.465	604.902	0.040	-0.097
-69.451	-100.357	0.164	0.040
-68.436	-75.494	0.328	0.114
-67.422	84.922	-0.036	0.038
-66.407	-93.884	0.018	0.005
-65.392	10.845	-0.220	0.164
-64.378	-200.000	0.586	0.000
-63.363	430.251	0.114	0.242
-62.349	-109.173	-0.448	0.093
-61.334	106.140	-1.126	-1.301
-60.319	66.131	0.670	0.664
-59.305	-200.000	-0.110	-1.178
-58.290	284.354	0.926	1.626
-57.276	-200.000	0.275	1.416
-56.261	-200.000	121.738	619.652
-55.246	388.248	1566.509	3164.138
-54.232	140.542	2742.060	3534.141
-53.217	94.757	2183.139	2423.496
-52.203	35.554	1610.269	1380.085
-51.188	26.936	1351.828	1106.272
-50.173	24.363	1313.922	1059.944
-49.159	51.442	1380.735	1280.079
-48.144	48.479	1393.107	1273.431
-47.130	27.176	1341.173	1098.830
-46.115	23.894	1322.738	1064.083
-45.100	23.826	1317.122	1059.116
-44.086	23.684	1315.460	1056.891
-43.071	23.646	1312.711	1054.416
-42.057	23.604	1310.813	1052.599
-41.042	23.614	1309.286	1051.390
-40.027	23.732	1307.210	1050.379
-39.013	23.682	1305.504	1048.670
-37.998	23.739	1303.790	1047.592
-36.984	23.722	1302.589	1046.483
-35.969	23.857	1299.824	1045.016
-34.954	23.896	1298.061	1043.783
-33.940	23.753	1297.454	1042.418
-32.925	23.759	1296.371	1041.542
-31.911	23.805	1294.667	1040.401
-30.896	23.899	1292.952	1039.528
-29.881	23.921	1291.872	1038.748
-28.867	23.977	1290.635	1038.042
-27.852	23.913	1289.140	1036.422
-26.838	23.939	1287.505	1035.220
-25.823	23.932	1286.811	1034.581
-24.809	23.896	1285.301	1033.117
-23.794	23.734	1283.925	1031.029
-22.779	23.815	1282.888	1030.625
-21.765	24.003	1281.093	1030.227
-20.750	23.868	1280.443	1028.886
-19.736	23.782	1279.165	1027.319
-18.721	23.808	1277.583	1026.156
-17.706	23.728	1276.670	1024.925
-16.692	23.817	1275.048	1024.096
-15.677	23.719	1274.375	1022.944
-14.663	23.686	1273.143	1021.729
-13.648	23.651	1272.298	1020.807
-12.633	23.766	1270.865	1020.277
-11.619	23.697	1270.437	1019.499
-10.604	23.651	1269.647	1018.557
-9.590	23.620	1269.038	1017.850
-8.575	23.677	1267.849	1017.183
-7.560	23.729	1266.903	1016.685
-6.546	23.691	1265.816	1015.554
-5.531	23.645	1265.338	1014.866
-4.517	23.658	1264.416	1014.160
-3.502	23.753	1263.016	1013.538
-2.487	23.788	1262.400	1013.205
-1.473	23.720	1258.117	1009.340
-0.458	22.428	1243.866	990.606
0.556	18.268	1228.395	956.193
1.571	14.816	1236.590	943.041
2.586	14.089	1251.849	950.434
3.600	14.162	1239.323	941.257
4.615	10.590	1166.306	866.674
5.629	3.913	1093.853	779.218
6.644	0.828	1076.167	751.249
7.659	0.674	1074.298	749.111
8.673	0.519	1073.937	748.025
9.688	0.670	1072.234	747.520
10.702	0.898	1070.122	747.107
11.717	4.932	1074.934	770.375
12.731	11.809	1083.948	810.946
13.746	15.989	1089.676	835.941
14.761	17.032	1090.547	841.710
15.775	16.411	1088.690	837.128
16.790	15.447	1086.187	830.364
17.804	14.883	1084.670	826.343
18.819	14.458	1083.435	823.231
19.834	14.051	1083.190	820.962
20.848	13.867	1082.252	819.267
21.863	13.692	1080.974	817.367
22.877	13.462	1080.509	815.811
23.892	13.523	1079.449	815.236
24.907	13.533	1078.780	814.708
25.921	13.554	1078.258	814.345
26.936	13.505	1077.755	813.653
27.950	13.626	1076.201	813.004
28.965	13.720	1075.125	812.580
29.980	13.629	1073.860	811.106
30.994	13.722	1072.739	810.642
32.009	13.726	1071.808	809.885
33.023	13.761	1070.870	809.275
34.038	13.722	1069.883	808.269
35.053	13.611	1068.917	806.926
36.067	13.588	1068.327	806.300
37.082	13.669	1067.212	805.778
38.096	13.668	1066.284	805.004
39.111	13.667	1065.674	804.466
40.126	13.559	1064.292	802.827
41.140	13.542	1062.969	801.678
42.155	13.584	1061.901	801.005
43.169	13.454	1061.102	799.701
44.184	13.486	1060.121	799.045
45.199	13.406	1059.165	797.871
46.213	13.433	1057.671	796.801
47.228	13.639	1056.419	796.782
48.242	13.605	1055.217	795.638
49.257	13.563	1054.710	794.983
50.271	13.590	1053.736	794.308
51.286	13.649	1053.040	794.000
52.301	13.545	1052.100	792.722
53.315	13.573	1051.256	792.148
54.330	13.558	1050.105	791.138
55.344	13.564	1048.938	790.218
56.359	13.577	1048.162	789.629
57.374	13.415	1047.641	788.393
58.388	13.455	1046.646	787.766
59.403	13.525	1045.572	787.219
60.417	13.417	1045.170	786.336
61.432	13.452	1044.267	785.753
62.447	13.276	1043.369	784.172
63.461	13.325	1042.537	783.711
64.476	13.418	1041.617	783.386
65.490	13.380	1040.773	782.505
66.505	13.362	1040.162	781.892
67.520	13.479	1039.320	781.743
68.534	13.510	1038.537	781.227
69.549	13.546	1037.787	780.767
70.563	13.519	1036.737	779.780
71.578	13.459	1036.029	778.897
72.593	13.513	1034.913	778.241
73.607	13.480	1034.296	777.554
74.622	13.368	1034.061	776.780
75.636	13.435	1033.146	776.343
76.651	13.356	1032.932	775.743
77.666	13.353	1032.101	775.036
78.680	13.365	1031.381	774.480
79.695	13.431	1030.805	774.286
80.709	13.438	1030.138	773.751
81.724	13.307	1029.570	772.643
82.739	13.499	1029.087	773.111
83.753	13.683	1027.816	772.944
84.768	13.562	1027.204	771.854
85.782	13.556	1026.163	770.974
86.797	13.638	1025.313	770.647
87.812	13.521	1024.343	769.309
88.826	13.575	1023.179	768.614
89.841	13.589	1022.617	768.192
90.855	13.765	1021.114	767.807
91.870	13.653	1020.650	766.874
92.884	13.679	1019.863	766.336
93.899	13.494	1019.641	765.246
94.914	13.792	1017.901	765.244
95.928	13.672	1017.268	764.149
96.943	13.758	1016.248	763.710
97.957	13.707	1015.493	762.844
98.972	13.573	1014.907	761.717
99.987	13.616	1013.952	761.132
101.001	13.707	1013.080	760.828
102.016	13.701	1011.894	759.843
103.030	13.661	1011.160	759.038
104.045	13.853	1010.181	759.118
105.060	13.646	1009.812	757.827
106.074	13.559	1008.789	756.594
107.089	13.655	1007.473	755.975
108.103	13.516	1006.868	754.825
109.118	13.612	1005.740	754.347
110.133	13.565	1005.375	753.791
111.147	13.590	1004.102	752.886
112.162	13.612	1003.401	752.392
113.176	13.614	1002.771	751.862
114.191	13.761	1001.448	751.472
115.206	13.623	1000.934	750.393
116.220	13.690	999.989	749.920
117.235	13.688	999.293	749.326
118.249	13.660	998.150	748.272
119.264	13.715	997.378	747.880
120.279	13.660	997.002	747.284
121.293	13.585	996.153	746.244
122.308	13.539	994.916	745.044
123.322	13.604	994.355	744.848
124.337	13.590	992.888	743.622
125.352	13.662	992.182	743.349
126.366	13.557	991.198	742.077
127.381	13.655	989.818	741.415
128.395	13.625	988.665	740.354
129.410	13.743	987.740	740.120
130.424	13.691	987.199	739.417
131.439	13.592	986.169	738.141
132.454	13.582	985.434	737.480
133.468	13.596	984.592	736.845
134.483	13.692	983.820	736.632
135.497	13.539	983.131	735.369
136.512	13.620	982.063	734.864
137.527	13.648	981.178	734.262
138.541	13.678	980.660	733.941
139.556	13.739	979.815	733.514
140.570	13.827	979.138	733.333
141.585	13.782	978.621	732.679
142.600	13.853	977.076	731.771
143.614	13.938	976.201	731.427
144.629	13.864	975.910	730.816
145.643	13.831	974.806	729.783
146.658	13.842	973.679	728.920
147.673	13.824	972.803	728.125
148.687	13.655	971.928	726.664
149.702	13.773	971.343	726.680
150.716	13.766	970.323	725.821
151.731	13.723	969.859	725.221
152.746	13.816	968.724	724.712
153.760	13.910	967.863	724.416
154.775	13.798	967.799	723.813
155.789	13.988	966.864	723.881
156.804	13.970	966.135	723.190
157.819	13.880	965.574	722.318
158.833	14.071	964.655	722.394
159.848	14.004	963.918	721.489
160.862	14.048	962.865	720.828
161.877	13.877	962.460	719.719
162.892	13.961	960.920	718.867
163.906	13.800	960.278	717.627
164.921	13.925	958.922	717.089
165.935	13.977	958.148	716.671
166.950	13.975	957.414	716.051
167.964	13.999	956.710	715.563
168.979	13.921	955.915	714.568
169.994	14.042	954.974	714.324
171.008	13.926	954.190	713.177
172.023	14.007	953.865	713.218
173.037	14.223	952.808	713.291
174.052	14.025	952.207	711.928
175.067	14.009	951.442	711.226
176.081	14.061	950.857	710.948
177.096	14.015	950.347	710.307
178.110	14.020	949.737	709.808
179.125	14.010	949.078	709.211
180.140	14.035	948.639	708.928
181.154	14.169	948.178	709.091
182.169	14.181	947.180	708.332
183.183	14.351	946.455	708.450
184.198	14.291	945.831	707.665
185.213	14.307	944.980	707.037
186.227	14.252	944.370	706.281
187.242	14.351	944.058	706.408
188.256	14.338	943.425	705.818
189.271	14.323	942.705	705.151
190.286	14.277	941.640	704.100
191.300	14.092	941.449	703.109
192.315	14.179	940.490	702.697
193.329	14.198	940.092	702.418
194.344	14.294	939.371	702.224
195.359	14.333	938.061	701.346
196.373	14.466	937.507	701.431
197.388	14.338	937.420	700.766
198.402	14.388	936.845	700.483
199.417	14.456	935.944	700.034
200.432	14.463	935.542	699.701
201.446	14.535	935.152	699.647
202.461	14.434	934.975	699.030
203.475	14.477	934.144	698.527
204.490	14.541	933.120	697.969
205.504	14.472	932.673	697.283
206.519	14.438	931.700	696.352
207.534	14.560	931.015	696.286
208.548	14.421	930.880	695.543
209.563	14.477	929.768	694.887
210.577	14.595	929.209	694.897
211.592	14.621	928.510	694.423
212.607	14.770	927.277	694.059
213.621	14.523	926.754	692.578
214.636	14.566	926.173	692.262
215.650	14.665	925.177	691.866
216.665	14.743	924.336	691.500
217.680	14.686	923.718	690.740
218.694	14.765	923.258	690.661
219.709	14.689	922.329	689.591
220.723	14.735	921.742	689.280
221.738	14.857	920.523	688.812
222.753	14.844	920.251	688.494
223.767	14.808	919.959	688.066
224.782	14.854	919.610	687.934
225.796	14.808	919.093	687.296
226.811	14.854	918.563	687.028
227.826	14.848	917.420	686.088
228.840	14.761	916.830	685.229
229.855	14.852	916.177	685.055
230.869	14.840	915.226	684.234
231.884	14.905	914.270	683.722
232.899	14.829	913.796	682.997
233.913	14.904	913.227	682.818
234.928	14.797	912.516	681.789
235.942	14.705	912.168	681.095
236.957	14.735	911.772	680.861
237.972	14.791	911.031	680.476
238.986	14.870	909.989	679.959
240.001	14.853	909.434	679.413
241.015	14.830	908.851	678.827
242.030	14.841	908.414	678.482
243.045	15.119	907.208	678.649
244.059	14.965	906.943	677.769
245.074	15.125	906.167	677.773
246.088	15.069	905.613	677.074
247.103	15.000	905.140	676.380
248.117	14.971	905.118	676.190
249.132	15.175	904.041	676.147
250.147	15.180	903.662	675.824
251.161	15.295	902.521	675.372
252.176	15.186	902.151	674.599
253.190	15.309	901.162	674.295
254.205	15.361	900.625	674.043
255.220	15.238	900.170	673.146
256.234	15.290	899.814	673.031
257.249	15.330	898.699	672.296
258.263	15.384	897.551	671.595
259.278	15.357	897.233	671.189
260.293	15.382	896.675	670.812
261.307	15.374	896.446	670.549
262.322	15.483	895.699	670.369
263.336	15.575	894.496	669.776
264.351	15.441	894.046	668.846
265.366	15.529	893.967	669.076
266.380	15.561	893.022	668.436
267.395	15.649	892.109	668.046
268.409	15.522	891.730	667.196
269.424	15.448	890.684	666.061
270.439	15.551	890.222	666.066
271.453	15.505	889.375	665.192
272.468	15.547	888.834	664.893
273.482	15.641	888.316	664.822
274.497	15.590	887.760	664.143
275.512	15.654	886.864	663.667
276.526	15.526	886.896	663.126
277.541	15.698	886.429	663.399
278.555	15.738	885.454	662.766
279.570	15.746	885.039	662.429
280.585	15.700	884.371	661.687
281.599	15.639	883.039	660.395
282.614	15.784	882.635	660.604
283.628	15.737	881.848	659.770
284.643	15.740	881.732	659.637
285.657	15.699	880.933	658.822
286.672	15.798	879.896	658.375
287.687	15.802	879.663	658.160
288.701	15.827	879.104	657.779
289.716	15.884	878.386	657.405
290.730	15.873	877.839	656.898
291.745	15.934	877.158	656.567
292.760	15.899	876.603	655.957
293.774	15.912	876.089	655.565
294.789	16.129	875.306	655.766
295.803	16.045	874.576	654.833
296.818	15.889	873.814	653.598
297.833	15.860	873.416	653.130
298.847	15.936	872.624	652.775
299.862	15.981	871.895	652.348
300.876	15.947	871.552	651.901
301.891	15.955	871.181	651.595
302.906	16.037	870.515	651.356
303.920	16.208	869.745	651.385
304.935	16.320	869.268	651.400
305.949	16.082	868.651	649.966
306.964	16.196	868.082	649.919
307.979	16.065	867.611	649.005
308.993	16.112	866.699	648.446
310.008	16.226	866.136	648.404
311.022	16.271	865.578	648.105
312.037	16.198	864.961	647.303
313.052	16.073	864.787	646.636
314.066	16.059	864.281	646.149
315.081	16.243	863.341	646.094
316.095	16.122	862.956	645.284
317.110	16.228	862.014	644.928
318.125	16.287	861.590	644.779
319.139	16.193	861.337	644.173
320.154	16.371	860.604	644.246
321.168	16.273	860.361	643.636
322.183	16.385	859.398	643.285
323.197	16.369	859.056	642.910
324.212	16.188	858.658	641.867
325.227	16.308	858.066	641.821
326.241	16.349	857.443	641.456
327.256	16.252	856.978	640.684
328.270	16.380	856.132	640.481
329.285	16.275	855.759	639.747
330.300	16.511	854.640	639.744
331.314	16.327	854.366	638.787
332.329	16.497	853.998	639.098
333.343	16.478	853.863	638.868
334.358	16.427	853.440	638.305
335.373	16.512	852.362	637.761
336.387	16.510	852.519	637.817
337.402	16.429	852.353	637.330
338.416	16.538	852.106	637.500
339.431	16.549	851.423	636.973
340.446	16.498	851.194	636.552
341.460	16.631	850.541	636.508
342.475	16.681	850.056	636.279
343.489	16.644	849.670	635.794
344.504	16.702	849.025	635.470
345.519	16.853	848.628	635.685
346.533	16.834	847.813	634.947
347.548	16.711	847.774	634.402
348.562	16.711	846.704	633.544
349.577	16.797	846.152	633.398
350.592	16.799	845.532	632.886
351.606	16.703	844.895	631.994
352.621	16.745	844.656	631.914
353.635	16.781	843.927	631.446
354.650	16.717	843.373	630.738
355.665	16.738	842.858	630.378
356.679	16.852	842.151	630.215
357.694	16.852	841.403	629.599
358.708	16.829	841.031	629.181
359.723	16.933	840.114	628.825
360.738	16.915	839.687	628.382
361.752	16.852	839.151	627.692
362.767	16.943	838.628	627.583
363.781	17.191	837.626	627.695
364.796	17.127	836.955	626.900
365.810	17.138	837.052	626.957
366.825	17.188	836.772	626.876
367.840	17.126	836.186	626.153
368.854	17.201	835.721	626.025
369.869	17.058	835.158	625.021
370.883	17.240	834.906	625.448
371.898	17.106	834.583	624.659
372.913	17.156	834.394	624.645
373.927	17.088	833.928	623.990
374.942	17.247	833.120	623.915
375.956	17.294	832.620	623.656
376.971	17.227	832.441	623.222
377.986	17.288	831.923	623.003
379.000	17.270	831.388	622.480
380.015	17.421	830.516	622.327
381.029	17.403	830.180	621.954
382.044	17.486	829.593	621.761
383.059	17.381	829.057	620.922
384.073	17.349	828.534	620.360
385.088	17.440	827.714	620.021
386.102	17.411	827.348	619.588
387.117	17.330	826.943	618.932
388.132	17.455	826.141	618.734
389.146	17.381	825.683	618.065
390.161	17.452	824.979	617.741
391.175	17.479	824.634	617.528
392.190	17.487	824.349	617.287
393.205	17.409	823.804	616.544
394.219	17.497	823.350	616.468
395.234	17.548	822.947	616.295
396.248	17.527	822.258	615.650
397.263	17.545	822.032	615.490
398.278	17.403	821.830	614.771
399.292	17.397	821.685	614.589
400.307	17.538	820.899	614.453
401.321	17.544	820.592	614.190
402.336	17.565	819.860	613.663
403.350	17.511	819.432	613.096
404.365	17.740	819.020	613.558
405.380	17.593	818.752	612.774
406.394	17.809	817.438	612.510
407.409	17.712	817.393	612.076
408.423	17.798	817.083	612.099
409.438	17.868	816.774	612.065
410.453	17.718	816.618	611.354
411.467	17.807	816.122	611.246
412.482	17.866	815.313	610.798
413.496	17.962	815.236	611.030
414.511	17.776	815.294	610.353
415.526	17.811	814.482	609.817
416.540	17.807	813.907	609.317
417.555	17.940	813.175	609.192
418.569	17.934	812.861	608.879
419.584	18.047	812.393	608.879
420.599	18.019	811.722	608.221
421.613	114.365	1299.365	1487.184
422.628	98.942	1370.387	1487.260
