DTS Sentinel unit serial number:	SN413079Multiplexer serial number:	ORYXHardware model number:	OX4-SRSoftware version number:	ORYX F/W v4.00 Oryx Data Collector v3.7.2.0data status	okinstallation	princeton_trtdifferential loss correction	single-endedforward channel	channel 1reverse channel	N/Adate	2019/09/18time	20:50:35forward acquisition time	60.00reverse acquisition time	0.00gamma	496.2192k internal	0.2339k external	0.2339temperature offset calibration	1.0026default loss term (dB/km)	0.3790temperature slope calibration	1.0000multiplexer offset coefficient	1.0000multiplexer slope coefficient	1.0000fibre end	0.00T internal ref (°C)	27.06T ext. ref 1 (°C)	0.94T ext. ref 2 (°C)	18.30length (m)	temperature (°C)	Stokes	anti-Stokes-747.200	-68.905	-0.206	0.080
-746.185	351.224	-0.205	0.407
-745.171	259.216	-0.080	-0.139
-744.156	409.942	0.232	0.493
-743.142	-44.000	0.103	0.052
-742.127	29.987	-0.187	0.160
-741.112	4.685	-0.306	-0.226
-740.098	749.804	-0.068	0.184
-739.083	51.492	0.308	0.293
-738.069	-51.767	-0.202	-0.095
-737.054	-114.777	0.187	0.036
-736.039	-90.290	-0.110	-0.032
-735.025	229.388	-0.157	0.258
-734.010	-173.489	-0.147	0.004
-732.996	-174.378	-0.309	0.009
-731.981	800.000	0.101	-0.295
-730.966	115.265	-0.123	0.151
-729.952	-119.099	-0.235	0.041
-728.937	-200.000	-0.033	-0.289
-727.923	277.572	-0.209	-0.374
-726.908	-191.910	0.134	-0.001
-725.894	-200.000	-0.048	-0.361
-724.879	-144.341	0.180	-0.017
-723.864	372.317	0.034	-0.069
-722.850	800.000	0.077	-0.324
-721.835	-111.093	0.089	0.018
-720.821	351.917	-0.102	0.202
-719.806	154.168	-0.103	-0.142
-718.791	535.646	0.053	0.126
-717.777	-93.307	0.117	-0.033
-716.762	-200.000	0.002	0.102
-715.748	-200.000	0.062	0.278
-714.733	58.694	0.192	0.189
-713.718	32.452	0.070	0.060
-712.704	-155.976	-0.166	0.011
-711.689	-27.653	0.145	0.085
-710.675	19.117	-0.300	-0.241
-709.660	221.141	-0.146	0.234
-708.645	7.686	-0.109	-0.082
-707.631	721.988	0.042	0.112
-706.616	33.540	-0.206	-0.180
-705.602	-116.784	0.149	0.027
-704.587	195.525	-0.110	-0.168
-703.572	-182.024	0.166	-0.003
-702.558	646.318	-0.086	-0.219
-701.543	5.557	0.233	-0.172
-700.529	-200.000	0.021	0.202
-699.514	535.947	-0.041	-0.097
-698.499	264.849	0.076	0.133
-697.485	-200.000	0.048	0.227
-696.470	-28.028	0.073	0.042
-695.456	20.710	-0.063	-0.051
-694.441	-108.914	0.154	0.033
-693.426	-67.640	-0.096	-0.038
-692.412	-1.755	-0.200	-0.141
-691.397	800.000	0.029	-0.107
-690.383	16.762	-0.231	0.183
-689.368	120.988	0.211	-0.263
-688.354	-110.033	-0.260	-0.054
-687.339	205.397	-0.190	-0.295
-686.324	144.594	-0.082	0.109
-685.310	-133.875	0.278	-0.035
-684.295	-93.550	-0.233	0.064
-683.281	751.288	0.133	-0.359
-682.266	86.333	0.178	-0.196
-681.251	800.000	0.118	-0.353
-680.237	-200.000	0.039	-0.317
-679.222	5.130	-0.141	0.104
-678.208	-11.832	-0.177	0.116
-677.193	800.000	0.052	-0.163
-676.178	-200.000	0.002	0.113
-675.164	-200.000	-0.014	0.232
-674.149	-78.180	0.251	-0.086
-673.135	-200.000	-0.031	-0.296
-672.120	345.895	-0.150	0.294
-671.105	-104.689	0.033	-0.008
-670.091	-62.454	-0.526	-0.219
-669.076	396.403	0.104	0.217
-668.062	15.560	0.118	0.093
-667.047	755.321	-0.127	0.343
-666.032	-200.000	0.025	-0.183
-665.018	374.546	-0.061	-0.125
-664.003	114.759	0.220	-0.268
-662.989	280.204	0.144	0.258
-661.974	-39.073	0.114	0.060
-660.959	-132.700	-0.305	-0.039
-659.945	-11.488	-0.379	-0.250
-658.930	-200.000	0.009	-0.089
-657.916	800.000	0.088	0.254
-656.901	61.565	0.158	-0.157
-655.886	-200.000	0.021	-0.153
-654.872	-23.369	0.161	-0.097
-653.857	800.000	-0.121	-0.409
-652.843	234.737	-0.073	-0.120
-651.828	-97.441	-0.256	0.067
-650.814	234.984	0.049	-0.081
-649.799	53.460	0.157	-0.150
-648.784	253.826	-0.091	-0.155
-647.770	-30.343	0.019	-0.011
-646.755	-120.108	0.208	-0.035
-645.741	-141.138	-0.347	0.035
-644.726	762.431	-0.034	0.091
-643.711	-63.835	-0.164	-0.067
-642.697	-42.729	0.067	-0.034
-641.682	-27.113	0.169	0.098
-640.668	800.000	-0.098	-0.324
-639.653	18.204	-0.110	0.087
-638.638	-200.000	-0.010	-0.256
-637.624	677.977	0.102	0.266
-636.609	-128.026	0.159	0.023
-635.595	162.418	-0.116	0.162
-634.580	264.157	-0.149	0.259
-633.565	-61.522	-0.059	-0.025
-632.551	-137.526	-0.139	0.016
-631.536	67.896	0.121	0.124
-630.522	-99.353	-0.216	0.054
-629.507	-66.875	0.272	0.107
-628.492	-80.833	-0.169	0.056
-627.478	800.000	0.145	-0.419
-626.463	800.000	-0.074	-0.253
-625.449	-200.000	-0.048	-0.244
-624.434	-54.194	-0.140	0.063
-623.419	-41.499	-0.138	0.071
-622.405	-15.370	0.155	-0.099
-621.390	-62.304	0.058	0.024
-620.376	-64.306	-0.082	-0.033
-619.361	86.523	-0.212	-0.233
-618.346	13.487	0.262	-0.203
-617.332	52.334	0.093	-0.089
-616.317	-126.471	-0.342	0.051
-615.303	206.406	0.276	0.429
-614.288	98.129	0.116	-0.133
-613.273	294.995	0.023	-0.042
-612.259	757.462	-0.098	-0.265
-611.244	77.713	0.216	0.229
-610.230	-18.900	-0.250	0.155
-609.215	287.109	-0.255	-0.460
-608.201	-19.742	-0.255	0.157
-607.186	-72.549	0.369	-0.136
-606.171	-200.000	-0.048	0.263
-605.157	459.744	0.109	0.243
-604.142	249.806	-0.120	0.204
-603.128	12.995	0.581	-0.448
-602.113	-200.000	-0.054	0.382
-601.098	-200.000	-0.042	-0.238
-600.084	-84.012	-0.171	0.054
-599.069	-91.357	-0.139	-0.040
-598.055	800.000	-0.042	-0.159
-597.040	-34.577	-0.266	-0.145
-596.025	3.812	-0.344	-0.250
-595.011	-37.473	-0.044	0.024
-593.996	10.245	0.095	-0.072
-592.982	-50.462	-0.080	0.038
-591.967	800.000	-0.093	0.260
-590.952	103.753	0.046	-0.054
-589.938	800.000	0.037	-0.140
-588.923	273.968	-0.115	0.203
-587.909	250.374	0.156	0.264
-586.894	156.929	-0.121	0.167
-585.879	294.982	0.132	-0.241
-584.865	508.657	0.034	-0.078
-583.850	-78.110	0.181	-0.062
-582.836	384.755	-0.149	-0.306
-581.821	-29.241	-0.212	0.121
-580.806	181.519	-0.202	-0.296
-579.792	-117.732	-0.141	0.025
-578.777	125.711	-0.153	0.192
-577.763	-148.516	0.104	0.008
-576.748	7.988	0.205	-0.153
-575.733	-200.000	-0.022	0.115
-574.719	709.808	-0.082	0.216
-573.704	800.000	-0.077	0.215
-572.690	127.153	0.116	-0.146
-571.675	197.466	0.186	-0.283
-570.661	-126.047	-0.148	0.022
-569.646	-150.319	-0.210	0.016
-568.631	800.000	0.017	-0.060
-567.617	473.916	0.083	0.187
-566.602	-158.601	-0.195	0.011
-565.588	-8.971	0.215	0.144
-564.573	-90.313	0.411	0.119
-563.558	96.611	-0.228	0.260
-562.544	-1.532	0.036	-0.025
-561.529	800.000	0.051	0.158
-560.515	92.874	0.121	0.136
-559.500	262.234	0.123	0.212
-558.485	-93.138	-0.243	0.067
-557.471	104.785	0.281	-0.330
-556.456	-10.578	-0.199	-0.131
-555.442	-49.278	0.228	0.108
-554.427	800.000	0.081	0.235
-553.412	110.645	0.125	0.149
-552.398	-200.000	0.007	-0.217
-551.383	-77.286	-0.059	-0.020
-550.369	-117.466	0.110	0.020
-549.354	-23.800	-0.066	-0.039
-548.339	-76.997	-0.651	0.226
-547.325	-140.550	-0.398	-0.041
-546.310	-51.570	-0.412	0.191
-545.296	-85.263	0.294	-0.091
-544.281	165.639	-0.083	-0.116
-543.266	800.000	-0.070	0.194
-542.252	-56.020	-0.296	0.131
-541.237	-38.762	-0.208	0.109
-540.223	157.781	0.062	-0.085
-539.208	-200.000	-0.053	0.370
-538.193	764.382	0.115	0.312
-537.179	307.661	-0.116	0.215
-536.164	-12.843	0.296	-0.192
-535.150	-84.670	0.048	-0.015
-534.135	39.311	0.258	-0.230
-533.121	453.498	-0.060	0.132
-532.106	-44.909	0.125	0.062
-531.091	743.236	0.084	0.226
-530.077	334.391	0.067	0.129
-529.062	71.838	-0.247	-0.256
-528.048	18.452	0.342	-0.272
-527.033	50.435	-0.216	-0.203
-526.018	-38.252	-0.243	0.128
-525.004	194.898	-0.072	-0.109
-523.989	2.129	-0.138	-0.099
-522.975	-6.513	0.188	-0.128
-521.960	-200.000	-0.008	-0.374
-520.945	532.281	0.075	-0.177
-519.931	-20.803	0.084	0.051
-518.916	5.282	-0.358	-0.262
-517.902	275.013	-0.065	-0.115
-516.887	72.490	0.208	-0.215
-515.872	506.477	-0.087	0.200
-514.858	-200.000	0.039	0.187
-513.843	92.786	0.248	0.278
-512.829	800.000	0.106	0.307
-511.814	800.000	0.043	0.143
-510.799	-107.163	0.226	-0.050
-509.785	-200.000	0.025	-0.201
-508.770	448.809	-0.033	0.073
-507.756	-200.000	-0.008	-0.114
-506.741	102.016	-0.211	0.245
-505.726	161.629	-0.027	0.037
-504.712	36.526	0.032	-0.028
-503.697	-200.000	0.021	0.194
-502.683	-61.650	-0.223	0.093
-501.668	12.698	-0.320	-0.246
-500.653	-69.083	-0.049	-0.019
-499.639	-164.419	-0.135	0.006
-498.624	147.798	0.092	0.123
-497.610	134.080	-0.150	-0.193
-496.595	580.086	-0.134	-0.327
-495.581	578.606	-0.034	-0.082
-494.566	-102.555	0.278	-0.066
-493.551	-27.794	0.025	-0.015
-492.537	-28.995	0.203	-0.116
-491.522	59.606	-0.072	0.071
-490.508	-41.475	-0.321	0.164
-489.493	85.743	0.281	-0.307
-488.478	218.694	-0.088	-0.139
-487.464	-145.338	0.292	0.026
-486.449	528.924	0.114	-0.268
-485.435	-146.115	0.150	0.013
-484.420	550.118	0.168	0.400
-483.405	437.031	-0.208	0.451
-482.391	15.997	0.293	-0.229
-481.376	242.694	0.130	0.216
-480.362	69.881	-0.148	0.152
-479.347	355.597	-0.101	-0.199
-478.332	800.000	-0.079	-0.279
-477.318	497.937	0.062	-0.142
-476.303	-155.887	0.125	-0.008
-475.289	-196.003	-0.271	-0.002
-474.274	-33.120	-0.091	0.050
-473.259	12.836	-0.186	0.143
-472.245	-49.625	-0.253	0.119
-471.230	-200.000	-0.010	-0.211
-470.216	-93.750	-0.154	0.042
-469.201	-200.000	-0.000	0.150
-468.186	-74.476	0.300	0.107
-467.172	153.504	-0.161	-0.218
-466.157	-200.000	-0.005	-0.281
-465.143	189.755	-0.170	-0.253
-464.128	290.048	0.098	0.176
-463.113	148.286	0.089	0.119
-462.099	-0.218	-0.157	0.111
-461.084	800.000	0.087	-0.245
-460.070	-35.981	0.265	0.142
-459.055	-130.529	0.355	0.048
-458.040	-134.828	-0.059	0.007
-457.026	28.884	-0.231	0.194
-456.011	88.917	-0.033	0.036
-454.997	-68.754	-0.176	0.068
-453.982	-61.245	0.123	-0.051
-452.968	366.159	-0.165	-0.329
-451.953	145.511	-0.311	-0.413
-450.938	800.000	0.117	0.485
-449.924	-130.937	-0.166	-0.022
-448.909	660.915	0.067	-0.171
-447.895	202.129	0.071	0.108
-446.880	24.515	0.289	0.237
-445.865	-200.000	0.026	0.471
-444.851	-200.000	-0.021	-0.189
-443.836	206.073	0.028	0.043
-442.822	-163.117	0.109	0.005
-441.807	149.882	-0.104	0.140
-440.792	-15.306	0.124	-0.079
-439.778	-200.000	-0.012	-0.084
-438.763	-200.000	-0.008	0.146
-437.749	-200.000	0.014	0.083
-436.734	-6.276	0.259	0.175
-435.719	-66.643	-0.258	0.101
-434.705	-200.000	0.048	0.276
-433.690	545.809	-0.087	-0.205
-432.676	-132.697	-0.172	-0.022
-431.661	436.670	0.117	0.251
-430.646	9.732	0.127	0.096
-429.632	106.228	-0.223	-0.262
-428.617	227.646	-0.065	0.105
-427.603	-120.423	-0.189	-0.032
-426.588	-200.000	-0.030	0.158
-425.573	-200.000	0.003	-0.346
-424.559	319.973	-0.177	0.333
-423.544	-93.342	0.248	-0.068
-422.530	800.000	-0.063	0.182
-421.515	-200.000	-0.055	0.338
-420.500	-200.000	0.032	0.409
-419.486	23.637	0.219	0.178
-418.471	-42.022	0.252	-0.128
-417.457	-119.924	-0.303	0.051
-416.442	19.683	0.160	-0.128
-415.428	-86.337	0.051	0.015
-414.413	770.272	-0.036	-0.097
-413.398	-7.566	0.384	0.257
-412.384	453.020	0.078	0.170
-411.369	28.981	0.225	-0.189
-410.355	-200.000	0.012	0.256
-409.340	341.652	0.018	-0.034
-408.325	694.914	-0.152	0.395
-407.311	63.509	0.041	-0.040
-406.296	197.667	0.139	0.210
-405.282	433.597	-0.068	0.147
-404.267	211.740	0.090	0.140
-403.252	800.000	-0.025	-0.071
-402.238	686.421	-0.102	-0.264
-401.223	-84.920	0.162	0.050
-400.209	49.958	-0.106	-0.099
-399.194	31.121	-0.029	0.024
-398.179	-200.000	-0.030	-0.193
-397.165	3.729	0.236	0.171
-396.150	8.402	0.323	0.241
-395.136	-38.644	0.350	0.183
-394.121	-89.199	-0.311	0.091
-393.106	-59.397	-0.261	-0.111
-392.092	-26.747	0.250	-0.145
-391.077	213.421	0.153	-0.239
-390.063	-34.428	0.157	0.085
-389.048	188.922	0.238	0.352
-388.033	187.994	0.076	-0.112
-387.019	12.822	0.201	-0.154
-386.004	-177.125	-0.194	0.005
-384.990	98.395	-0.161	0.184
-383.975	176.861	0.312	-0.448
-382.960	800.000	0.133	-0.405
-381.946	43.756	0.059	0.053
-380.931	-200.000	0.009	-0.058
-379.917	-158.833	-0.289	-0.016
-378.902	34.129	0.233	-0.201
-377.888	349.371	-0.204	-0.399
-376.873	59.826	0.018	-0.017
-375.858	-23.974	0.118	0.070
-374.844	-200.000	-0.003	-0.127
-373.829	226.040	0.045	0.072
-372.815	-200.000	0.086	-0.471
-371.800	153.765	-0.143	-0.194
-370.785	-0.021	0.132	-0.093
-369.771	-56.728	-0.041	-0.018
-368.756	-200.000	0.062	-0.338
-367.742	800.000	-0.079	-0.279
-366.727	-111.140	0.101	0.020
-365.712	71.800	0.148	0.152
-364.698	-39.801	-0.153	0.079
-363.683	129.518	-0.207	0.262
-362.669	-54.605	0.172	-0.077
-361.654	390.805	0.103	-0.212
-360.639	-23.499	0.055	0.032
-359.625	-151.686	0.079	-0.006
-358.610	-200.000	0.053	0.232
-357.596	428.590	-0.089	0.190
-356.581	-185.013	0.135	-0.002
-355.566	78.128	0.022	-0.023
-354.552	-170.154	0.281	-0.010
-353.537	430.080	0.150	-0.322
-352.523	65.033	0.056	-0.056
-351.508	15.654	-0.122	-0.095
-350.493	-58.385	0.192	-0.082
-349.479	-163.038	-0.071	-0.003
-348.464	800.000	-0.072	0.292
-347.450	-191.685	0.185	0.002
-346.435	91.503	-0.113	0.126
-345.420	-200.000	0.012	0.116
-344.406	800.000	0.024	0.067
-343.391	800.000	-0.083	-0.254
-342.377	-96.518	0.103	-0.027
-341.362	-200.000	0.011	0.263
-340.348	123.650	-0.072	-0.089
-339.333	37.303	-0.095	-0.083
-338.318	3.541	-0.162	-0.116
-337.304	-60.014	-0.131	-0.055
-336.289	-200.000	0.003	0.044
-335.275	-24.982	0.172	-0.101
-334.260	33.092	0.106	0.091
-333.245	-52.395	-0.431	-0.197
-332.231	230.342	0.251	-0.405
-331.216	36.530	-0.345	0.301
-330.202	118.202	0.110	0.134
-329.187	-155.997	0.193	0.012
-328.172	88.892	0.354	0.389
-327.158	800.000	-0.044	-0.174
-326.143	32.159	-0.212	-0.181
-325.129	646.203	-0.076	-0.192
-324.114	90.837	0.248	-0.275
-323.099	24.806	0.128	0.105
-322.085	234.942	-0.098	-0.160
-321.070	-200.000	0.016	-0.255
-320.056	-200.000	-0.040	-0.346
-319.041	-200.000	0.046	0.365
-318.026	-200.000	0.014	0.138
-317.012	-200.000	0.015	0.122
-315.997	193.934	-0.178	-0.266
-314.983	-200.000	-0.011	-0.286
-313.968	-197.831	0.346	0.002
-312.953	800.000	-0.093	-0.278
-311.939	800.000	0.100	-0.377
-310.924	400.407	-0.063	0.129
-309.910	800.000	-0.130	0.445
-308.895	-200.000	-0.011	0.146
-307.880	800.000	-0.026	0.072
-306.866	-43.729	0.333	0.165
-305.851	-200.000	0.010	0.228
-304.837	-200.000	0.047	0.224
-303.822	-42.563	0.094	0.047
-302.807	40.497	-0.028	0.025
-301.793	256.804	0.180	-0.305
-300.778	649.220	-0.149	-0.377
-299.764	-200.000	-0.001	0.037
-298.749	465.761	-0.048	-0.107
-297.735	87.049	0.066	0.072
-296.720	-200.000	0.040	-0.244
-295.705	-152.727	0.207	0.015
-294.691	-111.324	0.156	0.031
-293.676	534.903	-0.164	-0.382
-292.662	106.660	-0.048	0.056
-291.647	-26.611	-0.164	-0.095
-290.632	143.873	-0.108	0.142
-289.618	84.641	0.098	-0.106
-288.603	-104.056	-0.188	-0.043
-287.589	-11.103	-0.175	-0.114
-286.574	-44.112	0.031	-0.015
-285.559	60.508	0.159	0.155
-284.545	-200.000	-0.000	0.010
-283.530	800.000	0.085	0.277
-282.516	-200.000	-0.027	-0.242
-281.501	509.753	0.059	0.136
-280.486	800.000	-0.043	-0.163
-279.472	-200.000	-0.008	0.180
-278.457	-200.000	0.081	0.403
-277.443	-117.175	-0.138	-0.025
-276.428	240.517	-0.212	0.348
-275.413	116.210	0.199	-0.240
-274.399	189.135	-0.086	-0.127
-273.384	-147.250	0.145	0.012
-272.370	707.587	-0.078	0.203
-271.355	20.745	0.180	-0.144
-270.340	-200.000	0.042	-0.205
-269.326	-149.202	-0.230	-0.018
-268.311	-132.575	0.163	-0.021
-267.297	242.607	0.129	-0.213
-266.282	78.576	-0.168	0.176
-265.267	74.253	0.255	-0.263
-264.253	26.211	0.101	0.083
-263.238	756.822	-0.148	0.395
-262.224	-200.000	0.165	0.000
-261.209	1.257	-0.212	0.150
-260.195	-68.816	0.050	0.019
-259.180	8.812	-0.444	0.329
-258.165	-112.796	0.253	-0.049
-257.151	200.988	0.202	-0.306
-256.136	-40.416	-0.134	-0.068
-255.122	43.515	-0.133	0.120
-254.107	8.143	0.179	-0.132
-253.092	-112.940	-0.228	-0.044
-252.078	-106.781	0.187	-0.041
-251.063	-98.947	-0.222	0.055
-250.049	-51.762	0.196	0.090
-249.034	-16.958	-0.226	-0.140
-248.019	-200.000	0.040	0.366
-247.005	-15.475	-0.026	0.017
-245.990	783.172	0.168	0.452
-244.976	656.487	-0.165	0.416
-243.961	-55.016	-0.281	0.125
-242.946	-83.001	-0.077	0.024
-241.932	-200.000	0.007	0.178
-240.917	-181.928	0.380	0.007
-239.903	-94.511	0.141	0.038
-238.888	-200.000	-0.025	-0.165
-237.873	-16.560	-0.158	0.099
-236.859	212.172	-0.212	-0.328
-235.844	576.147	0.110	-0.265
-234.830	533.710	0.060	0.141
-233.815	800.000	-0.111	-0.346
-232.800	800.000	-0.097	-0.321
-231.786	162.222	-0.192	-0.265
-230.771	2.961	-0.114	-0.082
-229.757	74.024	0.108	-0.112
-228.742	-191.629	0.366	-0.004
-227.727	-125.425	0.353	0.053
-226.713	87.373	-0.039	-0.043
-225.698	-200.000	0.061	-0.451
-224.684	25.194	-0.154	0.126
-223.669	-23.781	-0.175	0.103
-222.655	31.643	0.116	0.098
-221.640	102.520	0.192	0.221
-220.625	-149.131	-0.338	-0.027
-219.611	-53.122	0.181	0.082
-218.596	-50.591	0.168	0.078
-217.582	19.162	-0.089	0.070
-216.567	-200.000	0.004	-0.185
-215.552	-121.736	-0.061	-0.010
-214.538	174.069	0.156	0.222
-213.523	-101.909	-0.171	-0.040
-212.509	-110.637	0.267	0.054
-211.494	9.277	0.218	0.162
-210.479	145.286	-0.194	0.255
-209.465	216.599	-0.092	0.144
-208.450	800.000	-0.009	0.030
-207.436	14.008	0.068	0.052
-206.421	-108.780	-0.263	-0.055
-205.406	-43.710	-0.126	-0.062
-204.392	-200.000	0.019	-0.343
-203.377	-200.000	0.203	-0.001
-202.363	800.000	0.021	-0.063
-201.348	-39.492	-0.149	0.077
-200.333	-120.044	-0.256	0.043
-199.319	-167.242	-0.190	-0.008
-198.304	-43.252	0.257	-0.128
-197.290	34.874	-0.137	-0.118
-196.275	-110.055	-0.117	-0.024
-195.260	-140.152	-0.301	0.031
-194.246	800.000	0.019	0.079
-193.231	-158.057	0.235	0.014
-192.217	-200.000	-0.016	0.162
-191.202	-168.528	0.124	0.005
-190.187	800.000	0.087	-0.292
-189.173	-50.063	0.513	0.238
-188.158	-107.218	-0.137	0.030
-187.144	-122.161	0.069	0.011
-186.129	3.286	0.209	-0.150
-185.114	-164.568	-0.153	-0.007
-184.100	-135.023	-0.316	-0.037
-183.085	-115.225	-0.304	-0.056
-182.071	155.477	0.030	0.041
-181.056	-65.356	-0.098	-0.039
-180.042	226.938	-0.158	0.252
-179.027	-155.804	0.100	0.006
-178.012	294.641	0.083	0.149
-176.998	-186.295	-0.270	-0.004
-175.983	326.560	-0.024	0.044
-174.969	29.198	-0.030	0.025
-173.954	-71.020	0.072	0.026
-172.939	304.880	0.040	-0.072
-171.925	800.000	0.099	-0.313
-170.910	-135.923	-0.333	0.038
-169.896	-200.000	0.010	0.109
-168.881	232.413	-0.217	-0.350
-167.866	-200.000	-0.004	0.218
-166.852	-38.894	0.128	0.066
-165.837	-99.156	-0.126	0.031
-164.823	446.975	0.050	-0.108
-163.808	-3.860	0.188	-0.128
-162.793	92.959	-0.088	0.098
-161.779	-51.255	-0.094	-0.043
-160.764	-200.000	-0.014	-0.154
-159.750	-136.816	-0.291	0.033
-158.735	800.000	0.033	-0.091
-157.720	-88.787	0.189	0.055
-156.706	71.015	0.258	0.262
-155.691	531.954	0.004	-0.010
-154.677	-21.047	0.196	-0.118
-153.662	-196.063	-0.170	0.001
-152.647	752.031	-0.005	0.013
-151.633	800.000	-0.066	0.214
-150.618	304.808	-0.222	0.405
-149.604	-9.029	-0.476	0.312
-148.589	-200.000	-0.286	-0.000
-147.574	-2.300	0.299	-0.205
-146.560	30.623	0.195	-0.164
-145.545	46.803	-0.209	-0.190
-144.531	150.024	0.212	-0.281
-143.516	-151.805	0.336	0.024
-142.502	-121.146	0.227	-0.037
-141.487	27.369	-0.346	0.285
-140.472	-37.616	0.237	0.124
-139.458	156.814	0.107	0.145
-138.443	-200.000	0.051	0.370
-137.429	121.497	0.067	0.082
-136.414	220.202	0.136	0.214
-135.399	-200.000	-0.016	-0.109
-134.385	-77.115	-0.130	-0.044
-133.370	107.027	-0.086	-0.101
-132.356	-180.589	0.271	-0.005
-131.341	49.034	0.229	-0.211
-130.326	-200.000	-0.037	-0.256
-129.312	800.000	-0.071	-0.210
-128.297	460.661	-0.194	-0.423
-127.283	23.764	-0.199	0.160
-126.268	-200.000	-0.022	0.583
-125.253	-79.991	-0.293	-0.096
-124.239	-142.864	0.149	0.014
-123.224	6.259	-0.190	-0.138
-122.210	730.438	-0.138	0.360
-121.195	-70.894	-0.146	0.054
-120.180	-13.943	0.055	0.035
-119.166	-83.724	0.105	-0.033
-118.151	800.000	0.126	0.382
-117.137	-101.395	0.400	0.095
-116.122	-6.729	0.309	0.206
-115.107	-200.000	-0.057	0.252
-114.093	800.000	0.035	-0.110
-113.078	-200.000	-0.038	0.307
-112.064	193.333	0.196	0.290
-111.049	68.602	-0.124	-0.124
-110.034	-102.852	0.284	-0.066
-109.020	21.321	-0.122	0.097
-108.005	-139.394	0.136	-0.014
-106.991	-73.910	0.108	0.038
-105.976	304.651	0.062	0.113
-104.962	-200.000	0.018	-0.427
-103.947	-65.385	0.343	0.135
-102.932	99.069	-0.302	0.342
-101.918	70.949	-0.045	0.045
-100.903	-200.000	-0.006	0.111
-99.889	-1.191	0.196	0.135
-98.874	77.621	-0.151	-0.157
-97.859	127.562	-0.292	0.363
-96.845	-123.056	0.003	-0.000
-95.830	-139.001	0.536	0.057
-94.816	-200.000	-0.013	0.079
-93.801	292.672	0.066	0.118
-92.786	149.551	0.124	0.165
-91.772	-168.356	0.299	-0.011
-90.757	31.153	-0.335	0.281
-89.743	-87.294	0.280	-0.083
-88.728	145.763	0.140	0.184
-87.713	665.004	-0.061	-0.153
-86.699	800.000	-0.115	-0.405
-85.684	384.294	0.089	-0.180
-84.670	-64.776	0.209	-0.083
-83.655	-33.368	0.127	0.069
-82.640	-200.000	0.009	-0.440
-81.626	37.646	0.387	-0.335
-80.611	475.793	-0.012	-0.027
-79.597	4.235	-0.096	0.069
-78.582	-182.743	-0.175	0.003
-77.567	58.778	-0.231	0.222
-76.553	800.000	-0.086	0.327
-75.538	58.844	-0.203	0.195
-74.524	-177.866	-0.120	0.003
-73.509	326.080	0.253	-0.473
-72.494	-186.821	0.273	-0.004
-71.480	28.266	0.113	-0.093
-70.465	-172.586	0.260	0.008
-69.451	-80.162	0.173	-0.057
-68.436	-84.253	-0.233	0.072
-67.422	25.179	-0.121	0.098
-66.407	424.741	0.093	0.196
-65.392	697.432	-0.072	-0.184
-64.378	274.886	-0.112	-0.193
-63.363	-200.000	0.006	-0.069
-62.349	-200.000	-0.019	-0.157
-61.334	71.574	-1.174	-1.191
-60.319	-15.701	0.838	0.522
-59.305	800.000	-0.306	-1.250
-58.290	222.366	0.895	1.406
-57.276	599.621	0.707	1.714
-56.261	-200.000	114.723	632.689
-55.246	451.445	1490.939	3215.793
-54.232	152.125	2650.022	3529.653
-53.217	98.818	2128.129	2397.952
-52.203	37.963	1577.942	1369.588
-51.188	30.519	1323.895	1104.986
-50.173	27.655	1285.441	1056.282
-49.159	51.834	1345.675	1250.129
-48.144	50.683	1359.156	1255.769
-47.130	30.458	1312.295	1094.766
-46.115	27.162	1294.177	1060.417
-45.100	26.997	1288.985	1055.162
-44.086	26.961	1286.399	1052.791
-43.071	26.937	1284.395	1050.974
-42.057	26.815	1282.312	1048.523
-41.042	26.913	1281.096	1048.051
-40.027	26.863	1279.302	1046.252
-39.013	26.968	1277.286	1045.167
-37.998	26.953	1275.532	1043.604
-36.984	27.033	1273.707	1042.532
-35.969	27.060	1272.144	1041.362
-34.954	27.096	1270.649	1040.308
-33.940	27.139	1268.871	1039.055
-32.925	27.145	1267.748	1038.130
-31.911	27.100	1266.429	1036.748
-30.896	27.039	1264.678	1034.929
-29.881	27.210	1263.092	1034.563
-28.867	27.022	1262.528	1032.991
-27.852	27.186	1260.598	1032.303
-26.838	27.132	1259.427	1030.997
-25.823	27.147	1258.383	1030.187
-24.809	27.096	1257.153	1028.850
-23.794	27.099	1255.414	1027.402
-22.779	27.124	1254.416	1026.682
-21.765	27.112	1253.202	1025.580
-20.750	27.106	1252.069	1024.581
-19.736	27.126	1250.604	1023.453
-18.721	26.956	1249.900	1021.882
-17.706	26.993	1248.631	1021.012
-16.692	27.029	1247.408	1020.173
-15.677	27.080	1246.087	1019.335
-14.663	27.105	1244.893	1018.461
-13.648	27.035	1244.144	1017.412
-12.633	27.075	1243.247	1016.864
-11.619	27.041	1242.470	1015.997
-10.604	26.983	1241.429	1014.780
-9.590	27.036	1240.395	1014.193
-8.575	26.921	1239.642	1012.897
-7.560	27.004	1238.413	1012.314
-6.546	27.085	1238.057	1012.436
-5.531	27.109	1236.805	1011.506
-4.517	27.170	1235.860	1011.030
-3.502	26.973	1235.327	1009.460
-2.487	27.008	1234.486	1008.925
-1.473	26.987	1230.068	1005.160
-0.458	24.699	1214.260	979.679
0.556	19.559	1196.224	936.252
1.571	15.091	1201.683	916.051
2.586	13.961	1215.978	920.606
3.600	13.724	1204.307	910.387
4.615	10.440	1134.778	840.742
5.629	4.177	1064.700	758.194
6.644	1.126	1047.433	731.132
7.659	0.839	1045.543	728.365
8.673	0.852	1044.294	727.495
9.688	0.954	1043.185	727.149
10.702	1.103	1040.878	726.189
11.717	4.655	1045.444	746.377
12.731	11.630	1054.330	786.313
13.746	16.451	1059.492	813.350
14.761	17.613	1060.672	819.780
15.775	16.831	1059.222	814.824
16.790	15.826	1057.068	808.273
17.804	15.208	1055.576	804.096
18.819	14.846	1054.461	801.440
19.834	14.596	1053.550	799.481
20.848	14.233	1052.904	797.181
21.863	14.216	1051.630	796.063
22.877	13.921	1050.992	794.100
23.892	13.959	1050.604	793.916
24.907	13.862	1049.621	792.642
25.921	13.815	1049.481	792.240
26.936	13.947	1048.392	791.978
27.950	14.122	1046.611	791.397
28.965	14.035	1045.776	790.280
29.980	14.037	1044.753	789.445
30.994	14.150	1043.639	789.071
32.009	14.106	1042.741	788.115
33.023	14.024	1041.848	786.979
34.038	14.081	1041.112	786.627
35.053	14.088	1039.918	785.687
36.067	14.132	1039.051	785.171
37.082	14.211	1037.953	784.644
38.096	14.157	1037.721	784.141
39.111	14.148	1036.822	783.352
40.126	14.000	1035.842	781.847
41.140	13.984	1034.448	780.651
42.155	13.918	1033.284	779.392
43.169	13.901	1032.346	778.538
44.184	13.858	1031.322	777.494
45.199	13.916	1030.368	776.978
46.213	13.958	1029.580	776.513
47.228	13.922	1028.275	775.290
48.242	13.897	1027.416	774.456
49.257	13.940	1026.587	773.962
50.271	13.923	1025.225	772.791
51.286	14.037	1024.280	772.538
52.301	14.164	1023.255	772.287
53.315	14.052	1022.499	771.128
54.330	13.869	1021.890	769.752
55.344	14.011	1020.737	769.473
56.359	14.032	1019.950	768.911
57.374	13.908	1019.166	767.679
58.388	13.768	1018.402	766.388
59.403	13.782	1017.516	765.715
60.417	13.817	1016.539	765.073
61.432	13.760	1015.779	764.174
62.447	13.729	1015.006	763.381
63.461	13.787	1014.242	763.008
64.476	13.851	1012.817	762.159
65.490	13.835	1012.392	761.701
66.505	13.857	1011.669	761.190
67.520	13.957	1010.738	760.880
68.534	13.902	1010.356	760.275
69.549	13.885	1009.476	759.467
70.563	13.781	1009.197	758.712
71.578	13.942	1007.634	758.205
72.593	13.782	1007.458	757.278
73.607	13.832	1006.984	757.083
74.622	13.824	1005.992	756.230
75.636	13.820	1005.191	755.546
76.651	13.760	1004.980	755.044
77.666	13.722	1003.781	753.906
78.680	13.759	1003.568	753.848
79.695	13.804	1002.438	753.137
80.709	13.775	1001.967	752.582
81.724	13.792	1001.589	752.309
82.739	13.930	1000.588	752.115
83.753	13.948	1000.176	751.822
84.768	14.261	998.275	751.741
85.782	14.065	998.137	750.683
86.797	13.970	997.252	749.523
87.812	13.889	996.513	748.539
88.826	13.990	995.228	747.959
89.841	14.132	994.427	747.929
90.855	14.121	993.532	747.144
91.870	14.116	993.057	746.694
92.884	14.032	992.143	745.568
93.899	14.004	991.283	744.728
94.914	14.147	990.453	744.677
95.928	14.199	989.466	744.102
96.943	14.185	988.482	743.235
97.957	14.128	988.015	742.567
98.972	14.092	987.198	741.722
99.987	14.058	986.174	740.737
101.001	14.187	985.281	740.575
102.016	14.091	984.251	739.311
103.030	14.092	983.856	738.953
104.045	14.075	982.685	737.929
105.060	14.160	981.497	737.350
106.074	13.986	980.827	736.009
107.089	13.986	980.293	735.543
108.103	14.030	979.243	734.886
109.118	13.988	978.545	734.113
110.133	13.936	977.196	732.805
111.147	14.009	976.333	732.415
112.162	13.970	975.819	731.796
113.176	14.108	975.042	731.753
114.191	14.085	974.270	731.008
115.206	14.038	973.467	730.134
116.220	14.062	972.725	729.618
117.235	13.962	971.771	728.402
118.249	14.055	970.762	727.985
119.264	14.034	970.458	727.604
120.279	13.969	969.405	726.465
121.293	14.058	968.404	726.037
122.308	14.076	967.388	725.290
123.322	14.101	966.412	724.602
124.337	14.091	965.468	723.789
125.352	14.094	964.314	722.872
126.366	14.157	963.132	722.198
127.381	14.103	962.039	721.079
128.395	14.029	961.651	720.403
129.410	13.954	960.872	719.431
130.424	14.077	959.896	719.168
131.439	14.086	958.921	718.415
132.454	14.132	958.197	718.008
133.468	14.138	957.578	717.504
134.483	14.148	956.478	716.660
135.497	14.189	955.451	716.006
136.512	14.153	955.130	715.544
137.527	14.121	953.858	714.393
138.541	14.043	953.385	713.639
139.556	14.123	952.780	713.467
140.570	14.095	952.026	712.720
141.585	14.193	951.177	712.440
142.600	14.167	950.191	711.527
143.614	14.189	949.322	710.909
144.629	14.233	949.016	710.802
145.643	14.257	947.828	709.954
146.658	14.219	947.079	709.168
147.673	14.139	946.389	708.246
148.687	14.246	945.073	707.655
149.702	14.228	944.037	706.738
150.716	14.173	943.568	706.092
151.731	14.217	942.979	705.778
152.746	14.236	942.473	705.417
153.760	14.282	941.369	704.721
154.775	14.280	941.219	704.539
155.789	14.472	940.539	704.779
156.804	14.248	939.487	702.981
157.819	14.358	939.026	703.039
158.833	14.286	938.451	702.242
159.848	14.541	937.313	702.404
160.862	14.503	936.445	701.531
161.877	14.352	935.970	700.480
162.892	14.346	934.842	699.546
163.906	14.253	934.189	698.605
164.921	14.308	933.485	698.248
165.935	14.324	932.219	697.309
166.950	14.347	931.705	696.958
167.964	14.443	930.524	696.414
168.979	14.443	929.684	695.722
169.994	14.350	929.167	694.888
171.008	14.427	928.164	694.396
172.023	14.569	927.180	694.189
173.037	14.435	926.833	693.309
174.052	14.615	925.968	693.349
175.067	14.493	925.533	692.456
176.081	14.434	925.092	691.818
177.096	14.385	924.664	691.234
178.110	14.370	923.801	690.467
179.125	14.484	923.169	690.406
180.140	14.557	922.375	690.051
181.154	14.400	922.678	689.568
182.169	14.591	921.565	689.465
183.183	14.698	920.568	689.098
184.198	14.543	920.230	688.147
185.213	14.533	919.751	687.684
186.227	14.660	918.775	687.420
187.242	14.740	918.201	687.256
188.256	14.808	917.539	686.981
189.271	14.692	916.723	685.832
190.286	14.622	916.131	685.041
191.300	14.535	915.451	684.114
192.315	14.460	914.987	683.401
193.329	14.655	914.093	683.469
194.344	14.639	913.908	683.206
195.359	14.661	912.750	682.371
196.373	14.576	912.733	681.952
197.388	14.751	912.301	682.280
198.402	14.681	911.681	681.473
199.417	14.824	910.915	681.422
200.432	14.949	910.045	681.222
201.446	14.863	909.957	680.743
202.461	14.828	909.315	680.060
203.475	15.064	908.460	680.320
204.490	14.848	907.878	678.946
205.504	14.838	907.064	678.237
206.519	14.833	906.423	677.677
207.534	15.015	905.538	677.693
208.548	14.905	904.945	676.744
209.563	14.969	904.569	676.663
210.577	14.895	903.724	675.670
211.592	14.980	902.963	675.384
212.607	14.981	902.071	674.663
213.621	15.048	901.523	674.464
214.636	14.970	901.252	673.886
215.650	15.024	899.965	673.081
216.665	15.165	899.507	673.246
217.680	15.153	898.320	672.249
218.694	15.162	897.807	671.845
219.709	15.278	897.236	671.822
220.723	15.218	896.626	671.063
221.738	15.122	896.604	670.606
222.753	15.269	895.577	670.364
223.767	15.173	895.224	669.659
224.782	15.343	894.216	669.524
225.796	15.324	893.898	669.150
226.811	15.311	893.074	668.421
227.826	15.283	892.391	667.738
228.840	15.282	891.765	667.207
229.855	15.270	890.848	666.418
230.869	15.309	890.312	666.113
231.884	15.183	889.703	665.099
232.899	15.247	889.117	664.853
233.913	15.243	888.500	664.318
234.928	15.122	887.723	663.198
235.942	15.331	886.798	663.276
236.957	15.316	886.374	662.841
237.972	15.383	885.809	662.623
238.986	15.299	885.442	661.957
240.001	15.228	884.936	661.242
241.015	15.317	884.188	660.975
242.030	15.367	883.516	660.613
243.045	15.404	883.218	660.476
244.059	15.575	882.073	660.233
245.074	15.402	881.440	659.021
246.088	15.462	881.138	658.974
247.103	15.442	880.277	658.194
248.117	15.522	879.740	658.045
249.132	15.622	878.898	657.749
250.147	15.509	878.693	657.094
251.161	15.721	877.916	657.285
252.176	15.683	877.278	656.601
253.190	15.773	876.373	656.218
254.205	15.658	876.219	655.594
255.220	15.786	875.281	655.333
256.234	15.729	874.662	654.589
257.249	15.800	874.001	654.316
258.263	15.900	872.987	653.884
259.278	15.790	872.854	653.301
260.293	15.738	872.288	652.616
261.307	15.983	871.615	653.005
262.322	15.811	871.321	652.062
263.336	15.905	870.184	651.515
264.351	15.934	869.464	651.032
265.366	15.893	869.096	650.538
266.380	15.937	868.495	650.204
267.395	15.948	867.781	649.652
268.409	15.957	867.048	649.080
269.424	16.070	866.260	648.871
270.439	16.066	865.626	648.320
271.453	15.890	865.164	647.243
272.468	15.916	864.767	646.988
273.482	16.138	863.859	647.103
274.497	15.935	863.435	645.950
275.512	16.006	862.876	645.745
276.526	16.029	862.723	645.662
277.541	16.038	862.167	645.224
278.555	16.195	861.242	645.074
279.570	16.069	860.900	644.281
280.585	16.021	860.288	643.581
281.599	16.232	858.998	643.364
282.614	16.110	858.489	642.463
283.628	16.182	858.000	642.312
284.643	16.148	857.408	641.683
285.657	16.191	856.676	641.242
286.672	16.183	856.290	640.868
287.687	16.253	855.659	640.603
288.701	16.133	855.348	639.859
289.716	16.244	854.620	639.679
290.730	16.295	853.811	639.209
291.745	16.250	853.248	638.558
292.760	16.417	852.448	638.536
293.774	16.329	852.007	637.816
294.789	16.334	851.098	637.099
295.803	16.342	850.969	636.976
296.818	16.282	849.894	635.888
297.833	16.348	849.145	635.519
298.847	16.362	848.761	635.231
299.862	16.275	847.928	634.223
300.876	16.395	847.734	634.472
301.891	16.574	846.869	634.440
302.906	16.412	846.682	633.635
303.920	16.610	845.873	633.717
304.935	16.649	845.392	633.445
305.949	16.727	844.491	633.007
306.964	16.614	844.441	632.490
307.979	16.618	843.783	631.959
308.993	16.617	843.207	631.468
310.008	16.692	842.379	631.070
311.022	16.738	841.563	630.573
312.037	16.619	841.050	629.692
313.052	16.606	840.703	629.327
314.066	16.598	840.035	628.742
315.081	16.626	839.651	628.501
316.095	16.550	839.257	627.868
317.110	16.680	838.418	627.668
318.125	16.716	837.821	627.298
319.139	16.547	837.731	626.551
320.154	16.727	837.355	626.881
321.168	16.744	836.577	626.306
322.183	16.686	836.019	625.620
323.197	16.724	835.577	625.372
324.212	16.819	834.612	624.946
325.227	16.728	834.374	624.375
326.241	16.684	833.823	623.745
327.256	16.719	833.310	623.437
328.270	16.904	832.265	623.279
329.285	16.901	832.105	623.094
330.300	16.709	831.549	621.917
331.314	16.770	831.437	622.001
332.329	16.816	830.465	621.387
333.343	16.942	829.943	621.405
334.358	16.894	829.768	621.044
335.373	16.865	829.178	620.442
336.387	16.841	829.274	620.370
337.402	16.888	829.017	620.295
338.416	17.028	828.417	620.302
339.431	17.034	827.808	619.812
340.446	17.132	827.410	619.818
341.460	17.039	827.136	619.217
342.475	17.036	826.826	618.920
343.489	17.011	826.604	618.610
344.504	17.182	825.533	618.376
345.519	17.124	825.275	617.916
346.533	17.117	824.592	617.324
347.548	17.133	823.856	616.777
348.562	17.359	823.530	617.297
349.577	17.206	823.262	616.488
350.592	17.149	822.191	615.426
351.606	17.235	821.886	615.455
352.621	17.190	821.359	614.843
353.635	17.134	820.614	614.029
354.650	17.230	820.073	613.916
355.665	17.205	819.688	613.480
356.679	17.323	818.795	613.184
357.694	17.214	818.278	612.349
358.708	17.227	817.639	611.866
359.723	17.224	817.036	611.351
360.738	17.334	816.343	611.171
361.752	17.377	815.594	610.710
362.767	17.464	815.101	610.601
363.781	17.291	814.752	609.664
364.796	17.477	814.104	609.790
365.810	17.578	813.967	609.997
366.825	17.502	813.545	609.353
367.840	17.655	813.158	609.556
368.854	17.502	812.707	608.621
369.869	17.582	812.011	608.330
370.883	17.557	811.604	607.883
371.898	17.649	811.409	608.010
372.913	17.532	811.362	607.503
373.927	17.667	810.734	607.463
374.942	17.649	810.152	606.908
375.956	17.696	809.721	606.699
376.971	17.766	809.595	606.797
377.986	17.799	808.457	606.009
379.000	17.685	808.632	605.682
380.015	17.943	807.756	605.887
381.029	17.788	807.251	604.906
382.044	17.769	806.367	604.121
383.059	17.724	806.058	603.677
384.073	17.906	805.477	603.835
385.088	17.773	804.905	602.882
386.102	17.732	804.697	602.527
387.117	17.889	803.773	602.337
388.132	17.714	803.425	601.404
389.146	18.003	802.430	601.625
390.161	17.754	802.638	600.852
391.175	17.891	801.872	600.707
392.190	18.018	801.065	600.495
393.205	17.794	800.842	599.486
394.219	17.752	800.984	599.393
395.234	17.950	800.432	599.623
396.248	17.883	799.894	598.931
397.263	18.030	799.437	599.050
398.278	17.823	799.245	598.129
399.292	17.921	798.775	598.069
400.307	17.860	798.282	597.431
401.321	17.988	797.541	597.273
402.336	17.989	796.950	596.780
403.350	18.027	796.950	596.862
404.365	18.170	795.853	596.486
405.380	18.096	795.643	596.015
406.394	18.047	795.429	595.631
407.409	18.221	794.821	595.729
408.423	18.309	794.648	595.854
409.438	18.199	794.300	595.158
410.453	18.215	793.605	594.640
411.467	18.262	793.277	594.503
412.482	18.158	792.794	593.728
413.496	18.259	792.727	593.978
414.511	18.410	792.120	593.993
415.526	18.278	791.622	593.109
416.540	18.396	791.199	593.150
417.555	18.354	790.736	592.604
418.569	18.275	790.236	591.903
419.584	18.242	790.333	591.810
420.599	18.487	789.431	591.929
421.613	114.962	1295.681	1482.859
422.628	98.900	1369.405	1482.939
