DTS Sentinel unit serial number:	SN413079Multiplexer serial number:	ORYXHardware model number:	OX4-SRSoftware version number:	ORYX F/W v4.00 Oryx Data Collector v3.7.2.0data status	okinstallation	princeton_trtdifferential loss correction	single-endedforward channel	channel 1reverse channel	N/Adate	2019/09/12time	09:04:11forward acquisition time	60.00reverse acquisition time	0.00gamma	496.2192k internal	0.2308k external	0.2308temperature offset calibration	1.0036default loss term (dB/km)	0.3790temperature slope calibration	1.0000multiplexer offset coefficient	1.0000multiplexer slope coefficient	1.0000fibre end	0.00T internal ref (°C)	34.36T ext. ref 1 (°C)	1.77T ext. ref 2 (°C)	31.84length (m)	temperature (°C)	Stokes	anti-Stokes-747.200	139.945	0.144	0.193
-746.185	-71.619	0.171	0.065
-745.171	-86.221	-0.201	0.063
-744.156	800.000	0.053	0.194
-743.142	-69.480	0.127	0.050
-742.127	-61.033	-0.460	0.197
-741.112	-102.826	0.083	-0.020
-740.098	-200.000	0.053	0.320
-739.083	2.011	-0.246	-0.180
-738.069	-88.208	-0.138	-0.042
-737.054	800.000	-0.133	-0.455
-736.039	777.570	0.078	-0.215
-735.025	-101.916	-0.087	0.021
-734.010	-200.000	0.001	-0.015
-732.996	636.606	-0.141	-0.365
-731.981	-200.000	0.005	0.053
-730.966	-120.204	0.176	-0.031
-729.952	-40.472	-0.016	-0.008
-728.937	-64.600	0.091	0.037
-727.923	300.832	-0.113	-0.211
-726.908	63.833	0.025	0.025
-725.894	6.927	0.172	0.130
-724.879	25.805	0.230	-0.194
-723.864	-123.128	0.162	-0.026
-722.850	-117.908	0.198	0.036
-721.835	626.221	-0.060	-0.153
-720.821	-33.463	-0.077	-0.043
-719.806	292.527	0.096	-0.177
-718.791	800.000	-0.134	-0.395
-717.777	-200.000	0.005	-0.129
-716.762	-1.427	0.192	0.137
-715.748	-32.947	-0.209	0.118
-714.733	-200.000	0.044	0.228
-713.718	-108.739	-0.099	0.021
-712.704	-110.398	-0.211	0.045
-711.689	800.000	0.063	0.237
-710.675	-200.000	-0.004	-0.111
-709.660	218.947	-0.083	0.135
-708.645	55.349	0.120	0.118
-707.631	-48.433	-0.399	-0.195
-706.616	134.607	-0.163	0.214
-705.602	-31.103	0.133	-0.076
-704.587	-116.933	0.156	-0.029
-703.572	9.157	-0.259	-0.198
-702.558	127.292	-0.187	-0.241
-701.543	767.120	0.215	-0.594
-700.529	-90.157	0.292	0.086
-699.514	-200.000	0.035	0.204
-698.499	-131.508	-0.243	-0.032
-697.485	-90.463	-0.205	0.060
-696.470	800.000	-0.085	-0.315
-695.456	-172.643	-0.086	0.003
-694.441	-0.765	0.117	-0.084
-693.426	-200.000	0.042	0.329
-692.412	-39.614	-0.168	-0.089
-691.397	652.453	0.135	-0.352
-690.383	-134.920	0.250	-0.031
-689.368	-97.473	0.217	-0.057
-688.354	-58.566	-0.228	0.100
-687.339	101.993	-0.287	0.339
-686.324	-200.000	-0.024	-0.228
-685.310	-72.863	0.545	-0.203
-684.295	186.461	-0.229	0.345
-683.281	286.676	-0.034	0.063
-682.266	-123.215	0.323	-0.052
-681.251	-101.168	0.309	0.077
-680.237	63.464	-0.239	0.243
-679.222	171.839	-0.051	-0.074
-678.208	-42.647	0.151	0.078
-677.193	365.594	0.138	0.283
-676.178	29.677	0.136	0.117
-675.164	486.406	0.220	-0.508
-674.149	176.153	-0.149	-0.220
-673.135	-115.473	-0.035	-0.007
-672.120	46.312	-0.285	0.268
-671.105	-200.000	-0.016	-0.329
-670.091	110.304	-0.019	0.023
-669.076	551.761	0.024	-0.059
-668.062	125.878	-0.121	-0.155
-667.047	754.071	0.148	-0.405
-666.032	75.343	0.062	-0.067
-665.018	-200.000	-0.012	0.337
-664.003	-200.000	0.006	0.035
-662.989	-128.127	0.065	0.009
-661.974	-122.210	-0.322	0.053
-660.959	226.560	0.068	-0.112
-659.945	405.854	-0.104	-0.222
-658.930	-150.238	-0.327	-0.026
-657.916	-200.000	-0.028	0.128
-656.901	170.029	-0.069	0.100
-655.886	127.559	0.287	-0.370
-654.872	-71.319	0.223	-0.084
-653.857	286.597	-0.045	0.083
-652.843	323.900	-0.075	0.146
-651.828	786.929	0.041	-0.115
-650.814	800.000	-0.025	0.086
-649.799	60.294	0.185	0.185
-648.784	800.000	-0.038	-0.154
-647.770	-155.554	0.132	0.009
-646.755	167.981	-0.105	0.151
-645.741	-89.817	-0.345	0.102
-644.726	-66.570	0.247	0.099
-643.711	91.407	0.275	-0.313
-642.697	392.994	-0.161	-0.338
-641.682	26.923	-0.192	-0.163
-640.668	63.588	-0.212	0.215
-639.653	-59.627	-0.220	0.095
-638.638	-200.000	0.000	0.269
-637.624	-200.000	-0.005	0.024
-636.609	800.000	-0.004	-0.012
-635.595	800.000	0.085	-0.250
-634.580	173.524	-0.184	-0.269
-633.565	800.000	0.060	0.197
-632.551	303.390	0.107	-0.201
-631.536	59.502	-0.159	-0.159
-630.522	-100.759	0.100	0.025
-629.507	10.132	0.034	0.026
-628.492	-82.274	-0.236	-0.078
-627.478	800.000	0.075	0.228
-626.463	418.101	-0.176	0.381
-625.449	41.236	-0.056	-0.052
-624.434	360.150	-0.083	0.168
-623.419	-200.000	0.075	0.348
-622.405	-200.000	0.003	0.441
-621.390	-98.912	-0.168	0.043
-620.376	-200.000	0.042	0.426
-619.361	107.016	0.212	0.254
-618.346	-157.671	0.183	0.011
-617.332	85.897	-0.119	-0.133
-616.317	-184.372	0.219	0.004
-615.303	800.000	-0.033	0.117
-614.288	223.462	-0.070	0.114
-613.273	6.734	0.174	-0.131
-612.259	-31.635	0.149	-0.085
-611.244	524.598	-0.119	-0.283
-610.230	-119.194	-0.184	-0.032
-609.215	-14.006	0.086	-0.056
-608.201	-130.981	-0.128	0.017
-607.186	-140.414	-0.219	-0.023
-606.171	250.868	0.132	-0.227
-605.157	-118.556	-0.374	0.067
-604.142	158.189	0.062	-0.087
-603.128	800.000	-0.034	0.146
-602.113	-0.653	-0.226	-0.162
-601.098	8.749	0.146	0.111
-600.084	-163.711	0.076	0.004
-599.069	-48.176	0.162	0.079
-598.055	-200.000	-0.002	-0.097
-597.040	800.000	-0.087	0.321
-596.025	17.986	-0.309	0.249
-595.011	552.642	-0.055	0.133
-593.996	85.038	-0.116	-0.128
-592.982	-140.006	0.211	-0.023
-591.967	186.668	0.149	-0.224
-590.952	-95.429	0.042	0.011
-589.938	782.364	0.070	0.193
-588.923	465.161	-0.062	-0.141
-587.909	-200.000	-0.002	-0.008
-586.894	-200.000	-0.017	0.308
-585.879	262.752	0.172	-0.302
-584.865	-9.767	0.172	-0.116
-583.850	127.679	-0.061	-0.078
-582.836	-200.000	0.014	0.122
-581.821	-29.470	0.238	0.138
-580.806	153.571	-0.111	0.154
-579.792	-200.000	-0.022	0.101
-578.777	-127.636	0.130	0.019
-577.763	-200.000	-0.056	0.379
-576.748	207.321	-0.109	0.171
-575.733	116.511	-0.086	-0.107
-574.719	-51.367	-0.192	0.091
-573.704	753.297	-0.080	-0.218
-572.690	800.000	-0.069	0.251
-571.675	149.623	0.052	0.071
-570.661	-35.638	-0.373	-0.204
-569.646	800.000	-0.079	0.350
-568.631	426.174	0.023	0.051
-567.617	170.669	0.252	-0.364
-566.602	-200.000	-0.026	-0.138
-565.588	396.280	0.099	-0.209
-564.573	108.588	0.240	0.289
-563.558	49.137	-0.483	-0.458
-562.544	-189.064	-0.206	-0.002
-561.529	152.790	-0.135	0.186
-560.515	-200.000	-0.047	-0.259
-559.500	-52.686	0.211	-0.098
-558.485	283.892	0.048	0.087
-557.471	742.487	0.055	0.150
-556.456	140.994	0.155	-0.206
-555.442	-170.965	-0.028	0.001
-554.427	682.733	-0.086	-0.227
-553.412	-26.651	-0.233	-0.137
-552.398	-78.397	-0.198	-0.068
-551.383	19.239	-0.169	0.137
-550.369	-79.346	-0.121	-0.041
-549.354	-200.000	0.077	-0.403
-548.339	18.281	-0.297	-0.239
-547.325	-10.971	0.269	-0.179
-546.310	200.830	-0.096	0.149
-545.296	-94.347	0.102	0.028
-544.281	-200.000	-0.016	0.128
-543.266	-200.000	0.045	0.306
-542.252	-81.394	0.150	-0.050
-541.237	-93.602	-0.155	-0.043
-540.223	13.013	0.201	0.157
-539.208	159.439	-0.132	-0.186
-538.193	678.273	0.062	-0.163
-537.179	380.057	0.100	0.206
-536.164	246.166	-0.008	-0.013
-535.150	-137.793	0.100	0.011
-534.135	53.171	-0.260	-0.251
-533.121	-123.886	0.260	-0.041
-532.106	-200.000	0.027	0.347
-531.091	-77.607	0.080	0.028
-530.077	247.241	0.031	0.052
-529.062	458.610	-0.064	0.144
-528.048	-71.696	-0.177	-0.067
-527.033	422.269	0.105	0.228
-526.018	47.415	-0.310	0.292
-525.004	73.458	0.102	-0.107
-523.989	105.320	-0.090	0.107
-522.975	265.040	-0.092	-0.162
-521.960	800.000	-0.062	-0.256
-520.945	-65.501	-0.214	0.087
-519.931	800.000	0.061	0.260
-518.916	63.088	-0.213	-0.215
-517.902	123.997	-0.235	0.297
-516.887	185.980	0.200	0.300
-515.872	217.014	0.017	-0.027
-514.858	-82.459	-0.142	0.047
-513.843	114.838	-0.087	-0.106
-512.829	119.883	0.121	-0.151
-511.814	-24.032	0.378	-0.228
-510.799	489.339	-0.207	-0.477
-509.785	188.343	0.115	0.173
-508.770	800.000	0.068	-0.229
-507.756	-148.770	-0.046	0.004
-506.741	599.429	0.058	0.146
-505.726	800.000	-0.005	-0.023
-504.712	48.235	-0.158	0.149
-503.697	-137.913	0.318	-0.036
-502.683	-21.170	0.116	-0.071
-501.668	419.808	0.082	-0.177
-500.653	-109.926	0.094	-0.020
-499.639	800.000	0.041	0.142
-498.624	2.139	-0.127	-0.093
-497.610	-92.495	-0.123	0.035
-496.595	-12.041	0.083	0.055
-495.581	-200.000	0.006	-0.345
-494.566	-46.989	-0.285	-0.140
-493.551	-19.279	-0.239	-0.149
-492.537	7.911	-0.090	0.068
-491.522	-108.968	0.279	0.060
-490.508	-98.682	0.344	0.088
-489.493	-101.629	0.315	0.077
-488.478	-19.092	-0.121	0.076
-487.464	-200.000	-0.028	0.144
-486.449	31.510	-0.094	0.082
-485.435	-13.314	-0.240	0.157
-484.420	800.000	-0.067	0.221
-483.405	208.566	-0.042	-0.066
-482.391	-48.769	0.185	-0.090
-481.376	-155.083	-0.105	-0.007
-480.362	431.920	-0.075	0.163
-479.347	44.826	0.439	0.406
-478.332	-112.415	-0.395	0.079
-477.318	486.303	-0.102	-0.233
-476.303	800.000	-0.067	0.220
-475.289	800.000	0.092	-0.356
-474.274	-200.000	0.061	-0.275
-473.259	94.565	0.120	0.137
-472.245	-96.609	0.097	-0.026
-471.230	-101.131	0.201	-0.049
-470.216	800.000	0.053	0.172
-469.201	800.000	-0.108	-0.356
-468.186	-21.726	-0.152	0.093
-467.172	105.523	-0.073	0.087
-466.157	-200.000	0.002	-0.409
-465.143	-200.000	-0.020	0.103
-464.128	430.052	-0.063	-0.136
-463.113	162.322	0.120	-0.170
-462.099	-125.344	-0.131	-0.020
-461.084	54.739	0.127	-0.124
-460.070	-200.000	0.001	-0.116
-459.055	-94.421	0.113	0.031
-458.040	-48.636	0.231	-0.112
-457.026	-39.520	-0.149	-0.078
-456.011	-33.665	0.150	0.083
-454.997	-92.281	0.200	0.057
-453.982	-116.834	-0.103	0.019
-452.968	-36.477	-0.315	-0.170
-451.953	-23.859	0.098	-0.059
-450.938	-200.000	-0.051	-0.295
-449.924	-89.163	-0.300	0.089
-448.909	-200.000	0.050	0.270
-447.895	175.360	-0.156	0.226
-446.880	223.044	0.088	0.143
-445.865	12.697	0.170	0.132
-444.851	155.504	-0.055	-0.076
-443.836	-17.519	-0.281	-0.178
-442.822	-21.358	0.234	0.143
-441.807	134.546	-0.053	0.070
-440.792	2.140	0.338	0.246
-439.778	334.676	0.068	0.133
-438.763	-200.000	0.021	0.094
-437.749	178.646	-0.102	-0.149
-436.734	800.000	-0.032	0.092
-435.719	126.527	0.109	-0.139
-434.705	103.825	-0.161	-0.190
-433.690	222.401	0.092	-0.149
-432.676	-200.000	0.042	0.232
-431.661	-200.000	-0.005	-0.305
-430.646	-117.226	-0.162	0.030
-429.632	106.662	0.150	-0.178
-428.617	-200.000	-0.036	-0.358
-427.603	90.685	0.211	-0.238
-426.588	15.588	0.130	0.103
-425.573	-141.396	-0.187	0.019
-424.559	-119.820	0.238	-0.041
-423.544	-171.810	0.075	-0.002
-422.530	-132.876	-0.507	0.065
-421.515	-6.539	-0.305	-0.209
-420.500	-200.000	-0.003	-0.420
-419.486	-5.565	-0.177	0.122
-418.471	510.014	0.047	-0.109
-417.457	758.087	0.025	-0.067
-416.442	-81.514	0.217	-0.072
-415.428	-200.000	-0.010	0.177
-414.413	95.755	0.183	0.210
-413.398	393.127	0.132	0.275
-412.384	481.619	0.056	-0.128
-411.369	-200.000	-0.069	-0.365
-410.355	18.077	-0.063	-0.051
-409.340	475.412	-0.159	0.361
-408.325	441.413	0.139	-0.306
-407.311	117.994	-0.153	-0.189
-406.296	-200.000	-0.008	-0.353
-405.282	60.106	-0.172	0.171
-404.267	-117.705	0.207	-0.037
-403.252	47.483	-0.114	0.106
-402.238	-94.216	-0.492	0.135
-401.223	80.757	-0.385	0.416
-400.209	-104.046	-0.131	-0.031
-399.194	-200.000	0.044	0.217
-398.179	27.809	0.246	0.208
-397.165	373.391	-0.083	-0.169
-396.150	317.718	0.202	0.384
-395.136	26.980	-0.303	0.255
-394.121	-125.466	0.035	-0.005
-393.106	57.604	-0.273	-0.267
-392.092	757.013	-0.128	0.348
-391.077	-74.867	0.174	-0.063
-390.063	72.346	-0.272	0.284
-389.048	-200.000	0.036	0.287
-388.033	87.953	0.186	0.206
-387.019	20.507	-0.160	0.130
-386.004	-122.238	-0.211	-0.035
-384.990	497.694	-0.087	0.202
-383.975	23.577	0.066	-0.054
-382.960	-200.000	0.036	-0.264
-381.946	-88.669	0.083	0.025
-380.931	635.201	-0.021	-0.052
-379.917	-114.244	-0.082	0.016
-378.902	13.363	-0.222	0.172
-377.888	5.447	0.066	0.049
-376.873	80.670	-0.139	0.151
-375.858	-12.502	-0.206	-0.135
-374.844	-158.083	0.143	-0.008
-373.829	166.089	0.071	-0.100
-372.815	162.119	-0.119	0.168
-371.800	-156.886	-0.133	0.008
-370.785	-200.000	0.002	0.046
-369.771	800.000	0.043	-0.125
-368.756	252.689	-0.064	-0.109
-367.742	230.667	-0.025	-0.041
-366.727	70.656	0.239	0.248
-365.712	-76.831	0.251	-0.088
-364.698	-200.000	-0.000	0.035
-363.683	-200.000	-0.018	0.122
-362.669	45.504	-0.320	-0.296
-361.654	-36.177	0.191	0.103
-360.639	162.143	0.098	0.138
-359.625	-200.000	-0.006	0.045
-358.610	30.382	-0.189	-0.161
-357.596	343.895	-0.212	-0.416
-356.581	-200.000	0.317	0.002
-355.566	-200.000	0.001	0.038
-354.552	800.000	-0.139	-0.400
-353.537	383.160	0.046	-0.094
-352.523	135.914	0.219	0.285
-351.508	722.725	0.039	-0.103
-350.493	-12.272	-0.152	-0.099
-349.479	263.705	0.026	-0.045
-348.464	-75.914	-0.055	0.019
-347.450	-192.311	-0.207	0.002
-346.435	155.989	-0.091	-0.126
-345.420	288.008	-0.165	-0.298
-344.406	800.000	-0.043	0.174
-343.391	42.854	0.163	-0.149
-342.377	800.000	-0.037	-0.116
-341.362	112.282	0.108	0.131
-340.348	-111.039	0.120	0.025
-339.333	-200.000	-0.006	0.196
-338.318	90.178	-0.168	-0.188
-337.304	-79.936	-0.344	0.116
-336.289	69.109	0.192	0.197
-335.275	-69.176	-0.120	-0.046
-334.260	-3.196	-0.217	0.151
-333.245	614.068	-0.124	0.311
-332.231	69.364	0.085	-0.087
-331.216	-45.807	0.168	0.083
-330.202	57.306	0.283	0.277
-329.187	800.000	0.105	-0.302
-328.172	-116.999	0.377	0.069
-327.158	-107.036	0.195	0.043
-326.143	12.685	0.239	-0.185
-325.129	-140.353	0.233	-0.024
-324.114	214.772	0.094	0.149
-323.099	-200.000	0.062	-0.294
-322.085	-200.000	0.064	0.633
-321.070	-58.304	0.194	0.085
-320.056	-162.061	0.429	-0.022
-319.041	-48.278	0.076	0.037
-318.026	-200.000	0.062	-0.387
-317.012	93.587	0.024	-0.027
-315.997	116.228	0.107	0.131
-314.983	-200.000	-0.076	-0.395
-313.968	8.518	-0.157	-0.118
-312.953	-146.276	0.149	-0.013
-311.939	-147.472	0.356	-0.030
-310.924	-200.000	0.031	-0.252
-309.910	-36.887	0.046	-0.025
-308.895	-176.185	-0.146	-0.004
-307.880	-41.569	-0.225	-0.116
-306.866	35.755	0.320	0.281
-305.851	-200.000	0.006	-0.197
-304.837	205.171	-0.050	-0.078
-303.822	230.075	0.176	-0.287
-302.807	124.947	-0.262	0.330
-301.793	55.727	-0.213	-0.206
-300.778	-57.741	0.133	-0.058
-299.764	-194.696	0.142	-0.001
-298.749	-200.000	-0.012	-0.169
-297.735	800.000	-0.139	-0.540
-296.720	-200.000	0.025	0.135
-295.705	-49.005	-0.195	-0.093
-294.691	-94.052	-0.399	0.109
-293.676	-200.000	0.001	0.053
-292.662	-57.828	0.262	0.114
-291.647	-95.386	0.443	-0.119
-290.632	57.723	-0.077	0.075
-289.618	693.293	-0.176	0.460
-288.603	-151.427	0.026	-0.002
-287.589	-200.000	0.019	-0.365
-286.574	471.993	0.022	-0.049
-285.559	498.757	-0.046	-0.107
-284.545	-47.573	-0.101	-0.049
-283.530	-182.294	0.356	-0.007
-282.516	-54.190	0.082	0.037
-281.501	800.000	-0.065	-0.198
-280.486	-110.297	-0.389	0.081
-279.472	800.000	-0.041	-0.143
-278.457	-99.236	-0.178	0.045
-277.443	800.000	-0.064	-0.216
-276.428	91.707	-0.128	-0.144
-275.413	-146.470	0.043	0.004
-274.399	800.000	-0.085	-0.350
-273.384	-86.721	0.476	0.145
-272.370	-11.381	0.201	0.132
-271.355	-48.514	0.081	-0.039
-270.340	368.344	-0.123	-0.248
-269.326	116.690	-0.081	-0.099
-268.311	-123.779	0.221	-0.035
-267.297	-87.913	-0.346	0.104
-266.282	91.700	0.326	-0.366
-265.267	800.000	0.094	-0.267
-264.253	-13.207	0.241	-0.156
-263.238	-128.842	-0.132	-0.018
-262.224	54.181	0.139	0.133
-261.209	46.683	-0.169	0.156
-260.195	423.726	0.173	-0.371
-259.180	153.711	-0.167	-0.229
-258.165	800.000	0.079	-0.288
-257.151	74.635	-0.097	0.102
-256.136	-13.084	0.454	-0.294
-255.122	-6.793	0.132	0.090
-254.107	800.000	-0.107	0.338
-253.092	618.130	-0.091	0.227
-252.078	-200.000	0.016	0.305
-251.063	-200.000	-0.037	0.273
-250.049	-200.000	0.022	0.150
-249.034	653.596	-0.069	0.178
-248.019	-92.252	-0.379	-0.107
-247.005	-56.421	-0.101	0.045
-245.990	91.796	-0.349	0.392
-244.976	-121.835	0.201	0.033
-243.961	-200.000	-0.013	0.186
-242.946	-82.978	0.257	-0.083
-241.932	175.985	-0.079	0.114
-240.917	32.804	0.231	-0.200
-239.903	268.167	-0.102	-0.177
-238.888	-62.554	-0.210	0.087
-237.873	-139.733	0.209	0.022
-236.859	-73.316	0.110	0.040
-235.844	-141.261	-0.333	-0.034
-234.830	-72.272	0.279	-0.103
-233.815	147.634	-0.147	0.198
-232.800	-200.000	0.019	0.275
-231.786	33.290	0.125	0.108
-230.771	-5.509	-0.055	0.038
-229.757	-200.000	0.073	-0.336
-228.742	24.425	-0.153	0.126
-227.727	-24.518	0.127	-0.075
-226.713	47.858	0.101	-0.094
-225.698	-109.237	0.166	0.035
-224.684	85.359	0.027	0.029
-223.669	57.965	0.125	-0.122
-222.655	18.889	0.110	0.087
-221.640	3.665	0.163	0.119
-220.625	-85.041	0.066	0.021
-219.611	800.000	0.052	0.206
-218.596	-200.000	-0.013	0.153
-217.582	-200.000	0.021	0.110
-216.567	-109.241	-0.257	0.054
-215.552	-200.000	-0.064	0.413
-214.538	-176.271	0.311	0.008
-213.523	-46.743	-0.353	0.172
-212.509	-54.518	-0.224	-0.101
-211.494	800.000	0.042	-0.154
-210.479	127.520	-0.075	-0.095
-209.465	143.400	0.045	0.060
-208.450	-200.000	0.055	0.251
-207.436	-74.927	-0.028	0.010
-206.421	288.712	0.043	-0.078
-205.406	471.274	0.108	-0.242
-204.392	244.610	0.015	-0.025
-203.377	-14.369	-0.092	0.059
-202.363	33.663	0.203	0.176
-201.348	-125.293	-0.280	-0.043
-200.333	-53.722	0.318	0.145
-199.319	-124.586	0.128	-0.020
-198.304	144.478	0.127	0.168
-197.290	75.346	0.154	0.161
-196.275	-131.277	-0.141	-0.019
-195.260	-6.527	-0.322	-0.218
-194.246	-200.000	0.045	-0.342
-193.231	234.450	-0.124	-0.203
-192.217	-122.760	0.134	-0.022
-191.202	-44.171	0.175	-0.087
-190.187	37.652	0.102	-0.090
-189.173	-18.410	0.082	-0.051
-188.158	-90.454	0.091	0.026
-187.144	-200.000	0.363	-0.001
-186.129	-16.766	-0.198	0.124
-185.114	800.000	0.001	-0.002
-184.100	411.574	0.132	0.279
-183.085	152.923	0.071	-0.096
-182.071	-200.000	0.005	0.060
-181.056	135.657	0.208	-0.270
-180.042	39.360	-0.176	-0.156
-179.027	131.327	-0.148	-0.190
-178.012	68.713	0.188	-0.192
-176.998	-41.024	-0.395	0.203
-175.983	800.000	0.054	-0.205
-174.969	-90.178	-0.268	0.077
-173.954	95.917	0.039	0.044
-172.939	10.571	-0.053	0.040
-171.925	-36.959	0.041	0.022
-170.910	800.000	-0.028	0.111
-169.896	-29.832	0.114	0.064
-168.881	693.402	-0.059	0.153
-167.866	-200.000	-0.059	0.313
-166.852	-86.564	0.127	0.039
-165.837	-127.299	0.465	-0.067
-164.823	800.000	0.094	-0.382
-163.808	-200.000	0.043	-0.196
-162.793	278.897	-0.008	0.014
-161.779	85.346	-0.164	-0.179
-160.764	-53.214	0.195	0.089
-159.750	-200.000	0.060	-0.282
-158.735	63.805	-0.038	-0.038
-157.720	137.063	0.090	0.117
-156.706	63.088	0.136	0.135
-155.691	-200.000	0.022	0.127
-154.677	299.437	0.113	0.208
-153.662	-200.000	-0.043	0.286
-152.647	-198.269	-0.339	0.002
-151.633	-200.000	0.018	0.120
-150.618	-200.000	0.022	-0.224
-149.604	800.000	0.113	-0.319
-148.589	62.533	0.107	0.106
-147.574	-138.416	0.098	-0.011
-146.560	115.758	-0.124	0.150
-145.545	1.801	0.092	0.065
-144.531	800.000	0.094	0.275
-143.516	-17.416	-0.191	0.119
-142.502	-200.000	0.086	0.456
-141.487	-114.113	0.058	0.011
-140.472	193.344	0.156	0.234
-139.458	-200.000	0.017	0.163
-138.443	197.294	-0.257	0.390
-137.429	-1.024	-0.179	-0.126
-136.414	6.899	-0.158	0.117
-135.399	-167.613	0.148	0.006
-134.385	291.808	-0.023	0.042
-133.370	12.423	0.332	0.254
-132.356	-200.000	0.008	0.239
-131.341	37.085	-0.105	0.092
-130.326	-31.409	-0.250	0.139
-129.312	-200.000	-0.012	-0.168
-128.297	-53.258	0.143	0.065
-127.283	218.552	-0.230	0.365
-126.268	-200.000	-0.035	0.265
-125.253	-136.181	-0.111	-0.013
-124.239	-177.983	-0.187	-0.004
-123.224	-200.000	-0.052	-0.257
-122.210	-52.314	0.257	0.118
-121.195	-105.651	0.240	0.054
-120.180	800.000	-0.101	0.353
-119.166	444.570	-0.062	-0.135
-118.151	-111.018	0.026	0.005
-117.137	-154.485	-0.345	0.023
-116.122	800.000	-0.032	-0.109
-115.107	-66.961	0.259	-0.101
-114.093	197.499	-0.176	0.267
-113.078	-89.261	-0.242	-0.071
-112.064	800.000	-0.104	0.368
-111.049	-98.470	-0.128	0.032
-110.034	-200.000	-0.062	-0.377
-109.020	800.000	0.033	0.120
-108.005	-92.539	0.438	0.122
-106.991	-118.137	0.441	0.078
-105.976	-200.000	0.024	-0.148
-104.962	-30.300	0.345	0.194
-103.947	83.518	0.100	0.108
-102.932	-200.000	0.016	-0.170
-101.918	13.325	0.334	0.257
-100.903	-49.356	0.227	-0.107
-99.889	-8.489	0.086	-0.057
-98.874	-116.636	-0.162	-0.030
-97.859	30.396	-0.215	0.182
-96.845	-3.337	0.197	0.136
-95.830	115.265	-0.188	-0.228
-94.816	-108.144	0.221	-0.047
-93.801	-200.000	0.022	0.493
-92.786	20.333	0.183	0.147
-91.772	39.374	0.200	-0.178
-90.757	-154.087	0.041	0.003
-89.743	37.064	0.173	-0.152
-88.728	800.000	-0.084	0.298
-87.713	13.770	-0.183	0.141
-86.699	-70.440	-0.156	0.058
-85.684	480.178	-0.054	-0.121
-84.670	-156.806	-0.434	-0.026
-83.655	-48.598	-0.168	0.080
-82.640	88.805	-0.114	0.126
-81.626	21.614	0.102	0.082
-80.611	-49.161	0.151	0.071
-79.597	506.191	0.085	0.195
-78.582	278.832	0.183	-0.324
-77.567	-96.657	0.139	-0.036
-76.553	-200.000	-0.006	0.058
-75.538	109.949	-0.249	0.296
-74.524	187.144	-0.034	0.050
-73.509	-200.000	0.024	-0.318
-72.494	-200.000	0.070	-0.478
-71.480	48.698	-0.129	0.119
-70.465	473.719	-0.068	0.151
-69.451	91.780	0.236	0.262
-68.436	-200.000	-0.017	0.095
-67.422	800.000	-0.083	0.271
-66.407	3.024	-0.250	0.180
-65.392	-48.682	0.107	0.051
-64.378	48.143	-0.237	-0.219
-63.363	800.000	0.021	-0.081
-62.349	14.372	0.380	0.293
-61.334	36.962	-1.007	-0.882
-60.319	88.306	0.453	0.498
-59.305	-200.000	-0.077	-0.757
-58.290	103.242	0.851	0.987
-57.276	390.191	0.799	1.640
-56.261	-200.000	96.059	568.358
-55.246	542.156	1384.595	3266.223
-54.232	150.280	2601.148	3493.367
-53.217	113.777	2182.074	2623.709
-52.203	46.196	1632.926	1496.682
-51.188	37.992	1367.695	1203.208
-50.173	34.604	1324.754	1145.103
-49.159	56.470	1373.647	1321.355
-48.144	60.389	1392.082	1362.935
-47.130	38.185	1345.945	1185.059
-46.115	34.537	1328.128	1147.436
-45.100	34.252	1323.779	1141.920
-44.086	34.310	1320.905	1139.749
-43.071	34.254	1318.515	1137.306
-42.057	34.108	1316.755	1134.870
-41.042	34.202	1314.807	1133.705
-40.027	34.226	1313.451	1132.632
-39.013	34.255	1311.348	1130.948
-37.998	34.295	1309.399	1129.459
-36.984	34.375	1307.524	1128.271
-35.969	34.367	1305.893	1126.771
-34.954	34.413	1304.419	1125.726
-33.940	34.397	1303.169	1124.510
-32.925	34.397	1302.033	1123.484
-31.911	34.447	1300.544	1122.450
-30.896	34.530	1298.559	1121.181
-29.881	34.484	1297.195	1119.690
-28.867	34.569	1295.693	1118.845
-27.852	34.434	1294.526	1117.000
-26.838	34.461	1292.790	1115.616
-25.823	34.443	1291.649	1114.481
-24.809	34.482	1290.170	1113.393
-23.794	34.418	1289.203	1112.136
-22.779	34.380	1287.851	1110.709
-21.765	34.435	1286.327	1109.668
-20.750	34.488	1284.754	1108.573
-19.736	34.369	1283.824	1107.036
-18.721	34.300	1282.764	1105.681
-17.706	34.337	1281.173	1104.479
-16.692	34.280	1280.106	1103.182
-15.677	34.331	1278.871	1102.369
-14.663	34.295	1277.883	1101.270
-13.648	34.332	1276.854	1100.550
-12.633	34.351	1275.591	1099.529
-11.619	34.269	1275.098	1098.588
-10.604	34.278	1274.349	1097.952
-9.590	34.288	1273.158	1096.939
-8.575	34.256	1272.204	1095.890
-7.560	34.171	1271.919	1095.111
-6.546	34.246	1270.518	1094.293
-5.531	34.281	1269.595	1093.653
-4.517	34.365	1268.335	1093.004
-3.502	34.326	1267.621	1092.123
-2.487	34.250	1267.279	1091.350
-1.473	34.138	1263.657	1087.550
-0.458	33.363	1248.576	1070.150
0.556	30.030	1231.159	1034.431
1.571	26.736	1237.040	1020.763
2.586	25.715	1253.464	1028.394
3.600	24.777	1241.881	1013.487
4.615	17.686	1165.985	913.599
5.629	6.893	1085.892	796.624
6.644	2.119	1064.682	757.358
7.659	1.815	1061.743	753.702
8.673	1.606	1060.530	751.742
9.688	1.541	1058.858	750.167
10.702	1.711	1057.635	750.072
11.717	8.145	1067.233	788.714
12.731	18.683	1083.262	853.142
13.746	24.140	1089.168	884.908
14.761	24.849	1090.103	889.114
15.775	25.049	1088.886	889.035
16.790	24.823	1088.486	887.510
17.804	24.714	1088.040	886.527
18.819	24.713	1087.908	886.338
19.834	24.853	1087.128	886.315
20.848	24.966	1086.877	886.593
21.863	24.963	1086.183	885.932
22.877	24.878	1085.285	884.703
23.892	24.855	1084.982	884.263
24.907	24.896	1084.219	883.764
25.921	24.840	1083.008	882.425
26.936	24.785	1081.489	880.838
27.950	24.883	1079.699	879.786
28.965	24.596	1078.652	877.441
29.980	24.762	1076.925	876.773
30.994	24.997	1075.980	877.077
32.009	25.068	1074.635	876.251
33.023	24.789	1073.577	873.951
34.038	24.796	1073.147	873.555
35.053	25.031	1072.030	873.717
36.067	24.818	1071.826	872.433
37.082	24.962	1070.942	872.337
38.096	25.126	1070.662	872.829
39.111	25.204	1069.396	872.100
40.126	25.044	1068.071	870.166
41.140	24.667	1066.296	866.813
42.155	24.485	1064.996	864.802
43.169	24.532	1063.876	864.043
44.184	24.531	1063.005	863.252
45.199	24.387	1062.410	861.999
46.213	24.442	1061.320	861.301
47.228	24.664	1060.589	861.706
48.242	24.766	1059.501	861.236
49.257	24.935	1058.689	861.311
50.271	24.848	1058.515	860.676
51.286	24.983	1057.753	860.630
52.301	25.129	1056.269	860.047
53.315	24.894	1055.524	858.237
54.330	24.953	1054.402	857.531
55.344	24.996	1053.728	857.110
56.359	24.918	1052.654	855.790
57.374	24.630	1052.156	853.935
58.388	24.645	1051.396	853.312
59.403	24.660	1050.018	852.190
60.417	24.425	1049.786	850.805
61.432	24.669	1048.701	851.015
62.447	24.712	1048.238	850.767
63.461	24.637	1047.656	849.861
64.476	24.619	1046.217	848.537
65.490	24.434	1045.794	847.237
66.505	24.607	1044.793	847.174
67.520	24.688	1044.071	846.898
68.534	24.381	1043.262	844.709
69.549	24.173	1041.387	842.136
70.563	24.233	1040.810	841.880
71.578	24.102	1040.396	840.852
72.593	24.023	1039.384	839.587
73.607	24.041	1038.837	839.155
74.622	24.468	1038.511	840.830
75.636	24.392	1037.820	839.836
76.651	24.357	1036.433	838.476
77.666	24.298	1035.716	837.542
78.680	24.307	1035.551	837.381
79.695	24.429	1034.827	837.291
80.709	24.544	1033.885	836.996
81.724	24.418	1033.339	835.888
82.739	24.560	1032.388	835.708
83.753	24.946	1032.053	837.168
84.768	25.103	1031.417	837.311
85.782	25.319	1030.327	837.359
86.797	25.113	1029.361	835.543
87.812	24.999	1028.360	834.126
88.826	25.246	1027.064	834.148
89.841	25.106	1026.667	833.101
90.855	25.275	1025.305	832.706
91.870	25.214	1024.461	831.666
92.884	24.938	1023.870	829.833
93.899	24.932	1022.502	828.621
94.914	25.236	1021.767	829.361
95.928	25.021	1020.857	827.555
96.943	24.870	1019.287	825.514
97.957	24.587	1018.177	823.235
98.972	24.325	1017.605	821.493
99.987	24.756	1016.874	822.814
101.001	24.953	1015.607	822.623
102.016	25.005	1014.610	821.978
103.030	24.865	1013.691	820.520
104.045	24.743	1013.128	819.432
105.060	24.616	1011.878	817.769
106.074	24.649	1011.764	817.756
107.089	24.922	1011.395	818.632
108.103	24.953	1009.895	817.490
109.118	24.685	1008.974	815.448
110.133	24.501	1007.811	813.598
111.147	24.443	1006.231	811.986
112.162	24.356	1005.639	811.043
113.176	24.628	1005.227	811.872
114.191	24.604	1004.218	810.877
115.206	24.161	1002.958	807.780
116.220	24.152	1002.720	807.478
117.235	24.241	1001.874	807.127
118.249	24.352	1001.040	806.886
119.264	24.342	999.959	805.897
120.279	24.324	999.287	805.203
121.293	24.383	998.178	804.503
122.308	24.445	997.500	804.165
123.322	24.236	996.731	802.536
124.337	24.139	995.397	800.951
125.352	23.681	993.516	797.313
126.366	23.626	992.699	796.340
127.381	24.375	992.931	799.814
128.395	24.739	992.718	801.202
129.410	24.958	991.490	801.120
130.424	24.877	990.930	800.235
131.439	24.852	989.770	799.118
132.454	24.876	988.728	798.310
133.468	24.596	988.191	796.560
134.483	24.853	987.597	797.155
135.497	25.148	986.432	797.454
136.512	25.190	985.654	796.945
137.527	25.090	985.153	796.025
138.541	25.113	984.266	795.336
139.556	25.117	983.243	794.459
140.570	25.159	982.864	794.268
141.585	25.259	981.592	793.612
142.600	25.118	980.776	792.262
143.614	25.295	980.138	792.454
144.629	25.442	979.179	792.258
145.643	25.249	978.091	790.459
146.658	25.174	976.623	788.871
147.673	25.073	975.571	787.507
148.687	24.956	974.595	786.138
149.702	24.854	973.483	784.724
150.716	24.826	972.744	783.937
151.731	25.032	971.998	784.167
152.746	25.199	971.445	784.382
153.760	25.169	971.220	783.999
154.775	25.296	970.749	784.104
155.789	25.259	969.497	782.865
156.804	25.301	968.440	782.121
157.819	25.353	967.739	781.714
158.833	25.350	967.008	781.042
159.848	25.439	966.165	780.680
160.862	25.287	964.848	778.887
161.877	25.301	963.593	777.862
162.892	25.325	962.898	777.338
163.906	25.176	961.768	775.712
164.921	25.329	960.827	775.548
165.935	25.367	959.834	774.839
166.950	25.307	958.962	773.810
167.964	25.269	958.003	772.804
168.979	25.121	956.670	771.025
169.994	25.168	955.850	770.494
171.008	25.444	955.399	771.250
172.023	25.306	954.985	770.256
173.037	25.074	953.721	768.173
174.052	24.940	953.085	767.019
175.067	24.981	952.308	766.501
176.081	25.008	951.732	766.086
177.096	25.027	951.025	765.530
178.110	24.853	949.818	763.746
179.125	24.673	948.687	762.003
180.140	24.628	949.003	761.997
181.154	24.849	948.764	762.679
182.169	25.075	948.657	763.491
183.183	25.278	947.696	763.511
184.198	25.262	947.059	762.864
185.213	25.179	946.486	761.983
186.227	25.333	945.463	761.746
187.242	25.356	944.777	761.220
188.256	25.297	944.154	760.403
189.271	25.487	943.599	760.694
190.286	25.019	942.370	757.657
191.300	24.362	940.969	753.687
192.315	23.712	939.218	749.478
193.329	23.679	938.654	748.821
194.344	24.422	940.085	753.034
195.359	25.020	939.334	754.886
196.373	25.173	938.918	755.127
197.388	25.187	938.138	754.492
198.402	25.135	937.520	753.712
199.417	25.306	936.787	753.771
200.432	24.891	935.897	751.247
201.446	24.794	935.122	750.155
202.461	24.820	934.492	749.688
203.475	24.008	932.731	744.816
204.490	23.216	931.505	740.458
205.504	24.127	931.865	744.490
206.519	24.777	931.883	747.154
207.534	24.857	931.424	747.053
208.548	25.196	931.171	748.196
209.563	25.040	929.917	746.472
210.577	24.981	929.678	745.972
211.592	25.379	929.446	747.375
212.607	25.385	928.632	746.679
213.621	25.420	927.575	745.908
214.636	25.393	927.179	745.413
215.650	25.227	926.362	744.001
216.665	25.449	925.913	744.495
217.680	25.283	925.143	743.121
218.694	25.012	923.844	740.894
219.709	24.758	923.528	739.526
220.723	25.069	923.004	740.323
221.738	25.128	922.597	740.175
222.753	25.195	921.548	739.546
223.767	25.273	921.632	739.868
224.782	25.362	921.411	739.991
225.796	25.573	920.121	739.757
226.811	24.711	919.115	735.340
227.826	24.163	917.398	731.651
228.840	24.448	916.836	732.310
229.855	24.477	916.392	732.007
230.869	24.127	915.043	729.431
231.884	24.401	915.687	731.003
232.899	25.110	915.412	733.622
233.913	25.103	914.883	733.105
234.928	25.057	914.406	732.468
235.942	25.121	913.725	732.119
236.957	24.798	912.976	730.137
237.972	24.843	912.189	729.625
238.986	24.935	911.525	729.407
240.001	24.843	911.219	728.724
241.015	24.925	911.160	728.946
242.030	25.072	910.375	728.849
243.045	25.237	909.612	728.846
244.059	25.218	909.639	728.725
245.074	25.102	908.596	727.353
246.088	24.807	907.379	725.121
247.103	25.152	907.100	726.230
248.117	25.650	907.263	728.313
249.132	25.856	906.877	728.772
250.147	25.915	906.584	728.710
251.161	26.167	905.583	728.858
252.176	26.037	905.373	728.099
253.190	26.109	904.614	727.717
254.205	26.241	904.325	727.952
255.220	26.235	903.519	727.216
256.234	26.046	902.712	725.739
257.249	26.149	902.045	725.555
258.263	26.063	901.413	724.634
259.278	26.072	900.661	724.002
260.293	26.005	900.130	723.244
261.307	25.916	899.509	722.323
262.322	25.819	898.497	721.058
263.336	24.956	897.096	716.419
264.351	24.037	894.718	710.791
265.366	24.146	894.873	711.284
266.380	25.255	895.306	715.995
267.395	25.743	895.087	717.700
268.409	25.625	894.178	716.441
269.424	25.920	893.552	717.049
270.439	25.789	893.202	716.181
271.453	26.049	892.637	716.700
272.468	26.099	892.589	716.795
273.482	26.267	891.485	716.512
274.497	25.662	890.355	713.144
275.512	25.285	889.655	711.026
276.526	25.813	889.425	712.870
277.541	25.971	889.499	713.494
278.555	25.841	887.956	711.678
279.570	25.625	887.370	710.292
280.585	25.762	886.831	710.338
281.599	25.673	886.044	709.293
282.614	25.150	885.027	706.359
283.628	25.120	885.034	706.182
284.643	25.512	884.239	707.030
285.657	25.172	882.635	704.348
286.672	24.884	881.992	702.644
287.687	25.379	882.436	704.879
288.701	25.540	881.226	704.481
289.716	25.078	880.652	702.148
290.730	25.029	880.106	701.461
291.745	24.813	878.954	699.636
292.760	25.205	879.015	701.154
293.774	26.156	879.429	705.138
294.789	26.237	879.509	705.456
295.803	26.568	878.204	705.639
296.818	26.477	877.557	704.702
297.833	26.059	876.181	701.910
298.847	25.918	876.180	701.295
299.862	26.074	876.272	701.915
300.876	26.403	875.507	702.520
301.891	26.484	874.531	701.986
302.906	25.893	873.732	698.994
303.920	26.174	873.749	700.035
304.935	26.315	873.484	700.307
305.949	26.410	872.277	699.644
306.964	26.145	871.794	698.171
307.979	26.272	871.577	698.426
308.993	26.572	871.258	699.267
310.008	26.618	870.780	698.998
311.022	26.308	869.633	696.820
312.037	26.162	869.211	695.859
313.052	25.919	867.993	693.888
314.066	24.889	866.733	688.856
315.081	24.685	866.210	687.598
316.095	25.593	866.537	691.286
317.110	26.118	866.342	693.086
318.125	25.231	864.297	687.989
319.139	24.230	862.737	682.852
320.154	24.065	863.170	682.503
321.168	24.995	863.052	685.912
322.183	25.900	862.889	689.186
323.197	25.934	862.955	689.305
324.212	26.160	862.533	689.773
325.227	26.278	861.563	689.387
326.241	25.889	861.347	687.667
327.256	25.880	860.627	686.996
328.270	25.842	859.732	686.079
329.285	25.731	858.727	684.794
330.300	25.549	857.802	683.304
331.314	25.705	857.911	683.923
332.329	26.294	858.228	686.354
333.343	26.213	857.675	685.541
334.358	26.137	857.378	684.957
335.373	26.312	856.918	685.192
336.387	26.769	856.514	686.539
337.402	26.759	856.550	686.470
338.416	26.690	856.390	686.018
339.431	26.631	856.205	685.587
340.446	27.000	855.492	686.349
341.460	26.769	854.645	684.738
342.475	26.532	854.769	683.880
343.489	26.706	854.279	684.085
344.504	26.793	854.035	684.157
345.519	27.136	853.348	684.838
346.533	27.078	853.174	684.420
347.548	27.134	852.719	684.208
348.562	27.314	851.673	683.984
349.577	26.913	851.220	682.052
350.592	27.011	850.379	681.685
351.606	26.977	849.754	680.996
352.621	26.750	849.277	679.703
353.635	26.828	848.075	678.974
354.650	26.150	846.765	675.327
355.665	25.278	845.249	670.802
356.679	25.621	845.164	671.958
357.694	26.161	844.585	673.454
358.708	25.911	844.407	672.317
359.723	26.401	844.188	673.912
360.738	26.489	843.799	673.867
361.752	26.878	843.298	674.857
362.767	27.187	843.071	675.764
363.781	27.479	842.678	676.474
364.796	27.466	842.174	675.960
365.810	27.414	842.037	675.599
366.825	27.558	841.112	675.331
367.840	26.988	840.720	672.842
368.854	26.832	839.690	671.381
369.869	26.711	839.282	670.550
370.883	26.837	838.987	670.720
371.898	26.785	838.352	669.960
372.913	26.921	837.900	670.042
373.927	27.029	837.479	670.046
374.942	27.073	837.155	669.889
375.956	27.127	837.012	669.914
376.971	27.295	836.357	669.951
377.986	27.500	836.132	670.465
379.000	27.426	835.720	669.802
380.015	27.133	835.061	668.139
381.029	27.256	834.599	668.160
382.044	27.378	833.878	667.974
383.059	27.333	833.234	667.234
384.073	27.382	833.076	667.228
385.088	27.240	832.567	666.241
386.102	27.184	831.336	664.992
387.117	27.044	830.774	663.972
388.132	26.729	829.732	661.928
389.146	26.242	828.462	659.080
390.161	26.666	828.592	660.672
391.175	27.079	828.340	661.917
392.190	26.885	827.400	660.402
393.205	25.426	825.130	653.232
394.219	23.911	823.475	646.363
395.234	23.705	823.388	645.488
396.248	25.414	824.227	652.301
397.263	26.902	825.358	658.542
398.278	26.951	825.026	658.398
399.292	26.560	824.460	656.470
400.307	26.645	824.136	656.463
401.321	26.795	823.278	656.263
402.336	27.225	823.245	657.736
403.350	27.562	823.439	659.050
404.365	27.697	823.194	659.284
405.380	27.958	823.347	660.291
406.394	28.186	822.273	660.194
407.409	28.134	821.947	659.687
408.423	28.081	821.495	659.076
409.438	28.133	821.121	658.903
410.453	28.255	820.809	659.033
411.467	28.039	820.141	657.663
412.482	28.118	819.569	657.432
413.496	28.088	819.528	657.231
414.511	27.990	819.314	656.649
415.526	28.086	818.351	656.164
416.540	28.023	817.563	655.246
417.555	27.718	816.998	653.644
418.569	27.816	816.506	653.543
419.584	27.675	816.316	652.828
420.599	27.664	815.313	651.931
421.613	106.382	1283.944	1445.349
422.628	91.959	1352.223	1445.461
