DTS Sentinel unit serial number:	SN413079Multiplexer serial number:	ORYXHardware model number:	OX4-SRSoftware version number:	ORYX F/W v4.00 Oryx Data Collector v3.7.2.0data status	okinstallation	princeton_trtdifferential loss correction	single-endedforward channel	channel 1reverse channel	N/Adate	2019/09/13time	11:18:35forward acquisition time	60.00reverse acquisition time	0.00gamma	496.2192k internal	0.2316k external	0.2316temperature offset calibration	1.0156default loss term (dB/km)	0.3790temperature slope calibration	1.0000multiplexer offset coefficient	1.0000multiplexer slope coefficient	1.0000fibre end	0.00T internal ref (°C)	32.37T ext. ref 1 (°C)	4.70T ext. ref 2 (°C)	29.58length (m)	temperature (°C)	Stokes	anti-Stokes-747.200	13.446	-0.087	-0.068
-746.185	-167.364	0.246	0.010
-745.171	800.000	0.058	0.198
-744.156	515.443	0.073	-0.174
-743.142	45.855	-0.249	-0.233
-742.127	6.163	-0.349	0.262
-741.112	-98.373	-0.283	-0.073
-740.098	-102.668	0.217	0.052
-739.083	55.902	0.101	-0.099
-738.069	-78.003	-0.031	-0.011
-737.054	-116.242	0.283	0.053
-736.039	-58.495	-0.156	0.068
-735.025	209.239	0.046	-0.073
-734.010	-99.157	0.120	0.031
-732.996	-49.951	-0.395	0.190
-731.981	675.032	0.044	-0.115
-730.966	525.639	0.044	0.106
-729.952	800.000	-0.060	-0.241
-728.937	800.000	0.049	-0.197
-727.923	297.857	-0.132	-0.246
-726.908	45.386	-0.087	0.081
-725.894	-103.209	-0.267	-0.064
-724.879	59.223	-0.075	0.075
-723.864	714.620	0.066	0.178
-722.850	738.299	0.057	-0.155
-721.835	-17.520	-0.240	-0.153
-720.821	800.000	-0.019	-0.071
-719.806	68.749	-0.319	-0.331
-718.791	718.922	0.071	-0.191
-717.777	-81.171	-0.249	0.083
-716.762	-200.000	0.010	0.189
-715.748	154.118	-0.149	0.206
-714.733	-93.053	0.442	0.125
-713.718	-165.776	-0.311	-0.014
-712.704	181.291	0.176	-0.262
-711.689	-133.309	-0.204	0.026
-710.675	-200.000	-0.048	-0.223
-709.660	18.812	-0.123	0.100
-708.645	99.049	-0.174	-0.203
-707.631	-200.000	-0.040	-0.214
-706.616	597.339	0.104	0.260
-705.602	34.334	-0.351	0.310
-704.587	-104.594	0.140	-0.033
-703.572	97.281	-0.269	-0.312
-702.558	-7.986	-0.105	-0.072
-701.543	-16.431	0.211	-0.135
-700.529	800.000	-0.027	-0.094
-699.514	159.983	-0.163	-0.229
-698.499	-125.621	-0.308	0.047
-697.485	-200.000	-0.020	-0.122
-696.470	-200.000	-0.004	-0.175
-695.456	-63.216	0.156	0.065
-694.441	325.918	0.099	-0.192
-693.426	505.953	0.072	-0.168
-692.412	-70.581	-0.085	0.033
-691.397	135.170	-0.211	-0.277
-690.383	128.251	-0.194	-0.250
-689.368	-15.753	-0.124	0.080
-688.354	800.000	0.067	0.226
-687.339	-44.581	0.199	0.101
-686.324	-132.819	-0.261	-0.034
-685.310	16.690	-0.308	0.246
-684.295	800.000	0.074	-0.231
-683.281	-0.786	0.208	0.149
-682.266	78.252	0.145	-0.157
-681.251	19.944	0.113	0.092
-680.237	800.000	0.114	0.364
-679.222	800.000	-0.077	-0.227
-678.208	67.147	0.198	-0.204
-677.193	-54.806	-0.314	-0.143
-676.178	-144.822	-0.387	-0.036
-675.164	800.000	-0.059	-0.246
-674.149	265.439	0.200	0.352
-673.135	-128.621	0.259	-0.037
-672.120	-169.129	-0.299	0.011
-671.105	168.736	-0.051	-0.074
-670.091	-22.597	-0.312	0.190
-669.076	-51.389	-0.161	0.076
-668.062	800.000	0.093	-0.290
-667.047	-200.000	-0.013	0.170
-666.032	-120.812	-0.213	0.036
-665.018	-105.503	0.207	-0.047
-664.003	64.093	-0.247	0.251
-662.989	62.225	-0.179	0.181
-661.974	-109.685	-0.245	-0.052
-660.959	103.434	0.017	0.020
-659.945	24.556	-0.092	-0.077
-658.930	26.799	-0.216	0.182
-657.916	-66.893	-0.048	0.019
-656.901	-57.517	0.084	0.037
-655.886	9.113	-0.115	-0.088
-654.872	-21.498	0.217	-0.134
-653.857	-51.027	-0.131	-0.062
-652.843	-112.219	-0.118	0.024
-651.828	510.998	-0.082	0.193
-650.814	-200.000	-0.021	-0.099
-649.799	102.074	-0.138	-0.163
-648.784	23.855	-0.223	-0.186
-647.770	800.000	0.112	-0.363
-646.755	-24.130	0.442	-0.266
-645.741	255.690	0.124	-0.215
-644.726	-137.614	0.232	0.026
-643.711	32.149	-0.045	0.040
-642.697	-200.000	0.019	-0.256
-641.682	-200.000	0.030	-0.451
-640.668	-71.190	0.151	-0.057
-639.653	-200.000	0.002	0.012
-638.638	-47.791	-0.136	-0.067
-637.624	-110.271	0.229	0.048
-636.609	-200.000	-0.058	-0.404
-635.595	364.998	-0.085	-0.173
-634.580	46.439	-0.253	-0.237
-633.565	-25.406	0.109	-0.065
-632.551	606.774	-0.149	-0.376
-631.536	9.281	-0.087	-0.067
-630.522	-66.956	0.232	0.092
-629.507	227.693	0.199	-0.326
-628.492	-88.693	0.354	0.106
-627.478	9.501	-0.059	0.045
-626.463	597.083	-0.091	-0.227
-625.449	-86.148	0.318	0.099
-624.434	584.887	0.111	0.276
-623.419	-89.322	0.104	-0.031
-622.405	-15.200	0.175	0.113
-621.390	-73.646	0.161	0.059
-620.376	-66.143	-0.317	-0.127
-619.361	480.443	0.126	0.288
-618.346	-25.724	0.126	-0.075
-617.332	-123.975	0.136	-0.022
-616.317	446.563	-0.069	-0.153
-615.303	-73.558	0.081	0.030
-614.288	589.244	0.090	0.225
-613.273	-56.242	0.197	-0.088
-612.259	-96.777	0.208	-0.055
-611.244	-46.972	-0.204	-0.101
-610.230	18.450	-0.094	-0.075
-609.215	-116.018	-0.174	-0.033
-608.201	-160.499	-0.472	0.025
-607.186	800.000	0.073	-0.225
-606.171	110.817	-0.252	0.305
-605.157	78.463	0.218	0.235
-604.142	-200.000	-0.054	0.317
-603.128	-154.676	-0.087	-0.006
-602.113	-82.648	0.111	-0.036
-601.098	128.987	-0.136	-0.175
-600.084	84.404	0.195	-0.214
-599.069	13.202	0.134	-0.105
-598.055	228.973	0.067	0.109
-597.040	800.000	0.071	0.218
-596.025	425.200	0.024	-0.053
-595.011	-81.410	-0.371	0.123
-593.996	-10.544	-0.142	-0.094
-592.982	-9.887	0.117	0.078
-591.967	-149.587	0.236	-0.019
-590.952	-55.093	-0.026	-0.012
-589.938	200.634	0.196	0.303
-588.923	-83.409	-0.265	-0.086
-587.909	-200.000	0.008	-0.275
-586.894	-34.005	0.089	0.049
-585.879	-106.805	0.260	-0.058
-584.865	564.293	-0.037	0.091
-583.850	-200.000	-0.006	0.026
-582.836	209.629	-0.135	-0.213
-581.821	459.740	0.114	-0.255
-580.806	800.000	0.088	0.254
-579.792	800.000	-0.003	0.007
-578.777	162.293	-0.131	0.184
-577.763	-200.000	0.001	0.052
-576.748	-92.522	-0.287	0.081
-575.733	441.245	-0.088	0.194
-574.719	-86.031	-0.230	0.072
-573.704	372.703	0.012	0.025
-572.690	-76.153	0.145	-0.051
-571.675	22.604	0.089	0.073
-570.661	-27.764	-0.059	0.035
-569.646	13.355	-0.074	-0.057
-568.631	15.842	-0.100	0.079
-567.617	800.000	-0.082	-0.243
-566.602	349.623	0.040	0.079
-565.588	-200.000	-0.017	-0.261
-564.573	549.267	-0.044	0.105
-563.558	69.683	0.107	0.111
-562.544	800.000	0.096	-0.274
-561.529	12.023	-0.234	0.181
-560.515	302.290	-0.082	-0.153
-559.500	48.380	-0.332	-0.313
-558.485	52.896	0.043	-0.042
-557.471	-98.072	0.296	0.077
-556.456	295.754	0.081	-0.150
-555.442	-99.242	-0.314	0.080
-554.427	-20.898	0.276	0.170
-553.412	-104.683	-0.043	0.010
-552.398	50.500	-0.192	0.183
-551.383	-27.759	0.066	0.038
-550.369	-123.237	0.063	0.010
-549.354	1.074	0.122	-0.088
-548.339	-178.090	-0.264	-0.006
-547.325	23.870	0.290	-0.240
-546.310	-200.000	0.011	-0.093
-545.296	63.339	0.021	0.021
-544.281	-86.696	-0.481	0.148
-543.266	-138.558	-0.139	0.015
-542.252	-16.007	-0.126	0.081
-541.237	800.000	-0.105	0.298
-540.223	-17.610	-0.117	0.074
-539.208	-200.000	0.026	0.257
-538.193	-200.000	0.014	0.174
-537.179	-81.007	-0.327	-0.109
-536.164	-200.000	0.039	0.190
-535.150	-175.794	-0.152	0.004
-534.135	6.122	0.105	-0.078
-533.121	800.000	-0.047	-0.175
-532.106	-200.000	0.024	-0.144
-531.091	3.339	0.136	-0.099
-530.077	-200.000	0.035	-0.154
-529.062	-111.149	-0.224	0.046
-528.048	800.000	0.032	-0.135
-527.033	300.087	-0.084	-0.155
-526.018	800.000	-0.057	0.237
-525.004	99.125	-0.127	0.147
-523.989	130.839	-0.112	-0.145
-522.975	-96.679	-0.161	0.043
-521.960	-5.098	0.133	-0.092
-520.945	-29.334	0.184	0.106
-519.931	-87.237	-0.060	-0.018
-518.916	-14.361	-0.171	-0.111
-517.902	117.893	0.129	0.159
-516.887	-148.129	0.314	0.026
-515.872	733.348	0.043	0.115
-514.858	365.582	0.137	0.277
-513.843	800.000	0.010	-0.042
-512.829	-76.478	-0.217	0.076
-511.814	-19.631	-0.091	0.057
-510.799	-76.304	-0.250	0.088
-509.785	217.331	-0.108	0.173
-508.770	10.572	-0.163	0.125
-507.756	-200.000	-0.016	0.263
-506.741	113.326	0.134	-0.164
-505.726	50.701	-0.110	-0.104
-504.712	-200.000	-0.037	-0.287
-503.697	275.344	0.135	-0.240
-502.683	-109.192	0.330	-0.070
-501.668	800.000	-0.028	0.110
-500.653	47.940	0.272	0.255
-499.639	167.365	-0.122	0.173
-498.624	-200.000	0.003	-0.029
-497.610	-131.778	-0.219	0.029
-496.595	-101.391	0.320	-0.078
-495.581	81.977	-0.116	-0.127
-494.566	-200.000	-0.015	-0.409
-493.551	-8.785	0.089	0.060
-492.537	41.290	0.051	0.046
-491.522	-88.630	-0.170	0.051
-490.508	0.818	0.218	-0.156
-489.493	-82.115	-0.122	-0.040
-488.478	-110.799	-0.118	-0.024
-487.464	-105.690	-0.346	-0.078
-486.449	-115.996	0.169	0.032
-485.435	-81.628	-0.282	-0.093
-484.420	214.143	-0.083	-0.132
-483.405	-92.734	0.175	-0.049
-482.391	-200.000	-0.015	0.073
-481.376	-40.784	-0.269	-0.140
-480.362	127.594	-0.080	-0.102
-479.347	738.945	0.165	-0.443
-478.332	-200.000	-0.012	-0.390
-477.318	90.757	-0.363	-0.408
-476.303	62.171	-0.091	-0.091
-475.289	1.057	0.054	-0.039
-474.274	-194.591	0.328	0.003
-473.259	453.619	-0.114	-0.253
-472.245	-35.302	-0.065	0.035
-471.230	37.120	0.166	0.147
-470.216	-110.362	-0.183	0.038
-469.201	-62.229	-0.063	-0.026
-468.186	482.116	0.194	-0.442
-467.172	29.312	-0.121	-0.103
-466.157	-200.000	-0.042	0.186
-465.143	-200.000	0.013	0.165
-464.128	163.964	-0.064	0.090
-463.113	135.528	0.217	-0.282
-462.099	130.093	-0.244	-0.312
-461.084	-200.000	0.004	-0.085
-460.070	-136.361	0.349	0.041
-459.055	69.934	-0.125	-0.129
-458.040	16.822	-0.153	0.122
-457.026	800.000	0.020	-0.067
-456.011	72.339	0.109	-0.114
-454.997	136.644	-0.046	-0.061
-453.982	-41.374	-0.068	-0.035
-452.968	-96.468	0.247	0.065
-451.953	150.851	-0.252	0.343
-450.938	-91.701	-0.203	-0.058
-449.924	-22.135	-0.162	-0.099
-448.909	61.278	0.316	0.314
-447.895	167.458	0.060	0.086
-446.880	199.141	-0.216	0.332
-445.865	46.095	-0.193	-0.179
-444.851	-200.000	0.045	-0.389
-443.836	-144.335	0.093	0.009
-442.822	511.747	0.025	0.059
-441.807	-200.000	0.001	0.207
-440.792	292.185	0.147	0.269
-439.778	-126.010	-0.164	-0.025
-438.763	-22.552	0.179	0.108
-437.749	322.072	0.052	-0.099
-436.734	42.920	-0.208	0.190
-435.719	-47.060	0.175	-0.086
-434.705	-130.958	-0.124	0.017
-433.690	-75.766	-0.048	-0.017
-432.676	66.247	-0.194	-0.197
-431.661	-49.300	-0.135	0.064
-430.646	-3.227	0.163	-0.114
-429.632	-200.000	0.004	0.176
-428.617	10.583	0.156	0.119
-427.603	-200.000	0.074	0.431
-426.588	800.000	-0.072	0.205
-425.573	221.088	-0.150	-0.241
-424.559	-200.000	0.010	-0.442
-423.544	147.255	0.088	-0.118
-422.530	-41.773	0.065	0.033
-421.515	-14.101	-0.252	-0.163
-420.500	-200.000	-0.006	0.479
-419.486	80.303	0.298	0.321
-418.471	800.000	0.060	0.234
-417.457	-122.252	-0.329	0.054
-416.442	-108.167	-0.461	-0.100
-415.428	-39.067	0.325	-0.171
-414.413	679.545	0.042	0.110
-413.398	295.773	0.141	-0.258
-412.384	160.777	0.069	-0.096
-411.369	516.026	0.170	-0.397
-410.355	-85.055	0.277	0.087
-409.340	-107.339	0.152	-0.033
-408.325	-56.423	0.198	-0.088
-407.311	-111.768	-0.141	0.028
-406.296	366.272	-0.122	0.246
-405.282	795.917	0.088	0.243
-404.267	224.601	0.263	0.425
-403.252	-89.736	0.234	0.068
-402.238	-3.809	-0.210	-0.146
-401.223	800.000	0.074	0.253
-400.209	-114.947	0.478	0.091
-399.194	55.452	-0.045	0.044
-398.179	800.000	0.056	-0.241
-397.165	89.246	0.202	0.225
-396.150	-200.000	-0.009	0.350
-395.136	-101.943	-0.143	-0.035
-394.121	-107.257	-0.177	0.039
-393.106	-119.437	0.196	0.034
-392.092	-200.000	0.034	0.193
-391.077	-167.048	-0.308	0.013
-390.063	156.169	-0.212	-0.292
-389.048	24.868	0.121	-0.100
-388.033	-200.000	0.035	0.256
-387.019	-200.000	0.071	0.510
-386.004	27.446	0.130	0.109
-384.990	56.575	-0.100	-0.097
-383.975	-200.000	-0.010	-0.174
-382.960	-27.787	-0.131	-0.076
-381.946	8.604	0.175	-0.131
-380.931	133.681	-0.394	0.509
-379.917	-200.000	-0.034	-0.236
-378.902	-29.121	-0.037	-0.021
-377.888	38.258	0.094	0.083
-376.873	-200.000	-0.046	0.341
-375.858	349.924	0.111	0.220
-374.844	-200.000	0.020	-0.165
-373.829	119.552	-0.163	-0.201
-372.815	-200.000	-0.044	0.304
-371.800	-101.315	0.077	0.019
-370.785	130.332	-0.038	-0.048
-369.771	-200.000	0.006	-0.110
-368.756	-92.382	-0.351	-0.098
-367.742	131.377	-0.125	0.161
-366.727	35.408	-0.140	-0.122
-365.712	191.139	0.179	-0.268
-364.698	-49.526	-0.228	-0.108
-363.683	-56.458	0.185	-0.082
-362.669	-200.000	0.081	-0.405
-361.654	236.592	0.245	-0.404
-360.639	186.949	0.131	0.195
-359.625	216.482	0.104	-0.166
-358.610	211.391	-0.167	0.263
-357.596	-200.000	-0.003	0.029
-356.581	204.284	0.095	0.147
-355.566	-48.168	-0.053	0.026
-354.552	-183.688	0.352	-0.006
-353.537	54.662	0.113	0.109
-352.523	800.000	-0.061	-0.221
-351.508	-34.370	-0.109	0.059
-350.493	-200.000	-0.073	0.327
-349.479	378.024	-0.108	0.221
-348.464	-28.962	0.119	0.068
-347.450	-200.000	0.046	0.289
-346.435	-99.351	-0.091	0.023
-345.420	-170.463	-0.078	-0.003
-344.406	546.606	-0.034	0.081
-343.391	-143.556	-0.268	-0.025
-342.377	-16.505	-0.157	0.099
-341.362	-101.335	-0.148	0.036
-340.348	800.000	-0.018	0.077
-339.333	-19.393	0.022	0.013
-338.318	-95.777	0.209	0.056
-337.304	-182.156	0.130	-0.002
-336.289	-55.233	-0.269	0.121
-335.275	800.000	0.119	-0.332
-334.260	-200.000	0.036	-0.233
-333.245	5.396	0.153	-0.112
-332.231	508.918	-0.035	-0.080
-331.216	415.833	-0.013	0.027
-330.202	-119.748	0.134	-0.023
-329.187	-112.325	-0.309	0.062
-328.172	303.335	-0.090	0.167
-327.158	-21.418	0.151	0.092
-326.143	73.890	-0.396	-0.414
-325.129	-200.000	0.001	-0.025
-324.114	-82.141	-0.071	0.023
-323.099	168.919	-0.112	-0.159
-322.085	-11.815	0.162	-0.106
-321.070	261.968	0.246	-0.425
-320.056	374.942	0.068	-0.138
-319.041	-200.000	0.037	0.463
-318.026	193.565	0.203	0.307
-317.012	1.678	0.223	-0.160
-315.997	80.915	-0.105	-0.113
-314.983	-200.000	-0.002	-0.085
-313.968	-2.710	0.239	0.167
-312.953	-200.000	0.009	0.066
-311.939	-200.000	-0.004	-0.186
-310.924	201.987	-0.111	0.170
-309.910	55.368	-0.094	-0.090
-308.895	657.921	-0.134	-0.342
-307.880	-200.000	0.001	-0.351
-306.866	431.255	0.033	-0.072
-305.851	800.000	-0.050	-0.175
-304.837	-200.000	-0.026	-0.196
-303.822	-200.000	-0.036	0.185
-302.807	163.447	0.160	0.225
-301.793	329.617	-0.118	0.226
-300.778	23.653	0.248	-0.203
-299.764	65.127	-0.226	0.227
-298.749	-121.365	0.376	0.062
-297.735	121.689	0.158	-0.196
-296.720	549.333	0.093	-0.223
-295.705	-162.150	-0.290	0.014
-294.691	39.536	0.206	-0.184
-293.676	-67.403	0.161	0.063
-292.662	413.412	0.066	0.139
-291.647	-130.812	-0.130	-0.017
-290.632	-71.466	0.310	-0.116
-289.618	-49.444	-0.068	0.032
-288.603	-200.000	0.016	0.156
-287.589	-200.000	-0.010	0.181
-286.574	17.441	-0.112	0.088
-285.559	-10.735	0.305	0.201
-284.545	-5.515	0.044	-0.030
-283.530	2.538	-0.206	-0.149
-282.516	800.000	-0.017	-0.058
-281.501	800.000	-0.100	-0.282
-280.486	-200.000	-0.005	-0.272
-279.472	-59.808	-0.119	0.051
-278.457	-111.904	-0.286	0.057
-277.443	800.000	0.032	0.113
-276.428	-97.179	-0.522	0.135
-275.413	-200.000	0.003	0.084
-274.399	-58.022	0.107	-0.046
-273.384	-200.000	0.056	0.319
-272.370	-111.254	-0.326	0.066
-271.355	-60.893	0.182	0.076
-270.340	-120.830	-0.183	-0.031
-269.326	-159.591	-0.058	-0.003
-268.311	-200.000	0.026	-0.223
-267.297	-200.000	0.032	-0.143
-266.282	57.029	-0.269	-0.260
-265.267	190.263	0.075	-0.112
-264.253	-99.234	-0.272	-0.068
-263.238	41.050	-0.293	-0.263
-262.224	-154.072	0.334	0.023
-261.209	16.006	0.247	0.194
-260.195	800.000	0.034	0.111
-259.180	-94.221	-0.087	0.024
-258.165	-34.910	0.089	0.048
-257.151	163.667	0.118	-0.165
-256.136	196.285	0.127	-0.192
-255.122	-200.000	-0.056	0.271
-254.107	-94.830	0.054	-0.014
-253.092	158.664	0.168	0.232
-252.078	410.551	-0.157	0.331
-251.063	52.976	0.111	-0.105
-250.049	-200.000	-0.002	-0.116
-249.034	-34.683	-0.368	0.200
-248.019	444.200	0.137	0.298
-247.005	-86.953	0.219	0.066
-245.990	-168.467	-0.217	0.008
-244.976	3.909	-0.141	0.102
-243.961	428.828	0.155	0.332
-242.946	-88.344	0.054	-0.016
-241.932	-200.000	-0.048	0.209
-240.917	-66.242	0.157	0.062
-239.903	-8.468	-0.092	-0.061
-238.888	-200.000	-0.027	-0.198
-237.873	-35.745	0.274	0.148
-236.859	73.048	0.044	-0.045
-235.844	-200.000	0.021	0.318
-234.830	-93.408	0.404	-0.111
-233.815	-78.165	-0.072	-0.025
-232.800	-148.411	0.364	-0.030
-231.786	-108.525	0.258	-0.055
-230.771	25.340	-0.065	0.053
-229.757	-46.287	0.214	0.104
-228.742	800.000	-0.090	0.308
-227.727	9.415	-0.144	-0.108
-226.713	800.000	0.031	0.119
-225.698	-52.122	0.130	-0.060
-224.684	-44.381	0.253	0.126
-223.669	228.824	0.200	-0.324
-222.655	-200.000	-0.017	0.127
-221.640	-144.114	-0.327	-0.030
-220.625	77.913	0.141	-0.150
-219.611	345.767	0.142	-0.277
-218.596	676.124	-0.035	-0.089
-217.582	641.255	0.022	-0.055
-216.567	256.854	-0.126	-0.215
-215.552	12.876	-0.108	0.083
-214.538	-74.688	0.081	-0.029
-213.523	-200.000	-0.027	0.136
-212.509	-40.325	-0.302	0.156
-211.494	-118.861	-0.246	-0.043
-210.479	-69.688	-0.408	-0.155
-209.465	345.117	0.116	-0.225
-208.450	91.174	-0.169	-0.188
-207.436	130.785	0.112	-0.142
-206.421	-71.481	-0.260	0.096
-205.406	-112.983	-0.355	-0.070
-204.392	253.424	0.079	-0.133
-203.377	2.168	0.207	-0.149
-202.363	-20.521	0.136	-0.083
-201.348	-65.971	-0.134	0.053
-200.333	-111.314	0.173	0.035
-199.319	303.905	-0.082	-0.151
-198.304	233.923	-0.283	-0.462
-197.290	800.000	-0.053	0.178
-196.275	-200.000	0.005	0.111
-195.260	31.991	-0.325	0.277
-194.246	73.890	0.038	0.039
-193.231	-200.000	0.047	0.292
-192.217	97.923	-0.069	-0.078
-191.202	680.786	-0.146	-0.376
-190.187	800.000	0.104	0.324
-189.173	800.000	0.105	0.340
-188.158	-68.270	0.141	-0.054
-187.144	57.785	-0.188	0.182
-186.129	-90.144	0.281	-0.081
-185.114	-200.000	-0.032	0.202
-184.100	-166.181	0.143	0.006
-183.085	-75.205	-0.087	0.031
-182.071	47.478	-0.074	-0.068
-181.056	-105.792	0.282	-0.063
-180.042	45.371	0.212	-0.194
-179.027	-200.000	0.014	0.240
-178.012	277.329	0.076	0.135
-176.998	144.215	0.037	0.049
-175.983	-200.000	0.047	0.247
-174.969	151.166	0.173	0.234
-173.954	-64.391	0.120	-0.048
-172.939	-179.077	0.323	-0.007
-171.925	800.000	-0.005	-0.020
-170.910	147.828	0.108	-0.144
-169.896	-13.352	-0.253	0.163
-168.881	800.000	0.073	0.208
-167.866	-156.742	-0.254	0.016
-166.852	-138.543	0.077	0.008
-165.837	-147.167	0.560	0.047
-164.823	800.000	0.068	-0.256
-163.808	-47.893	-0.206	0.099
-162.793	-111.622	-0.142	0.029
-161.779	-24.484	0.088	0.052
-160.764	71.015	-0.122	0.125
-159.750	-123.235	-0.195	0.031
-158.735	-200.000	-0.019	0.271
-157.720	765.086	0.075	0.201
-156.706	102.825	0.258	0.299
-155.691	-200.000	0.019	0.364
-154.677	-92.598	-0.359	-0.100
-153.662	-53.990	0.044	-0.020
-152.647	255.179	0.151	0.256
-151.633	-73.981	-0.210	0.075
-150.618	-200.000	0.007	-0.095
-149.604	-187.316	0.150	-0.002
-148.589	158.040	-0.180	-0.247
-147.574	244.399	-0.141	0.234
-146.560	-81.808	0.166	0.054
-145.545	25.229	-0.337	-0.277
-144.531	139.135	0.204	-0.265
-143.516	-20.933	-0.103	0.062
-142.502	-131.624	0.326	0.042
-141.487	332.877	-0.098	0.187
-140.472	-5.828	0.061	-0.041
-139.458	137.252	0.126	-0.163
-138.443	-163.670	0.257	0.012
-137.429	23.192	-0.154	-0.125
-136.414	443.180	-0.129	-0.279
-135.399	-78.663	0.143	0.048
-134.385	-167.200	0.139	0.006
-133.370	413.930	-0.055	0.115
-132.356	692.362	0.084	0.217
-131.341	-93.324	-0.197	0.054
-130.326	-184.952	-0.270	-0.004
-129.312	800.000	0.054	0.195
-128.297	66.219	-0.123	0.123
-127.283	-86.210	0.308	-0.094
-126.268	268.686	0.128	0.222
-125.253	-200.000	-0.002	-0.134
-124.239	-29.729	0.108	-0.061
-123.224	-200.000	0.005	-0.140
-122.210	-76.883	0.248	-0.086
-121.195	800.000	-0.085	-0.261
-120.180	-104.395	-0.184	-0.042
-119.166	-17.253	0.129	0.080
-118.151	241.111	0.071	0.118
-117.137	-200.000	0.033	-0.237
-116.122	94.568	-0.087	0.098
-115.107	643.814	0.116	-0.293
-114.093	-100.098	-0.046	-0.011
-113.078	-147.268	-0.213	-0.018
-112.064	800.000	-0.036	-0.120
-111.049	135.463	-0.121	0.156
-110.034	-151.582	0.097	0.007
-109.020	-200.000	0.006	0.093
-108.005	-182.319	0.173	-0.003
-106.991	-200.000	-0.014	-0.119
-105.976	-116.304	0.133	-0.024
-104.962	-200.000	-0.020	-0.196
-103.947	-95.088	0.256	-0.068
-102.932	800.000	-0.086	0.262
-101.918	-177.502	0.299	0.007
-100.903	164.212	0.149	-0.208
-99.889	-200.000	0.040	0.204
-98.874	209.806	0.121	0.188
-97.859	184.212	-0.080	0.118
-96.845	-104.981	0.351	0.079
-95.830	21.849	0.201	-0.162
-94.816	800.000	0.081	0.268
-93.801	572.888	-0.147	0.353
-92.786	570.942	0.087	-0.208
-91.772	243.819	0.151	-0.250
-90.757	-74.567	0.275	-0.098
-89.743	-109.111	0.285	0.060
-88.728	-151.643	0.233	-0.017
-87.713	138.450	0.258	0.335
-86.699	175.708	-0.066	0.094
-85.684	-160.288	-0.208	0.011
-84.670	800.000	-0.158	0.464
-83.655	-128.280	0.257	-0.036
-82.640	-200.000	0.054	-0.260
-81.626	-154.337	-0.153	0.010
-80.611	49.346	-0.149	0.138
-79.597	567.636	0.108	-0.260
-78.582	-84.193	0.140	-0.044
-77.567	-147.389	-0.267	0.022
-76.553	-152.402	-0.229	-0.016
-75.538	-46.250	-0.218	0.106
-74.524	574.819	0.110	-0.264
-73.509	-61.817	0.211	-0.087
-72.494	-30.742	0.171	0.095
-71.480	27.448	-0.107	-0.089
-70.465	-0.096	0.179	-0.126
-69.451	-200.000	0.007	-0.318
-68.436	-85.497	0.017	0.005
-67.422	65.877	0.120	0.120
-66.407	44.196	0.249	-0.226
-65.392	-200.000	-0.022	-0.116
-64.378	-96.787	-0.276	0.071
-63.363	-63.077	-0.076	-0.031
-62.349	-74.306	0.365	0.130
-61.334	-21.482	-0.873	-0.525
-60.319	52.850	0.387	0.365
-59.305	800.000	-0.311	-1.173
-58.290	249.215	0.660	1.102
-57.276	800.000	0.525	1.703
-56.261	-200.000	97.069	585.830
-55.246	610.720	1420.964	3501.217
-54.232	186.607	2616.180	3840.337
-53.217	119.308	2181.350	2660.911
-52.203	44.365	1628.586	1473.974
-51.188	35.968	1361.977	1181.395
-50.173	32.672	1319.474	1124.853
-49.159	56.127	1366.160	1307.296
-48.144	58.092	1382.349	1334.614
-47.130	36.202	1341.381	1164.759
-46.115	32.592	1324.252	1128.266
-45.100	32.326	1319.591	1122.660
-44.086	32.345	1316.922	1120.461
-43.071	32.261	1314.535	1117.887
-42.057	32.249	1312.501	1116.041
-41.042	32.332	1310.928	1115.152
-40.027	32.392	1308.981	1113.804
-39.013	32.214	1307.940	1111.820
-37.998	32.288	1305.686	1110.302
-36.984	32.329	1304.163	1109.201
-35.969	32.420	1302.090	1107.931
-34.954	32.358	1300.452	1106.129
-33.940	32.323	1299.573	1105.135
-32.925	32.594	1297.515	1104.929
-31.911	32.506	1296.071	1103.137
-30.896	32.510	1294.191	1101.517
-29.881	32.511	1293.332	1100.751
-28.867	32.533	1291.843	1099.566
-27.852	32.490	1290.442	1098.081
-26.838	32.592	1288.787	1097.224
-25.823	32.586	1287.463	1096.013
-24.809	32.459	1286.373	1094.305
-23.794	32.567	1285.030	1093.747
-22.779	32.500	1283.444	1091.965
-21.765	32.472	1282.512	1090.970
-20.750	32.302	1281.627	1089.187
-19.736	32.306	1280.040	1087.815
-18.721	32.413	1278.270	1086.887
-17.706	32.281	1277.538	1085.461
-16.692	32.344	1276.175	1084.624
-15.677	32.277	1275.403	1083.540
-14.663	32.275	1273.569	1081.927
-13.648	32.291	1273.042	1081.529
-12.633	32.350	1271.627	1080.621
-11.619	32.339	1271.316	1080.251
-10.604	32.210	1270.877	1079.093
-9.590	32.251	1268.961	1077.659
-8.575	32.255	1268.332	1077.106
-7.560	32.213	1267.921	1076.470
-6.546	32.313	1266.663	1075.933
-5.531	32.314	1265.934	1075.275
-4.517	32.217	1265.221	1074.074
-3.502	32.319	1264.057	1073.625
-2.487	32.293	1263.043	1072.576
-1.473	32.273	1258.986	1068.975
-0.458	31.275	1244.684	1051.175
0.556	29.711	1226.107	1012.588
1.571	25.807	1230.876	994.915
2.586	24.478	1244.679	998.560
3.600	23.042	1232.138	980.454
4.615	17.327	1159.199	892.422
5.629	8.903	1084.153	793.063
6.644	5.066	1064.101	759.667
7.659	4.704	1061.546	756.017
8.673	4.578	1059.980	754.225
9.688	4.464	1058.780	752.748
10.702	4.845	1057.796	753.831
11.717	10.432	1065.539	786.456
12.731	18.771	1077.041	835.617
13.746	22.126	1080.044	854.213
14.761	21.918	1080.007	853.099
15.775	20.982	1078.120	846.989
16.790	20.181	1076.041	841.392
17.804	19.496	1074.169	836.537
18.819	19.180	1073.538	834.437
19.834	19.075	1073.293	833.665
20.848	18.977	1071.987	832.107
21.863	18.672	1071.664	830.306
22.877	18.701	1070.344	829.350
23.892	18.642	1069.451	828.297
24.907	18.420	1069.471	827.169
25.921	18.583	1067.953	826.710
26.936	18.655	1066.765	826.059
27.950	18.512	1065.441	824.277
28.965	18.532	1064.037	823.210
29.980	18.860	1062.389	823.437
30.994	18.836	1061.978	822.929
32.009	19.031	1060.628	822.742
33.023	18.877	1059.982	821.434
34.038	18.807	1058.601	819.956
35.053	18.771	1057.421	818.800
36.067	18.733	1056.219	817.615
37.082	18.672	1055.826	816.949
38.096	18.789	1055.240	816.977
39.111	18.879	1054.226	816.552
40.126	18.672	1053.283	814.766
41.140	18.427	1051.343	812.031
42.155	18.174	1050.134	809.825
43.169	18.177	1049.032	808.920
44.184	18.284	1047.860	808.450
45.199	18.296	1047.042	807.803
46.213	18.499	1046.155	808.006
47.228	18.466	1045.459	807.241
48.242	18.704	1044.587	807.614
49.257	18.530	1043.917	806.208
50.271	18.754	1043.229	806.659
51.286	18.702	1042.088	805.463
52.301	18.710	1040.937	804.539
53.315	18.557	1039.821	802.888
54.330	18.439	1038.861	801.524
55.344	18.391	1038.076	800.621
56.359	18.388	1037.206	799.867
57.374	18.345	1036.268	798.871
58.388	18.252	1035.159	797.512
59.403	18.289	1034.258	796.922
60.417	18.222	1033.829	796.205
61.432	18.155	1033.337	795.448
62.447	18.181	1031.989	794.457
63.461	17.961	1031.375	792.893
64.476	18.052	1030.699	792.729
65.490	18.070	1029.862	792.098
66.505	18.128	1028.899	791.553
67.520	17.961	1028.772	790.615
68.534	18.129	1027.465	790.318
69.549	17.960	1026.863	789.002
70.563	18.100	1025.943	788.873
71.578	17.854	1025.228	787.115
72.593	17.794	1024.241	786.014
73.607	17.807	1023.299	785.279
74.622	17.923	1022.967	785.491
75.636	17.969	1022.140	784.999
76.651	17.929	1021.796	784.480
77.666	17.921	1021.125	783.856
78.680	18.018	1020.243	783.559
79.695	17.994	1019.952	783.155
80.709	18.266	1018.953	783.562
81.724	18.428	1018.461	783.858
82.739	18.400	1018.064	783.353
83.753	18.591	1017.549	783.762
84.768	18.819	1016.736	784.108
85.782	18.914	1016.420	784.228
86.797	18.889	1015.482	783.320
87.812	18.759	1013.900	781.436
88.826	18.794	1013.227	781.010
89.841	18.704	1012.297	779.817
90.855	18.901	1011.111	779.725
91.870	18.903	1010.945	779.536
92.884	18.923	1009.767	778.652
93.899	18.753	1009.055	777.266
94.914	18.977	1008.229	777.571
95.928	18.984	1006.943	776.542
96.943	18.942	1005.651	775.287
97.957	18.825	1005.653	774.692
98.972	18.782	1004.550	773.584
99.987	18.779	1003.370	772.592
101.001	18.811	1002.581	772.061
102.016	18.721	1002.082	771.204
103.030	18.851	1001.157	771.007
104.045	18.929	1000.012	770.406
105.060	18.706	999.308	768.797
106.074	18.414	998.494	766.797
107.089	18.253	996.936	764.813
108.103	18.004	996.502	763.300
109.118	18.160	995.140	762.882
110.133	18.136	994.164	761.959
111.147	18.184	993.464	761.570
112.162	18.150	992.469	760.591
113.176	18.303	992.449	761.186
114.191	18.433	991.823	761.215
115.206	18.270	990.812	759.652
116.220	18.180	989.787	758.397
117.235	18.108	988.793	757.252
118.249	18.184	987.952	756.878
119.264	18.243	987.104	756.420
120.279	18.006	986.379	754.749
121.293	18.139	985.098	754.289
122.308	17.897	984.558	752.743
123.322	17.968	983.508	752.186
124.337	17.928	982.360	751.065
125.352	18.001	981.320	750.528
126.366	17.859	980.053	748.866
127.381	18.065	978.876	748.803
128.395	18.073	978.401	748.411
129.410	17.967	977.856	747.461
130.424	18.153	977.102	747.632
131.439	18.414	975.671	747.609
132.454	18.465	975.223	747.423
133.468	18.347	974.785	746.508
134.483	18.397	974.032	746.082
135.497	18.381	973.098	745.234
136.512	18.406	972.152	744.550
137.527	18.338	971.813	743.930
138.541	18.460	971.088	743.836
139.556	18.492	970.210	743.238
140.570	18.706	969.715	743.719
141.585	18.748	969.121	743.381
142.600	18.952	967.822	743.199
143.614	18.900	967.090	742.348
144.629	18.931	966.749	742.157
145.643	18.797	965.849	740.822
146.658	18.786	964.322	739.536
147.673	18.536	963.400	737.691
148.687	18.457	962.611	736.678
149.702	18.307	961.598	735.197
150.716	18.493	960.599	735.163
151.731	18.559	959.784	734.758
152.746	18.386	959.723	733.905
153.760	18.484	958.955	733.672
154.775	18.732	958.651	734.436
155.789	18.636	957.988	733.454
156.804	18.741	957.206	733.237
157.819	18.913	955.985	732.972
158.833	18.991	955.782	733.083
159.848	18.985	955.163	732.517
160.862	18.801	953.924	730.721
161.877	18.629	952.497	728.833
162.892	18.443	951.332	727.085
163.906	18.397	950.329	726.059
164.921	18.469	949.855	725.938
165.935	18.547	949.103	725.632
166.950	18.489	947.978	724.461
167.964	18.506	946.941	723.674
168.979	18.499	946.346	723.129
169.994	18.495	945.417	722.339
171.008	18.714	944.511	722.501
172.023	18.817	944.447	722.822
173.037	18.907	943.721	722.582
174.052	18.764	942.827	721.234
175.067	18.651	941.585	719.746
176.081	18.357	941.418	718.323
177.096	18.405	940.394	717.679
178.110	18.549	939.825	717.781
179.125	18.523	939.466	717.336
180.140	18.762	938.918	717.853
181.154	18.796	938.883	717.904
182.169	18.824	938.432	717.614
183.183	18.777	938.222	717.193
184.198	18.918	937.192	716.929
185.213	18.846	936.747	716.226
186.227	19.102	935.515	716.285
187.242	19.046	935.121	715.690
188.256	19.099	934.820	715.614
189.271	19.206	933.449	714.945
190.286	18.910	932.312	712.786
191.300	18.436	931.608	710.219
192.315	18.319	930.867	709.107
193.329	18.408	930.422	709.076
194.344	18.495	930.313	709.287
195.359	18.687	929.439	709.352
196.373	18.724	929.079	709.170
197.388	19.058	928.710	710.202
198.402	19.211	928.089	710.297
199.417	19.199	927.932	710.064
200.432	19.372	927.386	710.293
201.446	19.488	926.732	710.210
202.461	19.645	926.292	710.455
203.475	19.474	925.798	709.308
204.490	19.182	924.559	707.099
205.504	19.060	924.052	706.147
206.519	18.993	923.131	705.106
207.534	18.987	922.374	704.443
208.548	19.042	921.430	703.885
209.563	18.992	920.894	703.210
210.577	19.152	920.598	703.572
211.592	19.350	919.980	703.849
212.607	19.473	919.091	703.605
213.621	19.377	918.132	702.418
214.636	19.292	917.803	701.758
215.650	19.343	917.193	701.438
216.665	19.405	916.359	700.988
217.680	19.511	916.129	701.181
218.694	19.439	915.732	700.523
219.709	19.453	914.937	699.911
220.723	19.427	914.300	699.255
221.738	19.363	913.210	698.104
222.753	19.476	912.353	697.841
223.767	19.476	912.075	697.568
224.782	19.572	912.083	697.901
225.796	19.660	911.412	697.681
226.811	19.475	910.266	695.996
227.826	19.317	909.904	695.021
228.840	19.342	909.157	694.488
229.855	19.457	908.044	694.040
230.869	19.322	907.295	692.865
231.884	19.261	906.764	692.149
232.899	19.349	905.661	691.601
233.913	19.135	905.147	690.288
234.928	19.011	904.375	689.142
235.942	18.856	904.202	688.328
236.957	19.020	903.365	688.288
237.972	19.111	902.850	688.198
238.986	19.227	901.739	687.755
240.001	19.255	901.351	687.506
241.015	19.190	900.875	686.827
242.030	19.304	900.746	687.121
243.045	19.487	899.931	687.165
244.059	19.357	899.488	686.251
245.074	19.566	898.590	686.335
246.088	19.411	898.510	685.598
247.103	19.743	897.532	686.107
248.117	19.861	897.375	686.396
249.132	20.068	897.067	686.920
250.147	20.383	896.118	687.378
251.161	20.242	895.961	686.639
252.176	20.209	895.258	685.910
253.190	20.351	894.277	685.658
254.205	20.463	893.781	685.658
255.220	20.219	893.233	684.216
256.234	20.265	892.791	683.997
257.249	20.225	891.965	683.147
258.263	20.237	890.772	682.223
259.278	20.262	890.334	681.924
260.293	20.469	889.747	682.228
261.307	20.401	889.375	681.613
262.322	20.387	888.675	680.962
263.336	20.484	887.892	680.683
264.351	20.560	887.158	680.358
265.366	20.615	886.770	680.214
266.380	20.595	886.292	679.710
267.395	20.499	885.088	678.349
268.409	20.370	884.480	677.323
269.424	20.375	883.510	676.538
270.439	20.475	882.480	676.081
271.453	20.246	882.145	674.873
272.468	20.055	882.054	674.000
273.482	20.086	881.386	673.549
274.497	20.015	880.930	672.868
275.512	20.243	880.060	673.024
276.526	20.224	879.546	672.499
277.541	20.416	879.121	672.861
278.555	20.413	878.949	672.655
279.570	20.561	878.488	672.816
280.585	20.442	877.835	671.797
281.599	20.439	876.560	670.752
282.614	20.314	875.734	669.576
283.628	20.345	875.222	669.247
284.643	20.302	874.699	668.620
285.657	20.265	874.170	668.014
286.672	20.338	873.688	667.870
287.687	20.427	872.548	667.280
288.701	20.331	872.108	666.518
289.716	20.423	871.769	666.551
290.730	20.476	870.933	666.057
291.745	20.476	870.751	665.859
292.760	20.666	870.180	666.091
293.774	20.703	869.527	665.674
294.789	20.779	868.662	665.243
295.803	20.430	867.896	663.265
296.818	20.379	867.333	662.579
297.833	20.382	866.668	662.024
298.847	20.467	865.912	661.712
299.862	20.624	865.536	661.966
300.876	20.578	865.427	661.648
301.891	20.716	864.679	661.542
302.906	20.850	863.885	661.384
303.920	21.014	863.478	661.636
304.935	21.093	863.248	661.703
305.949	21.010	862.669	660.883
306.964	20.796	861.606	659.201
307.979	20.700	861.333	658.570
308.993	20.743	861.154	658.539
310.008	20.853	860.499	658.395
311.022	20.786	859.734	657.498
312.037	20.624	858.760	656.085
313.052	20.497	858.184	655.108
314.066	20.485	857.238	654.283
315.081	20.476	857.043	654.043
316.095	20.532	855.950	653.362
317.110	20.351	855.840	652.538
318.125	20.418	855.393	652.393
319.139	20.484	854.669	652.031
320.154	20.506	854.040	651.574
321.168	20.582	853.522	651.405
322.183	20.694	852.965	651.342
323.197	20.500	852.845	650.466
324.212	20.595	852.316	650.362
325.227	20.696	851.608	650.140
326.241	20.540	851.150	649.153
327.256	20.571	850.313	648.570
328.270	20.422	850.017	647.734
329.285	20.513	849.108	647.323
330.300	20.454	848.752	646.772
331.314	20.622	848.329	647.020
332.329	20.687	847.956	646.919
333.343	21.022	847.141	647.483
334.358	20.824	846.775	646.411
335.373	20.898	846.596	646.491
336.387	20.902	846.476	646.359
337.402	20.983	846.140	646.344
338.416	21.138	846.020	646.771
339.431	21.253	845.686	646.883
340.446	21.349	845.046	646.692
341.460	21.378	844.895	646.627
342.475	21.477	844.777	646.847
343.489	21.519	843.900	646.274
344.504	21.616	843.557	646.312
345.519	21.734	842.926	646.203
346.533	21.518	842.467	644.998
347.548	21.280	841.547	643.363
348.562	21.096	840.846	642.092
349.577	21.047	840.539	641.620
350.592	20.954	839.741	640.612
351.606	20.920	838.675	639.619
352.621	21.028	838.448	639.786
353.635	20.997	837.995	639.267
354.650	21.247	837.219	639.536
355.665	21.172	836.760	638.854
356.679	21.314	835.678	638.488
357.694	21.295	835.279	638.060
358.708	21.435	834.398	637.841
359.723	21.316	834.042	637.078
360.738	21.257	833.667	636.522
361.752	21.304	832.968	636.101
362.767	21.513	832.687	636.592
363.781	21.641	832.286	636.695
364.796	21.733	831.964	636.724
365.810	21.784	831.876	636.788
366.825	21.961	831.078	636.761
367.840	21.638	831.119	635.565
368.854	21.695	830.203	635.015
369.869	21.426	830.067	633.881
370.883	21.704	829.178	634.152
371.898	21.735	828.957	634.040
372.913	21.769	828.492	633.751
373.927	21.732	827.567	632.853
374.942	21.764	827.552	632.901
375.956	21.933	827.195	633.181
376.971	22.128	826.456	633.263
377.986	22.055	826.530	632.999
379.000	22.136	825.563	632.496
380.015	21.977	825.293	631.660
381.029	22.035	824.509	631.212
382.044	22.090	823.992	630.957
383.059	22.014	823.034	629.897
384.073	21.954	822.572	629.273
385.088	21.696	822.113	627.940
386.102	21.758	821.704	627.794
387.117	21.704	820.864	626.904
388.132	21.711	820.281	626.428
389.146	21.688	819.887	625.988
390.161	21.838	819.557	626.217
391.175	22.059	819.305	626.759
392.190	21.820	818.380	625.145
393.205	21.817	817.339	624.281
394.219	21.777	817.198	623.979
395.234	21.771	816.535	623.394
396.248	21.530	816.065	622.122
397.263	21.380	816.009	621.492
398.278	21.541	815.666	621.750
399.292	21.393	815.141	620.767
400.307	21.478	814.738	620.709
401.321	21.612	814.057	620.607
402.336	21.662	813.719	620.474
403.350	21.725	813.432	620.424
404.365	21.864	813.095	620.601
405.380	22.237	812.030	621.054
406.394	22.252	811.635	620.748
407.409	22.243	811.309	620.412
408.423	22.249	811.443	620.482
409.438	22.339	811.139	620.512
410.453	22.423	810.834	620.520
411.467	22.497	810.058	620.130
412.482	22.619	809.482	620.064
413.496	22.541	809.331	619.620
414.511	22.502	809.143	619.283
415.526	22.224	808.781	617.975
416.540	22.411	808.191	618.126
417.555	22.472	807.695	617.906
418.569	22.456	807.277	617.476
419.584	22.532	806.792	617.315
420.599	22.359	806.716	616.597
421.613	161.886	1369.293	1793.221
422.628	140.839	1451.265	1793.329
