DTS Sentinel unit serial number:	SN413079Multiplexer serial number:	ORYXHardware model number:	OX4-SRSoftware version number:	ORYX F/W v4.00 Oryx Data Collector v3.7.2.0data status	okinstallation	princeton_trtdifferential loss correction	single-endedforward channel	channel 1reverse channel	N/Adate	2019/09/19time	02:22:35forward acquisition time	60.00reverse acquisition time	0.00gamma	496.2192k internal	0.2344k external	0.2344temperature offset calibration	1.0020default loss term (dB/km)	0.3790temperature slope calibration	1.0000multiplexer offset coefficient	1.0000multiplexer slope coefficient	1.0000fibre end	0.00T internal ref (°C)	21.06T ext. ref 1 (°C)	0.68T ext. ref 2 (°C)	14.69length (m)	temperature (°C)	Stokes	anti-Stokes-747.200	217.003	0.170	-0.271
-746.185	-65.908	-0.353	-0.141
-745.171	-122.261	0.193	-0.032
-744.156	-52.627	0.400	-0.185
-743.142	-69.574	0.211	-0.081
-742.127	-77.395	-0.256	-0.089
-741.112	21.361	-0.105	0.086
-740.098	99.834	-0.382	0.443
-739.083	-132.775	0.362	-0.046
-738.069	-126.532	-0.264	0.039
-737.054	800.000	-0.010	0.029
-736.039	-20.879	-0.329	-0.202
-735.025	-149.164	0.284	0.023
-734.010	43.901	0.090	-0.082
-732.996	-126.131	0.229	0.034
-731.981	-104.162	-0.212	0.049
-730.966	-110.021	-0.147	-0.031
-729.952	-72.671	0.044	0.016
-728.937	800.000	-0.125	-0.376
-727.923	-53.004	0.149	0.068
-726.908	-138.435	-0.498	-0.055
-725.894	-162.304	-0.287	-0.014
-724.879	-165.088	-0.357	-0.016
-723.864	369.080	0.179	-0.362
-722.850	800.000	-0.074	-0.209
-721.835	-25.744	0.134	0.079
-720.821	103.267	-0.082	0.097
-719.806	-162.212	-0.070	0.003
-718.791	-152.489	0.218	0.016
-717.777	-33.337	-0.081	-0.045
-716.762	-70.390	0.115	-0.043
-715.748	-200.000	0.012	-0.185
-714.733	53.487	-0.334	-0.321
-713.718	-37.458	0.141	0.075
-712.704	-20.543	-0.182	0.112
-711.689	-72.831	-0.068	0.025
-710.675	-3.114	0.093	0.065
-709.660	-61.569	-0.319	-0.134
-708.645	-200.000	-0.021	-0.121
-707.631	43.224	-0.221	0.201
-706.616	-20.210	0.198	-0.122
-705.602	-117.461	-0.579	-0.105
-704.587	-77.736	-0.140	-0.048
-703.572	185.385	-0.151	-0.224
-702.558	-90.989	0.188	-0.054
-701.543	-122.763	0.198	-0.032
-700.529	283.711	0.058	-0.104
-699.514	113.758	0.280	-0.340
-698.499	-88.325	-0.475	0.142
-697.485	-200.000	0.030	0.220
-696.470	321.196	-0.047	-0.088
-695.456	-40.580	0.313	0.162
-694.441	103.912	-0.038	0.045
-693.426	-36.962	-0.491	-0.263
-692.412	-200.000	-0.010	0.366
-691.397	472.031	0.063	0.143
-690.383	129.565	-0.217	-0.277
-689.368	-13.253	0.094	-0.061
-688.354	28.526	0.100	-0.084
-687.339	-200.000	0.028	-0.174
-686.324	-200.000	0.006	-0.413
-685.310	-106.799	-0.180	0.040
-684.295	98.694	-0.159	-0.184
-683.281	800.000	-0.050	0.153
-682.266	-200.000	0.002	0.229
-681.251	329.632	-0.034	-0.065
-680.237	-85.104	-0.191	-0.060
-679.222	-200.000	-0.054	0.242
-678.208	-200.000	-0.019	-0.153
-677.193	-0.335	-0.169	0.120
-676.178	-139.536	-0.167	-0.018
-675.164	584.037	0.097	0.239
-674.149	501.704	-0.200	-0.460
-673.135	800.000	-0.057	0.164
-672.120	157.899	-0.145	0.200
-671.105	120.824	-0.208	-0.258
-670.091	-200.000	0.009	0.591
-669.076	-57.928	-0.307	0.134
-668.062	-116.238	-0.070	-0.013
-667.047	-30.914	-0.163	0.092
-666.032	-200.000	-0.044	-0.282
-665.018	-77.814	-0.187	-0.064
-664.003	-200.000	-0.057	-0.258
-662.989	-11.341	-0.142	-0.093
-661.974	-46.859	-0.068	0.033
-660.959	86.581	0.301	-0.331
-659.945	-23.848	-0.110	-0.066
-658.930	-164.805	-0.240	-0.011
-657.916	-200.000	0.016	-0.236
-656.901	-2.332	0.311	-0.218
-655.886	-111.766	0.130	-0.026
-654.872	-200.000	-0.019	0.190
-653.857	741.642	0.149	0.399
-652.843	-30.058	-0.057	0.033
-651.828	800.000	0.060	-0.228
-650.814	800.000	0.061	-0.258
-649.799	800.000	-0.136	0.400
-648.784	39.411	0.174	0.156
-647.770	-123.208	-0.289	-0.046
-646.755	-27.076	-0.443	-0.257
-645.741	34.486	0.173	-0.150
-644.726	-84.720	-0.140	-0.044
-643.711	43.110	0.200	-0.182
-642.697	800.000	0.093	0.269
-641.682	-186.517	-0.289	-0.004
-640.668	-200.000	0.056	-0.303
-639.653	-176.919	0.108	0.003
-638.638	103.580	0.068	-0.079
-637.624	-142.486	0.204	0.020
-636.609	-89.120	0.145	-0.043
-635.595	70.846	0.174	-0.179
-634.580	115.249	-0.045	-0.055
-633.565	390.045	-0.061	0.125
-632.551	-200.000	0.033	0.226
-631.536	112.468	0.098	-0.119
-630.522	165.209	0.085	0.119
-629.507	-200.000	0.007	-0.176
-628.492	-7.095	-0.125	-0.085
-627.478	395.754	-0.039	0.082
-626.463	256.921	-0.165	0.283
-625.449	-122.144	-0.094	0.015
-624.434	800.000	-0.093	-0.382
-623.419	-15.341	-0.188	0.120
-622.405	-97.872	0.132	-0.034
-621.390	16.313	-0.070	0.055
-620.376	105.251	-0.320	0.377
-619.361	800.000	0.122	-0.366
-618.346	86.898	0.063	0.069
-617.332	-200.000	-0.005	0.128
-616.317	224.228	-0.150	-0.242
-615.303	800.000	-0.095	-0.367
-614.288	-200.000	-0.049	0.308
-613.273	277.491	-0.141	-0.249
-612.259	419.167	0.114	-0.243
-611.244	274.498	0.221	-0.390
-610.230	-132.324	-0.412	0.053
-609.215	-17.378	-0.145	0.091
-608.201	-78.767	-0.115	0.039
-607.186	88.078	0.100	-0.111
-606.171	-200.000	0.033	-0.162
-605.157	224.693	0.061	-0.099
-604.142	3.370	0.039	0.028
-603.128	-159.430	-0.213	-0.012
-602.113	123.639	-0.057	-0.071
-601.098	-4.421	-0.180	-0.124
-600.084	648.324	0.075	-0.190
-599.069	321.703	-0.260	-0.492
-598.055	524.685	-0.103	-0.241
-597.040	-200.000	0.069	-0.312
-596.025	346.976	0.093	-0.181
-595.011	-33.922	0.145	-0.079
-593.996	800.000	0.103	-0.314
-592.982	-200.000	0.001	-0.081
-591.967	800.000	-0.015	0.050
-590.952	-200.000	-0.005	0.145
-589.938	106.172	-0.065	0.076
-588.923	31.382	-0.062	-0.053
-587.909	-12.551	-0.320	-0.208
-586.894	-13.232	-0.304	0.196
-585.879	-91.793	-0.394	-0.111
-584.865	-75.447	-0.202	0.072
-583.850	800.000	0.045	-0.139
-582.836	-89.022	-0.209	-0.061
-581.821	-24.619	-0.354	-0.209
-580.806	800.000	0.070	-0.294
-579.792	-137.211	-0.171	-0.019
-578.777	648.943	-0.220	0.559
-577.763	-89.527	0.270	0.079
-576.748	800.000	0.106	0.322
-575.733	-50.414	0.175	0.082
-574.719	-200.000	-0.018	-0.336
-573.704	189.065	-0.109	0.163
-572.690	-117.671	-0.207	-0.037
-571.675	16.431	0.196	-0.154
-570.661	-200.000	-0.006	0.053
-569.646	-90.057	-0.454	-0.132
-568.631	56.964	-0.194	-0.188
-567.617	-23.991	-0.100	0.059
-566.602	-43.802	0.226	0.113
-565.588	-102.926	-0.198	-0.047
-564.573	-200.000	-0.017	-0.074
-563.558	683.470	0.025	-0.065
-562.544	-53.917	-0.110	-0.050
-561.529	332.640	0.042	0.081
-560.515	625.258	-0.101	0.254
-559.500	-37.280	0.119	-0.063
-558.485	222.048	0.137	0.219
-557.471	-35.429	0.061	-0.033
-556.456	-200.000	-0.028	-0.224
-555.442	-159.826	-0.417	0.023
-554.427	-113.107	-0.222	-0.043
-553.412	161.724	0.269	0.374
-552.398	192.140	0.098	0.147
-551.383	-169.547	0.256	-0.009
-550.369	-101.697	0.217	-0.052
-549.354	315.227	0.125	-0.235
-548.339	-200.000	-0.021	-0.124
-547.325	172.378	0.205	-0.293
-546.310	-107.692	-0.257	0.056
-545.296	208.339	0.213	0.330
-544.281	114.244	0.350	-0.423
-543.266	701.099	-0.006	0.015
-542.252	46.888	0.134	-0.124
-541.237	16.064	0.135	0.105
-540.223	265.886	-0.141	-0.244
-539.208	800.000	0.134	-0.475
-538.193	-129.535	0.168	0.023
-537.179	-12.623	0.263	-0.171
-536.164	-195.451	0.228	0.002
-535.150	-10.773	-0.333	-0.219
-534.135	13.592	-0.104	-0.080
-533.121	800.000	-0.063	0.230
-532.106	-65.630	-0.443	-0.176
-531.091	-200.000	0.015	-0.244
-530.077	274.316	-0.008	0.014
-529.062	-200.000	-0.015	-0.108
-528.048	800.000	0.079	-0.242
-527.033	499.277	0.055	-0.127
-526.018	-71.532	-0.237	0.088
-525.004	272.573	-0.066	-0.116
-523.989	460.912	-0.050	0.110
-522.975	-32.503	-0.112	0.062
-521.960	312.398	-0.129	-0.241
-520.945	-127.126	-0.126	-0.018
-519.931	49.014	0.176	0.164
-518.916	-200.000	0.056	0.272
-517.902	-161.479	0.301	-0.015
-516.887	-200.000	0.024	0.195
-515.872	-115.389	0.060	0.011
-514.858	800.000	0.080	-0.254
-513.843	-93.939	0.334	0.091
-512.829	29.494	-0.261	0.220
-511.814	130.286	0.030	-0.038
-510.799	-2.952	-0.176	-0.122
-509.785	-3.810	-0.159	-0.109
-508.770	3.316	0.311	-0.224
-507.756	-125.454	0.183	-0.028
-506.741	800.000	-0.070	0.305
-505.726	21.710	0.114	-0.092
-504.712	-121.331	-0.241	-0.040
-503.697	-135.689	-0.403	0.047
-502.683	-146.844	0.515	0.044
-501.668	800.000	0.056	0.172
-500.653	664.393	0.081	0.208
-499.639	-150.461	-0.085	-0.006
-498.624	-200.000	0.006	-0.186
-497.610	-152.984	0.263	-0.018
-496.595	64.010	-0.061	0.061
-495.581	73.593	0.114	-0.119
-494.566	-200.000	0.009	-0.188
-493.551	800.000	-0.078	-0.253
-492.537	10.461	-0.035	0.026
-491.522	800.000	0.026	0.079
-490.508	619.060	-0.058	0.144
-489.493	-94.449	0.359	-0.097
-488.478	-45.392	-0.111	0.054
-487.464	-124.964	0.199	0.030
-486.449	-200.000	-0.046	0.203
-485.435	178.392	0.106	0.153
-484.420	196.326	0.092	-0.139
-483.405	-111.765	-0.329	-0.066
-482.391	-46.076	-0.291	0.142
-481.376	517.843	0.059	0.136
-480.362	-7.551	-0.042	0.028
-479.347	58.880	-0.214	-0.208
-478.332	19.421	-0.122	0.097
-477.318	47.417	0.039	0.036
-476.303	370.519	0.084	0.168
-475.289	800.000	0.027	0.086
-474.274	800.000	-0.037	-0.130
-473.259	36.919	-0.176	0.154
-472.245	-200.000	0.020	-0.131
-471.230	115.334	-0.218	-0.263
-470.216	-200.000	0.006	0.153
-469.201	-32.091	0.047	0.026
-468.186	60.742	0.269	-0.264
-467.172	-135.264	0.321	-0.038
-466.157	-144.539	0.069	0.006
-465.143	800.000	0.042	0.135
-464.128	483.071	0.050	-0.114
-463.113	-101.320	-0.235	0.057
-462.099	-148.800	-0.236	0.019
-461.084	-60.704	0.190	-0.080
-460.070	-115.724	-0.233	0.043
-459.055	-200.000	0.033	0.455
-458.040	-81.977	-0.182	0.059
-457.026	417.807	0.143	-0.302
-456.011	-10.821	-0.321	-0.210
-454.997	-34.366	-0.332	0.180
-453.982	-72.564	-0.380	-0.139
-452.968	141.720	-0.121	0.159
-451.953	270.899	-0.072	0.126
-450.938	181.497	0.210	0.306
-449.924	59.863	0.197	0.192
-448.909	-200.000	-0.021	0.228
-447.895	152.658	0.282	0.381
-446.880	-200.000	0.010	0.128
-445.865	-87.899	-0.186	-0.055
-444.851	-47.532	-0.127	-0.061
-443.836	-141.131	-0.104	-0.010
-442.822	-200.000	0.047	-0.397
-441.807	-124.524	0.240	-0.037
-440.792	56.408	-0.265	-0.255
-439.778	-121.676	0.152	-0.025
-438.763	-200.000	-0.010	-0.207
-437.749	-47.458	-0.250	-0.120
-436.734	244.161	-0.249	0.414
-435.719	800.000	-0.021	-0.060
-434.705	-67.895	-0.235	-0.091
-433.690	-86.782	-0.023	0.007
-432.676	800.000	-0.041	-0.143
-431.661	-200.000	0.003	0.217
-430.646	754.182	-0.102	0.272
-429.632	-76.441	0.174	0.061
-428.617	-61.833	0.415	-0.172
-427.603	-200.000	-0.108	-0.471
-426.588	800.000	0.065	0.259
-425.573	122.186	0.221	0.272
-424.559	442.462	-0.080	-0.172
-423.544	-10.554	0.250	-0.163
-422.530	-82.061	-0.249	0.080
-421.515	800.000	0.074	-0.225
-420.500	661.094	0.102	0.260
-419.486	-66.386	0.140	0.055
-418.471	50.310	0.103	0.096
-417.457	-182.275	0.262	0.005
-416.442	-200.000	-0.009	-0.125
-415.428	75.044	0.280	-0.291
-414.413	133.371	0.065	0.083
-413.398	-58.341	-0.159	-0.068
-412.384	-58.392	0.280	0.120
-411.369	-200.000	0.041	-0.255
-410.355	-149.124	-0.239	-0.019
-409.340	-136.784	-0.161	-0.018
-408.325	-123.827	-0.243	0.038
-407.311	-141.182	-0.343	-0.035
-406.296	-130.217	0.182	-0.024
-405.282	-24.741	-0.108	-0.063
-404.267	800.000	0.042	0.131
-403.252	198.963	0.304	0.460
-402.238	-200.000	-0.024	0.229
-401.223	-200.000	-0.010	-0.199
-400.209	-33.254	-0.216	0.118
-399.194	-148.261	0.267	-0.022
-398.179	-54.225	-0.238	0.107
-397.165	800.000	-0.031	-0.108
-396.150	100.372	0.053	-0.061
-395.136	5.598	0.301	0.219
-394.121	278.940	0.284	0.499
-393.106	6.355	-0.253	0.186
-392.092	274.253	-0.010	-0.017
-391.077	-10.861	-0.222	0.145
-390.063	800.000	-0.111	0.310
-389.048	301.832	0.148	-0.270
-388.033	74.872	-0.201	-0.209
-387.019	119.432	0.239	0.291
-386.004	-7.955	0.125	-0.083
-384.990	117.896	0.159	-0.194
-383.975	-92.541	-0.127	0.035
-382.960	-124.018	0.202	-0.031
-381.946	374.423	-0.160	0.321
-380.931	171.612	-0.062	0.088
-379.917	238.030	0.144	0.236
-378.902	-115.616	-0.321	0.059
-377.888	1.223	-0.353	0.250
-376.873	-32.309	0.483	0.266
-375.858	800.000	-0.100	0.336
-374.844	-78.655	-0.130	-0.044
-373.829	-200.000	-0.001	-0.148
-372.815	-200.000	-0.010	-0.184
-371.800	-43.318	-0.204	0.102
-370.785	-200.000	-0.015	0.235
-369.771	-200.000	0.024	-0.227
-368.756	-75.407	0.138	0.048
-367.742	-129.822	0.336	-0.046
-366.727	9.210	0.170	-0.127
-365.712	223.593	0.094	-0.150
-364.698	-42.231	-0.256	0.129
-363.683	-122.877	0.342	-0.054
-362.669	-200.000	0.028	0.268
-361.654	-200.000	-0.042	0.244
-360.639	112.658	-0.086	0.103
-359.625	-44.974	0.153	0.075
-358.610	123.173	-0.074	-0.092
-357.596	-145.280	-0.303	-0.027
-356.581	-68.789	-0.195	0.074
-355.566	21.151	0.036	0.029
-354.552	-104.889	-0.209	-0.047
-353.537	170.657	0.116	0.164
-352.523	800.000	0.217	0.642
-351.508	89.273	0.152	-0.167
-350.493	3.440	-0.064	0.046
-349.479	103.372	-0.172	0.199
-348.464	9.281	0.110	-0.082
-347.450	-200.000	-0.053	-0.302
-346.435	-94.291	0.264	-0.071
-345.420	-17.954	-0.184	0.114
-344.406	220.473	-0.052	0.082
-343.391	-146.791	-0.257	0.022
-342.377	31.940	-0.221	0.188
-341.362	800.000	-0.075	-0.223
-340.348	-153.049	-0.344	0.024
-339.333	615.333	0.056	0.137
-338.318	-158.517	0.325	-0.018
-337.304	-18.863	0.359	0.220
-336.289	-200.000	0.032	-0.244
-335.275	-200.000	0.036	0.160
-334.260	101.456	0.121	-0.139
-333.245	-200.000	0.091	-0.428
-332.231	63.327	0.055	-0.054
-331.216	609.402	-0.098	-0.240
-330.202	-49.414	-0.300	-0.141
-329.187	-128.703	-0.349	-0.048
-328.172	-90.184	-0.279	0.080
-327.158	-61.700	0.116	0.048
-326.143	800.000	-0.142	-0.413
-325.129	196.427	0.056	0.085
-324.114	-200.000	-0.032	0.329
-323.099	-9.375	-0.107	-0.071
-322.085	-200.000	0.014	0.171
-321.070	129.294	-0.181	-0.227
-320.056	-145.854	0.182	-0.016
-319.041	-200.000	-0.010	0.049
-318.026	-92.341	0.542	0.150
-317.012	-46.302	0.252	-0.122
-315.997	-48.518	0.463	0.219
-314.983	62.592	-0.271	-0.266
-313.968	117.442	0.084	-0.102
-312.953	484.137	0.170	0.380
-311.939	-151.666	0.363	0.026
-310.924	740.551	-0.119	-0.315
-309.910	-200.000	0.009	0.159
-308.895	-24.969	0.113	0.066
-307.880	-60.109	0.089	-0.037
-306.866	82.851	0.122	-0.131
-305.851	496.791	0.089	-0.201
-304.837	111.583	-0.052	-0.062
-303.822	-200.000	0.018	-0.116
-302.807	-123.963	-0.396	0.061
-301.793	151.752	-0.112	-0.150
-300.778	196.171	-0.012	0.017
-299.764	-141.429	0.160	-0.016
-298.749	800.000	-0.064	0.198
-297.735	-118.627	-0.071	-0.012
-296.720	-113.240	-0.078	-0.015
-295.705	-30.683	0.102	0.057
-294.691	-200.000	0.066	0.364
-293.676	-20.281	-0.131	-0.079
-292.662	-116.020	-0.129	0.024
-291.647	800.000	0.107	0.341
-290.632	0.617	0.076	0.053
-289.618	203.051	-0.070	0.107
-288.603	231.705	0.131	-0.211
-287.589	-200.000	-0.016	-0.177
-286.574	783.292	0.195	0.525
-285.559	-44.323	-0.107	0.053
-284.545	800.000	0.081	-0.303
-283.530	-102.225	0.027	-0.006
-282.516	-200.000	0.033	-0.238
-281.501	800.000	0.048	-0.139
-280.486	317.555	0.089	0.165
-279.472	377.000	-0.038	0.076
-278.457	-120.502	0.048	0.008
-277.443	-200.000	0.014	0.080
-276.428	49.802	-0.113	0.105
-275.413	800.000	-0.085	0.247
-274.399	-0.006	0.118	-0.083
-273.384	-44.694	0.197	-0.097
-272.370	-200.000	-0.001	-0.014
-271.355	-105.509	-0.193	0.043
-270.340	-66.661	-0.071	-0.028
-269.326	418.545	0.100	0.211
-268.311	-42.564	0.244	0.122
-267.297	-78.267	0.165	-0.056
-266.282	163.033	0.231	0.319
-265.267	679.855	-0.070	0.180
-264.253	-200.000	0.008	0.161
-263.238	-200.000	-0.041	-0.234
-262.224	800.000	0.025	-0.079
-261.209	800.000	-0.047	0.135
-260.195	-113.592	-0.081	-0.016
-259.180	65.981	0.250	0.249
-258.165	88.328	0.301	0.328
-257.151	-93.330	0.043	-0.012
-256.136	800.000	0.050	0.201
-255.122	-41.907	0.066	-0.033
-254.107	627.756	0.130	-0.323
-253.092	610.354	-0.062	0.152
-252.078	-190.531	0.284	0.003
-251.063	-200.000	0.094	0.458
-250.049	-112.764	0.245	-0.048
-249.034	-124.583	0.254	0.039
-248.019	-200.000	0.055	-0.398
-247.005	19.814	-0.134	-0.106
-245.990	-200.000	-0.029	0.274
-244.976	-145.434	-0.357	-0.032
-243.961	-105.204	-0.377	-0.084
-242.946	-97.293	0.094	0.024
-241.932	72.182	0.213	-0.218
-240.917	-24.562	0.041	0.024
-239.903	0.891	0.168	-0.118
-238.888	-139.736	-0.203	0.021
-237.873	-200.000	0.022	-0.293
-236.859	-200.000	-0.008	-0.150
-235.844	137.255	-0.292	0.374
-234.830	4.802	-0.164	-0.118
-233.815	397.870	0.076	0.156
-232.800	97.902	-0.115	0.130
-231.786	195.268	-0.011	0.016
-230.771	32.617	-0.120	-0.102
-229.757	460.112	0.073	0.159
-228.742	-30.769	-0.117	0.065
-227.727	361.462	-0.090	-0.178
-226.713	-156.965	0.098	-0.006
-225.698	-146.900	0.147	-0.012
-224.684	-200.000	-0.001	-0.082
-223.669	-200.000	0.016	-0.073
-222.655	-85.872	0.160	0.048
-221.640	-147.733	0.265	-0.022
-220.625	347.645	-0.109	-0.210
-219.611	-200.000	0.030	0.213
-218.596	-200.000	0.027	-0.251
-217.582	-30.921	0.320	-0.177
-216.567	17.619	-0.321	-0.250
-215.552	800.000	-0.086	0.320
-214.538	-3.414	0.026	0.017
-213.523	-200.000	0.010	0.049
-212.509	800.000	-0.023	-0.094
-211.494	-89.739	0.247	-0.071
-210.479	-75.534	0.105	-0.036
-209.465	182.263	-0.045	0.064
-208.450	-200.000	0.018	-0.197
-207.436	137.186	0.063	0.081
-206.421	192.250	0.071	0.104
-205.406	800.000	0.047	0.132
-204.392	-90.898	-0.332	0.094
-203.377	-45.624	0.200	-0.097
-202.363	793.721	0.109	0.293
-201.348	-134.309	-0.368	0.044
-200.333	800.000	-0.035	0.145
-199.319	182.463	0.049	0.070
-198.304	-120.994	0.332	-0.055
-197.290	-146.703	0.034	0.003
-196.275	-53.398	0.122	0.055
-195.260	124.708	-0.079	0.098
-194.246	800.000	0.074	0.224
-193.231	0.146	0.122	0.085
-192.217	-38.134	0.239	-0.124
-191.202	74.805	-0.101	-0.104
-190.187	396.994	0.080	0.165
-189.173	94.471	0.103	-0.115
-188.158	42.273	-0.122	0.108
-187.144	-132.379	-0.329	-0.042
-186.129	486.870	0.092	0.206
-185.114	-65.842	0.182	-0.071
-184.100	-126.669	-0.128	-0.019
-183.085	375.841	-0.030	-0.060
-182.071	800.000	-0.063	-0.222
-181.056	-64.788	-0.304	0.120
-180.042	509.932	-0.048	0.109
-179.027	208.149	0.111	0.170
-178.012	-112.235	0.030	-0.006
-176.998	-200.000	0.061	0.288
-175.983	-60.503	-0.088	0.037
-174.969	-136.109	0.141	0.016
-173.954	-168.224	0.127	-0.005
-172.939	-200.000	0.016	-0.155
-171.925	-61.918	0.186	0.076
-170.910	33.294	0.204	-0.173
-169.896	800.000	0.049	-0.180
-168.881	-28.183	-0.294	-0.166
-167.866	-42.782	0.147	-0.073
-166.852	-71.705	0.035	0.013
-165.837	-200.000	0.046	0.278
-164.823	-200.000	-0.027	0.122
-163.808	317.202	0.181	0.335
-162.793	443.104	-0.078	-0.167
-161.779	-40.374	-0.343	0.174
-160.764	-57.087	0.130	0.056
-159.750	86.999	-0.139	0.151
-158.735	178.420	0.133	-0.190
-157.720	-200.000	0.061	-0.410
-156.706	383.253	0.013	-0.026
-155.691	103.529	-0.319	-0.366
-154.677	339.851	0.065	0.123
-153.662	137.192	0.196	-0.250
-152.647	-200.000	0.040	-0.243
-151.633	170.659	-0.033	0.047
-150.618	730.715	0.181	0.473
-149.604	-46.401	-0.168	-0.081
-148.589	-49.541	0.257	-0.120
-147.574	-200.000	0.015	-0.157
-146.560	51.758	-0.358	0.333
-145.545	165.902	0.154	0.213
-144.531	-32.476	0.218	-0.119
-143.516	-83.384	0.213	-0.067
-142.502	161.283	0.173	-0.236
-141.487	-2.351	0.090	-0.062
-140.472	-60.719	0.246	0.102
-139.458	800.000	0.054	-0.198
-138.443	800.000	0.047	0.129
-137.429	65.143	0.201	-0.199
-136.414	121.501	0.061	0.074
-135.399	2.266	-0.296	0.209
-134.385	-21.416	-0.036	-0.021
-133.370	800.000	0.042	0.153
-132.356	-4.772	0.250	-0.169
-131.341	800.000	-0.049	0.145
-130.326	-5.479	0.206	0.138
-129.312	-114.191	0.012	-0.002
-128.297	800.000	-0.073	0.223
-127.283	-200.000	0.019	0.287
-126.268	-200.000	-0.032	-0.179
-125.253	44.635	0.090	0.081
-124.239	79.544	0.200	0.210
-123.224	-100.700	0.078	0.019
-122.210	-145.552	-0.084	-0.007
-121.195	60.011	-0.086	-0.083
-120.180	-200.000	0.044	0.300
-119.166	-58.606	0.307	0.130
-118.151	-54.426	-0.294	-0.130
-117.137	-200.000	0.004	-0.187
-116.122	72.591	-0.024	-0.025
-115.107	70.533	0.111	-0.112
-114.093	385.012	-0.057	0.114
-113.078	-117.776	0.400	0.070
-112.064	602.271	-0.056	-0.135
-111.049	800.000	0.055	-0.222
-110.034	-51.292	0.287	0.131
-109.020	-135.042	0.334	0.039
-108.005	-200.000	-0.070	-0.337
-106.991	-200.000	0.000	0.125
-105.976	-80.831	0.167	0.054
-104.962	21.676	-0.225	0.179
-103.947	107.818	-0.141	-0.164
-102.932	-200.000	0.000	0.127
-101.918	-148.119	0.047	-0.004
-100.903	199.038	0.113	0.168
-99.889	6.718	0.519	0.377
-98.874	55.431	-0.201	-0.190
-97.859	316.454	-0.228	0.419
-96.845	-103.304	-0.080	-0.018
-95.830	334.393	0.091	-0.172
-94.816	-36.474	0.222	0.117
-93.801	-200.000	0.005	0.040
-92.786	-126.306	0.116	0.017
-91.772	-61.540	-0.294	0.120
-90.757	-99.728	-0.166	-0.041
-89.743	-5.063	0.287	-0.192
-88.728	2.249	-0.198	-0.139
-87.713	-93.889	-0.302	-0.081
-86.699	-38.637	0.556	0.286
-85.684	-86.629	0.102	0.031
-84.670	-117.494	-0.275	0.048
-83.655	-171.670	0.075	0.002
-82.640	145.554	0.344	-0.450
-81.626	99.474	-0.192	-0.217
-80.611	717.572	0.049	-0.127
-79.597	222.008	-0.198	-0.310
-78.582	-9.632	-0.181	0.117
-77.567	-142.876	-0.168	0.016
-76.553	800.000	0.111	-0.329
-75.538	205.640	-0.288	0.437
-74.524	-200.000	-0.071	-0.358
-73.509	-200.000	-0.005	-0.086
-72.494	800.000	-0.134	0.483
-71.480	40.994	-0.347	0.305
-70.465	139.922	0.068	0.088
-69.451	-200.000	0.071	-0.384
-68.436	-79.426	-0.166	0.055
-67.422	-200.000	0.004	-0.159
-66.407	48.862	-0.070	-0.064
-65.392	67.652	-0.216	0.216
-64.378	90.860	-0.149	-0.163
-63.363	-51.284	0.089	0.041
-62.349	-200.000	-0.089	0.597
-61.334	37.046	-1.312	-1.131
-60.319	94.153	0.809	0.895
-59.305	678.444	-0.523	-1.325
-58.290	257.227	0.800	1.340
-57.276	800.000	0.546	1.566
-56.261	-200.000	135.737	686.322
-55.246	337.727	1679.787	3182.306
-54.232	133.956	2804.644	3538.089
-53.217	88.047	2171.537	2346.165
-52.203	32.260	1601.125	1345.907
-51.188	24.245	1350.214	1086.324
-50.173	22.086	1314.116	1044.416
-49.159	50.034	1388.350	1275.981
-48.144	46.389	1397.021	1261.611
-47.130	24.366	1344.506	1082.293
-46.115	21.285	1325.259	1048.299
-45.100	21.047	1319.390	1042.193
-44.086	20.989	1317.231	1040.102
-43.071	20.994	1314.912	1038.260
-42.057	20.965	1312.704	1036.304
-41.042	21.027	1311.493	1035.674
-40.027	21.017	1309.824	1034.255
-39.013	21.033	1307.553	1032.512
-37.998	21.048	1305.943	1031.290
-36.984	20.956	1304.984	1029.946
-35.969	21.048	1302.551	1028.531
-34.954	21.003	1301.094	1027.072
-33.940	21.118	1299.550	1026.492
-32.925	21.098	1298.400	1025.422
-31.911	21.123	1296.881	1024.331
-30.896	21.117	1295.399	1023.084
-29.881	21.217	1294.363	1022.810
-28.867	21.130	1292.767	1021.003
-27.852	21.194	1291.127	1020.038
-26.838	21.253	1290.148	1019.569
-25.823	21.164	1288.477	1017.689
-24.809	21.127	1287.543	1016.696
-23.794	21.143	1286.544	1015.959
-22.779	21.134	1285.193	1014.802
-21.765	21.235	1283.354	1013.894
-20.750	21.091	1282.557	1012.388
-19.736	21.054	1281.210	1011.074
-18.721	21.020	1280.280	1010.101
-17.706	21.044	1279.035	1009.216
-16.692	21.004	1277.846	1008.008
-15.677	20.992	1276.944	1007.189
-14.663	20.998	1275.867	1006.329
-13.648	21.005	1274.227	1005.037
-12.633	20.974	1274.091	1004.712
-11.619	21.063	1272.751	1004.126
-10.604	21.024	1271.988	1003.261
-9.590	20.990	1271.284	1002.472
-8.575	20.938	1270.371	1001.415
-7.560	21.049	1269.273	1001.145
-6.546	20.866	1268.882	999.746
-5.531	21.080	1267.353	999.731
-4.517	21.012	1266.691	998.778
-3.502	21.135	1265.456	998.469
-2.487	21.073	1264.664	997.448
-1.473	20.896	1260.650	993.237
-0.458	19.324	1244.829	971.875
0.556	14.912	1230.021	935.226
1.571	11.343	1238.451	921.420
2.586	10.881	1254.040	930.293
3.600	10.934	1242.383	921.868
4.615	8.290	1170.159	854.070
5.629	3.085	1100.781	777.110
6.644	0.926	1084.649	754.892
7.659	0.591	1083.237	752.177
8.673	0.619	1082.236	751.553
9.688	0.585	1081.190	750.592
10.702	0.754	1078.475	749.480
11.717	3.932	1081.508	767.297
12.731	10.563	1090.088	806.374
13.746	15.571	1096.796	836.254
14.761	17.318	1098.724	846.352
15.775	16.665	1096.664	841.445
16.790	15.718	1094.588	835.076
17.804	14.886	1093.817	830.285
18.819	14.618	1092.188	827.648
19.834	14.342	1091.137	825.411
20.848	14.149	1090.413	823.834
21.863	13.910	1089.605	821.968
22.877	13.731	1088.952	820.514
23.892	13.699	1088.070	819.619
24.907	13.560	1087.636	818.535
25.921	13.664	1087.016	818.511
26.936	13.813	1085.458	817.997
27.950	13.858	1084.448	817.386
28.965	13.852	1083.688	816.709
29.980	13.967	1081.961	815.902
30.994	13.812	1081.555	814.764
32.009	13.959	1080.268	814.441
33.023	13.894	1079.140	813.202
34.038	13.845	1078.376	812.315
35.053	13.903	1077.743	812.046
36.067	13.781	1076.684	810.583
37.082	13.895	1076.215	810.717
38.096	13.885	1075.130	809.779
39.111	13.820	1074.347	808.799
40.126	13.745	1072.970	807.328
41.140	13.762	1071.624	806.326
42.155	13.755	1070.624	805.467
43.169	13.755	1069.492	804.546
44.184	13.757	1068.725	803.905
45.199	13.735	1067.537	802.835
46.213	13.670	1066.567	801.717
47.228	13.825	1065.613	801.678
48.242	13.856	1064.178	800.677
49.257	13.806	1063.832	800.106
50.271	13.864	1062.537	799.340
51.286	13.743	1062.152	798.399
52.301	13.660	1061.279	797.274
53.315	13.704	1059.900	796.377
54.330	13.768	1058.569	795.613
55.344	13.808	1057.936	795.260
56.359	13.751	1056.824	794.081
57.374	13.817	1055.973	793.686
58.388	13.726	1055.385	792.738
59.403	13.767	1054.322	792.064
60.417	13.614	1053.822	790.888
61.432	13.681	1052.512	790.158
62.447	13.598	1052.076	789.362
63.461	13.654	1050.857	788.648
64.476	13.580	1050.169	787.706
65.490	13.695	1049.126	787.403
66.505	13.617	1048.557	786.536
67.520	13.723	1047.490	786.167
68.534	13.740	1046.740	785.617
69.549	13.644	1046.252	784.724
70.563	13.638	1045.695	784.212
71.578	13.772	1044.159	783.619
72.593	13.655	1043.988	782.870
73.607	13.634	1043.051	782.002
74.622	13.642	1042.671	781.683
75.636	13.663	1041.740	781.014
76.651	13.662	1040.711	780.170
77.666	13.648	1040.411	779.809
78.680	13.674	1039.602	779.257
79.695	13.577	1038.953	778.248
80.709	13.521	1038.966	777.925
81.724	13.694	1037.934	777.896
82.739	13.686	1036.762	776.912
83.753	13.782	1036.110	776.803
84.768	13.922	1035.080	776.615
85.782	13.921	1033.883	775.643
86.797	13.828	1032.919	774.421
87.812	13.808	1032.323	773.810
88.826	13.836	1030.956	772.847
89.841	13.765	1030.134	771.835
90.855	13.886	1028.988	771.467
91.870	13.819	1028.883	771.010
92.884	13.940	1027.634	770.568
93.899	13.860	1026.662	769.400
94.914	13.922	1026.041	769.151
95.928	14.061	1025.038	768.975
96.943	13.933	1024.077	767.595
97.957	13.919	1023.311	766.890
98.972	13.910	1022.419	766.111
99.987	13.941	1021.501	765.498
101.001	13.897	1020.499	764.477
102.016	13.813	1020.142	763.755
103.030	13.835	1019.067	762.984
104.045	13.924	1018.456	762.866
105.060	13.849	1017.329	761.614
106.074	13.883	1016.164	760.827
107.089	13.750	1015.930	759.976
108.103	13.748	1014.606	758.908
109.118	13.821	1013.762	758.546
110.133	13.818	1012.746	757.703
111.147	13.708	1012.124	756.669
112.162	13.837	1011.174	756.481
113.176	13.779	1010.796	755.866
114.191	13.861	1009.449	755.165
115.206	13.820	1008.953	754.542
116.220	13.852	1008.346	754.165
117.235	13.753	1007.346	752.902
118.249	13.751	1006.668	752.322
119.264	13.773	1005.776	751.685
120.279	13.812	1004.937	751.170
121.293	13.782	1004.176	750.397
122.308	13.755	1003.420	749.645
123.322	13.759	1002.404	748.836
124.337	13.822	1001.003	748.006
125.352	13.733	999.933	746.742
126.366	13.646	998.985	745.575
127.381	13.767	997.827	745.188
128.395	13.750	996.955	744.395
129.410	13.753	996.265	743.831
130.424	13.945	994.637	743.407
131.439	13.820	994.386	742.595
132.454	13.852	993.615	742.097
133.468	13.933	992.650	741.670
134.483	13.845	992.065	740.779
135.497	13.831	990.834	739.728
136.512	13.890	989.948	739.267
137.527	13.850	989.181	738.449
138.541	13.875	988.759	738.182
139.556	13.861	987.660	737.232
140.570	13.933	987.045	737.026
141.585	13.912	986.350	736.351
142.600	13.904	985.456	735.580
143.614	14.068	984.584	735.591
144.629	14.125	983.386	734.881
145.643	13.964	982.588	733.512
146.658	13.946	981.639	732.660
147.673	13.915	980.830	731.853
148.687	14.017	979.487	731.237
149.702	14.029	978.914	730.796
150.716	13.975	978.144	729.916
151.731	13.899	977.369	728.941
152.746	13.980	976.928	728.904
153.760	13.980	975.949	728.109
154.775	13.965	975.928	727.965
155.789	14.081	974.899	727.640
156.804	14.097	974.153	727.089
157.819	14.064	973.657	726.511
158.833	14.160	972.733	726.172
159.848	14.191	972.207	725.852
160.862	14.139	971.229	724.830
161.877	14.171	970.039	724.021
162.892	14.097	969.124	722.952
163.906	14.076	967.801	721.808
164.921	14.054	967.017	721.063
165.935	14.186	966.212	720.972
166.950	14.233	965.361	720.477
167.964	14.131	964.996	719.700
168.979	14.111	963.913	718.741
169.994	14.152	963.162	718.294
171.008	14.311	961.895	717.969
172.023	14.301	961.404	717.497
173.037	14.241	961.088	716.942
174.052	14.253	960.088	716.184
175.067	14.202	959.996	715.832
176.081	14.209	959.098	715.128
177.096	14.215	958.702	714.796
178.110	14.161	958.258	714.168
179.125	14.213	957.445	713.724
180.140	14.397	956.934	714.067
181.154	14.312	956.512	713.327
182.169	14.413	955.670	713.068
183.183	14.341	954.874	712.102
184.198	14.481	954.071	712.041
185.213	14.431	953.700	711.487
186.227	14.317	953.203	710.567
187.242	14.425	952.464	710.410
188.256	14.417	951.835	709.844
189.271	14.618	950.581	709.703
190.286	14.487	949.723	708.441
191.300	14.350	949.197	707.404
192.315	14.435	948.639	707.289
193.329	14.436	947.977	706.738
194.344	14.350	947.934	706.275
195.359	14.426	946.832	705.717
196.373	14.499	946.413	705.649
197.388	14.462	946.000	705.121
198.402	14.524	945.391	704.871
199.417	14.667	944.755	704.934
200.432	14.653	943.963	704.222
201.446	14.633	943.649	703.842
202.461	14.729	943.229	703.871
203.475	14.727	942.507	703.261
204.490	14.619	941.601	702.071
205.504	14.706	940.586	701.616
206.519	14.701	939.924	701.039
207.534	14.738	939.230	700.615
208.548	14.671	938.732	699.901
209.563	14.655	938.096	699.296
210.577	14.642	937.617	698.824
211.592	14.860	936.689	698.981
212.607	14.978	935.688	698.667
213.621	14.833	935.119	697.573
214.636	14.760	934.529	696.766
215.650	14.925	933.771	696.827
216.665	14.921	932.537	695.830
217.680	14.896	932.347	695.521
218.694	14.957	931.748	695.270
219.709	14.919	931.372	694.768
220.723	14.949	930.574	694.236
221.738	14.988	929.417	693.472
222.753	14.980	928.717	692.857
223.767	15.028	928.347	692.716
224.782	15.062	927.822	692.404
225.796	15.039	927.237	691.810
226.811	15.094	926.173	691.185
227.826	15.022	926.018	690.709
228.840	14.979	925.043	689.744
229.855	15.057	924.126	689.321
230.869	15.135	923.270	688.940
231.884	15.053	922.792	688.187
232.899	14.962	922.137	687.265
233.913	15.043	921.205	686.840
234.928	15.033	920.569	686.263
235.942	15.119	920.270	686.336
236.957	15.068	919.329	685.364
237.972	15.091	918.888	685.068
238.986	15.046	918.281	684.370
240.001	15.113	917.877	684.284
241.015	15.163	917.101	683.848
242.030	15.147	916.594	683.344
243.045	15.136	915.874	682.700
244.059	15.144	915.167	682.147
245.074	15.340	914.180	682.149
246.088	15.185	913.839	681.205
247.103	15.229	913.313	680.930
248.117	15.141	912.845	680.161
249.132	15.366	912.002	680.388
250.147	15.416	911.498	680.154
251.161	15.375	910.753	679.370
252.176	15.397	910.517	679.223
253.190	15.449	909.312	678.475
254.205	15.526	908.995	678.491
255.220	15.525	908.172	677.811
256.234	15.535	907.507	677.297
257.249	15.470	906.934	676.545
258.263	15.563	906.047	676.197
259.278	15.665	905.436	676.092
260.293	15.719	904.612	675.636
261.307	15.568	904.524	674.903
262.322	15.780	903.412	674.864
263.336	15.692	903.058	674.186
264.351	15.665	902.384	673.516
265.366	15.682	901.766	673.064
266.380	15.812	900.775	672.783
267.395	15.738	900.020	671.863
268.409	15.797	899.561	671.699
269.424	15.613	899.080	670.546
270.439	15.737	898.223	670.340
271.453	15.645	897.379	669.286
272.468	15.749	896.690	669.127
273.482	15.921	896.157	669.353
274.497	15.831	895.235	668.247
275.512	15.777	894.908	667.731
276.526	15.730	894.718	667.344
277.541	15.899	894.001	667.421
278.555	15.978	893.258	667.119
279.570	15.972	892.945	666.800
280.585	15.952	891.723	665.752
281.599	15.886	890.966	664.869
282.614	15.928	890.481	664.611
283.628	15.922	889.805	664.025
284.643	16.014	889.004	663.732
285.657	15.901	888.597	662.922
286.672	16.018	888.206	663.032
287.687	16.103	887.359	662.676
288.701	16.077	886.396	661.796
289.716	16.017	886.427	661.526
290.730	16.062	886.021	661.342
291.745	16.191	884.746	660.837
292.760	16.279	884.297	660.788
293.774	16.006	883.768	659.266
294.789	16.143	883.103	659.246
295.803	16.164	882.348	658.707
296.818	16.130	882.073	658.309
297.833	16.168	881.146	657.709
298.847	16.122	880.607	657.066
299.862	16.148	880.094	656.729
300.876	16.279	879.440	656.693
301.891	16.287	878.538	655.992
302.906	16.358	878.155	655.923
303.920	16.242	878.178	655.433
304.935	16.351	877.153	655.030
305.949	16.312	876.451	654.300
306.964	16.412	875.938	654.244
307.979	16.338	875.397	653.497
308.993	16.424	874.472	653.079
310.008	16.394	873.739	652.357
311.022	16.516	873.107	652.300
312.037	16.454	872.629	651.646
313.052	16.358	872.159	650.869
314.066	16.341	872.028	650.646
315.081	16.441	871.050	650.243
316.095	16.410	870.460	649.628
317.110	16.353	870.076	649.063
318.125	16.448	869.271	648.770
319.139	16.390	868.898	648.214
320.154	16.542	868.632	648.540
321.168	16.461	867.958	647.669
322.183	16.543	867.038	647.240
323.197	16.576	866.667	647.032
324.212	16.469	866.361	646.336
325.227	16.503	865.295	645.614
326.241	16.487	865.055	645.318
327.256	16.489	864.213	644.637
328.270	16.488	863.674	644.175
329.285	16.537	863.083	643.865
330.300	16.542	862.489	643.385
331.314	16.659	862.022	643.421
332.329	16.592	861.709	642.879
333.343	16.726	860.965	642.775
334.358	16.701	860.685	642.414
335.373	16.688	860.621	642.260
336.387	16.807	860.184	642.327
337.402	16.750	859.691	641.688
338.416	16.771	859.506	641.572
339.431	16.824	858.915	641.275
340.446	16.800	858.729	640.989
341.460	16.786	858.173	640.462
342.475	16.863	857.751	640.381
343.489	16.949	857.084	640.152
344.504	17.007	856.362	639.776
345.519	16.862	856.534	639.299
346.533	16.946	855.800	639.012
347.548	17.011	854.860	638.500
348.562	16.797	855.023	637.757
349.577	16.774	854.149	636.965
350.592	16.987	852.981	636.836
351.606	16.950	852.344	636.164
352.621	17.010	851.801	635.927
353.635	17.010	850.874	635.182
354.650	16.976	850.655	634.831
355.665	17.021	850.268	634.657
356.679	17.059	849.437	634.121
357.694	17.081	848.780	633.656
358.708	17.077	848.468	633.353
359.723	17.061	847.949	632.852
360.738	17.032	847.050	632.014
361.752	17.108	846.347	631.718
362.767	17.264	845.720	631.775
363.781	17.266	845.054	631.228
364.796	17.263	844.806	630.976
365.810	17.204	844.221	630.265
366.825	17.246	844.129	630.295
367.840	17.219	843.501	629.672
368.854	17.283	843.146	629.586
369.869	17.311	842.642	629.258
370.883	17.321	842.172	628.889
371.898	17.362	841.919	628.795
372.913	17.451	841.472	628.735
373.927	17.430	840.877	628.157
374.942	17.363	840.576	627.630
375.956	17.531	839.953	627.729
376.971	17.336	839.811	626.847
377.986	17.541	839.417	627.253
379.000	17.542	838.514	626.529
380.015	17.512	838.288	626.191
381.029	17.553	837.616	625.786
382.044	17.491	837.069	625.094
383.059	17.600	836.517	625.028
384.073	17.579	836.003	624.510
385.088	17.620	835.352	624.121
386.102	17.556	835.134	623.666
387.117	17.500	834.231	622.733
388.132	17.493	833.778	622.312
389.146	17.619	833.228	622.309
390.161	17.644	832.584	621.861
391.175	17.707	831.871	621.506
392.190	17.662	831.337	620.887
393.205	17.764	831.109	621.032
394.219	17.688	830.870	620.522
395.234	17.582	830.642	619.910
396.248	17.720	830.275	620.084
397.263	17.684	829.575	619.377
398.278	17.548	828.957	618.368
399.292	17.585	828.594	618.177
400.307	17.671	828.088	618.056
401.321	17.753	827.706	618.014
402.336	17.700	826.967	617.213
403.350	17.703	827.092	617.264
404.365	17.767	826.551	617.037
405.380	17.888	825.735	616.809
406.394	17.867	825.458	616.472
407.409	17.836	825.174	616.094
408.423	18.005	824.598	616.219
409.438	18.098	824.037	616.083
410.453	17.994	823.694	615.397
411.467	17.835	823.466	614.597
412.482	18.067	822.650	614.769
413.496	18.001	822.763	614.563
414.511	17.978	821.912	613.790
415.526	18.158	821.511	614.083
416.540	18.225	820.972	613.863
417.555	18.169	820.211	613.040
418.569	18.213	820.086	613.053
419.584	18.177	819.494	612.424
420.599	18.161	818.831	611.816
421.613	116.065	1301.197	1492.169
422.628	100.696	1371.417	1492.257
