DTS Sentinel unit serial number:	SN413079Multiplexer serial number:	ORYXHardware model number:	OX4-SRSoftware version number:	ORYX F/W v4.00 Oryx Data Collector v3.7.2.0data status	okinstallation	princeton_trtdifferential loss correction	single-endedforward channel	channel 1reverse channel	N/Adate	2019/09/14time	21:46:35forward acquisition time	60.00reverse acquisition time	0.00gamma	496.2192k internal	0.2318k external	0.2318temperature offset calibration	1.0011default loss term (dB/km)	0.3790temperature slope calibration	1.0000multiplexer offset coefficient	1.0000multiplexer slope coefficient	1.0000fibre end	0.00T internal ref (°C)	32.75T ext. ref 1 (°C)	4.74T ext. ref 2 (°C)	27.71length (m)	temperature (°C)	Stokes	anti-Stokes-747.200	-115.826	0.145	-0.027
-746.185	89.529	-0.295	0.333
-745.171	800.000	0.041	-0.145
-744.156	-35.746	-0.162	0.089
-743.142	211.965	0.112	0.178
-742.127	201.015	0.161	0.251
-741.112	800.000	-0.056	0.226
-740.098	-200.000	-0.050	0.337
-739.083	122.157	-0.247	-0.313
-738.069	-22.016	-0.306	0.188
-737.054	479.142	-0.059	0.136
-736.039	800.000	-0.155	-0.439
-735.025	-43.152	-0.079	0.040
-734.010	305.029	-0.170	-0.320
-732.996	-96.093	-0.379	-0.102
-731.981	183.787	0.174	0.261
-730.966	-30.440	-0.204	0.117
-729.952	-120.165	-0.267	0.046
-728.937	74.100	-0.174	-0.185
-727.923	-146.589	-0.337	-0.030
-726.908	209.688	-0.090	0.142
-725.894	-107.237	0.150	0.033
-724.879	-200.000	0.010	-0.069
-723.864	800.000	0.035	-0.109
-722.850	-152.128	-0.015	-0.001
-721.835	12.485	-0.197	0.153
-720.821	83.464	0.095	0.105
-719.806	-31.168	0.191	-0.109
-718.791	-132.482	0.110	0.014
-717.777	-85.336	0.275	-0.087
-716.762	341.747	-0.136	-0.268
-715.748	800.000	-0.040	0.114
-714.733	-103.777	-0.217	-0.051
-713.718	-73.981	0.209	-0.077
-712.704	-200.000	0.004	0.053
-711.689	335.295	-0.174	-0.340
-710.675	344.261	0.121	-0.239
-709.660	800.000	0.067	-0.235
-708.645	-139.858	-0.473	-0.051
-707.631	-173.641	0.159	0.005
-706.616	110.144	0.241	-0.292
-705.602	171.243	0.173	0.251
-704.587	197.742	-0.028	-0.043
-703.572	106.117	-0.055	0.066
-702.558	402.885	-0.089	-0.188
-701.543	141.976	-0.154	0.206
-700.529	-20.609	0.083	-0.051
-699.514	-19.673	0.157	0.098
-698.499	-32.240	-0.030	0.017
-697.485	-11.949	-0.191	0.127
-696.470	261.581	0.097	-0.170
-695.456	-128.420	-0.224	-0.032
-694.441	34.257	0.255	0.225
-693.426	214.864	-0.134	-0.215
-692.412	1.251	0.076	0.055
-691.397	9.476	0.170	0.130
-690.383	-200.000	0.039	0.201
-689.368	-40.456	0.171	0.090
-688.354	-160.121	0.383	-0.021
-687.339	-200.000	0.015	-0.128
-686.324	60.841	0.021	-0.021
-685.310	-200.000	0.098	0.476
-684.295	800.000	0.040	-0.151
-683.281	-166.372	-0.363	-0.015
-682.266	-163.815	0.296	-0.014
-681.251	-57.116	-0.255	0.113
-680.237	800.000	-0.040	0.128
-679.222	800.000	0.027	0.107
-678.208	136.614	-0.084	0.111
-677.193	-108.912	0.065	-0.014
-676.178	146.506	0.122	-0.165
-675.164	334.402	0.125	-0.244
-674.149	-72.602	-0.299	-0.111
-673.135	-19.652	0.132	0.082
-672.120	-170.633	0.048	-0.002
-671.105	44.053	-0.140	0.130
-670.091	157.675	0.186	-0.260
-669.076	405.638	-0.172	-0.367
-668.062	-129.806	0.010	0.001
-667.047	800.000	-0.014	-0.039
-666.032	39.881	0.415	-0.376
-665.018	424.373	-0.058	0.125
-664.003	-110.456	0.123	-0.026
-662.989	53.789	-0.113	0.110
-661.974	-7.117	-0.075	0.051
-660.959	100.881	-0.129	0.151
-659.945	63.544	-0.104	0.105
-658.930	-200.000	-0.015	0.198
-657.916	-188.503	0.090	0.001
-656.901	-40.938	0.397	0.207
-655.886	305.865	-0.073	0.137
-654.872	-159.689	0.273	0.015
-653.857	-92.577	-0.442	-0.125
-652.843	-14.569	-0.286	0.186
-651.828	-18.993	0.403	0.253
-650.814	-111.524	-0.104	0.021
-649.799	800.000	0.054	-0.169
-648.784	16.804	-0.103	-0.082
-647.770	-188.918	-0.126	-0.002
-646.755	-21.193	0.277	0.171
-645.741	-31.234	0.123	0.070
-644.726	-161.791	0.051	-0.003
-643.711	-40.511	-0.380	-0.199
-642.697	179.284	0.064	0.094
-641.682	347.555	0.115	-0.229
-640.668	-31.569	-0.323	-0.183
-639.653	1.512	0.229	-0.166
-638.638	-82.701	0.341	0.111
-637.624	-68.897	-0.265	0.103
-636.609	-92.054	-0.203	-0.058
-635.595	-32.613	-0.185	-0.104
-634.580	-200.000	0.007	-0.037
-633.565	44.131	-0.057	0.053
-632.551	-0.213	-0.287	0.206
-631.536	-21.894	-0.202	0.124
-630.522	24.469	0.200	-0.167
-629.507	800.000	0.098	-0.289
-628.492	-200.000	-0.003	0.272
-627.478	-28.069	0.239	-0.139
-626.463	-104.626	-0.112	-0.026
-625.449	-111.827	-0.217	-0.044
-624.434	800.000	0.068	0.248
-623.419	-64.273	0.031	0.013
-622.405	299.382	0.055	0.102
-621.390	800.000	0.077	-0.221
-620.376	-200.000	-0.017	0.108
-619.361	-142.046	0.115	0.012
-618.346	800.000	0.102	0.396
-617.332	-88.703	0.323	-0.097
-616.317	695.564	0.079	0.208
-615.303	31.230	0.070	-0.060
-614.288	800.000	0.013	0.038
-613.273	-35.874	-0.114	-0.062
-612.259	800.000	-0.035	-0.115
-611.244	-111.222	0.258	0.053
-610.230	800.000	0.066	0.244
-609.215	-200.000	0.022	-0.173
-608.201	800.000	-0.099	0.352
-607.186	14.541	0.250	0.196
-606.171	-140.562	0.113	-0.012
-605.157	-200.000	0.017	-0.099
-604.142	154.852	-0.070	-0.097
-603.128	-68.204	-0.228	-0.089
-602.113	-200.000	-0.004	-0.107
-601.098	183.636	0.186	0.276
-600.084	800.000	0.046	0.148
-599.069	529.542	0.040	0.094
-598.055	800.000	-0.026	-0.094
-597.040	-146.714	0.171	0.015
-596.025	-105.440	-0.272	-0.062
-595.011	48.377	-0.191	-0.180
-593.996	429.746	-0.163	0.354
-592.982	800.000	0.099	0.366
-591.967	-9.499	0.297	-0.200
-590.952	547.080	0.075	0.181
-589.938	-21.948	-0.197	-0.121
-588.923	800.000	-0.046	-0.151
-587.909	-70.811	-0.192	-0.073
-586.894	262.106	0.179	0.313
-585.879	800.000	0.061	0.228
-584.865	-200.000	-0.000	-0.081
-583.850	-118.302	-0.244	0.044
-582.836	-166.110	-0.210	0.009
-581.821	137.025	-0.199	-0.262
-580.806	-24.404	-0.078	-0.047
-579.792	-68.209	-0.164	-0.064
-578.777	121.254	-0.243	-0.304
-577.763	408.696	0.046	-0.098
-576.748	-106.119	0.110	-0.025
-575.733	298.190	-0.088	-0.162
-574.719	-130.325	-0.322	0.044
-573.704	-200.000	-0.008	-0.052
-572.690	83.241	-0.202	0.221
-571.675	800.000	-0.064	0.224
-570.661	799.936	0.093	-0.259
-569.646	800.000	-0.034	0.146
-568.631	-200.000	0.057	0.370
-567.617	-37.889	-0.254	0.136
-566.602	-12.260	-0.031	0.021
-565.588	95.640	-0.025	0.028
-564.573	231.274	0.070	0.115
-563.558	425.107	-0.030	0.066
-562.544	-59.455	0.118	-0.051
-561.529	800.000	0.051	0.166
-560.515	-200.000	-0.003	0.101
-559.500	-41.192	0.472	-0.245
-558.485	210.283	0.180	0.284
-557.471	-200.000	0.001	-0.078
-556.456	-128.955	-0.019	0.003
-555.442	-200.000	-0.020	-0.289
-554.427	96.810	-0.151	0.174
-553.412	-200.000	0.029	0.155
-552.398	375.776	-0.073	0.149
-551.383	209.190	-0.062	-0.098
-550.369	84.688	0.182	0.200
-549.354	-123.151	-0.385	0.062
-548.339	73.543	-0.196	-0.206
-547.325	-200.000	0.031	0.154
-546.310	-200.000	-0.012	-0.136
-545.296	-121.430	0.058	0.010
-544.281	-95.328	0.058	-0.016
-543.266	-59.592	-0.023	-0.010
-542.252	-200.000	-0.031	0.434
-541.237	602.451	0.059	-0.147
-540.223	21.637	0.109	-0.089
-539.208	800.000	0.034	0.125
-538.193	72.805	0.217	0.227
-537.179	47.420	-0.165	-0.154
-536.164	-200.000	-0.022	0.205
-535.150	-153.549	-0.369	-0.026
-534.135	-76.673	0.152	-0.053
-533.121	229.849	0.017	0.028
-532.106	-169.962	-0.127	0.005
-531.091	63.823	0.057	0.058
-530.077	800.000	-0.042	0.126
-529.062	-177.509	-0.063	0.002
-528.048	546.078	-0.102	0.245
-527.033	-20.958	-0.130	-0.080
-526.018	-200.000	-0.010	-0.249
-525.004	56.747	-0.261	-0.255
-523.989	-121.201	0.132	-0.022
-522.975	-200.000	0.036	0.166
-521.960	-150.252	-0.271	0.021
-520.945	31.558	0.223	0.193
-519.931	-135.431	-0.106	0.013
-518.916	-66.149	-0.076	0.030
-517.902	79.485	0.155	0.166
-516.887	118.565	-0.059	0.074
-515.872	-154.586	0.340	-0.023
-514.858	39.397	-0.128	-0.115
-513.843	-18.047	-0.142	0.089
-512.829	-19.231	0.253	-0.158
-511.814	31.860	0.141	0.122
-510.799	-157.107	0.070	-0.004
-509.785	-31.554	0.245	0.138
-508.770	72.679	0.228	0.238
-507.756	376.585	-0.172	-0.351
-506.741	135.062	0.077	0.100
-505.726	-51.322	0.203	-0.095
-504.712	49.259	-0.095	0.090
-503.697	215.254	0.033	-0.052
-502.683	-99.579	-0.149	-0.038
-501.668	-133.356	0.444	0.056
-500.653	72.765	-0.113	0.118
-499.639	330.509	-0.090	0.174
-498.624	-19.253	0.081	0.051
-497.610	-12.203	-0.156	0.102
-496.595	-71.094	0.172	0.065
-495.581	-108.708	-0.170	-0.037
-494.566	800.000	-0.014	-0.038
-493.551	-145.642	-0.324	-0.029
-492.537	47.704	0.102	-0.095
-491.522	-200.000	-0.054	-0.397
-490.508	-200.000	0.018	0.156
-489.493	-71.112	0.413	0.156
-488.478	-22.826	-0.170	0.103
-487.464	412.381	-0.064	0.137
-486.449	-179.155	0.281	0.006
-485.435	141.139	-0.157	0.208
-484.420	800.000	0.036	0.140
-483.405	800.000	-0.014	0.043
-482.391	137.644	-0.130	0.171
-481.376	800.000	-0.034	0.101
-480.362	-97.640	-0.155	-0.040
-479.347	649.438	0.100	0.256
-478.332	-68.336	0.190	0.074
-477.318	387.176	0.013	-0.026
-476.303	-188.607	0.435	0.005
-475.289	-41.494	0.092	0.048
-474.274	240.669	-0.161	-0.268
-473.259	800.000	0.098	-0.334
-472.245	242.985	0.115	-0.193
-471.230	496.033	-0.135	-0.310
-470.216	73.825	0.168	-0.177
-469.201	-200.000	-0.002	0.014
-468.186	-21.455	0.117	-0.072
-467.172	7.412	0.128	-0.096
-466.157	84.852	-0.184	0.202
-465.143	85.641	-0.192	0.211
-464.128	88.266	0.260	0.289
-463.113	-127.556	0.118	0.017
-462.099	-200.000	0.011	-0.391
-461.084	210.779	0.111	-0.174
-460.070	-132.363	-0.079	0.010
-459.055	172.715	0.085	0.122
-458.040	309.163	-0.057	0.106
-457.026	-200.000	0.050	0.278
-456.011	800.000	0.104	0.444
-454.997	-81.849	-0.198	-0.065
-453.982	295.528	0.208	-0.382
-452.968	26.506	-0.115	0.096
-451.953	-51.756	-0.063	-0.029
-450.938	306.536	0.181	0.338
-449.924	-200.000	0.011	0.129
-448.909	-200.000	0.011	0.307
-447.895	-4.723	0.310	0.214
-446.880	-43.261	-0.412	-0.208
-445.865	126.439	0.104	-0.132
-444.851	-52.977	0.075	0.034
-443.836	800.000	0.016	0.055
-442.822	-14.858	-0.112	-0.072
-441.807	4.039	-0.193	-0.141
-440.792	-200.000	-0.030	-0.210
-439.778	-154.090	0.310	-0.021
-438.763	-76.787	-0.078	-0.027
-437.749	-116.748	-0.123	0.023
-436.734	800.000	0.076	-0.234
-435.719	-159.131	-0.202	-0.011
-434.705	-140.074	-0.195	0.021
-433.690	-14.840	-0.200	0.128
-432.676	326.143	-0.040	0.076
-431.661	87.112	0.068	0.075
-430.646	201.512	-0.082	-0.126
-429.632	800.000	-0.075	-0.328
-428.617	800.000	0.058	-0.194
-427.603	-126.983	-0.112	-0.016
-426.588	-96.844	-0.423	-0.111
-425.573	-94.795	-0.389	-0.105
-424.559	-200.000	0.011	0.229
-423.544	174.341	0.184	0.266
-422.530	227.811	-0.127	0.207
-421.515	127.761	0.065	-0.083
-420.500	-130.164	-0.118	-0.016
-419.486	-71.296	0.318	0.119
-418.471	-104.928	0.374	-0.086
-417.457	127.641	0.259	0.329
-416.442	357.539	-0.185	0.370
-415.428	-53.340	0.154	0.071
-414.413	-200.000	0.002	-0.122
-413.398	-27.852	0.381	-0.221
-412.384	-190.522	0.214	0.002
-411.369	119.412	-0.057	-0.070
-410.355	-20.963	0.176	0.108
-409.340	-96.219	0.386	-0.102
-408.325	-112.180	-0.196	0.039
-407.311	-114.253	-0.207	-0.040
-406.296	-45.568	0.415	-0.205
-405.282	-69.979	0.250	-0.095
-404.267	-72.280	0.204	-0.075
-403.252	11.930	0.228	-0.175
-402.238	94.284	-0.196	-0.222
-401.223	-73.729	0.255	-0.093
-400.209	1.421	-0.185	0.133
-399.194	61.941	-0.165	-0.164
-398.179	498.006	-0.098	-0.224
-397.165	-196.751	-0.075	0.000
-396.150	-33.356	0.196	-0.108
-395.136	-104.723	0.183	-0.042
-394.121	-137.320	0.276	0.031
-393.106	166.834	-0.164	-0.232
-392.092	213.327	-0.082	-0.129
-391.077	-186.285	-0.479	-0.007
-390.063	-108.289	0.062	0.013
-389.048	-78.263	0.193	-0.066
-388.033	171.521	0.145	0.208
-387.019	-200.000	-0.015	-0.192
-386.004	163.119	-0.250	-0.351
-384.990	800.000	0.146	-0.459
-383.975	-25.977	0.147	-0.086
-382.960	477.926	0.049	0.111
-381.946	-81.148	-0.094	-0.031
-380.931	-33.455	-0.120	0.066
-379.917	-173.508	-0.155	-0.005
-378.902	1.147	-0.286	-0.205
-377.888	-96.559	0.065	0.017
-376.873	-3.163	-0.179	0.124
-375.858	558.309	-0.200	-0.482
-374.844	279.098	0.236	0.421
-373.829	-200.000	0.042	0.397
-372.815	-200.000	-0.050	0.255
-371.800	118.736	-0.171	-0.211
-370.785	-200.000	0.005	-0.043
-369.771	-200.000	-0.004	0.066
-368.756	-115.437	-0.176	0.033
-367.742	-177.324	0.196	0.005
-366.727	-19.233	-0.107	0.066
-365.712	-200.000	0.015	0.134
-364.698	-117.524	0.312	0.056
-363.683	-80.141	0.324	-0.108
-362.669	-49.394	-0.148	-0.071
-361.654	-200.000	-0.002	-0.014
-360.639	615.848	0.104	-0.261
-359.625	74.972	-0.144	0.151
-358.610	182.666	0.151	0.222
-357.596	-140.636	-0.132	0.014
-356.581	335.151	-0.001	0.003
-355.566	-28.123	-0.074	-0.043
-354.552	-200.000	0.044	0.282
-353.537	-65.365	0.298	-0.119
-352.523	-200.000	0.020	0.161
-351.508	41.590	-0.256	0.231
-350.493	42.223	0.153	0.139
-349.479	-57.678	0.251	0.110
-348.464	-177.013	0.401	-0.010
-347.450	112.775	0.104	0.126
-346.435	140.593	0.086	-0.113
-345.420	41.849	0.072	0.065
-344.406	-93.834	0.217	0.060
-343.391	800.000	-0.182	0.540
-342.377	-110.466	0.251	0.052
-341.362	-95.157	0.064	0.017
-340.348	712.126	-0.026	-0.069
-339.333	-128.744	-0.206	-0.029
-338.318	228.319	-0.115	0.186
-337.304	-154.726	0.212	-0.014
-336.289	-141.159	-0.332	0.034
-335.275	800.000	-0.132	0.455
-334.260	-200.000	-0.046	-0.349
-333.245	-5.467	0.122	-0.083
-332.231	-82.874	0.160	0.051
-331.216	-62.211	-0.151	-0.063
-330.202	-200.000	0.072	-0.419
-329.187	-200.000	0.015	0.123
-328.172	639.288	-0.033	0.084
-327.158	-3.139	-0.205	0.142
-326.143	-200.000	-0.004	0.022
-325.129	-178.208	0.117	-0.003
-324.114	30.917	0.283	-0.242
-323.099	422.211	-0.052	0.111
-322.085	148.136	0.178	-0.238
-321.070	-97.757	-0.528	-0.136
-320.056	-200.000	-0.020	0.204
-319.041	-46.280	0.205	0.100
-318.026	504.833	0.155	-0.357
-317.012	-88.517	0.145	0.043
-315.997	261.463	-0.063	0.109
-314.983	-139.523	-0.138	0.015
-313.968	800.000	0.042	-0.181
-312.953	11.239	-0.231	0.176
-311.939	751.134	-0.051	0.137
-310.924	-200.000	0.018	0.096
-309.910	447.492	-0.117	0.257
-308.895	-200.000	0.002	-0.141
-307.880	317.139	-0.136	-0.257
-306.866	-200.000	-0.032	-0.148
-305.851	1.841	-0.194	0.139
-304.837	61.928	0.170	-0.169
-303.822	-128.536	0.142	0.020
-302.807	106.100	-0.115	-0.135
-301.793	-107.165	-0.343	0.075
-300.778	-200.000	0.027	0.133
-299.764	-15.907	-0.126	-0.080
-298.749	-200.000	0.004	0.147
-297.735	800.000	0.117	-0.344
-296.720	-99.341	0.186	0.047
-295.705	-200.000	0.194	0.001
-294.691	-75.152	-0.127	0.045
-293.676	-94.681	0.188	-0.051
-292.662	-138.649	0.523	-0.057
-291.647	-28.139	0.087	0.050
-290.632	800.000	0.106	-0.326
-289.618	-31.593	-0.184	-0.103
-288.603	122.387	0.186	-0.231
-287.589	800.000	0.027	-0.083
-286.574	-102.691	-0.133	0.032
-285.559	-161.387	-0.288	-0.015
-284.545	-121.938	0.087	0.014
-283.530	84.544	0.010	-0.010
-282.516	-115.258	-0.150	0.028
-281.501	10.270	0.181	0.137
-280.486	-96.240	-0.213	-0.056
-279.472	189.493	0.095	-0.141
-278.457	-33.932	-0.076	-0.041
-277.443	208.198	0.182	0.283
-276.428	-5.552	-0.360	-0.245
-275.413	800.000	-0.088	-0.364
-274.399	-33.652	0.291	0.160
-273.384	-93.051	0.246	0.068
-272.370	-200.000	-0.030	-0.141
-271.355	-200.000	0.034	-0.199
-270.340	-52.153	0.164	-0.076
-269.326	-121.926	-0.296	0.048
-268.311	387.688	-0.024	-0.049
-267.297	-97.935	0.493	0.126
-266.282	-55.910	-0.365	0.162
-265.267	-200.000	-0.028	0.137
-264.253	-113.668	-0.332	0.064
-263.238	-52.809	-0.291	-0.133
-262.224	603.805	-0.120	0.296
-261.209	66.951	0.106	0.107
-260.195	-39.070	0.359	-0.188
-259.180	31.809	-0.155	-0.132
-258.165	-12.162	0.304	0.198
-257.151	-12.116	-0.324	-0.211
-256.136	121.046	-0.172	-0.213
-255.122	-123.706	-0.225	0.035
-254.107	-91.150	-0.218	-0.062
-253.092	13.665	-0.319	-0.246
-252.078	-200.000	-0.005	-0.177
-251.063	-50.161	-0.169	0.079
-250.049	-135.081	0.133	-0.016
-249.034	800.000	-0.026	-0.093
-248.019	-15.070	-0.274	0.174
-247.005	-200.000	-0.068	-0.387
-245.990	-200.000	0.075	-0.443
-244.976	-72.940	-0.084	0.030
-243.961	-45.997	-0.474	0.232
-242.946	-20.128	0.047	0.029
-241.932	267.915	-0.081	-0.141
-240.917	136.699	-0.029	0.037
-239.903	790.030	0.126	-0.344
-238.888	-92.878	0.457	-0.127
-237.873	800.000	0.073	-0.255
-236.859	554.104	-0.059	-0.140
-235.844	-70.799	0.366	-0.137
-234.830	-109.464	0.028	-0.006
-233.815	-140.501	-0.440	0.045
-232.800	54.576	-0.083	-0.079
-231.786	-112.206	0.285	-0.057
-230.771	-125.713	-0.316	-0.047
-229.757	-48.239	0.090	0.043
-228.742	-200.000	0.016	-0.132
-227.727	-112.893	0.121	0.024
-226.713	-200.000	-0.025	0.160
-225.698	249.038	0.030	-0.051
-224.684	-200.000	-0.039	0.278
-223.669	-200.000	0.032	-0.336
-222.655	-56.974	-0.141	-0.062
-221.640	-150.766	-0.015	0.001
-220.625	654.877	-0.063	0.161
-219.611	-144.074	0.315	0.029
-218.596	-32.298	0.036	-0.020
-217.582	74.893	0.270	0.282
-216.567	104.156	-0.101	-0.117
-215.552	-149.952	-0.369	0.029
-214.538	-50.695	-0.247	0.115
-213.523	1.553	-0.153	0.109
-212.509	93.289	-0.152	-0.171
-211.494	-30.224	-0.229	0.129
-210.479	-7.968	0.203	-0.136
-209.465	800.000	-0.071	0.271
-208.450	-200.000	0.035	0.316
-207.436	120.252	-0.088	0.108
-206.421	-0.666	-0.227	0.160
-205.406	85.807	0.098	0.107
-204.392	-54.524	-0.195	-0.088
-203.377	-189.456	0.162	0.002
-202.363	-39.306	-0.235	0.122
-201.348	-200.000	-0.022	-0.367
-200.333	163.734	0.075	0.105
-199.319	88.317	-0.118	0.130
-198.304	800.000	0.015	-0.049
-197.290	-77.350	-0.056	-0.019
-196.275	-132.707	-0.259	-0.033
-195.260	-200.000	-0.026	-0.160
-194.246	779.063	-0.067	-0.183
-193.231	288.523	0.099	-0.177
-192.217	800.000	-0.030	0.084
-191.202	-4.874	0.284	-0.194
-190.187	-123.837	0.269	0.042
-189.173	226.430	-0.169	-0.272
-188.158	800.000	0.029	0.120
-187.144	-200.000	0.004	-0.121
-186.129	800.000	0.086	0.299
-185.114	273.011	-0.260	0.454
-184.100	-200.000	-0.001	-0.005
-183.085	800.000	-0.023	-0.065
-182.071	-32.046	0.137	0.076
-181.056	526.768	0.160	-0.372
-180.042	800.000	0.019	0.054
-179.027	721.210	-0.142	0.374
-178.012	742.539	0.112	0.297
-176.998	-56.081	-0.057	0.025
-175.983	-9.880	0.198	0.130
-174.969	-1.835	0.226	0.158
-173.954	-200.000	-0.020	-0.229
-172.939	800.000	0.043	0.121
-171.925	-120.705	-0.499	-0.084
-170.910	800.000	-0.082	-0.271
-169.896	797.089	-0.073	-0.200
-168.881	740.386	-0.106	-0.281
-167.866	-74.243	0.141	-0.051
-166.852	-190.858	0.276	-0.003
-165.837	25.733	0.244	-0.201
-164.823	41.808	0.114	-0.102
-163.808	-100.917	-0.115	-0.028
-162.793	-7.443	0.328	-0.220
-161.779	-24.093	-0.191	-0.113
-160.764	800.000	0.182	0.616
-159.750	67.288	0.222	-0.224
-158.735	-200.000	-0.007	-0.414
-157.720	800.000	0.076	-0.311
-156.706	-90.308	-0.145	0.042
-155.691	800.000	-0.041	0.139
-154.677	-50.607	-0.305	-0.142
-153.662	800.000	0.083	0.309
-152.647	51.303	0.123	0.115
-151.633	169.280	-0.046	0.064
-150.618	145.129	0.133	-0.176
-149.604	-10.726	-0.093	0.061
-148.589	15.427	-0.110	0.086
-147.574	724.970	-0.036	0.095
-146.560	374.172	-0.089	-0.180
-145.545	89.767	-0.219	0.242
-144.531	-200.000	0.034	0.304
-143.516	-137.721	0.227	-0.025
-142.502	-200.000	0.038	-0.171
-141.487	128.026	0.048	-0.060
-140.472	-58.050	0.387	-0.167
-139.458	563.350	0.064	0.152
-138.443	-162.036	-0.165	-0.008
-137.429	209.491	0.219	0.339
-136.414	29.247	0.190	0.159
-135.399	-93.744	0.217	-0.059
-134.385	800.000	-0.058	-0.170
-133.370	-200.000	-0.031	0.140
-132.356	243.089	-0.055	-0.091
-131.341	-11.019	0.167	-0.109
-130.326	-111.083	0.312	-0.063
-129.312	-35.795	-0.067	0.036
-128.297	-81.938	0.327	0.106
-127.283	800.000	0.047	0.154
-126.268	219.926	0.116	0.183
-125.253	545.384	0.054	0.127
-124.239	230.570	0.072	0.116
-123.224	722.238	0.106	0.279
-122.210	329.354	0.013	0.025
-121.195	-91.359	-0.124	0.035
-120.180	-12.457	0.241	-0.156
-119.166	-142.678	0.193	0.019
-118.151	142.263	0.255	0.334
-117.137	-113.295	0.244	0.047
-116.122	-200.000	0.049	-0.388
-115.107	-102.385	-0.297	-0.070
-114.093	100.726	-0.091	-0.105
-113.078	260.524	0.145	0.248
-112.064	-60.857	-0.074	0.031
-111.049	214.334	-0.077	0.120
-110.034	89.018	0.202	-0.222
-109.020	-48.633	-0.127	-0.060
-108.005	272.884	0.135	0.236
-106.991	-26.144	-0.201	0.117
-105.976	183.113	0.068	0.098
-104.962	-162.715	-0.220	-0.011
-103.947	-70.157	-0.144	0.054
-102.932	-148.699	-0.051	0.004
-101.918	800.000	-0.040	-0.128
-100.903	130.442	0.142	0.180
-99.889	-81.152	0.163	0.053
-98.874	226.302	0.091	0.145
-97.859	800.000	-0.034	0.096
-96.845	434.066	-0.091	-0.194
-95.830	-115.202	0.156	-0.029
-94.816	800.000	-0.169	0.562
-93.801	-200.000	0.007	-0.283
-92.786	800.000	0.111	0.458
-91.772	-200.000	-0.020	-0.272
-90.757	-200.000	-0.016	-0.195
-89.743	-119.065	-0.375	0.065
-88.728	438.272	0.122	-0.262
-87.713	131.077	-0.106	0.135
-86.699	229.952	0.036	0.058
-85.684	-107.091	0.172	-0.037
-84.670	-62.057	0.336	0.139
-83.655	-200.000	-0.000	0.041
-82.640	179.911	-0.190	-0.274
-81.626	-142.392	0.305	0.030
-80.611	-21.242	-0.085	0.051
-79.597	351.266	0.114	-0.223
-78.582	12.983	-0.184	-0.141
-77.567	-130.530	0.259	0.035
-76.553	800.000	-0.026	-0.079
-75.538	-200.000	-0.029	-0.153
-74.524	462.610	0.111	0.244
-73.509	61.473	0.151	-0.148
-72.494	509.583	0.132	-0.303
-71.480	-32.728	-0.167	-0.092
-70.465	-85.620	-0.294	-0.090
-69.451	-37.388	-0.152	-0.080
-68.436	-200.000	0.017	-0.233
-67.422	-200.000	0.047	0.240
-66.407	-33.362	0.097	-0.053
-65.392	-151.978	-0.055	0.004
-64.378	800.000	-0.038	0.157
-63.363	263.720	-0.085	0.146
-62.349	-200.000	0.034	0.249
-61.334	72.775	-0.969	-0.996
-60.319	-67.581	0.597	0.231
-59.305	-200.000	-0.176	-0.971
-58.290	280.662	0.569	1.003
-57.276	800.000	0.475	1.690
-56.261	-200.000	95.531	572.607
-55.246	648.798	1375.810	3467.333
-54.232	198.452	2548.311	3841.124
-53.217	119.349	2142.877	2612.701
-52.203	44.357	1606.789	1453.289
-51.188	36.272	1344.222	1167.109
-50.173	32.997	1301.974	1111.158
-49.159	54.725	1348.768	1281.567
-48.144	57.010	1365.529	1311.105
-47.130	36.370	1325.079	1150.893
-46.115	32.736	1307.940	1114.528
-45.100	32.753	1302.821	1110.222
-44.086	32.785	1299.782	1107.778
-43.071	32.660	1297.731	1105.253
-42.057	32.530	1296.334	1103.255
-41.042	32.638	1294.244	1102.069
-40.027	32.654	1292.883	1100.955
-39.013	32.636	1290.942	1099.154
-37.998	32.619	1289.370	1097.673
-36.984	32.733	1287.282	1096.516
-35.969	32.771	1285.316	1095.022
-34.954	32.783	1283.910	1093.846
-33.940	32.862	1282.221	1092.823
-32.925	32.799	1281.360	1091.684
-31.911	32.844	1280.106	1090.828
-30.896	32.890	1278.329	1089.540
-29.881	32.809	1276.862	1087.779
-28.867	32.939	1275.177	1087.048
-27.852	32.870	1273.929	1085.540
-26.838	32.861	1272.730	1084.424
-25.823	32.945	1271.240	1083.594
-24.809	32.911	1269.832	1082.157
-23.794	32.830	1268.800	1080.772
-22.779	32.812	1267.083	1079.162
-21.765	32.847	1265.754	1078.189
-20.750	32.818	1264.587	1076.988
-19.736	32.792	1263.809	1076.131
-18.721	32.726	1262.458	1074.565
-17.706	32.710	1261.532	1073.640
-16.692	32.706	1260.139	1072.389
-15.677	32.733	1259.309	1071.792
-14.663	32.599	1258.510	1070.311
-13.648	32.696	1256.768	1069.340
-12.633	32.613	1256.119	1068.269
-11.619	32.737	1255.033	1068.009
-10.604	32.718	1254.220	1067.168
-9.590	32.631	1253.116	1065.691
-8.575	32.621	1252.422	1065.003
-7.560	32.641	1251.595	1064.372
-6.546	32.622	1250.574	1063.351
-5.531	32.615	1249.814	1062.628
-4.517	32.678	1249.049	1062.287
-3.502	32.686	1248.172	1061.546
-2.487	32.594	1247.189	1060.147
-1.473	32.601	1243.458	1056.973
-0.458	31.237	1228.157	1036.360
0.556	26.937	1210.201	998.074
1.571	23.197	1215.942	982.010
2.586	22.215	1230.328	988.024
3.600	21.585	1219.195	975.487
4.615	16.479	1148.750	892.166
5.629	8.502	1074.397	794.826
6.644	4.854	1054.857	762.472
7.659	4.730	1052.447	760.055
8.673	4.705	1051.179	758.952
9.688	4.661	1050.159	757.935
10.702	4.813	1048.368	757.311
11.717	9.324	1054.740	783.879
12.731	16.668	1064.666	827.200
13.746	19.346	1067.002	842.039
14.761	18.593	1065.047	836.753
15.775	17.373	1063.584	829.581
16.790	16.355	1061.398	822.846
17.804	15.476	1060.034	817.441
18.819	15.269	1058.944	815.517
19.834	15.069	1058.107	813.831
20.848	14.821	1057.106	811.783
21.863	14.574	1056.198	809.814
22.877	14.576	1055.113	808.923
23.892	14.462	1054.787	808.046
24.907	14.444	1054.291	807.507
25.921	14.524	1052.875	806.738
26.936	14.568	1051.695	805.979
27.950	14.612	1050.175	804.954
28.965	14.597	1049.090	803.980
29.980	14.782	1047.339	803.454
30.994	14.804	1046.320	802.706
32.009	14.796	1045.632	802.070
33.023	14.782	1044.711	801.227
34.038	14.658	1043.211	799.413
35.053	14.497	1042.870	798.306
36.067	14.485	1042.058	797.559
37.082	14.577	1040.941	797.071
38.096	14.839	1039.993	797.525
39.111	14.751	1039.341	796.538
40.126	14.764	1037.523	795.135
41.140	14.329	1037.039	792.621
42.155	14.396	1035.637	791.801
43.169	14.354	1034.550	790.700
44.184	14.325	1033.588	789.760
45.199	14.474	1032.236	789.357
46.213	14.317	1031.672	788.115
47.228	14.574	1030.683	788.504
48.242	14.488	1029.569	787.180
49.257	14.577	1028.367	786.608
50.271	14.710	1027.576	786.559
51.286	14.777	1026.858	786.256
52.301	14.686	1025.835	784.974
53.315	14.640	1024.509	783.676
54.330	14.382	1024.124	782.101
55.344	14.488	1022.703	781.442
56.359	14.473	1022.217	780.930
57.374	14.402	1021.173	779.733
58.388	14.382	1019.968	778.653
59.403	14.333	1019.291	777.837
60.417	14.300	1018.859	777.282
61.432	14.361	1017.869	776.743
62.447	14.319	1016.801	775.667
63.461	14.208	1016.203	774.624
64.476	14.364	1015.346	774.627
65.490	14.231	1014.367	773.194
66.505	14.398	1013.825	773.486
67.520	14.389	1012.927	772.692
68.534	14.382	1012.551	772.306
69.549	14.304	1011.962	771.424
70.563	14.262	1011.101	770.507
71.578	14.168	1010.376	769.451
72.593	14.215	1008.980	768.539
73.607	14.216	1008.776	768.321
74.622	14.179	1008.411	767.802
75.636	14.263	1007.370	767.326
76.651	14.226	1007.018	766.822
77.666	14.159	1006.302	765.900
78.680	14.216	1005.565	765.533
79.695	14.307	1004.520	765.091
80.709	14.349	1004.185	764.960
81.724	14.376	1003.649	764.607
82.739	14.488	1002.930	764.504
83.753	14.619	1002.135	764.430
84.768	14.706	1001.349	764.163
85.782	14.735	1000.941	763.916
86.797	14.748	999.910	763.121
87.812	14.631	998.621	761.536
88.826	14.662	998.201	761.291
89.841	14.775	996.984	760.810
90.855	14.645	996.054	759.438
91.870	14.645	995.089	758.636
92.884	14.607	994.769	758.152
93.899	14.738	993.680	757.852
94.914	14.787	992.911	757.419
95.928	14.816	992.023	756.807
96.943	14.841	990.708	755.851
97.957	14.639	990.515	754.724
98.972	14.794	989.264	754.400
99.987	14.842	988.143	753.695
101.001	14.633	987.735	752.378
102.016	14.728	986.898	752.102
103.030	14.711	986.095	751.346
104.045	14.750	985.406	750.927
105.060	14.676	984.204	749.615
106.074	14.510	983.776	748.478
107.089	14.551	982.029	747.265
108.103	14.438	981.357	746.183
109.118	14.315	980.724	745.083
110.133	14.375	979.447	744.319
111.147	14.331	978.956	743.681
112.162	14.445	977.929	743.343
113.176	14.420	977.574	742.898
114.191	14.496	976.907	742.662
115.206	14.471	975.805	741.647
116.220	14.470	975.385	741.260
117.235	14.629	974.023	740.864
118.249	14.525	973.473	739.920
119.264	14.498	972.737	739.174
120.279	14.446	971.640	738.045
121.293	14.458	970.985	737.535
122.308	14.402	970.311	736.709
123.322	14.475	969.075	736.031
124.337	14.438	968.131	735.086
125.352	14.335	967.323	733.952
126.366	14.397	966.491	733.530
127.381	14.433	965.386	732.783
128.395	14.442	964.497	732.085
129.410	14.454	963.716	731.478
130.424	14.384	962.945	730.521
131.439	14.502	962.629	730.735
132.454	14.486	961.861	730.017
133.468	14.585	960.640	729.456
134.483	14.643	959.574	728.839
135.497	14.605	958.579	727.851
136.512	14.652	958.244	727.738
137.527	14.556	957.299	726.538
138.541	14.543	956.474	725.791
139.556	14.619	956.099	725.772
140.570	14.715	955.602	725.749
141.585	14.816	954.811	725.520
142.600	14.733	953.660	724.224
143.614	14.714	952.915	723.512
144.629	14.875	952.047	723.486
145.643	14.857	950.860	722.440
146.658	14.715	950.200	721.262
147.673	14.664	949.204	720.223
148.687	14.670	948.365	719.547
149.702	14.640	947.077	718.379
150.716	14.564	946.711	717.712
151.731	14.650	945.828	717.348
152.746	14.583	945.445	716.704
153.760	14.621	944.740	716.267
154.775	14.818	944.113	716.576
155.789	14.917	943.256	716.287
156.804	14.940	942.414	715.682
157.819	14.899	941.504	714.750
158.833	14.785	941.709	714.355
159.848	15.023	940.472	714.371
160.862	14.887	939.359	712.884
161.877	14.709	938.825	711.655
162.892	14.682	937.716	710.638
163.906	14.719	936.583	709.872
164.921	14.687	936.134	709.334
165.935	14.659	935.260	708.492
166.950	14.845	934.232	708.438
167.964	14.650	933.775	707.203
168.979	14.782	932.661	706.856
169.994	14.790	931.877	706.232
171.008	14.805	931.299	705.796
172.023	14.965	930.610	705.883
173.037	15.039	929.517	705.306
174.052	14.900	929.005	704.271
175.067	14.735	928.416	703.068
176.081	14.768	927.528	702.469
177.096	14.737	927.225	702.046
178.110	14.953	926.083	702.030
179.125	14.939	925.617	701.554
180.140	14.849	925.335	700.902
181.154	14.967	924.916	701.016
182.169	15.018	924.443	700.809
183.183	15.079	923.747	700.472
184.198	15.070	922.796	699.654
185.213	15.117	922.317	699.424
186.227	15.219	921.304	699.021
187.242	15.142	921.072	698.461
188.256	15.293	920.564	698.642
189.271	15.205	919.563	697.454
190.286	15.015	918.580	695.859
191.300	14.789	918.095	694.489
192.315	14.800	917.334	693.898
193.329	14.695	916.921	693.088
194.344	14.860	916.208	693.174
195.359	14.873	915.813	692.867
196.373	15.136	914.976	693.260
197.388	15.084	915.107	693.083
198.402	15.217	914.434	693.063
199.417	15.346	913.901	693.133
200.432	15.362	913.373	692.733
201.446	15.474	912.788	692.690
202.461	15.585	912.353	692.756
203.475	15.397	911.496	691.270
204.490	15.322	910.945	690.482
205.504	15.183	910.341	689.391
206.519	15.177	909.460	688.641
207.534	15.232	908.707	688.234
208.548	15.294	907.860	687.787
209.563	15.321	907.124	687.281
210.577	15.325	906.513	686.774
211.592	15.456	905.950	686.820
212.607	15.528	905.216	686.498
213.621	15.626	903.997	685.913
214.636	15.505	903.655	685.099
215.650	15.454	902.861	684.227
216.665	15.483	902.756	684.208
217.680	15.623	901.972	684.120
218.694	15.672	901.021	683.538
219.709	15.570	900.937	682.999
220.723	15.558	899.733	681.979
221.738	15.512	899.043	681.209
222.753	15.602	898.818	681.342
223.767	15.633	898.075	680.843
224.782	15.777	897.424	680.872
225.796	15.752	896.884	680.304
226.811	15.602	896.453	679.309
227.826	15.821	894.901	678.957
228.840	15.710	894.699	678.295
229.855	15.568	894.376	677.417
230.869	15.524	893.663	676.641
231.884	15.593	892.628	676.074
232.899	15.553	891.783	675.216
233.913	15.479	891.437	674.595
234.928	15.556	890.646	674.244
235.942	15.599	890.205	674.025
236.957	15.491	889.367	672.900
237.972	15.395	889.200	672.327
238.986	15.492	888.353	672.016
240.001	15.562	887.540	671.620
241.015	15.611	886.684	671.110
242.030	15.688	886.259	671.034
243.045	15.718	885.545	670.555
244.059	15.809	884.855	670.338
245.074	15.689	884.410	669.462
246.088	15.707	884.126	669.262
247.103	15.889	883.223	669.241
248.117	16.008	883.076	669.544
249.132	16.013	882.472	669.045
250.147	16.171	882.024	669.275
251.161	16.212	881.382	668.890
252.176	16.131	880.698	667.990
253.190	16.315	879.770	667.956
254.205	16.229	879.587	667.418
255.220	16.197	878.564	666.457
256.234	16.439	877.595	666.617
257.249	16.292	877.326	665.772
258.263	16.221	876.730	664.984
259.278	16.233	875.927	664.363
260.293	16.474	875.135	664.650
261.307	16.507	874.648	664.350
262.322	16.426	874.105	663.563
263.336	16.535	873.550	663.508
264.351	16.424	873.052	662.638
265.366	16.446	872.499	662.244
266.380	16.514	871.688	661.838
267.395	16.427	870.800	660.765
268.409	16.279	870.436	659.852
269.424	16.282	869.458	659.064
270.439	16.289	868.565	658.355
271.453	16.155	868.201	657.499
272.468	16.196	867.548	657.104
273.482	16.387	866.972	657.354
274.497	16.435	865.974	656.727
275.512	16.572	865.301	656.690
276.526	16.378	865.395	655.949
277.541	16.349	865.018	655.494
278.555	16.669	864.186	656.046
279.570	16.616	863.540	655.292
280.585	16.614	862.861	654.712
281.599	16.648	861.893	654.050
282.614	16.460	861.137	652.693
283.628	16.578	860.482	652.592
284.643	16.400	860.494	651.859
285.657	16.565	859.834	651.937
286.672	16.546	859.119	651.263
287.687	16.631	858.359	650.958
288.701	16.679	857.711	650.592
289.716	16.665	857.435	650.272
290.730	16.732	856.705	649.919
291.745	16.751	855.841	649.277
292.760	16.726	855.624	648.957
293.774	16.915	854.721	648.939
294.789	16.863	854.307	648.369
295.803	16.721	853.570	647.208
296.818	16.704	852.855	646.544
297.833	16.740	852.257	646.174
298.847	16.863	851.672	646.140
299.862	16.684	851.065	644.941
300.876	16.698	850.778	644.720
301.891	16.809	850.412	644.810
302.906	16.949	849.394	644.511
303.920	17.001	849.093	644.424
304.935	17.065	848.778	644.370
305.949	17.078	847.832	643.645
306.964	16.910	847.196	642.469
307.979	17.107	846.360	642.524
308.993	17.112	846.236	642.391
310.008	17.051	845.776	641.755
311.022	17.065	844.843	641.044
312.037	16.961	844.272	640.158
313.052	16.834	843.919	639.357
314.066	16.922	843.405	639.242
315.081	16.815	842.935	638.425
316.095	16.876	842.153	638.008
317.110	16.690	841.892	637.051
318.125	16.900	841.114	637.197
319.139	16.898	840.812	636.906
320.154	16.928	840.269	636.551
321.168	16.916	839.684	636.004
322.183	17.059	838.871	635.868
323.197	17.157	838.695	636.045
324.212	16.969	838.459	635.106
325.227	17.150	837.508	635.005
326.241	17.158	836.938	634.549
327.256	16.992	836.395	633.462
328.270	17.038	835.485	632.887
329.285	17.099	835.193	632.836
330.300	17.010	834.567	631.974
331.314	17.023	834.233	631.713
332.329	17.118	833.775	631.666
333.343	17.091	833.448	631.262
334.358	17.211	832.788	631.150
335.373	17.159	832.692	630.830
336.387	17.221	832.133	630.582
337.402	17.391	831.886	630.967
338.416	17.205	831.799	630.157
339.431	17.339	831.311	630.227
340.446	17.356	830.808	629.854
341.460	17.503	830.461	630.078
342.475	17.429	830.078	629.459
343.489	17.532	829.618	629.437
344.504	17.480	829.140	628.825
345.519	17.695	828.540	629.107
346.533	17.563	828.027	628.175
347.548	17.564	827.285	627.560
348.562	17.482	826.827	626.858
349.577	17.407	826.218	626.065
350.592	17.309	825.753	625.293
351.606	17.231	825.308	624.614
352.621	17.318	824.362	624.165
353.635	17.383	823.739	623.876
354.650	17.604	822.736	623.872
355.665	17.602	822.408	623.558
356.679	17.553	821.927	622.959
357.694	17.621	821.237	622.629
358.708	17.537	821.020	622.105
359.723	17.573	820.168	621.534
360.738	17.445	819.591	620.575
361.752	17.451	819.294	620.318
362.767	17.659	818.716	620.583
363.781	17.678	818.454	620.399
364.796	17.874	817.668	620.461
365.810	17.849	817.483	620.175
366.825	17.858	817.030	619.807
367.840	17.945	816.475	619.647
368.854	17.862	815.911	618.863
369.869	17.769	815.496	618.156
370.883	17.829	814.949	617.904
371.898	17.854	814.924	617.922
372.913	17.876	814.271	617.451
373.927	17.730	813.890	616.581
374.942	18.021	813.344	617.165
375.956	18.022	812.858	616.742
376.971	18.176	812.331	616.844
377.986	18.185	811.996	616.568
379.000	18.151	811.535	616.040
380.015	18.120	811.080	615.529
381.029	18.090	810.540	614.959
382.044	18.107	810.166	614.681
383.059	18.231	808.962	614.158
384.073	18.120	809.003	613.735
385.088	17.980	807.925	612.361
386.102	18.110	807.341	612.333
387.117	18.006	806.797	611.491
388.132	17.954	806.441	610.982
389.146	18.233	805.696	611.360
390.161	18.092	805.631	610.752
391.175	18.250	805.080	610.846
392.190	18.068	804.411	609.636
393.205	18.048	803.899	609.120
394.219	18.011	803.695	608.782
395.234	18.079	803.056	608.485
396.248	18.225	802.532	608.555
397.263	17.864	802.584	607.255
398.278	17.981	801.833	607.049
399.292	18.078	801.218	606.874
400.307	18.114	800.802	606.633
401.321	18.011	800.704	606.139
402.336	18.182	800.080	606.218
403.350	18.093	799.510	605.418
404.365	18.166	799.310	605.472
405.380	18.301	798.932	605.609
406.394	18.424	798.050	605.322
407.409	18.505	798.082	605.578
408.423	18.578	797.603	605.420
409.438	18.501	797.380	604.927
410.453	18.663	796.576	604.833
411.467	18.429	796.523	603.916
412.482	18.662	795.890	604.202
413.496	18.642	795.622	603.876
414.511	18.648	795.389	603.665
415.526	18.635	794.903	603.196
416.540	18.694	794.306	602.897
417.555	18.566	793.576	601.841
418.569	18.631	793.399	601.883
419.584	18.599	792.909	601.346
420.599	18.736	792.869	601.741
421.613	156.410	1371.140	1794.251
422.628	135.375	1455.395	1794.370
