DTS Sentinel unit serial number:	SN413079Multiplexer serial number:	ORYXHardware model number:	OX4-SRSoftware version number:	ORYX F/W v4.00 Oryx Data Collector v3.7.2.0data status	okinstallation	princeton_trtdifferential loss correction	single-endedforward channel	channel 1reverse channel	N/Adate	2019/09/13time	09:14:35forward acquisition time	60.00reverse acquisition time	0.00gamma	496.2192k internal	0.2325k external	0.2325temperature offset calibration	1.0159default loss term (dB/km)	0.3790temperature slope calibration	1.0000multiplexer offset coefficient	1.0000multiplexer slope coefficient	1.0000fibre end	0.00T internal ref (°C)	28.94T ext. ref 1 (°C)	4.39T ext. ref 2 (°C)	26.32length (m)	temperature (°C)	Stokes	anti-Stokes-747.200	-8.208	-0.248	0.169
-746.185	126.176	0.149	0.191
-745.171	-100.410	0.130	-0.033
-744.156	-200.000	-0.040	0.232
-743.142	800.000	-0.034	-0.152
-742.127	-200.000	0.009	-0.139
-741.112	97.988	0.107	0.124
-740.098	197.080	-0.258	0.396
-739.083	-81.444	0.095	-0.032
-738.069	58.328	-0.168	0.166
-737.054	712.631	-0.043	0.116
-736.039	800.000	-0.074	-0.206
-735.025	47.222	-0.087	0.082
-734.010	17.556	0.055	-0.044
-732.996	381.704	-0.026	-0.054
-731.981	549.499	-0.066	0.160
-730.966	377.308	0.013	-0.027
-729.952	569.553	-0.054	0.132
-728.937	-17.516	-0.311	0.197
-727.923	75.951	-0.283	0.302
-726.908	112.401	0.236	-0.288
-725.894	-87.679	-0.124	-0.038
-724.879	-149.228	-0.325	-0.026
-723.864	-122.290	-0.064	-0.011
-722.850	-7.200	0.152	-0.104
-721.835	-32.949	0.141	0.079
-720.821	345.276	-0.092	-0.182
-719.806	-159.671	-0.035	0.002
-718.791	-112.551	-0.224	-0.045
-717.777	-84.543	0.507	-0.161
-716.762	800.000	0.051	0.224
-715.748	485.085	-0.090	-0.206
-714.733	145.066	0.073	0.098
-713.718	-200.000	-0.021	-0.232
-712.704	-200.000	-0.052	0.236
-711.689	114.449	0.045	-0.055
-710.675	-200.000	-0.020	-0.267
-709.660	11.647	0.098	-0.076
-708.645	-59.868	-0.245	0.106
-707.631	173.384	0.267	-0.387
-706.616	-67.282	0.161	0.064
-705.602	-46.447	-0.180	0.089
-704.587	45.027	0.204	-0.190
-703.572	-28.965	0.251	-0.145
-702.558	-14.617	0.033	-0.022
-701.543	-64.345	-0.122	-0.050
-700.529	-14.499	0.432	0.280
-699.514	489.190	-0.074	0.171
-698.499	-23.177	-0.253	-0.153
-697.485	-200.000	0.020	0.194
-696.470	-200.000	0.053	0.287
-695.456	210.646	-0.054	0.086
-694.441	-50.542	-0.287	0.136
-693.426	-123.017	-0.392	0.063
-692.412	461.519	-0.130	-0.293
-691.397	203.243	0.041	0.064
-690.383	263.480	-0.125	0.219
-689.368	-63.250	0.203	0.084
-688.354	-188.805	-0.198	-0.002
-687.339	-19.632	0.346	0.216
-686.324	8.051	-0.141	-0.106
-685.310	-200.000	-0.015	-0.280
-684.295	-200.000	0.005	-0.216
-683.281	-200.000	-0.013	-0.182
-682.266	800.000	-0.062	-0.226
-681.251	-200.000	0.055	0.276
-680.237	800.000	0.053	-0.152
-679.222	305.627	0.168	-0.315
-678.208	-200.000	-0.025	0.153
-677.193	-125.452	-0.131	-0.020
-676.178	-105.032	-0.282	0.065
-675.164	800.000	-0.050	0.139
-674.149	-93.358	-0.332	0.093
-673.135	54.957	0.086	0.083
-672.120	-70.722	-0.344	-0.131
-671.105	800.000	-0.045	0.129
-670.091	-18.207	0.234	-0.147
-669.076	-48.627	-0.095	0.046
-668.062	-200.000	-0.013	-0.063
-667.047	-200.000	-0.022	0.200
-666.032	94.377	-0.054	0.062
-665.018	-200.000	-0.006	0.125
-664.003	-55.354	0.258	-0.117
-662.989	478.714	0.034	-0.078
-661.974	-166.715	0.041	-0.002
-660.959	-89.708	0.321	-0.095
-659.945	-188.314	0.180	-0.002
-658.930	720.725	0.026	-0.071
-657.916	-114.547	0.381	0.073
-656.901	122.238	0.136	-0.171
-655.886	-75.317	-0.165	0.059
-654.872	-147.945	0.094	0.008
-653.857	559.156	-0.052	0.126
-652.843	-154.832	0.250	-0.017
-651.828	800.000	-0.059	0.164
-650.814	800.000	0.071	-0.224
-649.799	-77.778	0.315	-0.109
-648.784	-200.000	-0.038	-0.482
-647.770	-200.000	-0.016	-0.428
-646.755	-1.711	-0.229	0.162
-645.741	152.597	0.088	-0.120
-644.726	800.000	0.037	-0.105
-643.711	2.471	-0.109	-0.079
-642.697	-28.266	-0.184	0.107
-641.682	-200.000	0.005	0.073
-640.668	-137.788	-0.148	0.017
-639.653	-97.419	0.311	-0.081
-638.638	82.718	0.224	-0.244
-637.624	-3.100	-0.077	-0.054
-636.609	-133.607	-0.098	-0.012
-635.595	536.050	0.203	-0.484
-634.580	42.015	-0.273	-0.249
-633.565	-9.799	-0.099	-0.066
-632.551	46.792	0.184	-0.172
-631.536	-200.000	-0.005	0.308
-630.522	-132.778	0.494	-0.063
-629.507	-85.326	0.315	0.099
-628.492	86.068	0.241	0.267
-627.478	50.402	0.088	0.083
-626.463	-200.000	-0.252	0.000
-625.449	63.409	0.124	0.125
-624.434	153.456	0.149	-0.205
-623.419	134.686	0.014	0.018
-622.405	800.000	0.137	-0.429
-621.390	491.354	-0.112	-0.258
-620.376	132.557	-0.059	-0.077
-619.361	-200.000	-0.005	0.223
-618.346	-167.234	0.208	-0.008
-617.332	139.463	0.085	0.112
-616.317	-200.000	0.031	0.259
-615.303	-59.744	-0.258	-0.111
-614.288	-74.353	-0.056	-0.020
-613.273	-200.000	-0.023	0.227
-612.259	181.876	0.104	-0.153
-611.244	70.049	0.083	0.086
-610.230	2.412	0.019	0.014
-609.215	-43.025	-0.176	-0.089
-608.201	-65.094	-0.402	0.163
-607.186	149.057	0.188	0.255
-606.171	342.060	-0.171	-0.336
-605.157	29.053	0.346	-0.295
-604.142	-200.000	0.017	-0.123
-603.128	800.000	0.114	-0.339
-602.113	115.597	0.063	0.077
-601.098	-53.487	-0.130	0.059
-600.084	461.702	0.020	0.045
-599.069	800.000	0.050	0.204
-598.055	-200.000	0.016	-0.106
-597.040	151.055	-0.191	0.260
-596.025	-200.000	-0.016	0.138
-595.011	-151.566	0.099	0.007
-593.996	-119.183	-0.115	0.020
-592.982	-16.235	0.335	-0.213
-591.967	265.888	0.061	0.107
-590.952	-200.000	-0.033	0.164
-589.938	-96.479	-0.397	-0.105
-588.923	328.417	0.093	-0.180
-587.909	260.279	0.193	-0.334
-586.894	-41.115	0.345	-0.179
-585.879	476.258	-0.016	-0.035
-584.865	-27.241	-0.320	-0.187
-583.850	361.980	-0.106	-0.214
-582.836	-200.000	-0.023	0.550
-581.821	-76.904	-0.217	0.076
-580.806	-84.743	-0.190	0.060
-579.792	2.283	0.200	0.145
-578.777	-121.980	0.148	0.024
-577.763	-200.000	0.002	0.011
-576.748	125.965	-0.171	-0.217
-575.733	561.732	-0.078	0.189
-574.719	74.633	-0.055	0.058
-573.704	800.000	-0.059	-0.253
-572.690	87.085	-0.109	0.121
-571.675	-29.526	0.104	0.059
-570.661	176.810	0.125	0.182
-569.646	-200.000	0.016	0.101
-568.631	788.609	-0.017	-0.046
-567.617	135.980	-0.215	-0.280
-566.602	-200.000	-0.044	0.321
-565.588	366.936	-0.027	-0.055
-564.573	-38.796	0.127	-0.067
-563.558	-29.735	-0.337	-0.193
-562.544	-11.663	0.080	-0.053
-561.529	800.000	0.053	0.224
-560.515	-200.000	-0.048	0.274
-559.500	73.806	0.031	0.033
-558.485	-158.008	-0.346	-0.020
-557.471	267.249	-0.010	-0.018
-556.456	365.062	0.174	0.351
-555.442	-200.000	-0.002	0.068
-554.427	-200.000	-0.002	0.012
-553.412	-200.000	0.059	-0.321
-552.398	-154.058	-0.221	-0.015
-551.383	244.491	0.176	0.296
-550.369	29.060	-0.117	-0.100
-549.354	-96.687	0.169	0.045
-548.339	-200.000	-0.003	-0.149
-547.325	225.027	-0.102	0.165
-546.310	-200.000	-0.007	-0.263
-545.296	-148.353	0.376	0.031
-544.281	-19.481	-0.384	-0.238
-543.266	-105.415	-0.256	0.058
-542.252	226.890	0.086	-0.139
-541.237	43.230	0.233	0.213
-540.223	-35.305	0.167	0.091
-539.208	-98.635	-0.306	-0.078
-538.193	-85.071	0.422	0.132
-537.179	104.457	0.154	0.182
-536.164	82.158	-0.178	-0.193
-535.150	55.469	-0.130	-0.126
-534.135	26.655	0.172	-0.144
-533.121	-200.000	-0.033	-0.153
-532.106	384.639	-0.056	-0.116
-531.091	-200.000	-0.014	-0.253
-530.077	-132.596	0.078	0.010
-529.062	-117.446	0.198	-0.036
-528.048	24.464	-0.066	-0.055
-527.033	496.541	0.124	-0.285
-526.018	-200.000	-0.018	0.218
-525.004	81.579	-0.097	0.105
-523.989	-200.000	0.023	0.216
-522.975	800.000	-0.004	-0.015
-521.960	139.319	-0.173	0.228
-520.945	800.000	0.066	0.222
-519.931	800.000	0.058	0.203
-518.916	44.336	0.117	-0.108
-517.902	78.004	0.044	-0.047
-516.887	-12.656	-0.097	0.063
-515.872	-105.036	0.247	-0.056
-514.858	36.001	0.184	-0.162
-513.843	509.495	-0.074	-0.171
-512.829	449.964	-0.089	0.196
-511.814	398.371	-0.201	0.420
-510.799	-60.902	-0.257	0.109
-509.785	800.000	-0.045	-0.130
-508.770	800.000	-0.141	-0.407
-507.756	-63.836	0.259	0.106
-506.741	-25.401	0.308	-0.182
-505.726	-200.000	-0.001	-0.276
-504.712	-69.846	0.209	0.080
-503.697	-200.000	-0.034	0.181
-502.683	-57.551	0.318	-0.139
-501.668	-132.480	0.247	0.032
-500.653	88.185	-0.198	0.220
-499.639	250.219	-0.196	0.333
-498.624	-120.194	-0.302	-0.052
-497.610	32.656	0.173	0.149
-496.595	-104.655	-0.139	-0.032
-495.581	-160.727	-0.329	-0.017
-494.566	67.157	0.235	-0.239
-493.551	-2.153	0.276	-0.194
-492.537	-75.341	0.136	-0.049
-491.522	-200.000	0.014	0.223
-490.508	-200.000	0.008	0.059
-489.493	-102.738	-0.074	-0.018
-488.478	-60.591	0.262	-0.111
-487.464	800.000	0.066	0.241
-486.449	95.227	0.050	0.057
-485.435	99.217	0.082	-0.094
-484.420	473.632	-0.083	0.186
-483.405	-53.268	0.250	0.115
-482.391	-139.668	0.177	-0.019
-481.376	101.221	-0.175	-0.204
-480.362	497.215	-0.154	0.355
-479.347	162.031	-0.112	-0.157
-478.332	-15.922	-0.168	0.107
-477.318	800.000	0.101	-0.397
-476.303	150.505	0.048	0.065
-475.289	141.541	-0.074	0.098
-474.274	318.975	0.077	-0.147
-473.259	-200.000	0.041	-0.448
-472.245	130.945	0.151	0.194
-471.230	0.699	-0.018	0.013
-470.216	-118.371	-0.197	-0.035
-469.201	400.520	-0.098	0.205
-468.186	216.872	0.013	0.021
-467.172	332.162	0.082	-0.158
-466.157	57.583	0.220	0.214
-465.143	-122.044	-0.176	0.029
-464.128	-104.603	0.533	0.123
-463.113	800.000	0.018	-0.061
-462.099	-151.713	0.386	0.028
-461.084	102.040	0.148	-0.172
-460.070	-121.658	-0.158	-0.026
-459.055	218.372	0.111	0.176
-458.040	-200.000	0.020	0.159
-457.026	-63.472	-0.397	-0.163
-456.011	160.892	-0.015	0.021
-454.997	-35.846	0.411	0.222
-453.982	-137.749	0.449	-0.050
-452.968	-200.000	-0.007	-0.196
-451.953	72.020	-0.197	-0.205
-450.938	-121.953	-0.128	-0.021
-449.924	-96.090	-0.123	0.033
-448.909	-200.000	-0.044	0.297
-447.895	-123.312	0.246	-0.039
-446.880	117.864	0.127	0.156
-445.865	800.000	-0.038	0.115
-444.851	42.542	-0.184	-0.167
-443.836	37.564	0.271	-0.240
-442.822	181.848	-0.117	-0.172
-441.807	-100.633	-0.019	0.005
-440.792	619.226	0.107	0.269
-439.778	-78.276	-0.242	0.083
-438.763	-116.365	-0.210	-0.039
-437.749	800.000	0.028	0.094
-436.734	-32.409	0.205	0.114
-435.719	-107.186	-0.263	-0.058
-434.705	16.092	-0.135	0.106
-433.690	105.457	-0.094	0.111
-432.676	-200.000	-0.086	0.416
-431.661	27.870	-0.177	0.149
-430.646	-200.000	0.033	0.190
-429.632	-34.799	-0.425	0.231
-428.617	-25.090	0.273	0.161
-427.603	-118.568	0.339	-0.060
-426.588	-141.385	0.135	0.014
-425.573	-27.299	0.121	0.070
-424.559	6.854	-0.255	0.189
-423.544	6.059	0.197	0.145
-422.530	-183.673	-0.293	0.005
-421.515	168.502	-0.093	-0.132
-420.500	-104.623	-0.203	0.047
-419.486	-200.000	-0.029	0.280
-418.471	800.000	-0.068	0.207
-417.457	800.000	0.050	-0.172
-416.442	240.655	-0.220	-0.365
-415.428	147.571	-0.115	0.155
-414.413	180.884	0.202	-0.296
-413.398	290.492	-0.154	-0.279
-412.384	-27.434	0.084	-0.048
-411.369	3.182	-0.079	0.057
-410.355	-6.280	-0.256	-0.174
-409.340	314.595	-0.082	0.154
-408.325	-191.208	-0.209	-0.002
-407.311	-44.751	-0.086	-0.043
-406.296	48.783	0.178	0.166
-405.282	-200.000	-0.011	-0.198
-404.267	-200.000	0.020	0.318
-403.252	101.263	0.146	-0.169
-402.238	800.000	-0.063	0.258
-401.223	-200.000	-0.007	-0.170
-400.209	-39.815	0.141	-0.074
-399.194	-16.841	0.158	-0.099
-398.179	-50.461	-0.356	0.167
-397.165	221.261	-0.252	0.402
-396.150	-79.870	-0.278	0.093
-395.136	18.290	-0.326	0.259
-394.121	722.425	0.031	-0.083
-393.106	162.042	-0.207	0.289
-392.092	-130.191	0.334	0.045
-391.077	-200.000	0.009	0.455
-390.063	-86.755	0.092	0.028
-389.048	27.979	0.114	-0.096
-388.033	297.376	-0.083	-0.151
-387.019	-151.427	-0.365	-0.027
-386.004	800.000	0.021	0.077
-384.990	-200.000	0.034	-0.302
-383.975	87.297	0.071	0.078
-382.960	274.035	-0.181	-0.318
-381.946	161.300	-0.085	-0.119
-380.931	-200.000	-0.009	0.076
-379.917	7.423	0.051	-0.038
-378.902	71.700	0.297	-0.307
-377.888	673.652	-0.084	-0.216
-376.873	294.807	0.111	0.201
-375.858	493.470	-0.102	0.233
-374.844	153.996	0.134	0.183
-373.829	800.000	-0.076	-0.309
-372.815	-24.990	-0.152	-0.090
-371.800	-161.552	-0.272	0.014
-370.785	-200.000	0.001	-0.143
-369.771	-105.291	-0.130	-0.029
-368.756	206.392	-0.113	-0.174
-367.742	-200.000	-0.186	0.001
-366.727	10.636	-0.237	-0.180
-365.712	6.068	0.183	-0.135
-364.698	-105.069	-0.199	-0.045
-363.683	-200.000	0.001	0.111
-362.669	-39.401	-0.181	0.094
-361.654	-200.000	-0.048	-0.264
-360.639	14.232	-0.353	0.274
-359.625	169.522	-0.224	0.318
-358.610	168.489	0.118	0.168
-357.596	800.000	0.067	-0.187
-356.581	-60.445	-0.255	-0.108
-355.566	774.523	0.189	0.512
-354.552	19.393	0.104	0.083
-353.537	-200.000	-0.056	0.302
-352.523	-159.547	-0.051	0.003
-351.508	301.333	0.083	-0.152
-350.493	22.088	-0.266	-0.215
-349.479	370.956	-0.066	-0.132
-348.464	-42.572	-0.066	-0.034
-347.450	800.000	-0.014	-0.057
-346.435	-125.246	0.310	-0.047
-345.420	332.243	-0.033	-0.064
-344.406	88.485	-0.150	0.166
-343.391	-122.313	0.056	-0.009
-342.377	800.000	0.100	-0.336
-341.362	-37.441	0.108	0.057
-340.348	-109.108	-0.056	0.012
-339.333	-72.687	0.255	-0.093
-338.318	800.000	-0.149	-0.538
-337.304	15.980	-0.134	-0.104
-336.289	71.386	0.089	-0.092
-335.275	-52.935	-0.279	-0.128
-334.260	46.529	-0.112	0.103
-333.245	-200.000	0.033	-0.238
-332.231	-35.953	0.103	-0.055
-331.216	333.083	-0.129	-0.247
-330.202	-200.000	0.023	-0.258
-329.187	-45.178	0.131	-0.064
-328.172	432.888	-0.125	-0.268
-327.158	-42.786	0.150	-0.076
-326.143	800.000	0.030	0.127
-325.129	-3.188	-0.070	0.049
-324.114	-27.783	0.160	-0.092
-323.099	246.984	-0.075	0.126
-322.085	-71.750	0.398	-0.147
-321.070	-114.411	-0.310	-0.059
-320.056	10.257	0.143	-0.108
-319.041	800.000	0.139	-0.385
-318.026	429.352	-0.051	-0.110
-317.012	27.810	0.171	0.143
-315.997	56.988	0.232	0.224
-314.983	-167.751	-0.176	0.007
-313.968	-55.015	0.518	0.231
-312.953	800.000	-0.033	-0.128
-311.939	53.838	0.084	-0.080
-310.924	-148.133	0.432	0.035
-309.910	244.265	-0.041	0.069
-308.895	-1.376	-0.178	-0.125
-307.880	-200.000	-0.028	-0.169
-306.866	-200.000	0.007	-0.201
-305.851	61.466	-0.014	0.014
-304.837	800.000	-0.036	0.110
-303.822	68.473	0.021	-0.021
-302.807	-0.509	-0.168	0.119
-301.793	-33.198	-0.139	-0.076
-300.778	35.851	-0.063	-0.055
-299.764	141.107	-0.239	-0.313
-298.749	-86.656	0.282	-0.086
-297.735	-45.547	-0.133	0.065
-296.720	228.682	0.151	0.245
-295.705	-88.399	-0.263	-0.078
-294.691	-161.902	0.306	-0.015
-293.676	800.000	0.012	-0.042
-292.662	252.873	0.117	-0.198
-291.647	14.036	-0.323	-0.250
-290.632	23.722	-0.108	-0.088
-289.618	-67.956	0.091	0.035
-288.603	497.554	0.050	-0.114
-287.589	123.140	0.188	0.233
-286.574	346.652	0.081	0.159
-285.559	-96.642	-0.101	0.026
-284.545	800.000	-0.018	0.065
-283.530	40.294	-0.352	0.314
-282.516	800.000	0.042	-0.165
-281.501	38.931	0.058	-0.051
-280.486	-91.517	-0.206	0.058
-279.472	246.307	-0.165	0.276
-278.457	278.322	0.197	0.348
-277.443	800.000	0.134	0.558
-276.428	6.208	0.092	-0.068
-275.413	25.095	0.176	-0.145
-274.399	48.205	0.073	0.067
-273.384	361.107	-0.117	-0.232
-272.370	443.566	0.101	-0.218
-271.355	-15.605	0.174	0.110
-270.340	-64.393	-0.295	-0.119
-269.326	800.000	0.100	0.434
-268.311	-114.506	0.175	0.033
-267.297	58.305	0.024	-0.023
-266.282	-200.000	0.013	0.344
-265.267	800.000	-0.092	-0.348
-264.253	-78.874	-0.392	-0.132
-263.238	800.000	0.082	0.246
-262.224	800.000	-0.073	0.211
-261.209	-42.944	-0.024	0.012
-260.195	37.658	-0.052	0.046
-259.180	231.133	-0.065	0.106
-258.165	59.235	0.241	-0.235
-257.151	-90.204	-0.013	-0.004
-256.136	-166.541	-0.204	0.008
-255.122	-112.373	-0.104	0.021
-254.107	-200.000	0.013	-0.429
-253.092	-77.055	-0.186	0.064
-252.078	-200.000	0.006	0.038
-251.063	75.267	-0.029	-0.030
-250.049	1.298	-0.257	0.183
-249.034	277.767	0.242	0.427
-248.019	132.300	-0.023	-0.029
-247.005	-143.935	0.217	-0.020
-245.990	206.917	-0.050	-0.077
-244.976	106.322	0.110	0.129
-243.961	357.338	0.175	0.345
-242.946	-154.114	-0.117	-0.008
-241.932	540.970	-0.075	-0.177
-240.917	154.209	-0.049	0.066
-239.903	58.221	-0.199	0.193
-238.888	332.740	-0.026	0.050
-237.873	-200.000	0.090	-0.400
-236.859	800.000	0.025	0.072
-235.844	-200.000	-0.012	0.133
-234.830	335.780	0.180	0.345
-233.815	42.984	0.080	-0.073
-232.800	-102.063	0.080	0.019
-231.786	375.398	0.144	0.290
-230.771	-64.498	-0.044	-0.018
-229.757	80.637	0.158	0.169
-228.742	-54.922	0.276	0.123
-227.727	4.382	0.325	-0.236
-226.713	800.000	0.025	-0.090
-225.698	-200.000	-0.003	0.084
-224.684	465.218	-0.177	0.392
-223.669	-67.744	-0.319	0.123
-222.655	15.337	0.237	-0.183
-221.640	-200.000	0.096	0.438
-220.625	-88.520	-0.273	-0.080
-219.611	-158.090	0.219	0.013
-218.596	59.084	0.111	0.108
-217.582	-103.902	-0.259	0.060
-216.567	233.899	0.088	0.143
-215.552	-178.585	0.213	0.005
-214.538	-115.505	-0.172	-0.032
-213.523	-51.733	-0.245	-0.113
-212.509	800.000	-0.043	0.124
-211.494	3.045	-0.165	-0.118
-210.479	-31.413	0.203	0.113
-209.465	-140.134	-0.251	-0.026
-208.450	-8.273	-0.129	0.086
-207.436	-187.211	0.126	-0.002
-206.421	485.699	-0.109	-0.245
-205.406	-181.063	0.371	-0.007
-204.392	-24.249	-0.212	-0.125
-203.377	48.715	-0.173	0.160
-202.363	-102.637	0.455	0.107
-201.348	-113.256	-0.284	-0.055
-200.333	-200.000	0.061	0.368
-199.319	721.703	0.132	-0.346
-198.304	420.076	-0.078	0.164
-197.290	73.099	-0.194	0.200
-196.275	-40.129	0.147	0.076
-195.260	303.393	-0.049	0.090
-194.246	788.508	-0.060	-0.164
-193.231	-200.000	0.006	0.207
-192.217	800.000	0.131	-0.366
-191.202	145.954	0.117	-0.155
-190.187	174.719	-0.072	-0.103
-189.173	-136.789	0.026	0.003
-188.158	273.244	-0.082	0.143
-187.144	-138.552	0.373	0.040
-186.129	18.488	0.066	0.052
-185.114	-154.882	-0.350	0.023
-184.100	-14.846	-0.179	0.113
-183.085	192.938	-0.113	0.168
-182.071	800.000	-0.019	0.066
-181.056	46.205	0.453	-0.414
-180.042	17.081	0.033	0.026
-179.027	-58.926	-0.102	0.044
-178.012	-106.001	0.319	-0.071
-176.998	670.532	0.101	0.258
-175.983	238.707	-0.145	0.238
-174.969	12.261	0.236	-0.180
-173.954	-41.987	0.242	-0.122
-172.939	66.364	-0.245	-0.246
-171.925	343.460	-0.030	0.059
-170.910	-200.000	-0.040	0.247
-169.896	164.441	-0.126	0.176
-168.881	-31.388	-0.338	-0.187
-167.866	300.179	-0.070	0.128
-166.852	-37.195	0.171	0.090
-165.837	213.113	-0.149	-0.232
-164.823	-200.000	-0.037	-0.196
-163.808	-120.852	-0.140	0.023
-162.793	-159.733	0.195	-0.011
-161.779	-113.901	0.163	-0.031
-160.764	800.000	0.038	-0.149
-159.750	-127.726	-0.167	-0.024
-158.735	-124.269	-0.376	0.058
-157.720	-47.363	-0.361	0.173
-156.706	58.877	0.030	-0.029
-155.691	-109.448	0.294	-0.061
-154.677	90.606	0.071	-0.078
-153.662	-8.255	0.266	-0.176
-152.647	710.489	0.097	-0.252
-151.633	139.841	0.241	-0.314
-150.618	-200.000	0.015	-0.100
-149.604	741.099	0.093	0.246
-148.589	128.300	-0.183	-0.230
-147.574	-200.000	-0.048	0.395
-146.560	23.201	-0.112	0.091
-145.545	-200.000	-0.006	0.234
-144.531	25.828	0.051	0.042
-143.516	-57.885	0.365	-0.157
-142.502	-200.000	-0.061	-0.275
-141.487	469.418	-0.087	0.193
-140.472	183.816	0.237	0.345
-139.458	178.733	0.115	0.166
-138.443	-166.992	0.127	-0.005
-137.429	-71.063	0.065	0.024
-136.414	-106.529	0.179	-0.039
-135.399	17.021	-0.333	0.260
-134.385	800.000	0.066	0.185
-133.370	-200.000	0.039	-0.225
-132.356	645.707	0.022	0.055
-131.341	11.236	0.239	0.180
-130.326	-200.000	-0.019	-0.329
-129.312	-200.000	-0.021	0.180
-128.297	-39.345	0.335	0.173
-127.283	20.903	0.098	-0.079
-126.268	-32.347	-0.160	0.088
-125.253	800.000	0.156	0.496
-124.239	-108.579	0.360	-0.076
-123.224	800.000	-0.036	-0.141
-122.210	-104.733	-0.271	-0.062
-121.195	-107.374	0.259	-0.056
-120.180	308.937	-0.107	0.196
-119.166	85.682	0.169	0.183
-118.151	-8.865	0.028	-0.019
-117.137	800.000	-0.012	-0.052
-116.122	-139.662	0.249	0.026
-115.107	-200.000	-0.009	-0.086
-114.093	-89.240	-0.203	-0.059
-113.078	-8.267	-0.346	-0.229
-112.064	30.290	0.176	0.148
-111.049	397.373	0.064	-0.132
-110.034	-108.675	0.218	0.046
-109.020	800.000	-0.062	0.178
-108.005	136.385	-0.123	0.157
-106.991	-56.496	-0.273	0.119
-105.976	800.000	0.063	0.240
-104.962	91.451	-0.185	0.205
-103.947	131.830	-0.224	-0.284
-102.932	234.710	0.054	0.087
-101.918	-91.096	0.374	0.106
-100.903	760.002	-0.136	0.364
-99.889	-20.425	0.189	-0.114
-98.874	800.000	-0.079	0.228
-97.859	-48.737	0.120	-0.057
-96.845	70.892	0.083	0.085
-95.830	81.447	0.255	0.271
-94.816	70.678	-0.239	0.243
-93.801	-42.316	-0.130	0.065
-92.786	-200.000	-0.012	-0.122
-91.772	800.000	-0.077	-0.217
-90.757	800.000	0.047	-0.195
-89.743	108.731	-0.194	0.228
-88.728	49.351	0.065	-0.060
-87.713	144.176	-0.199	0.262
-86.699	640.933	0.187	-0.469
-85.684	-135.387	0.453	-0.053
-84.670	-127.578	0.423	0.060
-83.655	-51.054	-0.188	0.087
-82.640	-200.000	0.005	-0.235
-81.626	-11.878	-0.359	-0.231
-80.611	29.030	0.083	-0.069
-79.597	76.349	0.104	0.109
-78.582	-200.000	0.009	-0.254
-77.567	-117.762	-0.078	-0.014
-76.553	-139.166	-0.317	-0.034
-75.538	-1.585	0.140	0.097
-74.524	-200.000	0.016	0.257
-73.509	-60.410	0.167	-0.070
-72.494	-39.268	0.173	-0.089
-71.480	-128.527	0.115	0.016
-70.465	-29.038	0.044	0.025
-69.451	212.974	-0.270	-0.418
-68.436	209.362	0.125	0.193
-67.422	-105.831	0.310	0.069
-66.407	102.335	-0.124	0.142
-65.392	77.240	0.036	-0.038
-64.378	53.094	-0.118	0.111
-63.363	-57.501	0.059	-0.025
-62.349	101.286	-0.076	0.087
-61.334	28.017	-1.095	-0.907
-60.319	163.526	0.638	0.881
-59.305	150.752	-0.687	-0.917
-58.290	141.162	0.700	0.910
-57.276	-200.000	0.300	1.687
-56.261	-200.000	105.781	592.080
-55.246	509.756	1492.016	3406.351
-54.232	176.123	2694.417	3841.943
-53.217	111.554	2172.716	2573.734
-52.203	40.738	1611.031	1426.476
-51.188	32.394	1346.410	1141.750
-50.173	29.357	1305.051	1088.736
-49.159	53.318	1359.325	1279.053
-48.144	53.406	1374.552	1293.855
-47.130	32.569	1329.808	1128.541
-46.115	29.192	1311.271	1092.772
-45.100	28.876	1306.758	1087.101
-44.086	28.887	1304.386	1085.148
-43.071	28.835	1301.827	1082.671
-42.057	28.840	1300.127	1081.243
-41.042	28.930	1297.845	1079.829
-40.027	28.806	1296.674	1078.089
-39.013	28.845	1294.273	1076.276
-37.998	28.941	1292.375	1075.219
-36.984	28.996	1290.794	1074.182
-35.969	28.940	1288.990	1072.311
-34.954	28.950	1287.704	1071.257
-33.940	28.888	1286.462	1069.818
-32.925	28.941	1284.828	1068.723
-31.911	29.004	1283.743	1068.148
-30.896	29.049	1282.521	1067.346
-29.881	29.106	1280.455	1065.916
-28.867	29.038	1279.926	1065.039
-27.852	29.060	1277.827	1063.381
-26.838	29.034	1276.397	1061.997
-25.823	29.086	1275.210	1061.268
-24.809	28.937	1274.187	1059.512
-23.794	28.980	1272.707	1058.491
-22.779	29.008	1271.648	1057.727
-21.765	28.936	1270.210	1056.074
-20.750	28.961	1268.958	1055.137
-19.736	29.038	1267.059	1053.954
-18.721	28.975	1266.037	1052.703
-17.706	28.894	1264.887	1051.245
-16.692	28.938	1263.811	1050.558
-15.677	28.907	1263.254	1049.874
-14.663	28.896	1261.511	1048.322
-13.648	28.847	1260.599	1047.242
-12.633	28.835	1259.807	1046.475
-11.619	28.855	1258.707	1045.638
-10.604	28.985	1257.457	1045.295
-9.590	28.840	1257.176	1044.196
-8.575	28.913	1255.922	1043.529
-7.560	28.828	1255.158	1042.370
-6.546	28.800	1254.335	1041.487
-5.531	28.838	1253.468	1040.938
-4.517	28.865	1252.607	1040.335
-3.502	29.007	1251.426	1040.117
-2.487	28.994	1250.686	1039.385
-1.473	28.970	1246.405	1035.651
-0.458	27.890	1232.546	1018.080
0.556	26.407	1215.813	981.998
1.571	22.841	1220.902	966.537
2.586	21.857	1234.802	972.003
3.600	20.858	1222.869	957.043
4.615	15.706	1151.130	874.102
5.629	8.105	1078.160	781.485
6.644	4.743	1059.112	751.398
7.659	4.333	1057.043	747.890
8.673	4.205	1055.766	746.304
9.688	4.270	1053.944	745.261
10.702	4.593	1052.660	745.836
11.717	9.692	1059.821	775.421
12.731	17.704	1070.495	821.942
13.746	21.683	1074.977	844.532
14.761	22.169	1075.233	847.003
15.775	21.158	1073.909	841.013
16.790	20.298	1071.505	834.922
17.804	19.625	1070.106	830.524
18.819	19.340	1069.062	828.272
19.834	19.323	1068.650	827.795
20.848	19.186	1068.215	826.730
21.863	18.965	1067.330	824.913
22.877	18.858	1066.724	823.855
23.892	18.713	1065.811	822.382
24.907	18.854	1065.016	822.373
25.921	18.828	1063.745	821.193
26.936	18.823	1062.581	820.199
27.950	18.853	1061.417	819.369
28.965	18.944	1060.138	818.743
29.980	19.053	1058.675	818.057
30.994	19.168	1057.592	817.696
32.009	19.199	1056.638	817.034
33.023	19.110	1055.856	815.934
34.038	19.064	1054.675	814.734
35.053	18.941	1053.427	813.117
36.067	18.991	1052.638	812.672
37.082	19.009	1051.715	811.971
38.096	19.077	1051.127	811.764
39.111	19.121	1050.838	811.680
40.126	18.886	1049.176	809.215
41.140	18.580	1047.691	806.560
42.155	18.505	1046.278	805.050
43.169	18.522	1045.237	804.257
44.184	18.293	1044.480	802.528
45.199	18.456	1043.295	802.310
46.213	18.613	1042.694	802.512
47.228	18.857	1041.939	803.001
48.242	19.000	1040.866	802.771
49.257	18.891	1039.441	801.092
50.271	19.019	1038.759	801.092
51.286	19.018	1038.013	800.442
52.301	18.882	1037.041	798.991
53.315	18.801	1035.932	797.688
54.330	18.646	1035.049	796.217
55.344	18.671	1033.802	795.303
56.359	18.662	1033.334	794.829
57.374	18.523	1032.898	793.782
58.388	18.579	1031.284	792.729
59.403	18.354	1030.956	791.368
60.417	18.287	1030.456	790.605
61.432	18.329	1029.286	789.830
62.447	18.296	1028.435	788.957
63.461	18.337	1027.676	788.496
64.476	18.173	1026.372	786.668
65.490	18.207	1025.631	786.190
66.505	18.295	1024.975	786.021
67.520	18.188	1024.617	785.186
68.534	18.325	1023.709	785.046
69.549	18.201	1023.078	783.925
70.563	18.007	1022.152	782.258
71.578	18.028	1021.682	781.924
72.593	18.093	1019.984	780.853
73.607	17.902	1019.776	779.753
74.622	18.077	1018.954	779.853
75.636	18.132	1018.347	779.570
76.651	18.065	1017.792	778.774
77.666	18.088	1017.483	778.573
78.680	18.156	1016.529	778.081
79.695	18.113	1016.490	777.787
80.709	18.374	1015.339	778.025
81.724	18.577	1014.654	778.352
82.739	18.607	1013.856	777.806
83.753	18.842	1013.778	778.745
84.768	19.237	1012.667	779.611
85.782	19.382	1011.877	779.587
86.797	19.191	1011.422	778.304
87.812	18.970	1010.473	776.509
88.826	19.001	1009.204	775.602
89.841	19.129	1008.374	775.473
90.855	19.217	1007.745	775.318
91.870	19.223	1007.045	774.736
92.884	19.153	1005.884	773.460
93.899	19.047	1004.911	772.167
94.914	19.215	1004.316	772.398
95.928	19.227	1003.681	771.893
96.943	19.040	1002.414	770.013
97.957	19.048	1001.501	769.281
98.972	19.140	1000.722	769.027
99.987	19.217	999.719	768.528
101.001	18.978	999.023	766.863
102.016	19.029	998.145	766.349
103.030	19.171	997.482	766.400
104.045	19.165	995.958	765.135
105.060	18.864	995.778	763.592
106.074	18.647	994.713	761.744
107.089	18.398	993.079	759.324
108.103	18.391	992.209	758.562
109.118	18.392	990.935	757.523
110.133	18.254	990.395	756.435
111.147	18.306	989.573	755.970
112.162	18.383	988.613	755.507
113.176	18.486	988.496	755.807
114.191	18.444	988.054	755.215
115.206	18.595	986.251	754.437
116.220	18.484	986.038	753.716
117.235	18.365	984.991	752.327
118.249	18.416	984.116	751.817
119.264	18.338	983.554	750.980
120.279	18.252	982.733	749.908
121.293	18.272	981.574	749.045
122.308	18.037	980.737	747.314
123.322	18.027	979.258	746.075
124.337	18.083	978.420	745.618
125.352	18.131	977.468	745.032
126.366	18.154	976.134	744.053
127.381	18.053	975.769	743.269
128.395	18.161	974.724	742.876
129.410	18.254	974.158	742.782
130.424	18.331	973.423	742.488
131.439	18.530	972.568	742.634
132.454	18.558	971.733	742.051
133.468	18.500	970.933	741.125
134.483	18.410	970.391	740.256
135.497	18.539	969.223	739.857
136.512	18.626	968.393	739.534
137.527	18.544	967.606	738.512
138.541	18.536	966.969	737.926
139.556	18.589	966.275	737.561
140.570	18.815	965.754	738.068
141.585	19.011	965.020	738.283
142.600	19.129	964.523	738.343
143.614	19.214	963.402	737.786
144.629	19.147	963.239	737.306
145.643	19.065	962.061	735.990
146.658	19.016	960.509	734.529
147.673	18.731	960.180	732.996
148.687	18.640	959.196	731.790
149.702	18.576	957.892	730.459
150.716	18.645	957.169	730.138
151.731	18.543	956.757	729.322
152.746	18.687	955.899	729.218
153.760	18.725	955.327	728.876
154.775	18.769	954.527	728.389
155.789	18.980	953.877	728.722
156.804	18.830	953.517	727.747
157.819	18.953	952.587	727.495
158.833	19.153	952.707	728.367
159.848	19.175	951.707	727.634
160.862	19.018	950.356	725.870
161.877	18.773	948.999	723.738
162.892	18.611	948.177	722.365
163.906	18.612	946.938	721.361
164.921	18.463	946.542	720.371
165.935	18.703	945.029	720.161
166.950	18.750	944.687	720.034
167.964	18.765	944.006	719.516
168.979	18.701	942.519	718.050
169.994	18.625	942.209	717.435
171.008	18.774	941.217	717.237
172.023	19.010	940.500	717.613
173.037	19.162	939.981	717.784
174.052	18.956	939.527	716.516
175.067	18.748	938.122	714.516
176.081	18.637	937.483	713.506
177.096	18.637	937.239	713.257
178.110	18.722	936.510	712.991
179.125	18.736	936.050	712.637
180.140	18.607	936.054	712.041
181.154	18.932	935.444	712.860
182.169	19.036	935.357	713.163
183.183	19.008	934.578	712.393
184.198	19.038	933.474	711.609
185.213	19.170	932.822	711.596
186.227	19.193	932.228	711.174
187.242	19.363	931.886	711.552
188.256	19.281	931.346	710.738
189.271	19.379	930.286	710.271
190.286	18.944	929.336	707.694
191.300	18.581	928.040	705.148
192.315	18.470	927.635	704.325
193.329	18.483	927.183	703.973
194.344	18.689	926.731	704.413
195.359	18.948	925.836	704.732
196.373	19.116	925.244	704.905
197.388	19.130	925.673	705.230
198.402	19.270	925.297	705.453
199.417	19.362	924.416	705.095
200.432	19.498	924.330	705.523
201.446	19.609	923.358	705.172
202.461	19.699	922.741	705.006
203.475	19.638	922.150	704.241
204.490	19.206	921.176	701.676
205.504	19.178	920.393	700.903
206.519	19.030	919.459	699.531
207.534	19.094	918.880	699.285
208.548	19.244	918.510	699.551
209.563	19.246	917.511	698.738
210.577	19.393	916.721	698.671
211.592	19.512	916.605	699.003
212.607	19.575	915.774	698.560
213.621	19.494	914.937	697.534
214.636	19.354	914.263	696.394
215.650	19.549	913.614	696.622
216.665	19.620	912.892	696.299
217.680	19.722	912.415	696.282
218.694	19.771	911.819	695.964
219.709	19.666	911.313	695.094
220.723	19.544	910.396	693.841
221.738	19.458	910.091	693.203
222.753	19.576	909.302	693.016
223.767	19.763	908.627	693.187
224.782	19.812	908.440	693.182
225.796	19.806	907.870	692.661
226.811	19.689	906.793	691.311
227.826	19.424	905.952	689.547
228.840	19.475	905.540	689.377
229.855	19.571	904.162	688.648
230.869	19.518	903.594	687.946
231.884	19.507	903.060	687.432
232.899	19.421	902.117	686.315
233.913	19.361	901.443	685.502
234.928	19.380	900.670	684.929
235.942	19.301	900.387	684.337
236.957	19.309	899.496	683.634
237.972	19.317	899.166	683.355
238.986	19.192	898.573	682.348
240.001	19.291	897.826	682.113
241.015	19.361	897.429	682.027
242.030	19.409	897.340	682.089
243.045	19.455	896.319	681.434
244.059	19.588	895.895	681.576
245.074	19.600	895.433	681.211
246.088	19.672	895.047	681.143
247.103	19.931	893.852	681.191
248.117	19.957	894.175	681.478
249.132	20.252	893.686	682.205
250.147	20.511	892.861	682.532
251.161	20.495	892.532	682.159
252.176	20.467	891.850	681.469
253.190	20.615	891.193	681.485
254.205	20.457	891.113	680.744
255.220	20.537	889.651	679.879
256.234	20.478	889.449	679.436
257.249	20.443	888.690	678.658
258.263	20.408	887.959	677.905
259.278	20.315	887.982	677.497
260.293	20.438	886.673	676.918
261.307	20.501	886.192	676.736
262.322	20.662	885.510	676.782
263.336	20.602	884.790	675.939
264.351	20.792	883.990	676.004
265.366	20.552	883.492	674.636
266.380	20.726	882.839	674.751
267.395	20.486	882.649	673.616
268.409	20.372	881.598	672.311
269.424	20.433	880.655	671.771
270.439	20.357	880.239	671.100
271.453	20.347	879.430	670.384
272.468	20.195	878.948	669.369
273.482	20.176	878.289	668.736
274.497	20.350	877.676	668.881
275.512	20.249	877.094	667.989
276.526	20.351	876.722	668.041
277.541	20.517	875.880	667.976
278.555	20.635	875.784	668.297
279.570	20.779	874.949	668.155
280.585	20.752	874.513	667.661
281.599	20.570	873.472	666.106
282.614	20.414	872.923	665.032
283.628	20.379	872.063	664.185
284.643	20.486	871.385	664.018
285.657	20.514	870.553	663.431
286.672	20.475	870.043	662.837
287.687	20.499	869.572	662.512
288.701	20.558	868.766	662.064
289.716	20.628	868.708	662.227
290.730	20.560	868.035	661.397
291.745	20.604	867.625	661.193
292.760	20.710	866.918	660.996
293.774	20.820	866.425	660.982
294.789	20.550	865.773	659.403
295.803	20.566	864.595	658.506
296.818	20.519	863.974	657.796
297.833	20.492	863.421	657.215
298.847	20.477	863.541	657.193
299.862	20.621	862.584	656.951
300.876	20.747	862.138	657.027
301.891	20.812	861.579	656.788
302.906	20.994	861.330	657.226
303.920	21.114	860.635	657.088
304.935	21.263	860.122	657.201
305.949	20.960	859.563	655.578
306.964	20.791	859.043	654.485
307.979	20.947	858.276	654.431
308.993	20.975	857.626	653.980
310.008	21.060	857.217	653.929
311.022	20.951	856.362	652.810
312.037	20.765	855.944	651.741
313.052	20.591	855.200	650.464
314.066	20.519	854.493	649.600
315.081	20.640	853.655	649.356
316.095	20.556	853.325	648.734
317.110	20.451	852.745	647.844
318.125	20.494	852.339	647.641
319.139	20.531	851.516	647.096
320.154	20.424	851.492	646.620
321.168	20.750	850.700	647.176
322.183	20.662	850.333	646.510
323.197	20.724	849.542	646.083
324.212	20.714	849.520	645.971
325.227	20.665	848.756	645.152
326.241	20.531	848.055	644.067
327.256	20.541	847.326	643.492
328.270	20.519	846.716	642.889
329.285	20.649	845.938	642.722
330.300	20.621	845.230	642.026
331.314	20.660	845.239	642.119
332.329	20.966	844.614	642.714
333.343	20.947	844.766	642.703
334.358	21.008	844.109	642.373
335.373	20.940	844.079	642.043
336.387	21.031	843.359	641.772
337.402	21.098	843.444	642.026
338.416	21.333	843.231	642.672
339.431	21.510	842.190	642.473
340.446	21.524	842.181	642.460
341.460	21.437	841.578	641.623
342.475	21.562	841.894	642.264
343.489	21.670	841.194	642.071
344.504	21.608	840.805	641.491
345.519	21.824	840.072	641.663
346.533	21.611	839.778	640.604
347.548	21.556	838.795	639.597
348.562	21.243	837.800	637.638
349.577	21.155	837.548	637.069
350.592	20.947	836.777	635.670
351.606	20.948	836.303	635.257
352.621	21.042	835.476	634.914
353.635	21.158	834.825	634.786
354.650	21.216	834.491	634.685
355.665	21.286	833.696	634.279
356.679	21.381	833.206	634.194
357.694	21.313	832.293	633.198
358.708	21.374	831.725	632.929
359.723	21.298	831.336	632.302
360.738	21.528	830.288	632.280
361.752	21.487	830.612	632.322
362.767	21.491	829.952	631.780
363.781	21.744	829.305	632.143
364.796	21.848	828.997	632.227
365.810	22.030	828.700	632.600
366.825	22.081	827.990	632.187
367.840	21.967	827.628	631.445
368.854	21.695	827.172	630.063
369.869	21.615	826.901	629.512
370.883	21.750	826.368	629.535
371.898	21.827	826.291	629.697
372.913	21.996	825.690	629.792
373.927	21.715	825.013	628.213
374.942	21.888	824.574	628.443
375.956	21.810	824.306	627.903
376.971	22.000	823.936	628.245
377.986	22.198	823.572	628.619
379.000	22.196	823.059	628.166
380.015	22.243	822.127	627.565
381.029	22.151	821.570	626.759
382.044	22.077	821.256	626.198
383.059	22.266	820.561	626.286
384.073	22.090	819.857	625.066
385.088	21.787	818.971	623.260
386.102	21.735	818.352	622.550
387.117	21.595	818.116	621.816
388.132	21.887	817.234	622.125
389.146	21.746	816.961	621.364
390.161	21.928	816.711	621.764
391.175	22.119	816.258	622.039
392.190	21.941	815.385	620.690
393.205	21.858	814.908	619.978
394.219	21.835	814.505	619.537
395.234	21.725	814.141	618.818
396.248	21.643	813.752	618.177
397.263	21.381	813.168	616.755
398.278	21.601	812.558	617.012
399.292	21.451	812.270	616.210
400.307	21.695	811.445	616.388
401.321	21.597	811.161	615.774
402.336	21.699	811.387	616.251
403.350	21.868	810.587	616.182
404.365	21.922	810.093	615.940
405.380	22.147	810.216	616.770
406.394	22.253	809.369	616.442
407.409	22.304	808.902	616.212
408.423	22.440	808.550	616.364
409.438	22.517	808.607	616.621
410.453	22.546	808.234	616.386
411.467	22.539	807.500	615.745
412.482	22.614	807.256	615.768
413.496	22.525	807.412	615.522
414.511	22.592	806.833	615.257
415.526	22.556	805.813	614.303
416.540	22.611	805.316	614.061
417.555	22.628	804.914	613.757
418.569	22.516	804.675	613.131
419.584	22.506	804.316	612.768
420.599	22.499	803.815	612.310
421.613	163.799	1369.835	1795.405
422.628	142.465	1452.290	1795.529
