DTS Sentinel unit serial number:	SN413079Multiplexer serial number:	ORYXHardware model number:	OX4-SRSoftware version number:	ORYX F/W v4.00 Oryx Data Collector v3.7.2.0data status	okinstallation	princeton_trtdifferential loss correction	single-endedforward channel	channel 1reverse channel	N/Adate	2019/09/18time	16:30:35forward acquisition time	60.00reverse acquisition time	0.00gamma	496.2192k internal	0.2292k external	0.2292temperature offset calibration	0.9993default loss term (dB/km)	0.3790temperature slope calibration	1.0000multiplexer offset coefficient	1.0000multiplexer slope coefficient	1.0000fibre end	0.00T internal ref (°C)	39.22T ext. ref 1 (°C)	0.84T ext. ref 2 (°C)	36.41length (m)	temperature (°C)	Stokes	anti-Stokes-747.200	-200.000	-0.057	0.308
-746.185	-200.000	-0.044	0.565
-745.171	-64.814	-0.121	0.050
-744.156	-107.916	-0.220	0.049
-743.142	-15.162	0.004	-0.003
-742.127	724.933	-0.068	0.186
-741.112	-2.081	-0.151	-0.109
-740.098	800.000	-0.128	0.381
-739.083	-95.300	0.294	0.081
-738.069	-200.000	0.030	-0.221
-737.054	800.000	0.050	-0.169
-736.039	-153.849	-0.208	0.015
-735.025	-122.768	0.451	0.075
-734.010	-156.321	-0.139	0.009
-732.996	43.827	-0.114	-0.107
-731.981	-91.256	-0.177	0.052
-730.966	-76.525	0.083	0.030
-729.952	229.747	0.180	-0.301
-728.937	-67.476	-0.032	0.013
-727.923	-93.095	0.254	0.072
-726.908	-38.369	-0.385	0.208
-725.894	201.412	0.169	-0.267
-724.879	-189.924	-0.088	0.001
-723.864	-200.000	0.002	-0.095
-722.850	-143.367	-0.288	0.028
-721.835	92.277	-0.135	-0.156
-720.821	-162.804	0.223	-0.011
-719.806	-200.000	0.018	-0.110
-718.791	-0.921	-0.265	0.192
-717.777	-41.667	0.119	-0.062
-716.762	-200.000	0.015	0.096
-715.748	58.720	-0.138	-0.139
-714.733	-79.321	0.173	-0.060
-713.718	-61.576	-0.264	-0.113
-712.704	-200.000	0.009	0.114
-711.689	142.645	-0.095	-0.128
-710.675	-79.242	-0.227	-0.079
-709.660	-10.274	0.135	-0.092
-708.645	-72.065	-0.255	0.097
-707.631	-100.887	0.314	-0.079
-706.616	-200.000	-0.061	-0.293
-705.602	20.715	0.143	-0.118
-704.587	-188.029	-0.382	0.005
-703.572	192.712	0.190	0.294
-702.558	-56.083	-0.210	-0.095
-701.543	30.239	0.018	-0.016
-700.529	-200.000	-0.016	-0.126
-699.514	-200.000	0.031	0.144
-698.499	-200.000	0.044	-0.368
-697.485	-200.000	-0.014	-0.178
-696.470	-41.059	-0.301	-0.159
-695.456	-20.928	0.116	0.072
-694.441	538.935	-0.157	-0.381
-693.426	296.968	0.305	0.572
-692.412	322.491	-0.070	-0.135
-691.397	-73.646	0.253	0.094
-690.383	295.914	-0.094	-0.176
-689.368	-200.000	-0.022	0.175
-688.354	71.899	0.057	-0.061
-687.339	-12.806	0.196	-0.131
-686.324	-200.000	-0.003	0.154
-685.310	-6.212	-0.046	-0.032
-684.295	257.049	-0.095	0.167
-683.281	-92.103	0.043	-0.012
-682.266	-200.000	-0.015	-0.105
-681.251	-102.351	-0.272	-0.067
-680.237	-200.000	-0.033	0.150
-679.222	-124.695	0.189	-0.030
-678.208	-51.684	-0.390	-0.186
-677.193	-88.399	0.205	-0.062
-676.178	132.061	0.174	-0.228
-675.164	315.299	-0.097	-0.186
-674.149	-200.000	0.009	0.276
-673.135	-200.000	0.002	-0.031
-672.120	343.813	-0.088	-0.175
-671.105	23.018	-0.184	0.154
-670.091	-93.229	-0.357	-0.101
-669.076	734.840	0.094	-0.258
-668.062	-200.000	-0.013	-0.379
-667.047	-0.727	-0.160	-0.116
-666.032	1.826	0.189	0.139
-665.018	-200.000	0.002	-0.257
-664.003	-95.687	-0.167	-0.045
-662.989	294.420	-0.162	0.302
-661.974	-111.547	-0.347	0.072
-660.959	800.000	0.036	0.111
-659.945	525.339	0.083	0.199
-658.930	298.380	0.212	-0.397
-657.916	-200.000	0.004	-0.213
-656.901	487.473	0.131	0.305
-655.886	-100.949	0.175	0.044
-654.872	-195.364	-0.198	-0.002
-653.857	71.868	0.298	-0.317
-652.843	-200.000	0.037	-0.212
-651.828	-11.179	0.346	-0.232
-650.814	-200.000	-0.002	-0.134
-649.799	-200.000	-0.000	-0.112
-648.784	800.000	-0.050	-0.162
-647.770	-200.000	0.035	-0.259
-646.755	-69.161	-0.339	0.133
-645.741	1.128	-0.306	-0.224
-644.726	-200.000	0.010	-0.457
-643.711	-200.000	0.080	-0.526
-642.697	136.035	0.034	-0.046
-641.682	-139.540	-0.091	0.010
-640.668	29.687	-0.181	0.157
-639.653	-103.538	0.205	0.049
-638.638	-200.000	-0.010	-0.211
-637.624	-11.070	-0.256	-0.172
-636.609	63.384	0.107	0.109
-635.595	400.471	-0.090	-0.192
-634.580	800.000	0.056	0.181
-633.565	-101.308	-0.192	0.048
-632.551	-200.000	-0.106	0.533
-631.536	-28.392	0.195	0.115
-630.522	-125.823	0.231	0.035
-629.507	137.869	-0.095	-0.127
-628.492	38.234	-0.177	-0.161
-627.478	800.000	0.063	0.190
-626.463	-40.893	0.102	-0.054
-625.449	13.107	0.061	0.048
-624.434	-152.609	0.083	0.006
-623.419	-200.000	0.068	-0.508
-622.405	-200.000	0.026	0.159
-621.390	513.665	0.106	-0.252
-620.376	-171.475	-0.136	-0.005
-619.361	-88.844	-0.080	-0.024
-618.346	-111.439	-0.332	-0.069
-617.332	-194.782	-0.259	0.002
-616.317	709.804	0.045	0.120
-615.303	655.219	-0.128	-0.334
-614.288	-26.482	-0.147	-0.088
-613.273	-76.606	-0.311	0.111
-612.259	-200.000	-0.036	-0.166
-611.244	-200.000	0.015	-0.204
-610.230	-200.000	0.058	-0.267
-609.215	-41.096	-0.121	0.064
-608.201	-200.000	0.022	0.187
-607.186	-200.000	-0.006	0.264
-606.171	363.998	0.060	0.122
-605.157	-15.530	-0.142	0.092
-604.142	800.000	-0.078	-0.222
-603.128	-38.811	0.365	0.196
-602.113	-155.575	0.136	0.009
-601.098	800.000	0.047	-0.145
-600.084	-200.000	0.019	0.223
-599.069	-6.924	-0.442	0.306
-598.055	13.804	-0.407	-0.322
-597.040	-200.000	0.038	0.177
-596.025	33.663	0.185	-0.164
-595.011	-75.164	-0.122	-0.044
-593.996	55.685	-0.094	-0.093
-592.982	-15.793	0.218	0.141
-591.967	151.942	0.077	-0.108
-590.952	12.157	-0.258	-0.202
-589.938	-116.884	-0.068	-0.013
-588.923	224.057	-0.079	0.130
-587.909	143.124	0.124	0.168
-586.894	-16.129	0.056	-0.036
-585.879	-200.000	-0.012	-0.083
-584.865	-117.055	-0.109	-0.020
-583.850	-14.325	-0.124	-0.082
-582.836	-58.838	-0.194	0.086
-581.821	-4.290	0.195	0.137
-580.806	-184.966	-0.110	0.002
-579.792	-123.189	-0.103	0.017
-578.777	588.177	-0.108	0.270
-577.763	-158.366	0.309	-0.018
-576.748	491.080	-0.106	-0.246
-575.733	-200.000	0.033	-0.196
-574.719	800.000	-0.008	-0.024
-573.704	800.000	0.081	0.247
-572.690	145.754	-0.080	0.109
-571.675	431.788	0.080	-0.177
-570.661	55.931	-0.224	0.221
-569.646	-200.000	0.013	-0.068
-568.631	57.183	0.113	0.112
-567.617	-140.259	0.321	0.034
-566.602	800.000	-0.054	0.160
-565.588	421.675	-0.210	-0.458
-564.573	-43.975	0.035	-0.018
-563.558	-200.000	0.038	0.185
-562.544	93.312	-0.072	0.083
-561.529	85.777	0.346	0.387
-560.515	-200.000	0.286	0.001
-559.500	-64.463	0.125	-0.052
-558.485	-200.000	0.007	-0.146
-557.471	27.037	-0.251	-0.214
-556.456	277.208	0.076	-0.138
-555.442	-200.000	0.010	-0.136
-554.427	87.295	0.237	-0.266
-553.412	800.000	0.112	0.388
-552.398	-136.574	-0.183	-0.022
-551.383	61.233	0.148	-0.150
-550.369	800.000	-0.058	-0.217
-549.354	-92.466	-0.048	-0.014
-548.339	194.204	-0.117	-0.180
-547.325	492.364	-0.034	-0.080
-546.310	176.511	0.091	-0.134
-545.296	238.709	-0.082	-0.138
-544.281	-48.479	0.165	-0.081
-543.266	16.810	-0.163	-0.131
-542.252	505.881	-0.091	-0.214
-541.237	342.464	0.159	-0.315
-540.223	467.366	-0.094	0.214
-539.208	-200.000	0.029	0.204
-538.193	-14.564	-0.263	-0.172
-537.179	197.194	-0.082	-0.127
-536.164	-161.816	0.182	-0.009
-535.150	152.549	-0.106	0.147
-534.135	800.000	0.114	0.355
-533.121	-84.152	0.200	-0.064
-532.106	-23.505	-0.197	-0.120
-531.091	-17.933	0.182	0.116
-530.077	-84.493	-0.128	-0.041
-529.062	-57.587	0.280	-0.125
-528.048	112.118	0.199	0.244
-527.033	214.028	0.139	-0.222
-526.018	522.280	-0.076	0.180
-525.004	800.000	-0.072	0.236
-523.989	362.149	-0.097	-0.197
-522.975	56.359	-0.195	0.193
-521.960	25.887	-0.120	-0.102
-520.945	706.484	-0.129	-0.345
-519.931	28.438	0.141	-0.121
-518.916	-200.000	0.024	-0.309
-517.902	319.288	-0.139	-0.268
-516.887	-136.638	-0.385	-0.045
-515.872	114.484	-0.204	0.252
-514.858	329.044	0.047	0.092
-513.843	116.841	-0.183	0.228
-512.829	743.093	-0.038	-0.104
-511.814	-142.350	0.107	-0.011
-510.799	440.879	0.030	0.067
-509.785	-200.000	0.072	0.444
-508.770	-38.783	0.372	-0.199
-507.756	-200.000	0.058	0.295
-506.741	-170.761	0.281	-0.010
-505.726	5.816	0.212	-0.159
-504.712	76.924	0.182	0.196
-503.697	-165.205	-0.175	0.008
-502.683	-113.569	-0.295	-0.059
-501.668	-15.593	0.256	0.166
-500.653	-117.993	0.411	-0.075
-499.639	-27.140	0.253	-0.150
-498.624	-200.000	0.007	-0.235
-497.610	-64.108	0.122	0.050
-496.595	-127.335	-0.225	0.033
-495.581	15.014	-0.358	0.284
-494.566	189.161	-0.104	0.158
-493.551	-189.336	-0.226	-0.003
-492.537	-22.556	-0.049	-0.030
-491.522	-200.000	0.009	0.179
-490.508	-20.490	0.209	0.130
-489.493	422.747	-0.157	0.341
-488.478	128.393	0.169	0.218
-487.464	-200.000	-0.013	-0.140
-486.449	-78.727	-0.179	-0.062
-485.435	212.761	-0.024	-0.038
-484.420	-76.634	0.481	-0.171
-483.405	-200.000	-0.012	-0.173
-482.391	-118.000	0.157	-0.029
-481.376	23.364	-0.046	-0.038
-480.362	175.114	-0.085	0.124
-479.347	794.331	-0.113	0.316
-478.332	125.646	-0.063	0.081
-477.318	800.000	0.083	-0.308
-476.303	190.005	-0.183	0.278
-475.289	128.451	0.129	0.166
-474.274	99.491	0.077	0.090
-473.259	-200.000	0.012	-0.228
-472.245	-17.325	0.350	-0.223
-471.230	-3.804	0.123	-0.086
-470.216	332.039	-0.033	-0.064
-469.201	-35.035	-0.184	0.101
-468.186	-45.094	0.100	0.050
-467.172	-144.208	0.220	-0.021
-466.157	-88.185	-0.219	-0.066
-465.143	16.022	0.258	0.205
-464.128	-200.000	-0.029	-0.137
-463.113	29.444	0.194	-0.167
-462.099	430.856	-0.141	-0.309
-461.084	-200.000	-0.026	0.129
-460.070	-200.000	-0.033	-0.330
-459.055	45.745	-0.208	0.194
-458.040	800.000	-0.069	0.209
-457.026	2.246	0.022	-0.016
-456.011	800.000	0.017	0.060
-454.997	283.267	0.232	-0.422
-453.982	-79.189	0.042	-0.014
-452.968	-115.927	-0.048	-0.009
-451.953	106.819	0.151	-0.181
-450.938	-200.000	0.076	-0.366
-449.924	-126.323	0.211	-0.032
-448.909	-47.078	-0.265	-0.131
-447.895	16.741	-0.317	0.254
-446.880	111.989	-0.154	0.189
-445.865	783.505	0.064	0.178
-444.851	-200.000	-0.010	-0.105
-443.836	-65.551	0.427	0.173
-442.822	32.268	0.170	0.148
-441.807	-200.000	0.050	0.371
-440.792	-200.000	-0.043	-0.410
-439.778	-200.000	-0.143	0.000
-438.763	-112.588	-0.144	0.029
-437.749	-61.130	0.257	-0.110
-436.734	800.000	-0.112	0.419
-435.719	254.549	0.188	-0.325
-434.705	-126.015	0.088	0.013
-433.690	-90.244	0.253	-0.074
-432.676	-93.982	-0.159	0.044
-431.661	314.365	0.071	0.135
-430.646	-4.891	-0.164	-0.115
-429.632	477.707	-0.234	-0.535
-428.617	304.697	-0.014	0.027
-427.603	-200.000	0.028	-0.219
-426.588	148.467	-0.114	-0.155
-425.573	91.914	0.293	0.334
-424.559	130.120	0.158	0.205
-423.544	-94.392	0.064	0.018
-422.530	-9.747	0.040	0.027
-421.515	800.000	0.064	0.276
-420.500	582.122	-0.130	-0.322
-419.486	227.569	-0.159	0.261
-418.471	18.519	0.151	-0.122
-417.457	1.840	-0.203	0.148
-416.442	-59.566	0.260	-0.113
-415.428	-200.000	-0.030	-0.292
-414.413	287.248	0.032	-0.058
-413.398	-200.000	-0.009	0.055
-412.384	-120.636	-0.210	-0.036
-411.369	-200.000	-0.017	0.182
-410.355	252.550	-0.042	0.073
-409.340	208.138	0.143	-0.226
-408.325	-39.908	0.188	-0.099
-407.311	-200.000	0.035	-0.308
-406.296	-139.420	0.195	0.021
-405.282	150.376	-0.089	0.122
-404.267	42.601	-0.129	0.118
-403.252	-161.623	0.391	-0.020
-402.238	384.443	-0.063	0.131
-401.223	286.412	-0.061	0.110
-400.209	-60.337	-0.134	-0.057
-399.194	-36.900	-0.116	-0.063
-398.179	-14.702	0.140	0.091
-397.165	736.417	-0.125	0.338
-396.150	112.875	0.035	-0.043
-395.136	196.093	-0.141	0.217
-394.121	-62.414	-0.195	0.082
-393.106	800.000	0.041	-0.129
-392.092	586.652	-0.036	-0.089
-391.077	-48.512	0.042	0.021
-390.063	-59.475	0.169	-0.073
-389.048	419.218	-0.042	0.092
-388.033	409.965	-0.145	-0.310
-387.019	-200.000	-0.006	0.198
-386.004	-200.000	0.008	-0.252
-384.990	278.630	-0.248	-0.446
-383.975	39.291	0.088	-0.079
-382.960	-59.038	-0.228	-0.099
-381.946	117.237	-0.083	-0.103
-380.931	-189.077	-0.358	-0.004
-379.917	800.000	-0.094	-0.266
-378.902	395.231	-0.121	-0.255
-377.888	800.000	0.078	0.222
-376.873	-162.281	0.384	-0.019
-375.858	-24.548	0.128	0.077
-374.844	-14.132	0.079	0.051
-373.829	-141.093	-0.238	-0.025
-372.815	-200.000	0.021	-0.212
-371.800	-200.000	0.022	0.166
-370.785	12.644	0.221	-0.172
-369.771	-94.750	0.157	-0.043
-368.756	352.717	-0.140	-0.280
-367.742	800.000	-0.124	-0.405
-366.727	23.785	0.065	0.054
-365.712	-62.173	0.232	0.098
-364.698	473.970	-0.032	-0.073
-363.683	-70.515	-0.266	0.101
-362.669	-12.357	0.241	0.159
-361.654	-200.000	-0.048	0.295
-360.639	-77.769	-0.255	-0.089
-359.625	-61.329	0.515	0.219
-358.610	315.735	-0.069	0.131
-357.596	31.605	0.187	0.162
-356.581	4.422	-0.136	0.101
-355.566	-200.000	-0.049	0.275
-354.552	102.929	-0.224	0.265
-353.537	20.479	-0.258	-0.210
-352.523	-200.000	-0.026	-0.300
-351.508	-200.000	-0.001	0.013
-350.493	-122.732	0.176	0.029
-349.479	43.810	-0.213	0.197
-348.464	261.588	0.116	0.202
-347.450	169.030	0.064	-0.093
-346.435	209.117	-0.053	0.083
-345.420	60.674	0.035	0.035
-344.406	-125.890	-0.347	-0.053
-343.391	196.768	0.078	-0.120
-342.377	457.995	0.071	-0.159
-341.362	657.931	0.105	-0.272
-340.348	800.000	-0.078	-0.238
-339.333	-200.000	0.005	0.090
-338.318	10.710	0.280	-0.215
-337.304	-117.859	-0.215	-0.039
-336.289	-12.700	-0.461	-0.303
-335.275	268.216	0.128	-0.226
-334.260	800.000	0.121	-0.356
-333.245	-200.000	0.007	0.056
-332.231	32.973	-0.047	0.041
-331.216	-11.296	-0.003	-0.002
-330.202	86.281	0.178	-0.197
-329.187	-122.243	-0.334	-0.055
-328.172	254.077	-0.023	-0.040
-327.158	-40.390	0.325	-0.170
-326.143	-200.000	-0.007	0.092
-325.129	800.000	0.078	0.246
-324.114	152.263	-0.162	-0.222
-323.099	-65.202	-0.358	-0.145
-322.085	-103.183	0.367	0.087
-321.070	-200.000	0.002	0.184
-320.056	51.705	-0.080	-0.077
-319.041	106.357	-0.065	-0.077
-318.026	31.973	-0.091	0.079
-317.012	116.801	0.091	0.112
-315.997	-70.657	-0.110	-0.042
-314.983	136.563	-0.157	-0.207
-313.968	-43.375	0.193	0.098
-312.953	219.384	-0.147	-0.236
-311.939	-200.000	-0.078	0.390
-310.924	-200.000	-0.004	0.060
-309.910	-200.000	0.028	-0.151
-308.895	14.981	-0.175	0.138
-307.880	-23.558	0.123	-0.074
-306.866	-200.000	-0.001	0.252
-305.851	800.000	0.080	0.298
-304.837	-99.470	-0.100	0.025
-303.822	449.589	0.135	0.298
-302.807	-119.409	0.192	0.034
-301.793	-200.000	-0.026	0.127
-300.778	-1.247	0.149	0.106
-299.764	-85.789	0.188	-0.059
-298.749	-129.152	0.268	-0.038
-297.735	-42.990	-0.128	0.065
-296.720	-200.000	0.017	-0.268
-295.705	-76.910	0.236	0.083
-294.691	-200.000	-0.023	0.191
-293.676	-200.000	-0.042	0.295
-292.662	800.000	0.086	0.320
-291.647	-200.000	0.054	0.298
-290.632	107.481	-0.179	-0.215
-289.618	690.236	0.014	0.037
-288.603	-200.000	-0.006	0.220
-287.589	-170.376	-0.240	0.008
-286.574	-31.261	-0.174	-0.099
-285.559	-1.932	-0.242	0.171
-284.545	53.531	-0.221	0.213
-283.530	800.000	-0.056	-0.180
-282.516	-200.000	0.055	0.290
-281.501	215.327	0.159	0.254
-280.486	728.308	0.132	0.353
-279.472	167.929	0.045	-0.064
-278.457	-8.950	0.046	-0.031
-277.443	158.494	-0.075	-0.104
-276.428	-45.180	0.366	-0.183
-275.413	800.000	0.086	-0.274
-274.399	308.248	0.009	0.017
-273.384	-200.000	-0.039	-0.187
-272.370	-200.000	0.033	0.341
-271.355	-200.000	0.026	-0.243
-270.340	-8.609	-0.223	-0.151
-269.326	161.104	-0.101	0.142
-268.311	-200.000	0.000	-0.088
-267.297	286.781	0.097	-0.175
-266.282	-20.523	0.260	-0.161
-265.267	-172.059	0.255	0.008
-264.253	-65.711	0.176	-0.071
-263.238	-200.000	-0.042	0.293
-262.224	800.000	-0.094	-0.348
-261.209	-200.000	0.013	0.191
-260.195	800.000	-0.053	0.205
-259.180	-114.240	0.404	-0.078
-258.165	-200.000	-0.004	0.025
-257.151	-106.269	-0.235	0.053
-256.136	-89.281	-0.370	0.109
-255.122	-34.498	-0.232	0.128
-254.107	-200.000	0.016	-0.218
-253.092	43.432	-0.124	-0.114
-252.078	84.904	-0.140	-0.154
-251.063	-158.524	-0.541	-0.031
-250.049	-121.055	-0.141	-0.024
-249.034	79.623	0.305	-0.328
-248.019	-189.548	-0.155	-0.002
-247.005	-6.600	0.029	0.020
-245.990	-200.000	0.011	0.198
-244.976	64.999	-0.192	0.195
-243.961	117.514	0.267	-0.330
-242.946	-115.153	0.083	0.016
-241.932	-200.000	0.050	0.222
-240.917	446.554	-0.162	0.358
-239.903	-200.000	-0.009	-0.054
-238.888	558.363	0.060	0.145
-237.873	-72.232	0.144	-0.053
-236.859	800.000	0.105	0.372
-235.844	-54.897	0.056	-0.025
-234.830	-137.762	-0.344	0.039
-233.815	340.903	-0.024	-0.046
-232.800	448.086	-0.096	-0.212
-231.786	-200.000	0.032	-0.231
-230.771	68.680	-0.252	0.259
-229.757	83.261	0.032	0.035
-228.742	274.334	0.061	0.108
-227.727	338.593	-0.138	0.270
-226.713	-154.452	-0.190	0.013
-225.698	342.911	0.095	-0.187
-224.684	12.288	-0.249	0.193
-223.669	-128.011	0.279	0.040
-222.655	87.196	0.071	-0.079
-221.640	-35.708	0.197	0.107
-220.625	-25.459	0.151	0.089
-219.611	800.000	0.114	0.451
-218.596	46.006	-0.130	0.121
-217.582	800.000	-0.060	0.191
-216.567	279.048	0.031	-0.055
-215.552	676.682	0.069	-0.181
-214.538	-200.000	0.002	0.054
-213.523	52.349	0.182	0.174
-212.509	-200.000	-0.016	-0.126
-211.494	4.151	0.354	0.260
-210.479	44.473	0.034	0.031
-209.465	-200.000	-0.027	0.219
-208.450	-47.978	-0.265	0.129
-207.436	11.318	-0.306	0.235
-206.421	-200.000	-0.005	-0.055
-205.406	800.000	0.066	-0.225
-204.392	134.138	0.138	-0.180
-203.377	14.060	0.232	-0.181
-202.363	-122.472	0.134	0.022
-201.348	800.000	0.042	0.134
-200.333	207.565	0.038	-0.059
-199.319	800.000	-0.020	0.070
-198.304	-200.000	0.041	-0.200
-197.290	800.000	0.062	-0.176
-196.275	-200.000	-0.031	0.318
-195.260	-96.777	0.418	0.110
-194.246	800.000	-0.057	-0.189
-193.231	-103.023	-0.120	0.028
-192.217	383.764	0.103	-0.213
-191.202	-137.727	-0.108	0.012
-190.187	-200.000	0.001	0.091
-189.173	18.193	0.265	-0.212
-188.158	649.359	0.088	0.225
-187.144	-36.604	0.241	-0.130
-186.129	79.133	0.004	-0.005
-185.114	-98.570	-0.139	0.036
-184.100	514.451	0.046	0.108
-183.085	64.778	0.282	0.285
-182.071	194.058	0.108	-0.164
-181.056	44.671	0.198	-0.183
-180.042	26.898	-0.139	-0.116
-179.027	-181.790	-0.146	0.003
-178.012	792.404	-0.075	0.206
-176.998	120.543	-0.186	0.231
-175.983	111.001	-0.186	0.224
-174.969	143.379	0.195	0.260
-173.954	127.651	0.225	0.286
-172.939	-143.036	0.261	0.025
-171.925	44.763	0.067	-0.062
-170.910	-200.000	-0.020	0.091
-169.896	-200.000	-0.068	0.300
-168.881	-159.392	-0.157	-0.009
-167.866	-61.308	-0.162	0.068
-166.852	-126.877	0.106	-0.016
-165.837	-41.640	-0.157	0.080
-164.823	800.000	-0.119	-0.407
-163.808	128.154	0.061	0.077
-162.793	126.289	0.110	0.139
-161.779	-106.807	-0.271	0.060
-160.764	800.000	-0.040	-0.125
-159.750	15.573	0.104	-0.082
-158.735	-175.946	0.135	-0.004
-157.720	-200.000	0.023	0.275
-156.706	616.511	0.105	0.262
-155.691	-200.000	-0.067	-0.457
-154.677	92.599	0.070	0.079
-153.662	24.651	-0.078	-0.064
-152.647	-52.953	0.116	-0.053
-151.633	92.914	-0.192	0.217
-150.618	-200.000	-0.001	0.028
-149.604	-23.350	0.101	0.061
-148.589	-150.134	0.430	0.033
-147.574	73.867	-0.110	-0.116
-146.560	-200.000	-0.013	0.088
-145.545	-200.000	-0.068	0.331
-144.531	107.493	-0.144	0.171
-143.516	-200.000	0.004	-0.214
-142.502	78.511	-0.146	-0.156
-141.487	-33.120	0.313	0.174
-140.472	-200.000	-0.012	0.074
-139.458	800.000	-0.043	-0.140
-138.443	702.421	0.088	-0.232
-137.429	-12.817	0.194	0.126
-136.414	-100.476	-0.244	-0.060
-135.399	800.000	-0.044	0.162
-134.385	5.171	0.114	-0.084
-133.370	-57.294	-0.132	0.058
-132.356	-62.648	-0.169	0.070
-131.341	-200.000	0.047	-0.325
-130.326	-53.479	-0.112	-0.051
-129.312	-47.424	-0.120	-0.059
-128.297	308.912	0.145	-0.270
-127.283	-200.000	0.043	0.259
-126.268	800.000	0.037	-0.139
-125.253	99.922	0.183	-0.212
-124.239	22.548	-0.140	-0.114
-123.224	-38.839	-0.182	-0.096
-122.210	67.496	-0.062	-0.064
-121.195	-184.063	-0.026	0.000
-120.180	-1.318	-0.240	-0.169
-119.166	-93.852	0.323	0.089
-118.151	-200.000	0.009	-0.246
-117.137	132.437	0.137	-0.177
-116.122	-192.960	0.151	-0.001
-115.107	-22.278	0.081	0.049
-114.093	-200.000	0.013	0.206
-113.078	800.000	-0.088	0.299
-112.064	-74.636	0.237	-0.085
-111.049	-195.639	0.161	0.001
-110.034	615.693	0.147	-0.368
-109.020	208.586	-0.132	-0.207
-108.005	373.074	0.094	-0.191
-106.991	46.701	0.131	0.121
-105.976	-57.253	0.017	-0.007
-104.962	-111.552	-0.198	0.040
-103.947	63.827	0.096	-0.096
-102.932	192.657	-0.180	0.271
-101.918	114.120	-0.148	-0.180
-100.903	156.947	-0.135	-0.186
-99.889	800.000	-0.061	-0.224
-98.874	454.188	0.086	-0.191
-97.859	-98.578	0.048	0.012
-96.845	39.145	-0.215	0.192
-95.830	-200.000	0.056	0.308
-94.816	100.880	-0.165	0.191
-93.801	-129.530	-0.035	-0.005
-92.786	113.308	-0.207	-0.250
-91.772	-41.413	-0.162	0.083
-90.757	-108.303	-0.105	-0.023
-89.743	-90.468	0.215	0.062
-88.728	227.648	-0.169	0.274
-87.713	-65.351	-0.103	0.041
-86.699	-85.366	0.229	-0.071
-85.684	555.763	-0.021	0.050
-84.670	-112.025	-0.302	0.061
-83.655	499.754	0.100	0.230
-82.640	-117.020	-0.122	-0.022
-81.626	-200.000	0.054	0.403
-80.611	-200.000	-0.027	-0.137
-79.597	-62.870	0.119	0.049
-78.582	800.000	-0.055	-0.185
-77.567	-134.381	0.364	-0.045
-76.553	-89.277	0.212	-0.062
-75.538	403.461	-0.051	-0.106
-74.524	-85.581	0.179	0.056
-73.509	434.270	0.120	0.260
-72.494	184.634	0.196	0.289
-71.480	-14.788	-0.180	0.115
-70.465	-200.000	0.007	0.147
-69.451	-16.828	-0.169	0.106
-68.436	-143.265	0.240	0.023
-67.422	-80.793	0.317	0.105
-66.407	-26.547	-0.044	-0.025
-65.392	800.000	-0.056	-0.175
-64.378	-21.448	-0.071	-0.043
-63.363	172.774	-0.064	0.092
-62.349	-57.967	0.204	0.089
-61.334	133.624	-0.824	-1.062
-60.319	101.642	0.268	0.311
-59.305	-200.000	0.142	-0.973
-58.290	216.880	0.471	0.746
-57.276	778.138	0.572	1.556
-56.261	-200.000	78.137	513.717
-55.246	486.982	1362.418	3096.188
-54.232	141.123	2611.858	3441.588
-53.217	111.801	2268.767	2728.706
-52.203	50.426	1712.498	1612.853
-51.188	42.727	1438.435	1304.983
-50.173	39.357	1393.271	1242.726
-49.159	57.040	1430.457	1389.082
-48.144	62.723	1449.080	1443.352
-47.130	43.171	1411.103	1282.809
-46.115	39.395	1394.174	1243.574
-45.100	39.120	1389.615	1237.726
-44.086	39.082	1386.859	1234.981
-43.071	38.958	1384.711	1232.241
-42.057	39.003	1382.463	1230.475
-41.042	39.123	1380.369	1229.318
-40.027	39.167	1379.185	1228.487
-39.013	39.117	1377.494	1226.617
-37.998	39.191	1374.992	1224.806
-36.984	39.243	1373.025	1223.330
-35.969	39.281	1371.328	1222.001
-34.954	39.270	1369.818	1220.537
-33.940	39.315	1368.507	1219.604
-32.925	39.396	1366.761	1218.497
-31.911	39.293	1365.890	1217.039
-30.896	39.251	1364.478	1215.474
-29.881	39.305	1362.497	1213.993
-28.867	39.295	1361.095	1212.634
-27.852	39.428	1359.313	1211.814
-26.838	39.428	1358.026	1210.623
-25.823	39.332	1356.662	1208.767
-24.809	39.252	1355.318	1207.032
-23.794	39.271	1354.342	1206.231
-22.779	39.339	1352.259	1204.742
-21.765	39.274	1350.643	1202.859
-20.750	39.314	1349.501	1202.039
-19.736	39.150	1348.429	1200.031
-18.721	39.168	1346.846	1198.688
-17.706	39.202	1345.705	1197.831
-16.692	39.306	1344.445	1197.292
-15.677	39.296	1343.122	1196.005
-14.663	39.087	1342.546	1194.175
-13.648	39.067	1341.458	1193.041
-12.633	39.050	1340.184	1191.759
-11.619	39.143	1339.090	1191.300
-10.604	39.144	1338.027	1190.316
-9.590	39.070	1337.146	1189.037
-8.575	39.097	1336.310	1188.407
-7.560	39.159	1335.527	1188.042
-6.546	39.096	1335.211	1187.328
-5.531	39.042	1333.843	1185.741
-4.517	39.131	1333.052	1185.525
-3.502	39.176	1331.897	1184.724
-2.487	39.161	1331.018	1183.803
-1.473	39.287	1327.379	1181.280
-0.458	38.712	1312.907	1164.936
0.556	34.280	1293.676	1124.314
1.571	29.237	1296.138	1096.439
2.586	26.754	1308.960	1092.247
3.600	24.342	1296.361	1067.222
4.615	17.165	1216.481	960.920
5.629	6.498	1131.637	837.407
6.644	1.303	1107.418	792.348
7.659	0.757	1104.847	787.594
8.673	0.590	1104.287	786.255
9.688	0.701	1102.694	785.630
10.702	0.926	1101.379	785.789
11.717	6.146	1108.430	817.964
12.731	14.741	1119.370	870.957
13.746	18.058	1122.991	891.022
14.761	17.517	1121.800	887.182
15.775	16.552	1120.180	880.798
16.790	15.641	1118.004	874.274
17.804	14.840	1116.514	868.867
18.819	14.397	1115.577	865.759
19.834	14.306	1113.843	863.867
20.848	13.863	1113.141	860.946
21.863	13.643	1112.230	859.025
22.877	13.525	1111.814	858.020
23.892	13.393	1111.192	856.777
24.907	13.433	1110.468	856.352
25.921	13.448	1109.361	855.502
26.936	13.510	1108.407	855.011
27.950	13.619	1107.260	854.609
28.965	13.740	1106.120	854.278
29.980	13.649	1105.199	853.022
30.994	13.787	1103.618	852.436
32.009	13.670	1103.198	851.434
33.023	13.680	1101.686	850.246
34.038	13.687	1100.769	849.497
35.053	13.678	1100.013	848.792
36.067	13.738	1098.593	847.928
37.082	13.810	1097.898	847.684
38.096	13.625	1097.519	846.376
39.111	13.685	1096.421	845.758
40.126	13.723	1094.926	844.721
41.140	13.507	1094.098	842.912
42.155	13.566	1092.734	842.087
43.169	13.556	1091.514	841.022
44.184	13.510	1090.338	839.805
45.199	13.484	1089.533	838.978
46.213	13.443	1088.763	838.104
47.228	13.560	1087.815	837.892
48.242	13.715	1086.254	837.398
49.257	13.590	1085.266	835.933
50.271	13.601	1084.527	835.346
51.286	13.716	1083.236	834.857
52.301	13.513	1082.797	833.422
53.315	13.592	1081.740	832.933
54.330	13.463	1080.800	831.489
55.344	13.562	1079.831	831.166
56.359	13.499	1079.134	830.239
57.374	13.582	1077.972	829.685
58.388	13.526	1077.161	828.707
59.403	13.530	1076.242	827.947
60.417	13.505	1074.994	826.789
61.432	13.478	1074.675	826.335
62.447	13.490	1073.838	825.681
63.461	13.522	1073.153	825.241
64.476	13.378	1071.900	823.486
65.490	13.460	1071.322	823.380
66.505	13.453	1070.560	822.683
67.520	13.504	1069.785	822.270
68.534	13.460	1069.433	821.709
69.549	13.546	1068.567	821.394
70.563	13.437	1067.944	820.303
71.578	13.436	1066.906	819.430
72.593	13.371	1066.341	818.602
73.607	13.308	1065.548	817.607
74.622	13.464	1064.754	817.701
75.636	13.405	1064.133	816.860
76.651	13.383	1063.290	816.032
77.666	13.280	1062.742	815.030
78.680	13.396	1061.821	814.821
79.695	13.443	1061.465	814.708
80.709	13.476	1061.176	814.578
81.724	13.480	1059.897	813.543
82.739	13.550	1059.017	813.138
83.753	13.589	1058.404	812.786
84.768	13.655	1057.427	812.291
85.782	13.696	1056.127	811.418
86.797	13.688	1055.371	810.726
87.812	13.629	1054.773	809.906
88.826	13.498	1053.804	808.453
89.841	13.716	1052.259	808.257
90.855	13.701	1051.448	807.491
91.870	13.727	1050.983	807.186
92.884	13.765	1050.009	806.554
93.899	13.744	1048.957	805.571
94.914	13.686	1048.429	804.815
95.928	13.672	1047.414	803.896
96.943	13.810	1046.148	803.521
97.957	13.663	1045.465	802.212
98.972	13.715	1045.128	802.137
99.987	13.685	1044.022	801.070
101.001	13.668	1042.908	800.062
102.016	13.660	1041.959	799.225
103.030	13.715	1041.167	798.812
104.045	13.551	1040.907	797.753
105.060	13.609	1039.891	797.181
106.074	13.565	1038.875	796.120
107.089	13.560	1037.688	795.119
108.103	13.576	1036.478	794.197
109.118	13.559	1035.617	793.384
110.133	13.568	1034.695	792.651
111.147	13.516	1034.037	791.830
112.162	13.511	1033.230	791.116
113.176	13.585	1032.529	790.862
114.191	13.696	1031.328	790.403
115.206	13.559	1030.644	789.157
116.220	13.570	1029.624	788.358
117.235	13.695	1028.611	788.107
118.249	13.608	1027.669	786.901
119.264	13.616	1027.350	786.628
120.279	13.650	1026.121	785.777
121.293	13.648	1025.108	784.923
122.308	13.541	1024.594	783.955
123.322	13.657	1023.435	783.544
124.337	13.643	1022.216	782.476
125.352	13.570	1021.223	781.301
126.366	13.550	1020.251	780.397
127.381	13.615	1019.242	779.860
128.395	13.587	1018.613	779.180
129.410	13.579	1017.496	778.219
130.424	13.639	1016.653	777.787
131.439	13.768	1015.681	777.577
132.454	13.727	1015.212	776.959
133.468	13.800	1014.163	776.429
134.483	13.783	1013.039	775.419
135.497	13.709	1012.445	774.549
136.512	13.828	1011.003	773.933
137.527	13.736	1010.949	773.397
138.541	13.772	1009.434	772.337
139.556	13.779	1009.060	772.015
140.570	13.745	1008.403	771.286
141.585	13.791	1007.611	770.822
142.600	13.860	1006.464	770.201
143.614	13.829	1005.619	769.339
144.629	13.827	1004.919	768.726
145.643	13.840	1003.827	767.886
146.658	13.908	1002.316	766.976
147.673	13.879	1001.825	766.395
148.687	13.789	1001.220	765.450
149.702	13.734	1000.265	764.402
150.716	13.771	999.122	763.629
151.731	13.892	998.197	763.411
152.746	13.887	997.740	762.972
153.760	13.871	997.323	762.511
154.775	13.849	996.749	761.904
155.789	13.956	996.123	761.848
156.804	13.957	995.308	761.162
157.819	13.871	994.815	760.323
158.833	13.953	993.771	759.832
159.848	14.046	992.873	759.504
160.862	13.962	992.241	758.571
161.877	14.011	990.792	757.621
162.892	13.926	989.845	756.442
163.906	13.996	988.695	755.816
164.921	13.826	988.548	754.864
165.935	13.873	987.283	754.042
166.950	13.961	986.246	753.582
167.964	14.000	985.404	753.049
168.979	13.988	984.495	752.235
169.994	14.089	983.720	752.033
171.008	13.995	983.024	751.009
172.023	14.020	982.433	750.603
173.037	13.992	981.624	749.793
174.052	14.038	980.931	749.405
175.067	14.008	980.055	748.532
176.081	13.992	979.539	748.002
177.096	14.054	979.532	748.211
178.110	14.018	978.521	747.210
179.125	14.107	977.656	746.881
180.140	14.015	977.445	746.240
181.154	14.155	976.969	746.440
182.169	14.066	976.478	745.602
183.183	14.132	975.763	745.283
184.198	14.148	975.058	744.753
185.213	14.177	973.959	743.977
186.227	14.240	973.221	743.630
187.242	14.235	972.977	743.355
188.256	14.243	972.348	742.841
189.271	14.348	971.175	742.349
190.286	14.302	970.515	741.575
191.300	14.128	969.957	740.307
192.315	14.124	969.358	739.765
193.329	14.077	968.943	739.174
194.344	14.168	968.066	738.843
195.359	14.368	967.151	738.969
196.373	14.284	966.717	738.200
197.388	14.297	966.415	737.963
198.402	14.308	966.004	737.631
199.417	14.508	964.856	737.573
200.432	14.533	964.089	737.032
201.446	14.455	963.987	736.545
202.461	14.362	963.697	735.847
203.475	14.404	962.746	735.239
204.490	14.438	962.184	734.897
205.504	14.477	960.886	734.013
206.519	14.443	960.291	733.344
207.534	14.440	959.652	732.776
208.548	14.414	958.866	731.996
209.563	14.524	958.059	731.800
210.577	14.611	957.312	731.548
211.592	14.544	956.867	730.849
212.607	14.507	956.012	729.969
213.621	14.529	955.494	729.604
214.636	14.609	954.399	729.052
215.650	14.651	953.621	728.577
216.665	14.650	952.941	727.987
217.680	14.724	952.343	727.790
218.694	14.621	952.036	727.043
219.709	14.713	951.121	726.679
220.723	14.801	950.190	726.284
221.738	14.742	949.288	725.277
222.753	14.671	949.298	724.911
223.767	14.749	948.570	724.632
224.782	14.865	947.526	724.270
225.796	14.821	947.232	723.790
226.811	14.815	946.684	723.285
227.826	14.874	945.973	722.930
228.840	14.831	945.111	722.024
229.855	14.894	944.120	721.472
230.869	14.786	943.483	720.456
231.884	14.764	942.684	719.688
232.899	14.919	941.726	719.561
233.913	14.757	940.943	718.203
234.928	14.749	940.337	717.643
235.942	14.783	939.803	717.317
236.957	14.822	939.761	717.389
237.972	14.823	938.973	716.726
238.986	14.904	938.283	716.484
240.001	14.814	937.602	715.516
241.015	14.919	936.748	715.250
242.030	15.025	935.985	715.057
243.045	14.885	935.609	714.108
244.059	14.980	934.773	713.812
245.074	14.932	934.583	713.401
246.088	15.005	933.540	712.850
247.103	15.012	932.735	712.203
248.117	15.128	932.192	712.219
249.132	15.178	931.348	711.723
250.147	15.281	930.442	711.406
251.161	15.150	930.150	710.561
252.176	15.151	929.554	710.048
253.190	15.199	929.243	709.953
254.205	15.277	928.214	709.432
255.220	15.226	927.483	708.596
256.234	15.302	926.898	708.407
257.249	15.283	926.553	708.002
258.263	15.278	925.217	706.898
259.278	15.293	924.671	706.482
260.293	15.367	923.920	706.154
261.307	15.294	923.885	705.760
262.322	15.319	922.935	705.075
263.336	15.456	922.155	704.992
264.351	15.423	921.395	704.211
265.366	15.555	921.004	704.402
266.380	15.586	919.828	703.573
267.395	15.503	919.264	702.729
268.409	15.628	918.357	702.499
269.424	15.528	917.692	701.511
270.439	15.550	917.091	701.078
271.453	15.601	916.383	700.690
272.468	15.569	915.691	699.966
273.482	15.380	915.632	699.070
274.497	15.530	914.776	698.977
275.512	15.510	914.366	698.521
276.526	15.674	913.856	698.750
277.541	15.533	913.632	697.932
278.555	15.712	912.374	697.652
279.570	15.691	911.668	696.965
280.585	15.696	910.985	696.399
281.599	15.668	910.298	695.698
282.614	15.675	909.692	695.201
283.628	15.638	909.034	694.483
284.643	15.740	908.354	694.325
285.657	15.664	907.836	693.553
286.672	15.745	907.057	693.230
287.687	15.703	906.498	692.568
288.701	15.703	906.114	692.214
289.716	15.797	905.211	691.851
290.730	15.730	904.520	690.987
291.745	15.958	903.962	691.435
292.760	16.041	902.969	690.954
293.774	15.875	902.725	690.027
294.789	15.876	902.094	689.489
295.803	15.832	901.292	688.631
296.818	15.914	900.488	688.295
297.833	15.942	900.002	687.975
298.847	15.927	899.484	687.457
299.862	15.940	898.759	686.896
300.876	15.935	898.227	686.407
301.891	16.132	897.179	686.347
302.906	16.067	896.755	685.699
303.920	16.072	896.331	685.332
304.935	16.031	895.786	684.688
305.949	16.126	895.011	684.420
306.964	16.166	894.328	683.999
307.979	16.163	893.723	683.465
308.993	16.162	893.181	682.986
310.008	16.334	892.396	683.022
311.022	16.240	892.087	682.344
312.037	16.087	891.425	681.160
313.052	16.176	890.586	680.818
314.066	16.102	890.091	680.079
315.081	16.079	889.702	679.632
316.095	16.164	889.063	679.426
317.110	16.180	888.443	678.955
318.125	16.037	888.227	678.153
319.139	16.195	887.277	678.003
320.154	16.181	887.464	678.032
321.168	16.285	886.266	677.471
322.183	16.253	885.691	676.845
323.197	16.309	885.111	676.566
324.212	16.222	884.672	675.823
325.227	16.372	883.900	675.772
326.241	16.265	883.465	674.955
327.256	16.467	882.819	675.205
328.270	16.301	882.325	674.107
329.285	16.245	881.740	673.376
330.300	16.259	881.096	672.883
331.314	16.288	880.319	672.345
332.329	16.382	880.077	672.474
333.343	16.343	879.653	671.936
334.358	16.301	879.304	671.442
335.373	16.430	878.587	671.349
336.387	16.417	878.171	670.918
337.402	16.521	877.918	671.078
338.416	16.492	877.770	670.792
339.431	16.572	877.398	670.766
340.446	16.599	876.602	670.202
341.460	16.541	876.347	669.718
342.475	16.591	876.140	669.701
343.489	16.603	875.627	669.298
344.504	16.640	874.868	668.802
345.519	16.724	874.310	668.650
346.533	16.786	873.846	668.478
347.548	16.568	873.388	667.212
348.562	16.699	872.954	667.335
349.577	16.840	871.756	666.915
350.592	16.697	871.549	666.137
351.606	16.726	870.442	665.345
352.621	16.710	870.191	665.031
353.635	16.796	869.214	664.562
354.650	16.794	868.738	664.134
355.665	16.803	867.947	663.506
356.679	16.751	867.657	663.021
357.694	16.748	867.040	662.477
358.708	16.793	866.204	661.959
359.723	16.788	865.983	661.708
360.738	17.016	864.756	661.601
361.752	16.787	864.418	660.392
362.767	17.069	863.451	660.693
363.781	16.962	863.474	660.236
364.796	16.914	862.742	659.432
365.810	16.981	862.112	659.153
366.825	17.057	862.057	659.347
367.840	17.139	861.314	659.040
368.854	17.109	861.174	658.757
369.869	17.112	860.710	658.355
370.883	17.036	859.951	657.421
371.898	17.133	859.905	657.706
372.913	17.064	859.451	657.033
373.927	17.119	859.001	656.842
374.942	17.082	858.398	656.178
375.956	17.059	858.194	655.878
376.971	17.388	856.874	656.081
377.986	17.269	857.000	655.660
379.000	17.381	856.333	655.521
380.015	17.338	855.582	654.723
381.029	17.376	854.973	654.346
382.044	17.429	854.468	654.107
383.059	17.366	853.893	653.366
384.073	17.331	853.567	652.925
385.088	17.429	852.672	652.560
386.102	17.366	852.149	651.858
387.117	17.297	851.635	651.142
388.132	17.249	851.526	650.819
389.146	17.474	850.614	650.923
390.161	17.526	850.210	650.758
391.175	17.581	849.335	650.240
392.190	17.487	848.781	649.399
393.205	17.360	848.725	648.815
394.219	17.416	847.981	648.400
395.234	17.464	847.569	648.211
396.248	17.497	847.118	647.934
397.263	17.420	846.851	647.380
398.278	17.368	846.815	647.096
399.292	17.274	846.370	646.344
400.307	17.444	845.741	646.451
401.321	17.451	844.964	645.826
402.336	17.571	844.092	645.558
403.350	17.535	844.013	645.303
404.365	17.479	843.641	644.749
405.380	17.646	842.975	644.816
406.394	17.697	842.634	644.690
407.409	17.564	842.113	643.733
408.423	17.728	841.900	644.132
409.438	17.824	841.426	644.077
410.453	17.724	840.957	643.281
411.467	17.778	840.546	643.114
412.482	17.790	839.880	642.593
413.496	17.915	839.346	642.598
414.511	17.738	839.424	641.935
415.526	17.873	839.058	642.106
416.540	17.942	838.014	641.510
417.555	17.929	837.693	641.157
418.569	17.946	837.759	641.215
419.584	17.883	836.966	640.317
420.599	17.860	836.443	639.773
421.613	95.058	1274.405	1393.538
422.628	82.219	1338.235	1393.672
