DTS Sentinel unit serial number:	SN413079Multiplexer serial number:	ORYXHardware model number:	OX4-SRSoftware version number:	ORYX F/W v4.00 Oryx Data Collector v3.7.2.0data status	okinstallation	princeton_trtdifferential loss correction	single-endedforward channel	channel 1reverse channel	N/Adate	2019/09/13time	16:22:35forward acquisition time	60.00reverse acquisition time	0.00gamma	496.2192k internal	0.2303k external	0.2303temperature offset calibration	1.0158default loss term (dB/km)	0.3790temperature slope calibration	1.0000multiplexer offset coefficient	1.0000multiplexer slope coefficient	1.0000fibre end	0.00T internal ref (°C)	35.00T ext. ref 1 (°C)	4.86T ext. ref 2 (°C)	31.12length (m)	temperature (°C)	Stokes	anti-Stokes-747.200	17.052	0.086	-0.069
-746.185	-2.159	-0.201	-0.143
-745.171	396.849	0.159	-0.338
-744.156	-57.160	-0.146	-0.065
-743.142	133.131	0.143	-0.189
-742.127	-48.905	-0.229	0.112
-741.112	-80.854	0.098	0.033
-740.098	786.427	-0.065	0.181
-739.083	-94.417	-0.120	0.033
-738.069	800.000	-0.075	0.332
-737.054	27.430	-0.081	-0.069
-736.039	-200.000	0.066	-0.372
-735.025	49.244	0.241	-0.231
-734.010	-47.399	-0.328	-0.163
-732.996	-124.890	-0.184	-0.029
-731.981	-9.557	0.103	0.070
-730.966	-142.739	-0.320	-0.032
-729.952	72.456	0.206	-0.218
-728.937	128.497	-0.152	-0.197
-727.923	-156.606	-0.352	-0.022
-726.908	277.875	0.025	-0.046
-725.894	-77.248	-0.253	-0.090
-724.879	93.139	0.250	0.287
-723.864	253.941	-0.095	-0.165
-722.850	-22.853	-0.017	0.011
-721.835	-127.459	0.258	-0.038
-720.821	46.386	-0.035	-0.033
-719.806	-162.299	-0.338	0.017
-718.791	-146.363	-0.175	0.016
-717.777	100.382	-0.040	0.047
-716.762	34.300	-0.159	-0.141
-715.748	-11.133	-0.252	-0.169
-714.733	390.281	-0.095	0.199
-713.718	-135.526	0.171	-0.021
-712.704	346.721	-0.101	-0.201
-711.689	-200.000	0.077	0.370
-710.675	-178.677	-0.324	0.008
-709.660	-98.713	0.322	-0.084
-708.645	-122.126	-0.296	0.049
-707.631	576.518	0.091	0.227
-706.616	145.377	-0.078	-0.106
-705.602	-54.372	0.146	0.067
-704.587	-200.000	0.039	-0.227
-703.572	-200.000	0.002	-0.336
-702.558	800.000	-0.062	-0.202
-701.543	800.000	0.013	-0.050
-700.529	177.285	-0.040	0.060
-699.514	-46.236	-0.209	0.104
-698.499	-32.939	-0.211	0.119
-697.485	-141.210	-0.041	-0.004
-696.470	493.115	0.051	0.118
-695.456	256.373	-0.158	-0.275
-694.441	361.966	-0.035	-0.071
-693.426	-73.253	0.433	0.161
-692.412	207.601	0.240	-0.380
-691.397	800.000	-0.066	0.230
-690.383	800.000	-0.047	-0.151
-689.368	207.038	-0.017	0.027
-688.354	22.631	-0.339	-0.282
-687.339	-94.699	0.246	0.068
-686.324	212.293	-0.111	-0.178
-685.310	369.399	-0.201	-0.414
-684.295	-120.440	-0.327	-0.056
-683.281	167.268	0.113	0.163
-682.266	-46.685	0.140	-0.070
-681.251	331.845	0.105	-0.206
-680.237	121.723	0.174	0.221
-679.222	21.226	0.178	-0.147
-678.208	379.366	0.189	-0.394
-677.193	180.222	-0.079	0.118
-676.178	140.154	-0.127	-0.170
-675.164	-60.887	0.056	-0.024
-674.149	545.346	-0.074	0.180
-673.135	-78.894	-0.108	-0.038
-672.120	-200.000	0.006	0.221
-671.105	-148.809	-0.182	-0.015
-670.091	139.747	0.048	0.064
-669.076	9.033	-0.255	0.196
-668.062	-150.117	0.059	-0.005
-667.047	21.604	-0.109	0.090
-666.032	120.452	0.072	0.091
-665.018	800.000	-0.099	0.377
-664.003	-200.000	-0.009	0.238
-662.989	164.959	-0.150	0.215
-661.974	-148.658	0.164	-0.014
-660.959	800.000	-0.099	-0.331
-659.945	-200.000	-0.029	-0.162
-658.930	61.861	0.090	-0.091
-657.916	-101.247	-0.132	-0.033
-656.901	-71.368	-0.149	0.056
-655.886	-200.000	-0.020	0.136
-654.872	-92.469	-0.117	-0.033
-653.857	663.291	-0.079	-0.208
-652.843	800.000	0.016	-0.068
-651.828	-200.000	-0.016	0.278
-650.814	-89.301	0.053	-0.016
-649.799	220.171	0.056	-0.090
-648.784	-200.000	0.264	0.000
-647.770	-93.447	-0.324	0.091
-646.755	164.013	-0.037	0.054
-645.741	667.203	-0.149	-0.392
-644.726	255.067	0.168	-0.291
-643.711	-200.000	-0.082	-0.385
-642.697	-154.088	0.236	0.016
-641.682	69.385	-0.109	0.114
-640.668	-86.456	-0.157	0.049
-639.653	-37.424	0.128	-0.069
-638.638	143.233	-0.133	0.180
-637.624	-200.000	0.014	0.083
-636.609	800.000	0.037	-0.120
-635.595	-82.578	-0.293	0.096
-634.580	-105.646	-0.201	-0.046
-633.565	-67.468	0.227	-0.090
-632.551	-64.304	-0.280	-0.116
-631.536	800.000	-0.098	-0.420
-630.522	669.623	-0.151	-0.397
-629.507	-143.302	-0.090	0.009
-628.492	-59.597	0.201	-0.087
-627.478	312.321	0.031	0.059
-626.463	-200.000	0.053	-0.444
-625.449	800.000	0.105	-0.313
-624.434	-21.333	0.054	0.033
-623.419	219.584	0.100	0.162
-622.405	598.296	0.068	-0.172
-621.390	-52.543	0.254	0.119
-620.376	-200.000	0.016	-0.184
-619.361	48.409	0.095	-0.090
-618.346	61.299	0.079	-0.079
-617.332	227.031	-0.048	0.080
-616.317	-52.342	0.184	0.086
-615.303	800.000	0.139	-0.609
-614.288	800.000	0.064	0.192
-613.273	-56.621	-0.072	-0.032
-612.259	800.000	-0.047	-0.157
-611.244	185.560	0.199	-0.299
-610.230	-33.091	-0.172	-0.096
-609.215	-200.000	-0.038	-0.225
-608.201	-147.366	0.244	0.021
-607.186	-200.000	0.017	-0.143
-606.171	1.075	0.115	0.084
-605.157	109.005	-0.123	-0.149
-604.142	-64.518	-0.179	-0.073
-603.128	-69.652	0.196	-0.076
-602.113	-200.000	0.004	0.131
-601.098	70.063	-0.296	0.309
-600.084	-32.035	0.125	0.071
-599.069	-56.720	-0.068	-0.030
-598.055	-97.690	0.263	0.069
-597.040	-62.220	0.210	-0.089
-596.025	-200.000	-0.002	-0.029
-595.011	-163.842	0.109	0.005
-593.996	-200.000	0.012	-0.124
-592.982	-96.029	-0.161	-0.043
-591.967	-82.062	-0.202	-0.067
-590.952	-20.565	0.330	0.205
-589.938	-76.137	-0.230	0.082
-588.923	22.209	-0.078	0.064
-587.909	56.744	-0.060	0.059
-586.894	107.433	-0.162	0.195
-585.879	-110.508	0.275	0.058
-584.865	27.914	0.150	0.128
-583.850	266.100	-0.052	0.092
-582.836	800.000	0.064	-0.203
-581.821	-65.537	-0.201	-0.082
-580.806	-200.000	0.038	-0.245
-579.792	-200.000	-0.032	-0.303
-578.777	19.264	-0.052	-0.042
-577.763	-107.622	-0.286	0.063
-576.748	38.580	-0.202	-0.182
-575.733	222.680	0.132	-0.214
-574.719	130.377	0.171	-0.221
-573.704	-108.892	0.068	0.015
-572.690	800.000	0.018	-0.070
-571.675	-200.000	0.070	0.335
-570.661	327.493	0.045	0.088
-569.646	-200.000	0.027	0.166
-568.631	-200.000	-0.003	-0.305
-567.617	-5.123	-0.265	-0.184
-566.602	-40.916	0.021	-0.011
-565.588	220.123	0.104	0.169
-564.573	800.000	0.117	0.345
-563.558	181.405	-0.088	0.131
-562.544	-141.748	-0.322	-0.033
-561.529	-151.881	0.378	-0.028
-560.515	-2.870	-0.088	0.062
-559.500	258.796	-0.109	0.191
-558.485	560.207	-0.109	-0.266
-557.471	-200.000	0.019	-0.138
-556.456	114.748	-0.252	0.311
-555.442	-48.859	-0.149	0.072
-554.427	-200.000	-0.018	-0.080
-553.412	-80.360	-0.236	0.080
-552.398	205.361	0.076	0.120
-551.383	-77.170	0.330	0.116
-550.369	-200.000	-0.051	-0.270
-549.354	800.000	0.117	-0.365
-548.339	-138.380	-0.241	-0.027
-547.325	5.670	0.087	-0.065
-546.310	-39.989	-0.242	-0.128
-545.296	-105.362	0.166	-0.038
-544.281	-28.089	0.247	-0.144
-543.266	-151.032	-0.075	0.006
-542.252	514.042	0.104	-0.245
-541.237	122.414	-0.226	0.286
-540.223	-132.464	-0.199	0.026
-539.208	-109.781	-0.175	0.037
-538.193	-200.000	0.039	0.203
-537.179	305.586	-0.058	-0.109
-536.164	800.000	-0.014	-0.055
-535.150	-86.888	-0.171	0.053
-534.135	800.000	-0.034	0.109
-533.121	-200.000	0.027	-0.282
-532.106	-101.823	-0.240	-0.059
-531.091	20.023	0.035	-0.028
-530.077	59.258	-0.231	-0.230
-529.062	-131.178	-0.363	-0.049
-528.048	219.893	-0.219	-0.354
-527.033	107.846	0.148	-0.178
-526.018	-79.335	0.436	0.149
-525.004	71.179	0.154	-0.161
-523.989	25.869	-0.042	0.035
-522.975	669.105	0.083	0.218
-521.960	-58.313	0.390	0.171
-520.945	-66.075	-0.100	0.040
-519.931	-200.000	0.019	0.103
-518.916	30.333	-0.253	-0.218
-517.902	-3.698	0.376	-0.264
-516.887	-157.670	-0.110	0.007
-515.872	140.918	0.162	0.217
-514.858	800.000	-0.060	0.167
-513.843	106.456	-0.138	0.165
-512.829	261.150	-0.146	0.255
-511.814	107.512	0.154	0.185
-510.799	-29.802	-0.128	0.074
-509.785	-63.502	0.102	-0.042
-508.770	-200.000	-0.005	-0.095
-507.756	-75.807	-0.059	-0.021
-506.741	-113.187	0.041	-0.008
-505.726	-200.000	-0.048	-0.331
-504.712	71.210	-0.461	-0.483
-503.697	800.000	-0.048	0.197
-502.683	800.000	0.112	0.382
-501.668	-130.224	-0.203	0.028
-500.653	-200.000	0.030	-0.139
-499.639	735.851	0.031	0.085
-498.624	115.603	0.160	-0.197
-497.610	202.546	0.245	0.381
-496.595	-14.857	0.274	0.177
-495.581	-18.936	-0.209	0.131
-494.566	-101.956	-0.188	-0.046
-493.551	800.000	-0.062	0.220
-492.537	312.147	0.065	-0.123
-491.522	-200.000	-0.017	-0.089
-490.508	251.723	-0.195	0.334
-489.493	225.013	-0.111	-0.181
-488.478	-200.000	0.007	0.147
-487.464	64.315	-0.120	0.122
-486.449	158.646	-0.204	0.286
-485.435	-200.000	0.008	-0.112
-484.420	-23.800	0.252	-0.152
-483.405	-200.000	-0.041	-0.209
-482.391	-43.524	-0.088	0.045
-481.376	560.634	-0.111	-0.272
-480.362	-35.394	0.126	-0.069
-479.347	-41.612	-0.356	0.184
-478.332	-200.000	-0.008	0.349
-477.318	20.586	0.131	0.107
-476.303	126.729	-0.121	-0.154
-475.289	135.219	0.036	-0.047
-474.274	538.224	0.093	0.224
-473.259	161.026	0.154	0.217
-472.245	-52.813	0.186	0.086
-471.230	-119.439	0.203	-0.036
-470.216	-200.000	-0.008	-0.106
-469.201	134.082	0.155	0.203
-468.186	18.965	-0.180	0.146
-467.172	26.419	0.301	0.254
-466.157	800.000	0.059	-0.229
-465.143	-44.876	0.253	0.127
-464.128	800.000	-0.052	0.155
-463.113	-111.622	-0.080	-0.016
-462.099	-97.317	0.328	0.086
-461.084	86.754	0.230	0.256
-460.070	-153.800	-0.035	0.002
-459.055	-200.000	0.013	-0.100
-458.040	191.673	-0.200	0.304
-457.026	750.277	0.110	0.300
-456.011	-200.000	-0.012	-0.303
-454.997	-40.864	0.373	0.195
-453.982	294.234	0.121	0.223
-452.968	-200.000	-0.033	-0.171
-451.953	800.000	-0.084	-0.285
-450.938	800.000	0.017	-0.054
-449.924	-142.013	0.153	0.015
-448.909	-17.274	0.216	0.137
-447.895	-85.031	0.108	-0.034
-446.880	248.379	-0.163	-0.277
-445.865	20.928	-0.219	-0.178
-444.851	-200.000	0.074	-0.409
-443.836	289.703	-0.090	-0.164
-442.822	800.000	0.037	-0.106
-441.807	185.005	0.121	-0.180
-440.792	180.701	0.114	0.168
-439.778	-87.299	-0.190	0.058
-438.763	-200.000	-0.004	-0.279
-437.749	-145.710	-0.050	0.005
-436.734	800.000	-0.079	-0.257
-435.719	-68.597	-0.327	-0.127
-434.705	-39.438	0.123	-0.065
-433.690	216.125	0.118	0.189
-432.676	208.189	-0.027	0.043
-431.661	-142.951	0.258	0.025
-430.646	77.719	0.108	0.116
-429.632	-108.191	0.175	-0.038
-428.617	51.179	0.207	-0.198
-427.603	229.713	-0.052	0.086
-426.588	-200.000	0.016	0.098
-425.573	-72.969	-0.012	0.005
-424.559	-65.744	-0.540	-0.217
-423.544	351.768	0.098	0.196
-422.530	-15.410	0.257	0.165
-421.515	-149.191	-0.167	-0.013
-420.500	190.513	0.146	0.221
-419.486	-46.041	0.309	0.153
-418.471	112.119	-0.162	-0.197
-417.457	194.455	0.103	0.157
-416.442	800.000	0.079	-0.225
-415.428	145.720	0.129	0.174
-414.413	-25.671	-0.043	-0.025
-413.398	-58.924	0.214	0.093
-412.384	23.164	-0.121	-0.100
-411.369	-200.000	0.029	0.163
-410.355	-200.000	-0.059	0.373
-409.340	-142.370	-0.239	0.024
-408.325	800.000	0.006	0.023
-407.311	348.531	-0.129	0.255
-406.296	655.927	0.037	0.096
-405.282	39.432	0.319	-0.288
-404.267	13.221	-0.224	-0.174
-403.252	-27.328	-0.328	0.192
-402.238	-82.807	-0.126	0.041
-401.223	800.000	0.123	-0.443
-400.209	-36.192	-0.310	-0.168
-399.194	-200.000	-0.018	0.141
-398.179	21.160	-0.096	0.079
-397.165	563.425	0.148	-0.360
-396.150	439.717	-0.150	-0.330
-395.136	-81.064	-0.368	-0.122
-394.121	-200.000	-0.032	0.242
-393.106	-194.529	0.272	-0.002
-392.092	-31.736	-0.020	0.011
-391.077	-200.000	0.011	-0.053
-390.063	522.136	0.149	-0.351
-389.048	17.147	0.312	-0.248
-388.033	716.539	-0.063	-0.167
-387.019	180.566	0.097	0.143
-386.004	-199.135	-0.196	-0.001
-384.990	-191.011	-0.137	-0.001
-383.975	-178.121	-0.313	-0.007
-382.960	-94.735	-0.125	-0.034
-381.946	563.070	-0.065	0.158
-380.931	-142.579	-0.443	-0.044
-379.917	27.785	0.033	-0.028
-378.902	-200.000	0.008	0.067
-377.888	-22.990	-0.154	-0.093
-376.873	-146.828	0.289	-0.025
-375.858	800.000	-0.073	-0.242
-374.844	-200.000	-0.069	0.330
-373.829	379.194	-0.213	0.438
-372.815	104.641	-0.172	-0.203
-371.800	-86.938	-0.333	0.102
-370.785	337.840	-0.131	0.256
-369.771	-200.000	-0.018	-0.173
-368.756	-37.611	-0.299	0.160
-367.742	-200.000	-0.043	0.237
-366.727	-200.000	0.011	0.215
-365.712	-17.105	-0.402	0.255
-364.698	16.788	-0.268	0.212
-363.683	-89.349	-0.048	0.014
-362.669	151.965	0.055	0.075
-361.654	-200.000	0.190	0.000
-360.639	48.600	0.090	-0.085
-359.625	-200.000	-0.026	-0.166
-358.610	-50.894	0.113	-0.053
-357.596	-109.167	-0.159	0.034
-356.581	-200.000	0.034	-0.292
-355.566	800.000	0.052	0.148
-354.552	-113.271	0.116	-0.023
-353.537	-90.848	0.148	-0.043
-352.523	-108.836	0.148	0.032
-351.508	183.687	0.148	-0.220
-350.493	-200.000	0.047	-0.255
-349.479	-71.655	-0.312	-0.117
-348.464	188.330	0.072	0.108
-347.450	126.223	-0.091	-0.116
-346.435	-30.999	-0.240	0.136
-345.420	-87.703	0.302	0.091
-344.406	35.318	0.263	-0.231
-343.391	-153.031	0.139	-0.010
-342.377	-200.000	-0.032	-0.163
-341.362	-200.000	-0.007	-0.074
-340.348	-41.292	0.284	0.147
-339.333	-200.000	0.018	-0.148
-338.318	-66.053	0.162	0.065
-337.304	800.000	-0.071	-0.307
-336.289	384.397	-0.075	0.155
-335.275	423.189	0.086	0.185
-334.260	-66.035	0.207	-0.083
-333.245	119.168	-0.150	0.186
-332.231	800.000	-0.035	0.103
-331.216	-200.000	0.007	0.087
-330.202	-168.712	0.128	-0.005
-329.187	800.000	0.029	-0.101
-328.172	-108.223	0.356	-0.077
-327.158	-164.458	0.309	-0.014
-326.143	277.847	0.069	-0.123
-325.129	3.586	0.201	0.147
-324.114	509.825	0.043	0.100
-323.099	-200.000	0.016	0.372
-322.085	19.656	0.138	0.111
-321.070	-200.000	-0.000	0.109
-320.056	101.741	0.078	-0.091
-319.041	800.000	-0.162	0.467
-318.026	113.246	0.202	-0.246
-317.012	265.385	0.060	-0.104
-315.997	308.841	-0.023	0.043
-314.983	-39.166	-0.198	0.104
-313.968	178.372	0.211	-0.308
-312.953	311.064	-0.066	-0.124
-311.939	-143.070	-0.315	0.031
-310.924	58.981	0.253	0.249
-309.910	661.839	-0.029	-0.074
-308.895	-200.000	-0.020	0.230
-307.880	-118.749	0.287	0.051
-306.866	-107.185	-0.104	-0.023
-305.851	-200.000	0.034	-0.162
-304.837	341.762	0.109	0.213
-303.822	333.672	0.115	0.223
-302.807	26.276	-0.264	0.221
-301.793	23.187	-0.288	0.237
-300.778	-200.000	0.027	0.129
-299.764	-83.670	0.035	0.011
-298.749	25.476	-0.168	-0.140
-297.735	-106.540	-0.040	-0.009
-296.720	35.131	-0.095	-0.083
-295.705	-160.728	0.141	0.007
-294.691	-64.032	0.212	0.087
-293.676	-81.294	-0.265	0.087
-292.662	225.517	-0.072	0.117
-291.647	-23.499	0.224	-0.135
-290.632	41.950	0.315	-0.286
-289.618	-200.000	0.017	-0.166
-288.603	-24.383	0.170	0.101
-287.589	280.270	-0.041	0.073
-286.574	-99.750	0.230	-0.058
-285.559	-195.444	-0.229	0.002
-284.545	-67.527	-0.154	0.061
-283.530	18.666	0.075	-0.060
-282.516	-9.932	0.215	-0.143
-281.501	36.534	0.087	0.077
-280.486	-124.016	-0.378	0.059
-279.472	-200.000	-0.025	0.111
-278.457	-50.192	-0.458	0.217
-277.443	321.955	-0.042	0.079
-276.428	-99.491	-0.139	-0.035
-275.413	-101.049	0.348	-0.085
-274.399	186.102	-0.041	-0.062
-273.384	-68.414	-0.048	-0.019
-272.370	-56.565	-0.181	-0.080
-271.355	-175.563	-0.260	0.007
-270.340	-55.865	-0.094	0.042
-269.326	-45.380	0.064	-0.032
-268.311	-200.000	-0.028	-0.306
-267.297	70.103	-0.186	0.192
-266.282	-21.108	-0.439	0.268
-265.267	483.107	0.080	-0.181
-264.253	35.752	0.180	0.158
-263.238	800.000	-0.078	-0.217
-262.224	-143.536	0.192	0.018
-261.209	800.000	0.059	0.182
-260.195	-100.808	0.122	-0.030
-259.180	-40.433	0.274	0.142
-258.165	403.914	-0.097	0.204
-257.151	-200.000	0.023	0.153
-256.136	-96.688	-0.270	-0.071
-255.122	-145.129	-0.199	0.018
-254.107	7.228	-0.034	0.025
-253.092	-64.886	0.018	-0.007
-252.078	800.000	0.078	0.222
-251.063	52.993	-0.171	-0.163
-250.049	-83.757	-0.077	0.024
-249.034	97.715	0.119	0.136
-248.019	-31.273	0.412	0.232
-247.005	433.493	0.073	0.158
-245.990	-22.674	0.236	-0.143
-244.976	-85.261	0.056	-0.017
-243.961	40.026	0.292	-0.262
-242.946	16.847	0.292	-0.231
-241.932	167.646	0.123	-0.175
-240.917	-200.000	-0.006	-0.271
-239.903	-56.427	0.243	-0.108
-238.888	-79.908	-0.189	-0.064
-237.873	800.000	0.040	0.124
-236.859	198.636	-0.204	-0.311
-235.844	226.764	0.111	-0.180
-234.830	-48.042	-0.120	-0.058
-233.815	161.481	-0.141	0.197
-232.800	-180.310	-0.067	0.001
-231.786	-200.000	-0.067	0.307
-230.771	145.911	-0.086	-0.115
-229.757	120.716	0.090	0.112
-228.742	800.000	0.064	0.271
-227.727	175.455	0.262	-0.380
-226.713	-200.000	-0.015	-0.134
-225.698	-158.245	0.219	0.013
-224.684	334.088	0.050	0.097
-223.669	109.601	0.199	-0.238
-222.655	336.647	0.087	0.168
-221.640	-150.294	-0.110	-0.008
-220.625	-200.000	0.017	-0.206
-219.611	183.853	0.232	-0.343
-218.596	-200.000	-0.065	-0.416
-217.582	359.296	0.007	0.013
-216.567	-200.000	-0.003	0.018
-215.552	-34.321	0.083	-0.045
-214.538	12.427	-0.103	0.079
-213.523	-200.000	0.034	0.169
-212.509	73.493	-0.091	0.095
-211.494	235.842	-0.140	0.231
-210.479	-59.401	0.367	0.157
-209.465	187.364	0.131	-0.195
-208.450	-58.887	0.079	-0.034
-207.436	91.831	-0.140	0.158
-206.421	800.000	-0.063	-0.237
-205.406	340.259	0.072	-0.139
-204.392	28.593	-0.211	0.178
-203.377	7.165	-0.257	-0.191
-202.363	-91.344	-0.248	0.071
-201.348	45.343	-0.209	0.192
-200.333	7.112	0.106	0.079
-199.319	800.000	-0.083	0.274
-198.304	-200.000	0.012	0.206
-197.290	-78.210	0.244	-0.083
-196.275	-42.414	-0.344	0.175
-195.260	101.511	-0.023	0.027
-194.246	-57.137	-0.211	0.092
-193.231	-32.478	0.300	0.167
-192.217	-200.000	-0.007	-0.144
-191.202	34.864	0.050	0.043
-190.187	-60.822	0.213	0.090
-189.173	-200.000	-0.037	-0.195
-188.158	-74.289	0.228	0.082
-187.144	131.276	0.129	-0.165
-186.129	800.000	0.029	0.090
-185.114	56.204	0.211	0.204
-184.100	-145.600	0.104	-0.009
-183.085	190.065	-0.105	-0.158
-182.071	-200.000	0.048	0.518
-181.056	-197.163	0.068	0.000
-180.042	51.534	0.049	0.046
-179.027	-200.000	0.045	0.401
-178.012	-12.152	-0.225	0.147
-176.998	800.000	0.060	0.238
-175.983	-82.820	0.134	-0.043
-174.969	62.083	0.148	0.147
-173.954	-200.000	0.018	-0.126
-172.939	-145.014	0.087	0.008
-171.925	-17.943	-0.307	0.192
-170.910	11.466	-0.090	0.069
-169.896	-200.000	0.017	0.116
-168.881	-40.153	0.094	-0.049
-167.866	-5.828	-0.221	-0.150
-166.852	-173.367	-0.227	-0.007
-165.837	-200.000	0.025	-0.447
-164.823	-200.000	0.002	0.228
-163.808	496.976	0.070	-0.161
-162.793	112.613	0.085	0.102
-161.779	-50.585	-0.156	0.073
-160.764	274.833	-0.134	0.236
-159.750	800.000	0.106	0.314
-158.735	-141.350	-0.162	0.016
-157.720	207.705	-0.140	-0.217
-156.706	253.547	0.075	0.128
-155.691	-97.263	-0.340	-0.088
-154.677	800.000	-0.047	-0.167
-153.662	-73.552	0.069	-0.025
-152.647	51.918	-0.203	0.192
-151.633	-200.000	0.057	0.305
-150.618	371.753	-0.193	0.389
-149.604	-177.126	0.237	-0.006
-148.589	24.923	0.280	-0.231
-147.574	-83.871	0.120	-0.038
-146.560	-200.000	0.000	-0.239
-145.545	17.974	0.125	-0.099
-144.531	131.244	0.138	-0.176
-143.516	-172.922	-0.085	-0.003
-142.502	213.476	0.173	0.272
-141.487	102.433	-0.113	-0.132
-140.472	-112.029	0.161	-0.032
-139.458	-38.637	0.069	-0.036
-138.443	296.240	-0.079	-0.144
-137.429	47.550	0.071	0.065
-136.414	-88.532	-0.262	-0.078
-135.399	-9.478	0.255	0.169
-134.385	383.841	0.037	0.075
-133.370	-18.072	0.026	-0.016
-132.356	90.724	0.295	-0.328
-131.341	31.364	-0.122	0.104
-130.326	-67.365	0.186	-0.073
-129.312	395.088	-0.085	0.176
-128.297	800.000	-0.033	0.136
-127.283	-98.055	-0.296	0.076
-126.268	-124.940	0.136	0.021
-125.253	-112.760	0.221	0.044
-124.239	-122.254	-0.250	-0.041
-123.224	101.996	-0.216	-0.251
-122.210	-137.207	0.202	-0.023
-121.195	-66.192	-0.092	-0.036
-120.180	233.656	-0.069	-0.113
-119.166	-200.000	-0.007	0.157
-118.151	-140.354	-0.344	-0.036
-117.137	-51.702	0.150	0.069
-116.122	-91.630	0.080	-0.023
-115.107	244.541	0.068	0.113
-114.093	-200.000	0.002	-0.168
-113.078	172.735	-0.099	-0.142
-112.064	-36.757	0.303	0.162
-111.049	-162.042	-0.492	-0.025
-110.034	-106.444	-0.189	-0.042
-109.020	-165.476	0.392	-0.017
-108.005	-113.799	-0.139	0.027
-106.991	243.029	-0.319	0.531
-105.976	800.000	0.010	0.030
-104.962	439.497	0.186	0.403
-103.947	-124.374	-0.121	0.019
-102.932	-103.277	0.092	-0.021
-101.918	-123.216	0.403	-0.064
-100.903	-122.719	0.181	0.029
-99.889	177.781	-0.152	0.220
-98.874	-146.522	0.293	0.025
-97.859	-21.661	0.377	0.228
-96.845	-52.172	-0.095	0.044
-95.830	-197.102	-0.184	0.001
-94.816	-96.344	0.404	-0.106
-93.801	270.993	0.115	-0.202
-92.786	-120.378	-0.370	0.063
-91.772	-18.245	0.324	0.201
-90.757	-106.391	0.327	-0.073
-89.743	-200.000	0.044	-0.407
-88.728	402.605	0.056	-0.117
-87.713	800.000	0.142	-0.617
-86.699	-200.000	0.047	-0.214
-85.684	-71.078	0.402	-0.150
-84.670	276.380	0.031	-0.055
-83.655	218.720	-0.126	0.200
-82.640	-103.733	0.221	0.051
-81.626	187.536	0.101	0.150
-80.611	146.618	-0.067	-0.089
-79.597	33.394	0.197	-0.170
-78.582	800.000	0.069	0.209
-77.567	-36.546	0.174	0.093
-76.553	-200.000	-0.011	-0.099
-75.538	88.343	-0.176	-0.194
-74.524	696.103	0.181	0.471
-73.509	-111.133	-0.245	0.050
-72.494	28.606	0.063	-0.053
-71.480	-37.917	0.083	-0.044
-70.465	800.000	0.079	-0.252
-69.451	-140.819	-0.375	0.038
-68.436	-39.364	-0.348	0.181
-67.422	-40.815	0.339	-0.174
-66.407	105.571	0.107	0.126
-65.392	297.603	0.107	0.195
-64.378	-9.499	-0.033	0.022
-63.363	-98.068	-0.187	-0.048
-62.349	370.197	-0.047	0.095
-61.334	137.179	-0.854	-1.107
-60.319	155.320	0.172	0.235
-59.305	608.837	-0.358	-0.887
-58.290	222.842	0.525	0.838
-57.276	800.000	0.499	1.717
-56.261	-200.000	95.117	566.372
-55.246	646.337	1378.463	3490.824
-54.232	187.340	2594.111	3836.090
-53.217	124.404	2185.678	2725.095
-52.203	46.991	1638.992	1511.040
-51.188	38.587	1373.396	1214.314
-50.173	35.204	1331.056	1156.454
-49.159	56.047	1379.299	1326.860
-48.144	60.567	1397.315	1371.858
-47.130	38.690	1352.156	1195.968
-46.115	35.101	1334.179	1158.362
-45.100	34.977	1329.266	1153.306
-44.086	34.891	1327.188	1150.939
-43.071	34.872	1324.774	1148.686
-42.057	34.727	1322.820	1146.075
-41.042	34.891	1320.923	1145.366
-40.027	34.910	1318.884	1143.668
-39.013	34.841	1317.531	1142.036
-37.998	35.011	1315.047	1140.853
-36.984	35.099	1313.432	1139.928
-35.969	35.064	1311.968	1138.405
-34.954	35.077	1310.220	1136.921
-33.940	35.057	1308.927	1135.634
-32.925	35.118	1307.273	1134.517
-31.911	35.112	1305.889	1133.238
-30.896	35.094	1304.806	1132.145
-29.881	35.147	1303.164	1130.989
-28.867	35.108	1301.852	1129.576
-27.852	35.139	1300.301	1128.364
-26.838	35.129	1298.987	1127.124
-25.823	35.167	1297.617	1126.114
-24.809	35.107	1296.031	1124.339
-23.794	35.057	1294.816	1122.948
-22.779	35.011	1293.411	1121.415
-21.765	35.085	1292.250	1120.796
-20.750	35.048	1290.727	1119.217
-19.736	34.983	1289.450	1117.684
-18.721	34.926	1288.624	1116.588
-17.706	35.014	1286.855	1115.528
-16.692	34.949	1285.640	1114.049
-15.677	34.978	1284.775	1113.424
-14.663	34.916	1283.663	1112.055
-13.648	34.975	1282.241	1111.124
-12.633	34.839	1281.675	1109.796
-11.619	34.919	1281.008	1109.644
-10.604	34.921	1279.970	1108.708
-9.590	34.948	1278.832	1107.838
-8.575	34.801	1278.347	1106.522
-7.560	34.831	1277.520	1105.933
-6.546	34.911	1276.338	1105.332
-5.531	34.854	1275.371	1104.120
-4.517	34.866	1274.552	1103.438
-3.502	34.951	1273.778	1103.211
-2.487	34.893	1272.949	1102.120
-1.473	34.940	1268.913	1098.846
-0.458	33.669	1254.259	1078.891
0.556	31.964	1234.371	1037.396
1.571	27.431	1238.105	1015.234
2.586	25.762	1251.847	1016.995
3.600	24.054	1238.864	996.806
4.615	18.127	1166.114	906.844
5.629	9.316	1090.249	803.901
6.644	5.226	1068.736	767.889
7.659	4.869	1066.118	764.189
8.673	4.689	1064.341	761.964
9.688	4.647	1063.600	761.163
10.702	5.293	1062.482	763.450
11.717	10.744	1070.203	795.697
12.731	18.776	1080.975	843.230
13.746	21.791	1084.766	860.940
14.761	21.682	1083.640	859.437
15.775	20.819	1081.859	853.719
16.790	19.832	1079.683	847.097
17.804	19.171	1077.966	842.444
18.819	18.820	1077.082	839.964
19.834	18.602	1076.628	838.469
20.848	18.521	1075.456	837.087
21.863	18.296	1074.899	835.478
22.877	18.107	1074.029	833.808
23.892	18.073	1073.091	832.838
24.907	18.031	1072.822	832.353
25.921	18.122	1071.342	831.571
26.936	18.096	1069.922	830.270
27.950	18.117	1068.891	829.501
28.965	18.203	1067.547	828.799
29.980	18.345	1066.392	828.517
30.994	18.500	1064.785	827.944
32.009	18.471	1063.762	826.937
33.023	18.441	1063.015	826.135
34.038	18.320	1062.259	824.896
35.053	18.205	1061.209	823.454
36.067	18.290	1059.871	822.748
37.082	18.346	1059.305	822.507
38.096	18.417	1058.454	822.114
39.111	18.320	1057.867	821.119
40.126	18.041	1056.950	818.998
41.140	18.031	1054.530	817.003
42.155	17.863	1053.525	815.351
43.169	17.862	1052.412	814.411
44.184	17.879	1051.505	813.719
45.199	17.812	1050.549	812.589
46.213	17.998	1049.617	812.677
47.228	18.118	1048.963	812.671
48.242	18.302	1048.001	812.727
49.257	18.068	1047.262	810.971
50.271	18.212	1046.378	810.900
51.286	18.313	1045.613	810.714
52.301	18.245	1044.543	809.488
53.315	18.180	1043.394	808.219
54.330	18.070	1042.308	806.787
55.344	17.922	1041.741	805.581
56.359	17.967	1040.909	805.077
57.374	18.031	1039.846	804.486
58.388	17.975	1038.504	803.112
59.403	17.818	1038.240	802.100
60.417	17.677	1037.428	800.738
61.432	17.638	1036.569	799.820
62.447	17.679	1035.542	799.149
63.461	17.648	1034.708	798.290
64.476	17.595	1033.905	797.352
65.490	17.605	1032.752	796.440
66.505	17.633	1032.180	796.061
67.520	17.665	1031.393	795.533
68.534	17.788	1030.707	795.506
69.549	17.752	1029.598	794.410
70.563	17.691	1028.955	793.563
71.578	17.502	1028.374	792.161
72.593	17.500	1027.433	791.357
73.607	17.518	1026.861	790.933
74.622	17.521	1026.244	790.400
75.636	17.546	1025.570	789.927
76.651	17.531	1024.997	789.349
77.666	17.583	1024.400	789.057
78.680	17.541	1024.180	788.626
79.695	17.701	1022.974	788.365
80.709	17.692	1022.290	787.729
81.724	17.967	1021.619	788.412
82.739	17.980	1020.843	787.804
83.753	18.114	1020.894	788.391
84.768	18.388	1019.809	788.744
85.782	18.521	1019.347	788.928
86.797	18.405	1018.172	787.417
87.812	18.224	1017.465	785.970
88.826	18.150	1016.537	784.844
89.841	18.255	1015.462	784.425
90.855	18.377	1014.696	784.323
91.870	18.456	1013.903	784.000
92.884	18.537	1012.199	782.984
93.899	18.390	1012.065	782.141
94.914	18.589	1010.847	782.037
95.928	18.473	1010.527	781.191
96.943	18.441	1009.052	779.837
97.957	18.309	1007.999	778.356
98.972	18.433	1007.419	778.402
99.987	18.390	1006.610	777.509
101.001	18.398	1005.727	776.799
102.016	18.461	1004.876	776.356
103.030	18.501	1004.159	775.916
104.045	18.401	1003.451	774.845
105.060	18.335	1002.288	773.583
106.074	18.031	1001.075	771.204
107.089	17.803	1000.326	769.532
108.103	17.865	999.247	768.912
109.118	17.818	998.273	767.882
110.133	17.780	997.530	767.073
111.147	17.684	996.880	766.073
112.162	17.869	995.877	766.066
113.176	17.873	995.383	765.637
114.191	17.988	994.760	765.605
115.206	17.939	993.989	764.724
116.220	17.904	992.877	763.643
117.235	17.898	992.007	762.880
118.249	17.902	991.041	762.087
119.264	17.789	990.156	760.838
120.279	17.778	989.317	760.077
121.293	17.759	988.660	759.420
122.308	17.632	987.764	758.099
123.322	17.548	986.778	756.902
124.337	17.627	985.534	756.233
125.352	17.544	984.423	754.943
126.366	17.714	983.296	754.764
127.381	17.697	982.145	753.738
128.395	17.632	981.852	753.161
129.410	17.778	980.748	752.892
130.424	17.827	980.111	752.552
131.439	17.822	979.687	752.137
132.454	17.942	978.953	752.037
133.468	17.996	977.780	751.308
134.483	18.033	977.212	750.965
135.497	17.914	976.401	749.753
136.512	18.121	975.124	749.614
137.527	17.945	974.907	748.612
138.541	17.966	973.791	747.777
139.556	18.031	973.307	747.625
140.570	18.296	972.656	748.220
141.585	18.407	972.045	748.167
142.600	18.298	971.115	746.911
143.614	18.575	970.147	747.307
144.629	18.457	969.723	746.400
145.643	18.356	968.531	744.975
146.658	18.298	967.288	743.704
147.673	18.122	966.429	742.213
148.687	18.059	965.400	741.082
149.702	17.891	964.405	739.525
150.716	17.933	963.697	739.100
151.731	18.044	963.036	739.007
152.746	18.113	962.055	738.486
153.760	18.192	961.686	738.480
154.775	18.167	961.807	738.400
155.789	18.356	960.689	738.289
156.804	18.294	959.843	737.309
157.819	18.422	959.352	737.418
158.833	18.439	959.072	737.211
159.848	18.604	958.011	737.037
160.862	18.379	956.397	734.765
161.877	18.213	955.524	733.320
162.892	18.132	954.532	732.147
163.906	18.077	953.302	730.903
164.921	18.057	952.972	730.498
165.935	18.154	952.098	730.179
166.950	18.256	950.864	729.601
167.964	18.132	949.996	728.342
168.979	18.134	949.271	727.731
169.994	18.184	948.470	727.267
171.008	18.276	947.928	727.177
172.023	18.407	947.157	727.078
173.037	18.479	946.388	726.727
174.052	18.454	945.812	726.115
175.067	18.264	944.794	724.464
176.081	18.085	944.020	723.052
177.096	17.992	943.945	722.534
178.110	18.198	942.550	722.275
179.125	18.203	942.514	722.205
180.140	18.154	942.468	721.896
181.154	18.316	942.059	722.202
182.169	18.666	941.254	722.999
183.183	18.646	940.316	722.131
184.198	18.415	940.041	720.881
185.213	18.432	939.425	720.416
186.227	18.645	938.098	720.231
187.242	18.678	938.101	720.308
188.256	18.791	937.599	720.330
189.271	18.637	936.497	718.776
190.286	18.449	935.218	716.943
191.300	18.052	934.040	714.318
192.315	17.878	933.687	713.259
193.329	18.015	933.291	713.467
194.344	18.311	932.781	714.246
195.359	18.254	932.155	713.468
196.373	18.449	931.701	713.867
197.388	18.643	931.474	714.442
198.402	18.697	931.231	714.414
199.417	18.927	930.011	714.371
200.432	18.696	930.291	713.562
201.446	19.099	929.514	714.577
202.461	19.139	928.622	713.994
203.475	18.921	928.300	712.781
204.490	18.744	927.214	711.150
205.504	18.681	926.081	709.958
206.519	18.585	925.536	709.081
207.534	18.593	924.928	708.583
208.548	18.678	924.394	708.462
209.563	18.730	923.486	707.921
210.577	18.727	923.020	707.486
211.592	18.837	922.508	707.483
212.607	19.047	921.776	707.726
213.621	18.847	920.665	705.988
214.636	18.798	920.283	705.432
215.650	18.837	919.470	704.905
216.665	19.084	918.775	705.321
217.680	19.173	918.204	705.188
218.694	19.004	917.800	704.121
219.709	19.091	917.161	703.925
220.723	18.984	916.632	703.021
221.738	18.987	915.655	702.222
222.753	18.949	914.720	701.286
223.767	18.967	914.539	701.159
224.782	19.302	913.813	701.903
225.796	19.289	913.247	701.356
226.811	19.121	912.734	700.213
227.826	19.003	911.609	698.810
228.840	19.035	910.784	698.247
229.855	19.010	910.405	697.794
230.869	18.903	909.723	696.776
231.884	18.957	908.598	696.071
232.899	18.907	907.999	695.348
233.913	18.884	907.091	694.499
234.928	18.701	906.759	693.445
235.942	18.704	906.274	693.024
236.957	18.874	905.538	693.084
237.972	18.839	905.216	692.635
238.986	18.708	904.542	691.530
240.001	18.806	903.640	691.174
241.015	18.907	903.045	691.065
242.030	18.910	902.934	690.929
243.045	19.014	901.887	690.483
244.059	19.008	901.581	690.165
245.074	19.105	900.919	689.989
246.088	19.214	900.300	689.888
247.103	19.351	899.824	690.012
248.117	19.375	899.212	689.576
249.132	19.684	899.223	690.758
250.147	19.754	898.296	690.267
251.161	19.808	897.848	690.075
252.176	19.860	896.972	689.550
253.190	20.033	896.392	689.729
254.205	19.766	895.764	688.125
255.220	19.875	895.000	687.908
256.234	19.856	894.741	687.572
257.249	19.771	893.827	686.475
258.263	19.837	892.622	685.747
259.278	19.886	892.096	685.480
260.293	19.872	892.250	685.480
261.307	20.018	891.301	685.267
262.322	20.032	890.656	684.768
263.336	20.083	890.097	684.477
264.351	19.963	889.480	683.470
265.366	20.072	888.789	683.306
266.380	19.963	888.055	682.253
267.395	19.876	887.218	681.209
268.409	19.822	886.118	680.092
269.424	19.787	885.752	679.613
270.439	19.972	884.552	679.356
271.453	19.771	884.335	678.341
272.468	19.801	883.932	678.090
273.482	19.761	883.240	677.343
274.497	19.640	882.665	676.367
275.512	19.740	881.937	676.140
276.526	19.842	881.503	676.148
277.541	19.880	881.190	675.998
278.555	19.929	880.657	675.719
279.570	20.138	879.820	675.832
280.585	20.041	879.275	674.974
281.599	20.042	877.955	673.907
282.614	19.945	877.382	673.028
283.628	19.830	877.109	672.314
284.643	19.967	876.285	672.154
285.657	19.948	875.678	671.555
286.672	19.889	875.144	670.859
287.687	19.889	874.663	670.429
288.701	20.055	873.823	670.369
289.716	19.897	873.584	669.516
290.730	19.979	872.946	669.283
291.745	19.993	872.539	668.968
292.760	20.072	871.643	668.525
293.774	20.226	871.133	668.668
294.789	20.115	870.761	667.896
295.803	20.020	870.061	666.935
296.818	19.989	869.084	666.008
297.833	20.098	868.648	666.035
298.847	20.055	867.636	665.034
299.862	20.063	867.155	664.636
300.876	20.083	867.088	664.605
301.891	20.338	866.537	665.098
302.906	20.426	865.815	664.825
303.920	20.504	865.583	664.884
304.935	20.695	864.450	664.685
305.949	20.621	863.810	663.854
306.964	20.242	863.580	662.171
307.979	20.348	862.962	662.042
308.993	20.539	862.247	662.163
310.008	20.545	861.649	661.667
311.022	20.509	860.870	660.875
312.037	20.393	859.935	659.658
313.052	20.161	859.407	658.314
314.066	20.129	859.136	657.924
315.081	20.109	858.316	657.164
316.095	20.132	857.655	656.688
317.110	19.985	857.653	656.072
318.125	20.077	856.719	655.646
319.139	20.234	856.161	655.754
320.154	20.196	855.881	655.338
321.168	20.240	855.552	655.193
322.183	20.365	854.818	655.044
323.197	20.290	854.459	654.429
324.212	20.345	853.799	654.075
325.227	20.312	852.895	653.198
326.241	20.199	852.326	652.280
327.256	20.277	851.880	652.175
328.270	20.357	851.273	651.953
329.285	20.207	850.683	650.879
330.300	20.330	850.047	650.796
331.314	20.248	849.891	650.314
332.329	20.364	849.452	650.353
333.343	20.619	848.574	650.578
334.358	20.569	848.574	650.334
335.373	20.465	848.285	649.665
336.387	20.699	847.666	650.009
337.402	20.584	847.471	649.372
338.416	20.669	847.444	649.611
339.431	20.853	847.111	649.985
340.446	20.967	846.843	650.146
341.460	21.025	846.341	649.921
342.475	21.014	845.770	649.383
343.489	21.152	845.318	649.494
344.504	21.057	844.914	648.772
345.519	21.193	844.214	648.681
346.533	20.966	843.772	647.442
347.548	20.870	843.160	646.560
348.562	20.689	842.526	645.343
349.577	20.624	841.762	644.462
350.592	20.560	840.662	643.324
351.606	20.582	840.372	643.129
352.621	20.790	839.438	643.124
353.635	20.688	839.431	642.683
354.650	20.858	838.609	642.626
355.665	20.813	838.186	642.079
356.679	20.870	837.027	641.345
357.694	20.900	836.722	641.165
358.708	20.924	835.882	640.554
359.723	20.852	835.720	640.108
360.738	20.957	835.184	640.026
361.752	21.018	834.224	639.458
362.767	21.048	834.016	639.350
363.781	21.295	833.369	639.703
364.796	21.319	833.068	639.504
365.810	21.459	832.919	639.846
366.825	21.516	832.331	639.544
367.840	21.363	832.239	638.858
368.854	21.243	831.302	637.644
369.869	21.198	830.969	637.166
370.883	21.262	830.458	636.952
371.898	21.260	830.280	636.751
372.913	21.423	829.801	636.921
373.927	21.401	829.293	636.395
374.942	21.448	828.682	636.042
375.956	21.524	828.161	635.863
376.971	21.542	828.003	635.751
377.986	21.675	827.178	635.543
379.000	21.688	826.697	635.163
380.015	21.617	826.532	634.724
381.029	21.476	825.992	633.740
382.044	21.792	825.006	634.071
383.059	21.720	824.697	633.517
384.073	21.620	823.881	632.476
385.088	21.375	822.980	630.844
386.102	21.332	822.685	630.406
387.117	21.269	822.074	629.653
388.132	21.293	821.437	629.198
389.146	21.388	821.034	629.175
390.161	21.523	820.536	629.224
391.175	21.731	819.835	629.377
392.190	21.543	819.647	628.502
393.205	21.363	818.962	627.276
394.219	21.388	818.942	627.293
395.234	21.261	818.609	626.527
396.248	21.085	817.691	625.139
397.263	21.054	817.254	624.640
398.278	21.100	816.771	624.379
399.292	21.282	816.418	624.705
400.307	21.279	815.879	624.226
401.321	21.310	815.467	623.968
402.336	21.337	814.832	623.524
403.350	21.515	814.403	623.774
404.365	21.482	814.545	623.710
405.380	21.772	814.001	624.269
406.394	21.713	813.282	623.454
407.409	21.723	813.196	623.369
408.423	21.919	812.721	623.646
409.438	21.969	812.453	623.563
410.453	21.932	812.247	623.217
411.467	21.995	811.406	622.742
412.482	22.023	811.339	622.733
413.496	22.083	810.566	622.297
414.511	22.066	810.461	622.101
415.526	22.061	809.799	621.521
416.540	22.086	809.011	620.951
417.555	22.059	808.667	620.535
418.569	22.028	808.292	620.084
419.584	21.979	807.703	619.403
420.599	22.047	807.391	619.351
421.613	158.693	1369.707	1788.315
422.628	137.965	1451.641	1788.445
