DTS Sentinel unit serial number:	SN413079Multiplexer serial number:	ORYXHardware model number:	OX4-SRSoftware version number:	ORYX F/W v4.00 Oryx Data Collector v3.7.2.0data status	okinstallation	princeton_trtdifferential loss correction	single-endedforward channel	channel 1reverse channel	N/Adate	2019/09/12time	07:48:11forward acquisition time	60.00reverse acquisition time	0.00gamma	496.2192k internal	0.2315k external	0.2315temperature offset calibration	1.0039default loss term (dB/km)	0.3790temperature slope calibration	1.0000multiplexer offset coefficient	1.0000multiplexer slope coefficient	1.0000fibre end	0.00T internal ref (°C)	32.83T ext. ref 1 (°C)	1.63T ext. ref 2 (°C)	28.86length (m)	temperature (°C)	Stokes	anti-Stokes-747.200	-114.381	-0.420	0.082
-746.185	-135.065	0.133	0.016
-745.171	-132.388	0.411	0.054
-744.156	-141.439	-0.337	-0.035
-743.142	-200.000	0.031	-0.512
-742.127	-24.212	-0.043	-0.026
-741.112	-200.000	-0.019	-0.201
-740.098	-200.000	-0.025	0.383
-739.083	10.229	0.066	0.051
-738.069	-30.286	-0.275	-0.158
-737.054	-86.101	-0.517	0.162
-736.039	89.716	0.196	-0.222
-735.025	767.769	0.050	-0.138
-734.010	-200.000	0.010	0.159
-732.996	-30.828	0.194	0.111
-731.981	289.933	-0.115	0.211
-730.966	800.000	-0.055	-0.172
-729.952	-23.881	-0.321	-0.194
-728.937	267.778	-0.105	0.186
-727.923	-163.880	-0.281	0.013
-726.908	536.296	0.030	0.071
-725.894	-200.000	-0.058	-0.358
-724.879	-123.892	-0.408	-0.065
-723.864	-23.445	-0.142	-0.086
-722.850	586.910	-0.102	-0.254
-721.835	491.094	-0.044	0.101
-720.821	-140.106	-0.320	-0.034
-719.806	800.000	-0.059	-0.250
-718.791	-200.000	0.001	-0.050
-717.777	276.768	0.194	0.350
-716.762	163.585	-0.100	-0.142
-715.748	-60.813	0.186	-0.080
-714.733	-40.964	-0.372	-0.195
-713.718	21.241	0.122	-0.101
-712.704	204.505	-0.167	-0.261
-711.689	800.000	-0.047	-0.134
-710.675	419.934	0.157	-0.339
-709.660	-140.646	0.083	-0.009
-708.645	-200.000	-0.036	0.249
-707.631	-169.344	-0.214	0.008
-706.616	137.380	0.257	-0.340
-705.602	800.000	-0.074	-0.241
-704.587	-66.406	-0.092	0.037
-703.572	-117.171	-0.224	0.041
-702.558	100.056	0.171	-0.201
-701.543	-200.000	-0.013	-0.297
-700.529	5.187	-0.158	-0.118
-699.514	-200.000	-0.001	-0.276
-698.499	-200.000	0.001	0.007
-697.485	800.000	-0.068	0.300
-696.470	-200.000	0.071	0.323
-695.456	-62.910	0.207	0.087
-694.441	-200.000	-0.007	0.183
-693.426	-200.000	-0.001	0.263
-692.412	800.000	0.065	-0.184
-691.397	-53.648	-0.178	-0.082
-690.383	-103.436	-0.139	0.033
-689.368	41.713	0.028	-0.026
-688.354	62.277	0.250	-0.252
-687.339	60.593	-0.260	0.261
-686.324	-31.451	-0.078	0.044
-685.310	-200.000	-0.029	-0.253
-684.295	21.175	0.206	0.169
-683.281	800.000	0.020	-0.080
-682.266	5.247	0.074	0.055
-681.251	85.128	0.104	-0.115
-680.237	-112.796	-0.128	0.026
-679.222	187.052	0.134	0.202
-678.208	-200.000	-0.015	0.248
-677.193	252.243	-0.109	-0.188
-676.178	-64.924	-0.075	0.030
-675.164	-90.948	-0.237	0.069
-674.149	-24.744	-0.188	0.113
-673.135	41.304	0.144	0.132
-672.120	137.215	-0.273	-0.361
-671.105	-41.789	0.462	0.239
-670.091	22.100	0.134	0.110
-669.076	-98.722	0.420	0.108
-668.062	17.600	-0.163	0.131
-667.047	-178.455	0.181	0.004
-666.032	-124.440	-0.280	-0.044
-665.018	-200.000	-0.039	-0.244
-664.003	-75.112	0.072	0.026
-662.989	26.479	0.029	0.025
-661.974	368.220	0.063	0.128
-660.959	-25.248	-0.203	-0.121
-659.945	190.316	-0.056	0.085
-658.930	627.959	0.026	-0.066
-657.916	-200.000	0.034	-0.232
-656.901	-122.680	-0.569	0.093
-655.886	26.463	-0.108	-0.092
-654.872	-35.933	-0.028	-0.015
-653.857	-200.000	-0.031	0.221
-652.843	-15.971	-0.362	0.233
-651.828	256.987	0.073	0.127
-650.814	91.304	0.056	-0.063
-649.799	351.819	0.283	-0.566
-648.784	-143.438	-0.388	-0.037
-647.770	65.522	-0.037	0.038
-646.755	-80.699	0.331	-0.111
-645.741	133.975	-0.041	0.054
-644.726	-200.000	0.006	0.365
-643.711	40.480	-0.123	0.112
-642.697	800.000	0.176	0.499
-641.682	-10.583	0.123	0.082
-640.668	-200.000	0.025	-0.122
-639.653	95.471	0.246	-0.284
-638.638	208.245	0.064	0.101
-637.624	-63.512	-0.232	-0.096
-636.609	12.757	-0.063	0.049
-635.595	-200.000	-0.043	-0.315
-634.580	86.814	0.263	-0.293
-633.565	21.222	0.162	-0.133
-632.551	-32.950	-0.414	0.232
-631.536	7.338	-0.188	-0.141
-630.522	-129.757	-0.353	0.049
-629.507	33.413	0.229	-0.201
-628.492	115.897	0.066	0.081
-627.478	555.734	-0.115	0.280
-626.463	-37.562	0.093	-0.050
-625.449	-38.156	-0.494	0.264
-624.434	4.132	0.197	0.145
-623.419	495.478	-0.068	0.156
-622.405	-44.914	-0.314	0.158
-621.390	107.147	0.198	0.237
-620.376	-200.000	-0.025	-0.293
-619.361	25.747	0.151	0.126
-618.346	-128.734	-0.162	-0.023
-617.332	-138.418	-0.313	0.035
-616.317	-120.690	-0.348	-0.059
-615.303	512.002	-0.059	-0.138
-614.288	-15.272	-0.195	0.126
-613.273	800.000	0.077	-0.225
-612.259	288.355	-0.030	0.055
-611.244	-64.736	-0.165	-0.068
-610.230	67.075	0.065	-0.067
-609.215	194.873	-0.245	-0.374
-608.201	-64.216	-0.263	-0.108
-607.186	171.552	-0.013	0.018
-606.171	-50.489	-0.250	0.119
-605.157	-1.776	0.130	0.093
-604.142	229.724	0.092	0.151
-603.128	-53.860	-0.040	0.018
-602.113	-55.341	0.137	-0.062
-601.098	-5.170	0.157	0.109
-600.084	372.856	0.027	0.056
-599.069	46.792	0.136	0.127
-598.055	30.778	-0.222	0.191
-597.040	-200.000	-0.003	-0.064
-596.025	-200.000	-0.017	0.180
-595.011	-97.186	-0.209	0.055
-593.996	-200.000	0.013	0.216
-592.982	-151.942	0.460	-0.034
-591.967	56.355	0.083	0.082
-590.952	92.785	0.090	0.103
-589.938	722.513	0.153	-0.411
-588.923	-153.832	0.063	-0.004
-587.909	66.997	0.182	-0.187
-586.894	331.149	-0.141	-0.274
-585.879	448.475	0.129	-0.287
-584.865	524.601	0.068	0.162
-583.850	-125.721	-0.365	-0.056
-582.836	-200.000	-0.024	-0.109
-581.821	-69.464	-0.315	0.122
-580.806	800.000	-0.086	-0.244
-579.792	173.431	0.073	0.106
-578.777	-200.000	-0.010	-0.222
-577.763	-89.022	0.087	-0.026
-576.748	-175.516	-0.062	-0.002
-575.733	23.425	-0.247	0.205
-574.719	-69.075	0.223	0.086
-573.704	12.045	0.166	-0.129
-572.690	800.000	-0.058	0.186
-571.675	-136.567	0.138	0.016
-570.661	-200.000	-0.021	0.352
-569.646	-62.041	-0.240	-0.101
-568.631	291.097	0.067	-0.122
-567.617	-53.579	0.164	0.076
-566.602	-200.000	0.003	-0.223
-565.588	-30.889	-0.141	-0.080
-564.573	-200.000	-0.037	0.302
-563.558	-32.178	0.034	-0.019
-562.544	-49.576	-0.234	0.112
-561.529	-105.941	0.119	0.027
-560.515	249.853	-0.117	0.199
-559.500	-200.000	-0.053	-0.241
-558.485	-200.000	0.013	-0.150
-557.471	-155.473	-0.263	-0.017
-556.456	429.491	0.085	-0.185
-555.442	-200.000	0.062	0.349
-554.427	-200.000	0.106	0.608
-553.412	-45.086	-0.285	-0.142
-552.398	356.185	0.121	-0.242
-551.383	-200.000	0.011	-0.083
-550.369	-12.195	-0.333	-0.219
-549.354	279.278	-0.178	-0.320
-548.339	-88.564	-0.146	0.044
-547.325	42.228	0.259	-0.237
-546.310	-200.000	0.005	0.142
-545.296	42.847	0.102	0.094
-544.281	800.000	0.069	0.277
-543.266	800.000	-0.108	-0.344
-542.252	26.071	-0.062	-0.052
-541.237	183.297	0.168	-0.250
-540.223	-200.000	-0.028	0.179
-539.208	-200.000	-0.031	0.312
-538.193	-200.000	0.062	-0.286
-537.179	-38.314	0.339	0.180
-536.164	-1.046	-0.263	0.187
-535.150	-45.184	-0.070	0.035
-534.135	151.598	-0.142	-0.194
-533.121	52.936	-0.116	0.111
-532.106	360.821	0.031	0.061
-531.091	-165.880	-0.284	0.012
-530.077	-200.000	0.061	-0.383
-529.062	-123.836	0.493	0.078
-528.048	8.267	-0.108	-0.081
-527.033	130.393	0.312	-0.401
-526.018	-47.985	-0.037	0.018
-525.004	-200.000	0.000	0.032
-523.989	-56.133	0.241	-0.108
-522.975	-187.185	0.060	0.001
-521.960	-50.488	0.177	-0.084
-520.945	-80.274	-0.058	0.020
-519.931	-200.000	0.013	-0.302
-518.916	-123.734	0.214	0.034
-517.902	321.533	-0.082	0.157
-516.887	-114.800	0.080	0.015
-515.872	736.131	-0.047	-0.127
-514.858	67.633	-0.217	0.222
-513.843	800.000	-0.067	-0.278
-512.829	-111.946	0.269	0.055
-511.814	-84.686	-0.274	-0.087
-510.799	113.824	0.055	0.067
-509.785	264.566	-0.089	-0.156
-508.770	-60.001	-0.127	-0.055
-507.756	505.570	0.084	-0.196
-506.741	-200.000	-0.061	0.418
-505.726	-94.231	-0.181	-0.050
-504.712	800.000	-0.017	0.066
-503.697	68.519	0.104	0.107
-502.683	-200.000	-0.001	-0.181
-501.668	58.887	-0.119	0.117
-500.653	-68.847	0.273	-0.106
-499.639	-200.000	0.000	0.140
-498.624	-50.863	-0.296	0.140
-497.610	52.226	0.188	-0.180
-496.595	-200.000	-0.005	-0.367
-495.581	800.000	-0.074	-0.210
-494.566	-200.000	0.007	-0.267
-493.551	36.242	0.034	0.030
-492.537	-200.000	0.002	0.225
-491.522	144.111	0.129	-0.172
-490.508	-182.841	0.144	0.003
-489.493	58.003	-0.183	-0.180
-488.478	2.387	-0.314	-0.228
-487.464	-100.870	0.165	0.041
-486.449	109.853	-0.136	0.164
-485.435	-177.238	-0.330	-0.008
-484.420	106.020	-0.237	-0.282
-483.405	800.000	0.021	-0.064
-482.391	-200.000	-0.008	-0.229
-481.376	164.272	0.180	0.254
-480.362	-197.418	-0.199	-0.001
-479.347	-200.000	0.006	-0.227
-478.332	-86.591	0.119	0.037
-477.318	10.784	-0.199	-0.152
-476.303	-200.000	0.040	-0.225
-475.289	800.000	-0.072	0.217
-474.274	115.301	0.163	-0.200
-473.259	-200.000	-0.012	0.148
-472.245	-103.293	0.249	-0.059
-471.230	41.226	0.127	-0.115
-470.216	800.000	0.059	-0.188
-469.201	64.500	0.222	-0.224
-468.186	47.462	-0.064	-0.060
-467.172	-38.226	-0.400	-0.212
-466.157	-96.602	0.243	-0.064
-465.143	110.177	-0.089	-0.107
-464.128	602.782	0.074	0.185
-463.113	800.000	0.095	0.297
-462.099	-44.805	0.098	0.049
-461.084	-16.748	-0.290	0.184
-460.070	-200.000	0.012	-0.202
-459.055	-200.000	-0.034	0.149
-458.040	-11.006	0.408	-0.270
-457.026	800.000	0.125	0.541
-456.011	-108.194	-0.117	-0.025
-454.997	-200.000	0.012	0.246
-453.982	-10.915	-0.226	0.149
-452.968	-37.483	-0.293	-0.157
-451.953	-136.293	0.030	-0.003
-450.938	800.000	0.024	-0.088
-449.924	98.524	-0.280	0.324
-448.909	-82.775	-0.114	-0.037
-447.895	-200.000	0.031	-0.188
-446.880	715.802	0.036	0.095
-445.865	471.441	-0.024	0.054
-444.851	-200.000	-0.054	0.291
-443.836	800.000	0.028	0.122
-442.822	-170.715	0.243	0.008
-441.807	-200.000	-0.008	-0.035
-440.792	-122.577	-0.161	0.026
-439.778	181.067	0.100	-0.147
-438.763	58.728	-0.160	0.157
-437.749	89.039	-0.115	0.128
-436.734	45.829	-0.125	0.116
-435.719	-131.766	0.088	0.012
-434.705	-200.000	0.026	-0.135
-433.690	-8.807	-0.048	0.032
-432.676	-106.517	-0.140	0.031
-431.661	112.322	-0.147	0.178
-430.646	2.939	0.102	0.074
-429.632	-48.611	-0.145	-0.070
-428.617	38.248	-0.354	0.315
-427.603	-112.722	0.202	-0.040
-426.588	-200.000	0.026	0.309
-425.573	50.670	0.149	0.141
-424.559	274.322	-0.140	-0.248
-423.544	-89.828	-0.021	0.006
-422.530	800.000	0.067	-0.259
-421.515	135.851	-0.237	-0.309
-420.500	-73.143	0.278	-0.102
-419.486	518.218	-0.067	-0.158
-418.471	-200.000	0.000	0.008
-417.457	-7.687	-0.109	-0.074
-416.442	-159.283	0.115	0.006
-415.428	65.059	0.084	-0.085
-414.413	128.392	-0.158	0.202
-413.398	194.741	0.087	-0.132
-412.384	187.539	0.109	0.163
-411.369	683.434	0.147	0.383
-410.355	40.819	0.209	0.188
-409.340	-200.000	-0.027	-0.450
-408.325	800.000	-0.107	-0.298
-407.311	390.220	-0.112	-0.233
-406.296	-24.187	-0.340	-0.203
-405.282	2.988	-0.164	-0.119
-404.267	-115.727	0.190	0.036
-403.252	800.000	0.065	0.278
-402.238	27.065	0.134	0.112
-401.223	-200.000	-0.024	-0.116
-400.209	194.054	0.230	0.349
-399.194	91.364	-0.142	0.160
-398.179	-200.000	-0.028	0.230
-397.165	-200.000	0.024	-0.222
-396.150	136.425	0.251	-0.328
-395.136	800.000	-0.095	0.323
-394.121	800.000	0.047	-0.162
-393.106	-99.479	-0.295	-0.074
-392.092	-40.914	0.110	0.057
-391.077	-200.000	-0.025	0.126
-390.063	167.612	-0.041	-0.059
-389.048	543.617	-0.064	-0.152
-388.033	-200.000	-0.008	-0.127
-387.019	-200.000	-0.026	-0.196
-386.004	173.072	-0.257	0.371
-384.990	800.000	-0.055	0.172
-383.975	86.239	0.194	0.214
-382.960	299.172	-0.178	0.328
-381.946	464.686	0.028	-0.062
-380.931	-29.307	0.186	0.106
-379.917	-10.307	-0.193	0.128
-378.902	800.000	-0.087	0.275
-377.888	791.444	-0.082	-0.226
-376.873	38.104	0.153	-0.136
-375.858	100.432	0.171	0.198
-374.844	-180.571	0.329	0.007
-373.829	800.000	-0.053	0.191
-372.815	-200.000	-0.013	0.064
-371.800	-104.195	0.108	-0.025
-370.785	520.441	-0.022	-0.052
-369.771	-47.266	0.060	-0.029
-368.756	-83.534	-0.193	0.062
-367.742	-200.000	-0.049	-0.218
-366.727	-200.000	0.011	0.197
-365.712	-78.299	-0.381	0.131
-364.698	-146.390	-0.256	-0.022
-363.683	256.386	-0.091	-0.156
-362.669	11.247	-0.398	-0.304
-361.654	-136.301	0.411	0.048
-360.639	82.088	0.111	0.120
-359.625	800.000	0.042	0.119
-358.610	-200.000	-0.022	0.288
-357.596	248.100	0.180	0.304
-356.581	16.773	0.071	0.056
-355.566	-53.748	-0.165	0.075
-354.552	-107.638	-0.121	0.026
-353.537	6.797	-0.100	0.074
-352.523	-120.169	0.394	-0.067
-351.508	-167.120	0.207	0.008
-350.493	-200.000	0.018	0.192
-349.479	-115.548	-0.062	-0.012
-348.464	-200.000	-0.034	-0.195
-347.450	-64.122	0.188	0.077
-346.435	62.409	-0.173	-0.173
-345.420	-156.970	0.178	-0.011
-344.406	-14.883	-0.055	0.035
-343.391	169.194	-0.064	-0.090
-342.377	44.611	-0.165	-0.151
-341.362	-133.173	0.104	-0.013
-340.348	-99.262	-0.189	0.048
-339.333	-31.604	-0.119	-0.067
-338.318	-74.453	0.221	-0.080
-337.304	-16.501	-0.232	-0.146
-336.289	-200.000	0.019	0.297
-335.275	143.855	-0.211	0.281
-334.260	114.129	-0.180	0.218
-333.245	64.098	-0.203	0.204
-332.231	186.419	-0.116	0.172
-331.216	-120.058	-0.265	0.045
-330.202	-61.242	0.239	0.100
-329.187	26.075	0.230	-0.191
-328.172	-68.065	0.315	0.122
-327.158	-39.815	-0.088	-0.046
-326.143	251.174	-0.249	-0.422
-325.129	256.553	-0.153	0.261
-324.114	-200.000	-0.002	0.086
-323.099	93.285	-0.114	-0.129
-322.085	-112.720	0.337	-0.067
-321.070	-200.000	-0.018	0.125
-320.056	800.000	0.030	-0.111
-319.041	-108.202	-0.310	-0.067
-318.026	218.486	0.203	-0.323
-317.012	-200.000	0.031	0.379
-315.997	105.554	0.169	0.199
-314.983	544.278	-0.017	-0.040
-313.968	-200.000	-0.005	0.129
-312.953	-84.782	-0.271	-0.085
-311.939	-200.000	-0.044	-0.308
-310.924	-200.000	-0.044	-0.240
-309.910	13.404	-0.201	-0.155
-308.895	52.076	0.086	-0.082
-307.880	748.595	-0.081	0.219
-306.866	5.246	0.326	-0.240
-305.851	-200.000	-0.002	-0.124
-304.837	-200.000	-0.015	-0.247
-303.822	51.698	-0.203	0.192
-302.807	-102.673	0.111	-0.026
-301.793	109.209	0.126	-0.150
-300.778	-134.355	-0.164	-0.020
-299.764	321.526	0.080	-0.152
-298.749	-192.855	-0.057	-0.001
-297.735	578.825	0.033	0.079
-296.720	-147.763	-0.149	0.012
-295.705	-200.000	-0.015	0.084
-294.691	-133.619	0.173	-0.022
-293.676	-59.147	0.087	-0.037
-292.662	800.000	0.197	-0.560
-291.647	80.805	0.121	-0.130
-290.632	-75.380	-0.341	-0.121
-289.618	-177.314	-0.088	0.002
-288.603	-149.987	-0.261	-0.020
-287.589	-200.000	-0.018	0.164
-286.574	-200.000	0.015	-0.090
-285.559	-76.426	-0.212	-0.074
-284.545	1.292	0.168	0.120
-283.530	246.388	0.140	0.235
-282.516	800.000	-0.023	0.093
-281.501	-148.841	-0.082	0.007
-280.486	27.571	-0.240	0.201
-279.472	-200.000	-0.018	0.254
-278.457	774.966	0.094	0.255
-277.443	-82.712	-0.144	0.046
-276.428	-157.237	0.176	-0.011
-275.413	20.781	0.210	0.169
-274.399	-200.000	0.016	-0.169
-273.384	-97.597	0.169	0.044
-272.370	-200.000	-0.025	0.472
-271.355	-118.549	0.277	-0.049
-270.340	-23.027	0.220	0.132
-269.326	-34.167	0.033	-0.018
-268.311	-73.358	0.319	-0.116
-267.297	-71.404	-0.174	-0.065
-266.282	-200.000	0.022	0.310
-265.267	-200.000	-0.023	0.341
-264.253	18.181	0.107	-0.085
-263.238	-98.341	0.240	0.061
-262.224	129.169	0.094	-0.120
-261.209	-200.000	0.036	0.323
-260.195	-62.788	0.431	0.177
-259.180	800.000	-0.181	0.680
-258.165	-57.809	0.144	0.063
-257.151	-200.000	-0.008	-0.238
-256.136	520.911	-0.152	-0.354
-255.122	-200.000	0.052	0.277
-254.107	-52.008	-0.257	0.119
-253.092	-200.000	0.019	-0.361
-252.078	502.584	-0.197	0.452
-251.063	-200.000	-0.016	-0.140
-250.049	64.463	0.234	-0.234
-249.034	-200.000	-0.009	-0.269
-248.019	-22.572	0.404	0.243
-247.005	-200.000	0.006	0.238
-245.990	254.209	0.055	-0.094
-244.976	800.000	-0.113	-0.482
-243.961	-200.000	-0.014	-0.202
-242.946	268.446	0.099	0.173
-241.932	-200.000	0.008	-0.271
-240.917	-200.000	0.058	0.323
-239.903	599.147	-0.050	-0.122
-238.888	-56.294	-0.034	-0.015
-237.873	-131.934	-0.114	-0.015
-236.859	-79.140	0.268	0.090
-235.844	-24.977	-0.208	0.123
-234.830	7.299	0.145	0.107
-233.815	800.000	0.100	0.296
-232.800	-80.343	0.124	0.041
-231.786	180.055	-0.066	-0.097
-230.771	16.629	0.435	0.342
-229.757	-200.000	-0.042	0.189
-228.742	203.968	0.015	-0.023
-227.727	-46.732	0.150	0.073
-226.713	-200.000	-0.002	0.063
-225.698	473.490	0.092	-0.207
-224.684	-112.579	0.089	-0.018
-223.669	-100.134	0.166	0.041
-222.655	-99.460	0.320	-0.080
-221.640	800.000	0.044	0.148
-220.625	-84.130	0.163	-0.051
-219.611	107.879	0.137	-0.162
-218.596	-200.000	-0.024	-0.522
-217.582	-121.932	0.170	-0.028
-216.567	-129.954	-0.091	0.012
-215.552	-200.000	0.005	0.308
-214.538	4.808	0.177	-0.129
-213.523	527.066	-0.034	0.080
-212.509	-53.087	-0.191	-0.087
-211.494	484.586	0.093	0.209
-210.479	-110.829	0.043	0.009
-209.465	770.422	0.108	-0.292
-208.450	466.787	0.050	0.112
-207.436	67.132	0.188	0.191
-206.421	-82.355	-0.236	0.076
-205.406	373.928	-0.094	-0.190
-204.392	304.639	-0.146	0.269
-203.377	-61.446	-0.243	-0.101
-202.363	150.060	0.023	-0.031
-201.348	-53.808	0.196	-0.088
-200.333	-200.000	0.025	0.134
-199.319	-92.578	0.095	-0.026
-198.304	-111.070	-0.224	0.046
-197.290	800.000	-0.052	0.153
-196.275	12.094	-0.237	-0.181
-195.260	800.000	0.078	0.286
-194.246	-12.266	-0.307	-0.199
-193.231	-200.000	-0.012	0.151
-192.217	800.000	0.150	-0.561
-191.202	-68.133	0.306	0.118
-190.187	545.141	0.116	0.274
-189.173	629.025	-0.061	-0.152
-188.158	-40.884	-0.252	-0.129
-187.144	143.515	-0.069	-0.091
-186.129	-195.112	0.248	0.002
-185.114	-126.056	-0.299	-0.045
-184.100	143.796	0.176	0.233
-183.085	50.002	0.293	-0.274
-182.071	195.419	-0.057	-0.086
-181.056	-144.770	0.133	0.012
-180.042	-146.881	0.060	-0.005
-179.027	-132.336	0.204	-0.026
-178.012	-200.000	0.011	-0.553
-176.998	45.643	0.196	-0.180
-175.983	-200.000	-0.008	-0.094
-174.969	-144.323	-0.173	0.016
-173.954	800.000	-0.056	-0.161
-172.939	640.101	0.109	-0.276
-171.925	60.584	-0.073	0.072
-170.910	-200.000	0.039	0.206
-169.896	800.000	-0.054	-0.185
-168.881	-33.003	0.149	0.082
-167.866	-158.055	0.286	-0.017
-166.852	43.336	-0.209	0.189
-165.837	-151.234	0.373	0.028
-164.823	-200.000	0.008	-0.146
-163.808	159.614	-0.131	0.181
-162.793	-45.291	0.180	-0.089
-161.779	15.542	0.152	0.118
-160.764	89.267	0.331	-0.365
-159.750	151.638	-0.172	0.233
-158.735	296.852	-0.110	-0.200
-157.720	800.000	0.083	-0.258
-156.706	-200.000	-0.016	0.183
-155.691	-200.000	-0.031	0.263
-154.677	120.885	0.109	-0.134
-153.662	800.000	-0.010	0.040
-152.647	-66.968	-0.399	0.156
-151.633	-20.360	0.125	-0.076
-150.618	-128.582	0.150	0.021
-149.604	-72.221	0.236	-0.087
-148.589	115.492	-0.191	0.231
-147.574	-66.942	0.401	-0.157
-146.560	35.553	-0.191	0.166
-145.545	13.765	-0.188	0.145
-144.531	-84.825	-0.399	0.124
-143.516	-87.456	-0.100	0.030
-142.502	41.517	-0.414	0.371
-141.487	23.865	0.027	0.022
-140.472	-74.559	-0.227	-0.081
-139.458	-70.535	-0.385	0.144
-138.443	-200.000	0.033	0.359
-137.429	-164.759	-0.148	0.007
-136.414	-200.000	-0.028	0.286
-135.399	-4.072	0.185	-0.127
-134.385	127.093	0.186	0.233
-133.370	57.403	-0.225	-0.217
-132.356	-34.200	0.275	-0.149
-131.341	-200.000	0.119	0.558
-130.326	-141.803	-0.114	-0.011
-129.312	-200.000	0.035	-0.380
-128.297	-200.000	0.022	0.352
-127.283	-200.000	0.064	0.300
-126.268	227.709	0.145	0.233
-125.253	-86.965	0.203	0.061
-124.239	13.613	0.168	0.129
-123.224	800.000	0.075	-0.256
-122.210	197.303	0.169	-0.256
-121.195	-151.618	-0.310	-0.023
-120.180	125.491	-0.021	0.026
-119.166	-200.000	0.036	0.225
-118.151	-179.639	-0.031	0.001
-117.137	800.000	-0.110	-0.391
-116.122	-57.246	-0.207	0.090
-115.107	795.459	0.045	0.122
-114.093	348.792	-0.213	0.415
-113.078	-118.700	0.291	0.051
-112.064	26.206	-0.115	0.095
-111.049	-170.785	-0.186	0.006
-110.034	397.169	0.031	-0.063
-109.020	20.060	0.158	-0.126
-108.005	112.651	0.232	-0.277
-106.991	66.952	0.158	0.159
-105.976	800.000	0.033	-0.142
-104.962	-100.656	0.126	-0.031
-103.947	800.000	-0.049	0.160
-102.932	800.000	-0.129	0.430
-101.918	-169.759	0.227	-0.008
-100.903	-153.830	0.128	-0.009
-99.889	179.555	0.117	0.169
-98.874	-200.000	0.013	-0.068
-97.859	-44.315	-0.150	0.074
-96.845	30.091	0.189	0.160
-95.830	-41.737	0.230	0.117
-94.816	33.105	-0.119	-0.102
-93.801	800.000	0.050	-0.183
-92.786	-200.000	0.056	0.259
-91.772	555.905	0.052	-0.123
-90.757	-200.000	0.021	-0.129
-89.743	-67.891	0.293	0.113
-88.728	-200.000	-0.033	0.158
-87.713	800.000	-0.028	-0.107
-86.699	220.843	-0.104	-0.165
-85.684	-200.000	-0.001	-0.164
-84.670	800.000	-0.132	-0.438
-83.655	-123.808	0.113	0.018
-82.640	-105.077	-0.225	-0.051
-81.626	-200.000	-0.039	0.358
-80.611	-44.891	-0.238	0.117
-79.597	153.134	-0.120	0.163
-78.582	-67.166	-0.167	0.065
-77.567	-200.000	0.024	0.254
-76.553	299.128	0.013	0.024
-75.538	-114.908	0.370	-0.070
-74.524	-32.397	-0.081	0.045
-73.509	800.000	0.022	-0.084
-72.494	30.965	0.158	0.133
-71.480	-200.000	0.049	0.237
-70.465	800.000	-0.032	0.133
-69.451	40.542	-0.192	-0.171
-68.436	201.423	-0.261	0.397
-67.422	-96.386	0.249	0.065
-66.407	-200.000	-0.015	-0.134
-65.392	-152.014	0.374	-0.027
-64.378	-9.086	0.245	-0.161
-63.363	38.783	0.143	-0.126
-62.349	-67.906	-0.148	-0.057
-61.334	27.897	-0.712	-0.592
-60.319	-66.270	0.281	0.110
-59.305	-200.000	-0.124	-1.110
-58.290	173.492	0.651	0.927
-57.276	800.000	0.448	1.515
-56.261	-200.000	98.150	599.944
-55.246	544.991	1407.196	3316.259
-54.232	153.592	2591.789	3501.734
-53.217	112.681	2161.651	2581.696
-52.203	44.434	1617.313	1465.101
-51.188	36.306	1352.897	1176.242
-50.173	33.004	1311.063	1120.286
-49.159	56.096	1357.819	1299.870
-48.144	57.886	1374.944	1326.980
-47.130	36.612	1332.188	1159.889
-46.115	33.009	1314.812	1123.342
-45.100	32.768	1310.350	1118.053
-44.086	32.691	1307.742	1115.331
-43.071	32.641	1305.834	1113.364
-42.057	32.624	1303.232	1110.998
-41.042	32.731	1301.988	1110.525
-40.027	32.781	1300.683	1109.661
-39.013	32.625	1299.059	1107.314
-37.998	32.658	1297.014	1105.720
-36.984	32.861	1295.028	1105.172
-35.969	32.942	1292.965	1103.846
-34.954	32.868	1291.275	1101.927
-33.940	32.829	1290.527	1101.013
-32.925	32.926	1289.364	1100.548
-31.911	32.984	1287.473	1099.226
-30.896	32.977	1285.943	1097.837
-29.881	32.863	1284.772	1096.126
-28.867	33.010	1282.896	1095.340
-27.852	33.048	1281.453	1094.279
-26.838	32.979	1280.190	1092.759
-25.823	32.755	1279.575	1090.900
-24.809	32.980	1277.465	1090.352
-23.794	32.884	1276.117	1088.609
-22.779	32.948	1274.248	1087.339
-21.765	32.980	1273.676	1086.990
-20.750	32.915	1272.613	1085.669
-19.736	32.738	1271.466	1083.627
-18.721	32.745	1270.333	1082.661
-17.706	32.878	1268.639	1081.937
-16.692	32.733	1267.952	1080.476
-15.677	32.733	1266.644	1079.315
-14.663	32.752	1266.026	1078.855
-13.648	32.699	1264.782	1077.454
-12.633	32.671	1263.860	1076.465
-11.619	32.733	1262.765	1075.842
-10.604	32.778	1261.754	1075.195
-9.590	32.772	1260.751	1074.265
-8.575	32.731	1260.328	1073.627
-7.560	32.854	1258.953	1073.111
-6.546	32.753	1258.246	1071.895
-5.531	32.779	1257.129	1071.046
-4.517	32.762	1256.539	1070.402
-3.502	32.738	1255.712	1069.522
-2.487	32.683	1254.883	1068.459
-1.473	32.740	1250.795	1065.259
-0.458	31.559	1236.259	1046.241
0.556	28.059	1218.708	1009.684
1.571	24.556	1224.588	994.989
2.586	23.796	1239.839	1003.002
3.600	23.083	1229.054	990.201
4.615	16.481	1154.757	895.409
5.629	6.158	1077.350	784.057
6.644	1.863	1056.360	747.678
7.659	1.737	1053.667	745.091
8.673	1.459	1052.869	743.102
9.688	1.482	1051.376	742.096
10.702	1.671	1049.929	741.931
11.717	7.692	1058.892	777.727
12.731	18.001	1073.554	839.328
13.746	23.663	1080.769	872.812
14.761	24.789	1081.732	879.052
15.775	24.894	1080.985	878.883
16.790	24.624	1080.404	877.005
17.804	24.664	1079.680	876.538
18.819	24.779	1079.509	876.884
19.834	24.909	1078.921	876.968
20.848	24.920	1078.675	876.743
21.863	24.876	1078.209	876.073
22.877	24.830	1077.022	874.807
23.892	24.854	1076.520	874.436
24.907	24.810	1075.962	873.692
25.921	24.707	1075.143	872.448
26.936	24.847	1073.427	871.660
27.950	24.752	1072.275	870.184
28.965	24.707	1070.219	868.218
29.980	24.663	1069.138	867.054
30.994	24.858	1068.144	867.117
32.009	24.995	1066.700	866.530
33.023	24.738	1065.758	864.446
34.038	24.736	1065.151	863.867
35.053	24.942	1064.335	864.122
36.067	24.806	1063.737	862.903
37.082	24.911	1062.986	862.724
38.096	25.106	1062.505	863.197
39.111	25.083	1061.355	862.074
40.126	24.972	1059.811	860.213
41.140	24.558	1058.561	857.134
42.155	24.371	1057.103	854.982
43.169	24.445	1056.196	854.529
44.184	24.568	1054.853	853.953
45.199	24.482	1053.954	852.740
46.213	24.489	1053.662	852.464
47.228	24.731	1052.625	852.699
48.242	24.684	1051.876	851.797
49.257	24.887	1050.972	851.953
50.271	24.824	1050.571	851.253
51.286	24.971	1049.260	850.814
52.301	24.930	1048.718	850.103
53.315	24.845	1047.639	848.752
54.330	24.858	1046.545	847.855
55.344	24.955	1045.591	847.464
56.359	24.720	1045.471	846.177
57.374	24.601	1044.450	844.715
58.388	24.650	1043.359	843.989
59.403	24.499	1042.394	842.424
60.417	24.256	1041.921	840.819
61.432	24.453	1041.177	841.075
62.447	24.626	1040.474	841.244
63.461	24.711	1039.837	841.054
64.476	24.567	1038.763	839.437
65.490	24.481	1038.083	838.409
66.505	24.708	1036.766	838.335
67.520	24.618	1036.533	837.651
68.534	24.347	1035.210	835.236
69.549	24.096	1033.962	832.985
70.563	24.068	1033.394	832.320
71.578	24.110	1032.318	831.575
72.593	23.870	1031.723	829.902
73.607	23.948	1031.582	830.080
74.622	24.334	1030.937	831.288
75.636	24.370	1030.162	830.757
76.651	24.287	1028.964	829.332
77.666	24.332	1028.215	828.864
78.680	24.284	1027.788	828.224
79.695	24.411	1027.143	828.220
80.709	24.511	1026.462	828.061
81.724	24.452	1025.463	826.911
82.739	24.614	1024.794	827.048
83.753	24.788	1024.434	827.485
84.768	24.972	1023.802	827.752
85.782	25.366	1022.656	828.571
86.797	25.179	1021.646	826.818
87.812	24.958	1020.808	825.048
88.826	25.205	1019.270	824.869
89.841	25.108	1019.105	824.215
90.855	25.179	1017.914	823.507
91.870	25.058	1016.733	821.922
92.884	25.026	1015.945	821.066
93.899	24.822	1015.418	819.636
94.914	24.964	1014.520	819.486
95.928	24.892	1012.832	817.721
96.943	24.701	1011.718	815.880
97.957	24.464	1010.536	813.773
98.972	24.347	1009.748	812.532
99.987	24.598	1008.937	812.949
101.001	24.808	1008.240	813.273
102.016	24.711	1007.671	812.300
103.030	24.684	1006.570	811.218
104.045	24.635	1005.347	809.938
105.060	24.378	1004.993	808.419
106.074	24.623	1004.107	808.744
107.089	24.953	1003.413	809.606
108.103	24.591	1002.800	807.405
109.118	24.539	1001.276	805.871
110.133	24.493	1000.681	805.112
111.147	24.379	999.016	803.189
112.162	24.312	998.035	802.025
113.176	24.485	997.757	802.509
114.191	24.384	996.970	801.353
115.206	24.067	995.477	798.660
116.220	24.015	994.870	797.869
117.235	24.278	993.937	798.229
118.249	24.236	993.311	797.468
119.264	24.227	992.635	796.811
120.279	24.086	992.089	795.673
121.293	24.167	991.316	795.345
122.308	24.217	990.482	794.831
123.322	24.073	989.351	793.208
124.337	23.922	987.789	791.214
125.352	23.642	985.926	788.411
126.366	23.531	985.280	787.329
127.381	24.461	984.982	791.149
128.395	24.607	985.243	791.936
129.410	24.725	984.314	791.638
130.424	24.732	983.170	790.680
131.439	24.875	981.802	790.139
132.454	24.802	980.858	788.990
133.468	24.650	980.318	787.818
134.483	24.758	979.527	787.587
135.497	25.020	978.866	788.136
136.512	25.001	977.854	787.168
137.527	25.141	976.663	786.755
138.541	25.094	976.220	786.125
139.556	25.088	975.406	785.374
140.570	25.117	974.602	784.782
141.585	25.144	973.690	784.096
142.600	25.045	972.655	782.762
143.614	25.167	971.973	782.674
144.629	25.352	971.292	782.864
145.643	25.086	970.037	780.625
146.658	25.086	968.294	779.152
147.673	24.906	967.536	777.692
148.687	24.882	966.883	776.993
149.702	24.708	965.803	775.302
150.716	24.848	964.611	774.884
151.731	24.927	964.090	774.740
152.746	25.105	963.433	774.914
153.760	25.227	962.975	775.001
154.775	25.156	962.896	774.565
155.789	25.236	961.744	773.913
156.804	25.169	960.316	772.408
157.819	25.181	960.188	772.290
158.833	25.395	959.178	772.328
159.848	25.510	957.942	771.757
160.862	25.214	956.900	769.581
161.877	25.135	956.650	768.974
162.892	25.148	955.536	768.063
163.906	25.121	954.236	766.837
164.921	25.142	953.345	766.144
165.935	25.161	952.338	765.345
166.950	25.269	951.247	764.863
167.964	25.138	951.142	764.153
168.979	25.032	949.277	762.137
169.994	24.995	948.447	761.244
171.008	25.210	948.430	762.078
172.023	25.301	947.291	761.480
173.037	25.033	946.473	759.619
174.052	24.686	945.767	757.516
175.067	24.928	945.049	757.896
176.081	24.972	944.394	757.490
177.096	24.956	943.185	756.385
178.110	24.580	942.761	754.391
179.125	24.436	941.742	752.903
180.140	24.619	941.455	753.377
181.154	24.679	941.342	753.473
182.169	24.942	941.434	754.588
183.183	25.164	940.859	754.996
184.198	25.126	939.285	753.507
185.213	25.072	938.537	752.616
186.227	25.102	938.512	752.654
187.242	25.048	937.809	751.798
188.256	25.226	937.008	751.834
189.271	25.326	936.703	751.943
190.286	24.912	935.364	749.066
191.300	24.218	933.919	744.946
192.315	23.471	932.269	740.444
193.329	23.578	931.783	740.441
194.344	24.549	932.560	745.045
195.359	25.064	932.537	747.106
196.373	25.242	931.955	747.315
197.388	25.027	931.501	745.991
198.402	25.244	930.498	746.023
199.417	25.122	930.245	745.248
200.432	24.859	929.395	743.411
201.446	24.673	928.578	741.919
202.461	24.740	927.673	741.407
203.475	23.870	925.613	736.095
204.490	23.147	924.511	732.162
205.504	23.949	925.260	736.009
206.519	24.599	924.717	738.202
207.534	24.715	924.419	738.375
208.548	25.171	924.400	740.180
209.563	24.996	923.209	738.438
210.577	24.795	922.929	737.320
211.592	25.219	922.911	738.986
212.607	25.366	921.121	738.091
213.621	25.279	920.873	737.472
214.636	25.240	920.328	736.811
215.650	25.096	919.848	735.769
216.665	25.352	918.711	735.845
217.680	25.191	918.484	734.937
218.694	24.880	916.513	732.025
219.709	24.585	916.379	730.646
220.723	24.870	916.528	731.865
221.738	24.923	915.486	731.185
222.753	25.033	914.519	730.794
223.767	25.199	914.292	731.227
224.782	25.450	914.078	732.015
225.796	25.315	913.710	731.105
226.811	24.614	912.019	726.838
227.826	24.003	910.601	723.159
228.840	24.258	910.030	723.677
229.855	24.380	908.818	723.144
230.869	23.998	908.181	721.027
231.884	24.350	908.256	722.448
232.899	25.061	908.229	725.242
233.913	24.980	907.718	724.442
234.928	24.996	907.158	723.995
235.942	24.944	906.562	723.246
236.957	24.640	905.816	721.358
237.972	24.635	905.390	720.935
238.986	24.700	904.730	720.608
240.001	24.724	903.857	719.945
241.015	24.785	904.038	720.273
242.030	24.913	903.154	720.019
243.045	25.071	902.901	720.389
244.059	25.207	902.201	720.314
245.074	24.979	901.238	718.563
246.088	24.627	900.050	716.142
247.103	25.057	899.919	717.698
248.117	25.634	900.092	720.083
249.132	25.743	899.547	720.021
250.147	25.788	899.432	720.044
251.161	25.924	898.694	719.934
252.176	25.962	897.771	719.282
253.190	26.072	897.565	719.492
254.205	26.197	896.914	719.402
255.220	26.136	896.777	718.985
256.234	25.934	895.751	717.297
257.249	25.828	895.129	716.316
258.263	25.812	894.420	715.620
259.278	25.908	893.795	715.439
260.293	26.021	892.990	715.178
261.307	25.862	892.539	714.122
262.322	25.722	891.817	712.929
263.336	24.959	889.545	708.035
264.351	23.933	887.888	702.602
265.366	24.130	887.287	702.842
266.380	25.297	887.925	707.890
267.395	25.581	888.172	709.145
268.409	25.443	887.210	707.769
269.424	25.688	886.732	708.292
270.439	25.663	886.110	707.630
271.453	25.794	885.638	707.707
272.468	25.965	885.628	708.310
273.482	26.018	884.899	707.871
274.497	25.612	883.419	705.036
275.512	25.384	882.274	703.164
276.526	25.710	882.873	704.857
277.541	25.815	882.424	704.849
278.555	25.514	881.847	703.146
279.570	25.445	880.960	702.108
280.585	25.612	880.530	702.353
281.599	25.651	879.442	701.575
282.614	25.002	878.283	698.060
283.628	25.134	877.611	697.979
284.643	25.391	877.351	698.711
285.657	25.088	876.074	696.458
286.672	24.673	875.767	694.537
287.687	25.380	875.245	696.806
288.701	25.240	875.025	696.026
289.716	25.002	874.374	694.525
290.730	24.889	873.680	693.474
291.745	24.641	872.759	691.721
292.760	24.860	872.845	692.578
293.774	26.037	873.176	697.332
294.789	26.351	873.094	698.418
295.803	26.358	872.317	697.759
296.818	26.459	871.203	697.198
297.833	25.909	870.067	694.110
298.847	25.770	869.696	693.216
299.862	26.150	869.447	694.418
300.876	26.413	869.068	695.066
301.891	26.198	868.273	693.543
302.906	25.792	867.354	691.191
303.920	25.874	867.685	691.706
304.935	26.203	867.480	692.743
305.949	26.206	866.660	692.041
306.964	25.946	865.470	690.032
307.979	26.050	864.994	689.989
308.993	26.483	864.717	691.365
310.008	26.418	864.133	690.589
311.022	26.236	863.091	688.998
312.037	26.067	862.692	687.977
313.052	25.843	861.784	686.337
314.066	24.898	859.916	681.193
315.081	24.453	859.895	679.425
316.095	25.170	860.558	682.617
317.110	25.863	859.863	684.641
318.125	25.112	858.282	680.474
319.139	24.119	856.720	675.410
320.154	23.966	856.689	674.746
321.168	24.880	857.303	678.635
322.183	25.565	857.458	681.295
323.197	25.859	856.797	681.820
324.212	26.072	856.383	682.238
325.227	26.001	855.932	681.552
326.241	25.896	855.151	680.473
327.256	25.845	854.538	679.729
328.270	25.796	853.452	678.621
329.285	25.592	852.993	677.429
330.300	25.291	852.252	675.647
331.314	25.504	852.421	676.522
332.329	26.072	851.781	678.091
333.343	26.121	851.912	678.318
334.358	26.050	851.223	677.444
335.373	26.238	850.931	677.856
336.387	26.549	850.570	678.676
337.402	26.496	850.645	678.476
338.416	26.597	850.005	678.285
339.431	26.597	850.066	678.275
340.446	26.751	849.934	678.686
341.460	26.688	849.120	677.742
342.475	26.533	848.105	676.290
343.489	26.508	848.030	676.078
344.504	26.906	847.746	677.278
345.519	27.061	847.177	677.339
346.533	27.120	846.799	677.198
347.548	26.949	846.040	675.893
348.562	26.849	845.868	675.327
349.577	26.848	845.400	674.887
350.592	26.952	844.158	674.222
351.606	26.901	843.614	673.538
352.621	26.800	842.779	672.439
353.635	26.730	842.086	671.566
354.650	26.009	840.629	667.676
355.665	25.059	839.004	662.816
356.679	25.627	838.619	664.551
357.694	26.027	838.521	665.894
358.708	25.919	838.004	665.026
359.723	26.234	838.131	666.227
360.738	26.671	837.523	667.298
361.752	26.623	837.268	666.858
362.767	27.086	836.914	668.219
363.781	27.304	836.459	668.600
364.796	27.085	836.172	667.505
365.810	27.301	836.017	668.119
366.825	27.244	835.350	667.316
367.840	27.069	834.619	666.030
368.854	26.571	833.855	663.537
369.869	26.638	833.072	663.102
370.883	26.577	832.861	662.650
371.898	26.576	832.478	662.284
372.913	26.737	832.049	662.474
373.927	26.771	831.689	662.253
374.942	26.953	831.360	662.595
375.956	26.949	830.959	662.203
376.971	27.131	830.449	662.401
377.986	27.332	829.797	662.553
379.000	27.333	829.357	662.149
380.015	27.109	828.730	660.772
381.029	27.144	828.191	660.414
382.044	27.236	827.562	660.186
383.059	27.366	827.114	660.244
384.073	27.296	826.845	659.716
385.088	27.252	826.001	658.826
386.102	27.013	825.226	657.284
387.117	26.924	824.897	656.642
388.132	26.720	823.413	654.665
389.146	26.255	822.544	652.239
390.161	26.460	822.709	653.050
391.175	26.924	822.776	654.720
392.190	26.706	821.308	652.709
393.205	25.428	818.901	646.148
394.219	23.871	817.536	639.418
395.234	23.673	817.373	638.523
396.248	25.438	818.877	645.993
397.263	26.817	819.748	651.582
398.278	26.739	819.043	650.684
399.292	26.575	818.520	649.621
400.307	26.540	818.013	649.037
401.321	26.721	817.379	649.124
402.336	27.062	817.502	650.385
403.350	27.536	817.537	652.051
404.365	27.743	817.370	652.604
405.380	27.978	817.077	653.150
406.394	28.103	816.417	653.013
407.409	27.988	815.638	651.919
408.423	27.927	815.700	651.695
409.438	28.047	815.401	651.826
410.453	28.141	814.937	651.730
411.467	27.961	814.407	650.609
412.482	27.883	813.984	649.935
413.496	28.060	813.748	650.321
414.511	28.007	813.588	649.945
415.526	28.016	812.752	649.254
416.540	27.803	812.000	647.839
417.555	27.701	811.163	646.753
418.569	27.701	810.627	646.269
419.584	27.681	810.111	645.730
420.599	27.561	809.370	644.655
421.613	108.786	1285.179	1453.830
422.628	93.977	1354.513	1453.900
