DTS Sentinel unit serial number:	SN413079Multiplexer serial number:	ORYXHardware model number:	OX4-SRSoftware version number:	ORYX F/W v4.00 Oryx Data Collector v3.7.2.0data status	okinstallation	princeton_trtdifferential loss correction	single-endedforward channel	channel 1reverse channel	N/Adate	2019/09/13time	18:34:35forward acquisition time	60.00reverse acquisition time	0.00gamma	496.2192k internal	0.2317k external	0.2317temperature offset calibration	1.0130default loss term (dB/km)	0.3790temperature slope calibration	1.0000multiplexer offset coefficient	1.0000multiplexer slope coefficient	1.0000fibre end	0.00T internal ref (°C)	33.19T ext. ref 1 (°C)	4.20T ext. ref 2 (°C)	26.17length (m)	temperature (°C)	Stokes	anti-Stokes-747.200	51.428	0.060	0.057
-746.185	142.104	-0.199	0.267
-745.171	8.129	0.105	-0.080
-744.156	498.675	-0.046	0.106
-743.142	52.302	-0.089	0.086
-742.127	800.000	-0.065	0.207
-741.112	182.037	0.088	0.131
-740.098	-200.000	0.010	0.285
-739.083	-200.000	-0.012	0.228
-738.069	-132.674	-0.191	0.025
-737.054	800.000	0.021	-0.062
-736.039	800.000	0.039	-0.117
-735.025	-26.282	-0.143	0.085
-734.010	-154.178	-0.106	-0.007
-732.996	88.122	-0.073	0.082
-731.981	-146.501	0.143	-0.013
-730.966	-200.000	-0.020	-0.132
-729.952	69.152	-0.236	-0.246
-728.937	-173.184	-0.271	-0.008
-727.923	-63.989	-0.126	0.052
-726.908	-95.638	-0.107	0.029
-725.894	26.536	0.093	-0.079
-724.879	-200.000	0.020	-0.153
-723.864	-140.942	0.220	-0.023
-722.850	153.718	0.103	0.143
-721.835	-13.448	-0.194	-0.127
-720.821	294.127	-0.096	0.177
-719.806	227.311	-0.082	-0.135
-718.791	-19.334	-0.220	-0.138
-717.777	-100.128	-0.252	-0.063
-716.762	-142.762	-0.075	-0.007
-715.748	-34.729	0.135	-0.075
-714.733	-13.538	0.113	-0.074
-713.718	-7.754	0.359	0.245
-712.704	111.550	0.223	-0.272
-711.689	532.090	-0.064	-0.154
-710.675	-158.686	0.070	0.004
-709.660	37.621	-0.102	-0.092
-708.645	17.102	-0.205	0.165
-707.631	-200.000	0.007	0.106
-706.616	85.923	0.089	-0.100
-705.602	-200.000	0.002	0.134
-704.587	-200.000	-0.026	-0.221
-703.572	15.484	-0.151	-0.120
-702.558	99.862	0.098	0.115
-701.543	-200.000	0.016	-0.230
-700.529	33.173	0.139	0.121
-699.514	-5.978	0.139	-0.096
-698.499	-166.587	0.143	-0.006
-697.485	56.066	0.228	0.224
-696.470	-200.000	-0.046	-0.237
-695.456	-200.000	0.007	0.193
-694.441	-50.505	-0.612	0.292
-693.426	163.916	-0.246	-0.350
-692.412	-22.977	-0.296	0.180
-691.397	-77.845	0.151	-0.053
-690.383	380.911	0.284	-0.589
-689.368	800.000	0.116	0.344
-688.354	-195.076	0.203	0.002
-687.339	800.000	0.031	0.106
-686.324	338.308	0.167	-0.328
-685.310	-200.000	0.001	-0.086
-684.295	800.000	-0.049	-0.175
-683.281	-108.271	-0.250	0.055
-682.266	550.779	0.131	0.317
-681.251	-178.466	0.215	-0.005
-680.237	78.432	0.046	-0.050
-679.222	-200.000	-0.027	0.252
-678.208	343.873	0.067	-0.133
-677.193	745.278	-0.233	-0.632
-676.178	-118.886	0.234	0.041
-675.164	230.394	-0.179	-0.296
-674.149	-23.712	-0.104	0.063
-673.135	644.325	-0.139	-0.358
-672.120	-200.000	0.002	0.251
-671.105	-25.556	-0.102	-0.061
-670.091	350.235	-0.128	-0.254
-669.076	-15.637	-0.461	-0.297
-668.062	-123.606	0.129	-0.021
-667.047	-69.559	0.310	0.120
-666.032	-146.970	-0.186	-0.016
-665.018	-70.560	-0.237	0.091
-664.003	-78.281	0.317	-0.110
-662.989	-200.000	-0.058	0.277
-661.974	-121.427	0.155	-0.026
-660.959	-200.000	-0.014	-0.204
-659.945	800.000	-0.059	0.177
-658.930	-53.042	-0.266	0.124
-657.916	-84.343	0.089	-0.028
-656.901	-32.738	0.127	0.071
-655.886	-27.722	0.219	0.128
-654.872	-200.000	0.001	-0.033
-653.857	421.437	0.119	-0.257
-652.843	-200.000	-0.023	-0.183
-651.828	148.431	-0.130	-0.177
-650.814	-11.381	-0.304	-0.202
-649.799	33.771	-0.130	0.115
-648.784	126.894	0.203	-0.259
-647.770	159.956	-0.178	0.250
-646.755	800.000	-0.116	0.384
-645.741	800.000	0.136	-0.394
-644.726	800.000	0.082	0.235
-643.711	-34.776	-0.180	0.099
-642.697	79.384	-0.145	-0.156
-641.682	-14.229	0.278	0.180
-640.668	60.559	-0.202	-0.202
-639.653	-92.706	-0.064	0.018
-638.638	-200.000	0.011	-0.087
-637.624	220.732	0.101	0.164
-636.609	70.896	-0.250	0.261
-635.595	13.006	0.074	-0.058
-634.580	364.626	0.135	0.274
-633.565	80.249	-0.137	0.149
-632.551	375.627	-0.090	-0.185
-631.536	-63.436	0.119	0.049
-630.522	207.533	0.063	-0.098
-629.507	-171.020	-0.041	0.001
-628.492	800.000	0.020	-0.071
-627.478	-200.000	0.003	0.053
-626.463	17.406	0.195	0.156
-625.449	-56.513	0.035	-0.016
-624.434	-108.118	0.235	0.051
-623.419	-8.681	-0.352	-0.238
-622.405	17.439	-0.070	0.056
-621.390	-200.000	0.019	0.094
-620.376	-200.000	-0.016	0.226
-619.361	567.593	-0.080	0.197
-618.346	138.626	0.151	-0.200
-617.332	800.000	0.050	0.183
-616.317	158.560	-0.208	0.291
-615.303	-47.352	-0.199	0.098
-614.288	-45.646	0.026	-0.013
-613.273	235.874	0.079	-0.132
-612.259	19.764	-0.073	0.059
-611.244	-167.116	0.147	0.006
-610.230	358.986	-0.089	-0.179
-609.215	-200.000	-0.267	0.000
-608.201	-101.638	-0.019	-0.005
-607.186	397.797	-0.186	-0.392
-606.171	-80.345	0.227	-0.076
-605.157	217.314	0.091	0.146
-604.142	23.489	-0.292	0.242
-603.128	343.423	0.028	-0.056
-602.113	-55.709	0.190	-0.086
-601.098	800.000	-0.099	-0.437
-600.084	-107.006	0.088	0.020
-599.069	-54.833	-0.205	0.093
-598.055	473.378	0.120	-0.273
-597.040	154.164	-0.081	-0.112
-596.025	346.711	-0.079	-0.157
-595.011	776.713	0.052	-0.143
-593.996	-22.529	0.077	0.047
-592.982	58.660	-0.163	0.161
-591.967	652.885	0.084	0.217
-590.952	26.820	0.215	0.182
-589.938	800.000	-0.025	0.076
-588.923	-200.000	-0.005	-0.182
-587.909	-200.000	-0.009	0.171
-586.894	45.712	-0.175	-0.163
-585.879	754.286	-0.038	-0.104
-584.865	-200.000	0.042	0.375
-583.850	-96.774	-0.154	-0.041
-582.836	-142.341	0.117	-0.012
-581.821	-145.995	-0.500	-0.045
-580.806	-158.171	0.112	-0.007
-579.792	-200.000	-0.003	0.022
-578.777	417.133	-0.110	-0.235
-577.763	-41.311	-0.229	0.118
-576.748	-200.000	-0.568	0.000
-575.733	-29.487	0.086	-0.050
-574.719	-200.000	-0.031	0.139
-573.704	-117.394	0.160	-0.029
-572.690	-37.786	0.135	-0.073
-571.675	-138.785	-0.400	-0.044
-570.661	-200.000	-0.005	0.176
-569.646	-200.000	-0.021	0.316
-568.631	-102.648	0.125	-0.030
-567.617	6.980	-0.274	0.205
-566.602	41.593	0.190	0.173
-565.588	191.238	0.205	-0.310
-564.573	518.750	-0.041	0.097
-563.558	18.669	0.290	0.233
-562.544	-154.676	0.170	-0.011
-561.529	-96.019	0.155	0.041
-560.515	-163.090	0.069	-0.003
-559.500	333.336	-0.153	-0.296
-558.485	-13.311	-0.217	0.142
-557.471	659.806	0.053	-0.138
-556.456	-200.000	0.006	-0.268
-555.442	-200.000	-0.009	-0.129
-554.427	-8.511	0.074	0.050
-553.412	294.648	0.088	0.162
-552.398	155.233	-0.267	0.369
-551.383	-114.910	0.247	0.047
-550.369	103.896	0.092	-0.108
-549.354	-170.721	0.338	-0.012
-548.339	-86.720	0.285	-0.088
-547.325	233.482	-0.165	-0.272
-546.310	164.161	-0.064	-0.091
-545.296	37.474	-0.096	0.086
-544.281	-200.000	-0.009	0.056
-543.266	182.472	0.028	0.041
-542.252	-88.685	-0.054	0.016
-541.237	227.845	0.071	-0.117
-540.223	99.692	-0.087	-0.101
-539.208	-149.906	-0.240	0.019
-538.193	-92.576	0.172	0.049
-537.179	192.578	-0.165	-0.250
-536.164	462.820	-0.102	-0.228
-535.150	-200.000	-0.009	0.099
-534.135	800.000	0.039	0.144
-533.121	-200.000	0.047	0.267
-532.106	-66.805	-0.222	0.088
-531.091	-153.140	-0.110	0.008
-530.077	-200.000	-0.038	-0.201
-529.062	-163.901	-0.317	-0.015
-528.048	-128.791	0.402	0.057
-527.033	-9.710	-0.295	-0.197
-526.018	-5.989	-0.304	-0.209
-525.004	-14.454	0.235	-0.152
-523.989	-200.000	0.011	-0.078
-522.975	-1.528	0.140	0.099
-521.960	-200.000	-0.018	-0.219
-520.945	-114.845	0.282	0.054
-519.931	-134.289	0.216	0.027
-518.916	133.556	0.196	-0.255
-517.902	702.364	-0.043	-0.115
-516.887	800.000	0.072	-0.238
-515.872	-85.975	0.203	0.063
-514.858	67.931	-0.047	-0.048
-513.843	-106.327	0.242	-0.054
-512.829	-93.682	0.068	-0.019
-511.814	-3.549	-0.202	-0.141
-510.799	714.869	-0.062	-0.164
-509.785	-200.000	0.035	-0.176
-508.770	-174.853	-0.089	-0.003
-507.756	-28.933	-0.199	0.115
-506.741	-160.563	0.277	0.015
-505.726	9.159	-0.078	0.059
-504.712	-200.000	-0.004	-0.332
-503.697	256.982	0.155	0.268
-502.683	-66.413	0.196	0.078
-501.668	800.000	-0.052	0.151
-500.653	25.696	-0.022	-0.019
-499.639	800.000	-0.080	-0.273
-498.624	4.460	0.171	0.126
-497.610	27.813	0.127	-0.107
-496.595	-200.000	-0.056	-0.292
-495.581	135.866	0.129	-0.169
-494.566	-149.120	0.419	0.034
-493.551	390.321	0.157	-0.326
-492.537	800.000	-0.159	-0.463
-491.522	130.566	-0.034	-0.044
-490.508	-26.796	0.114	0.067
-489.493	-200.000	-0.045	0.421
-488.478	185.097	-0.091	0.135
-487.464	-200.000	0.014	0.175
-486.449	192.803	0.084	0.128
-485.435	800.000	0.025	0.078
-484.420	-200.000	-0.055	-0.306
-483.405	-164.413	-0.264	0.012
-482.391	-25.907	0.057	0.033
-481.376	266.298	0.106	0.186
-480.362	-79.314	0.437	0.148
-479.347	-200.000	-0.007	0.106
-478.332	329.783	0.045	0.086
-477.318	-12.316	-0.106	0.069
-476.303	-111.638	-0.079	0.016
-475.289	-200.000	-0.027	0.203
-474.274	244.869	-0.115	-0.193
-473.259	-36.983	-0.130	0.070
-472.245	-121.741	-0.256	-0.042
-471.230	-200.000	0.031	0.146
-470.216	413.305	-0.205	-0.436
-469.201	18.909	-0.197	-0.158
-468.186	-43.625	0.064	-0.032
-467.172	-143.659	0.222	0.021
-466.157	423.055	0.003	-0.007
-465.143	-58.877	0.095	-0.041
-464.128	109.226	0.209	0.251
-463.113	-200.000	0.003	-0.204
-462.099	800.000	0.098	0.374
-461.084	256.947	-0.022	0.037
-460.070	27.000	-0.124	0.104
-459.055	-200.000	0.222	0.000
-458.040	-131.878	-0.166	0.022
-457.026	-84.811	-0.140	0.044
-456.011	50.897	0.379	0.360
-454.997	-200.000	-0.005	0.242
-453.982	-200.000	-0.022	0.133
-452.968	157.122	0.247	-0.342
-451.953	-200.000	-0.008	0.385
-450.938	526.878	-0.073	0.172
-449.924	-33.756	-0.118	-0.065
-448.909	140.171	-0.217	0.287
-447.895	104.759	0.273	0.322
-446.880	-75.393	0.105	0.038
-445.865	697.680	0.109	-0.286
-444.851	-23.971	-0.179	0.107
-443.836	-66.615	-0.079	0.031
-442.822	-200.000	0.005	0.218
-441.807	-122.056	0.082	0.014
-440.792	195.348	0.153	-0.233
-439.778	-78.173	0.110	0.038
-438.763	-146.624	0.321	-0.028
-437.749	800.000	-0.063	-0.207
-436.734	800.000	-0.166	0.474
-435.719	-12.199	-0.177	-0.116
-434.705	-21.944	-0.078	-0.048
-433.690	71.827	0.069	-0.071
-432.676	-151.563	-0.320	0.024
-431.661	-56.075	0.325	-0.145
-430.646	735.340	-0.064	0.171
-429.632	-106.463	-0.249	0.056
-428.617	-200.000	0.008	0.241
-427.603	-44.305	0.387	0.194
-426.588	97.067	-0.064	0.073
-425.573	-64.226	-0.136	0.055
-424.559	211.564	-0.133	0.209
-423.544	-200.000	0.021	0.155
-422.530	-17.513	0.198	0.124
-421.515	-139.356	0.220	-0.024
-420.500	53.044	-0.240	0.229
-419.486	95.645	0.142	-0.162
-418.471	-44.294	-0.214	-0.107
-417.457	-200.000	0.024	0.131
-416.442	-59.561	0.049	0.021
-415.428	515.002	-0.061	0.142
-414.413	-93.853	-0.091	0.025
-413.398	-5.446	-0.166	0.114
-412.384	800.000	0.025	-0.069
-411.369	-200.000	-0.350	0.001
-410.355	-10.481	-0.192	-0.127
-409.340	200.352	0.073	0.113
-408.325	-71.089	0.451	-0.169
-407.311	466.722	-0.068	-0.153
-406.296	-200.000	0.026	0.337
-405.282	159.843	0.180	-0.250
-404.267	-200.000	-0.022	-0.133
-403.252	-89.664	0.167	-0.049
-402.238	639.565	-0.097	-0.246
-401.223	-200.000	-0.124	-0.599
-400.209	-72.904	-0.152	-0.056
-399.194	354.270	-0.097	0.193
-398.179	800.000	0.078	-0.216
-397.165	-94.557	-0.198	0.054
-396.150	343.974	0.058	-0.113
-395.136	-176.920	-0.041	-0.001
-394.121	-129.493	0.372	0.051
-393.106	72.535	0.095	0.099
-392.092	15.390	0.216	-0.170
-391.077	376.781	-0.159	-0.323
-390.063	-82.317	0.341	-0.111
-389.048	-159.688	-0.253	0.014
-388.033	-200.000	0.018	-0.118
-387.019	45.911	-0.236	0.218
-386.004	-67.216	0.107	-0.042
-384.990	-122.568	0.135	-0.022
-383.975	-129.197	0.262	0.036
-382.960	298.613	-0.171	0.313
-381.946	326.817	-0.029	0.055
-380.931	-47.502	-0.177	-0.086
-379.917	-61.574	-0.345	-0.144
-378.902	800.000	0.125	0.373
-377.888	-104.471	0.063	0.015
-376.873	-65.198	0.424	0.171
-375.858	-3.046	-0.181	0.126
-374.844	800.000	0.064	-0.276
-373.829	-107.872	-0.261	0.057
-372.815	-200.000	-0.007	0.043
-371.800	-50.321	-0.345	0.163
-370.785	361.023	0.161	-0.322
-369.771	49.507	0.259	-0.244
-368.756	145.015	-0.138	0.184
-367.742	-200.000	0.009	-0.135
-366.727	182.157	-0.053	0.078
-365.712	-200.000	0.027	-0.390
-364.698	-67.512	0.328	0.128
-363.683	-148.035	-0.573	0.047
-362.669	175.047	-0.121	0.175
-361.654	800.000	-0.039	0.152
-360.639	-110.278	0.120	0.025
-359.625	800.000	-0.115	0.380
-358.610	800.000	0.072	0.215
-357.596	193.576	0.094	0.142
-356.581	-35.789	0.300	-0.162
-355.566	-17.521	-0.079	0.049
-354.552	-109.966	0.074	0.015
-353.537	-111.185	0.296	-0.060
-352.523	-200.000	-0.069	0.345
-351.508	800.000	0.056	0.220
-350.493	-200.000	-0.002	0.046
-349.479	79.731	0.100	-0.107
-348.464	433.526	-0.087	-0.189
-347.450	800.000	-0.130	0.397
-346.435	143.554	-0.045	0.059
-345.420	459.870	-0.154	-0.341
-344.406	19.274	0.069	0.056
-343.391	177.258	-0.030	0.043
-342.377	-76.535	0.148	0.052
-341.362	-104.059	-0.077	0.018
-340.348	27.952	-0.176	0.148
-339.333	93.734	-0.344	0.388
-338.318	80.458	-0.098	-0.105
-337.304	-24.312	0.205	0.122
-336.289	-76.767	0.254	0.088
-335.275	800.000	0.120	-0.329
-334.260	-167.283	0.099	-0.004
-333.245	156.253	-0.120	0.165
-332.231	136.116	-0.154	-0.200
-331.216	18.076	0.313	-0.249
-330.202	800.000	-0.033	0.107
-329.187	-44.248	0.110	-0.055
-328.172	-107.313	-0.398	-0.087
-327.158	-5.408	-0.055	0.037
-326.143	-200.000	0.006	0.152
-325.129	-42.074	-0.099	0.050
-324.114	800.000	-0.079	0.295
-323.099	-59.218	0.046	0.020
-322.085	-53.219	0.108	-0.049
-321.070	-200.000	0.023	0.117
-320.056	-144.137	-0.287	-0.027
-319.041	-31.279	0.257	0.144
-318.026	-200.000	0.022	-0.140
-317.012	76.135	0.131	-0.139
-315.997	-200.000	-0.056	-0.407
-314.983	-39.231	0.221	0.115
-313.968	800.000	0.106	0.443
-312.953	142.402	-0.186	-0.245
-311.939	-83.570	-0.161	-0.051
-310.924	275.396	-0.100	-0.176
-309.910	70.265	-0.176	0.181
-308.895	-200.000	-0.037	0.169
-307.880	-4.571	0.348	-0.239
-306.866	800.000	0.059	-0.238
-305.851	800.000	0.026	-0.096
-304.837	-200.000	-0.039	-0.177
-303.822	-113.927	-0.188	-0.036
-302.807	800.000	-0.059	0.174
-301.793	-76.744	-0.384	-0.134
-300.778	-0.567	0.209	0.148
-299.764	190.362	-0.163	-0.244
-298.749	-200.000	-0.041	-0.188
-297.735	-165.882	0.167	-0.007
-296.720	528.121	-0.142	-0.333
-295.705	27.057	-0.063	0.053
-294.691	-106.836	-0.070	0.015
-293.676	-91.458	0.402	0.114
-292.662	18.899	0.057	-0.045
-291.647	26.979	0.263	-0.219
-290.632	522.858	-0.112	-0.262
-289.618	168.739	0.103	-0.146
-288.603	-93.363	0.009	0.002
-287.589	533.301	-0.117	-0.275
-286.574	-79.294	0.228	0.077
-285.559	-14.967	0.213	0.136
-284.545	348.398	-0.129	-0.253
-283.530	-24.484	-0.267	0.158
-282.516	-107.523	-0.193	-0.042
-281.501	384.117	0.194	0.396
-280.486	54.293	0.063	-0.061
-279.472	-125.014	-0.214	-0.033
-278.457	452.839	-0.050	0.110
-277.443	-48.290	0.300	0.144
-276.428	144.627	-0.125	0.165
-275.413	-42.386	-0.284	0.144
-274.399	-200.000	-0.062	0.308
-273.384	-18.486	-0.310	0.192
-272.370	21.457	-0.127	-0.102
-271.355	73.270	0.369	-0.383
-270.340	61.601	0.274	0.270
-269.326	-140.909	0.188	0.019
-268.311	174.154	-0.114	0.164
-267.297	-200.000	0.010	0.325
-266.282	194.876	0.114	-0.173
-265.267	60.484	0.244	-0.240
-264.253	-121.883	-0.205	-0.034
-263.238	45.053	-0.220	0.201
-262.224	-78.636	0.093	-0.032
-261.209	133.433	-0.109	0.140
-260.195	-200.000	0.067	-0.300
-259.180	-200.000	-0.027	0.147
-258.165	-200.000	-0.020	0.122
-257.151	118.117	0.016	0.019
-256.136	800.000	0.032	-0.135
-255.122	-49.066	0.199	0.095
-254.107	-17.778	0.168	-0.105
-253.092	-58.607	-0.325	0.140
-252.078	-200.000	-0.002	-0.269
-251.063	800.000	-0.066	0.191
-250.049	305.742	0.024	-0.045
-249.034	-137.134	0.055	0.006
-248.019	-126.597	0.148	-0.022
-247.005	-200.000	-0.012	-0.134
-245.990	800.000	0.019	-0.060
-244.976	-117.782	0.194	-0.035
-243.961	-200.000	-0.042	0.284
-242.946	63.318	-0.211	0.210
-241.932	97.869	0.227	-0.259
-240.917	-38.370	-0.097	-0.051
-239.903	-200.000	0.009	0.077
-238.888	217.094	0.073	-0.116
-237.873	83.709	-0.207	0.224
-236.859	-32.529	-0.255	-0.141
-235.844	92.795	0.237	-0.266
-234.830	-56.704	0.090	-0.039
-233.815	228.023	-0.040	-0.065
-232.800	-54.300	0.195	-0.088
-231.786	-200.000	-0.033	-0.198
-230.771	800.000	-0.033	-0.097
-229.757	-129.324	-0.055	-0.008
-228.742	-200.000	-0.013	-0.180
-227.727	56.734	-0.317	-0.306
-226.713	-95.930	0.192	-0.051
-225.698	-200.000	0.001	-0.091
-224.684	-81.457	-0.236	0.077
-223.669	-22.066	0.325	-0.196
-222.655	-200.000	0.038	0.253
-221.640	800.000	-0.075	0.302
-220.625	800.000	0.039	0.140
-219.611	-62.393	-0.162	0.067
-218.596	189.599	-0.096	0.143
-217.582	418.775	-0.050	0.107
-216.567	-200.000	-0.005	0.554
-215.552	217.054	-0.123	0.195
-214.538	0.264	0.133	-0.094
-213.523	457.645	-0.142	-0.314
-212.509	-200.000	-0.020	0.234
-211.494	800.000	0.050	0.145
-210.479	-28.641	-0.280	-0.160
-209.465	-101.147	0.090	-0.022
-208.450	13.383	0.078	-0.060
-207.436	-67.331	0.157	-0.061
-206.421	0.502	-0.182	0.129
-205.406	5.388	0.075	0.055
-204.392	-71.850	-0.202	0.075
-203.377	800.000	-0.056	-0.192
-202.363	-200.000	0.048	-0.228
-201.348	-91.355	-0.198	0.056
-200.333	82.894	0.062	0.067
-199.319	34.522	0.132	-0.114
-198.304	800.000	0.074	-0.217
-197.290	228.199	0.120	-0.193
-196.275	-6.954	-0.043	-0.029
-195.260	-47.569	0.177	0.085
-194.246	-79.320	0.039	0.013
-193.231	-84.099	-0.157	0.049
-192.217	293.801	0.005	0.010
-191.202	-200.000	0.061	0.367
-190.187	800.000	-0.012	-0.041
-189.173	47.178	0.159	-0.147
-188.158	797.841	-0.114	-0.310
-187.144	800.000	0.035	-0.119
-186.129	10.269	-0.077	0.058
-185.114	-152.561	0.202	0.014
-184.100	-100.916	0.334	-0.081
-183.085	-99.119	0.219	0.055
-182.071	-18.202	-0.142	-0.088
-181.056	150.642	-0.112	-0.150
-180.042	-200.000	-0.031	-0.387
-179.027	-88.939	-0.291	0.085
-178.012	511.998	-0.176	-0.407
-176.998	-200.000	0.027	-0.231
-175.983	-113.925	0.131	0.025
-174.969	-109.307	0.098	0.021
-173.954	28.693	-0.104	-0.087
-172.939	551.690	0.048	0.115
-171.925	-132.993	0.212	0.027
-170.910	-200.000	0.011	-0.143
-169.896	331.823	-0.238	-0.454
-168.881	168.309	-0.119	-0.168
-167.866	-107.737	-0.494	0.107
-166.852	-108.666	0.485	0.103
-165.837	-26.586	-0.057	0.033
-164.823	-200.000	-0.001	0.327
-163.808	148.300	0.103	0.138
-162.793	-76.415	-0.336	0.117
-161.779	-105.537	0.052	-0.012
-160.764	-132.656	0.073	0.009
-159.750	3.362	0.165	0.119
-158.735	-122.362	0.116	0.019
-157.720	7.708	0.036	0.027
-156.706	-160.356	0.467	0.025
-155.691	92.851	-0.114	-0.128
-154.677	36.834	-0.131	-0.115
-153.662	310.515	-0.041	-0.077
-152.647	317.998	0.061	0.114
-151.633	-200.000	-0.004	-0.260
-150.618	-174.682	0.071	0.002
-149.604	-6.279	0.149	0.100
-148.589	-160.324	-0.107	-0.006
-147.574	32.193	-0.209	-0.178
-146.560	35.501	-0.127	0.110
-145.545	-200.000	-0.046	-0.221
-144.531	-116.655	0.246	0.045
-143.516	287.687	0.114	-0.203
-142.502	9.489	-0.072	0.054
-141.487	800.000	-0.043	0.134
-140.472	-98.978	0.222	0.056
-139.458	241.139	0.142	-0.234
-138.443	-38.193	-0.272	-0.143
-137.429	800.000	-0.096	0.283
-136.414	-152.281	-0.074	-0.005
-135.399	800.000	-0.105	0.396
-134.385	1.715	0.078	-0.056
-133.370	-54.545	0.234	-0.105
-132.356	-21.470	-0.273	0.165
-131.341	-186.339	-0.166	-0.002
-130.326	287.129	-0.052	-0.093
-129.312	-200.000	0.031	-0.153
-128.297	-15.195	0.076	0.048
-127.283	472.730	-0.138	0.308
-126.268	-110.874	0.177	0.036
-125.253	800.000	-0.058	-0.235
-124.239	189.231	-0.238	-0.352
-123.224	-72.416	-0.159	-0.058
-122.210	360.616	0.239	-0.473
-121.195	-1.742	-0.265	0.184
-120.180	226.843	0.119	0.192
-119.166	-57.071	-0.124	0.054
-118.151	-56.770	0.243	-0.106
-117.137	402.765	-0.051	-0.107
-116.122	-76.778	0.346	-0.120
-115.107	-57.347	0.294	-0.128
-114.093	-57.669	-0.113	0.049
-113.078	-176.524	0.512	-0.013
-112.064	5.871	-0.175	0.128
-111.049	464.300	0.113	-0.251
-110.034	306.679	-0.075	-0.139
-109.020	39.098	0.204	0.180
-108.005	28.957	-0.139	-0.117
-106.991	-200.000	0.001	0.142
-105.976	-200.000	0.015	0.099
-104.962	73.583	0.158	-0.164
-103.947	8.993	-0.145	-0.108
-102.932	800.000	0.114	0.326
-101.918	-45.997	-0.063	-0.031
-100.903	78.076	0.175	0.184
-99.889	-38.929	0.187	0.097
-98.874	800.000	0.101	0.306
-97.859	-200.000	0.012	-0.193
-96.845	13.939	-0.091	-0.070
-95.830	94.674	0.146	-0.164
-94.816	-200.000	0.053	-0.306
-93.801	-44.376	0.166	-0.082
-92.786	-111.062	0.325	-0.066
-91.772	92.441	-0.035	-0.039
-90.757	-200.000	0.030	0.182
-89.743	-126.277	0.184	-0.027
-88.728	-69.717	0.310	-0.117
-87.713	-178.447	-0.204	-0.005
-86.699	-125.424	0.307	0.046
-85.684	-153.585	0.212	0.014
-84.670	685.251	0.098	0.252
-83.655	18.686	0.188	-0.149
-82.640	-105.139	-0.021	-0.005
-81.626	-74.272	0.095	-0.034
-80.611	28.060	0.132	0.110
-79.597	-75.829	0.087	0.030
-78.582	233.140	0.092	-0.150
-77.567	800.000	-0.079	-0.305
-76.553	-200.000	-0.003	-0.040
-75.538	-51.672	0.179	0.082
-74.524	-200.000	-0.012	-0.149
-73.509	-41.514	-0.232	-0.118
-72.494	800.000	-0.047	0.145
-71.480	73.946	-0.165	0.171
-70.465	-166.107	-0.135	0.006
-69.451	1.774	-0.108	-0.077
-68.436	-103.208	0.135	-0.031
-67.422	-105.930	0.196	-0.044
-66.407	-122.444	0.028	-0.004
-65.392	-13.065	0.311	0.199
-64.378	-0.642	0.014	-0.009
-63.363	-51.935	0.155	-0.071
-62.349	78.843	-0.131	-0.138
-61.334	66.156	-1.017	-1.017
-60.319	97.193	0.404	0.457
-59.305	585.752	-0.444	-1.076
-58.290	-5.280	1.007	0.682
-57.276	516.929	0.694	1.598
-56.261	-200.000	95.740	579.206
-55.246	646.769	1373.756	3458.991
-54.232	198.686	2546.149	3840.906
-53.217	119.479	2143.088	2614.768
-52.203	44.865	1609.198	1459.506
-51.188	36.740	1347.725	1173.309
-50.173	33.557	1305.778	1118.010
-49.159	55.120	1352.662	1287.963
-48.144	57.339	1369.149	1316.909
-47.130	36.788	1328.884	1157.010
-46.115	33.335	1311.340	1121.280
-45.100	33.183	1306.227	1115.965
-44.086	33.081	1303.805	1113.251
-43.071	33.050	1301.607	1111.151
-42.057	33.014	1299.447	1109.050
-41.042	33.160	1297.670	1108.346
-40.027	33.066	1296.879	1107.073
-39.013	33.020	1294.774	1104.964
-37.998	33.081	1292.942	1103.717
-36.984	33.269	1290.734	1102.880
-35.969	33.205	1289.393	1101.320
-34.954	33.154	1287.628	1099.473
-33.940	33.265	1285.888	1098.585
-32.925	33.313	1284.856	1097.939
-31.911	33.273	1283.344	1096.373
-30.896	33.341	1281.603	1095.238
-29.881	33.221	1280.730	1093.750
-28.867	33.271	1279.531	1092.974
-27.852	33.382	1277.718	1092.019
-26.838	33.297	1276.146	1090.146
-25.823	33.429	1274.782	1089.696
-24.809	33.272	1273.922	1088.015
-23.794	33.247	1272.803	1086.873
-22.779	33.153	1271.231	1084.949
-21.765	33.197	1269.991	1084.098
-20.750	33.237	1268.446	1082.964
-19.736	33.196	1267.491	1081.872
-18.721	33.166	1266.333	1080.673
-17.706	33.190	1265.329	1079.910
-16.692	33.170	1264.722	1079.229
-15.677	33.146	1262.991	1077.574
-14.663	33.157	1261.793	1076.574
-13.648	33.092	1261.357	1075.789
-12.633	33.146	1259.627	1074.578
-11.619	33.127	1259.215	1074.075
-10.604	33.115	1257.949	1072.883
-9.590	33.132	1257.284	1072.373
-8.575	33.091	1256.485	1071.414
-7.560	33.112	1255.421	1070.582
-6.546	33.079	1254.926	1069.934
-5.531	33.054	1253.816	1068.801
-4.517	33.220	1252.793	1068.825
-3.502	33.124	1251.898	1067.481
-2.487	33.086	1251.230	1066.652
-1.473	33.001	1246.911	1062.447
-0.458	31.076	1230.780	1037.966
0.556	27.732	1211.211	991.735
1.571	23.111	1214.764	969.297
2.586	21.714	1228.940	972.775
3.600	20.822	1217.115	958.418
4.615	15.702	1145.654	875.481
5.629	7.880	1073.215	781.763
6.644	4.429	1053.575	750.725
7.659	4.239	1050.878	747.820
8.673	4.028	1049.891	746.035
9.688	4.105	1048.614	745.434
10.702	4.320	1047.137	745.352
11.717	8.528	1052.659	769.499
12.731	16.389	1063.581	815.500
13.746	20.595	1069.344	840.216
14.761	21.041	1068.280	841.456
15.775	20.136	1066.280	835.448
16.790	18.927	1065.180	828.688
17.804	18.417	1062.978	824.447
18.819	18.185	1061.671	822.248
19.834	17.912	1061.585	820.797
20.848	17.827	1060.115	819.180
21.863	17.575	1059.741	817.606
22.877	17.490	1058.811	816.408
23.892	17.489	1058.146	815.822
24.907	17.500	1057.621	815.398
25.921	17.557	1056.003	814.346
26.936	17.522	1054.725	813.126
27.950	17.480	1053.765	812.112
28.965	17.588	1052.528	811.599
29.980	17.740	1050.441	810.645
30.994	17.899	1049.428	810.542
32.009	17.872	1048.433	809.575
33.023	17.885	1047.520	808.863
34.038	17.625	1046.635	806.874
35.053	17.564	1046.056	806.069
36.067	17.494	1045.080	804.912
37.082	17.631	1044.336	804.917
38.096	17.679	1043.373	804.331
39.111	17.641	1043.190	803.940
40.126	17.467	1041.718	801.912
41.140	17.356	1040.017	800.009
42.155	17.197	1038.952	798.373
43.169	17.116	1037.833	797.063
44.184	17.177	1036.679	796.393
45.199	17.094	1036.457	795.763
46.213	17.220	1035.016	795.175
47.228	17.533	1034.097	795.863
48.242	17.526	1032.976	794.898
49.257	17.486	1031.861	793.780
50.271	17.612	1031.316	793.879
51.286	17.666	1030.697	793.582
52.301	17.617	1029.585	792.430
53.315	17.555	1028.413	791.170
54.330	17.313	1027.546	789.311
55.344	17.292	1026.813	788.577
56.359	17.334	1025.746	787.882
57.374	17.328	1024.943	787.172
58.388	17.253	1023.643	785.755
59.403	17.123	1023.111	784.677
60.417	17.146	1022.622	784.340
61.432	17.095	1021.867	783.453
62.447	17.174	1020.384	782.610
63.461	17.034	1020.212	781.766
64.476	16.900	1019.170	780.284
65.490	16.931	1018.551	779.883
66.505	17.096	1017.752	779.958
67.520	17.098	1016.810	779.175
68.534	17.093	1016.493	778.843
69.549	17.058	1015.546	777.888
70.563	16.953	1014.621	776.629
71.578	16.886	1013.991	775.772
72.593	16.774	1013.166	774.561
73.607	16.816	1012.168	773.922
74.622	16.890	1011.873	773.962
75.636	16.895	1011.224	773.423
76.651	16.994	1010.001	772.870
77.666	17.011	1009.826	772.746
78.680	16.967	1009.079	771.906
79.695	16.935	1008.719	771.414
80.709	17.066	1008.138	771.499
81.724	17.249	1007.724	771.945
82.739	17.222	1006.797	771.041
83.753	17.606	1006.152	772.222
84.768	17.704	1005.422	772.037
85.782	17.841	1004.619	771.972
86.797	17.792	1003.505	770.827
87.812	17.614	1002.550	769.221
88.826	17.494	1001.798	768.036
89.841	17.649	1000.790	767.893
90.855	17.819	999.578	767.657
91.870	17.775	999.165	767.076
92.884	17.684	998.204	765.861
93.899	17.847	997.131	765.700
94.914	17.988	996.143	765.506
95.928	18.000	995.344	764.878
96.943	17.680	994.690	762.878
97.957	17.658	993.628	761.897
98.972	17.710	992.606	761.280
99.987	17.783	992.063	761.121
101.001	17.776	990.900	760.128
102.016	17.634	990.527	759.143
103.030	17.710	989.869	758.911
104.045	17.759	988.948	758.356
105.060	17.425	988.064	756.126
106.074	17.267	987.111	754.627
107.089	17.179	985.817	753.182
108.103	17.240	984.503	752.380
109.118	17.269	983.538	751.707
110.133	17.112	983.221	750.704
111.147	17.280	981.964	750.420
112.162	17.159	981.351	749.351
113.176	17.343	981.125	749.921
114.191	17.436	980.131	749.507
115.206	17.458	978.780	748.504
116.220	17.269	978.160	747.132
117.235	17.230	977.574	746.445
118.249	17.290	976.470	745.799
119.264	17.050	976.571	744.758
120.279	17.041	975.103	743.536
121.293	17.043	974.321	742.882
122.308	17.023	973.182	741.858
123.322	16.954	972.403	740.901
124.337	16.989	971.397	740.218
125.352	17.181	970.037	739.953
126.366	16.988	969.467	738.616
127.381	17.078	968.348	738.086
128.395	17.147	967.503	737.678
129.410	17.135	966.435	736.748
130.424	17.164	965.625	736.191
131.439	17.343	964.815	736.284
132.454	17.287	964.536	735.761
133.468	17.352	963.815	735.427
134.483	17.372	962.636	734.551
135.497	17.292	962.306	733.886
136.512	17.383	961.122	733.310
137.527	17.175	960.756	732.071
138.541	17.503	959.793	732.684
139.556	17.475	959.138	731.998
140.570	17.467	958.656	731.533
141.585	17.672	957.966	731.822
142.600	17.895	956.682	731.732
143.614	17.722	956.263	730.604
144.629	17.967	955.370	730.907
145.643	17.699	954.393	728.949
146.658	17.645	953.185	727.731
147.673	17.557	951.782	726.223
148.687	17.525	950.932	725.370
149.702	17.392	950.235	724.209
150.716	17.374	949.737	723.691
151.731	17.468	949.127	723.558
152.746	17.444	948.378	722.823
153.760	17.395	948.153	722.380
154.775	17.526	946.982	721.977
155.789	17.572	946.622	721.835
156.804	17.745	945.510	721.655
157.819	17.642	945.269	720.970
158.833	17.882	944.281	721.168
159.848	17.993	943.713	721.139
160.862	17.757	942.639	719.262
161.877	17.540	941.383	717.323
162.892	17.486	940.040	716.011
163.906	17.395	939.384	715.064
164.921	17.444	938.890	714.833
165.935	17.516	937.969	714.369
166.950	17.659	937.089	714.236
167.964	17.511	936.074	712.780
168.979	17.472	935.153	711.849
169.994	17.643	933.999	711.626
171.008	17.682	933.611	711.427
172.023	17.596	933.425	710.863
173.037	17.865	932.544	711.250
174.052	17.655	931.980	709.884
175.067	17.487	931.050	708.413
176.081	17.425	930.260	707.492
177.096	17.459	929.618	707.082
178.110	17.485	929.179	706.794
179.125	17.561	928.462	706.503
180.140	17.595	928.312	706.464
181.154	17.697	927.594	706.280
182.169	17.901	927.446	706.949
183.183	17.918	926.731	706.411
184.198	17.844	925.910	705.417
185.213	17.802	925.166	704.615
186.227	17.953	924.207	704.443
187.242	18.084	923.878	704.673
188.256	18.174	923.501	704.693
189.271	18.083	922.892	703.793
190.286	17.731	921.656	701.338
191.300	17.491	920.272	699.238
192.315	17.291	919.777	697.978
193.329	17.472	919.337	698.325
194.344	17.437	919.214	698.026
195.359	17.754	918.408	698.653
196.373	17.960	917.562	698.790
197.388	17.919	917.685	698.653
198.402	18.126	917.147	699.027
199.417	18.283	916.381	699.026
200.432	18.325	915.907	698.773
201.446	18.319	915.752	698.568
202.461	18.333	915.271	698.195
203.475	18.359	914.327	697.522
204.490	18.207	913.332	696.082
205.504	17.957	912.448	694.330
206.519	18.096	911.848	694.378
207.534	17.942	910.831	692.916
208.548	18.025	910.763	693.139
209.563	17.986	910.205	692.493
210.577	18.143	909.246	692.341
211.592	18.256	908.578	692.229
212.607	18.377	907.670	691.963
213.621	18.202	907.344	690.945
214.636	18.189	906.523	690.208
215.650	18.262	906.070	690.096
216.665	18.354	905.113	689.678
217.680	18.405	904.490	689.344
218.694	18.500	903.807	689.148
219.709	18.264	903.737	688.083
220.723	18.340	903.036	687.793
221.738	18.385	901.820	686.988
222.753	18.486	901.119	686.800
223.767	18.550	900.679	686.660
224.782	18.488	900.565	686.261
225.796	18.673	899.519	686.145
226.811	18.390	899.686	685.079
227.826	18.463	898.220	684.195
228.840	18.389	897.521	683.306
229.855	18.438	896.696	682.810
230.869	18.340	896.127	681.930
231.884	18.225	895.624	681.027
232.899	18.254	894.534	680.252
233.913	18.285	893.709	679.690
234.928	18.160	893.187	678.736
235.942	18.052	893.067	678.156
236.957	18.282	892.060	678.243
237.972	18.142	891.683	677.340
238.986	18.227	890.731	676.896
240.001	18.239	890.347	676.589
241.015	18.310	889.973	676.526
242.030	18.232	889.405	675.726
243.045	18.406	888.708	675.824
244.059	18.480	888.337	675.773
245.074	18.515	887.530	675.238
246.088	18.444	886.949	674.456
247.103	18.553	886.615	674.572
248.117	18.907	885.706	675.213
249.132	19.002	885.674	675.503
250.147	19.093	885.184	675.425
251.161	19.103	884.607	674.963
252.176	19.083	884.160	674.487
253.190	19.124	883.346	673.963
254.205	19.296	882.751	674.124
255.220	19.262	882.071	673.411
256.234	19.132	881.761	672.607
257.249	19.355	880.809	672.691
258.263	19.388	879.707	671.921
259.278	19.047	879.835	670.631
260.293	19.132	879.190	670.408
261.307	19.464	878.170	670.864
262.322	19.465	877.462	670.268
263.336	19.387	876.978	669.537
264.351	19.273	876.349	668.551
265.366	19.409	876.063	668.802
266.380	19.329	875.501	668.007
267.395	19.216	875.026	667.144
268.409	19.214	873.735	666.094
269.424	19.340	872.721	665.750
270.439	19.248	872.236	664.967
271.453	19.187	871.698	664.262
272.468	19.137	870.847	663.362
273.482	19.150	870.527	663.107
274.497	19.091	869.853	662.308
275.512	19.257	869.226	662.411
276.526	19.184	868.572	661.573
277.541	19.267	868.446	661.739
278.555	19.252	868.306	661.515
279.570	19.526	867.490	661.885
280.585	19.489	866.405	660.858
281.599	19.392	865.326	659.607
282.614	19.399	864.861	659.222
283.628	19.256	864.612	658.425
284.643	19.375	864.111	658.439
285.657	19.248	863.271	657.258
286.672	19.301	862.761	657.014
287.687	19.319	862.273	656.654
288.701	19.408	861.609	656.426
289.716	19.448	861.059	656.104
290.730	19.360	860.570	655.335
291.745	19.507	859.628	655.122
292.760	19.582	859.268	655.074
293.774	19.726	858.640	655.080
294.789	19.727	857.810	654.395
295.803	19.429	857.194	652.740
296.818	19.416	856.451	652.066
297.833	19.383	856.179	651.675
298.847	19.437	855.249	651.112
299.862	19.505	855.032	651.149
300.876	19.562	854.538	650.928
301.891	19.612	853.875	650.554
302.906	19.883	853.230	651.027
303.920	19.824	853.037	650.600
304.935	19.997	852.361	650.675
305.949	19.849	851.658	649.525
306.964	19.644	851.316	648.438
307.979	19.782	850.899	648.579
308.993	19.962	849.674	648.263
310.008	19.919	849.440	647.866
311.022	19.828	848.591	646.821
312.037	19.505	848.442	645.443
313.052	19.485	847.708	644.753
314.066	19.507	846.735	644.038
315.081	19.541	846.307	643.784
316.095	19.557	845.621	643.264
317.110	19.514	845.371	642.857
318.125	19.563	844.754	642.513
319.139	19.468	844.641	642.014
320.154	19.519	844.268	641.866
321.168	19.673	843.078	641.474
322.183	19.676	842.691	641.134
323.197	19.593	842.383	640.536
324.212	19.721	841.721	640.453
325.227	19.698	840.933	639.709
326.241	19.709	840.237	639.163
327.256	19.799	839.514	638.891
328.270	19.546	839.493	637.884
329.285	19.574	838.979	637.540
330.300	19.674	838.040	637.138
331.314	19.635	837.830	636.779
332.329	19.877	837.567	637.414
333.343	19.908	837.122	637.133
334.358	19.842	836.667	636.488
335.373	20.007	836.158	636.648
336.387	19.967	835.991	636.320
337.402	20.059	835.746	636.415
338.416	20.057	835.394	636.082
339.431	20.166	835.049	636.163
340.446	20.277	834.780	636.309
341.460	20.266	834.383	635.911
342.475	20.387	833.798	635.850
343.489	20.564	833.212	635.996
344.504	20.422	833.022	635.277
345.519	20.421	832.572	634.872
346.533	20.464	832.081	634.598
347.548	20.302	830.856	633.019
348.562	20.064	830.193	631.590
349.577	20.040	830.007	631.306
350.592	20.065	829.213	630.736
351.606	20.016	828.390	629.876
352.621	20.076	827.603	629.440
353.635	20.185	827.197	629.471
354.650	20.125	826.925	628.989
355.665	20.273	826.238	628.948
356.679	20.423	825.088	628.560
357.694	20.440	824.777	628.329
358.708	20.134	824.435	626.906
359.723	20.235	823.981	626.870
360.738	20.184	823.376	626.171
361.752	20.474	822.617	626.584
362.767	20.446	822.427	626.284
363.781	20.456	822.027	625.959
364.796	20.845	821.488	626.893
365.810	20.808	821.043	626.364
366.825	20.661	820.700	625.519
367.840	20.728	820.487	625.543
368.854	20.520	819.828	624.239
369.869	20.621	819.081	623.976
370.883	20.694	818.304	623.591
371.898	20.810	818.422	624.042
372.913	20.779	817.838	623.430
373.927	20.697	817.557	622.866
374.942	20.661	817.156	622.378
375.956	20.757	817.009	622.554
376.971	20.887	816.145	622.304
377.986	21.055	815.568	622.408
379.000	21.002	815.067	621.781
380.015	20.871	814.678	620.965
381.029	20.972	813.988	620.744
382.044	20.915	813.781	620.328
383.059	20.917	813.138	619.791
384.073	20.950	812.458	619.335
385.088	20.723	811.682	617.883
386.102	20.819	810.653	617.383
387.117	20.705	810.173	616.558
388.132	20.658	809.856	616.096
389.146	20.875	809.067	616.210
390.161	20.847	809.210	616.165
391.175	21.002	808.515	616.130
392.190	20.822	808.188	615.191
393.205	20.749	808.075	614.792
394.219	20.612	807.540	613.848
395.234	20.791	806.795	613.857
396.248	20.735	805.945	612.961
397.263	20.352	806.176	611.730
398.278	20.482	805.546	611.657
399.292	20.470	805.249	611.336
400.307	20.552	804.726	611.171
401.321	20.693	803.982	611.047
402.336	20.878	803.273	611.103
403.350	20.906	803.413	611.255
404.365	20.910	802.968	610.875
405.380	21.209	802.314	611.370
406.394	21.134	802.121	610.906
407.409	21.193	801.508	610.594
408.423	21.190	801.630	610.623
409.438	21.400	800.890	610.739
410.453	21.381	800.468	610.297
411.467	21.252	800.640	609.923
412.482	21.346	799.681	609.465
413.496	21.379	799.526	609.409
414.511	21.501	799.083	609.443
415.526	21.515	798.410	608.922
416.540	21.340	797.864	607.845
417.555	21.410	797.017	607.388
418.569	21.450	797.162	607.585
419.584	21.512	796.484	607.230
420.599	21.497	796.283	606.971
421.613	160.994	1370.110	1794.020
422.628	139.660	1453.706	1794.137
