DTS Sentinel unit serial number:	SN413079Multiplexer serial number:	ORYXHardware model number:	OX4-SRSoftware version number:	ORYX F/W v4.00 Oryx Data Collector v3.7.2.0data status	okinstallation	princeton_trtdifferential loss correction	single-endedforward channel	channel 1reverse channel	N/Adate	2019/09/13time	01:42:35forward acquisition time	60.00reverse acquisition time	0.00gamma	496.2192k internal	0.2331k external	0.2331temperature offset calibration	1.0148default loss term (dB/km)	0.3790temperature slope calibration	1.0000multiplexer offset coefficient	1.0000multiplexer slope coefficient	1.0000fibre end	0.00T internal ref (°C)	27.75T ext. ref 1 (°C)	3.79T ext. ref 2 (°C)	22.36length (m)	temperature (°C)	Stokes	anti-Stokes-747.200	-134.083	0.193	0.024
-746.185	-67.193	-0.233	0.092
-745.171	-106.825	-0.327	0.073
-744.156	-88.866	0.096	-0.029
-743.142	-200.000	0.030	0.261
-742.127	60.257	-0.209	0.208
-741.112	-8.708	-0.354	0.239
-740.098	-28.181	-0.204	-0.119
-739.083	-67.418	0.072	0.028
-738.069	-105.202	-0.101	0.023
-737.054	338.878	-0.050	0.097
-736.039	-80.491	0.109	-0.037
-735.025	-200.000	-0.005	0.107
-734.010	-174.076	0.145	0.004
-732.996	-110.162	-0.580	-0.122
-731.981	131.744	-0.106	0.137
-730.966	-140.285	0.361	-0.038
-729.952	-200.000	0.004	0.024
-728.937	-66.707	-0.445	-0.177
-727.923	-160.334	-0.127	-0.007
-726.908	-200.000	0.056	0.264
-725.894	133.143	0.110	-0.143
-724.879	452.131	-0.188	0.419
-723.864	-29.204	-0.038	0.022
-722.850	800.000	-0.135	-0.384
-721.835	-79.057	-0.171	0.058
-720.821	325.850	-0.039	-0.076
-719.806	273.049	0.010	-0.017
-718.791	104.522	0.189	0.223
-717.777	-200.000	-0.001	-0.324
-716.762	175.651	-0.261	-0.380
-715.748	-59.056	0.115	0.050
-714.733	203.656	-0.132	0.205
-713.718	-200.000	-0.023	-0.203
-712.704	-200.000	0.030	-0.292
-711.689	-200.000	-0.096	-0.454
-710.675	53.560	0.153	-0.147
-709.660	-200.000	0.055	-0.246
-708.645	67.392	0.220	0.225
-707.631	-20.757	0.126	-0.078
-706.616	-18.046	0.269	-0.170
-705.602	800.000	0.054	0.201
-704.587	-200.000	0.025	0.267
-703.572	-111.857	0.109	-0.022
-702.558	34.634	-0.322	-0.283
-701.543	-108.311	0.299	0.065
-700.529	-200.000	-0.019	-0.155
-699.514	-102.707	0.053	-0.013
-698.499	800.000	0.043	-0.143
-697.485	227.826	-0.176	0.288
-696.470	65.454	-0.264	0.268
-695.456	800.000	0.124	0.366
-694.441	97.426	-0.244	-0.282
-693.426	-122.377	-0.158	0.026
-692.412	-96.054	0.229	0.061
-691.397	418.711	0.041	0.088
-690.383	324.439	-0.026	0.050
-689.368	7.550	-0.290	-0.218
-688.354	36.246	0.018	0.016
-687.339	650.096	-0.145	0.372
-686.324	-200.000	-0.001	0.075
-685.310	-52.541	0.283	0.132
-684.295	-138.578	-0.512	-0.056
-683.281	131.591	-0.175	0.225
-682.266	-200.000	-0.011	-0.102
-681.251	13.062	-0.373	-0.290
-680.237	160.996	-0.030	-0.042
-679.222	44.905	-0.178	-0.164
-678.208	115.451	0.179	-0.220
-677.193	179.819	0.056	0.082
-676.178	267.212	0.088	-0.155
-675.164	-10.750	-0.110	-0.073
-674.149	45.066	-0.091	-0.084
-673.135	-149.897	0.279	0.022
-672.120	-200.000	0.016	0.137
-671.105	-31.747	0.375	-0.211
-670.091	52.490	0.349	-0.334
-669.076	-200.000	0.008	-0.272
-668.062	-200.000	-0.014	0.207
-667.047	192.503	-0.127	-0.192
-666.032	-200.000	0.011	-0.326
-665.018	-39.069	-0.033	-0.017
-664.003	93.902	-0.151	-0.172
-662.989	1.462	-0.180	-0.130
-661.974	40.469	0.139	-0.126
-660.959	133.840	-0.209	0.271
-659.945	412.395	-0.127	-0.272
-658.930	-69.279	0.337	-0.130
-657.916	-82.603	-0.148	0.048
-656.901	-132.237	0.156	0.020
-655.886	86.159	0.097	-0.107
-654.872	167.666	-0.180	0.256
-653.857	128.609	0.096	-0.123
-652.843	208.520	-0.228	-0.357
-651.828	-45.491	0.171	0.085
-650.814	97.825	-0.182	-0.210
-649.799	800.000	-0.092	-0.325
-648.784	-200.000	-0.026	-0.176
-647.770	800.000	0.158	0.448
-646.755	-111.601	0.265	-0.054
-645.741	-138.284	0.166	0.018
-644.726	-94.628	-0.277	-0.075
-643.711	-69.228	-0.105	-0.040
-642.697	-200.000	-0.004	0.367
-641.682	-51.083	0.101	-0.047
-640.668	-79.617	-0.169	-0.057
-639.653	133.893	0.025	0.032
-638.638	122.754	0.098	0.123
-637.624	-53.751	0.082	0.038
-636.609	-173.622	0.347	-0.010
-635.595	369.648	-0.043	0.088
-634.580	-200.000	-0.014	-0.123
-633.565	-200.000	-0.014	0.119
-632.551	800.000	-0.034	-0.121
-631.536	-83.678	0.205	-0.066
-630.522	-170.037	-0.130	-0.005
-629.507	800.000	-0.020	0.072
-628.492	129.179	0.042	0.054
-627.478	142.545	-0.074	0.098
-626.463	-48.757	0.296	0.143
-625.449	-131.434	0.143	0.019
-624.434	-46.774	0.255	-0.125
-623.419	-200.000	-0.022	-0.183
-622.405	-20.204	0.135	0.083
-621.390	-34.732	0.358	-0.196
-620.376	-108.938	-0.129	-0.028
-619.361	128.150	-0.191	-0.244
-618.346	-94.355	-0.189	0.052
-617.332	-200.000	0.027	0.363
-616.317	28.889	-0.243	0.206
-615.303	800.000	0.048	0.177
-614.288	252.761	0.159	-0.271
-613.273	59.993	-0.236	-0.233
-612.259	-200.000	0.040	0.364
-611.244	462.183	0.107	-0.240
-610.230	138.280	-0.239	-0.314
-609.215	-123.653	0.292	-0.046
-608.201	-32.870	0.215	0.119
-607.186	19.350	0.132	-0.106
-606.171	-110.331	0.095	-0.020
-605.157	3.624	-0.251	-0.183
-604.142	-157.015	-0.240	0.015
-603.128	-200.000	0.012	0.069
-602.113	-113.803	0.052	0.010
-601.098	10.060	-0.195	0.148
-600.084	497.441	0.052	-0.119
-599.069	-200.000	-0.011	0.210
-598.055	-200.000	0.007	-0.132
-597.040	800.000	-0.016	-0.057
-596.025	-168.890	-0.169	0.006
-595.011	-60.638	-0.270	0.115
-593.996	275.132	-0.046	-0.081
-592.982	-36.556	0.170	-0.091
-591.967	60.182	0.057	0.056
-590.952	318.614	0.122	-0.232
-589.938	-68.407	0.150	0.058
-588.923	140.410	-0.157	0.208
-587.909	-106.245	-0.108	-0.024
-586.894	-131.313	0.053	-0.007
-585.879	54.193	0.177	-0.170
-584.865	800.000	0.032	-0.125
-583.850	414.875	0.116	-0.248
-582.836	219.684	-0.184	0.294
-581.821	55.666	-0.133	-0.129
-580.806	-200.000	0.032	0.157
-579.792	-50.345	0.195	0.092
-578.777	777.366	0.031	0.084
-577.763	-130.781	0.095	0.013
-576.748	800.000	0.140	-0.407
-575.733	-152.451	-0.076	0.005
-574.719	701.180	0.093	0.245
-573.704	71.186	-0.303	-0.314
-572.690	-200.000	0.045	-0.600
-571.675	204.577	-0.158	0.245
-570.661	-46.271	-0.155	0.076
-569.646	-20.816	0.244	-0.150
-568.631	-187.498	0.232	0.003
-567.617	-158.045	-0.210	-0.012
-566.602	9.484	-0.238	-0.180
-565.588	16.309	-0.109	0.086
-564.573	-44.352	0.310	-0.155
-563.558	-200.000	0.034	0.205
-562.544	-175.974	0.213	-0.006
-561.529	-200.000	0.034	0.154
-560.515	-93.895	-0.269	-0.074
-559.500	-200.000	-0.009	-0.095
-558.485	-200.000	-0.031	-0.215
-557.471	-114.335	-0.056	0.011
-556.456	800.000	-0.072	-0.296
-555.442	35.328	0.149	0.130
-554.427	800.000	0.080	-0.296
-553.412	-200.000	0.011	-0.124
-552.398	-13.142	-0.076	-0.049
-551.383	300.564	-0.102	-0.188
-550.369	80.227	-0.148	0.159
-549.354	-200.000	-0.001	0.146
-548.339	242.870	0.199	-0.333
-547.325	-16.301	-0.423	0.268
-546.310	-158.626	-0.251	-0.014
-545.296	-133.320	-0.146	-0.018
-544.281	-200.000	0.002	-0.217
-543.266	336.588	0.114	0.222
-542.252	-200.000	-0.009	-0.195
-541.237	-200.000	0.049	0.316
-540.223	-55.877	0.163	0.073
-539.208	-61.741	0.368	-0.154
-538.193	505.155	-0.030	0.069
-537.179	-200.000	-0.032	-0.178
-536.164	-81.133	-0.130	-0.043
-535.150	119.997	-0.132	0.163
-534.135	359.325	0.127	-0.254
-533.121	-97.882	-0.290	0.075
-532.106	-87.994	-0.127	0.038
-531.091	11.890	-0.091	0.070
-530.077	-62.702	0.399	0.165
-529.062	-65.595	0.312	0.125
-528.048	-29.281	0.209	0.120
-527.033	27.966	-0.087	-0.073
-526.018	-87.391	-0.270	0.082
-525.004	34.377	0.175	0.152
-523.989	800.000	0.074	0.313
-522.975	-83.386	0.267	0.086
-521.960	-114.791	-0.051	-0.010
-520.945	-135.826	0.313	0.037
-519.931	321.127	-0.078	-0.147
-518.916	800.000	-0.144	-0.440
-517.902	153.825	0.064	0.088
-516.887	109.176	0.067	-0.080
-515.872	-58.269	0.143	-0.062
-514.858	-200.000	0.005	-0.030
-513.843	102.924	-0.100	0.117
-512.829	72.513	-0.121	0.126
-511.814	-79.843	-0.193	0.065
-510.799	-200.000	-0.046	-0.299
-509.785	-122.236	0.200	0.033
-508.770	267.619	0.101	-0.177
-507.756	-3.958	0.283	-0.196
-506.741	-200.000	0.254	-0.001
-505.726	44.980	0.036	0.033
-504.712	154.329	0.068	-0.093
-503.697	-112.117	0.323	0.065
-502.683	176.498	-0.088	0.128
-501.668	-200.000	-0.006	0.321
-500.653	180.896	-0.160	0.235
-499.639	800.000	0.081	0.236
-498.624	22.608	-0.177	-0.145
-497.610	-200.000	-0.023	-0.285
-496.595	-20.873	0.254	-0.155
-495.581	-119.632	0.318	-0.055
-494.566	267.312	0.175	0.306
-493.551	33.140	-0.178	0.154
-492.537	37.527	-0.240	-0.213
-491.522	-53.451	0.372	0.170
-490.508	-39.959	0.207	0.108
-489.493	-200.000	-0.027	0.157
-488.478	-150.654	0.184	-0.014
-487.464	673.135	-0.040	-0.104
-486.449	-1.181	0.079	-0.056
-485.435	178.623	0.100	-0.146
-484.420	-18.329	-0.218	0.136
-483.405	-106.352	0.181	0.040
-482.391	-52.637	-0.220	-0.101
-481.376	-138.754	-0.278	0.030
-480.362	-38.843	0.132	-0.069
-479.347	-200.000	0.033	0.149
-478.332	157.771	-0.171	-0.237
-477.318	201.767	0.063	-0.097
-476.303	-200.000	-0.016	0.314
-475.289	-200.000	-0.007	-0.136
-474.274	-119.643	0.276	-0.048
-473.259	154.503	-0.016	-0.022
-472.245	-200.000	0.029	0.150
-471.230	-200.000	0.021	0.110
-470.216	-10.682	0.194	-0.128
-469.201	426.684	0.116	-0.248
-468.186	464.680	0.140	-0.312
-467.172	-198.746	-0.192	-0.001
-466.157	-200.000	0.002	-0.160
-465.143	-1.408	0.313	-0.220
-464.128	-67.757	0.275	0.107
-463.113	97.456	0.200	-0.229
-462.099	-34.018	-0.107	-0.058
-461.084	800.000	0.042	-0.182
-460.070	-164.483	0.169	0.008
-459.055	800.000	0.033	-0.095
-458.040	-94.947	-0.378	-0.102
-457.026	44.225	0.099	0.090
-456.011	117.733	0.062	0.076
-454.997	-61.277	0.296	-0.124
-453.982	145.961	0.223	-0.297
-452.968	124.246	-0.158	0.198
-451.953	-5.070	0.359	-0.246
-450.938	-98.890	0.157	-0.040
-449.924	82.592	0.190	-0.206
-448.909	31.243	-0.192	-0.164
-447.895	77.367	-0.064	-0.068
-446.880	275.293	0.087	0.154
-445.865	-200.000	-0.034	0.287
-444.851	61.698	-0.030	-0.030
-443.836	-122.195	-0.108	-0.018
-442.822	-12.281	-0.103	-0.067
-441.807	800.000	0.049	-0.183
-440.792	-105.113	-0.080	0.018
-439.778	-47.265	-0.108	-0.052
-438.763	-103.226	0.085	0.020
-437.749	147.064	-0.165	0.220
-436.734	-64.134	-0.332	-0.135
-435.719	-200.000	-0.015	-0.339
-434.705	-84.888	0.326	-0.102
-433.690	-108.262	-0.449	-0.096
-432.676	-138.010	0.217	-0.024
-431.661	-73.219	-0.113	0.041
-430.646	-33.142	0.293	-0.161
-429.632	-100.047	-0.140	-0.035
-428.617	186.484	0.074	-0.110
-427.603	-103.690	-0.347	0.081
-426.588	-12.339	-0.043	0.028
-425.573	-112.822	0.176	-0.035
-424.559	800.000	-0.044	0.129
-423.544	599.762	-0.027	0.066
-422.530	-200.000	0.224	0.001
-421.515	61.788	-0.179	0.178
-420.500	-28.214	0.079	0.045
-419.486	24.280	0.257	-0.211
-418.471	-58.119	-0.043	0.019
-417.457	501.740	0.069	0.159
-416.442	452.808	-0.123	0.271
-415.428	-183.437	0.337	-0.006
-414.413	-200.000	0.043	-0.225
-413.398	-23.098	-0.535	-0.320
-412.384	663.016	0.055	0.142
-411.369	800.000	0.033	0.139
-410.355	136.444	-0.138	0.179
-409.340	-124.081	0.274	0.043
-408.325	65.948	-0.113	0.114
-407.311	-75.298	-0.067	-0.024
-406.296	-48.929	0.150	-0.071
-405.282	-40.381	0.035	0.018
-404.267	-200.000	0.051	0.282
-403.252	1.839	-0.080	0.057
-402.238	268.854	-0.162	-0.282
-401.223	461.810	0.099	0.218
-400.209	-153.431	-0.036	0.002
-399.194	-200.000	0.012	0.225
-398.179	22.284	-0.335	-0.272
-397.165	-149.240	0.220	0.017
-396.150	-51.690	-0.159	0.073
-395.136	130.234	-0.277	0.352
-394.121	-98.060	-0.178	0.046
-393.106	-88.991	-0.178	0.052
-392.092	800.000	-0.037	-0.148
-391.077	-94.476	-0.194	0.053
-390.063	-64.815	-0.075	-0.030
-389.048	800.000	-0.097	-0.302
-388.033	-72.922	0.224	0.082
-387.019	101.635	-0.096	0.111
-386.004	800.000	-0.018	0.059
-384.990	-80.891	0.423	0.139
-383.975	-155.653	-0.250	-0.016
-382.960	-200.000	0.010	0.053
-381.946	-200.000	-0.041	0.212
-380.931	599.310	-0.119	0.292
-379.917	800.000	-0.107	0.361
-378.902	-155.158	0.395	0.026
-377.888	-97.651	0.137	0.035
-376.873	-68.129	0.137	-0.053
-375.858	51.272	-0.062	0.058
-374.844	85.573	-0.014	0.016
-373.829	-198.122	0.233	-0.001
-372.815	181.773	0.142	-0.207
-371.800	289.247	-0.067	0.120
-370.785	155.227	0.336	0.458
-369.771	73.894	0.174	0.180
-368.756	252.689	0.086	0.145
-367.742	800.000	-0.081	-0.251
-366.727	-142.153	-0.132	0.013
-365.712	-67.397	-0.115	-0.045
-364.698	249.122	-0.032	0.053
-363.683	-4.701	0.197	-0.135
-362.669	9.185	0.199	-0.149
-361.654	-45.659	-0.186	-0.091
-360.639	303.837	-0.100	0.185
-359.625	-73.452	0.406	0.147
-358.610	767.340	0.078	-0.210
-357.596	-113.278	0.094	-0.018
-356.581	-73.805	0.138	0.050
-355.566	-154.893	0.381	-0.025
-354.552	-140.171	-0.171	0.018
-353.537	791.890	0.130	-0.354
-352.523	313.022	-0.210	0.391
-351.508	-159.659	-0.168	-0.009
-350.493	764.361	-0.110	-0.296
-349.479	800.000	-0.134	0.415
-348.464	20.036	-0.178	0.143
-347.450	-22.038	-0.149	-0.090
-346.435	-200.000	-0.010	-0.487
-345.420	169.862	-0.045	0.064
-344.406	-40.788	-0.291	-0.149
-343.391	6.886	0.315	-0.233
-342.377	-95.116	-0.027	-0.007
-341.362	-85.283	-0.321	0.099
-340.348	-200.000	-0.041	-0.197
-339.333	-200.000	-0.007	0.121
-338.318	-64.213	0.178	-0.072
-337.304	20.066	0.247	0.198
-336.289	-200.000	-0.036	-0.302
-335.275	-33.704	-0.108	0.059
-334.260	2.898	-0.295	-0.212
-333.245	-57.468	-0.398	-0.173
-332.231	36.715	0.186	0.163
-331.216	800.000	-0.065	0.185
-330.202	667.165	-0.054	-0.139
-329.187	35.226	-0.245	-0.213
-328.172	-100.658	-0.263	0.064
-327.158	233.387	-0.147	-0.240
-326.143	592.082	0.027	-0.066
-325.129	-132.800	-0.340	-0.043
-324.114	-9.572	-0.168	0.111
-323.099	34.207	-0.241	-0.208
-322.085	-89.879	-0.249	-0.072
-321.070	18.013	-0.064	0.050
-320.056	-108.493	-0.244	-0.052
-319.041	-200.000	-0.033	0.188
-318.026	800.000	-0.013	0.037
-317.012	80.906	-0.126	0.135
-315.997	-200.000	-0.010	0.185
-314.983	-23.816	-0.244	0.145
-313.968	-24.407	0.184	0.108
-312.953	166.482	-0.036	0.050
-311.939	800.000	-0.011	-0.041
-310.924	-200.000	-0.051	-0.288
-309.910	94.925	0.189	-0.212
-308.895	-200.000	-0.057	0.261
-307.880	-105.558	0.001	0.000
-306.866	-200.000	-0.023	0.131
-305.851	1.413	0.216	-0.153
-304.837	198.725	-0.081	-0.123
-303.822	-65.782	0.335	0.133
-302.807	-91.761	-0.092	-0.026
-301.793	-104.230	-0.046	-0.011
-300.778	-59.964	0.158	0.067
-299.764	56.634	-0.253	-0.243
-298.749	-200.000	0.049	-0.294
-297.735	145.087	-0.155	0.205
-296.720	122.936	0.164	0.204
-295.705	93.324	0.069	0.077
-294.691	58.439	-0.125	-0.121
-293.676	-54.581	-0.309	0.138
-292.662	-135.761	-0.110	0.013
-291.647	338.637	-0.031	0.059
-290.632	81.141	0.066	0.070
-289.618	-86.229	-0.227	-0.069
-288.603	-45.560	-0.557	0.273
-287.589	171.986	-0.255	0.362
-286.574	-156.739	0.153	0.009
-285.559	12.918	-0.203	0.155
-284.545	-48.569	0.191	-0.091
-283.530	-185.829	-0.621	0.009
-282.516	-125.253	0.100	-0.015
-281.501	110.228	-0.163	-0.194
-280.486	-44.154	-0.237	-0.118
-279.472	29.827	0.127	-0.107
-278.457	-18.957	-0.135	-0.083
-277.443	18.201	0.090	0.071
-276.428	-200.000	0.010	0.075
-275.413	320.163	0.081	-0.152
-274.399	-200.000	-0.006	-0.108
-273.384	-126.296	0.197	-0.029
-272.370	-158.291	-0.356	-0.020
-271.355	0.193	-0.055	-0.039
-270.340	4.895	0.284	0.207
-269.326	-12.202	-0.265	-0.171
-268.311	175.543	0.104	-0.150
-267.297	207.494	-0.006	0.009
-266.282	356.651	0.145	0.286
-265.267	-26.972	0.081	0.047
-264.253	-200.000	0.022	-0.196
-263.238	80.372	-0.290	0.308
-262.224	800.000	0.096	0.302
-261.209	-45.221	-0.124	-0.061
-260.195	-90.596	0.367	-0.105
-259.180	-77.855	0.232	-0.079
-258.165	800.000	-0.108	-0.315
-257.151	800.000	0.034	0.117
-256.136	-200.000	-0.008	0.044
-255.122	766.021	0.025	-0.067
-254.107	800.000	0.043	0.163
-253.092	-200.000	-0.039	0.277
-252.078	-117.006	0.126	0.023
-251.063	246.997	0.134	0.223
-250.049	357.347	-0.130	-0.256
-249.034	502.190	-0.023	-0.052
-248.019	249.254	-0.076	0.128
-247.005	-101.079	-0.115	-0.028
-245.990	-109.768	0.073	0.015
-244.976	791.503	0.153	0.416
-243.961	-200.000	0.023	0.364
-242.946	-146.516	0.109	-0.009
-241.932	-145.117	0.121	-0.011
-240.917	553.011	0.037	-0.088
-239.903	-111.710	-0.422	-0.084
-238.888	-200.000	0.015	0.202
-237.873	-110.424	0.154	0.032
-236.859	-17.758	0.282	-0.174
-235.844	112.809	-0.155	-0.185
-234.830	-11.652	0.318	-0.206
-233.815	-90.289	0.036	-0.010
-232.800	-84.252	-0.334	-0.104
-231.786	161.793	0.093	-0.129
-230.771	-61.142	-0.077	0.032
-229.757	-68.204	-0.151	0.058
-228.742	-74.115	-0.092	-0.033
-227.727	24.477	-0.256	0.209
-226.713	-153.303	0.125	0.009
-225.698	-116.979	-0.250	-0.045
-224.684	-10.827	-0.219	0.143
-223.669	-116.264	0.238	-0.043
-222.655	800.000	-0.057	-0.205
-221.640	97.973	0.082	-0.093
-220.625	-200.000	0.007	0.340
-219.611	-18.853	0.074	0.046
-218.596	-11.922	0.039	-0.025
-217.582	241.237	0.085	0.139
-216.567	-64.817	-0.258	-0.103
-215.552	-200.000	-0.064	-0.309
-214.538	800.000	0.094	0.285
-213.523	218.637	-0.156	-0.245
-212.509	-91.860	-0.239	0.067
-211.494	711.676	-0.044	0.115
-210.479	-69.386	-0.210	-0.079
-209.465	269.353	0.117	-0.202
-208.450	244.070	-0.148	0.245
-207.436	-200.000	0.039	-0.226
-206.421	-107.254	0.353	0.077
-205.406	-36.028	-0.157	-0.084
-204.392	158.345	0.066	-0.090
-203.377	161.241	-0.062	0.086
-202.363	-200.000	-0.065	0.297
-201.348	-200.000	0.010	0.145
-200.333	-109.542	-0.153	-0.032
-199.319	-93.284	-0.175	0.048
-198.304	83.987	-0.100	-0.108
-197.290	-70.627	0.352	0.131
-196.275	-68.185	0.277	-0.106
-195.260	138.660	-0.039	0.050
-194.246	800.000	-0.019	0.070
-193.231	315.162	-0.138	0.257
-192.217	-153.145	0.415	-0.029
-191.202	185.975	-0.039	0.057
-190.187	-36.118	0.206	0.110
-189.173	196.415	-0.100	-0.150
-188.158	119.236	-0.049	0.059
-187.144	528.970	0.195	-0.453
-186.129	83.737	0.186	0.199
-185.114	-194.461	0.512	-0.004
-184.100	-200.000	0.040	-0.206
-183.085	800.000	0.041	-0.139
-182.071	-5.664	0.150	-0.101
-181.056	197.782	-0.059	0.088
-180.042	-200.000	-0.023	-0.169
-179.027	-27.724	-0.186	-0.106
-178.012	446.576	-0.099	0.214
-176.998	584.545	0.066	0.160
-175.983	59.092	0.150	-0.145
-174.969	-200.000	-0.073	0.465
-173.954	-71.328	0.171	-0.063
-172.939	158.514	-0.249	0.340
-171.925	800.000	-0.119	-0.376
-170.910	800.000	-0.019	-0.062
-169.896	352.100	0.040	-0.078
-168.881	-182.003	-0.429	0.008
-167.866	453.761	0.149	-0.325
-166.852	36.833	-0.147	0.128
-165.837	-200.000	0.010	0.056
-164.823	-135.182	-0.215	-0.025
-163.808	236.571	0.156	-0.255
-162.793	-53.585	0.129	0.058
-161.779	92.577	-0.156	0.173
-160.764	-200.000	0.055	0.522
-159.750	-72.580	0.105	0.038
-158.735	-95.282	-0.284	0.075
-157.720	-26.535	-0.136	-0.079
-156.706	306.950	0.088	0.162
-155.691	211.612	-0.158	0.245
-154.677	169.595	-0.072	0.101
-153.662	-69.127	0.053	-0.020
-152.647	145.441	0.210	0.277
-151.633	-79.200	0.444	0.148
-150.618	302.459	-0.168	-0.305
-149.604	-42.345	-0.366	0.184
-148.589	-14.841	0.338	0.214
-147.574	644.809	0.065	-0.163
-146.560	-128.924	0.259	-0.036
-145.545	212.173	0.054	0.083
-144.531	116.017	0.116	0.139
-143.516	800.000	-0.121	-0.342
-142.502	-72.743	0.185	-0.067
-141.487	144.880	-0.127	0.167
-140.472	800.000	-0.094	-0.376
-139.458	207.521	0.126	-0.194
-138.443	800.000	0.074	-0.248
-137.429	263.246	-0.056	-0.095
-136.414	-116.749	-0.124	0.022
-135.399	-38.090	0.164	-0.085
-134.385	-159.140	0.206	-0.011
-133.370	62.755	0.183	0.180
-132.356	-48.765	-0.170	-0.080
-131.341	-200.000	0.001	-0.237
-130.326	-105.111	0.444	-0.100
-129.312	-111.741	0.730	-0.145
-128.297	800.000	-0.037	-0.138
-127.283	-16.254	0.057	-0.035
-126.268	-10.556	-0.104	-0.067
-125.253	170.768	0.165	-0.233
-124.239	47.122	0.228	0.209
-123.224	-200.000	-0.068	0.370
-122.210	200.399	0.094	-0.142
-121.195	59.832	0.062	-0.060
-120.180	28.002	-0.169	0.140
-119.166	-89.493	0.092	-0.027
-118.151	170.400	0.096	-0.135
-117.137	-200.000	0.004	0.028
-116.122	-151.368	0.166	0.012
-115.107	-15.836	-0.130	0.081
-114.093	238.156	-0.086	-0.140
-113.078	-121.356	0.442	-0.072
-112.064	149.091	-0.081	0.107
-111.049	-97.789	0.264	0.067
-110.034	-200.000	0.050	-0.226
-109.020	-200.000	0.013	-0.254
-108.005	800.000	-0.088	0.287
-106.991	89.655	-0.162	-0.177
-105.976	146.237	0.146	-0.192
-104.962	-200.000	-0.038	0.314
-103.947	800.000	0.065	0.191
-102.932	148.895	-0.070	-0.093
-101.918	63.403	0.191	0.188
-100.903	-92.196	-0.256	-0.071
-99.889	-149.555	0.293	-0.023
-98.874	48.921	-0.112	0.103
-97.859	-200.000	0.018	-0.276
-96.845	-118.892	-0.172	0.030
-95.830	-110.084	-0.075	-0.015
-94.816	84.099	0.190	-0.204
-93.801	-142.410	0.040	-0.004
-92.786	202.223	0.113	0.172
-91.772	-200.000	0.022	-0.247
-90.757	800.000	-0.067	-0.244
-89.743	-112.741	-0.078	-0.015
-88.728	-200.000	0.007	0.194
-87.713	-90.873	0.305	-0.086
-86.699	-164.360	0.232	-0.010
-85.684	-69.689	0.151	0.057
-84.670	-105.862	-0.166	-0.037
-83.655	390.217	-0.033	0.067
-82.640	2.496	-0.250	0.178
-81.626	-124.605	0.193	0.029
-80.611	210.992	-0.199	0.307
-79.597	218.533	0.316	-0.495
-78.582	-200.000	-0.011	0.097
-77.567	-200.000	-0.004	-0.075
-76.553	-118.790	-0.261	-0.045
-75.538	157.502	0.166	0.225
-74.524	-149.227	0.081	0.006
-73.509	-72.098	0.247	-0.090
-72.494	12.602	-0.110	-0.083
-71.480	255.086	-0.027	0.045
-70.465	-90.262	0.380	-0.108
-69.451	-180.529	-0.236	-0.005
-68.436	-129.463	-0.075	0.010
-67.422	49.021	-0.230	0.212
-66.407	-21.843	-0.339	0.202
-65.392	32.971	-0.415	0.352
-64.378	128.751	0.071	0.089
-63.363	-45.863	0.080	-0.039
-62.349	6.828	0.233	-0.170
-61.334	21.900	-1.295	-1.034
-60.319	47.449	0.851	0.777
-59.305	529.434	-0.400	-0.925
-58.290	238.567	0.740	1.204
-57.276	271.667	0.829	1.432
-56.261	-200.000	114.189	652.409
-55.246	538.331	1519.188	3538.117
-54.232	179.297	2680.976	3843.232
-53.217	110.171	2147.622	2526.090
-52.203	39.281	1596.263	1399.634
-51.188	31.030	1344.056	1128.757
-50.173	28.239	1305.950	1080.264
-49.159	55.203	1362.008	1289.689
-48.144	54.178	1376.697	1297.394
-47.130	31.366	1331.841	1120.336
-46.115	27.881	1314.401	1084.959
-45.100	27.607	1309.642	1079.363
-44.086	27.652	1307.013	1077.421
-43.071	27.465	1305.528	1075.051
-42.057	27.637	1302.529	1073.554
-41.042	27.597	1301.236	1072.210
-40.027	27.628	1299.976	1071.306
-39.013	27.676	1297.846	1069.791
-37.998	27.674	1295.829	1068.074
-36.984	27.767	1294.042	1067.106
-35.969	27.781	1292.508	1065.878
-34.954	27.824	1290.638	1064.544
-33.940	27.860	1288.826	1063.216
-32.925	27.757	1288.140	1062.012
-31.911	27.801	1286.695	1061.032
-30.896	27.842	1285.298	1060.080
-29.881	27.855	1283.693	1058.790
-28.867	27.869	1282.313	1057.689
-27.852	27.847	1281.111	1056.525
-26.838	27.856	1279.858	1055.505
-25.823	27.831	1278.668	1054.334
-24.809	27.874	1277.141	1053.286
-23.794	27.744	1275.885	1051.456
-22.779	27.820	1274.463	1050.679
-21.765	27.882	1273.167	1049.927
-20.750	27.863	1272.249	1049.021
-19.736	27.791	1270.495	1047.115
-18.721	27.760	1269.729	1046.265
-17.706	27.640	1268.581	1044.592
-16.692	27.737	1267.466	1044.187
-15.677	27.740	1266.221	1043.136
-14.663	27.727	1265.029	1042.043
-13.648	27.739	1264.039	1041.254
-12.633	27.686	1263.132	1040.162
-11.619	27.580	1262.379	1038.895
-10.604	27.700	1261.355	1038.694
-9.590	27.661	1260.634	1037.839
-8.575	27.658	1259.594	1036.925
-7.560	27.685	1258.348	1036.012
-6.546	27.658	1257.923	1035.463
-5.531	27.546	1257.489	1034.433
-4.517	27.655	1256.367	1034.087
-3.502	27.701	1255.417	1033.522
-2.487	27.699	1254.590	1032.791
-1.473	27.662	1249.992	1028.757
-0.458	26.172	1234.468	1007.629
0.556	24.138	1217.388	969.583
1.571	20.494	1222.191	953.369
2.586	19.365	1237.204	958.719
3.600	19.054	1225.621	947.948
4.615	14.765	1153.843	870.061
5.629	7.336	1081.428	778.999
6.644	4.045	1063.541	750.125
7.659	3.884	1060.757	747.315
8.673	3.674	1059.670	745.471
9.688	3.569	1058.694	744.210
10.702	4.002	1056.387	744.610
11.717	8.867	1062.477	772.326
12.731	16.927	1074.624	820.219
13.746	21.759	1080.684	848.217
14.761	22.633	1081.201	852.780
15.775	21.943	1079.687	848.173
16.790	21.095	1077.569	842.343
17.804	20.472	1076.752	838.625
18.819	20.260	1075.863	836.833
19.834	20.379	1075.062	836.709
20.848	20.409	1074.418	836.279
21.863	20.320	1073.327	834.932
22.877	20.088	1072.751	833.289
23.892	20.041	1072.008	832.415
24.907	19.973	1071.397	831.542
25.921	19.841	1070.254	829.948
26.936	19.862	1068.861	828.895
27.950	19.924	1067.417	827.995
28.965	19.918	1066.550	827.222
29.980	20.230	1064.667	827.179
30.994	20.231	1064.253	826.785
32.009	20.318	1062.957	826.120
33.023	20.232	1062.329	825.150
34.038	20.041	1061.541	823.557
35.053	19.994	1060.179	822.204
36.067	19.915	1058.988	820.832
37.082	19.974	1058.892	820.967
38.096	20.162	1058.211	821.254
39.111	20.174	1057.063	820.352
40.126	19.990	1055.867	818.482
41.140	19.660	1054.165	815.533
42.155	19.456	1052.977	813.577
43.169	19.390	1052.136	812.546
44.184	19.464	1050.814	811.801
45.199	19.432	1049.924	810.888
46.213	19.751	1049.408	811.919
47.228	20.065	1048.602	812.697
48.242	20.055	1047.841	811.988
49.257	19.971	1047.130	810.970
50.271	20.141	1046.194	810.969
51.286	20.208	1045.137	810.394
52.301	20.073	1044.681	809.334
53.315	19.879	1043.080	807.122
54.330	19.834	1041.825	805.867
55.344	19.732	1040.805	804.532
56.359	19.636	1040.772	803.990
57.374	19.708	1039.165	803.010
58.388	19.495	1038.194	801.201
59.403	19.351	1037.787	800.148
60.417	19.394	1037.013	799.680
61.432	19.312	1036.092	798.522
62.447	19.311	1035.456	797.954
63.461	19.280	1034.570	797.057
64.476	19.224	1033.592	795.976
65.490	19.134	1033.007	795.039
66.505	19.199	1032.663	795.001
67.520	19.195	1032.170	794.534
68.534	18.977	1031.556	792.987
69.549	19.113	1030.226	792.519
70.563	19.057	1029.208	791.408
71.578	18.880	1028.137	789.701
72.593	18.862	1027.253	788.871
73.607	18.681	1027.163	787.902
74.622	18.907	1026.508	788.366
75.636	19.022	1025.652	788.166
76.651	18.989	1025.156	787.564
77.666	19.135	1024.491	787.651
78.680	19.066	1023.813	786.744
79.695	19.119	1023.346	786.558
80.709	19.301	1023.091	787.124
81.724	19.405	1022.157	786.808
82.739	19.603	1021.726	787.310
83.753	19.848	1021.501	788.184
84.768	20.319	1020.512	789.496
85.782	20.625	1019.515	790.044
86.797	20.467	1018.843	788.737
87.812	20.199	1017.546	786.448
88.826	20.107	1016.935	785.489
89.841	20.345	1015.993	785.766
90.855	20.253	1015.581	784.963
91.870	20.478	1014.491	785.071
92.884	20.393	1013.264	783.666
93.899	20.313	1012.637	782.750
94.914	20.420	1011.742	782.474
95.928	20.382	1010.793	781.496
96.943	20.163	1009.961	779.800
97.957	20.145	1008.925	778.850
98.972	20.171	1008.002	778.188
99.987	20.233	1007.504	778.013
101.001	20.206	1006.042	776.694
102.016	20.109	1005.800	776.002
103.030	20.265	1004.975	775.994
104.045	20.231	1004.423	775.349
105.060	19.991	1003.198	773.263
106.074	19.889	1001.590	771.502
107.089	19.481	1000.378	768.682
108.103	19.345	999.524	767.349
109.118	19.235	998.566	766.060
110.133	19.078	997.475	764.456
111.147	19.250	996.547	764.440
112.162	19.373	996.162	764.623
113.176	19.528	995.232	764.529
114.191	19.512	995.055	764.254
115.206	19.531	994.198	763.614
116.220	19.425	993.124	762.250
117.235	19.333	992.153	761.034
118.249	19.314	991.176	760.134
119.264	19.222	990.236	758.941
120.279	19.203	989.549	758.262
121.293	18.990	988.874	756.739
122.308	18.888	988.318	755.802
123.322	18.894	987.025	754.773
124.337	18.861	985.615	753.482
125.352	19.007	984.673	753.332
126.366	18.856	984.072	752.147
127.381	18.805	983.312	751.277
128.395	19.069	982.155	751.477
129.410	19.180	981.180	751.151
130.424	19.290	980.537	751.072
131.439	19.436	979.938	751.182
132.454	19.430	979.569	750.805
133.468	19.421	978.804	750.112
134.483	19.415	977.918	749.343
135.497	19.504	976.605	748.655
136.512	19.387	976.629	748.101
137.527	19.365	975.853	747.346
138.541	19.534	974.652	747.091
139.556	19.565	974.444	746.999
140.570	19.766	973.713	747.243
141.585	20.043	972.807	747.675
142.600	20.085	972.160	747.295
143.614	20.278	971.090	747.236
144.629	20.269	970.833	746.933
145.643	20.274	969.281	745.695
146.658	19.847	968.303	743.041
147.673	19.729	966.852	741.360
148.687	19.614	965.858	740.038
149.702	19.519	964.377	738.432
150.716	19.596	964.008	738.410
151.731	19.514	963.318	737.468
152.746	19.688	962.598	737.595
153.760	19.814	962.102	737.686
154.775	19.826	961.553	737.251
155.789	19.884	961.022	737.024
156.804	19.874	960.434	736.469
157.819	19.974	959.680	736.249
158.833	20.197	959.148	736.722
159.848	20.409	958.398	736.980
160.862	20.250	956.852	735.053
161.877	19.697	956.158	732.112
162.892	19.446	954.689	729.864
163.906	19.531	953.954	729.595
164.921	19.472	952.978	728.534
165.935	19.516	952.127	728.005
166.950	19.697	951.388	728.137
167.964	19.676	950.739	727.490
168.979	19.585	949.332	725.964
169.994	19.595	948.366	725.204
171.008	19.696	947.931	725.234
172.023	20.108	947.378	726.473
173.037	20.185	946.836	726.313
174.052	20.042	945.972	724.990
175.067	19.602	944.977	722.324
176.081	19.319	944.226	720.503
177.096	19.420	943.793	720.530
178.110	19.480	943.060	720.159
179.125	19.480	942.687	719.807
180.140	19.709	942.507	720.564
181.154	19.978	942.238	721.415
182.169	20.067	941.473	721.135
183.183	20.101	941.181	720.990
184.198	20.076	939.895	719.836
185.213	19.942	939.988	719.287
186.227	20.169	938.779	719.240
187.242	20.200	938.410	719.020
188.256	20.297	938.114	719.135
189.271	20.319	937.384	718.602
190.286	19.901	935.572	715.422
191.300	19.317	934.633	712.229
192.315	19.286	933.950	711.518
193.329	19.474	933.698	712.039
194.344	19.668	932.857	712.131
195.359	19.687	932.180	711.631
196.373	20.010	931.853	712.647
197.388	20.076	931.963	712.938
198.402	20.413	931.273	713.733
199.417	20.587	931.197	714.326
200.432	20.565	931.085	714.087
201.446	20.780	930.272	714.284
202.461	20.828	929.666	713.954
203.475	20.584	928.509	712.003
204.490	20.296	927.727	710.160
205.504	20.180	926.838	708.943
206.519	20.029	926.315	707.863
207.534	20.179	925.263	707.608
208.548	20.111	925.035	707.094
209.563	20.081	924.399	706.424
210.577	20.218	923.934	706.561
211.592	20.386	923.410	706.783
212.607	20.604	922.531	706.934
213.621	20.568	921.459	705.906
214.636	20.363	921.101	704.735
215.650	20.480	920.423	704.630
216.665	20.397	920.048	703.944
217.680	20.643	919.315	704.317
218.694	20.690	918.600	703.896
219.709	20.590	917.801	702.820
220.723	20.479	917.106	701.775
221.738	20.391	916.447	700.855
222.753	20.461	915.895	700.653
223.767	20.609	915.198	700.653
224.782	20.973	914.698	701.673
225.796	20.907	914.538	701.225
226.811	20.661	913.743	699.561
227.826	20.466	912.808	698.002
228.840	20.427	911.717	696.948
229.855	20.343	911.397	696.307
230.869	20.333	910.534	695.544
231.884	20.266	909.522	694.441
232.899	20.055	909.147	693.248
233.913	20.054	908.261	692.510
234.928	20.024	907.342	691.628
235.942	19.769	907.320	690.532
236.957	19.881	906.599	690.369
237.972	19.987	905.841	690.153
238.986	19.908	905.192	689.280
240.001	19.971	904.522	688.959
241.015	20.143	904.166	689.315
242.030	20.205	903.670	689.122
243.045	20.349	903.174	689.254
244.059	20.471	902.238	688.963
245.074	20.404	901.823	688.318
246.088	20.525	901.582	688.553
247.103	20.809	901.053	689.211
248.117	20.959	900.889	689.618
249.132	21.251	900.429	690.361
250.147	21.675	900.284	691.864
251.161	21.626	899.624	691.103
252.176	21.612	898.759	690.321
253.190	21.618	898.765	690.288
254.205	21.727	897.660	689.809
255.220	21.458	897.325	688.431
256.234	21.548	896.434	688.038
257.249	21.493	895.770	687.253
258.263	21.301	895.168	685.978
259.278	21.442	894.159	685.694
260.293	21.557	893.818	685.822
261.307	21.574	893.501	685.587
262.322	21.675	892.918	685.474
263.336	21.782	892.043	685.160
264.351	21.665	891.418	684.160
265.366	21.661	890.526	683.401
266.380	21.626	890.109	682.883
267.395	21.600	888.988	681.863
268.409	21.303	888.992	680.650
269.424	21.295	887.987	679.788
270.439	21.328	887.284	679.318
271.453	21.282	885.939	678.050
272.468	21.128	885.743	677.242
273.482	21.208	884.735	676.720
274.497	21.205	884.471	676.448
275.512	21.255	883.851	676.107
276.526	21.305	883.566	676.025
277.541	21.226	883.561	675.654
278.555	21.578	882.881	676.435
279.570	21.762	882.746	676.982
280.585	21.825	881.457	676.177
281.599	21.469	880.249	673.820
282.614	21.281	879.701	672.617
283.628	21.408	878.832	672.379
284.643	21.338	878.554	671.837
285.657	21.349	877.834	671.271
286.672	21.329	877.478	670.864
287.687	21.486	876.748	670.847
288.701	21.277	875.956	669.382
289.716	21.448	875.446	669.586
290.730	21.412	875.266	669.252
291.745	21.503	874.557	668.999
292.760	21.705	874.266	669.488
293.774	21.926	873.303	669.535
294.789	21.741	872.980	668.523
295.803	21.467	871.980	666.655
296.818	21.310	871.145	665.360
297.833	21.357	870.497	664.984
298.847	21.356	869.901	664.468
299.862	21.530	869.559	664.807
300.876	21.571	869.192	664.624
301.891	21.897	868.891	665.572
302.906	21.908	868.608	665.338
303.920	22.250	867.945	666.066
304.935	22.155	867.441	665.263
305.949	22.198	866.188	664.402
306.964	21.742	866.151	662.593
307.979	21.694	865.566	661.906
308.993	22.000	864.872	662.470
310.008	22.037	864.435	662.218
311.022	21.902	863.900	661.240
312.037	21.641	862.731	659.306
313.052	21.310	862.158	657.564
314.066	21.250	861.612	656.862
315.081	21.228	860.637	655.977
316.095	21.291	860.489	656.045
317.110	21.368	859.657	655.640
318.125	21.361	859.235	655.234
319.139	21.170	859.148	654.393
320.154	21.359	858.316	654.411
321.168	21.464	857.906	654.435
322.183	21.397	857.429	653.759
323.197	21.550	856.848	653.832
324.212	21.501	856.414	653.259
325.227	21.462	855.928	652.683
326.241	21.287	855.622	651.743
327.256	21.384	854.626	651.285
328.270	21.336	854.001	650.575
329.285	21.335	853.502	650.131
330.300	21.201	852.541	648.844
331.314	21.298	852.424	649.061
332.329	21.578	852.178	649.853
333.343	21.881	851.669	650.532
334.358	21.828	851.463	650.120
335.373	21.727	850.989	649.326
336.387	21.859	851.058	649.811
337.402	22.081	850.336	650.025
338.416	22.287	850.468	650.829
339.431	22.300	850.146	650.573
340.446	22.428	849.577	650.555
341.460	22.589	849.013	650.658
342.475	22.645	848.860	650.690
343.489	22.609	848.593	650.294
344.504	22.620	848.262	650.023
345.519	22.669	847.903	649.873
346.533	22.545	846.943	648.625
347.548	22.130	846.294	646.540
348.562	21.968	845.455	645.249
349.577	21.918	844.591	644.346
350.592	21.636	843.858	642.696
351.606	21.810	842.974	642.605
352.621	21.934	842.084	642.324
353.635	21.849	841.879	641.800
354.650	22.059	841.139	641.946
355.665	22.043	840.929	641.671
356.679	22.144	840.249	641.465
357.694	22.185	839.482	640.970
358.708	22.093	838.849	640.094
359.723	22.093	838.349	639.656
360.738	22.161	837.419	639.139
361.752	22.201	837.187	639.050
362.767	22.535	836.839	639.940
363.781	22.664	836.126	639.807
364.796	22.715	836.474	640.204
365.810	22.815	835.939	640.098
366.825	22.928	835.773	640.325
367.840	22.844	834.804	639.220
368.854	22.711	834.106	638.149
369.869	22.527	833.761	637.164
370.883	22.639	833.338	637.188
371.898	22.873	833.038	637.747
372.913	22.854	832.675	637.345
373.927	22.718	831.762	636.100
374.942	22.700	831.565	635.828
375.956	22.826	831.220	635.960
376.971	22.981	831.031	636.318
377.986	23.057	830.772	636.337
379.000	23.143	830.240	636.183
380.015	23.090	829.442	635.326
381.029	22.977	828.143	633.867
382.044	23.012	827.867	633.727
383.059	23.207	827.185	633.848
384.073	22.992	826.844	632.762
385.088	22.661	825.699	630.643
386.102	22.460	825.388	629.634
387.117	22.545	824.410	629.134
388.132	22.506	823.816	628.486
389.146	22.514	823.712	628.381
390.161	22.871	823.160	629.176
391.175	22.909	822.899	629.055
392.190	22.644	822.530	627.775
393.205	22.607	821.690	626.946
394.219	22.597	820.957	626.295
395.234	22.453	820.755	625.575
396.248	22.215	820.294	624.323
397.263	22.231	819.728	623.894
398.278	22.144	819.376	623.263
399.292	22.138	818.800	622.746
400.307	22.262	818.125	622.617
401.321	22.196	817.888	622.148
402.336	22.367	817.352	622.290
403.350	22.580	817.243	622.904
404.365	22.864	817.076	623.726
405.380	23.112	816.470	624.086
406.394	23.248	815.926	624.094
407.409	23.215	816.144	624.088
408.423	23.321	815.521	623.929
409.438	23.434	815.215	624.037
410.453	23.386	814.551	623.305
411.467	23.436	814.372	623.289
412.482	23.565	813.981	623.389
413.496	23.666	813.715	623.483
414.511	23.597	812.768	622.460
415.526	23.322	812.716	621.401
416.540	23.414	811.836	620.995
417.555	23.314	811.653	620.452
418.569	23.292	811.390	620.117
419.584	23.250	811.046	619.652
420.599	23.446	810.036	619.513
421.613	164.005	1372.175	1796.965
422.628	142.814	1454.068	1797.056
