DTS Sentinel unit serial number:	SN413079Multiplexer serial number:	ORYXHardware model number:	OX4-SRSoftware version number:	ORYX F/W v4.00 Oryx Data Collector v3.7.2.0data status	okinstallation	princeton_trtdifferential loss correction	single-endedforward channel	channel 1reverse channel	N/Adate	2019/09/12time	15:40:11forward acquisition time	60.00reverse acquisition time	0.00gamma	496.2192k internal	0.2295k external	0.2295temperature offset calibration	1.0073default loss term (dB/km)	0.3790temperature slope calibration	1.0000multiplexer offset coefficient	1.0000multiplexer slope coefficient	1.0000fibre end	0.00T internal ref (°C)	40.14T ext. ref 1 (°C)	2.45T ext. ref 2 (°C)	32.81length (m)	temperature (°C)	Stokes	anti-Stokes-747.200	737.616	0.049	-0.134
-746.185	-200.000	0.054	0.618
-745.171	-172.260	0.198	-0.006
-744.156	70.580	-0.202	0.214
-743.142	800.000	0.082	-0.261
-742.127	800.000	0.076	0.230
-741.112	-115.132	0.145	-0.028
-740.098	209.518	-0.254	0.407
-739.083	-90.257	-0.297	-0.088
-738.069	-6.579	0.431	0.300
-737.054	204.927	0.070	0.111
-736.039	800.000	-0.051	-0.176
-735.025	72.740	0.030	0.032
-734.010	207.282	-0.288	-0.458
-732.996	-43.460	-0.418	-0.216
-731.981	-16.929	-0.282	0.182
-730.966	-200.000	-0.011	0.136
-729.952	142.606	-0.206	-0.280
-728.937	400.254	0.029	-0.062
-727.923	-200.000	0.004	0.274
-726.908	42.571	-0.271	0.252
-725.894	800.000	0.064	-0.257
-724.879	800.000	-0.031	0.117
-723.864	258.531	-0.058	0.102
-722.850	702.180	-0.160	-0.430
-721.835	239.396	-0.093	-0.159
-720.821	-116.423	-0.172	-0.032
-719.806	61.632	-0.370	-0.376
-718.791	-35.795	0.232	-0.128
-717.777	-200.000	0.099	-0.486
-716.762	135.275	0.098	0.130
-715.748	-68.602	-0.246	0.097
-714.733	-200.000	-0.015	0.237
-713.718	24.864	0.214	0.181
-712.704	-96.035	0.104	0.028
-711.689	-200.000	0.008	0.175
-710.675	-200.000	-0.011	0.127
-709.660	55.227	-0.165	-0.162
-708.645	133.420	0.093	-0.122
-707.631	399.775	-0.068	-0.146
-706.616	-108.165	-0.322	-0.071
-705.602	-49.664	-0.123	0.060
-704.587	87.192	-0.132	0.149
-703.572	526.690	0.086	-0.206
-702.558	-117.962	0.517	0.094
-701.543	-73.603	-0.087	-0.032
-700.529	-27.542	0.220	0.131
-699.514	-68.788	0.330	0.130
-698.499	-45.551	-0.108	0.054
-697.485	13.867	0.020	-0.016
-696.470	-154.998	0.105	0.007
-695.456	800.000	0.090	0.259
-694.441	159.792	-0.023	0.033
-693.426	-23.001	-0.072	0.044
-692.412	-101.087	-0.283	0.071
-691.397	-8.594	-0.086	-0.059
-690.383	-200.000	0.001	0.220
-689.368	412.770	0.133	-0.289
-688.354	300.832	0.170	0.320
-687.339	601.765	-0.130	-0.329
-686.324	-200.000	0.027	-0.262
-685.310	-18.355	-0.110	-0.070
-684.295	-71.075	0.333	-0.128
-683.281	174.958	0.152	0.224
-682.266	-60.906	0.208	-0.090
-681.251	-71.104	-0.125	0.048
-680.237	46.296	-0.121	0.114
-679.222	155.036	-0.023	-0.032
-678.208	55.432	-0.082	-0.081
-677.193	178.003	0.167	-0.248
-676.178	11.618	-0.281	0.220
-675.164	158.065	-0.082	-0.117
-674.149	-163.095	-0.078	-0.004
-673.135	272.305	-0.101	0.182
-672.120	-200.000	0.044	-0.350
-671.105	260.667	0.099	-0.175
-670.091	800.000	0.101	-0.309
-669.076	-17.989	-0.239	-0.153
-668.062	388.110	-0.119	-0.250
-667.047	-146.471	0.147	0.013
-666.032	-200.000	0.004	0.035
-665.018	-78.025	0.434	0.152
-664.003	-142.248	-0.320	0.032
-662.989	600.867	-0.029	-0.073
-661.974	36.021	-0.103	0.093
-660.959	-91.004	-0.165	-0.048
-659.945	800.000	-0.058	0.175
-658.930	80.987	-0.095	0.105
-657.916	-188.468	-0.113	-0.001
-656.901	-37.200	0.107	0.058
-655.886	-79.496	-0.191	-0.066
-654.872	443.361	0.060	0.134
-653.857	-200.000	0.023	0.351
-652.843	262.927	0.051	0.091
-651.828	-92.143	-0.362	0.104
-650.814	-200.000	0.049	-0.358
-649.799	294.039	0.088	-0.164
-648.784	-200.000	0.030	-0.316
-647.770	-63.593	-0.391	-0.164
-646.755	178.018	0.163	-0.241
-645.741	-88.418	0.108	-0.033
-644.726	203.346	-0.174	-0.274
-643.711	199.849	0.202	0.316
-642.697	89.530	-0.216	0.245
-641.682	800.000	-0.085	-0.376
-640.668	-121.043	0.073	-0.012
-639.653	167.623	-0.117	0.169
-638.638	-159.670	0.116	-0.007
-637.624	80.001	-0.303	0.332
-636.609	-200.000	0.013	0.184
-635.595	62.156	0.095	-0.097
-634.580	800.000	-0.137	0.508
-633.565	-21.811	-0.064	-0.039
-632.551	-108.757	0.357	-0.078
-631.536	-200.000	0.010	0.125
-630.522	-200.000	0.054	0.288
-629.507	-200.000	0.008	0.282
-628.492	-88.173	0.122	0.037
-627.478	-99.863	0.122	0.031
-626.463	458.880	-0.097	0.219
-625.449	30.059	0.187	0.162
-624.434	800.000	0.012	0.035
-623.419	-200.000	-0.043	-0.269
-622.405	-31.949	0.178	0.101
-621.390	800.000	0.032	0.134
-620.376	800.000	0.052	0.187
-619.361	-77.505	0.051	-0.018
-618.346	-85.382	-0.128	-0.041
-617.332	-49.216	0.287	0.139
-616.317	295.761	-0.110	-0.205
-615.303	-43.645	-0.358	0.183
-614.288	800.000	0.006	-0.021
-613.273	-200.000	-0.028	0.219
-612.259	-152.008	-0.394	-0.029
-611.244	-200.000	-0.006	-0.321
-610.230	-56.733	0.250	-0.113
-609.215	-83.650	-0.348	-0.113
-608.201	-200.000	-0.010	-0.226
-607.186	-116.806	0.343	0.064
-606.171	-200.000	-0.052	0.477
-605.157	-142.218	0.064	-0.006
-604.142	-161.386	-0.337	0.018
-603.128	125.914	-0.128	-0.164
-602.113	-91.069	-0.290	0.085
-601.098	-200.000	0.000	0.278
-600.084	23.814	-0.310	-0.260
-599.069	-198.626	-0.164	0.001
-598.055	313.590	0.148	0.282
-597.040	67.549	0.049	0.051
-596.025	109.672	0.155	0.189
-595.011	-71.662	-0.173	0.066
-593.996	81.649	-0.180	-0.198
-592.982	800.000	-0.057	-0.203
-591.967	-80.476	0.240	-0.081
-590.952	251.811	0.112	0.194
-589.938	39.882	-0.246	-0.224
-588.923	-111.749	-0.225	-0.046
-587.909	310.012	-0.085	-0.162
-586.894	-200.000	-0.011	-0.060
-585.879	55.188	-0.248	0.243
-584.865	225.766	-0.054	0.089
-583.850	-139.923	0.098	-0.011
-582.836	55.790	-0.234	-0.231
-581.821	-115.061	-0.113	-0.022
-580.806	800.000	0.069	0.243
-579.792	30.028	-0.251	-0.217
-578.777	158.813	-0.179	0.253
-577.763	-78.259	0.144	-0.050
-576.748	-26.101	0.168	0.100
-575.733	12.276	-0.259	-0.202
-574.719	800.000	0.088	0.271
-573.704	-200.000	0.002	-0.012
-572.690	-86.089	-0.147	0.046
-571.675	-153.099	-0.162	-0.012
-570.661	214.076	-0.055	0.089
-569.646	311.551	-0.128	-0.243
-568.631	-200.000	0.024	0.127
-567.617	6.158	0.293	-0.221
-566.602	58.335	-0.344	0.343
-565.588	800.000	0.032	0.097
-564.573	-189.092	0.192	-0.002
-563.558	800.000	-0.085	-0.262
-562.544	561.744	0.125	0.306
-561.529	99.531	0.241	0.283
-560.515	589.674	-0.042	-0.105
-559.500	-41.400	0.144	0.075
-558.485	3.663	0.252	0.187
-557.471	120.997	0.152	0.192
-556.456	-113.528	0.249	0.049
-555.442	-60.173	-0.033	0.014
-554.427	178.279	-0.182	-0.269
-553.412	61.920	0.207	-0.209
-552.398	-102.877	-0.154	0.037
-551.383	-111.147	-0.147	0.031
-550.369	-49.111	-0.259	-0.126
-549.354	-200.000	0.003	0.200
-548.339	319.397	-0.056	0.108
-547.325	-52.291	-0.062	0.029
-546.310	-173.789	-0.228	0.007
-545.296	-100.138	0.032	0.008
-544.281	-68.148	-0.325	-0.128
-543.266	205.124	0.038	0.060
-542.252	105.121	0.099	-0.119
-541.237	-200.000	-0.024	-0.139
-540.223	106.741	0.062	-0.074
-539.208	-69.782	-0.257	0.100
-538.193	338.467	-0.117	0.232
-537.179	-200.000	0.006	0.384
-536.164	-200.000	0.038	-0.225
-535.150	800.000	0.054	0.229
-534.135	800.000	0.036	-0.131
-533.121	-89.652	-0.211	0.063
-532.106	112.686	-0.119	-0.146
-531.091	70.825	-0.089	0.094
-530.077	800.000	-0.082	-0.274
-529.062	-27.885	0.237	-0.139
-528.048	-200.000	0.041	-0.296
-527.033	-156.302	0.136	0.009
-526.018	-200.000	-0.050	-0.337
-525.004	226.796	-0.220	-0.362
-523.989	74.826	0.153	-0.163
-522.975	195.727	0.054	-0.083
-521.960	119.167	0.123	0.155
-520.945	-26.565	-0.244	-0.145
-519.931	19.415	-0.204	0.166
-518.916	-0.417	0.163	0.117
-517.902	127.796	-0.085	0.109
-516.887	-34.192	-0.066	-0.037
-515.872	25.037	-0.231	-0.194
-514.858	-200.000	-0.021	-0.330
-513.843	-49.172	0.285	-0.138
-512.829	51.051	-0.148	-0.143
-511.814	-96.234	-0.223	-0.060
-510.799	25.706	-0.162	0.137
-509.785	11.520	-0.337	0.262
-508.770	98.103	-0.251	0.293
-507.756	-17.629	-0.072	0.046
-506.741	-112.406	-0.054	0.011
-505.726	-6.337	-0.092	-0.064
-504.712	800.000	0.071	0.289
-503.697	274.690	-0.121	0.216
-502.683	-58.237	0.158	0.070
-501.668	-173.736	0.410	0.012
-500.653	-198.712	-0.136	0.001
-499.639	182.664	0.072	-0.107
-498.624	-200.000	0.063	-0.385
-497.610	-200.000	-0.032	-0.196
-496.595	-6.124	-0.448	-0.310
-495.581	635.777	-0.083	-0.212
-494.566	-77.081	0.093	0.033
-493.551	38.327	0.165	0.149
-492.537	274.464	-0.199	0.356
-491.522	-38.308	-0.335	0.180
-490.508	72.742	0.112	0.119
-489.493	60.180	0.182	-0.182
-488.478	647.805	-0.078	-0.203
-487.464	-188.336	0.237	0.003
-486.449	84.977	-0.125	0.139
-485.435	-200.000	0.014	-0.265
-484.420	9.357	0.236	0.181
-483.405	-103.988	-0.146	-0.034
-482.391	800.000	0.030	-0.130
-481.376	-130.234	0.161	0.022
-480.362	-0.766	-0.243	-0.174
-479.347	-82.849	-0.076	0.025
-478.332	388.058	-0.038	0.079
-477.318	-7.421	0.161	-0.110
-476.303	-20.441	0.294	0.183
-475.289	-95.135	-0.116	-0.032
-474.274	62.310	-0.262	0.265
-473.259	347.826	-0.100	0.200
-472.245	800.000	-0.052	0.189
-471.230	-200.000	-0.007	-0.180
-470.216	398.416	0.166	-0.350
-469.201	-200.000	0.012	0.131
-468.186	164.211	-0.077	0.109
-467.172	184.907	-0.081	0.122
-466.157	800.000	0.062	0.237
-465.143	-200.000	0.027	-0.204
-464.128	616.783	0.028	-0.070
-463.113	288.052	-0.168	0.307
-462.099	-200.000	0.071	0.473
-461.084	-151.488	0.166	-0.012
-460.070	109.624	-0.109	-0.132
-459.055	-200.000	0.045	-0.222
-458.040	-200.000	0.015	0.097
-457.026	44.251	0.122	0.113
-456.011	-109.921	-0.109	0.023
-454.997	149.667	0.134	-0.183
-453.982	-31.618	-0.369	-0.209
-452.968	800.000	-0.059	-0.193
-451.953	3.744	0.044	-0.032
-450.938	-64.969	-0.148	-0.060
-449.924	-128.938	0.225	-0.032
-448.909	-200.000	-0.028	-0.150
-447.895	800.000	0.085	0.331
-446.880	12.995	-0.187	0.146
-445.865	143.283	0.098	0.132
-444.851	-200.000	0.021	-0.102
-443.836	-6.052	0.166	-0.115
-442.822	-89.664	-0.256	-0.076
-441.807	-200.000	-0.071	0.378
-440.792	406.334	0.097	-0.206
-439.778	-200.000	0.057	-0.361
-438.763	800.000	0.081	0.233
-437.749	-200.000	0.263	0.000
-436.734	-200.000	-0.041	0.328
-435.719	117.267	-0.191	-0.237
-434.705	-67.039	0.154	-0.061
-433.690	-107.241	0.118	0.026
-432.676	800.000	0.064	-0.237
-431.661	-53.867	-0.254	-0.117
-430.646	800.000	0.113	-0.373
-429.632	-200.000	-0.015	0.282
-428.617	123.631	-0.139	0.176
-427.603	5.924	-0.138	-0.103
-426.588	238.994	-0.102	0.172
-425.573	-94.318	-0.074	0.020
-424.559	52.847	0.088	0.085
-423.544	-86.133	0.343	0.107
-422.530	196.137	0.129	0.198
-421.515	-191.880	0.238	-0.002
-420.500	800.000	0.081	-0.346
-419.486	706.515	-0.059	-0.156
-418.471	370.678	-0.052	0.107
-417.457	198.735	-0.133	-0.206
-416.442	-146.398	-0.304	-0.027
-415.428	-151.174	-0.176	-0.013
-414.413	-200.000	-0.013	0.202
-413.398	-200.000	0.000	-0.287
-412.384	-124.448	0.329	0.052
-411.369	97.025	0.165	0.191
-410.355	-89.624	0.206	0.061
-409.340	-50.749	0.136	0.064
-408.325	63.564	0.116	-0.118
-407.311	-3.072	0.255	0.179
-406.296	534.771	-0.025	0.060
-405.282	800.000	0.105	-0.392
-404.267	800.000	0.102	0.298
-403.252	-74.448	0.267	0.097
-402.238	-200.000	0.055	-0.263
-401.223	209.245	0.266	-0.421
-400.209	-69.875	0.260	0.100
-399.194	141.316	-0.184	0.246
-398.179	-31.758	-0.083	0.047
-397.165	-90.540	0.287	-0.084
-396.150	-200.000	-0.005	-0.404
-395.136	310.180	-0.090	-0.171
-394.121	-151.076	-0.071	0.005
-393.106	-128.619	-0.241	0.034
-392.092	-148.701	-0.088	-0.007
-391.077	-5.511	0.315	-0.218
-390.063	-79.651	-0.195	-0.066
-389.048	-168.928	0.091	0.003
-388.033	800.000	0.007	-0.023
-387.019	290.758	0.067	-0.122
-386.004	-200.000	0.022	-0.130
-384.990	-200.000	0.029	-0.253
-383.975	107.611	0.324	-0.389
-382.960	-71.270	-0.126	-0.048
-381.946	-158.553	-0.349	-0.020
-380.931	-200.000	-0.042	0.284
-379.917	-149.273	0.193	-0.016
-378.902	122.405	0.115	0.145
-377.888	-37.686	-0.134	-0.072
-376.873	-200.000	-0.030	0.147
-375.858	-163.699	-0.180	0.009
-374.844	129.718	0.158	-0.204
-373.829	769.234	0.126	0.345
-372.815	-76.294	-0.262	0.093
-371.800	800.000	0.053	-0.180
-370.785	-146.509	-0.255	-0.022
-369.771	-200.000	0.003	-0.091
-368.756	62.955	-0.171	-0.172
-367.742	268.704	-0.235	0.416
-366.727	315.197	-0.092	0.174
-365.712	171.327	-0.038	-0.054
-364.698	-4.368	-0.023	-0.016
-363.683	292.089	-0.127	-0.232
-362.669	-200.000	0.018	-0.520
-361.654	69.014	0.239	-0.247
-360.639	800.000	-0.036	0.158
-359.625	-122.010	0.266	-0.044
-358.610	344.544	-0.230	-0.454
-357.596	-152.902	0.359	0.026
-356.581	34.061	-0.258	0.226
-355.566	-200.000	0.016	0.194
-354.552	-182.759	0.238	0.004
-353.537	-131.622	-0.205	-0.027
-352.523	90.659	0.051	-0.058
-351.508	-35.635	0.063	0.034
-350.493	-200.000	-0.020	0.272
-349.479	-91.093	-0.078	-0.023
-348.464	112.650	0.094	-0.114
-347.450	-200.000	-0.005	-0.052
-346.435	800.000	0.060	-0.209
-345.420	145.927	-0.018	0.024
-344.406	188.013	0.127	0.191
-343.391	-132.600	0.179	0.023
-342.377	9.756	-0.134	-0.103
-341.362	-200.000	0.049	-0.334
-340.348	-96.618	0.249	-0.066
-339.333	-17.043	0.208	-0.132
-338.318	198.268	0.011	-0.017
-337.304	-113.000	0.112	0.022
-336.289	-200.000	0.012	0.207
-335.275	-195.803	-0.179	-0.001
-334.260	-112.264	-0.171	-0.035
-333.245	-200.000	-0.027	0.195
-332.231	571.640	0.125	0.307
-331.216	37.321	-0.166	0.148
-330.202	-200.000	-0.040	-0.260
-329.187	-36.043	0.237	0.129
-328.172	-8.383	0.374	0.253
-327.158	800.000	0.090	0.255
-326.143	132.951	-0.265	0.344
-325.129	800.000	-0.032	0.107
-324.114	-59.915	-0.200	0.086
-323.099	-200.000	0.070	-0.420
-322.085	-42.004	-0.131	0.067
-321.070	-200.000	0.004	-0.162
-320.056	59.454	0.158	-0.157
-319.041	374.253	0.056	0.114
-318.026	-53.327	0.174	-0.080
-317.012	-111.394	-0.178	0.037
-315.997	351.958	0.085	0.168
-314.983	107.031	-0.234	0.279
-313.968	-87.906	-0.155	-0.047
-312.953	-81.036	-0.160	0.053
-311.939	-200.000	0.069	0.309
-310.924	-81.885	0.265	0.087
-309.910	-116.850	-0.461	0.085
-308.895	-106.531	-0.099	-0.022
-307.880	29.569	0.182	-0.155
-306.866	-138.529	-0.070	0.008
-305.851	560.766	0.084	0.205
-304.837	-115.152	-0.150	0.029
-303.822	83.161	0.018	0.020
-302.807	800.000	0.051	0.204
-301.793	10.643	-0.082	-0.062
-300.778	-200.000	-0.000	-0.314
-299.764	-200.000	0.012	0.110
-298.749	800.000	-0.052	0.161
-297.735	2.113	0.158	-0.115
-296.720	260.994	0.170	-0.295
-295.705	-200.000	-0.046	-0.377
-294.691	800.000	0.127	-0.366
-293.676	239.466	-0.081	-0.135
-292.662	800.000	-0.075	0.256
-291.647	-155.181	-0.354	0.023
-290.632	-165.951	-0.182	-0.008
-289.618	26.303	-0.279	0.234
-288.603	-200.000	-0.024	-0.146
-287.589	-40.211	0.446	-0.233
-286.574	-100.421	0.035	-0.009
-285.559	88.360	-0.165	0.184
-284.545	-14.978	0.083	0.054
-283.530	-42.684	-0.098	-0.050
-282.516	800.000	0.056	-0.225
-281.501	216.893	0.089	-0.142
-280.486	20.741	0.349	0.284
-279.472	129.052	-0.036	-0.046
-278.457	-103.590	0.125	-0.029
-277.443	18.584	0.134	-0.107
-276.428	78.839	-0.222	0.238
-275.413	-58.199	0.236	-0.103
-274.399	-179.252	0.089	0.002
-273.384	-56.190	-0.159	-0.071
-272.370	-97.210	0.191	0.050
-271.355	-28.548	-0.258	0.149
-270.340	-15.020	-0.339	-0.218
-269.326	-135.596	0.261	0.031
-268.311	-200.000	-0.045	0.331
-267.297	61.607	0.209	0.209
-266.282	-38.959	0.162	-0.085
-265.267	174.174	-0.114	0.166
-264.253	180.588	-0.053	0.077
-263.238	-129.757	-0.208	0.029
-262.224	-126.015	-0.261	0.039
-261.209	800.000	-0.077	0.314
-260.195	-49.764	0.049	-0.024
-259.180	-200.000	-0.037	0.238
-258.165	358.842	0.019	0.038
-257.151	292.190	0.073	0.133
-256.136	11.906	-0.230	-0.177
-255.122	-200.000	0.037	-0.407
-254.107	-58.099	-0.042	0.018
-253.092	-98.176	0.111	0.029
-252.078	203.728	0.057	-0.088
-251.063	156.115	0.028	0.039
-250.049	254.340	0.043	-0.073
-249.034	-35.898	0.057	0.031
-248.019	11.307	-0.170	0.130
-247.005	557.466	0.063	0.152
-245.990	275.840	-0.104	-0.184
-244.976	375.912	0.035	-0.072
-243.961	324.623	-0.062	-0.118
-242.946	-97.035	0.149	-0.039
-241.932	-33.999	0.367	0.202
-240.917	53.148	-0.203	0.195
-239.903	80.742	-0.182	-0.197
-238.888	-200.000	0.059	-0.313
-237.873	160.196	0.121	-0.169
-236.859	-200.000	-0.064	-0.350
-235.844	89.249	-0.195	-0.217
-234.830	126.718	-0.126	0.159
-233.815	103.160	0.126	0.147
-232.800	-112.158	0.125	-0.025
-231.786	284.109	0.128	0.230
-230.771	-100.972	-0.051	0.013
-229.757	21.901	0.179	-0.146
-228.742	199.089	-0.095	-0.146
-227.727	22.164	-0.285	-0.233
-226.713	-141.563	-0.081	-0.008
-225.698	800.000	-0.028	0.114
-224.684	-200.000	0.062	-0.288
-223.669	-5.974	0.252	0.173
-222.655	313.417	0.088	-0.166
-221.640	-123.327	0.318	0.051
-220.625	-144.279	-0.076	-0.007
-219.611	-52.864	-0.116	0.053
-218.596	-200.000	-0.017	0.103
-217.582	-89.472	-0.248	0.073
-216.567	800.000	0.079	-0.232
-215.552	-52.910	0.228	0.105
-214.538	800.000	0.107	-0.297
-213.523	-200.000	-0.027	-0.472
-212.509	-200.000	-0.027	0.125
-211.494	97.681	0.067	-0.077
-210.479	-200.000	0.021	-0.252
-209.465	-96.997	-0.029	-0.008
-208.450	321.105	-0.105	0.199
-207.436	-90.798	-0.031	0.009
-206.421	-137.741	0.382	0.043
-205.406	80.739	0.245	0.265
-204.392	800.000	0.016	0.054
-203.377	120.633	0.289	0.359
-202.363	-102.462	0.163	0.039
-201.348	800.000	0.091	-0.323
-200.333	167.519	-0.166	-0.235
-199.319	-111.248	-0.154	0.032
-198.304	800.000	0.085	0.331
-197.290	800.000	0.122	0.399
-196.275	14.353	0.229	0.179
-195.260	-31.150	0.292	0.165
-194.246	86.622	0.315	0.348
-193.231	-200.000	0.013	0.333
-192.217	177.900	0.204	0.297
-191.202	-21.699	0.281	0.171
-190.187	-200.000	-0.044	0.428
-189.173	613.344	0.021	0.053
-188.158	-200.000	-0.020	-0.108
-187.144	122.328	-0.078	0.098
-186.129	53.803	0.131	-0.126
-185.114	-144.990	0.327	-0.030
-184.100	71.805	0.055	0.057
-183.085	677.325	-0.105	-0.274
-182.071	-98.841	-0.131	-0.033
-181.056	-200.000	0.004	-0.327
-180.042	-34.433	0.193	-0.106
-179.027	13.202	0.366	0.283
-178.012	-97.654	0.360	-0.093
-176.998	-200.000	-0.016	0.077
-175.983	-86.571	-0.133	-0.041
-174.969	102.482	0.054	-0.064
-173.954	82.686	-0.160	0.174
-172.939	-14.545	-0.048	-0.031
-171.925	223.868	0.081	-0.130
-170.910	800.000	-0.018	-0.077
-169.896	800.000	0.047	0.191
-168.881	6.347	0.192	0.143
-167.866	-200.000	-0.037	0.178
-166.852	32.849	-0.213	-0.184
-165.837	-61.329	0.449	-0.189
-164.823	-116.733	-0.143	-0.026
-163.808	-82.213	0.172	-0.056
-162.793	105.545	0.045	-0.053
-161.779	-20.068	0.434	-0.267
-160.764	-92.662	-0.106	-0.030
-159.750	-109.025	-0.230	0.049
-158.735	112.456	-0.093	0.113
-157.720	800.000	-0.132	-0.464
-156.706	-157.868	0.075	-0.004
-155.691	800.000	0.020	-0.083
-154.677	220.617	-0.103	-0.165
-153.662	-99.522	-0.425	-0.107
-152.647	65.570	-0.136	0.138
-151.633	-177.605	-0.115	-0.003
-150.618	-50.087	-0.131	0.062
-149.604	-200.000	0.002	-0.110
-148.589	117.206	0.119	-0.146
-147.574	151.840	-0.142	-0.194
-146.560	-105.059	-0.312	0.071
-145.545	-44.167	0.135	0.068
-144.531	159.532	-0.097	-0.134
-143.516	328.784	0.068	-0.130
-142.502	-31.385	0.140	0.079
-141.487	-13.345	-0.094	0.061
-140.472	-127.452	-0.386	0.056
-139.458	-101.122	0.188	-0.046
-138.443	-200.000	-0.059	-0.318
-137.429	800.000	0.043	-0.176
-136.414	-150.479	0.416	-0.032
-135.399	-168.834	-0.252	-0.009
-134.385	-77.135	-0.034	0.012
-133.370	21.884	0.061	-0.050
-132.356	-197.675	0.211	-0.001
-131.341	295.928	0.048	-0.088
-130.326	21.910	-0.018	-0.015
-129.312	0.375	0.172	-0.122
-128.297	-200.000	0.004	0.126
-127.283	-76.293	-0.186	0.065
-126.268	37.789	0.242	-0.214
-125.253	-82.211	-0.238	0.077
-124.239	800.000	-0.045	0.166
-123.224	115.561	-0.114	0.139
-122.210	290.368	-0.022	-0.039
-121.195	269.075	-0.032	0.057
-120.180	-51.656	0.103	-0.048
-119.166	-200.000	-0.052	0.238
-118.151	60.661	-0.111	0.110
-117.137	-76.522	0.163	-0.057
-116.122	-200.000	-0.008	0.196
-115.107	243.181	-0.126	0.210
-114.093	688.157	-0.041	-0.106
-113.078	78.841	0.178	-0.190
-112.064	-200.000	0.020	-0.091
-111.049	800.000	-0.079	0.303
-110.034	-200.000	0.046	0.322
-109.020	-18.169	0.325	-0.203
-108.005	685.170	-0.102	-0.265
-106.991	-53.252	0.296	0.136
-105.976	-53.620	0.148	-0.068
-104.962	488.283	-0.086	-0.196
-103.947	95.682	-0.037	0.042
-102.932	-120.066	0.081	0.014
-101.918	-14.576	-0.087	-0.055
-100.903	73.833	-0.160	-0.167
-99.889	203.024	0.018	0.028
-98.874	800.000	-0.043	-0.180
-97.859	-200.000	0.046	-0.209
-96.845	314.918	-0.033	-0.061
-95.830	-51.378	0.246	-0.114
-94.816	-13.625	-0.263	0.170
-93.801	-200.000	0.031	-0.139
-92.786	-107.899	0.176	0.038
-91.772	20.226	-0.117	0.094
-90.757	-47.223	0.383	-0.186
-89.743	-200.000	0.009	-0.119
-88.728	-137.919	-0.347	0.039
-87.713	-81.246	-0.264	-0.087
-86.699	15.836	-0.182	-0.143
-85.684	75.556	0.128	-0.135
-84.670	-73.911	0.219	0.079
-83.655	124.239	0.173	-0.217
-82.640	201.031	-0.113	0.173
-81.626	-200.000	-0.026	-0.211
-80.611	84.350	0.082	-0.089
-79.597	800.000	0.050	-0.200
-78.582	58.784	-0.119	0.116
-77.567	-70.701	0.082	0.031
-76.553	-141.660	0.412	0.041
-75.538	-116.524	0.350	0.064
-74.524	-95.290	-0.074	-0.020
-73.509	-65.877	-0.118	0.047
-72.494	-200.000	0.018	0.368
-71.480	255.724	0.199	-0.339
-70.465	-11.421	-0.104	-0.068
-69.451	147.090	-0.175	0.235
-68.436	6.615	-0.279	-0.206
-67.422	-200.000	-0.016	0.096
-66.407	24.250	0.285	-0.234
-65.392	-108.793	0.315	0.067
-64.378	108.417	-0.072	0.085
-63.363	-148.336	-0.084	0.007
-62.349	176.241	-0.051	0.074
-61.334	50.275	-0.770	-0.724
-60.319	-9.383	0.217	0.144
-59.305	367.084	0.311	-0.625
-58.290	800.000	0.197	0.853
-57.276	725.423	0.599	1.589
-56.261	-200.000	79.196	502.416
-55.246	506.771	1329.580	3067.649
-54.232	149.567	2549.404	3435.739
-53.217	113.860	2220.097	2684.714
-52.203	51.165	1679.438	1584.993
-51.188	43.615	1410.931	1283.849
-50.173	40.297	1365.575	1222.091
-49.159	58.191	1403.611	1368.197
-48.144	64.372	1422.477	1425.079
-47.130	44.102	1383.982	1262.156
-46.115	40.186	1367.396	1222.843
-45.100	40.011	1362.621	1217.443
-44.086	39.938	1360.161	1214.753
-43.071	39.872	1358.081	1212.438
-42.057	39.947	1355.531	1210.571
-41.042	39.987	1353.450	1208.911
-40.027	40.041	1352.186	1208.062
-39.013	40.053	1350.505	1206.589
-37.998	40.066	1348.606	1204.922
-36.984	40.185	1346.239	1203.484
-35.969	40.260	1344.385	1202.234
-34.954	40.150	1342.849	1200.147
-33.940	40.149	1341.688	1199.056
-32.925	40.233	1340.343	1198.315
-31.911	40.287	1338.891	1197.293
-30.896	40.312	1336.923	1195.638
-29.881	40.264	1335.817	1194.314
-28.867	40.267	1334.216	1192.850
-27.852	40.215	1332.918	1191.333
-26.838	40.249	1331.165	1189.921
-25.823	40.191	1330.227	1188.690
-24.809	40.255	1328.725	1187.683
-23.794	40.166	1327.641	1186.132
-22.779	40.259	1325.590	1184.808
-21.765	40.262	1324.452	1183.766
-20.750	40.056	1323.430	1181.571
-19.736	40.122	1321.354	1180.068
-18.721	40.015	1320.796	1178.879
-17.706	40.092	1319.368	1178.022
-16.692	40.232	1317.594	1177.221
-15.677	40.137	1317.060	1176.131
-14.663	40.067	1315.898	1174.631
-13.648	40.005	1315.185	1173.578
-12.633	40.003	1314.232	1172.670
-11.619	40.036	1312.877	1171.612
-10.604	40.010	1312.752	1171.298
-9.590	40.022	1311.563	1170.264
-8.575	40.087	1310.307	1169.480
-7.560	40.132	1309.395	1168.885
-6.546	40.107	1308.846	1168.205
-5.531	40.084	1307.508	1166.825
-4.517	40.027	1306.803	1165.816
-3.502	40.069	1306.169	1165.451
-2.487	40.072	1304.601	1164.024
-1.473	40.062	1300.369	1160.140
-0.458	38.154	1284.215	1134.614
0.556	33.734	1262.010	1083.370
1.571	28.621	1265.066	1056.551
2.586	27.323	1279.431	1060.893
3.600	25.940	1268.399	1043.651
4.615	18.791	1191.939	941.609
5.629	7.829	1109.646	820.284
6.644	2.922	1086.895	778.567
7.659	2.419	1084.232	774.046
8.673	2.231	1082.577	771.849
9.688	2.240	1080.848	770.592
10.702	2.564	1080.084	771.612
11.717	9.203	1090.099	812.357
12.731	19.865	1105.769	878.373
13.746	25.110	1111.858	909.827
14.761	25.778	1112.807	913.918
15.775	25.937	1111.357	913.450
16.790	25.577	1111.366	911.552
17.804	25.518	1110.448	910.420
18.819	25.613	1110.332	910.724
19.834	25.730	1109.440	910.503
20.848	25.814	1109.355	910.780
21.863	25.876	1108.523	910.330
22.877	25.702	1107.870	908.833
23.892	25.675	1106.984	907.887
24.907	25.754	1106.662	907.942
25.921	25.756	1105.322	906.773
26.936	25.711	1104.348	905.668
27.950	25.580	1102.736	903.610
28.965	25.562	1100.637	901.718
29.980	25.487	1099.108	900.008
30.994	25.802	1098.762	901.223
32.009	25.785	1097.737	900.216
33.023	25.528	1096.490	897.833
34.038	25.623	1095.624	897.519
35.053	25.732	1095.323	897.737
36.067	25.884	1093.902	897.249
37.082	25.746	1093.770	896.376
38.096	26.055	1092.352	896.670
39.111	25.970	1092.279	896.104
40.126	25.862	1090.817	894.292
41.140	25.461	1089.060	890.783
42.155	25.222	1087.513	888.259
43.169	25.305	1086.374	887.659
44.184	25.358	1085.807	887.378
45.199	25.183	1084.647	885.489
46.213	25.407	1083.848	885.861
47.228	25.588	1082.928	885.923
48.242	25.523	1082.861	885.473
49.257	25.698	1081.641	885.258
50.271	25.822	1080.777	885.079
51.286	25.817	1080.179	884.488
52.301	25.822	1079.208	883.641
53.315	25.657	1078.278	881.990
54.330	25.676	1077.442	881.320
55.344	25.770	1076.613	881.023
56.359	25.660	1075.829	879.769
57.374	25.421	1074.607	877.525
58.388	25.449	1074.122	877.188
59.403	25.423	1073.056	876.111
60.417	25.311	1072.402	874.952
61.432	25.325	1071.981	874.600
62.447	25.522	1071.026	874.703
63.461	25.582	1069.950	874.039
64.476	25.425	1069.152	872.549
65.490	25.372	1068.167	871.410
66.505	25.449	1067.592	871.237
67.520	25.501	1067.170	871.069
68.534	25.233	1066.154	868.864
69.549	24.986	1064.658	866.374
70.563	24.849	1064.323	865.360
71.578	24.892	1063.499	864.821
72.593	24.734	1062.708	863.340
73.607	24.845	1061.933	863.170
74.622	25.191	1061.586	864.478
75.636	25.291	1060.473	863.977
76.651	25.103	1060.244	862.809
77.666	24.870	1059.372	860.900
78.680	25.042	1058.398	860.860
79.695	25.221	1057.665	861.048
80.709	25.289	1057.162	860.891
81.724	25.239	1056.638	860.146
82.739	25.399	1055.222	859.681
83.753	25.651	1055.284	860.862
84.768	25.971	1054.454	861.638
85.782	26.065	1053.506	861.235
86.797	26.059	1052.194	860.062
87.812	25.889	1051.424	858.546
88.826	25.955	1050.682	858.177
89.841	25.950	1049.817	857.371
90.855	26.023	1048.724	856.750
91.870	26.043	1047.609	855.860
92.884	25.807	1046.725	853.941
93.899	25.846	1045.481	853.033
94.914	25.943	1045.045	853.063
95.928	25.832	1043.603	851.286
96.943	25.544	1042.665	849.083
97.957	25.275	1041.478	846.775
98.972	25.083	1040.364	844.888
99.987	25.480	1039.886	846.294
101.001	25.784	1038.690	846.678
102.016	25.687	1038.063	845.636
103.030	25.558	1037.325	844.355
104.045	25.592	1036.074	843.422
105.060	25.198	1035.053	840.670
106.074	25.453	1034.436	841.289
107.089	25.775	1034.227	842.551
108.103	25.708	1032.769	840.972
109.118	25.423	1031.715	838.713
110.133	25.354	1031.087	837.807
111.147	25.204	1029.507	835.749
112.162	25.014	1028.579	834.039
113.176	25.331	1028.213	835.142
114.191	25.409	1027.223	834.625
115.206	24.939	1026.281	831.602
116.220	24.863	1025.807	830.794
117.235	25.010	1024.671	830.482
118.249	25.072	1024.093	830.229
119.264	24.944	1023.357	828.965
120.279	25.039	1022.672	828.776
121.293	24.942	1022.089	827.783
122.308	25.091	1020.593	827.186
123.322	25.107	1019.084	825.959
124.337	24.917	1018.175	824.277
125.352	24.422	1016.703	820.735
126.366	24.467	1015.453	819.863
127.381	25.126	1015.718	823.028
128.395	25.514	1015.269	824.372
129.410	25.630	1014.656	824.334
130.424	25.707	1013.450	823.634
131.439	25.526	1013.110	822.453
132.454	25.519	1012.040	821.482
133.468	25.540	1011.014	820.673
134.483	25.728	1010.300	820.876
135.497	25.929	1009.516	821.082
136.512	25.808	1008.953	820.002
137.527	25.940	1007.847	819.631
138.541	26.013	1006.686	818.947
139.556	25.920	1006.019	817.908
140.570	26.106	1005.508	818.263
141.585	25.954	1004.550	816.723
142.600	25.868	1003.590	815.481
143.614	26.130	1002.816	815.964
144.629	26.225	1001.947	815.615
145.643	26.024	1000.531	813.483
146.658	25.953	998.805	811.689
147.673	25.795	997.817	810.103
148.687	25.733	997.026	809.112
149.702	25.690	995.854	807.897
150.716	25.566	995.638	807.092
151.731	25.842	994.643	807.453
152.746	25.952	993.821	807.204
153.760	26.001	993.552	807.133
154.775	26.110	992.660	806.827
155.789	26.011	991.860	805.663
156.804	25.995	991.114	804.916
157.819	26.076	990.023	804.317
158.833	26.111	989.529	804.002
159.848	26.025	988.765	802.926
160.862	25.959	987.285	801.361
161.877	26.013	986.471	800.870
162.892	26.083	985.443	800.272
163.906	25.928	984.171	798.483
164.921	25.915	982.895	797.318
165.935	26.120	982.088	797.500
166.950	26.101	981.468	796.843
167.964	26.055	980.482	795.768
168.979	25.740	980.247	794.118
169.994	25.649	979.345	792.917
171.008	25.892	978.185	792.976
172.023	25.985	977.279	792.578
173.037	25.836	976.217	790.993
174.052	25.717	975.336	789.690
175.067	25.748	974.694	789.236
176.081	25.915	973.839	789.202
177.096	25.608	973.902	787.841
178.110	25.529	972.444	786.249
179.125	25.363	971.644	784.804
180.140	25.422	971.410	784.805
181.154	25.493	971.353	785.000
182.169	25.849	970.899	786.118
183.183	25.896	970.917	786.264
184.198	26.001	969.738	785.699
185.213	25.870	969.251	784.665
186.227	25.897	968.475	784.083
187.242	26.030	967.577	783.866
188.256	26.088	967.194	783.738
189.271	26.006	966.564	782.800
190.286	25.817	965.272	780.870
191.300	25.163	963.425	776.475
192.315	24.266	962.127	771.479
193.329	24.243	961.759	771.018
194.344	25.191	961.825	775.100
195.359	25.821	961.934	777.839
196.373	26.006	961.393	778.130
197.388	25.801	960.887	776.771
198.402	26.015	960.176	777.047
199.417	25.985	959.458	776.268
200.432	25.658	958.362	773.910
201.446	25.580	957.862	773.101
202.461	25.500	957.440	772.350
203.475	24.675	955.378	767.078
204.490	23.876	954.156	762.602
205.504	24.775	954.437	766.616
206.519	25.528	953.963	769.391
207.534	25.569	953.832	769.391
208.548	25.972	953.261	770.587
209.563	25.541	952.749	768.264
210.577	25.622	952.153	768.058
211.592	26.051	952.127	769.800
212.607	26.076	950.842	768.800
213.621	26.053	950.050	767.994
214.636	26.140	949.419	767.785
215.650	25.947	948.599	766.236
216.665	26.174	947.861	766.535
217.680	26.046	947.264	765.441
218.694	25.706	945.634	762.618
219.709	25.480	945.268	761.296
220.723	25.638	945.187	761.833
221.738	25.806	944.530	761.947
222.753	25.853	943.730	761.434
223.767	25.976	943.741	761.894
224.782	26.257	942.975	762.393
225.796	26.293	942.209	761.860
226.811	25.432	941.139	757.301
227.826	24.754	939.559	753.106
228.840	25.076	939.255	754.151
229.855	25.258	938.105	753.926
230.869	24.829	937.463	751.543
231.884	25.256	937.277	753.121
232.899	25.907	937.504	755.967
233.913	25.705	937.176	754.791
234.928	25.755	936.445	754.342
235.942	25.629	935.867	753.283
236.957	25.379	934.801	751.311
237.972	25.420	934.117	750.865
238.986	25.555	933.937	751.221
240.001	25.516	933.255	750.444
241.015	25.642	932.367	750.188
242.030	25.842	931.880	750.563
243.045	26.019	931.619	751.024
244.059	26.104	931.298	751.050
245.074	26.022	929.900	749.517
246.088	25.565	929.030	746.851
247.103	25.943	928.548	747.966
248.117	26.308	928.899	749.696
249.132	26.574	929.055	750.860
250.147	26.593	927.814	749.870
251.161	26.798	927.552	750.440
252.176	26.742	927.221	749.876
253.190	26.712	926.700	749.261
254.205	26.950	926.264	749.829
255.220	26.877	925.462	748.812
256.234	26.862	924.586	747.975
257.249	26.815	923.662	746.966
258.263	26.750	923.100	746.180
259.278	26.904	922.419	746.197
260.293	26.923	921.873	745.768
261.307	26.766	921.042	744.381
262.322	26.540	920.182	742.695
263.336	25.794	918.164	737.946
264.351	24.795	916.431	732.398
265.366	24.831	916.200	732.296
266.380	25.974	917.017	737.565
267.395	26.492	916.095	738.871
268.409	26.396	915.778	738.160
269.424	26.475	915.437	738.143
270.439	26.528	914.854	737.822
271.453	26.619	914.223	737.619
272.468	26.731	914.259	738.040
273.482	27.049	913.018	738.265
274.497	26.430	912.263	735.073
275.512	26.007	911.295	732.510
276.526	26.502	911.365	734.515
277.541	26.646	911.036	734.768
278.555	26.497	910.174	733.404
279.570	26.319	909.281	731.896
280.585	26.574	908.680	732.379
281.599	26.528	907.636	731.288
282.614	25.916	906.513	727.847
283.628	25.787	906.294	727.088
284.643	26.250	905.755	728.458
285.657	25.918	904.704	726.212
286.672	25.576	903.630	723.909
287.687	26.102	903.785	726.086
288.701	26.093	903.486	725.746
289.716	25.725	902.387	723.320
290.730	25.877	901.541	723.187
291.745	25.651	901.020	721.799
292.760	25.860	900.749	722.356
293.774	26.808	901.062	726.343
294.789	27.155	900.834	727.484
295.803	27.291	900.326	727.553
296.818	27.200	899.870	726.757
297.833	26.780	898.439	723.862
298.847	26.568	897.763	722.406
299.862	26.870	897.771	723.554
300.876	27.212	897.280	724.455
301.891	27.202	896.210	723.490
302.906	26.511	895.614	720.193
303.920	26.694	895.120	720.461
304.935	27.136	895.129	722.163
305.949	27.150	893.740	721.034
306.964	26.891	893.168	719.479
307.979	26.864	893.452	719.537
308.993	27.280	892.850	720.640
310.008	27.195	892.112	719.643
311.022	26.928	891.406	717.954
312.037	26.907	890.441	717.030
313.052	26.526	889.784	714.932
314.066	25.653	888.048	710.029
315.081	25.353	886.977	707.928
316.095	26.179	887.636	711.651
317.110	26.680	887.615	713.546
318.125	25.813	886.011	708.782
319.139	24.821	884.523	703.631
320.154	24.855	884.101	703.365
321.168	25.749	884.317	706.988
322.183	26.517	884.591	710.160
323.197	26.721	883.982	710.408
324.212	26.861	883.934	710.853
325.227	26.876	883.219	710.275
326.241	26.733	882.559	709.120
327.256	26.558	881.643	707.638
328.270	26.574	881.099	707.204
329.285	26.316	880.352	705.532
330.300	26.247	879.409	704.445
331.314	26.333	879.256	704.595
332.329	26.819	879.203	706.383
333.343	27.052	878.875	706.967
334.358	27.009	878.363	706.325
335.373	27.127	877.523	706.043
336.387	27.248	877.968	706.811
337.402	27.340	877.882	707.037
338.416	27.493	877.161	706.986
339.431	27.489	877.141	706.894
340.446	27.513	877.011	706.819
341.460	27.592	876.062	706.296
342.475	27.359	875.455	704.842
343.489	27.444	875.127	704.844
344.504	27.697	874.727	705.440
345.519	27.925	874.140	705.784
346.533	27.870	873.997	705.394
347.548	27.888	873.581	705.065
348.562	27.798	872.744	703.983
349.577	27.769	871.954	703.169
350.592	27.669	871.287	702.185
351.606	27.722	870.548	701.731
352.621	27.631	869.895	700.792
353.635	27.501	869.110	699.600
354.650	27.043	867.395	696.400
355.665	26.006	865.754	691.050
356.679	26.390	866.097	692.734
357.694	26.743	865.772	693.767
358.708	26.603	864.967	692.524
359.723	27.015	864.796	693.899
360.738	27.465	864.114	695.008
361.752	27.477	864.085	694.968
362.767	27.776	864.052	696.023
363.781	28.096	863.375	696.633
364.796	28.094	863.156	696.388
365.810	28.093	862.851	696.078
366.825	28.107	862.578	695.850
367.840	27.794	861.623	693.826
368.854	27.373	860.795	691.498
369.869	27.393	860.202	691.039
370.883	27.452	859.657	690.761
371.898	27.444	859.015	690.156
372.913	27.562	858.601	690.209
373.927	27.728	858.207	690.458
374.942	27.755	858.138	690.445
375.956	27.797	857.745	690.225
376.971	28.083	857.249	690.847
377.986	28.244	856.473	690.768
379.000	28.133	856.180	690.052
380.015	27.807	855.298	688.052
381.029	28.152	854.750	688.849
382.044	28.135	854.546	688.559
383.059	28.160	853.783	687.976
384.073	28.105	853.425	687.421
385.088	28.069	852.578	686.542
386.102	27.845	852.040	685.209
387.117	27.788	851.257	684.306
388.132	27.539	849.975	682.280
389.146	26.949	848.988	679.220
390.161	27.393	849.258	681.038
391.175	27.777	849.008	682.215
392.190	27.477	847.883	680.128
393.205	26.173	845.868	673.592
394.219	24.548	843.776	665.815
395.234	24.363	843.892	665.157
396.248	25.980	845.120	672.098
397.263	27.600	846.023	678.796
398.278	27.611	845.288	678.185
399.292	27.437	844.535	676.877
400.307	27.400	844.434	676.599
401.321	27.482	843.977	676.475
402.336	27.864	843.887	677.763
403.350	28.309	843.982	679.430
404.365	28.583	843.641	680.109
405.380	28.866	843.342	680.860
406.394	28.871	842.457	680.101
407.409	28.864	841.951	679.606
408.423	28.691	842.055	678.991
409.438	28.728	841.582	678.687
410.453	28.999	840.768	678.971
411.467	28.776	840.531	677.896
412.482	28.996	839.696	677.973
413.496	28.886	839.799	677.593
414.511	28.746	839.453	676.738
415.526	28.887	838.842	676.703
416.540	28.586	838.005	674.860
417.555	28.490	837.170	673.775
418.569	28.584	837.142	674.039
419.584	28.319	836.587	672.562
420.599	28.243	835.863	671.638
421.613	97.165	1271.329	1387.712
422.628	84.219	1334.787	1387.824
