DTS Sentinel unit serial number:	SN413079Multiplexer serial number:	ORYXHardware model number:	OX4-SRSoftware version number:	ORYX F/W v4.00 Oryx Data Collector v3.7.2.0data status	okinstallation	princeton_trtdifferential loss correction	single-endedforward channel	channel 1reverse channel	N/Adate	2019/09/18time	09:26:35forward acquisition time	60.00reverse acquisition time	0.00gamma	496.2192k internal	0.2336k external	0.2336temperature offset calibration	0.9970default loss term (dB/km)	0.3790temperature slope calibration	1.0000multiplexer offset coefficient	1.0000multiplexer slope coefficient	1.0000fibre end	0.00T internal ref (°C)	26.22T ext. ref 1 (°C)	0.27T ext. ref 2 (°C)	23.40length (m)	temperature (°C)	Stokes	anti-Stokes-747.200	247.965	-0.129	0.218
-746.185	-200.000	0.007	0.180
-745.171	11.934	0.181	0.140
-744.156	-87.835	-0.394	0.119
-743.142	800.000	0.100	0.286
-742.127	-118.617	-0.161	-0.029
-741.112	-138.401	0.520	-0.058
-740.098	-132.852	-0.097	0.012
-739.083	-38.194	-0.128	-0.068
-738.069	-10.305	-0.254	0.169
-737.054	-89.538	0.172	-0.051
-736.039	18.341	-0.258	0.206
-735.025	-90.041	0.195	-0.057
-734.010	-55.227	-0.517	-0.233
-732.996	83.980	0.108	-0.118
-731.981	14.193	-0.033	0.026
-730.966	-200.000	-0.011	-0.179
-729.952	-200.000	-0.032	-0.192
-728.937	-73.874	-0.241	-0.088
-727.923	-200.000	0.023	-0.199
-726.908	-76.877	0.297	-0.104
-725.894	-93.785	-0.207	-0.057
-724.879	63.488	0.084	-0.085
-723.864	-102.003	-0.148	-0.036
-722.850	43.210	0.135	-0.123
-721.835	-200.000	-0.008	0.050
-720.821	-17.216	-0.222	0.141
-719.806	-146.900	-0.528	-0.046
-718.791	116.664	0.053	-0.065
-717.777	191.480	-0.125	-0.188
-716.762	-149.881	0.183	-0.014
-715.748	93.000	0.082	0.093
-714.733	800.000	-0.088	0.361
-713.718	-50.174	-0.181	0.086
-712.704	-200.000	0.053	-0.273
-711.689	5.151	-0.240	-0.178
-710.675	-128.116	0.135	-0.019
-709.660	530.407	0.188	0.446
-708.645	198.389	0.158	0.243
-707.631	428.110	-0.144	-0.312
-706.616	-108.315	-0.452	-0.098
-705.602	-0.799	0.064	0.045
-704.587	-34.615	-0.125	0.068
-703.572	-44.068	0.469	-0.236
-702.558	-118.362	-0.162	-0.029
-701.543	-92.179	0.047	0.013
-700.529	-200.000	0.003	-0.361
-699.514	-70.894	-0.309	0.117
-698.499	-87.553	0.235	-0.071
-697.485	49.370	-0.093	0.088
-696.470	-72.246	0.034	0.013
-695.456	153.284	-0.041	-0.057
-694.441	-132.082	-0.297	-0.039
-693.426	51.273	-0.197	-0.187
-692.412	-108.965	0.308	-0.066
-691.397	212.821	0.100	-0.159
-690.383	42.374	-0.425	-0.388
-689.368	-31.188	0.224	-0.127
-688.354	-200.000	-0.033	-0.220
-687.339	3.490	0.205	-0.150
-686.324	-200.000	-0.052	-0.306
-685.310	-176.828	0.212	0.005
-684.295	172.809	0.016	0.024
-683.281	351.307	-0.111	0.221
-682.266	-200.000	0.003	-0.279
-681.251	-55.329	0.078	0.035
-680.237	800.000	-0.022	0.065
-679.222	-200.000	-0.045	0.360
-678.208	44.837	0.314	-0.290
-677.193	-1.656	-0.112	-0.079
-676.178	-13.306	0.053	0.034
-675.164	-66.613	0.225	0.089
-674.149	60.458	-0.308	-0.305
-673.135	321.322	-0.168	0.319
-672.120	496.510	-0.153	-0.352
-671.105	101.162	-0.232	0.270
-670.091	-67.675	-0.203	-0.080
-669.076	800.000	-0.056	-0.166
-668.062	-140.371	0.182	-0.019
-667.047	108.691	0.106	0.127
-666.032	800.000	-0.067	0.227
-665.018	-81.006	0.179	-0.059
-664.003	-200.000	-0.040	0.190
-662.989	-200.000	0.010	-0.135
-661.974	-81.901	0.118	0.039
-660.959	-110.875	0.207	0.043
-659.945	410.731	-0.098	-0.209
-658.930	-137.313	-0.170	0.019
-657.916	90.053	-0.162	0.182
-656.901	800.000	-0.013	-0.050
-655.886	-200.000	0.033	-0.271
-654.872	359.543	0.113	-0.226
-653.857	800.000	0.018	0.056
-652.843	165.168	0.138	-0.195
-651.828	20.906	0.149	-0.121
-650.814	800.000	0.037	-0.114
-649.799	-48.655	0.248	-0.119
-648.784	296.892	-0.046	-0.085
-647.770	425.895	0.098	0.212
-646.755	-96.416	-0.307	0.081
-645.741	161.999	-0.208	0.291
-644.726	-200.000	0.000	-0.144
-643.711	583.283	0.094	0.230
-642.697	371.523	0.015	0.031
-641.682	800.000	0.095	-0.373
-640.668	4.360	0.270	0.198
-639.653	-93.111	0.113	0.031
-638.638	-8.524	0.238	0.160
-637.624	28.115	0.211	-0.178
-636.609	34.317	-0.136	0.119
-635.595	-6.769	-0.151	-0.103
-634.580	800.000	0.139	-0.390
-633.565	-200.000	-0.031	0.244
-632.551	-133.467	-0.339	-0.043
-631.536	-100.143	-0.094	0.023
-630.522	800.000	-0.116	0.323
-629.507	111.364	0.207	-0.250
-628.492	-89.834	0.219	-0.064
-627.478	-102.600	0.422	0.101
-626.463	-48.117	0.071	0.035
-625.449	-9.925	-0.120	0.080
-624.434	14.247	-0.157	0.122
-623.419	-200.000	-0.081	0.366
-622.405	243.868	-0.172	0.288
-621.390	-74.894	0.486	-0.174
-620.376	68.043	0.099	0.101
-619.361	-4.152	-0.126	0.087
-618.346	-200.000	-0.099	0.502
-617.332	-140.257	0.111	0.012
-616.317	-57.079	-0.246	-0.108
-615.303	-200.000	0.007	-0.107
-614.288	-200.000	-0.017	-0.184
-613.273	800.000	0.020	-0.064
-612.259	306.633	0.070	-0.130
-611.244	42.683	-0.356	0.324
-610.230	106.203	-0.141	-0.167
-609.215	-113.889	-0.126	0.024
-608.201	184.109	0.219	-0.324
-607.186	-37.090	-0.045	0.024
-606.171	-104.888	0.235	0.054
-605.157	-200.000	0.074	-0.465
-604.142	-200.000	-0.015	0.163
-603.128	151.184	0.054	-0.073
-602.113	-200.000	-0.245	0.001
-601.098	-73.712	0.396	-0.144
-600.084	-175.535	-0.195	-0.005
-599.069	-4.786	0.288	0.198
-598.055	-84.352	-0.119	0.038
-597.040	409.998	-0.108	0.229
-596.025	30.046	-0.166	0.141
-595.011	-200.000	0.014	0.072
-593.996	-200.000	0.087	0.000
-592.982	117.239	0.146	0.180
-591.967	34.430	0.136	-0.118
-590.952	-132.446	-0.325	0.042
-589.938	-64.961	0.288	0.116
-588.923	-11.162	0.129	-0.085
-587.909	-195.526	0.277	-0.002
-586.894	-200.000	0.012	-0.314
-585.879	1.473	-0.250	-0.179
-584.865	708.610	-0.070	-0.185
-583.850	52.180	-0.241	0.229
-582.836	-105.725	-0.174	-0.039
-581.821	-65.139	0.314	0.126
-580.806	467.466	0.206	0.460
-579.792	-39.596	-0.289	-0.151
-578.777	800.000	-0.058	0.237
-577.763	-114.230	0.146	0.028
-576.748	11.831	-0.059	0.045
-575.733	742.204	-0.074	0.200
-574.719	-200.000	-0.015	0.227
-573.704	800.000	0.084	-0.301
-572.690	431.723	0.013	-0.028
-571.675	469.699	0.080	-0.180
-570.661	-200.000	0.010	0.183
-569.646	-14.881	-0.107	-0.069
-568.631	-132.051	0.103	0.013
-567.617	101.150	0.099	-0.115
-566.602	-67.239	0.235	0.092
-565.588	71.658	-0.203	-0.210
-564.573	517.871	-0.057	0.133
-563.558	233.012	-0.072	-0.118
-562.544	623.260	0.165	-0.414
-561.529	800.000	-0.025	-0.068
-560.515	306.442	0.030	-0.055
-559.500	263.465	-0.100	-0.174
-558.485	277.287	0.025	0.044
-557.471	800.000	0.071	0.300
-556.456	55.821	-0.120	0.116
-555.442	44.949	0.206	-0.189
-554.427	-200.000	0.020	-0.269
-553.412	386.049	-0.187	-0.385
-552.398	-20.414	0.085	-0.052
-551.383	181.367	0.179	0.262
-550.369	140.084	-0.085	0.111
-549.354	-24.211	-0.119	0.071
-548.339	-164.312	-0.354	0.016
-547.325	-94.637	-0.163	0.044
-546.310	123.304	0.059	0.073
-545.296	-156.743	0.332	-0.020
-544.281	-17.634	0.263	-0.165
-543.266	-73.659	0.174	0.063
-542.252	-200.000	0.023	0.322
-541.237	61.437	-0.199	-0.198
-540.223	-74.280	-0.191	0.069
-539.208	800.000	-0.038	-0.122
-538.193	130.030	-0.159	-0.202
-537.179	572.182	-0.135	-0.327
-536.164	-200.000	-0.016	-0.137
-535.150	-82.639	0.099	-0.032
-534.135	-112.911	-0.125	-0.025
-533.121	-105.974	0.318	-0.071
-532.106	142.616	-0.172	0.227
-531.091	-138.455	-0.102	-0.011
-530.077	-43.910	0.164	0.082
-529.062	-103.176	0.355	-0.084
-528.048	-200.000	-0.015	-0.227
-527.033	800.000	-0.098	0.425
-526.018	608.607	-0.112	-0.279
-525.004	31.169	0.088	-0.075
-523.989	-159.341	0.122	-0.007
-522.975	-200.000	0.049	0.261
-521.960	-200.000	0.003	0.196
-520.945	123.904	-0.131	0.164
-519.931	-200.000	-0.019	-0.259
-518.916	-107.601	0.081	0.018
-517.902	800.000	0.112	-0.328
-516.887	666.306	0.037	-0.094
-515.872	-200.000	0.032	0.345
-514.858	-9.158	0.074	-0.049
-513.843	-181.219	0.158	0.003
-512.829	17.520	0.092	0.073
-511.814	270.173	0.162	0.284
-510.799	463.110	0.055	0.123
-509.785	-29.471	0.120	-0.068
-508.770	-129.193	-0.150	-0.021
-507.756	-200.000	-0.019	0.262
-506.741	800.000	-0.044	0.160
-505.726	800.000	-0.025	0.088
-504.712	-0.989	0.149	-0.105
-503.697	101.547	0.038	-0.044
-502.683	311.038	-0.124	-0.231
-501.668	-59.690	-0.167	-0.071
-500.653	-160.603	-0.284	0.015
-499.639	116.618	-0.112	0.136
-498.624	-111.784	-0.278	-0.056
-497.610	-200.000	0.001	0.188
-496.595	800.000	-0.071	-0.267
-495.581	179.987	0.279	0.406
-494.566	247.431	-0.175	0.294
-493.551	350.455	-0.018	0.036
-492.537	32.856	0.069	0.060
-491.522	-200.000	0.003	0.042
-490.508	30.463	0.261	0.222
-489.493	43.109	0.264	0.240
-488.478	-36.659	-0.036	0.019
-487.464	137.440	-0.092	-0.119
-486.449	107.282	-0.112	-0.133
-485.435	-78.600	0.126	-0.043
-484.420	-11.086	-0.178	-0.117
-483.405	-118.979	-0.400	-0.070
-482.391	-88.921	-0.288	-0.085
-481.376	-47.769	0.152	-0.073
-480.362	593.705	-0.044	-0.108
-479.347	-141.323	0.085	0.009
-478.332	-195.743	0.158	-0.001
-477.318	-168.861	-0.318	0.012
-476.303	141.202	0.160	0.210
-475.289	-146.806	0.137	0.012
-474.274	23.314	0.163	-0.133
-473.259	49.368	-0.037	-0.034
-472.245	800.000	0.045	0.191
-471.230	-7.032	-0.111	0.075
-470.216	532.757	-0.153	-0.360
-469.201	-121.844	0.182	-0.030
-468.186	56.336	-0.266	0.257
-467.172	-168.705	-0.280	-0.011
-466.157	-95.102	-0.160	0.043
-465.143	497.432	0.024	0.056
-464.128	-87.231	0.044	0.013
-463.113	-200.000	-0.040	-0.206
-462.099	800.000	0.077	-0.249
-461.084	800.000	-0.073	0.206
-460.070	-200.000	0.005	-0.024
-459.055	621.511	0.090	-0.226
-458.040	-24.210	-0.151	0.089
-457.026	26.468	0.221	-0.184
-456.011	32.730	-0.092	-0.079
-454.997	0.588	0.182	0.130
-453.982	-131.229	0.092	-0.012
-452.968	-168.531	-0.368	-0.014
-451.953	457.419	0.086	0.189
-450.938	251.584	-0.084	0.143
-449.924	800.000	-0.138	0.585
-448.909	-128.493	-0.260	-0.037
-447.895	144.551	-0.280	-0.372
-446.880	114.811	-0.192	-0.233
-445.865	-93.740	-0.085	0.023
-444.851	800.000	-0.132	0.370
-443.836	-39.045	0.269	0.140
-442.822	-142.847	0.248	0.024
-441.807	-200.000	-0.011	0.047
-440.792	-94.171	-0.116	0.031
-439.778	412.640	-0.149	-0.315
-438.763	-200.000	-0.056	0.324
-437.749	-61.877	0.317	-0.132
-436.734	-104.090	-0.177	0.041
-435.719	171.660	-0.123	0.175
-434.705	-200.000	0.028	-0.202
-433.690	290.723	0.114	-0.205
-432.676	71.341	0.100	-0.103
-431.661	5.776	-0.210	0.154
-430.646	-200.000	0.001	-0.321
-429.632	-59.455	-0.115	0.049
-428.617	-183.477	-0.052	0.001
-427.603	800.000	-0.043	-0.129
-426.588	-200.000	0.007	0.169
-425.573	-51.804	-0.174	0.080
-424.559	800.000	-0.089	-0.372
-423.544	-60.343	-0.191	-0.081
-422.530	-200.000	-0.019	0.184
-421.515	800.000	0.113	0.335
-420.500	800.000	-0.046	0.162
-419.486	-16.533	-0.111	0.070
-418.471	220.494	0.130	-0.207
-417.457	-75.158	0.117	-0.041
-416.442	-48.950	-0.072	-0.034
-415.428	800.000	-0.020	-0.073
-414.413	-200.000	-0.032	0.206
-413.398	64.482	-0.234	-0.234
-412.384	-200.000	0.041	0.293
-411.369	-200.000	0.022	0.263
-410.355	-128.611	0.133	-0.019
-409.340	-200.000	-0.047	0.244
-408.325	4.745	0.415	0.302
-407.311	-92.460	-0.107	-0.030
-406.296	-200.000	0.030	0.370
-405.282	115.205	-0.196	-0.237
-404.267	72.356	-0.126	-0.130
-403.252	10.231	-0.161	0.122
-402.238	-140.395	-0.155	-0.016
-401.223	-200.000	0.028	-0.316
-400.209	800.000	-0.010	-0.039
-399.194	800.000	0.061	-0.193
-398.179	62.029	-0.285	-0.282
-397.165	581.698	0.113	0.275
-396.150	-125.871	0.319	-0.048
-395.136	142.073	-0.187	-0.245
-394.121	366.789	-0.044	-0.087
-393.106	800.000	0.133	0.417
-392.092	-200.000	-0.004	0.070
-391.077	-122.923	0.169	-0.027
-390.063	64.906	0.154	0.154
-389.048	-200.000	-0.002	-0.062
-388.033	-200.000	0.009	-0.083
-387.019	-77.745	-0.180	0.062
-386.004	-55.057	0.084	0.037
-384.990	127.520	0.133	0.168
-383.975	62.076	0.345	0.341
-382.960	-75.591	-0.252	0.089
-381.946	-125.225	0.163	-0.025
-380.931	800.000	-0.088	0.347
-379.917	-15.886	0.151	0.096
-378.902	800.000	-0.054	-0.165
-377.888	394.017	-0.136	-0.280
-376.873	-153.653	0.232	0.016
-375.858	-200.000	-0.028	0.186
-374.844	-110.194	0.162	-0.033
-373.829	30.681	-0.202	-0.171
-372.815	-86.545	0.317	-0.096
-371.800	282.415	-0.111	-0.196
-370.785	-122.554	-0.050	-0.008
-369.771	206.994	0.068	-0.104
-368.756	-70.402	0.259	-0.097
-367.742	-81.398	-0.138	-0.045
-366.727	23.382	-0.149	0.122
-365.712	-0.163	-0.172	-0.121
-364.698	30.112	0.159	-0.134
-363.683	184.990	-0.040	-0.059
-362.669	-105.839	0.244	0.054
-361.654	45.570	-0.250	-0.229
-360.639	-124.615	0.162	0.025
-359.625	58.819	-0.459	-0.446
-358.610	-72.519	0.004	-0.002
-357.596	-88.221	0.124	-0.037
-356.581	-170.417	0.087	0.003
-355.566	398.616	0.086	-0.178
-354.552	-70.598	-0.279	-0.105
-353.537	-76.301	0.217	0.076
-352.523	-12.943	0.085	-0.055
-351.508	-200.000	0.003	-0.110
-350.493	-200.000	-0.032	-0.342
-349.479	-166.715	0.384	-0.016
-348.464	-35.797	-0.112	0.060
-347.450	635.692	-0.086	0.215
-346.435	-200.000	0.006	-0.298
-345.420	-200.000	-0.014	-0.074
-344.406	145.371	-0.217	0.287
-343.391	342.004	0.065	0.125
-342.377	-200.000	0.036	-0.199
-341.362	-200.000	-0.011	0.063
-340.348	205.551	-0.170	-0.262
-339.333	194.087	0.130	-0.195
-338.318	-156.220	0.197	-0.012
-337.304	-112.455	0.335	-0.066
-336.289	-200.000	0.003	-0.037
-335.275	-77.076	0.300	0.104
-334.260	-99.719	0.241	0.060
-333.245	-165.199	-0.306	-0.013
-332.231	-195.034	-0.105	0.001
-331.216	-15.045	-0.137	-0.087
-330.202	60.559	-0.150	-0.146
-329.187	40.459	-0.128	-0.114
-328.172	104.524	-0.029	-0.034
-327.158	-81.733	0.244	0.079
-326.143	324.273	-0.171	-0.322
-325.129	144.089	-0.115	-0.152
-324.114	-181.366	-0.125	0.002
-323.099	-139.627	-0.248	0.026
-322.085	39.290	0.250	-0.221
-321.070	-200.000	-0.020	-0.191
-320.056	-200.000	0.034	0.159
-319.041	82.008	0.218	0.233
-318.026	-49.039	-0.085	0.040
-317.012	139.588	-0.093	-0.121
-315.997	800.000	0.127	-0.462
-314.983	-200.000	-0.001	-0.136
-313.968	800.000	-0.082	0.261
-312.953	-19.684	-0.239	0.146
-311.939	-117.620	0.113	0.020
-310.924	-38.072	-0.218	-0.114
-309.910	-149.215	-0.285	-0.023
-308.895	86.698	-0.025	0.027
-307.880	-200.000	-0.030	-0.137
-306.866	-49.305	0.200	-0.094
-305.851	-89.166	0.131	-0.038
-304.837	335.003	-0.089	-0.171
-303.822	-28.093	0.219	0.125
-302.807	118.270	0.268	-0.326
-301.793	800.000	0.056	-0.231
-300.778	-60.960	-0.320	0.134
-299.764	-94.099	0.184	-0.050
-298.749	259.082	-0.114	0.195
-297.735	-200.000	0.016	0.171
-296.720	-83.405	-0.097	-0.031
-295.705	-66.993	0.128	-0.050
-294.691	-197.514	0.144	-0.001
-293.676	197.880	-0.081	-0.122
-292.662	83.568	-0.162	-0.174
-291.647	-75.675	0.264	0.092
-290.632	-200.000	0.000	-0.152
-289.618	188.825	0.108	0.160
-288.603	-180.308	0.137	0.003
-287.589	-52.512	0.055	0.025
-286.574	-114.751	0.191	-0.036
-285.559	-200.000	-0.060	-0.384
-284.545	210.092	-0.066	-0.102
-283.530	-157.219	0.622	-0.037
-282.516	-177.459	-0.104	-0.003
-281.501	-200.000	-0.008	0.038
-280.486	274.254	0.103	-0.180
-279.472	-39.919	-0.267	-0.138
-278.457	-200.000	-0.004	-0.172
-277.443	-101.795	-0.504	0.120
-276.428	-12.484	0.102	0.066
-275.413	-200.000	-0.011	-0.301
-274.399	221.591	-0.078	-0.124
-273.384	731.144	0.040	0.107
-272.370	177.107	0.167	-0.240
-271.355	5.505	-0.229	0.166
-270.340	-46.791	0.067	0.032
-269.326	79.015	0.206	0.217
-268.311	421.614	-0.156	0.330
-267.297	-200.000	-0.017	0.389
-266.282	333.602	0.194	0.369
-265.267	-200.000	0.008	-0.192
-264.253	242.677	0.087	0.144
-263.238	7.598	-0.176	0.130
-262.224	45.859	0.133	-0.121
-261.209	205.499	0.250	-0.382
-260.195	-200.000	0.008	0.130
-259.180	705.154	0.098	0.256
-258.165	116.093	0.183	-0.221
-257.151	18.661	0.076	0.060
-256.136	-106.495	-0.068	-0.015
-255.122	-77.231	-0.221	-0.076
-254.107	-35.682	-0.137	0.073
-253.092	-200.000	-0.013	0.353
-252.078	-53.214	-0.236	0.107
-251.063	154.697	0.019	0.025
-250.049	1.919	0.281	-0.200
-249.034	-116.363	-0.296	0.054
-248.019	240.848	-0.056	-0.091
-247.005	-200.000	-0.057	0.253
-245.990	-200.000	-0.002	-0.072
-244.976	76.498	0.048	0.050
-243.961	482.259	-0.064	0.144
-242.946	-95.195	-0.174	-0.046
-241.932	800.000	0.074	-0.267
-240.917	54.853	0.282	0.268
-239.903	104.707	0.057	0.066
-238.888	50.868	0.225	-0.210
-237.873	-34.630	-0.101	0.055
-236.859	-126.685	-0.064	0.009
-235.844	-23.677	0.130	0.077
-234.830	31.479	-0.164	-0.139
-233.815	-114.060	-0.304	-0.058
-232.800	663.698	0.011	-0.027
-231.786	-143.340	0.096	-0.009
-230.771	-200.000	0.113	0.501
-229.757	46.175	0.049	-0.045
-228.742	177.349	0.178	-0.255
-227.727	-126.296	0.193	-0.028
-226.713	40.146	0.236	0.209
-225.698	153.492	-0.198	0.266
-224.684	-107.476	-0.111	0.024
-223.669	-22.082	0.162	0.097
-222.655	158.409	-0.079	0.108
-221.640	78.030	-0.413	0.434
-220.625	-55.844	0.027	0.012
-219.611	-173.257	-0.158	-0.005
-218.596	800.000	0.113	0.378
-217.582	-78.464	-0.376	0.127
-216.567	-96.440	0.271	0.070
-215.552	800.000	0.058	-0.230
-214.538	-200.000	0.027	-0.198
-213.523	-200.000	-0.041	0.179
-212.509	725.865	-0.061	-0.161
-211.494	-200.000	0.038	0.184
-210.479	735.189	-0.005	-0.013
-209.465	-53.833	-0.140	0.063
-208.450	-79.853	0.258	-0.085
-207.436	196.134	-0.158	-0.236
-206.421	-200.000	0.033	0.189
-205.406	88.982	0.171	-0.187
-204.392	257.317	0.085	0.143
-203.377	-156.160	-0.199	0.012
-202.363	734.364	-0.108	-0.283
-201.348	-22.563	0.161	0.096
-200.333	189.184	-0.176	0.259
-199.319	34.082	-0.111	-0.095
-198.304	-107.530	-0.219	0.047
-197.290	38.173	-0.214	-0.187
-196.275	-200.000	0.058	0.357
-195.260	-62.664	0.199	-0.081
-194.246	77.324	0.266	-0.278
-193.231	-88.175	-0.320	0.094
-192.217	-26.910	0.285	-0.163
-191.202	65.512	-0.060	0.060
-190.187	-82.878	-0.043	0.014
-189.173	-134.311	0.028	-0.003
-188.158	-8.057	-0.103	0.068
-187.144	-117.524	0.124	0.022
-186.129	-154.543	0.227	0.015
-185.114	-200.000	-0.008	-0.123
-184.100	199.954	-0.150	0.226
-183.085	800.000	0.030	-0.094
-182.071	440.390	0.090	0.192
-181.056	800.000	0.055	-0.162
-180.042	-200.000	-0.011	-0.200
-179.027	-200.000	-0.019	0.236
-178.012	132.442	-0.068	-0.086
-176.998	-200.000	0.008	-0.174
-175.983	800.000	0.001	-0.005
-174.969	18.510	-0.089	0.070
-173.954	-200.000	-0.230	0.001
-172.939	800.000	-0.087	-0.276
-171.925	12.446	0.241	-0.182
-170.910	-55.479	-0.123	0.054
-169.896	800.000	0.009	0.025
-168.881	129.282	-0.201	-0.251
-167.866	86.150	-0.251	-0.272
-166.852	-200.000	0.044	0.200
-165.837	800.000	0.177	0.482
-164.823	800.000	-0.032	-0.098
-163.808	-80.480	0.255	-0.084
-162.793	61.402	0.099	0.096
-161.779	15.631	0.179	0.138
-160.764	701.510	-0.044	-0.113
-159.750	81.061	-0.315	-0.334
-158.735	119.724	0.197	0.240
-157.720	300.488	-0.039	-0.070
-156.706	-107.503	-0.103	0.022
-155.691	362.556	0.083	-0.164
-154.677	-10.528	0.053	0.034
-153.662	-185.181	0.201	-0.003
-152.647	-146.673	0.072	0.006
-151.633	115.918	-0.170	0.204
-150.618	243.560	0.223	0.366
-149.604	-139.978	-0.177	-0.018
-148.589	800.000	0.059	0.189
-147.574	40.350	-0.270	0.238
-146.560	-200.000	0.034	-0.280
-145.545	-85.452	0.100	0.031
-144.531	221.116	-0.129	0.203
-143.516	164.093	-0.197	-0.272
-142.502	-142.685	0.284	-0.027
-141.487	-17.047	0.168	-0.104
-140.472	452.334	-0.111	0.240
-139.458	-10.186	0.200	-0.130
-138.443	-200.000	0.002	-0.037
-137.429	49.256	-0.180	0.166
-136.414	-37.290	-0.303	-0.159
-135.399	-44.438	-0.131	0.065
-134.385	-23.104	0.176	0.104
-133.370	-70.456	0.189	0.070
-132.356	800.000	-0.052	0.145
-131.341	350.070	0.085	-0.165
-130.326	268.750	-0.037	0.064
-129.312	-137.508	0.450	0.050
-128.297	-179.948	-0.185	0.004
-127.283	-109.451	0.222	0.046
-126.268	172.910	0.206	-0.290
-125.253	474.245	-0.068	-0.150
-124.239	-87.309	-0.209	-0.062
-123.224	370.287	-0.125	0.249
-122.210	228.671	0.121	-0.194
-121.195	-60.576	-0.294	-0.122
-120.180	187.355	0.311	-0.455
-119.166	36.577	-0.050	0.043
-118.151	122.622	0.286	-0.351
-117.137	-94.370	0.254	0.068
-116.122	800.000	-0.022	-0.078
-115.107	-200.000	-0.056	-0.258
-114.093	-37.933	0.125	-0.065
-113.078	-79.128	-0.249	-0.083
-112.064	-200.000	0.000	-0.046
-111.049	128.991	0.188	-0.235
-110.034	-200.000	0.053	-0.408
-109.020	-200.000	0.036	0.327
-108.005	-173.183	0.342	0.010
-106.991	190.528	-0.153	-0.225
-105.976	-140.888	0.105	-0.011
-104.962	800.000	0.053	-0.180
-103.947	62.134	0.259	-0.253
-102.932	-114.778	0.072	0.013
-101.918	4.712	-0.109	-0.079
-100.903	-91.154	0.069	0.019
-99.889	19.889	-0.170	-0.134
-98.874	-90.461	0.150	-0.043
-97.859	58.626	0.271	-0.261
-96.845	318.374	0.115	-0.213
-95.830	151.014	0.086	0.114
-94.816	800.000	0.123	0.361
-93.801	-4.414	0.059	0.040
-92.786	75.817	-0.131	-0.135
-91.772	800.000	-0.150	0.412
-90.757	-152.189	0.238	-0.017
-89.743	-16.585	-0.221	-0.137
-88.728	380.376	-0.037	-0.074
-87.713	186.575	-0.179	0.261
-86.699	-35.946	0.100	0.053
-85.684	-200.000	-0.031	0.235
-84.670	-85.556	-0.165	-0.050
-83.655	271.796	-0.016	-0.028
-82.640	180.667	-0.088	-0.126
-81.626	378.400	0.069	-0.139
-80.611	-39.291	0.203	0.104
-79.597	-63.791	-0.512	-0.205
-78.582	-118.880	0.443	0.076
-77.567	800.000	0.113	-0.341
-76.553	-40.308	-0.115	0.058
-75.538	211.760	0.060	-0.093
-74.524	448.584	0.148	-0.320
-73.509	-200.000	0.051	-0.261
-72.494	800.000	-0.079	0.270
-71.480	173.740	0.263	0.371
-70.465	-3.011	0.121	-0.083
-69.451	84.910	0.348	-0.373
-68.436	253.037	-0.186	0.311
-67.422	-3.147	-0.152	-0.104
-66.407	269.190	-0.053	-0.091
-65.392	24.954	0.138	0.112
-64.378	800.000	0.095	-0.394
-63.363	-10.089	0.041	-0.027
-62.349	-145.178	0.136	0.012
-61.334	52.382	-0.996	-0.929
-60.319	-30.635	0.625	0.346
-59.305	-200.000	-0.231	-1.002
-58.290	149.449	0.891	1.180
-57.276	800.000	0.476	1.481
-56.261	-200.000	113.721	608.431
-55.246	435.096	1523.334	3238.688
-54.232	143.431	2710.783	3528.679
-53.217	100.395	2177.914	2471.394
-52.203	37.771	1607.842	1396.134
-51.188	29.378	1346.711	1118.693
-50.173	26.579	1307.071	1069.218
-49.159	52.761	1363.646	1274.130
-48.144	51.014	1377.250	1276.273
-47.130	29.746	1332.547	1108.961
-46.115	26.353	1314.655	1073.908
-45.100	26.180	1309.129	1068.330
-44.086	26.061	1307.107	1065.936
-43.071	25.984	1304.871	1063.617
-42.057	25.996	1302.816	1061.968
-41.042	26.131	1300.904	1061.163
-40.027	26.072	1299.821	1059.887
-39.013	26.050	1297.492	1057.817
-37.998	26.010	1295.997	1056.326
-36.984	26.165	1293.730	1055.339
-35.969	26.190	1292.592	1054.516
-34.954	26.292	1289.969	1052.931
-33.940	26.362	1288.541	1052.128
-32.925	26.319	1287.361	1050.873
-31.911	26.284	1285.911	1049.444
-30.896	26.286	1284.157	1047.985
-29.881	26.396	1282.715	1047.403
-28.867	26.389	1281.591	1046.405
-27.852	26.298	1280.500	1044.943
-26.838	26.315	1279.026	1043.798
-25.823	26.329	1277.839	1042.866
-24.809	26.273	1276.486	1041.399
-23.794	26.199	1275.121	1039.820
-22.779	26.333	1273.852	1039.514
-21.765	26.352	1272.784	1038.711
-20.750	26.327	1271.231	1037.260
-19.736	26.071	1270.200	1034.908
-18.721	26.181	1268.235	1033.893
-17.706	26.092	1267.789	1032.980
-16.692	26.140	1266.870	1032.469
-15.677	26.218	1265.545	1031.793
-14.663	26.213	1263.343	1029.926
-13.648	26.230	1262.675	1029.436
-12.633	26.125	1262.376	1028.552
-11.619	26.251	1261.232	1028.300
-10.604	26.212	1260.395	1027.354
-9.590	26.166	1259.354	1026.205
-8.575	26.133	1258.737	1025.473
-7.560	26.098	1257.746	1024.427
-6.546	26.121	1256.770	1023.722
-5.531	26.243	1255.568	1023.390
-4.517	26.193	1255.144	1022.725
-3.502	26.211	1254.262	1022.068
-2.487	26.158	1253.526	1021.124
-1.473	26.318	1249.196	1018.459
-0.458	25.162	1235.252	1000.607
0.556	20.761	1220.210	968.443
1.571	17.682	1228.243	957.464
2.586	16.989	1243.893	965.636
3.600	16.608	1231.477	953.768
4.615	12.019	1158.275	872.608
5.629	4.126	1083.815	776.985
6.644	0.556	1064.584	745.524
7.659	0.221	1062.642	742.449
8.673	0.146	1062.091	741.626
9.688	0.148	1060.827	740.688
10.702	0.398	1058.322	740.101
11.717	4.840	1064.381	766.164
12.731	12.345	1073.994	810.151
13.746	16.334	1078.257	833.010
14.761	16.732	1078.155	834.818
15.775	16.037	1076.730	830.221
16.790	15.133	1074.930	824.311
17.804	14.379	1073.326	819.300
18.819	14.037	1072.048	816.571
19.834	13.756	1071.143	814.432
20.848	13.706	1069.768	813.070
21.863	13.387	1069.322	811.093
22.877	13.260	1067.848	809.284
23.892	13.048	1068.015	808.301
24.907	13.127	1067.446	808.182
25.921	13.182	1066.397	807.587
26.936	13.147	1065.535	806.692
27.950	13.288	1064.601	806.601
28.965	13.397	1062.994	805.842
29.980	13.410	1061.907	805.012
30.994	13.466	1060.944	804.481
32.009	13.415	1060.407	803.757
33.023	13.481	1059.033	802.964
34.038	13.387	1058.005	801.656
35.053	13.410	1057.236	801.114
36.067	13.350	1056.931	800.525
37.082	13.362	1055.724	799.597
38.096	13.382	1054.641	798.800
39.111	13.278	1054.474	798.102
40.126	13.298	1053.335	797.265
41.140	13.157	1051.820	795.372
42.155	13.157	1050.782	794.515
43.169	13.107	1049.996	793.611
44.184	13.049	1048.885	792.420
45.199	13.200	1048.032	792.430
46.213	13.187	1046.875	791.425
47.228	13.224	1045.241	790.295
48.242	13.145	1044.607	789.371
49.257	13.305	1043.497	789.226
50.271	13.275	1042.673	788.388
51.286	13.312	1041.754	787.801
52.301	13.321	1040.994	787.198
53.315	13.395	1039.375	786.258
54.330	13.293	1039.022	785.434
55.344	13.270	1037.799	784.330
56.359	13.247	1037.069	783.601
57.374	13.142	1036.489	782.595
58.388	13.169	1035.726	782.079
59.403	13.152	1034.678	781.139
60.417	13.034	1033.961	779.969
61.432	13.015	1033.106	779.165
62.447	13.145	1032.300	779.102
63.461	13.136	1031.456	778.354
64.476	13.013	1030.925	777.307
65.490	13.036	1029.636	776.374
66.505	13.110	1029.191	776.319
67.520	13.046	1028.577	775.484
68.534	13.123	1027.732	775.140
69.549	13.152	1026.746	774.463
70.563	13.050	1026.218	773.519
71.578	12.999	1025.524	772.689
72.593	13.152	1024.403	772.493
73.607	13.046	1023.775	771.452
74.622	13.188	1022.645	771.196
75.636	13.028	1022.748	770.460
76.651	13.175	1021.596	770.210
77.666	13.041	1021.262	769.267
78.680	12.904	1020.706	768.138
79.695	13.166	1019.928	768.705
80.709	13.141	1018.939	767.776
81.724	13.094	1018.828	767.408
82.739	13.194	1017.492	766.795
83.753	13.282	1016.742	766.571
84.768	13.221	1016.078	765.718
85.782	13.506	1014.652	765.894
86.797	13.512	1013.972	765.344
87.812	13.219	1013.021	763.203
88.826	13.205	1012.105	762.384
89.841	13.239	1011.449	761.979
90.855	13.356	1010.203	761.510
91.870	13.345	1009.073	760.540
92.884	13.329	1008.804	760.197
93.899	13.378	1007.696	759.519
94.914	13.503	1006.882	759.410
95.928	13.315	1006.416	758.130
96.943	13.390	1005.252	757.531
97.957	13.350	1004.232	756.514
98.972	13.285	1003.630	755.694
99.987	13.400	1002.361	755.198
101.001	13.261	1001.777	754.059
102.016	13.365	1000.715	753.664
103.030	13.279	1000.186	752.807
104.045	13.344	999.289	752.363
105.060	13.290	998.231	751.254
106.074	13.307	997.231	750.511
107.089	13.201	996.319	749.278
108.103	13.296	995.067	748.698
109.118	13.155	994.374	747.473
110.133	13.284	993.335	747.210
111.147	13.306	992.542	746.645
112.162	13.328	991.558	745.942
113.176	13.198	991.189	745.008
114.191	13.285	990.349	744.705
115.206	13.350	989.284	744.131
116.220	13.298	988.887	743.533
117.235	13.192	987.790	742.163
118.249	13.346	986.606	741.903
119.264	13.281	986.185	741.228
120.279	13.249	985.620	740.592
121.293	13.351	984.145	739.878
122.308	13.062	984.123	738.501
123.322	13.307	982.312	738.172
124.337	13.310	981.463	737.479
125.352	13.287	980.625	736.685
126.366	13.312	979.284	735.725
127.381	13.335	978.329	735.044
128.395	13.333	977.582	734.405
129.410	13.375	976.527	733.737
130.424	13.348	975.898	733.077
131.439	13.345	975.152	732.439
132.454	13.401	974.169	731.884
133.468	13.364	973.415	731.092
134.483	13.412	972.461	730.523
135.497	13.284	971.874	729.452
136.512	13.446	970.674	729.200
137.527	13.250	970.299	727.991
138.541	13.330	969.190	727.447
139.556	13.306	968.972	727.110
140.570	13.572	967.990	727.477
141.585	13.498	966.739	726.148
142.600	13.557	965.848	725.672
143.614	13.560	964.990	724.977
144.629	13.575	964.268	724.436
145.643	13.475	963.544	723.392
146.658	13.522	962.530	722.775
147.673	13.422	961.672	721.630
148.687	13.516	960.614	721.181
149.702	13.342	960.248	720.084
150.716	13.300	959.280	719.111
151.731	13.399	958.329	718.767
152.746	13.425	957.717	718.356
153.760	13.538	957.161	718.363
154.775	13.444	956.779	717.606
155.789	13.593	955.877	717.514
156.804	13.549	955.485	716.966
157.819	13.636	954.392	716.458
158.833	13.740	953.640	716.278
159.848	13.721	952.700	715.428
160.862	13.604	951.740	714.140
161.877	13.645	950.746	713.506
162.892	13.541	949.972	712.416
163.906	13.611	948.968	711.902
164.921	13.617	948.118	711.224
165.935	13.714	947.258	710.934
166.950	13.631	946.637	710.046
167.964	13.651	945.542	709.251
168.979	13.617	944.753	708.451
169.994	13.631	943.703	707.658
171.008	13.663	942.960	707.177
172.023	13.769	942.699	707.371
173.037	13.844	941.332	706.600
174.052	13.771	940.524	705.623
175.067	13.725	940.259	705.162
176.081	13.657	939.648	704.355
177.096	13.501	939.725	703.686
178.110	13.656	938.614	703.450
179.125	13.853	937.888	703.680
180.140	13.663	937.488	702.511
181.154	13.648	936.983	702.007
182.169	13.858	936.447	702.432
183.183	13.966	935.795	702.336
184.198	13.916	935.169	701.596
185.213	13.885	933.956	700.492
186.227	13.846	933.412	699.859
187.242	13.921	933.153	699.919
188.256	13.897	932.743	699.448
189.271	13.931	931.772	698.800
190.286	13.883	930.744	697.766
191.300	13.707	930.449	696.742
192.315	13.704	929.796	696.181
193.329	13.713	929.390	695.852
194.344	13.899	928.297	695.752
195.359	13.928	927.477	695.195
196.373	14.010	926.892	695.040
197.388	13.993	926.930	694.936
198.402	14.081	926.007	694.550
199.417	14.044	925.359	693.846
200.432	14.039	924.930	693.442
201.446	14.107	924.420	693.286
202.461	14.066	924.057	692.780
203.475	14.218	923.309	692.793
204.490	14.187	922.560	692.037
205.504	14.182	921.555	691.203
206.519	14.069	920.973	690.236
207.534	14.125	920.391	689.969
208.548	14.206	919.275	689.409
209.563	14.137	919.045	688.891
210.577	14.286	918.074	688.716
211.592	14.323	917.318	688.241
212.607	14.295	916.493	687.448
213.621	14.308	915.746	686.880
214.636	14.235	915.248	686.145
215.650	14.348	914.519	686.002
216.665	14.369	914.149	685.748
217.680	14.285	913.761	685.052
218.694	14.332	912.510	684.245
219.709	14.415	911.879	684.055
220.723	14.482	911.403	683.910
221.738	14.372	910.635	682.822
222.753	14.368	910.423	682.587
223.767	14.555	909.308	682.458
224.782	14.472	908.950	681.787
225.796	14.616	908.501	681.980
226.811	14.536	907.707	680.998
227.826	14.612	906.754	680.531
228.840	14.502	906.270	679.658
229.855	14.357	905.730	678.604
230.869	14.420	904.737	678.058
231.884	14.507	904.126	677.891
232.899	14.515	903.238	677.198
233.913	14.391	903.392	676.751
234.928	14.419	902.415	676.072
235.942	14.544	901.480	675.818
236.957	14.535	900.650	675.100
237.972	14.603	900.240	675.009
238.986	14.575	899.688	674.421
240.001	14.480	898.857	673.355
241.015	14.549	898.686	673.447
242.030	14.461	898.210	672.676
243.045	14.546	897.119	672.141
244.059	14.656	896.553	672.102
245.074	14.581	895.834	671.198
246.088	14.735	895.054	671.174
247.103	14.691	894.525	670.542
248.117	14.763	894.040	670.406
249.132	14.954	893.080	670.395
250.147	14.886	893.035	670.031
251.161	14.939	892.060	669.451
252.176	14.994	891.377	669.097
253.190	14.768	891.007	667.858
254.205	14.935	890.342	667.967
255.220	14.925	889.465	667.211
256.234	15.066	889.004	667.367
257.249	15.078	888.071	666.656
258.263	14.995	887.752	666.026
259.278	14.990	886.824	665.254
260.293	15.074	886.373	665.188
261.307	15.112	885.946	664.960
262.322	15.126	885.216	664.411
263.336	15.097	884.199	663.473
264.351	15.192	883.268	663.092
265.366	15.183	882.905	662.725
266.380	15.207	882.321	662.323
267.395	15.027	882.003	661.315
268.409	15.192	881.019	661.170
269.424	15.257	880.145	660.712
270.439	15.236	879.747	660.270
271.453	15.213	878.732	659.361
272.468	15.177	878.239	658.791
273.482	15.164	878.180	658.637
274.497	15.237	877.555	658.398
275.512	15.296	876.771	657.980
276.526	15.263	876.287	657.431
277.541	15.224	876.208	657.160
278.555	15.375	875.334	657.039
279.570	15.306	874.654	656.200
280.585	15.354	874.007	655.842
281.599	15.328	872.962	654.899
282.614	15.359	872.010	654.248
283.628	15.393	871.770	654.141
284.643	15.529	871.264	654.236
285.657	15.439	870.540	653.284
286.672	15.537	869.773	653.032
287.687	15.526	869.098	652.426
288.701	15.614	868.329	652.132
289.716	15.470	868.507	651.646
290.730	15.422	868.159	651.144
291.745	15.599	866.931	650.848
292.760	15.662	866.209	650.492
293.774	15.637	865.977	650.165
294.789	15.697	864.932	649.554
295.803	15.705	864.178	648.963
296.818	15.559	863.661	647.953
297.833	15.658	862.992	647.775
298.847	15.610	862.347	647.048
299.862	15.643	861.486	646.474
300.876	15.732	861.304	646.623
301.891	15.657	860.814	645.907
302.906	15.798	859.876	645.689
303.920	15.720	859.531	645.072
304.935	15.819	858.950	644.959
305.949	15.765	858.232	644.154
306.964	16.031	857.438	644.521
307.979	15.878	857.044	643.583
308.993	15.957	856.885	643.708
310.008	15.772	855.917	642.220
311.022	15.927	855.214	642.225
312.037	15.803	854.900	641.457
313.052	15.750	854.666	641.027
314.066	15.866	853.627	640.631
315.081	15.915	853.372	640.570
316.095	15.965	852.568	640.100
317.110	15.921	851.907	639.378
318.125	15.896	851.582	638.983
319.139	15.801	851.426	638.449
320.154	15.978	850.530	638.391
321.168	15.921	850.160	637.841
322.183	15.923	849.532	637.323
323.197	15.986	848.877	637.012
324.212	16.017	848.485	636.777
325.227	15.893	848.052	635.929
326.241	15.895	847.566	635.514
327.256	16.018	846.792	635.343
328.270	16.055	845.758	634.651
329.285	16.027	845.443	634.254
330.300	16.063	844.681	633.762
331.314	16.099	844.290	633.545
332.329	16.072	843.796	633.019
333.343	16.120	843.828	633.165
334.358	16.063	843.114	632.360
335.373	16.122	842.387	631.982
336.387	16.168	842.311	632.040
337.402	16.027	842.559	631.641
338.416	16.243	841.785	631.814
339.431	16.326	841.240	631.661
340.446	16.246	841.156	631.241
341.460	16.143	840.959	630.652
342.475	16.261	840.351	630.582
343.489	16.423	839.778	630.700
344.504	16.412	839.267	630.222
345.519	16.436	838.437	629.631
346.533	16.344	838.241	629.084
347.548	16.342	837.745	628.649
348.562	16.360	837.087	628.167
349.577	16.287	836.726	627.568
350.592	16.357	835.548	626.890
351.606	16.412	835.361	626.897
352.621	16.280	834.616	625.795
353.635	16.490	833.940	626.011
354.650	16.526	832.844	625.267
355.665	16.426	832.751	624.769
356.679	16.519	832.299	624.719
357.694	16.540	831.412	624.077
358.708	16.531	830.573	623.357
359.723	16.579	830.064	623.097
360.738	16.525	829.623	622.513
361.752	16.549	829.009	622.083
362.767	16.602	828.488	621.832
363.781	16.798	827.659	621.876
364.796	16.562	827.942	621.168
365.810	16.690	827.242	621.058
366.825	16.758	826.995	621.066
367.840	16.694	826.374	620.310
368.854	16.814	825.720	620.201
369.869	16.661	825.443	619.380
370.883	16.793	824.784	619.313
371.898	16.890	824.414	619.334
372.913	16.854	824.306	619.067
373.927	16.952	823.660	618.887
374.942	16.890	823.147	618.218
375.956	17.042	822.712	618.390
376.971	17.022	822.218	617.893
377.986	17.014	821.831	617.518
379.000	16.965	821.366	616.935
380.015	16.989	820.631	616.417
381.029	16.944	820.437	616.051
382.044	17.136	819.626	616.086
383.059	17.103	819.086	615.505
384.073	16.994	818.434	614.565
385.088	17.077	817.896	614.408
386.102	17.003	817.686	613.928
387.117	17.061	817.185	613.707
388.132	17.123	816.821	613.604
389.146	16.971	816.342	612.640
390.161	17.280	815.147	612.804
391.175	17.093	814.678	611.725
392.190	17.107	814.381	611.499
393.205	17.213	813.928	611.483
394.219	17.047	813.752	610.700
395.234	17.178	813.237	610.731
396.248	17.035	812.916	609.922
397.263	17.059	812.382	609.552
398.278	17.086	812.089	609.379
399.292	17.065	811.622	608.899
400.307	17.188	811.043	608.850
401.321	17.156	810.471	608.251
402.336	17.187	809.905	607.883
403.350	17.168	809.647	607.569
404.365	17.314	809.137	607.655
405.380	17.313	808.408	607.050
406.394	17.220	808.486	606.724
407.409	17.320	807.816	606.521
408.423	17.425	807.735	606.784
409.438	17.449	807.126	606.357
410.453	17.443	806.501	605.812
411.467	17.491	806.537	605.955
412.482	17.509	805.417	605.124
413.496	17.432	805.363	604.756
414.511	17.576	805.252	605.133
415.526	17.471	804.838	604.395
416.540	17.509	804.150	603.959
417.555	17.596	803.738	603.904
418.569	17.536	803.283	603.296
419.584	17.561	802.839	602.999
420.599	17.561	802.323	602.557
421.613	112.137	1297.215	1481.119
422.628	96.655	1369.289	1481.218
