DTS Sentinel unit serial number:	SN413079Multiplexer serial number:	ORYXHardware model number:	OX4-SRSoftware version number:	ORYX F/W v4.00 Oryx Data Collector v3.7.2.0data status	okinstallation	princeton_trtdifferential loss correction	single-endedforward channel	channel 1reverse channel	N/Adate	2019/09/14time	17:14:35forward acquisition time	60.00reverse acquisition time	0.00gamma	496.2192k internal	0.2296k external	0.2296temperature offset calibration	1.0047default loss term (dB/km)	0.3790temperature slope calibration	1.0000multiplexer offset coefficient	1.0000multiplexer slope coefficient	1.0000fibre end	0.00T internal ref (°C)	37.92T ext. ref 1 (°C)	5.03T ext. ref 2 (°C)	32.80length (m)	temperature (°C)	Stokes	anti-Stokes-747.200	724.517	-0.071	0.192
-746.185	-29.500	-0.274	0.160
-745.171	800.000	0.068	-0.217
-744.156	303.572	0.054	0.103
-743.142	800.000	-0.071	0.235
-742.127	-135.456	-0.457	-0.056
-741.112	-131.940	-0.278	0.037
-740.098	127.046	0.192	0.248
-739.083	-200.000	-0.013	0.306
-738.069	152.648	-0.288	0.402
-737.054	-4.766	-0.232	-0.163
-736.039	-87.647	-0.428	0.132
-735.025	61.401	0.111	0.113
-734.010	-129.541	-0.115	-0.016
-732.996	-200.000	0.012	0.053
-731.981	-120.167	-0.281	0.049
-730.966	-162.189	-0.190	-0.010
-729.952	-62.590	0.192	-0.081
-728.937	6.636	-0.097	-0.074
-727.923	-200.000	0.042	-0.260
-726.908	-45.985	-0.238	0.120
-725.894	277.627	-0.233	-0.424
-724.879	220.392	-0.067	-0.110
-723.864	-146.620	-0.393	0.035
-722.850	-200.000	-0.004	0.262
-721.835	691.260	-0.112	-0.300
-720.821	61.806	0.042	0.043
-719.806	-153.515	0.257	-0.018
-718.791	-200.000	0.045	-0.290
-717.777	-100.224	0.260	-0.066
-716.762	-37.256	-0.105	-0.057
-715.748	-17.620	-0.077	0.050
-714.733	221.352	-0.138	0.226
-713.718	-123.187	-0.068	-0.011
-712.704	-31.223	-0.328	0.188
-711.689	-6.829	-0.213	-0.148
-710.675	-190.639	-0.292	0.003
-709.660	800.000	-0.130	0.419
-708.645	13.067	0.118	0.093
-707.631	530.569	0.100	-0.241
-706.616	-200.000	0.020	-0.167
-705.602	30.051	0.163	-0.142
-704.587	-50.122	0.211	0.102
-703.572	-48.515	-0.225	0.110
-702.558	-76.792	0.122	0.044
-701.543	-113.657	-0.213	-0.042
-700.529	287.630	0.269	0.496
-699.514	39.294	-0.193	0.176
-698.499	-125.635	-0.126	-0.020
-697.485	24.162	0.230	-0.194
-696.470	-65.264	-0.071	0.029
-695.456	800.000	0.015	-0.067
-694.441	-91.835	0.056	0.016
-693.426	0.814	-0.162	-0.119
-692.412	96.458	-0.085	0.099
-691.397	-86.135	-0.246	0.077
-690.383	-80.735	-0.212	0.072
-689.368	372.430	0.069	-0.143
-688.354	-159.302	-0.061	-0.003
-687.339	15.502	0.125	0.100
-686.324	-76.316	0.124	0.045
-685.310	-108.650	-0.135	0.029
-684.295	177.194	-0.113	-0.168
-683.281	-32.547	-0.093	0.053
-682.266	-66.458	0.294	0.119
-681.251	-182.577	-0.075	-0.001
-680.237	416.830	-0.024	-0.053
-679.222	-200.000	0.032	-0.167
-678.208	547.888	0.098	0.239
-677.193	-200.000	0.025	0.384
-676.178	-115.309	-0.191	-0.037
-675.164	-37.828	0.121	0.065
-674.149	800.000	-0.159	0.485
-673.135	166.461	0.148	-0.213
-672.120	30.795	-0.183	0.160
-671.105	30.684	-0.079	-0.069
-670.091	186.483	-0.084	0.127
-669.076	-107.292	0.137	0.031
-668.062	-58.590	-0.199	0.088
-667.047	-76.045	-0.213	-0.077
-666.032	178.760	0.182	-0.271
-665.018	121.412	-0.074	-0.094
-664.003	168.438	-0.071	-0.103
-662.989	60.093	-0.215	0.216
-661.974	800.000	0.013	0.039
-660.959	-33.043	0.059	0.033
-659.945	800.000	-0.006	0.019
-658.930	800.000	-0.127	0.438
-657.916	-145.873	-0.176	0.016
-656.901	-91.284	0.076	0.022
-655.886	169.292	-0.100	0.145
-654.872	226.505	-0.057	-0.094
-653.857	162.894	-0.128	0.183
-652.843	-147.105	-0.163	0.014
-651.828	-124.242	-0.291	0.046
-650.814	-136.486	-0.227	0.027
-649.799	484.944	0.112	0.259
-648.784	-165.273	-0.081	-0.004
-647.770	-39.521	0.314	-0.168
-646.755	-106.310	-0.017	0.004
-645.741	88.078	-0.164	-0.186
-644.726	-74.651	-0.417	-0.153
-643.711	6.689	-0.128	-0.097
-642.697	159.334	-0.282	-0.400
-641.682	800.000	-0.052	-0.151
-640.668	-193.927	0.008	0.000
-639.653	-143.667	0.138	-0.013
-638.638	-200.000	0.005	0.320
-637.624	-160.783	-0.288	0.016
-636.609	575.084	-0.071	0.177
-635.595	-97.415	0.211	0.056
-634.580	194.620	0.173	-0.266
-633.565	800.000	0.027	0.085
-632.551	26.838	-0.209	-0.178
-631.536	505.062	0.093	0.220
-630.522	183.395	-0.075	-0.113
-629.507	17.390	-0.225	-0.182
-628.492	-148.513	-0.160	-0.013
-627.478	-200.000	0.040	-0.219
-626.463	259.164	-0.130	0.229
-625.449	800.000	-0.047	-0.202
-624.434	171.487	-0.042	-0.061
-623.419	556.548	-0.041	0.102
-622.405	800.000	0.050	-0.184
-621.390	-200.000	0.026	0.176
-620.376	-113.727	0.478	-0.095
-619.361	139.048	0.103	-0.138
-618.346	-200.000	0.008	0.077
-617.332	-24.241	0.443	0.269
-616.317	-50.785	0.205	-0.098
-615.303	174.214	0.015	-0.022
-614.288	-150.825	0.205	-0.016
-613.273	119.834	0.077	-0.098
-612.259	-200.000	0.028	0.143
-611.244	20.730	-0.211	-0.174
-610.230	152.347	0.206	-0.286
-609.215	455.680	-0.111	-0.251
-608.201	85.793	-0.153	0.171
-607.186	-200.000	0.009	0.134
-606.171	-42.353	-0.203	-0.105
-605.157	-200.000	0.001	-0.182
-604.142	800.000	0.097	-0.305
-603.128	478.360	-0.074	-0.171
-602.113	800.000	-0.074	-0.210
-601.098	236.827	0.021	0.035
-600.084	330.595	-0.124	-0.242
-599.069	581.016	-0.028	0.070
-598.055	-52.254	-0.270	-0.127
-597.040	-135.482	-0.465	0.056
-596.025	14.470	-0.244	0.193
-595.011	-69.593	0.112	-0.044
-593.996	276.877	-0.117	0.211
-592.982	-127.559	0.363	0.054
-591.967	-64.040	0.410	0.170
-590.952	48.995	0.197	0.188
-589.938	-114.984	0.173	0.033
-588.923	-54.528	-0.140	0.064
-587.909	-26.991	-0.108	-0.064
-586.894	-58.992	-0.142	0.062
-585.879	800.000	-0.011	-0.048
-584.865	-200.000	-0.012	-0.248
-583.850	-141.179	0.280	-0.029
-582.836	103.969	0.188	0.224
-581.821	-200.000	-0.020	0.372
-580.806	-113.635	0.124	-0.025
-579.792	-111.194	0.058	0.012
-578.777	-156.610	-0.150	0.009
-577.763	31.835	0.187	-0.163
-576.748	198.278	-0.308	0.478
-575.733	170.086	0.147	-0.214
-574.719	548.556	-0.048	-0.118
-573.704	-200.000	0.047	0.292
-572.690	-40.669	-0.146	-0.077
-571.675	-114.056	-0.050	0.010
-570.661	177.136	-0.264	0.391
-569.646	-177.288	-0.340	-0.009
-568.631	800.000	0.061	-0.243
-567.617	-40.331	0.129	-0.068
-566.602	-200.000	-0.022	0.183
-565.588	180.237	0.062	0.092
-564.573	-41.012	-0.045	0.023
-563.558	-200.000	-0.022	0.123
-562.544	-86.387	0.413	0.129
-561.529	-147.848	0.122	0.010
-560.515	79.900	0.026	0.028
-559.500	800.000	0.060	-0.170
-558.485	-114.779	0.218	-0.042
-557.471	-59.052	0.088	-0.039
-556.456	-200.000	-0.014	-0.143
-555.442	651.508	-0.075	-0.196
-554.427	27.828	-0.289	0.247
-553.412	-90.351	0.066	-0.020
-552.398	574.747	0.153	-0.379
-551.383	50.212	0.103	-0.099
-550.369	800.000	-0.130	-0.450
-549.354	-57.902	0.131	-0.058
-548.339	800.000	-0.046	0.135
-547.325	-126.269	0.308	0.047
-546.310	-0.659	-0.169	-0.121
-545.296	-15.560	-0.205	-0.133
-544.281	146.263	0.134	-0.182
-543.266	669.861	-0.014	0.037
-542.252	6.209	-0.093	0.070
-541.237	-21.784	-0.059	-0.037
-540.223	-86.174	0.151	0.047
-539.208	800.000	-0.035	-0.120
-538.193	-118.509	-0.287	-0.052
-537.179	-48.609	0.091	0.044
-536.164	-67.921	-0.333	-0.132
-535.150	-171.691	0.367	-0.012
-534.135	-134.678	0.226	0.028
-533.121	74.911	-0.090	0.097
-532.106	-144.941	0.376	-0.035
-531.091	-107.462	0.220	-0.049
-530.077	800.000	-0.017	-0.053
-529.062	-200.000	-0.024	0.450
-528.048	-152.883	-0.349	-0.025
-527.033	40.783	-0.445	-0.407
-526.018	-113.099	0.063	-0.013
-525.004	610.480	0.105	0.265
-523.989	18.487	0.255	0.207
-522.975	-66.244	0.239	0.096
-521.960	-93.089	0.178	0.050
-520.945	-25.796	-0.256	-0.153
-519.931	-200.000	0.017	0.136
-518.916	18.268	0.231	-0.186
-517.902	-104.562	-0.051	-0.012
-516.887	-179.412	-0.383	-0.009
-515.872	-35.600	-0.131	-0.072
-514.858	-21.773	-0.167	0.103
-513.843	800.000	-0.096	0.305
-512.829	199.558	-0.066	-0.103
-511.814	-115.950	0.196	0.037
-510.799	-10.207	0.093	0.062
-509.785	-112.973	-0.423	-0.085
-508.770	-136.498	0.181	0.021
-507.756	332.728	-0.071	0.139
-506.741	-36.981	0.022	0.012
-505.726	54.754	0.296	-0.289
-504.712	170.798	-0.096	-0.139
-503.697	-113.090	-0.405	-0.081
-502.683	178.741	0.063	0.094
-501.668	-80.337	0.439	-0.148
-500.653	800.000	0.017	0.065
-499.639	758.286	-0.138	0.377
-498.624	9.247	-0.161	0.123
-497.610	-38.802	-0.208	0.111
-496.595	35.738	0.168	0.150
-495.581	-87.151	0.130	-0.040
-494.566	-93.243	-0.346	0.097
-493.551	176.589	0.075	0.110
-492.537	694.940	-0.036	0.096
-491.522	195.819	-0.141	-0.217
-490.508	800.000	-0.044	-0.157
-489.493	192.454	0.163	-0.249
-488.478	-47.744	-0.238	0.117
-487.464	-58.413	-0.102	-0.045
-486.449	409.412	0.048	-0.103
-485.435	-40.393	0.225	-0.119
-484.420	-200.000	0.000	0.036
-483.405	800.000	0.028	-0.095
-482.391	295.468	0.202	-0.375
-481.376	-141.726	0.303	-0.031
-480.362	124.194	0.063	-0.080
-479.347	165.123	-0.079	-0.112
-478.332	357.227	-0.075	-0.151
-477.318	-200.000	0.000	0.078
-476.303	324.006	-0.090	0.174
-475.289	379.274	0.054	0.113
-474.274	-16.717	0.191	0.122
-473.259	17.999	-0.122	-0.099
-472.245	-147.872	-0.179	-0.015
-471.230	-180.754	-0.076	-0.002
-470.216	668.898	0.041	0.107
-469.201	-4.647	0.076	-0.053
-468.186	-28.497	0.327	0.190
-467.172	-68.918	-0.154	0.060
-466.157	800.000	-0.025	0.082
-465.143	-200.000	-0.008	-0.148
-464.128	137.017	0.067	0.089
-463.113	-200.000	-0.217	-0.001
-462.099	-125.853	-0.142	0.022
-461.084	-200.000	-0.002	0.495
-460.070	-200.000	-0.002	-0.022
-459.055	-43.943	0.402	0.204
-458.040	346.441	-0.017	-0.035
-457.026	178.297	0.201	-0.296
-456.011	-127.451	0.343	-0.050
-454.997	132.960	0.141	0.184
-453.982	-59.683	0.285	0.123
-452.968	-115.004	0.397	-0.076
-451.953	-43.808	-0.236	0.120
-450.938	-76.249	0.082	0.029
-449.924	75.604	-0.029	-0.031
-448.909	-200.000	0.011	-0.119
-447.895	-18.947	0.251	-0.158
-446.880	-37.478	0.098	-0.053
-445.865	772.312	-0.056	0.156
-444.851	-200.000	-0.087	-0.441
-443.836	-200.000	-0.011	0.151
-442.822	-200.000	-0.070	0.313
-441.807	-84.559	0.185	-0.059
-440.792	-200.000	-0.029	0.271
-439.778	-200.000	-0.002	-0.077
-438.763	-128.012	0.030	-0.004
-437.749	-29.247	0.178	0.103
-436.734	-200.000	0.009	0.161
-435.719	296.415	-0.205	-0.380
-434.705	99.128	0.195	0.227
-433.690	205.730	0.203	0.319
-432.676	800.000	-0.072	0.249
-431.661	-98.798	0.138	0.035
-430.646	46.686	-0.270	0.253
-429.632	-125.612	0.178	0.027
-428.617	563.105	0.151	0.368
-427.603	-115.932	-0.067	-0.013
-426.588	368.658	-0.075	-0.153
-425.573	70.711	-0.047	-0.049
-424.559	-92.062	-0.191	-0.055
-423.544	-43.505	0.142	-0.073
-422.530	67.905	0.156	-0.161
-421.515	800.000	0.055	0.209
-420.500	-87.959	0.205	0.062
-419.486	196.587	-0.150	-0.231
-418.471	-27.871	-0.123	0.072
-417.457	15.735	-0.110	0.087
-416.442	-75.023	0.074	-0.027
-415.428	800.000	0.014	0.042
-414.413	800.000	-0.022	-0.085
-413.398	11.112	-0.268	-0.207
-412.384	41.095	0.077	-0.070
-411.369	32.196	-0.313	0.273
-410.355	33.265	-0.201	-0.176
-409.340	800.000	-0.027	-0.114
-408.325	220.367	-0.032	-0.051
-407.311	-79.573	-0.118	-0.040
-406.296	-196.941	0.124	0.001
-405.282	726.417	-0.058	0.156
-404.267	-84.389	-0.109	-0.035
-403.252	-21.840	-0.155	-0.095
-402.238	172.424	0.159	-0.230
-401.223	-47.908	-0.164	0.080
-400.209	800.000	-0.089	0.272
-399.194	723.174	-0.033	0.088
-398.179	-200.000	0.059	-0.280
-397.165	-38.801	-0.119	-0.063
-396.150	-5.610	0.233	-0.161
-395.136	-200.000	0.015	-0.156
-394.121	77.416	-0.027	-0.029
-393.106	-16.260	0.044	0.028
-392.092	0.868	-0.183	0.132
-391.077	-61.746	0.330	-0.139
-390.063	800.000	0.017	-0.070
-389.048	1.103	-0.284	0.206
-388.033	-200.000	-0.012	0.205
-387.019	-89.336	0.155	0.046
-386.004	-200.000	-0.084	0.000
-384.990	67.780	-0.178	-0.183
-383.975	800.000	-0.105	0.327
-382.960	-29.473	0.103	-0.059
-381.946	-118.008	-0.156	0.028
-380.931	6.773	-0.178	0.134
-379.917	-200.000	0.013	0.081
-378.902	-132.866	-0.280	0.036
-377.888	1.996	0.250	0.182
-376.873	-181.835	0.104	0.002
-375.858	220.628	0.165	-0.267
-374.844	44.758	-0.130	-0.120
-373.829	-200.000	0.000	-0.044
-372.815	117.287	0.323	-0.400
-371.800	677.656	-0.064	0.168
-370.785	-200.000	0.003	-0.113
-369.771	-200.000	-0.050	-0.264
-368.756	-103.837	0.169	0.040
-367.742	-200.000	-0.023	-0.554
-366.727	376.523	0.052	0.106
-365.712	244.571	-0.117	0.198
-364.698	223.611	-0.137	-0.223
-363.683	-28.144	0.084	0.049
-362.669	-103.924	-0.096	-0.022
-361.654	363.452	0.128	-0.259
-360.639	306.748	-0.095	0.179
-359.625	-62.699	-0.109	0.046
-358.610	-131.327	-0.043	-0.006
-357.596	215.480	0.101	-0.161
-356.581	19.363	0.275	-0.222
-355.566	-145.840	0.240	0.021
-354.552	-200.000	0.007	-0.125
-353.537	64.802	-0.134	0.136
-352.523	345.550	-0.121	0.239
-351.508	-115.886	0.383	-0.072
-350.493	241.229	-0.073	0.123
-349.479	-51.813	0.263	0.123
-348.464	-200.000	-0.022	0.176
-347.450	-124.580	0.152	0.024
-346.435	118.072	0.275	-0.341
-345.420	-200.000	0.005	-0.193
-344.406	76.793	0.241	0.257
-343.391	-200.000	-0.015	-0.365
-342.377	-147.256	-0.235	0.020
-341.362	-26.543	0.102	-0.060
-340.348	-33.801	-0.147	-0.081
-339.333	67.926	0.333	-0.343
-338.318	-21.013	0.232	0.143
-337.304	-100.175	0.065	-0.016
-336.289	2.343	-0.142	-0.103
-335.275	-15.891	-0.330	0.211
-334.260	800.000	0.051	0.176
-333.245	93.556	0.068	0.078
-332.231	-89.214	0.210	0.062
-331.216	-111.160	-0.146	0.030
-330.202	-161.397	-0.119	0.006
-329.187	-85.182	-0.403	0.127
-328.172	203.560	0.070	0.108
-327.158	199.319	0.066	0.102
-326.143	762.127	-0.110	0.300
-325.129	-87.733	-0.313	0.095
-324.114	-200.000	-0.039	0.191
-323.099	-164.495	-0.268	0.012
-322.085	-47.904	0.208	-0.101
-321.070	-15.681	-0.294	-0.188
-320.056	-200.000	0.054	0.369
-319.041	158.264	-0.070	0.098
-318.026	21.879	0.183	0.150
-317.012	70.984	0.024	-0.025
-315.997	-200.000	0.075	-0.452
-314.983	-27.137	0.136	0.080
-313.968	-97.604	-0.268	-0.070
-312.953	-94.645	0.245	-0.067
-311.939	-79.028	0.155	0.053
-310.924	800.000	0.031	-0.135
-309.910	294.874	0.126	0.232
-308.895	45.433	0.184	0.171
-307.880	-79.719	0.123	-0.042
-306.866	-77.025	0.200	0.070
-305.851	565.174	-0.091	0.221
-304.837	-51.802	0.135	-0.063
-303.822	-182.068	-0.106	0.002
-302.807	-65.389	-0.053	-0.021
-301.793	-137.615	-0.285	-0.032
-300.778	90.133	0.046	-0.051
-299.764	-14.868	-0.183	0.118
-298.749	-200.000	-0.427	0.002
-297.735	800.000	-0.007	0.024
-296.720	279.746	-0.019	-0.034
-295.705	-169.313	-0.327	0.012
-294.691	-58.221	0.096	0.042
-293.676	-200.000	0.003	0.129
-292.662	-5.222	-0.184	0.127
-291.647	-200.000	-0.004	-0.226
-290.632	-61.641	-0.237	-0.100
-289.618	-200.000	0.038	0.263
-288.603	-146.870	0.183	0.016
-287.589	333.808	-0.178	0.345
-286.574	-57.726	0.131	0.058
-285.559	-108.431	-0.033	0.007
-284.545	-122.187	0.251	-0.041
-283.530	-83.136	-0.305	-0.098
-282.516	-172.408	0.109	0.003
-281.501	-177.426	0.280	-0.007
-280.486	-92.622	-0.251	-0.071
-279.472	-200.000	0.020	-0.165
-278.457	147.289	-0.281	-0.380
-277.443	33.208	-0.062	-0.054
-276.428	560.363	-0.088	0.213
-275.413	-54.888	0.289	0.131
-274.399	64.095	-0.208	-0.210
-273.384	-74.941	-0.217	0.078
-272.370	274.274	0.131	-0.233
-271.355	-200.000	0.014	-0.190
-270.340	-133.609	-0.095	0.012
-269.326	14.142	-0.031	0.024
-268.311	-61.744	-0.228	-0.096
-267.297	-70.759	-0.301	-0.114
-266.282	283.928	0.189	-0.341
-265.267	800.000	-0.051	-0.152
-264.253	-167.156	-0.188	-0.008
-263.238	256.214	-0.152	-0.262
-262.224	800.000	0.069	0.288
-261.209	306.681	-0.091	-0.170
-260.195	-33.576	0.112	0.062
-259.180	-40.027	-0.190	0.099
-258.165	-144.092	0.219	0.021
-257.151	-153.854	0.176	0.012
-256.136	63.155	-0.072	-0.072
-255.122	-200.000	0.003	-0.229
-254.107	-200.000	0.019	-0.088
-253.092	582.202	0.073	-0.178
-252.078	800.000	-0.106	0.298
-251.063	800.000	0.177	0.622
-250.049	-200.000	-0.037	-0.247
-249.034	-69.998	-0.148	-0.056
-248.019	7.984	-0.229	0.172
-247.005	-153.765	0.394	-0.027
-245.990	-178.980	-0.043	-0.001
-244.976	224.068	0.092	0.149
-243.961	-45.112	0.124	0.062
-242.946	-200.000	0.005	-0.179
-241.932	-104.474	0.150	0.035
-240.917	-22.308	-0.183	-0.111
-239.903	109.634	0.074	-0.089
-238.888	-200.000	-0.052	0.246
-237.873	64.884	-0.132	0.133
-236.859	-56.828	0.158	0.070
-235.844	36.111	0.041	0.036
-234.830	-42.149	-0.070	0.036
-233.815	-142.224	0.046	-0.005
-232.800	-200.000	0.041	-0.573
-231.786	166.936	0.095	0.136
-230.771	14.305	0.137	0.107
-229.757	-183.170	-0.164	-0.003
-228.742	64.850	0.120	-0.122
-227.727	-28.345	0.069	0.040
-226.713	-31.921	-0.182	0.102
-225.698	800.000	0.041	-0.172
-224.684	-56.836	-0.194	0.086
-223.669	-19.594	0.169	0.105
-222.655	-167.875	-0.066	0.003
-221.640	640.750	-0.022	0.056
-220.625	800.000	0.093	0.274
-219.611	179.846	-0.087	-0.128
-218.596	-163.488	-0.295	-0.014
-217.582	-131.364	0.350	-0.046
-216.567	-46.389	0.393	-0.193
-215.552	-148.580	-0.235	0.019
-214.538	-53.142	-0.329	0.151
-213.523	-87.760	-0.077	0.023
-212.509	-135.657	0.307	0.036
-211.494	-115.951	0.148	-0.028
-210.479	417.703	-0.142	-0.304
-209.465	-21.247	-0.134	0.082
-208.450	786.048	0.075	-0.205
-207.436	243.284	0.151	-0.252
-206.421	-92.027	-0.354	-0.100
-205.406	-200.000	-0.081	0.431
-204.392	42.401	0.117	-0.107
-203.377	-121.115	-0.270	-0.045
-202.363	800.000	-0.021	-0.072
-201.348	-140.576	0.025	-0.003
-200.333	-81.169	-0.396	0.131
-199.319	765.339	0.021	0.057
-198.304	208.328	-0.224	0.350
-197.290	88.978	0.039	-0.043
-196.275	11.388	0.215	0.165
-195.260	-200.000	-0.060	0.373
-194.246	-130.915	-0.175	-0.023
-193.231	-33.931	0.150	-0.083
-192.217	800.000	-0.120	-0.468
-191.202	-200.000	0.007	-0.058
-190.187	800.000	0.075	0.241
-189.173	543.974	0.035	0.084
-188.158	-200.000	0.098	0.482
-187.144	54.239	-0.130	-0.125
-186.129	-200.000	-0.070	0.359
-185.114	368.271	0.162	0.327
-184.100	-90.774	0.239	0.069
-183.085	800.000	-0.100	-0.276
-182.071	800.000	-0.011	-0.044
-181.056	180.499	-0.016	0.023
-180.042	-186.443	0.337	0.005
-179.027	-200.000	0.057	0.285
-178.012	800.000	0.103	0.364
-176.998	-100.445	-0.306	0.076
-175.983	-71.399	0.094	0.035
-174.969	-11.669	0.301	-0.198
-173.954	-200.000	0.032	0.236
-172.939	-75.236	-0.047	-0.017
-171.925	-82.445	-0.186	0.060
-170.910	267.857	-0.037	0.066
-169.896	-194.801	0.448	-0.003
-168.881	-111.514	0.180	0.037
-167.866	-83.975	-0.111	-0.035
-166.852	71.346	-0.142	0.147
-165.837	13.191	0.232	-0.180
-164.823	-200.000	-0.022	-0.122
-163.808	-200.000	0.007	-0.252
-162.793	-28.286	-0.331	-0.191
-161.779	-200.000	0.045	-0.219
-160.764	143.801	-0.147	0.196
-159.750	320.587	-0.137	-0.260
-158.735	116.436	-0.095	-0.117
-157.720	-200.000	0.024	-0.109
-156.706	467.269	-0.076	0.171
-155.691	-200.000	-0.024	-0.302
-154.677	-200.000	0.042	0.380
-153.662	41.050	0.088	0.079
-152.647	-78.354	-0.103	-0.035
-151.633	-137.270	0.291	0.033
-150.618	-9.700	0.415	-0.276
-149.604	-200.000	-0.044	-0.210
-148.589	45.579	0.140	-0.129
-147.574	358.295	0.084	0.168
-146.560	92.198	-0.067	0.075
-145.545	-142.638	-0.291	0.028
-144.531	2.352	-0.182	0.131
-143.516	28.654	-0.139	0.117
-142.502	36.916	0.129	0.114
-141.487	-200.000	0.046	0.209
-140.472	-200.000	0.017	0.280
-139.458	-113.943	0.113	0.022
-138.443	26.540	-0.006	0.005
-137.429	-110.067	0.114	0.024
-136.414	800.000	0.077	0.259
-135.399	-53.964	0.252	0.115
-134.385	224.382	-0.070	0.113
-133.370	27.825	0.113	-0.095
-132.356	178.244	-0.119	-0.173
-131.341	-75.769	-0.181	-0.064
-130.326	-173.137	0.458	-0.014
-129.312	-200.000	-0.001	0.218
-128.297	-150.237	-0.124	-0.010
-127.283	598.310	-0.074	-0.182
-126.268	29.576	0.093	-0.079
-125.253	800.000	0.072	-0.235
-124.239	-102.970	-0.059	-0.014
-123.224	-31.735	0.129	-0.072
-122.210	-51.718	0.033	-0.015
-121.195	-200.000	0.008	0.144
-120.180	-106.076	-0.059	-0.013
-119.166	-200.000	-0.017	0.165
-118.151	-170.872	-0.219	0.007
-117.137	453.249	-0.094	-0.209
-116.122	292.952	0.056	-0.103
-115.107	38.560	-0.190	0.169
-114.093	-200.000	-0.022	-0.291
-113.078	-200.000	-0.002	0.085
-112.064	97.655	-0.200	0.229
-111.049	-129.413	-0.067	-0.009
-110.034	-151.357	0.071	0.005
-109.020	800.000	-0.078	-0.254
-108.005	-168.645	0.265	0.010
-106.991	-86.165	0.220	0.067
-105.976	-7.783	-0.242	-0.163
-104.962	-34.501	0.285	-0.155
-103.947	-53.845	0.241	-0.109
-102.932	-65.922	0.282	-0.112
-101.918	800.000	-0.032	-0.110
-100.903	-93.083	-0.167	0.046
-99.889	254.542	0.143	0.244
-98.874	800.000	0.021	-0.063
-97.859	-35.179	-0.203	0.110
-96.845	-25.249	0.082	0.048
-95.830	26.239	-0.195	0.162
-94.816	110.445	-0.050	-0.059
-93.801	-200.000	0.050	-0.227
-92.786	-28.400	0.196	-0.113
-91.772	466.616	0.184	0.410
-90.757	-200.000	-0.023	0.120
-89.743	-164.189	-0.244	0.011
-88.728	70.663	-0.092	-0.095
-87.713	-8.809	0.296	0.198
-86.699	-113.158	-0.279	0.055
-85.684	800.000	-0.061	0.191
-84.670	-19.697	-0.292	0.180
-83.655	-68.533	0.149	0.058
-82.640	287.674	0.062	0.111
-81.626	141.971	0.081	-0.107
-80.611	800.000	-0.039	0.123
-79.597	-45.487	0.379	0.187
-78.582	318.114	-0.065	0.122
-77.567	51.059	-0.196	-0.185
-76.553	692.759	0.188	-0.492
-75.538	-110.110	-0.060	0.013
-74.524	-200.000	0.015	-0.145
-73.509	800.000	0.040	-0.126
-72.494	-200.000	0.016	0.078
-71.480	-104.603	-0.502	0.115
-70.465	536.171	-0.072	0.171
-69.451	369.064	0.096	0.194
-68.436	800.000	-0.073	-0.238
-67.422	526.019	0.201	0.471
-66.407	-200.000	0.006	0.059
-65.392	67.066	-0.306	-0.310
-64.378	-117.997	0.151	0.027
-63.363	-104.535	-0.266	0.061
-62.349	153.249	0.159	0.217
-61.334	20.616	-0.899	-0.724
-60.319	800.000	0.139	0.430
-59.305	-200.000	0.011	-0.730
-58.290	259.248	0.524	0.900
-57.276	435.472	0.580	1.255
-56.261	-200.000	86.370	494.701
-55.246	529.765	1384.221	3252.218
-54.232	183.753	2600.047	3825.401
-53.217	119.187	2216.648	2727.429
-52.203	48.634	1666.621	1553.966
-51.188	41.251	1397.659	1256.791
-50.173	37.977	1354.303	1197.700
-49.159	56.365	1397.119	1350.516
-48.144	61.467	1415.680	1400.185
-47.130	41.907	1373.167	1238.635
-46.115	38.030	1356.053	1199.381
-45.100	37.817	1351.425	1193.938
-44.086	37.854	1348.659	1191.669
-43.071	37.703	1346.148	1188.482
-42.057	37.667	1344.493	1186.755
-41.042	37.902	1342.119	1186.041
-40.027	37.851	1341.092	1184.780
-39.013	37.858	1338.869	1182.808
-37.998	37.788	1337.363	1181.007
-36.984	37.903	1335.129	1179.682
-35.969	37.998	1333.081	1178.399
-34.954	37.933	1331.901	1176.918
-33.940	37.949	1330.151	1175.423
-32.925	37.982	1329.166	1174.705
-31.911	38.055	1327.206	1173.366
-30.896	37.986	1326.022	1171.858
-29.881	38.072	1324.496	1170.974
-28.867	38.094	1323.551	1170.230
-27.852	38.062	1322.152	1168.754
-26.838	38.087	1320.274	1167.194
-25.823	38.028	1318.980	1165.651
-24.809	38.023	1317.945	1164.660
-23.794	38.019	1315.883	1162.768
-22.779	38.056	1314.656	1161.859
-21.765	38.031	1313.577	1160.713
-20.750	37.934	1312.310	1158.971
-19.736	38.018	1310.605	1157.913
-18.721	37.942	1309.306	1156.270
-17.706	37.877	1308.696	1155.302
-16.692	37.883	1307.638	1154.356
-15.677	37.896	1306.117	1153.044
-14.663	37.874	1304.730	1151.643
-13.648	37.888	1303.841	1150.898
-12.633	37.784	1302.960	1149.462
-11.619	37.784	1301.897	1148.480
-10.604	37.809	1301.003	1147.791
-9.590	37.815	1299.962	1146.862
-8.575	37.753	1299.168	1145.754
-7.560	37.776	1298.331	1145.101
-6.546	37.818	1297.350	1144.441
-5.531	37.802	1296.282	1143.358
-4.517	37.848	1295.350	1142.759
-3.502	37.879	1294.685	1142.313
-2.487	37.976	1293.108	1141.439
-1.473	37.938	1289.437	1137.933
-0.458	36.550	1274.140	1116.380
0.556	32.488	1254.027	1072.157
1.571	28.140	1257.217	1049.897
2.586	26.792	1271.264	1053.705
3.600	25.420	1259.520	1035.972
4.615	18.981	1184.372	939.040
5.629	9.575	1105.231	828.072
6.644	5.228	1082.578	789.100
7.659	4.851	1080.306	785.476
8.673	4.971	1079.444	785.381
9.688	5.050	1078.178	784.790
10.702	5.222	1076.416	784.300
11.717	10.299	1083.929	815.327
12.731	18.347	1095.578	864.821
13.746	20.590	1097.766	877.810
14.761	19.264	1095.175	868.979
15.775	18.254	1093.053	862.132
16.790	17.083	1090.682	854.296
17.804	16.372	1089.220	849.498
18.819	16.126	1087.822	847.097
19.834	15.836	1087.179	845.069
20.848	15.519	1086.306	842.722
21.863	15.396	1085.191	841.169
22.877	15.315	1084.689	840.301
23.892	15.251	1083.487	838.973
24.907	15.217	1083.413	838.672
25.921	15.288	1081.979	837.840
26.936	15.252	1080.522	836.462
27.950	15.266	1079.465	835.637
28.965	15.360	1077.732	834.689
29.980	15.532	1076.124	834.225
30.994	15.556	1075.093	833.469
32.009	15.463	1074.297	832.317
33.023	15.597	1072.881	831.809
34.038	15.459	1071.818	830.232
35.053	15.318	1071.586	829.282
36.067	15.363	1070.358	828.479
37.082	15.362	1069.786	827.957
38.096	15.466	1068.736	827.584
39.111	15.539	1068.224	827.474
40.126	15.396	1066.479	825.349
41.140	15.270	1065.565	823.950
42.155	15.079	1064.336	821.985
43.169	15.043	1063.275	820.919
44.184	15.101	1061.945	820.102
45.199	15.061	1061.186	819.247
46.213	15.183	1060.089	818.925
47.228	15.290	1059.147	818.649
48.242	15.397	1057.937	818.163
49.257	15.317	1056.840	816.853
50.271	15.484	1056.353	817.216
51.286	15.298	1055.465	815.551
52.301	15.311	1054.929	815.130
53.315	15.223	1053.548	813.564
54.330	15.355	1051.653	812.667
55.344	15.197	1051.293	811.552
56.359	15.276	1050.321	811.113
57.374	15.235	1049.778	810.422
58.388	15.196	1048.744	809.361
59.403	15.139	1047.992	808.435
60.417	15.119	1047.484	807.876
61.432	15.060	1046.568	806.812
62.447	14.996	1045.638	805.715
63.461	14.997	1045.128	805.258
64.476	15.090	1043.736	804.560
65.490	15.033	1043.130	803.750
66.505	15.153	1042.298	803.613
67.520	15.052	1041.601	802.518
68.534	15.101	1040.806	802.072
69.549	15.084	1040.191	801.443
70.563	15.056	1039.071	800.376
71.578	14.938	1038.351	799.190
72.593	14.787	1038.205	798.282
73.607	14.924	1037.300	798.169
74.622	14.991	1036.560	797.849
75.636	14.944	1036.019	797.141
76.651	15.023	1034.975	796.642
77.666	15.079	1034.111	796.174
78.680	15.083	1033.870	795.937
79.695	14.964	1033.374	794.918
80.709	15.140	1032.458	794.977
81.724	15.111	1031.718	794.199
82.739	15.153	1031.051	793.818
83.753	15.306	1030.187	793.805
84.768	15.431	1029.333	793.669
85.782	15.606	1028.727	793.958
86.797	15.623	1027.425	792.962
87.812	15.285	1026.900	790.893
88.826	15.278	1025.799	789.942
89.841	15.493	1025.059	790.316
90.855	15.496	1024.195	789.593
91.870	15.572	1023.006	788.964
92.884	15.418	1022.717	787.947
93.899	15.544	1021.559	787.576
94.914	15.581	1020.742	787.052
95.928	15.630	1019.995	786.633
96.943	15.498	1019.052	785.220
97.957	15.392	1018.176	783.980
98.972	15.505	1017.288	783.755
99.987	15.581	1016.237	783.230
101.001	15.594	1015.117	782.358
102.016	15.393	1014.724	781.049
103.030	15.461	1014.010	780.746
104.045	15.484	1013.127	780.105
105.060	15.426	1012.086	778.966
106.074	15.238	1011.121	777.281
107.089	15.193	1009.955	776.110
108.103	15.155	1008.949	775.090
109.118	15.135	1008.138	774.305
110.133	15.067	1007.058	773.094
111.147	15.097	1006.503	772.740
112.162	15.141	1005.477	772.084
113.176	15.157	1005.118	771.814
114.191	15.297	1004.130	771.634
115.206	15.256	1003.553	770.932
116.220	15.135	1002.788	769.719
117.235	15.189	1001.446	768.872
118.249	15.325	1000.268	768.520
119.264	15.203	999.747	767.496
120.279	15.121	998.855	766.365
121.293	15.226	997.879	766.031
122.308	15.067	997.045	764.598
123.322	15.122	996.102	764.058
124.337	14.950	995.686	762.882
125.352	15.058	994.224	762.186
126.366	14.986	993.269	761.061
127.381	15.075	992.148	760.542
128.395	15.108	990.725	759.532
129.410	15.187	989.653	758.998
130.424	15.205	989.554	758.938
131.439	15.329	988.537	758.654
132.454	15.292	988.011	758.015
133.468	15.408	987.111	757.782
134.483	15.271	986.339	756.504
135.497	15.335	985.669	756.211
136.512	15.316	984.612	755.246
137.527	15.522	983.675	755.388
138.541	15.333	983.367	754.235
139.556	15.353	982.664	753.721
140.570	15.475	981.949	753.654
141.585	15.596	980.870	753.300
142.600	15.535	980.516	752.690
143.614	15.605	979.277	751.982
144.629	15.697	978.576	751.791
145.643	15.573	977.503	750.345
146.658	15.543	976.525	749.393
147.673	15.439	975.388	747.990
148.687	15.379	974.399	746.900
149.702	15.331	973.783	746.149
150.716	15.388	972.574	745.410
151.731	15.394	971.771	744.756
152.746	15.444	971.515	744.714
153.760	15.293	971.157	743.705
154.775	15.588	970.187	744.203
155.789	15.649	969.534	743.907
156.804	15.585	968.808	743.001
157.819	15.530	968.274	742.282
158.833	15.678	967.920	742.598
159.848	15.784	966.386	741.823
160.862	15.746	965.757	741.107
161.877	15.542	964.748	739.369
162.892	15.436	963.550	737.922
163.906	15.406	962.751	737.112
164.921	15.394	962.006	736.423
165.935	15.531	960.841	736.066
166.950	15.571	959.903	735.456
167.964	15.500	959.143	734.499
168.979	15.478	958.346	733.730
169.994	15.550	957.633	733.433
171.008	15.467	957.243	732.704
172.023	15.638	956.172	732.565
173.037	15.737	955.403	732.342
174.052	15.658	954.406	731.170
175.067	15.630	953.627	730.387
176.081	15.482	953.297	729.426
177.096	15.499	952.716	728.993
178.110	15.647	951.873	728.922
179.125	15.585	951.109	728.007
180.140	15.550	951.000	727.708
181.154	15.651	950.496	727.694
182.169	15.689	950.059	727.460
183.183	15.752	949.079	726.918
184.198	15.783	948.649	726.659
185.213	15.793	947.820	726.002
186.227	15.878	946.764	725.493
187.242	15.967	946.198	725.381
188.256	16.001	945.682	725.067
189.271	15.960	944.984	724.289
190.286	15.804	944.005	722.804
191.300	15.445	943.373	720.717
192.315	15.360	942.509	719.629
193.329	15.488	942.023	719.744
194.344	15.548	941.504	719.538
195.359	15.717	940.557	719.475
196.373	15.752	940.142	719.243
197.388	15.989	939.908	720.014
198.402	16.040	939.230	719.648
199.417	16.034	938.899	719.305
200.432	16.143	938.235	719.199
201.446	16.096	937.761	718.571
202.461	16.324	937.213	719.061
203.475	16.231	936.630	718.153
204.490	15.992	935.690	716.350
205.504	15.976	934.863	715.588
206.519	15.824	934.430	714.547
207.534	15.860	933.600	714.003
208.548	15.914	933.036	713.735
209.563	15.987	932.117	713.281
210.577	15.977	931.363	712.595
211.592	16.223	930.327	712.780
212.607	16.313	929.874	712.752
213.621	16.164	928.961	711.360
214.636	16.199	928.381	711.000
215.650	16.204	927.819	710.526
216.665	16.105	927.119	709.513
217.680	16.224	926.747	709.663
218.694	16.307	925.655	709.114
219.709	16.367	925.127	708.899
220.723	16.392	924.379	708.368
221.738	16.295	923.803	707.457
222.753	16.190	923.529	706.746
223.767	16.269	923.154	706.726
224.782	16.404	922.043	706.380
225.796	16.414	921.623	706.034
226.811	16.430	920.562	705.225
227.826	16.326	919.745	704.104
228.840	16.366	919.056	703.683
229.855	16.368	918.167	702.948
230.869	16.361	917.469	702.321
231.884	16.414	916.705	701.894
232.899	16.345	916.249	701.197
233.913	16.127	915.861	699.934
234.928	16.139	914.913	699.196
235.942	16.324	914.119	699.293
236.957	16.270	913.609	698.618
237.972	16.187	912.985	697.736
238.986	16.202	912.638	697.471
240.001	16.347	911.325	697.003
241.015	16.341	911.063	696.719
242.030	16.242	910.772	696.024
243.045	16.491	910.141	696.507
244.059	16.424	909.503	695.682
245.074	16.504	908.835	695.439
246.088	16.564	907.756	694.799
247.103	16.587	907.369	694.532
248.117	16.635	907.227	694.562
249.132	16.808	906.677	694.786
250.147	16.878	905.821	694.359
251.161	17.016	905.251	694.422
252.176	16.871	904.737	693.375
253.190	16.945	904.355	693.324
254.205	17.027	903.445	692.901
255.220	17.012	902.853	692.323
256.234	17.049	901.824	691.622
257.249	17.010	901.618	691.244
258.263	16.913	900.719	690.101
259.278	17.047	899.858	689.925
260.293	17.136	899.083	689.632
261.307	17.066	899.316	689.465
262.322	17.087	898.401	688.786
263.336	17.087	897.548	688.072
264.351	17.218	896.618	687.827
265.366	17.217	896.179	687.427
266.380	17.142	895.312	686.398
267.395	17.022	895.005	685.617
268.409	17.079	893.911	684.946
269.424	17.085	893.397	684.518
270.439	17.121	892.202	683.685
271.453	17.100	891.227	682.793
272.468	16.989	891.586	682.562
273.482	16.988	890.691	681.813
274.497	16.967	890.250	681.331
275.512	16.959	889.954	681.012
276.526	17.005	889.474	680.767
277.541	17.136	888.666	680.617
278.555	17.248	888.067	680.543
279.570	17.224	887.572	680.009
280.585	17.298	886.598	679.499
281.599	17.292	885.587	678.638
282.614	17.238	884.716	677.695
283.628	17.185	884.700	677.414
284.643	17.318	883.829	677.218
285.657	17.292	883.037	676.446
286.672	17.150	882.898	675.713
287.687	17.278	882.125	675.572
288.701	17.282	881.662	675.172
289.716	17.242	881.013	674.459
290.730	17.307	880.398	674.184
291.745	17.408	879.661	673.961
292.760	17.283	879.133	673.001
293.774	17.538	878.513	673.476
294.789	17.408	878.015	672.520
295.803	17.346	877.052	671.479
296.818	17.443	876.086	671.062
297.833	17.513	875.363	670.724
298.847	17.409	874.967	669.952
299.862	17.595	874.225	670.059
300.876	17.607	873.859	669.763
301.891	17.654	873.381	669.524
302.906	17.674	873.292	669.476
303.920	17.654	872.614	668.816
304.935	17.721	872.002	668.550
305.949	17.734	871.376	668.065
306.964	17.634	870.793	667.167
307.979	17.622	870.152	666.570
308.993	17.753	869.561	666.569
310.008	17.850	868.926	666.404
311.022	17.702	868.477	665.421
312.037	17.575	867.785	664.337
313.052	17.622	866.940	663.816
314.066	17.477	866.702	663.010
315.081	17.587	866.100	662.916
316.095	17.630	865.223	662.356
317.110	17.496	865.011	661.614
318.125	17.546	864.437	661.311
319.139	17.595	863.865	661.005
320.154	17.661	863.281	660.757
321.168	17.622	862.766	660.150
322.183	17.651	862.386	659.915
323.197	17.694	861.607	659.427
324.212	17.725	861.290	659.247
325.227	17.650	860.850	658.559
326.241	17.622	859.949	657.703
327.256	17.723	859.625	657.787
328.270	17.718	858.858	657.124
329.285	17.666	858.202	656.362
330.300	17.780	857.472	656.186
331.314	17.727	857.039	655.590
332.329	17.658	857.053	655.282
333.343	17.723	856.271	654.874
334.358	17.851	855.851	654.987
335.373	18.056	855.292	655.285
336.387	17.913	855.340	654.716
337.402	17.880	855.080	654.334
338.416	18.077	854.422	654.525
339.431	18.198	854.064	654.657
340.446	18.190	853.663	654.260
341.460	18.210	853.396	654.075
342.475	18.316	853.016	654.132
343.489	18.111	852.775	653.107
344.504	18.334	851.923	653.247
345.519	18.354	851.382	652.849
346.533	18.353	850.557	652.155
347.548	18.287	849.839	651.297
348.562	18.221	849.372	650.630
349.577	17.973	849.246	649.534
350.592	18.009	848.210	648.820
351.606	18.115	847.252	648.432
352.621	18.147	846.515	647.932
353.635	18.071	846.157	647.311
354.650	18.126	845.673	647.093
355.665	18.168	845.348	646.946
356.679	18.454	844.121	647.027
357.694	18.191	844.035	645.912
358.708	18.390	843.207	645.974
359.723	18.252	842.489	644.846
360.738	18.334	841.822	644.585
361.752	18.390	840.906	644.037
362.767	18.495	840.760	644.264
363.781	18.600	840.232	644.196
364.796	18.517	840.080	643.711
365.810	18.713	839.757	644.142
366.825	18.610	839.368	643.401
367.840	18.600	838.674	642.776
368.854	18.635	838.158	642.454
369.869	18.649	837.558	641.990
370.883	18.481	837.242	641.064
371.898	18.596	837.174	641.382
372.913	18.605	837.037	641.257
373.927	18.690	836.141	640.831
374.942	18.649	835.471	640.108
375.956	18.696	835.041	639.895
376.971	18.850	834.646	640.111
377.986	18.833	834.015	639.505
379.000	18.743	834.209	639.263
380.015	18.868	833.120	638.836
381.029	18.908	832.257	638.267
382.044	19.043	831.786	638.350
383.059	18.822	831.620	637.347
384.073	18.870	831.073	637.050
385.088	18.733	830.083	635.725
386.102	18.731	829.514	635.228
387.117	18.610	829.419	634.651
388.132	18.799	828.373	634.491
389.146	18.831	827.973	634.248
390.161	18.780	827.482	633.627
391.175	18.956	826.681	633.607
392.190	19.011	826.080	633.292
393.205	18.890	825.807	632.582
394.219	18.879	825.761	632.451
395.234	18.670	825.470	631.403
396.248	18.596	824.730	630.510
397.263	18.658	824.295	630.346
398.278	18.692	824.115	630.279
399.292	18.567	823.817	629.536
400.307	18.638	823.146	629.227
401.321	18.619	822.481	628.595
402.336	18.931	821.450	628.895
403.350	18.823	821.436	628.430
404.365	18.973	821.173	628.723
405.380	19.064	820.618	628.576
406.394	18.996	820.441	628.133
407.409	19.130	819.681	627.985
408.423	19.063	819.566	627.600
409.438	19.226	819.350	627.971
410.453	19.260	818.569	627.441
411.467	19.272	818.265	627.196
412.482	19.253	818.040	626.899
413.496	19.348	817.207	626.550
414.511	19.325	817.155	626.372
415.526	19.507	816.269	626.299
416.540	19.325	816.252	625.569
417.555	19.336	815.723	625.150
418.569	19.330	815.399	624.825
419.584	19.377	814.730	624.425
420.599	19.382	814.461	624.183
421.613	151.667	1368.273	1778.179
422.628	131.849	1448.979	1778.287
