DTS Sentinel unit serial number:	SN413079Multiplexer serial number:	ORYXHardware model number:	OX4-SRSoftware version number:	ORYX F/W v4.00 Oryx Data Collector v3.7.2.0data status	okinstallation	princeton_trtdifferential loss correction	single-endedforward channel	channel 1reverse channel	N/Adate	2019/09/13time	04:30:35forward acquisition time	60.00reverse acquisition time	0.00gamma	496.2192k internal	0.2334k external	0.2334temperature offset calibration	1.0164default loss term (dB/km)	0.3790temperature slope calibration	1.0000multiplexer offset coefficient	1.0000multiplexer slope coefficient	1.0000fibre end	0.00T internal ref (°C)	26.69T ext. ref 1 (°C)	4.06T ext. ref 2 (°C)	21.21length (m)	temperature (°C)	Stokes	anti-Stokes-747.200	-86.477	0.324	0.100
-746.185	28.601	-0.196	0.166
-745.171	-200.000	0.034	0.219
-744.156	131.030	-0.193	0.249
-743.142	-159.238	-0.267	-0.015
-742.127	800.000	-0.059	0.222
-741.112	-200.000	-0.030	0.208
-740.098	264.394	-0.206	0.360
-739.083	-146.323	0.147	0.013
-738.069	289.190	0.107	0.196
-737.054	113.249	0.224	-0.273
-736.039	800.000	-0.089	0.336
-735.025	-14.178	-0.069	-0.045
-734.010	193.090	-0.166	-0.251
-732.996	-109.441	-0.098	-0.021
-731.981	800.000	0.037	0.124
-730.966	261.619	-0.139	-0.243
-729.952	-41.710	0.214	0.110
-728.937	33.686	-0.093	0.081
-727.923	270.883	-0.096	0.169
-726.908	-96.328	-0.036	-0.009
-725.894	-92.756	-0.322	0.091
-724.879	74.440	0.235	-0.248
-723.864	-200.000	0.040	0.181
-722.850	453.793	-0.108	0.241
-721.835	800.000	-0.003	-0.008
-720.821	92.544	-0.160	-0.181
-719.806	343.702	0.018	-0.035
-718.791	800.000	0.059	0.224
-717.777	800.000	0.018	0.076
-716.762	21.698	-0.380	0.310
-715.748	197.581	-0.147	-0.226
-714.733	-176.733	-0.303	0.008
-713.718	-89.420	0.173	-0.051
-712.704	-0.454	-0.182	-0.129
-711.689	522.833	0.086	-0.203
-710.675	-153.702	-0.276	0.019
-709.660	98.348	-0.070	0.082
-708.645	84.165	0.299	-0.328
-707.631	197.312	-0.114	-0.175
-706.616	-200.000	0.098	-0.504
-705.602	-117.811	-0.241	-0.043
-704.587	44.651	0.186	-0.172
-703.572	291.252	-0.099	-0.181
-702.558	-200.000	0.037	0.268
-701.543	800.000	0.097	-0.323
-700.529	-133.397	0.332	0.042
-699.514	800.000	-0.019	0.081
-698.499	83.910	-0.107	0.117
-697.485	-39.161	0.127	0.067
-696.470	-200.000	0.012	-0.126
-695.456	187.980	-0.060	-0.090
-694.441	-155.840	0.071	-0.005
-693.426	800.000	-0.089	0.293
-692.412	800.000	0.059	0.252
-691.397	-200.000	0.016	0.249
-690.383	-82.037	0.010	-0.003
-689.368	246.660	-0.181	-0.307
-688.354	81.844	0.036	0.039
-687.339	99.510	0.071	-0.082
-686.324	132.128	-0.117	0.152
-685.310	-5.390	0.115	0.079
-684.295	177.121	0.044	0.064
-683.281	-19.443	-0.345	0.215
-682.266	382.332	-0.068	0.141
-681.251	-200.000	-0.048	0.256
-680.237	-23.870	-0.112	-0.068
-679.222	140.475	0.228	-0.302
-678.208	291.286	0.082	0.150
-677.193	4.279	0.268	-0.197
-676.178	237.273	-0.256	-0.425
-675.164	-81.790	0.231	-0.076
-674.149	800.000	0.055	-0.153
-673.135	-200.000	0.073	-0.348
-672.120	-84.222	0.094	0.030
-671.105	607.890	0.126	-0.316
-670.091	163.876	-0.050	-0.070
-669.076	-40.702	-0.181	0.094
-668.062	-200.000	-0.014	0.081
-667.047	219.327	-0.201	0.322
-666.032	781.147	0.056	0.155
-665.018	-111.263	0.227	0.046
-664.003	307.373	0.140	0.261
-662.989	598.871	-0.078	-0.193
-661.974	-189.058	0.176	0.002
-660.959	-55.703	0.331	-0.148
-659.945	-15.104	0.180	0.116
-658.930	-121.352	0.175	-0.029
-657.916	42.045	0.183	-0.166
-656.901	-98.346	0.254	-0.065
-655.886	800.000	0.065	-0.191
-654.872	84.224	-0.104	0.114
-653.857	-200.000	-0.009	-0.155
-652.843	56.057	0.087	0.085
-651.828	53.506	-0.024	0.023
-650.814	-200.000	0.082	0.512
-649.799	43.599	-0.233	-0.214
-648.784	561.961	0.133	-0.321
-647.770	71.799	0.189	-0.197
-646.755	97.177	0.204	-0.234
-645.741	52.546	-0.028	0.027
-644.726	171.837	-0.068	0.097
-643.711	298.910	-0.107	0.197
-642.697	-166.985	0.294	-0.012
-641.682	-200.000	-0.048	0.326
-640.668	-154.724	0.127	0.008
-639.653	-200.000	-0.020	-0.097
-638.638	176.087	0.171	-0.248
-637.624	-200.000	-0.012	0.080
-636.609	-159.682	-0.274	-0.015
-635.595	14.437	0.327	0.255
-634.580	-46.250	0.100	0.049
-633.565	-17.849	0.266	-0.167
-632.551	-135.282	-0.259	-0.031
-631.536	-32.466	0.270	0.151
-630.522	33.912	0.197	-0.171
-629.507	603.045	-0.104	-0.259
-628.492	-200.000	-0.068	-0.305
-627.478	-200.000	0.006	0.082
-626.463	-77.177	0.136	0.047
-625.449	0.452	0.360	0.258
-624.434	-140.599	-0.332	-0.034
-623.419	-200.000	0.008	0.264
-622.405	-200.000	0.021	0.203
-621.390	-10.905	-0.327	-0.216
-620.376	-57.630	-0.114	-0.050
-619.361	-200.000	0.044	-0.228
-618.346	-200.000	0.065	-0.298
-617.332	224.754	0.111	0.179
-616.317	404.756	-0.035	0.075
-615.303	-47.792	-0.228	-0.111
-614.288	35.649	0.080	0.070
-613.273	-23.201	0.019	0.011
-612.259	800.000	0.079	-0.222
-611.244	310.664	0.129	0.242
-610.230	116.065	0.062	0.076
-609.215	81.568	0.049	0.053
-608.201	-62.708	-0.206	0.086
-607.186	85.482	-0.122	0.134
-606.171	800.000	-0.074	-0.253
-605.157	2.648	-0.261	-0.189
-604.142	-200.000	0.229	-0.001
-603.128	11.372	-0.139	-0.107
-602.113	800.000	-0.047	0.158
-601.098	-200.000	-0.014	-0.202
-600.084	113.466	-0.073	-0.088
-599.069	116.537	0.185	0.227
-598.055	-100.809	-0.277	-0.068
-597.040	-80.043	0.350	-0.117
-596.025	176.871	-0.075	0.110
-595.011	-41.996	0.102	0.052
-593.996	-19.126	-0.287	0.178
-592.982	-153.175	-0.206	0.014
-591.967	-146.573	-0.226	-0.020
-590.952	795.012	-0.059	-0.163
-589.938	-200.000	-0.008	0.083
-588.923	-128.350	-0.259	0.037
-587.909	-176.261	-0.193	-0.005
-586.894	240.262	-0.136	-0.226
-585.879	524.095	-0.074	0.174
-584.865	-200.000	0.028	0.189
-583.850	686.503	0.086	0.225
-582.836	-200.000	0.010	0.135
-581.821	-118.050	0.112	0.020
-580.806	557.069	-0.112	0.269
-579.792	-200.000	0.025	0.138
-578.777	-200.000	0.044	0.244
-577.763	87.616	-0.155	-0.171
-576.748	-200.000	-0.016	0.220
-575.733	52.109	0.103	-0.098
-574.719	-54.071	-0.163	-0.074
-573.704	-53.309	-0.385	-0.176
-572.690	43.241	0.156	-0.142
-571.675	-108.978	0.309	0.066
-570.661	-200.000	0.044	0.225
-569.646	-104.810	-0.190	-0.044
-568.631	-179.079	-0.068	0.002
-567.617	48.129	-0.261	0.243
-566.602	-97.008	0.258	0.067
-565.588	-86.805	0.290	-0.088
-564.573	-46.257	-0.124	0.061
-563.558	102.781	-0.155	0.181
-562.544	-78.627	0.170	-0.058
-561.529	-47.618	0.207	0.100
-560.515	-126.717	0.209	-0.031
-559.500	279.855	0.119	-0.212
-558.485	115.629	-0.249	0.304
-557.471	-200.000	-0.005	0.082
-556.456	183.696	0.255	-0.377
-555.442	-47.897	-0.182	0.088
-554.427	118.531	0.099	0.122
-553.412	238.117	0.291	0.482
-552.398	360.356	-0.170	0.339
-551.383	-67.072	-0.074	-0.029
-550.369	-95.453	0.210	0.056
-549.354	-200.000	0.039	0.256
-548.339	133.874	-0.129	-0.167
-547.325	60.574	-0.196	-0.193
-546.310	-49.752	0.232	-0.110
-545.296	199.417	-0.018	-0.027
-544.281	-44.527	-0.068	-0.034
-543.266	472.193	0.158	-0.356
-542.252	666.380	-0.027	-0.071
-541.237	800.000	0.073	0.249
-540.223	733.940	-0.048	0.129
-539.208	-142.815	0.219	-0.021
-538.193	-8.848	0.116	0.078
-537.179	-49.697	-0.226	-0.107
-536.164	-200.000	0.003	0.048
-535.150	538.249	0.138	-0.327
-534.135	314.371	-0.135	-0.253
-533.121	-24.209	0.038	-0.023
-532.106	92.726	-0.174	-0.196
-531.091	-60.749	-0.178	-0.075
-530.077	800.000	-0.016	0.066
-529.062	381.063	-0.041	-0.084
-528.048	198.600	0.106	0.162
-527.033	241.172	-0.224	0.373
-526.018	56.191	-0.099	0.096
-525.004	392.701	0.035	0.073
-523.989	-200.000	-0.040	-0.265
-522.975	32.044	-0.166	-0.143
-521.960	22.918	-0.218	0.178
-520.945	-113.407	0.223	0.044
-519.931	219.937	-0.139	0.222
-518.916	-158.820	-0.269	-0.015
-517.902	376.734	-0.101	-0.206
-516.887	-14.526	0.068	0.044
-515.872	-200.000	-0.005	-0.068
-514.858	13.364	0.368	-0.284
-513.843	-107.953	0.269	-0.058
-512.829	58.026	-0.253	-0.247
-511.814	-0.861	-0.227	-0.160
-510.799	42.485	-0.219	-0.199
-509.785	800.000	-0.073	0.235
-508.770	208.112	0.229	0.357
-507.756	-43.898	-0.135	-0.068
-506.741	351.822	-0.050	0.099
-505.726	-132.353	-0.379	0.049
-504.712	46.353	0.192	-0.178
-503.697	-61.448	0.180	-0.075
-502.683	-86.709	0.118	-0.036
-501.668	230.542	0.077	-0.126
-500.653	-200.000	0.003	-0.116
-499.639	-33.651	-0.315	-0.173
-498.624	-200.000	-0.017	-0.205
-497.610	180.985	-0.222	0.325
-496.595	-200.000	-0.012	0.088
-495.581	-7.431	0.111	-0.075
-494.566	800.000	-0.108	0.449
-493.551	-85.496	-0.114	0.035
-492.537	-40.257	0.235	0.121
-491.522	-200.000	-0.090	-0.000
-490.508	-84.788	-0.504	0.158
-489.493	-168.513	0.108	-0.004
-488.478	-200.000	0.004	-0.073
-487.464	-200.000	0.014	0.244
-486.449	252.055	-0.165	-0.279
-485.435	-33.854	-0.120	0.066
-484.420	59.093	-0.197	-0.193
-483.405	-200.000	0.010	-0.051
-482.391	800.000	0.073	0.242
-481.376	-200.000	0.001	-0.058
-480.362	147.926	0.040	0.053
-479.347	-200.000	0.330	-0.001
-478.332	-107.281	-0.162	0.035
-477.318	-200.000	0.011	0.114
-476.303	207.176	-0.061	0.095
-475.289	-106.719	0.200	0.044
-474.274	285.150	-0.098	0.176
-473.259	-200.000	-0.004	-0.186
-472.245	-200.000	-0.012	-0.144
-471.230	482.316	-0.077	0.173
-470.216	800.000	-0.058	0.168
-469.201	-200.000	-0.048	0.301
-468.186	150.409	0.198	0.267
-467.172	281.865	-0.058	-0.103
-466.157	800.000	-0.144	0.397
-465.143	218.301	-0.212	0.336
-464.128	800.000	-0.014	0.060
-463.113	-200.000	-0.017	-0.204
-462.099	800.000	0.035	-0.139
-461.084	31.266	0.161	-0.137
-460.070	97.040	0.030	-0.035
-459.055	-3.628	0.096	0.066
-458.040	-200.000	-0.014	0.282
-457.026	-46.361	-0.059	-0.029
-456.011	800.000	0.034	0.098
-454.997	729.128	-0.053	0.141
-453.982	-38.397	0.182	-0.096
-452.968	172.815	0.167	-0.239
-451.953	800.000	-0.029	-0.091
-450.938	800.000	-0.093	-0.370
-449.924	-89.912	0.094	-0.027
-448.909	800.000	-0.044	0.163
-447.895	132.809	-0.127	-0.163
-446.880	43.495	-0.095	-0.087
-445.865	-200.000	0.038	0.377
-444.851	-42.715	-0.178	-0.090
-443.836	11.367	-0.237	-0.180
-442.822	-74.666	-0.329	0.117
-441.807	-73.229	-0.127	-0.046
-440.792	91.018	-0.103	-0.115
-439.778	623.706	-0.121	-0.304
-438.763	284.909	0.108	-0.192
-437.749	-23.826	-0.316	0.188
-436.734	-102.508	0.165	-0.039
-435.719	-75.336	-0.032	0.011
-434.705	4.849	0.115	0.084
-433.690	-49.927	0.040	-0.019
-432.676	-200.000	-0.054	-0.351
-431.661	-87.709	0.209	-0.063
-430.646	-9.790	0.184	-0.122
-429.632	41.381	0.130	-0.117
-428.617	77.518	0.104	0.110
-427.603	-200.000	-0.018	0.107
-426.588	-83.399	-0.070	-0.022
-425.573	60.962	0.113	0.111
-424.559	-98.431	0.374	-0.095
-423.544	239.613	-0.159	0.263
-422.530	-33.078	-0.081	0.044
-421.515	79.737	0.044	0.047
-420.500	254.304	-0.043	-0.074
-419.486	161.494	-0.095	0.131
-418.471	-32.774	-0.142	0.078
-417.457	-91.492	0.489	-0.138
-416.442	39.422	0.090	0.080
-415.428	-137.140	0.122	-0.014
-414.413	-9.599	-0.131	0.087
-413.398	-6.551	0.230	-0.155
-412.384	-200.000	0.042	-0.266
-411.369	79.086	-0.247	0.263
-410.355	-13.234	0.311	-0.201
-409.340	-200.000	0.008	-0.203
-408.325	-200.000	-0.002	-0.062
-407.311	-98.372	0.395	-0.100
-406.296	-17.978	0.103	-0.064
-405.282	-79.159	-0.166	-0.056
-404.267	-180.138	-0.193	0.004
-403.252	-16.547	0.282	0.177
-402.238	800.000	0.089	-0.262
-401.223	-45.371	0.050	-0.025
-400.209	-164.964	0.331	-0.015
-399.194	20.458	-0.055	-0.044
-398.179	800.000	0.033	-0.123
-397.165	-124.865	-0.081	0.012
-396.150	54.136	0.160	-0.153
-395.136	189.484	-0.049	-0.073
-394.121	72.446	0.240	-0.248
-393.106	-200.000	-0.048	0.241
-392.092	134.250	0.155	-0.200
-391.077	21.094	0.116	-0.094
-390.063	9.699	0.159	-0.119
-389.048	-55.004	0.450	-0.201
-388.033	8.267	0.137	0.102
-387.019	800.000	0.066	-0.217
-386.004	260.565	0.082	0.141
-384.990	46.887	0.191	0.176
-383.975	-200.000	-0.055	-0.272
-382.960	671.029	-0.139	0.358
-381.946	-200.000	0.011	-0.345
-380.931	9.232	0.093	-0.070
-379.917	-98.168	0.107	0.027
-378.902	-116.230	-0.071	-0.013
-377.888	-154.522	-0.216	0.014
-376.873	-73.161	0.250	0.091
-375.858	-200.000	-0.027	0.220
-374.844	168.376	0.141	-0.199
-373.829	-200.000	-0.035	-0.192
-372.815	-200.000	-0.014	0.082
-371.800	-36.835	0.066	-0.035
-370.785	800.000	-0.051	0.167
-369.771	-159.385	0.154	0.009
-368.756	338.775	0.102	0.197
-367.742	-84.698	-0.192	-0.060
-366.727	29.615	-0.244	0.206
-365.712	605.993	-0.017	0.043
-364.698	800.000	0.022	-0.075
-363.683	188.279	0.139	-0.207
-362.669	159.374	0.225	0.310
-361.654	-200.000	-0.002	0.031
-360.639	-200.000	0.026	0.130
-359.625	7.554	-0.234	0.174
-358.610	-128.591	0.306	0.043
-357.596	-119.788	0.231	0.039
-356.581	86.982	0.045	-0.050
-355.566	-200.000	-0.015	-0.117
-354.552	93.075	0.141	-0.157
-353.537	-36.228	-0.111	0.059
-352.523	162.072	-0.114	-0.158
-351.508	800.000	0.061	0.225
-350.493	-93.645	-0.284	0.078
-349.479	800.000	-0.192	-0.570
-348.464	59.662	-0.263	-0.257
-347.450	431.898	-0.067	-0.144
-346.435	-15.698	-0.292	-0.185
-345.420	-46.423	0.158	-0.077
-344.406	27.493	-0.175	0.146
-343.391	-13.802	-0.059	-0.038
-342.377	31.650	-0.211	-0.180
-341.362	148.598	-0.090	0.120
-340.348	800.000	0.054	-0.158
-339.333	-200.000	0.021	0.192
-338.318	-172.810	0.303	-0.009
-337.304	18.818	-0.343	0.271
-336.289	527.331	0.064	-0.148
-335.275	-200.000	0.027	0.211
-334.260	-112.126	-0.279	0.056
-333.245	636.029	0.143	0.358
-332.231	134.554	0.078	0.101
-331.216	-27.530	0.232	-0.134
-330.202	287.201	0.142	-0.255
-329.187	52.671	-0.191	-0.181
-328.172	800.000	0.064	-0.253
-327.158	-200.000	-0.008	-0.235
-326.143	-83.222	0.084	0.027
-325.129	-2.320	0.226	-0.156
-324.114	-52.658	0.256	-0.117
-323.099	-200.000	0.080	-0.400
-322.085	-86.502	-0.251	-0.076
-321.070	-200.000	-0.066	-0.290
-320.056	800.000	0.057	-0.169
-319.041	-200.000	0.039	-0.222
-318.026	-3.627	0.225	-0.154
-317.012	-133.538	-0.108	0.013
-315.997	-114.974	0.155	-0.029
-314.983	-22.927	-0.081	0.048
-313.968	-32.487	-0.072	0.040
-312.953	-136.203	0.188	-0.022
-311.939	-200.000	0.018	0.143
-310.924	149.641	-0.242	0.325
-309.910	-72.164	0.161	-0.059
-308.895	85.403	0.016	0.017
-307.880	492.746	-0.120	-0.271
-306.866	-128.335	-0.035	-0.005
-305.851	-96.262	-0.329	0.086
-304.837	-105.464	-0.302	0.068
-303.822	-15.902	-0.156	0.098
-302.807	-133.542	0.160	0.020
-301.793	53.823	-0.299	0.284
-300.778	55.683	-0.145	-0.139
-299.764	358.009	-0.076	0.149
-298.749	-74.471	-0.407	-0.145
-297.735	800.000	0.033	0.128
-296.720	800.000	0.186	0.531
-295.705	394.820	-0.050	-0.102
-294.691	48.328	0.111	-0.103
-293.676	41.643	0.043	-0.038
-292.662	141.397	-0.113	-0.147
-291.647	-55.915	0.428	0.188
-290.632	49.840	0.289	0.269
-289.618	117.389	-0.211	0.256
-288.603	153.246	-0.046	-0.062
-287.589	800.000	0.089	-0.256
-286.574	-111.094	0.255	0.052
-285.559	-62.850	0.337	-0.138
-284.545	448.003	0.070	0.151
-283.530	-200.000	0.030	0.192
-282.516	-50.981	-0.383	-0.177
-281.501	800.000	-0.070	-0.285
-280.486	-112.926	0.150	0.029
-279.472	616.044	-0.046	0.113
-278.457	71.746	0.222	0.228
-277.443	195.187	-0.079	-0.118
-276.428	-83.893	0.265	-0.083
-275.413	-200.000	0.032	0.257
-274.399	-3.317	-0.177	0.122
-273.384	110.125	-0.107	-0.127
-272.370	455.103	0.131	-0.286
-271.355	752.473	-0.045	-0.121
-270.340	-81.061	0.150	0.049
-269.326	800.000	-0.074	-0.233
-268.311	51.283	-0.263	0.247
-267.297	-110.766	-0.220	-0.045
-266.282	100.081	0.168	-0.192
-265.267	279.330	0.064	0.113
-264.253	-5.009	-0.067	-0.045
-263.238	-147.584	-0.234	-0.019
-262.224	12.065	-0.169	-0.128
-261.209	800.000	0.143	0.436
-260.195	94.223	-0.191	0.214
-259.180	439.297	-0.083	-0.178
-258.165	167.753	-0.042	-0.059
-257.151	800.000	0.030	-0.087
-256.136	-104.373	-0.211	-0.048
-255.122	-32.588	-0.198	0.109
-254.107	-117.419	-0.310	-0.055
-253.092	639.310	0.064	-0.161
-252.078	123.860	0.050	-0.061
-251.063	-100.042	-0.335	-0.082
-250.049	-200.000	0.007	0.254
-249.034	-200.000	0.046	0.231
-248.019	-112.919	0.242	0.047
-247.005	-200.000	0.079	-0.000
-245.990	348.857	-0.028	-0.055
-244.976	-13.735	0.270	0.172
-243.961	1.350	-0.139	0.099
-242.946	335.691	0.094	-0.179
-241.932	0.159	0.399	-0.280
-240.917	-75.711	-0.295	0.103
-239.903	800.000	0.064	-0.275
-238.888	-161.004	-0.431	-0.022
-237.873	800.000	0.025	0.072
-236.859	-108.476	-0.111	0.024
-235.844	84.017	-0.268	0.289
-234.830	-59.098	-0.225	-0.095
-233.815	-40.852	0.098	0.050
-232.800	-134.177	-0.242	-0.029
-231.786	267.941	0.140	0.242
-230.771	-200.000	-0.018	0.128
-229.757	32.661	0.229	-0.196
-228.742	446.392	0.090	-0.194
-227.727	800.000	0.063	0.221
-226.713	58.282	0.145	0.140
-225.698	182.721	0.178	0.258
-224.684	628.381	-0.056	-0.140
-223.669	-61.058	-0.279	0.116
-222.655	598.043	0.090	0.219
-221.640	-59.784	-0.073	-0.031
-220.625	1.989	0.034	0.024
-219.611	-66.267	0.183	-0.072
-218.596	-120.496	0.207	-0.035
-217.582	-97.792	-0.295	-0.075
-216.567	-68.961	-0.070	-0.026
-215.552	-200.000	0.009	0.135
-214.538	549.732	0.094	-0.221
-213.523	-145.347	0.462	0.041
-212.509	118.400	0.105	0.127
-211.494	335.394	0.061	0.116
-210.479	-34.233	0.214	0.116
-209.465	6.457	-0.142	0.104
-208.450	-29.680	-0.189	-0.106
-207.436	800.000	0.050	0.139
-206.421	-75.410	-0.354	-0.124
-205.406	396.649	-0.084	-0.172
-204.392	114.158	-0.087	-0.104
-203.377	800.000	-0.053	-0.161
-202.363	-43.651	0.322	-0.160
-201.348	-8.472	0.174	-0.115
-200.333	32.431	0.171	-0.145
-199.319	18.131	-0.124	0.097
-198.304	-200.000	-0.044	0.202
-197.290	-200.000	0.031	0.133
-196.275	-200.000	0.028	-0.418
-195.260	83.785	-0.168	-0.180
-194.246	137.739	0.028	-0.036
-193.231	-114.084	-0.155	-0.030
-192.217	264.548	-0.162	0.277
-191.202	106.683	0.140	0.164
-190.187	-16.474	0.130	-0.081
-189.173	116.361	-0.195	0.235
-188.158	-45.212	0.218	0.106
-187.144	139.050	0.148	0.192
-186.129	140.858	-0.098	0.128
-185.114	-96.459	-0.069	-0.018
-184.100	334.388	0.052	-0.099
-183.085	-72.363	0.101	-0.037
-182.071	-14.916	-0.081	0.051
-181.056	800.000	-0.053	-0.186
-180.042	-65.944	-0.126	0.049
-179.027	800.000	-0.073	-0.270
-178.012	-54.653	-0.227	-0.101
-176.998	7.173	0.273	0.200
-175.983	61.801	0.173	0.170
-174.969	-200.000	-0.033	0.224
-173.954	-200.000	0.000	-0.160
-172.939	36.415	-0.290	-0.252
-171.925	-115.630	0.286	0.053
-170.910	-198.050	-0.364	0.002
-169.896	-120.414	0.378	0.063
-168.881	-45.326	0.302	0.147
-167.866	-81.059	-0.157	-0.051
-166.852	-200.000	-0.016	0.146
-165.837	736.992	0.024	0.064
-164.823	-58.600	0.163	0.069
-163.808	-200.000	-0.009	-0.102
-162.793	-175.206	-0.111	0.003
-161.779	-113.813	0.274	0.052
-160.764	-70.603	0.206	-0.076
-159.750	45.586	0.041	-0.037
-158.735	-200.000	-0.020	0.248
-157.720	-119.388	0.186	0.032
-156.706	-122.811	-0.414	0.066
-155.691	-200.000	0.022	0.357
-154.677	-17.805	-0.080	0.049
-153.662	800.000	-0.071	-0.206
-152.647	-186.755	-0.019	-0.000
-151.633	7.713	0.311	0.228
-150.618	-113.169	-0.093	0.018
-149.604	-18.922	0.359	0.219
-148.589	-200.000	-0.004	0.150
-147.574	-200.000	0.018	-0.204
-146.560	-50.903	-0.268	-0.124
-145.545	-63.031	-0.258	-0.105
-144.531	110.663	-0.137	-0.162
-143.516	-26.506	0.029	-0.017
-142.502	-53.074	0.314	-0.142
-141.487	276.148	0.084	-0.147
-140.472	210.589	-0.156	0.241
-139.458	28.428	0.246	-0.204
-138.443	77.469	0.114	-0.119
-137.429	85.501	0.229	0.247
-136.414	-60.779	-0.091	0.038
-135.399	363.572	0.026	-0.051
-134.385	115.732	0.242	-0.290
-133.370	-116.029	0.168	-0.031
-132.356	-111.158	0.220	-0.044
-131.341	47.807	-0.166	0.152
-130.326	56.383	0.229	0.218
-129.312	785.397	-0.074	0.199
-128.297	-44.975	0.078	-0.038
-127.283	-19.012	0.149	0.091
-126.268	-5.319	-0.132	-0.089
-125.253	-200.000	0.074	0.432
-124.239	-29.674	-0.202	-0.113
-123.224	257.483	0.125	0.211
-122.210	23.718	0.350	-0.283
-121.195	-200.000	-0.024	0.199
-120.180	33.341	-0.241	-0.205
-119.166	149.400	0.236	0.313
-118.151	-8.236	0.125	0.083
-117.137	181.385	0.067	-0.097
-116.122	253.513	-0.181	0.302
-115.107	-37.722	-0.138	0.072
-114.093	-161.460	0.261	-0.013
-113.078	-200.000	0.051	-0.238
-112.064	45.364	0.227	-0.206
-111.049	-60.989	0.148	0.061
-110.034	-126.982	0.141	0.020
-109.020	58.969	0.114	0.110
-108.005	260.791	-0.208	-0.353
-106.991	-78.577	0.067	0.022
-105.976	-111.834	0.466	0.092
-104.962	-106.559	-0.380	0.083
-103.947	222.749	-0.152	0.241
-102.932	138.292	-0.211	0.271
-101.918	-200.000	-0.014	-0.116
-100.903	-200.000	0.058	0.313
-99.889	-46.823	-0.167	0.080
-98.874	-56.079	-0.322	-0.141
-97.859	157.795	0.139	-0.188
-96.845	-137.073	0.333	0.037
-95.830	-85.677	-0.112	0.034
-94.816	-200.000	0.020	0.233
-93.801	63.507	0.153	0.150
-92.786	369.036	-0.122	0.242
-91.772	-45.781	0.154	0.075
-90.757	97.951	0.283	-0.319
-89.743	75.857	0.161	0.167
-88.728	-200.000	0.027	0.214
-87.713	-73.730	0.208	0.074
-86.699	147.674	-0.190	-0.251
-85.684	-166.419	0.165	-0.007
-84.670	121.239	0.230	0.281
-83.655	49.430	0.104	-0.096
-82.640	-200.000	-0.037	-0.164
-81.626	-200.000	-0.029	0.151
-80.611	-200.000	-0.037	-0.284
-79.597	197.398	0.112	0.167
-78.582	-200.000	0.028	0.258
-77.567	-200.000	-0.005	0.025
-76.553	-200.000	-0.030	0.349
-75.538	-99.623	0.243	0.060
-74.524	-24.806	-0.117	-0.068
-73.509	312.257	-0.101	-0.186
-72.494	9.541	0.097	0.072
-71.480	90.145	-0.165	-0.181
-70.465	26.780	0.284	0.233
-69.451	-140.446	-0.269	-0.027
-68.436	-200.000	-0.043	0.211
-67.422	-65.050	0.118	-0.047
-66.407	99.314	0.024	0.028
-65.392	-200.000	-0.009	0.278
-64.378	-71.138	-0.304	0.112
-63.363	-148.669	0.148	0.012
-62.349	-200.000	-0.087	0.378
-61.334	68.139	-0.765	-0.766
-60.319	800.000	0.140	0.384
-59.305	800.000	-0.354	-1.096
-58.290	228.104	0.741	1.181
-57.276	800.000	0.553	1.527
-56.261	-200.000	116.717	655.159
-55.246	515.107	1540.028	3518.263
-54.232	176.145	2705.668	3844.142
-53.217	107.043	2148.785	2497.595
-52.203	38.299	1586.675	1382.568
-51.188	30.114	1330.348	1110.381
-50.173	27.095	1292.179	1060.879
-49.159	53.632	1350.685	1268.142
-48.144	51.979	1363.790	1270.549
-47.130	30.155	1318.306	1100.400
-46.115	26.815	1300.317	1065.746
-45.100	26.694	1294.927	1060.577
-44.086	26.454	1292.990	1057.546
-43.071	26.544	1290.061	1055.635
-42.057	26.509	1288.603	1054.195
-41.042	26.600	1286.197	1052.714
-40.027	26.503	1285.092	1051.206
-39.013	26.471	1283.171	1049.408
-37.998	26.552	1281.233	1048.251
-36.984	26.664	1279.411	1047.363
-35.969	26.698	1277.861	1046.247
-34.954	26.671	1276.208	1044.702
-33.940	26.712	1274.791	1043.733
-32.925	26.740	1272.973	1042.363
-31.911	26.742	1271.863	1041.428
-30.896	26.849	1270.576	1040.945
-29.881	26.831	1269.065	1039.566
-28.867	26.698	1267.975	1037.868
-27.852	26.735	1266.296	1036.666
-26.838	26.844	1264.794	1036.018
-25.823	26.851	1263.807	1035.207
-24.809	26.721	1262.274	1033.168
-23.794	26.774	1261.505	1032.798
-22.779	26.847	1259.394	1031.445
-21.765	26.873	1258.602	1030.905
-20.750	26.777	1257.448	1029.374
-19.736	26.691	1256.141	1027.775
-18.721	26.604	1255.116	1026.398
-17.706	26.703	1254.296	1026.253
-16.692	26.768	1252.397	1025.023
-15.677	26.714	1251.407	1023.869
-14.663	26.578	1251.121	1022.825
-13.648	26.608	1249.418	1021.559
-12.633	26.535	1248.671	1020.498
-11.619	26.746	1247.574	1020.752
-10.604	26.680	1246.604	1019.544
-9.590	26.600	1245.891	1018.471
-8.575	26.532	1245.041	1017.355
-7.560	26.660	1243.981	1017.164
-6.546	26.612	1243.236	1016.247
-5.531	26.507	1242.968	1015.398
-4.517	26.585	1241.496	1014.590
-3.502	26.725	1240.279	1014.344
-2.487	26.689	1239.151	1013.177
-1.473	26.657	1234.989	1009.557
-0.458	25.015	1220.431	988.564
0.556	23.274	1203.182	950.936
1.571	19.430	1209.513	935.061
2.586	18.430	1224.357	940.963
3.600	18.269	1213.355	931.550
4.615	14.248	1142.148	856.161
5.629	7.242	1072.291	769.787
6.644	4.402	1053.950	742.977
7.659	4.089	1051.858	739.944
8.673	3.912	1050.170	737.846
9.688	3.828	1048.968	736.535
10.702	4.438	1046.707	737.780
11.717	8.923	1052.889	763.466
12.731	16.706	1064.316	809.014
13.746	21.530	1070.098	836.453
14.761	22.564	1070.797	841.865
15.775	21.673	1069.333	836.389
16.790	20.899	1067.041	830.835
17.804	20.238	1066.211	826.961
18.819	19.940	1064.781	824.360
19.834	19.909	1064.553	823.966
20.848	19.928	1063.895	823.475
21.863	19.871	1063.108	822.519
22.877	19.632	1062.370	820.742
23.892	19.590	1061.596	819.870
24.907	19.501	1061.009	818.922
25.921	19.559	1059.569	818.013
26.936	19.419	1058.696	816.607
27.950	19.665	1056.839	816.263
28.965	19.631	1055.781	815.210
29.980	19.790	1054.795	815.128
30.994	19.926	1053.658	814.816
32.009	19.983	1052.756	814.316
33.023	19.949	1051.680	813.252
34.038	19.698	1050.832	811.347
35.053	19.712	1049.737	810.497
36.067	19.606	1049.032	809.382
37.082	19.648	1048.259	808.912
38.096	19.841	1047.838	809.418
39.111	19.794	1047.334	808.738
40.126	19.554	1045.576	806.185
41.140	19.281	1044.066	803.678
42.155	19.154	1042.950	802.157
43.169	19.096	1042.018	801.101
44.184	19.140	1040.759	800.267
45.199	19.245	1040.234	800.276
46.213	19.337	1039.164	799.811
47.228	19.606	1038.500	800.475
48.242	19.620	1037.895	800.003
49.257	19.607	1037.079	799.244
50.271	19.810	1035.663	799.020
51.286	19.809	1035.098	798.510
52.301	19.695	1034.075	797.125
53.315	19.576	1032.866	795.571
54.330	19.481	1031.858	794.287
55.344	19.308	1031.184	792.902
56.359	19.399	1030.444	792.681
57.374	19.250	1029.619	791.295
58.388	19.116	1028.310	789.605
59.403	19.092	1027.390	788.715
60.417	19.073	1026.995	788.255
61.432	19.132	1025.968	787.667
62.447	18.939	1025.276	786.186
63.461	18.929	1024.260	785.290
64.476	18.898	1023.800	784.729
65.490	18.796	1023.007	783.587
66.505	18.919	1022.194	783.451
67.520	18.906	1021.817	783.036
68.534	19.052	1020.414	782.557
69.549	18.882	1019.847	781.276
70.563	18.838	1018.766	780.180
71.578	18.732	1017.557	778.707
72.593	18.474	1017.458	777.393
73.607	18.673	1016.471	777.472
74.622	18.688	1015.981	777.096
75.636	18.708	1015.455	776.715
76.651	18.692	1014.712	776.005
77.666	18.839	1014.150	776.171
78.680	18.764	1013.258	775.081
79.695	18.782	1012.570	774.566
80.709	19.038	1012.393	775.516
81.724	19.166	1011.324	775.205
82.739	19.277	1011.196	775.538
83.753	19.585	1010.785	776.538
84.768	19.922	1010.308	777.619
85.782	20.150	1009.604	778.032
86.797	20.058	1008.405	776.628
87.812	19.846	1007.287	774.745
88.826	19.761	1006.767	773.897
89.841	19.923	1005.386	773.492
90.855	19.929	1005.329	773.409
91.870	19.954	1004.581	772.873
92.884	19.946	1003.250	771.747
93.899	19.938	1002.147	770.793
94.914	20.011	1002.000	770.937
95.928	19.940	1001.057	769.827
96.943	19.857	999.344	768.075
97.957	19.964	998.490	767.824
98.972	19.969	997.621	767.111
99.987	19.918	997.530	766.745
101.001	19.747	996.415	765.067
102.016	19.873	995.295	764.696
103.030	19.992	994.560	764.586
104.045	19.792	993.918	763.142
105.060	19.587	993.051	761.509
106.074	19.292	991.789	759.171
107.089	19.112	990.541	757.359
108.103	19.096	989.231	756.221
109.118	19.095	988.261	755.407
110.133	18.834	987.341	753.494
111.147	18.852	986.657	752.981
112.162	19.073	986.301	753.612
113.176	19.129	985.365	753.077
114.191	19.272	984.815	753.213
115.206	19.196	983.795	752.034
116.220	19.081	983.170	750.989
117.235	19.071	982.010	749.990
118.249	19.123	981.100	749.458
119.264	18.852	980.893	748.054
120.279	18.984	979.578	747.556
121.293	18.888	978.634	746.353
122.308	18.817	977.960	745.468
123.322	18.668	976.573	743.696
124.337	18.590	975.665	742.603
125.352	18.703	974.656	742.258
126.366	18.568	973.705	740.885
127.381	18.828	972.726	741.197
128.395	18.881	971.626	740.520
129.410	18.944	970.898	740.173
130.424	18.902	970.636	739.726
131.439	19.114	969.917	740.022
132.454	19.140	969.470	739.730
133.468	19.112	968.468	738.780
134.483	19.209	967.687	738.535
135.497	19.289	966.927	738.231
136.512	19.281	965.985	737.411
137.527	19.239	965.087	736.483
138.541	19.209	964.461	735.809
139.556	19.381	963.508	735.754
140.570	19.453	963.682	736.125
141.585	19.696	962.735	736.373
142.600	19.782	961.696	735.881
143.614	19.820	961.172	735.575
144.629	20.092	960.438	736.106
145.643	19.832	959.454	734.181
146.658	19.634	958.026	732.185
147.673	19.419	957.033	730.451
148.687	19.353	956.004	729.323
149.702	19.267	954.820	727.993
150.716	19.320	953.776	727.353
151.731	19.378	953.288	727.162
152.746	19.221	953.159	726.339
153.760	19.385	952.277	726.291
154.775	19.586	951.850	726.748
155.789	19.740	951.113	726.768
156.804	19.589	950.338	725.478
157.819	19.672	950.073	725.560
158.833	19.866	949.525	725.891
159.848	20.012	948.313	725.511
160.862	19.768	947.378	723.713
161.877	19.348	945.736	720.639
162.892	19.236	944.343	719.044
163.906	19.173	943.697	718.226
164.921	19.306	943.061	718.234
165.935	19.412	941.950	717.764
166.950	19.548	941.123	717.637
167.964	19.445	940.345	716.553
168.979	19.276	939.217	714.931
169.994	19.391	938.538	714.827
171.008	19.388	938.236	714.519
172.023	19.758	937.872	715.709
173.037	19.881	936.768	715.312
174.052	19.758	936.239	714.337
175.067	19.381	935.074	711.830
176.081	19.102	934.567	710.229
177.096	19.177	933.876	709.953
178.110	19.298	933.164	709.845
179.125	19.255	933.328	709.730
180.140	19.398	932.703	709.783
181.154	19.547	932.723	710.347
182.169	19.741	932.273	710.737
183.183	19.848	931.328	710.394
184.198	19.935	930.017	709.689
185.213	19.710	930.065	708.740
186.227	19.872	929.339	708.789
187.242	20.048	928.404	708.733
188.256	20.150	928.121	708.869
189.271	20.158	927.437	708.317
190.286	19.702	926.316	705.536
191.300	19.231	924.860	702.447
192.315	19.112	924.450	701.588
193.329	19.278	923.926	701.803
194.344	19.350	923.649	701.824
195.359	19.380	922.899	701.314
196.373	19.711	922.521	702.311
197.388	19.769	922.513	702.480
198.402	20.146	921.811	703.410
199.417	20.100	921.807	703.161
200.432	20.265	921.294	703.374
201.446	20.408	920.213	703.068
202.461	20.517	919.997	703.279
203.475	20.359	919.557	702.242
204.490	20.034	918.353	699.948
205.504	19.967	917.389	698.880
206.519	19.798	916.681	697.598
207.534	19.775	916.094	696.999
208.548	19.901	915.524	697.011
209.563	19.793	914.966	696.086
210.577	19.901	914.446	696.066
211.592	20.283	913.750	697.011
212.607	20.405	912.774	696.692
213.621	20.048	912.442	694.946
214.636	20.149	911.320	694.435
215.650	20.227	910.497	694.058
216.665	20.380	910.180	694.364
217.680	20.450	909.589	694.135
218.694	20.365	909.379	693.574
219.709	20.323	908.991	693.048
220.723	20.328	907.710	692.030
221.738	20.119	907.121	690.685
222.753	20.238	906.652	690.741
223.767	20.399	906.299	691.053
224.782	20.429	906.206	691.041
225.796	20.509	905.493	690.751
226.811	20.317	904.229	688.966
227.826	20.158	903.226	687.508
228.840	20.094	902.751	686.833
229.855	20.222	901.828	686.579
230.869	20.093	901.326	685.626
231.884	20.051	900.292	684.611
232.899	19.977	899.670	683.786
233.913	19.951	899.015	683.125
234.928	19.742	898.883	682.140
235.942	19.786	897.865	681.482
236.957	19.907	897.439	681.573
237.972	19.902	896.914	681.095
238.986	19.851	896.481	680.505
240.001	19.881	895.609	679.902
241.015	19.913	894.886	679.418
242.030	19.993	894.618	679.468
243.045	20.266	893.845	679.888
244.059	20.235	893.338	679.324
245.074	20.333	892.893	679.308
246.088	20.370	892.527	679.113
247.103	20.674	891.872	679.742
248.117	20.603	892.145	679.613
249.132	21.129	891.601	681.193
250.147	21.320	891.030	681.440
251.161	21.171	890.375	680.298
252.176	21.328	889.719	680.350
253.190	21.377	889.024	679.949
254.205	21.377	888.557	679.531
255.220	21.347	887.710	678.706
256.234	21.161	887.018	677.397
257.249	21.282	886.348	677.294
258.263	21.296	885.124	676.353
259.278	21.223	884.830	675.785
260.293	21.291	884.530	675.760
261.307	21.442	883.991	675.870
262.322	21.408	883.475	675.287
263.336	21.417	882.778	674.729
264.351	21.433	882.176	674.271
265.366	21.279	881.708	673.260
266.380	21.386	880.971	673.047
267.395	21.241	879.941	671.645
268.409	21.148	879.172	670.642
269.424	21.091	878.395	669.769
270.439	21.029	878.173	669.305
271.453	20.906	877.205	668.036
272.468	20.967	876.711	667.833
273.482	21.022	876.315	667.682
274.497	21.060	875.006	666.773
275.512	20.941	875.108	666.335
276.526	21.161	874.356	666.545
277.541	21.181	874.065	666.342
278.555	21.221	873.625	666.099
279.570	21.443	873.391	666.707
280.585	21.370	872.508	665.696
281.599	21.347	871.211	664.560
282.614	21.041	870.555	662.839
283.628	21.050	869.932	662.338
284.643	21.132	869.504	662.267
285.657	21.210	868.715	661.905
286.672	21.108	868.220	661.081
287.687	21.284	867.535	661.166
288.701	21.194	867.019	660.375
289.716	21.172	866.641	659.946
290.730	21.195	866.047	659.520
291.745	21.244	865.355	659.120
292.760	21.371	865.048	659.306
293.774	21.547	864.334	659.366
294.789	21.472	863.632	658.491
295.803	21.197	862.652	656.653
296.818	21.264	861.934	656.298
297.833	21.216	861.559	655.773
298.847	21.260	860.924	655.399
299.862	21.307	860.744	655.379
300.876	21.312	860.035	654.802
301.891	21.645	859.544	655.617
302.906	21.706	859.094	655.445
303.920	22.004	858.906	656.356
304.935	21.981	858.649	656.017
305.949	21.702	857.618	654.128
306.964	21.677	856.703	653.279
307.979	21.559	856.745	652.814
308.993	21.784	855.705	652.800
310.008	21.689	855.682	652.374
311.022	21.589	854.757	651.239
312.037	21.546	853.377	649.968
313.052	21.345	853.013	648.887
314.066	21.120	852.572	647.660
315.081	21.101	851.840	646.977
316.095	21.014	851.723	646.509
317.110	21.240	851.055	646.782
318.125	21.155	850.234	645.786
319.139	21.142	849.489	645.115
320.154	21.196	849.065	644.933
321.168	21.424	848.437	645.243
322.183	21.310	848.468	644.788
323.197	21.279	848.035	644.287
324.212	21.244	847.553	643.735
325.227	21.259	846.530	642.955
326.241	21.307	845.794	642.516
327.256	21.276	845.198	641.892
328.270	21.261	844.870	641.532
329.285	21.156	844.442	640.766
330.300	21.240	843.590	640.371
331.314	21.439	843.253	640.788
332.329	21.426	842.912	640.423
333.343	21.707	842.536	641.109
334.358	21.589	842.336	640.469
335.373	21.498	842.236	640.003
336.387	21.707	841.754	640.344
337.402	21.848	841.471	640.588
338.416	21.992	841.177	640.833
339.431	22.048	840.884	640.755
340.446	22.440	840.078	641.513
341.460	22.304	840.382	641.195
342.475	22.416	839.862	641.147
343.489	22.257	839.633	640.337
344.504	22.450	839.017	640.512
345.519	22.668	838.261	640.673
346.533	22.480	837.835	639.605
347.548	22.119	836.972	637.580
348.562	21.733	836.423	635.706
349.577	21.872	835.142	635.179
350.592	21.757	834.053	633.880
351.606	21.652	833.820	633.266
352.621	21.800	833.427	633.447
353.635	21.846	832.804	633.085
354.650	21.960	832.290	633.048
355.665	21.985	831.894	632.781
356.679	22.082	831.087	632.460
357.694	22.103	830.290	631.873
358.708	22.009	829.951	631.224
359.723	22.200	828.891	631.045
360.738	21.967	828.775	630.065
361.752	22.097	828.613	630.354
362.767	22.302	828.110	630.650
363.781	22.511	827.589	630.945
364.796	22.704	827.180	631.269
365.810	22.709	826.912	631.026
366.825	22.771	826.504	630.881
367.840	22.533	825.907	629.520
368.854	22.516	825.278	628.922
369.869	22.453	824.856	628.320
370.883	22.394	824.628	627.881
371.898	22.566	824.541	628.373
372.913	22.725	823.957	628.438
373.927	22.501	823.008	626.863
374.942	22.471	822.851	626.580
375.956	22.620	822.554	626.828
376.971	22.681	822.294	626.794
377.986	22.857	821.741	626.939
379.000	22.918	821.154	626.654
380.015	22.860	820.494	625.888
381.029	22.853	819.660	625.172
382.044	22.833	819.440	624.877
383.059	22.923	818.679	624.562
384.073	22.812	817.863	623.492
385.088	22.463	817.009	621.552
386.102	22.423	816.543	621.002
387.117	22.364	815.942	620.283
388.132	22.311	815.641	619.812
389.146	22.431	815.286	619.910
390.161	22.758	814.879	620.695
391.175	22.848	814.310	620.526
392.190	22.466	813.829	618.759
393.205	22.511	813.146	618.343
394.219	22.429	812.438	617.464
395.234	22.242	812.252	616.612
396.248	22.146	811.383	615.563
397.263	22.085	811.162	615.126
398.278	21.970	810.755	614.362
399.292	22.101	810.093	614.261
400.307	21.996	809.758	613.586
401.321	22.110	809.430	613.683
402.336	22.248	809.028	613.805
403.350	22.299	808.798	613.756
404.365	22.735	808.360	614.888
405.380	22.792	807.866	614.657
406.394	22.957	807.162	614.641
407.409	22.930	807.408	614.680
408.423	23.093	807.003	614.882
409.438	23.171	806.639	614.823
410.453	23.157	806.009	614.239
411.467	23.224	805.493	614.022
412.482	23.313	805.390	614.198
413.496	23.435	804.812	614.126
414.511	23.353	804.674	613.684
415.526	23.250	804.193	612.904
416.540	23.159	803.364	611.907
417.555	23.130	803.220	611.639
418.569	23.165	802.849	611.426
419.584	23.329	802.056	611.333
420.599	23.328	801.788	611.070
421.613	165.545	1371.882	1798.677
422.628	143.929	1454.917	1798.778
