DTS Sentinel unit serial number:	SN413079Multiplexer serial number:	ORYXHardware model number:	OX4-SRSoftware version number:	ORYX F/W v4.00 Oryx Data Collector v3.7.2.0data status	okinstallation	princeton_trtdifferential loss correction	single-endedforward channel	channel 1reverse channel	N/Adate	2019/09/13time	07:02:35forward acquisition time	60.00reverse acquisition time	0.00gamma	496.2192k internal	0.2336k external	0.2336temperature offset calibration	1.0160default loss term (dB/km)	0.3790temperature slope calibration	1.0000multiplexer offset coefficient	1.0000multiplexer slope coefficient	1.0000fibre end	0.00T internal ref (°C)	26.00T ext. ref 1 (°C)	4.13T ext. ref 2 (°C)	21.12length (m)	temperature (°C)	Stokes	anti-Stokes-747.200	-144.432	0.140	-0.013
-746.185	800.000	-0.060	0.201
-745.171	800.000	0.079	0.312
-744.156	-73.595	-0.242	0.089
-743.142	121.642	-0.186	0.233
-742.127	-122.064	-0.138	0.023
-741.112	-67.705	-0.221	0.087
-740.098	-116.214	0.277	0.052
-739.083	-18.093	-0.173	0.109
-738.069	-162.847	-0.409	-0.020
-737.054	-200.000	0.020	-0.194
-736.039	-48.252	-0.170	0.082
-735.025	-119.813	-0.357	0.062
-734.010	800.000	-0.018	-0.062
-732.996	-75.314	0.158	-0.057
-731.981	800.000	-0.136	0.395
-730.966	414.927	0.027	-0.058
-729.952	-85.607	-0.085	0.027
-728.937	-119.822	0.277	-0.048
-727.923	233.711	0.063	0.104
-726.908	312.569	-0.138	-0.261
-725.894	-116.525	-0.342	0.063
-724.879	543.788	-0.022	-0.052
-723.864	54.251	-0.214	0.207
-722.850	-43.433	-0.072	0.037
-721.835	-200.000	0.019	-0.127
-720.821	548.249	-0.057	-0.137
-719.806	-200.000	0.001	0.218
-718.791	800.000	-0.062	0.186
-717.777	-52.679	0.187	0.087
-716.762	-25.985	-0.237	0.140
-715.748	-200.000	0.036	-0.284
-714.733	-115.450	-0.298	0.056
-713.718	101.263	-0.044	-0.051
-712.704	-126.094	-0.295	-0.044
-711.689	-59.805	0.282	0.121
-710.675	-76.601	-0.178	-0.063
-709.660	-177.149	0.263	0.007
-708.645	579.188	0.134	-0.330
-707.631	-159.171	-0.215	-0.012
-706.616	-132.039	0.036	0.005
-705.602	-200.000	-0.015	-0.358
-704.587	-50.197	0.096	-0.045
-703.572	305.594	0.106	0.198
-702.558	-151.428	-0.165	0.012
-701.543	143.761	-0.119	-0.160
-700.529	42.293	0.031	-0.029
-699.514	-72.967	0.355	0.131
-698.499	102.840	0.299	-0.351
-697.485	800.000	-0.028	0.123
-696.470	-146.095	0.311	0.027
-695.456	89.032	-0.160	0.178
-694.441	-68.495	0.167	-0.065
-693.426	-47.561	0.040	-0.019
-692.412	68.717	-0.114	-0.117
-691.397	-152.336	0.174	-0.013
-690.383	24.508	-0.223	-0.185
-689.368	-109.406	-0.258	-0.055
-688.354	-124.140	-0.216	-0.034
-687.339	-35.103	0.135	-0.074
-686.324	-81.861	-0.056	-0.018
-685.310	800.000	-0.084	0.301
-684.295	-200.000	-0.023	0.160
-683.281	-93.977	0.145	-0.040
-682.266	371.779	-0.122	-0.249
-681.251	-26.930	0.307	-0.180
-680.237	-200.000	-0.027	-0.149
-679.222	390.617	0.114	0.236
-678.208	-76.891	-0.272	0.095
-677.193	247.798	-0.093	0.158
-676.178	-131.725	-0.182	0.024
-675.164	-85.532	0.222	0.069
-674.149	-72.855	0.210	-0.078
-673.135	-147.694	-0.159	-0.013
-672.120	90.885	0.303	-0.340
-671.105	-57.677	-0.317	-0.139
-670.091	-158.247	-0.155	0.009
-669.076	650.994	0.041	0.104
-668.062	214.421	-0.027	-0.042
-667.047	-114.032	-0.171	-0.033
-666.032	69.917	-0.226	-0.234
-665.018	-70.482	0.230	-0.087
-664.003	-148.741	0.260	0.021
-662.989	800.000	0.035	-0.101
-661.974	-200.000	0.010	-0.073
-660.959	-96.439	-0.078	0.021
-659.945	-191.089	-0.115	-0.001
-658.930	-128.742	0.139	-0.020
-657.916	800.000	-0.071	-0.259
-656.901	46.171	-0.158	-0.147
-655.886	-99.567	-0.043	0.011
-654.872	-200.000	0.022	0.105
-653.857	800.000	-0.068	-0.237
-652.843	-200.000	-0.011	-0.139
-651.828	-126.386	0.318	0.047
-650.814	-200.000	-0.024	-0.231
-649.799	87.571	0.157	-0.174
-648.784	211.651	-0.058	-0.091
-647.770	-95.008	-0.395	0.107
-646.755	-143.533	0.031	-0.003
-645.741	-69.263	-0.085	0.033
-644.726	338.542	-0.200	0.390
-643.711	-134.471	0.233	-0.029
-642.697	72.175	-0.399	0.416
-641.682	-17.832	-0.069	-0.043
-640.668	-89.738	-0.429	0.126
-639.653	-70.072	-0.425	0.162
-638.638	96.513	-0.212	0.243
-637.624	-200.000	0.075	-0.460
-636.609	154.450	-0.109	0.149
-635.595	-200.000	-0.010	0.081
-634.580	-47.803	0.183	0.089
-633.565	800.000	0.009	-0.034
-632.551	-142.997	0.169	0.016
-631.536	800.000	0.032	0.139
-630.522	-200.000	0.019	-0.188
-629.507	341.713	0.048	-0.094
-628.492	521.938	0.015	0.036
-627.478	800.000	-0.154	0.450
-626.463	374.459	-0.009	-0.017
-625.449	168.575	-0.264	0.375
-624.434	67.953	-0.203	0.208
-623.419	173.473	0.236	0.340
-622.405	-1.546	-0.043	-0.030
-621.390	46.082	-0.267	0.247
-620.376	-200.000	0.009	-0.243
-619.361	41.250	-0.070	0.063
-618.346	194.768	-0.129	-0.196
-617.332	-0.269	0.089	0.063
-616.317	18.402	0.132	-0.105
-615.303	-6.267	-0.054	-0.037
-614.288	762.715	0.063	0.171
-613.273	115.429	-0.113	-0.138
-612.259	-75.536	0.293	-0.104
-611.244	-14.341	-0.150	-0.097
-610.230	800.000	-0.039	-0.132
-609.215	-52.918	-0.191	0.088
-608.201	-147.070	-0.179	-0.015
-607.186	201.041	0.075	-0.115
-606.171	800.000	0.070	-0.258
-605.157	45.337	0.092	-0.085
-604.142	130.359	0.089	-0.114
-603.128	-200.000	0.057	-0.342
-602.113	-130.510	0.173	-0.023
-601.098	113.728	-0.275	0.334
-600.084	-48.304	0.121	0.058
-599.069	463.684	0.026	0.058
-598.055	-200.000	0.064	0.296
-597.040	208.572	-0.093	-0.146
-596.025	800.000	-0.131	-0.380
-595.011	163.471	0.151	0.212
-593.996	-107.804	0.243	0.053
-592.982	-4.197	0.238	-0.165
-591.967	-60.010	0.199	-0.085
-590.952	330.240	0.013	0.025
-589.938	473.885	0.137	0.308
-588.923	88.901	0.067	-0.075
-587.909	-123.110	-0.145	0.023
-586.894	99.491	0.112	-0.130
-585.879	18.199	-0.103	-0.082
-584.865	0.687	0.223	-0.160
-583.850	-168.992	0.041	0.002
-582.836	115.276	0.249	-0.304
-581.821	-155.834	-0.162	0.010
-580.806	-200.000	0.022	0.291
-579.792	39.880	0.224	-0.201
-578.777	-97.494	0.380	-0.099
-577.763	-200.000	0.043	-0.340
-576.748	45.406	-0.139	0.128
-575.733	741.122	-0.031	-0.083
-574.719	45.091	0.156	-0.144
-573.704	-107.933	0.164	-0.036
-572.690	11.653	0.181	0.139
-571.675	16.342	0.146	0.115
-570.661	-90.537	0.325	-0.094
-569.646	-200.000	0.017	-0.194
-568.631	-79.173	-0.183	-0.062
-567.617	-200.000	0.047	-0.373
-566.602	-188.439	-0.214	0.003
-565.588	-25.746	-0.224	0.132
-564.573	489.567	-0.081	0.184
-563.558	144.791	-0.098	0.130
-562.544	-200.000	-0.035	-0.237
-561.529	248.561	0.039	0.065
-560.515	-38.045	-0.427	0.226
-559.500	800.000	-0.037	-0.115
-558.485	-89.568	-0.282	-0.082
-557.471	180.638	0.139	-0.204
-556.456	-117.196	0.115	0.021
-555.442	21.111	-0.124	-0.100
-554.427	-112.327	-0.281	0.056
-553.412	440.369	-0.160	-0.349
-552.398	134.856	-0.182	-0.236
-551.383	-200.000	0.006	0.223
-550.369	-49.149	0.225	0.107
-549.354	485.039	0.133	0.301
-548.339	126.346	-0.079	-0.100
-547.325	95.832	0.114	0.129
-546.310	-200.000	-0.004	-0.044
-545.296	280.691	0.021	-0.038
-544.281	-200.000	0.029	-0.380
-543.266	11.610	0.238	0.182
-542.252	-200.000	-0.029	0.126
-541.237	109.647	0.112	-0.134
-540.223	45.668	-0.066	0.061
-539.208	-160.955	0.082	-0.004
-538.193	798.106	-0.003	-0.009
-537.179	1.075	0.181	-0.129
-536.164	35.700	-0.308	-0.269
-535.150	392.178	0.150	0.310
-534.135	387.231	0.099	0.204
-533.121	-200.000	0.034	-0.253
-532.106	800.000	-0.077	0.233
-531.091	34.064	0.099	0.086
-530.077	-76.279	-0.039	-0.014
-529.062	153.935	-0.009	-0.012
-528.048	-26.259	0.234	-0.137
-527.033	42.160	0.076	-0.069
-526.018	32.797	0.248	0.214
-525.004	-147.184	-0.292	-0.025
-523.989	-141.705	0.141	-0.014
-522.975	340.585	-0.041	0.080
-521.960	101.737	-0.141	-0.164
-520.945	102.952	-0.151	-0.176
-519.931	-200.000	-0.007	-0.149
-518.916	19.531	0.151	0.121
-517.902	199.385	-0.024	0.037
-516.887	9.586	-0.264	-0.199
-515.872	69.378	0.068	0.069
-514.858	-200.000	0.056	0.273
-513.843	-108.743	-0.254	0.054
-512.829	-200.000	-0.008	0.145
-511.814	800.000	-0.008	-0.029
-510.799	326.268	0.127	-0.241
-509.785	800.000	-0.040	-0.127
-508.770	-43.804	-0.223	0.112
-507.756	89.016	0.178	-0.197
-506.741	6.260	-0.250	0.184
-505.726	239.520	-0.162	-0.268
-504.712	-151.855	0.406	0.030
-503.697	205.766	-0.084	-0.129
-502.683	117.297	0.076	0.093
-501.668	-115.207	-0.166	0.031
-500.653	654.514	0.089	0.226
-499.639	69.676	0.167	-0.171
-498.624	525.259	-0.096	0.226
-497.610	148.421	-0.084	-0.113
-496.595	800.000	-0.113	-0.328
-495.581	-200.000	0.004	-0.085
-494.566	22.392	0.200	0.163
-493.551	26.750	-0.225	0.188
-492.537	800.000	0.013	-0.054
-491.522	-200.000	-0.028	0.186
-490.508	366.595	-0.051	-0.102
-489.493	413.786	-0.105	0.222
-488.478	154.907	-0.037	0.051
-487.464	28.085	-0.303	-0.254
-486.449	87.154	-0.137	-0.151
-485.435	-144.443	0.039	0.004
-484.420	-42.034	-0.267	0.136
-483.405	36.539	0.142	-0.124
-482.391	69.295	-0.121	-0.123
-481.376	-200.000	0.031	0.468
-480.362	800.000	-0.062	0.240
-479.347	-59.153	0.097	-0.042
-478.332	68.513	0.074	0.076
-477.318	145.507	0.058	0.077
-476.303	-147.739	0.036	0.003
-475.289	-200.000	0.030	-0.183
-474.274	140.264	0.089	-0.117
-473.259	0.903	-0.178	-0.126
-472.245	-106.094	0.118	0.026
-471.230	800.000	-0.068	-0.295
-470.216	81.714	0.261	-0.280
-469.201	-30.871	0.084	-0.047
-468.186	-200.000	0.006	0.169
-467.172	-50.111	-0.205	0.096
-466.157	800.000	-0.028	-0.108
-465.143	-50.327	-0.161	0.076
-464.128	-200.000	0.014	0.148
-463.113	-200.000	0.065	0.322
-462.099	-181.264	0.263	-0.005
-461.084	292.898	-0.183	-0.331
-460.070	466.726	0.118	-0.263
-459.055	535.633	-0.029	-0.068
-458.040	-200.000	0.013	0.097
-457.026	-200.000	0.026	0.179
-456.011	-13.573	0.215	0.138
-454.997	-200.000	-0.012	-0.140
-453.982	-75.437	0.107	0.038
-452.968	-39.877	0.028	0.015
-451.953	-85.216	0.282	0.088
-450.938	38.633	0.060	0.053
-449.924	314.074	-0.040	0.075
-448.909	-2.113	-0.185	-0.129
-447.895	-87.824	0.359	-0.107
-446.880	52.995	-0.057	-0.054
-445.865	-200.000	-0.037	0.166
-444.851	207.338	0.241	0.373
-443.836	-126.028	0.216	-0.032
-442.822	-51.127	0.238	0.111
-441.807	-46.799	-0.185	0.090
-440.792	-85.517	0.211	0.065
-439.778	-110.942	0.061	-0.012
-438.763	138.940	0.057	0.075
-437.749	-16.155	0.332	0.209
-436.734	-200.000	0.076	0.366
-435.719	-11.726	-0.291	0.189
-434.705	-179.763	0.222	0.005
-433.690	800.000	-0.087	-0.263
-432.676	-200.000	-0.005	-0.031
-431.661	338.541	-0.093	-0.180
-430.646	143.853	-0.038	-0.051
-429.632	800.000	-0.033	-0.103
-428.617	-200.000	0.001	0.137
-427.603	-200.000	-0.029	-0.364
-426.588	162.462	0.099	0.137
-425.573	-118.744	-0.069	-0.012
-424.559	-200.000	-0.032	-0.160
-423.544	228.253	-0.117	0.189
-422.530	95.906	-0.159	0.180
-421.515	-200.000	0.046	0.322
-420.500	-109.090	-0.234	-0.049
-419.486	-19.828	-0.152	0.093
-418.471	159.389	0.250	0.345
-417.457	-180.210	0.351	0.007
-416.442	614.152	-0.026	0.064
-415.428	800.000	-0.015	-0.053
-414.413	80.478	0.057	0.061
-413.398	-176.542	0.129	0.003
-412.384	-200.000	0.036	0.256
-411.369	-17.342	0.201	0.125
-410.355	23.050	0.148	0.120
-409.340	-147.509	-0.152	-0.013
-408.325	650.967	0.073	-0.184
-407.311	-58.036	0.129	-0.056
-406.296	159.647	-0.116	0.161
-405.282	-200.000	0.076	0.432
-404.267	-17.348	-0.193	-0.121
-403.252	18.551	0.154	-0.122
-402.238	163.158	0.126	0.176
-401.223	673.815	-0.104	0.268
-400.209	165.917	0.080	-0.112
-399.194	-20.542	-0.023	0.014
-398.179	800.000	0.163	0.454
-397.165	234.069	0.061	-0.100
-396.150	800.000	-0.110	0.358
-395.136	-151.098	-0.111	-0.008
-394.121	-119.738	-0.120	0.020
-393.106	-200.000	-0.021	-0.098
-392.092	216.987	0.094	-0.148
-391.077	173.391	-0.087	-0.124
-390.063	-181.975	-0.206	-0.004
-389.048	135.812	-0.037	0.048
-388.033	-200.000	-0.004	0.114
-387.019	-200.000	-0.010	-0.084
-386.004	-78.819	-0.204	0.069
-384.990	-51.367	-0.108	-0.050
-383.975	-15.652	0.227	-0.143
-382.960	11.025	-0.174	-0.132
-381.946	-3.021	0.246	-0.170
-380.931	56.458	0.089	0.086
-379.917	-200.000	0.019	0.293
-378.902	-151.595	-0.150	-0.011
-377.888	3.463	-0.170	0.122
-376.873	132.592	0.103	-0.131
-375.858	-53.292	-0.149	-0.067
-374.844	67.577	0.401	0.405
-373.829	671.508	-0.084	0.215
-372.815	162.680	0.026	-0.036
-371.800	91.932	-0.195	-0.218
-370.785	-11.343	-0.235	-0.153
-369.771	54.078	0.197	0.188
-368.756	-80.470	0.246	0.081
-367.742	208.442	-0.082	-0.128
-366.727	-68.240	0.296	-0.114
-365.712	-10.612	-0.040	0.026
-364.698	-200.000	-0.007	0.092
-363.683	-91.905	-0.282	0.079
-362.669	14.095	-0.178	-0.137
-361.654	-71.664	-0.114	0.042
-360.639	99.024	-0.212	-0.242
-359.625	247.572	0.067	0.112
-358.610	48.815	0.125	0.116
-357.596	-118.490	-0.220	0.038
-356.581	-200.000	0.004	0.071
-355.566	-126.304	0.281	0.041
-354.552	69.168	-0.033	0.034
-353.537	-200.000	0.041	0.202
-352.523	-73.680	-0.303	-0.109
-351.508	92.859	0.271	-0.302
-350.493	-1.847	-0.158	-0.110
-349.479	-4.438	-0.152	-0.104
-348.464	14.262	-0.171	0.132
-347.450	-200.000	0.023	-0.150
-346.435	-21.999	-0.077	-0.046
-345.420	800.000	0.077	-0.328
-344.406	-200.000	0.016	-0.113
-343.391	-85.469	0.202	-0.062
-342.377	272.394	0.209	0.365
-341.362	251.480	-0.074	0.124
-340.348	-148.711	0.325	-0.026
-339.333	-200.000	0.018	0.382
-338.318	216.529	-0.065	0.102
-337.304	97.227	0.049	-0.055
-336.289	-36.161	0.075	0.040
-335.275	-40.310	-0.158	-0.081
-334.260	800.000	-0.022	0.063
-333.245	-65.044	-0.455	0.182
-332.231	160.301	-0.125	0.172
-331.216	-62.429	0.380	0.156
-330.202	446.680	0.127	0.276
-329.187	-116.903	-0.168	0.030
-328.172	48.597	0.253	-0.234
-327.158	-200.000	0.024	0.118
-326.143	-200.000	-0.027	0.304
-325.129	10.496	-0.283	0.213
-324.114	556.156	-0.123	-0.292
-323.099	-127.978	-0.179	0.025
-322.085	-200.000	-0.016	0.233
-321.070	469.791	0.266	-0.589
-320.056	190.240	-0.234	-0.347
-319.041	53.021	0.048	-0.046
-318.026	88.588	-0.086	0.095
-317.012	-200.000	-0.034	-0.154
-315.997	800.000	-0.166	-0.505
-314.983	525.607	0.012	-0.027
-313.968	206.805	0.248	0.382
-312.953	150.010	-0.110	0.147
-311.939	8.525	0.442	-0.329
-310.924	81.657	-0.243	-0.260
-309.910	-73.100	0.325	0.118
-308.895	144.717	0.077	0.101
-307.880	-187.555	-0.127	0.002
-306.866	800.000	-0.037	0.125
-305.851	382.542	-0.172	-0.348
-304.837	-60.280	0.127	0.053
-303.822	-86.875	-0.086	0.026
-302.807	-200.000	-0.007	-0.195
-301.793	19.094	-0.138	-0.109
-300.778	-54.352	-0.393	0.176
-299.764	201.629	0.110	-0.168
-298.749	-108.135	-0.290	0.062
-297.735	-16.183	0.216	-0.135
-296.720	-200.000	0.026	0.218
-295.705	-200.000	-0.032	0.286
-294.691	-67.529	0.135	0.052
-293.676	-115.689	-0.114	-0.021
-292.662	70.584	0.224	0.228
-291.647	-65.651	-0.059	-0.023
-290.632	17.899	-0.203	0.160
-289.618	242.135	0.090	-0.148
-288.603	164.606	-0.183	-0.254
-287.589	800.000	0.062	0.263
-286.574	11.854	-0.059	0.045
-285.559	-128.821	-0.471	-0.065
-284.545	-69.499	0.439	-0.166
-283.530	-200.000	-0.003	0.252
-282.516	-61.426	0.083	-0.035
-281.501	-82.650	-0.189	-0.060
-280.486	-98.739	0.249	0.063
-279.472	-200.000	-0.030	0.137
-278.457	685.588	0.066	-0.170
-277.443	-131.348	0.204	0.027
-276.428	99.857	-0.242	-0.276
-275.413	-55.773	-0.244	-0.108
-274.399	-43.297	-0.201	0.100
-273.384	-0.846	0.095	-0.067
-272.370	79.583	-0.048	0.051
-271.355	800.000	0.065	0.216
-270.340	-109.269	0.351	0.073
-269.326	-200.000	-0.000	0.178
-268.311	114.217	-0.275	-0.330
-267.297	-11.810	0.194	0.125
-266.282	-46.771	-0.073	0.035
-265.267	-131.021	-0.238	-0.031
-264.253	-200.000	0.056	0.266
-263.238	168.780	-0.109	0.153
-262.224	800.000	0.055	0.179
-261.209	-5.068	0.078	0.053
-260.195	-200.000	0.066	-0.382
-259.180	-111.081	-0.194	0.039
-258.165	-37.637	0.175	0.092
-257.151	800.000	0.037	-0.137
-256.136	13.235	-0.044	-0.034
-255.122	800.000	-0.033	-0.110
-254.107	-144.127	0.180	0.017
-253.092	107.819	-0.064	0.075
-252.078	21.313	-0.110	0.088
-251.063	-70.222	-0.253	0.095
-250.049	109.584	0.190	0.225
-249.034	-120.436	-0.074	-0.012
-248.019	-200.000	-0.025	-0.225
-247.005	60.885	-0.062	-0.060
-245.990	-200.000	-0.008	-0.252
-244.976	-56.490	0.104	0.045
-243.961	67.392	0.361	-0.363
-242.946	-87.244	-0.368	-0.110
-241.932	-200.000	-0.096	-0.436
-240.917	-52.793	0.114	-0.052
-239.903	-123.763	-0.130	0.020
-238.888	-197.441	-0.092	-0.001
-237.873	150.682	-0.136	-0.182
-236.859	107.134	0.136	-0.160
-235.844	-123.448	-0.114	0.018
-234.830	144.660	0.182	0.239
-233.815	-142.603	-0.171	0.016
-232.800	-200.000	-0.024	0.194
-231.786	78.867	0.270	-0.285
-230.771	282.145	0.105	-0.186
-229.757	473.730	0.157	0.349
-228.742	459.174	0.102	-0.223
-227.727	79.641	-0.157	0.166
-226.713	-200.000	-0.026	-0.141
-225.698	24.392	0.148	-0.120
-224.684	268.683	-0.083	-0.143
-223.669	78.289	0.082	0.087
-222.655	625.809	0.123	0.305
-221.640	-68.586	0.242	-0.092
-220.625	365.822	0.048	-0.095
-219.611	7.764	0.138	-0.101
-218.596	433.676	-0.141	0.301
-217.582	-57.157	0.432	-0.187
-216.567	-200.000	0.009	0.075
-215.552	692.465	0.036	-0.092
-214.538	800.000	-0.020	0.067
-213.523	24.448	0.315	-0.256
-212.509	-175.490	-0.243	-0.007
-211.494	742.430	-0.067	-0.178
-210.479	-45.797	-0.220	-0.107
-209.465	-200.000	0.007	0.187
-208.450	-200.000	-0.032	-0.184
-207.436	-48.282	0.190	-0.090
-206.421	34.345	0.317	-0.272
-205.406	239.702	0.081	-0.133
-204.392	-28.006	0.178	0.101
-203.377	-117.367	0.364	0.065
-202.363	-200.000	-0.041	-0.213
-201.348	163.087	-0.060	0.083
-200.333	-117.724	0.218	-0.039
-199.319	69.763	0.146	-0.148
-198.304	-160.091	0.219	-0.012
-197.290	715.305	-0.076	-0.198
-196.275	-117.305	-0.207	0.037
-195.260	-179.749	-0.126	0.003
-194.246	-200.000	-0.054	-0.269
-193.231	-104.682	-0.245	0.055
-192.217	256.208	-0.076	-0.128
-191.202	-200.000	0.034	-0.271
-190.187	16.959	0.136	-0.106
-189.173	-170.020	-0.203	0.007
-188.158	-54.001	-0.205	0.092
-187.144	-175.665	0.196	-0.005
-186.129	-1.021	-0.131	-0.091
-185.114	-89.675	-0.124	0.036
-184.100	53.537	0.235	-0.221
-183.085	240.037	-0.194	-0.318
-182.071	165.288	-0.036	0.050
-181.056	277.248	0.126	-0.221
-180.042	11.703	-0.168	-0.127
-179.027	-200.000	0.012	-0.191
-178.012	-26.202	-0.091	0.052
-176.998	-41.884	0.195	-0.098
-175.983	63.167	0.173	0.170
-174.969	-168.414	-0.185	-0.007
-173.954	-42.321	-0.265	0.133
-172.939	-6.191	-0.268	-0.180
-171.925	246.587	-0.155	-0.256
-170.910	-200.000	-0.017	0.182
-169.896	2.593	0.136	-0.097
-168.881	322.082	0.115	0.214
-167.866	-200.000	-0.092	0.439
-166.852	800.000	0.025	0.069
-165.837	367.980	0.014	-0.027
-164.823	-200.000	0.024	0.138
-163.808	-177.849	0.371	-0.009
-162.793	-158.146	0.150	0.009
-161.779	11.676	-0.310	0.233
-160.764	800.000	0.105	0.296
-159.750	112.926	-0.131	-0.156
-158.735	-200.000	0.034	-0.188
-157.720	154.622	-0.213	-0.287
-156.706	222.240	0.256	0.404
-155.691	95.651	-0.125	0.140
-154.677	800.000	-0.055	0.204
-153.662	-146.951	-0.363	-0.031
-152.647	-89.049	0.233	-0.068
-151.633	800.000	0.019	-0.053
-150.618	-45.029	0.209	-0.102
-149.604	-19.033	-0.367	-0.224
-148.589	68.376	-0.104	0.104
-147.574	32.447	-0.046	0.039
-146.560	800.000	-0.052	0.168
-145.545	-138.667	0.103	-0.011
-144.531	-85.100	0.258	-0.079
-143.516	-200.000	-0.037	-0.198
-142.502	-121.486	-0.116	-0.019
-141.487	-150.931	-0.085	0.006
-140.472	301.373	0.136	-0.246
-139.458	-26.572	0.240	-0.138
-138.443	5.052	-0.219	0.158
-137.429	800.000	-0.188	0.566
-136.414	800.000	0.101	0.424
-135.399	-63.590	-0.275	0.111
-134.385	541.256	-0.224	-0.523
-133.370	-200.000	0.006	0.253
-132.356	312.257	-0.072	0.133
-131.341	76.439	0.063	0.066
-130.326	600.341	-0.055	0.134
-129.312	143.521	0.169	-0.220
-128.297	452.763	0.020	0.042
-127.283	-49.473	0.300	0.140
-126.268	282.737	-0.112	0.198
-125.253	78.967	0.136	-0.142
-124.239	-200.000	-0.018	-0.227
-123.224	288.567	-0.081	-0.144
-122.210	122.532	0.206	0.253
-121.195	-83.205	0.306	0.096
-120.180	800.000	0.015	0.043
-119.166	-123.251	-0.165	0.026
-118.151	-56.893	0.437	0.189
-117.137	386.249	-0.087	0.175
-116.122	-200.000	-0.018	-0.146
-115.107	-70.663	-0.327	0.121
-114.093	-143.172	0.296	-0.028
-113.078	-157.659	0.307	-0.018
-112.064	2.237	-0.139	-0.099
-111.049	173.805	0.067	0.095
-110.034	-40.413	0.181	0.092
-109.020	-200.000	0.020	-0.100
-108.005	-200.000	-0.035	-0.352
-106.991	-182.635	0.160	0.003
-105.976	34.118	0.208	-0.178
-104.962	-200.000	-0.006	0.096
-103.947	-80.630	-0.401	0.131
-102.932	12.057	0.259	-0.195
-101.918	-31.430	-0.064	-0.035
-100.903	-139.154	0.236	0.025
-99.889	-35.831	0.261	0.138
-98.874	-61.450	-0.311	0.128
-97.859	518.467	-0.098	0.224
-96.845	36.117	0.085	0.073
-95.830	738.775	0.064	-0.168
-94.816	-82.490	-0.143	-0.046
-93.801	121.100	0.097	0.119
-92.786	-82.410	0.105	-0.033
-91.772	-200.000	0.000	-0.078
-90.757	800.000	-0.065	-0.223
-89.743	70.197	0.164	0.166
-88.728	-100.494	0.066	0.016
-87.713	707.411	0.057	0.147
-86.699	5.532	0.190	0.137
-85.684	800.000	0.029	0.117
-84.670	198.072	0.142	0.213
-83.655	-183.965	-0.018	-0.000
-82.640	-76.711	0.170	0.058
-81.626	687.329	0.056	0.143
-80.611	65.134	0.234	0.231
-79.597	800.000	-0.086	-0.326
-78.582	800.000	-0.136	-0.387
-77.567	-126.877	-0.285	0.041
-76.553	-3.890	0.151	0.103
-75.538	270.396	0.042	0.072
-74.524	800.000	0.058	0.211
-73.509	18.650	0.221	-0.173
-72.494	35.054	0.067	-0.058
-71.480	-200.000	0.001	0.169
-70.465	135.470	-0.136	-0.173
-69.451	3.620	-0.090	-0.064
-68.436	137.782	0.111	-0.142
-67.422	-69.669	-0.186	0.070
-66.407	-200.000	-0.072	-0.403
-65.392	-125.207	0.422	-0.063
-64.378	-62.594	0.054	-0.022
-63.363	-200.000	-0.004	-0.019
-62.349	365.902	-0.121	0.238
-61.334	55.679	-1.220	-1.156
-60.319	44.265	0.725	0.651
-59.305	369.072	-0.516	-1.020
-58.290	168.005	0.731	1.017
-57.276	567.060	0.518	1.228
-56.261	-200.000	118.258	643.977
-55.246	478.047	1557.754	3446.736
-54.232	173.503	2724.677	3842.382
-53.217	104.704	2155.411	2482.828
-52.203	37.696	1586.878	1377.196
-51.188	29.348	1330.707	1105.061
-50.173	26.467	1291.908	1056.010
-49.159	52.041	1351.811	1258.635
-48.144	50.853	1364.001	1262.850
-47.130	29.536	1317.679	1095.186
-46.115	26.033	1300.623	1060.413
-45.100	25.913	1295.417	1055.424
-44.086	25.844	1292.796	1052.845
-43.071	25.813	1290.164	1050.475
-42.057	25.916	1287.840	1049.142
-41.042	25.823	1286.933	1047.821
-40.027	25.904	1285.155	1046.802
-39.013	25.928	1282.975	1045.123
-37.998	25.864	1280.976	1043.087
-36.984	25.961	1279.335	1042.269
-35.969	25.917	1277.896	1040.799
-34.954	26.024	1275.586	1039.496
-33.940	26.021	1274.971	1038.932
-32.925	26.078	1272.820	1037.467
-31.911	26.064	1271.703	1036.439
-30.896	25.970	1270.743	1035.072
-29.881	26.080	1269.052	1034.286
-28.867	26.141	1267.353	1033.209
-27.852	26.069	1266.334	1031.923
-26.838	26.244	1264.582	1031.457
-25.823	26.101	1263.211	1029.482
-24.809	26.066	1262.472	1028.637
-23.794	26.018	1260.796	1026.957
-22.779	25.969	1259.919	1025.925
-21.765	26.006	1258.753	1025.144
-20.750	26.084	1257.124	1024.220
-19.736	26.062	1255.886	1023.048
-18.721	26.080	1254.466	1021.952
-17.706	25.928	1253.942	1020.621
-16.692	25.969	1252.294	1019.470
-15.677	26.052	1251.079	1018.911
-14.663	26.020	1249.754	1017.615
-13.648	25.901	1248.862	1016.173
-12.633	25.985	1247.483	1015.487
-11.619	25.866	1247.386	1014.698
-10.604	26.001	1246.097	1014.369
-9.590	26.108	1245.045	1014.071
-8.575	25.941	1244.640	1012.762
-7.560	25.820	1244.060	1011.572
-6.546	25.933	1243.093	1011.382
-5.531	25.964	1241.896	1010.542
-4.517	25.929	1241.179	1009.717
-3.502	25.905	1239.855	1008.468
-2.487	26.034	1238.754	1008.253
-1.473	25.783	1235.257	1003.967
-0.458	24.454	1220.433	984.552
0.556	22.885	1203.832	948.853
1.571	19.241	1210.096	933.993
2.586	18.367	1224.781	940.444
3.600	18.126	1212.711	929.781
4.615	14.137	1142.333	855.277
5.629	7.285	1071.620	769.104
6.644	4.522	1053.845	743.084
7.659	4.169	1051.410	739.617
8.673	3.889	1050.584	737.632
9.688	3.942	1049.154	736.817
10.702	4.416	1047.369	737.753
11.717	8.730	1053.000	762.222
12.731	16.381	1063.485	806.401
13.746	21.155	1069.390	833.663
14.761	22.204	1070.207	839.235
15.775	21.440	1068.736	834.367
16.790	20.469	1066.885	828.222
17.804	19.909	1065.542	824.436
18.819	19.597	1064.516	822.086
19.834	19.616	1064.182	821.847
20.848	19.492	1063.515	820.667
21.863	19.282	1062.880	819.107
22.877	19.188	1061.936	817.861
23.892	19.152	1061.016	816.910
24.907	19.270	1059.852	816.501
25.921	19.204	1058.969	815.434
26.936	19.126	1058.203	814.406
27.950	19.079	1056.604	812.879
28.965	19.215	1055.048	812.252
29.980	19.434	1053.766	812.226
30.994	19.562	1052.612	811.866
32.009	19.475	1052.287	811.134
33.023	19.443	1051.123	810.015
34.038	19.453	1049.740	808.924
35.053	19.150	1049.278	807.077
36.067	19.284	1048.391	806.951
37.082	19.277	1048.007	806.553
38.096	19.497	1046.852	806.619
39.111	19.455	1046.087	805.760
40.126	19.154	1045.073	803.505
41.140	18.950	1043.161	801.016
42.155	18.738	1042.141	799.172
43.169	18.791	1041.029	798.497
44.184	18.877	1039.507	797.656
45.199	18.818	1039.167	797.050
46.213	18.982	1038.196	796.995
47.228	19.126	1037.780	797.274
48.242	19.216	1036.486	796.623
49.257	19.253	1035.390	795.885
50.271	19.353	1034.977	795.957
51.286	19.389	1034.389	795.602
52.301	19.381	1032.781	794.258
53.315	19.118	1032.128	792.474
54.330	19.084	1030.858	791.274
55.344	18.894	1030.186	789.816
56.359	19.010	1029.378	789.657
57.374	18.930	1028.573	788.601
58.388	18.812	1027.278	787.000
59.403	18.584	1027.087	785.738
60.417	18.593	1026.638	785.366
61.432	18.689	1025.309	784.719
62.447	18.653	1024.260	783.684
63.461	18.551	1023.653	782.682
64.476	18.508	1022.462	781.506
65.490	18.599	1021.253	780.931
66.505	18.623	1021.342	781.039
67.520	18.644	1020.728	780.592
68.534	18.611	1019.519	779.450
69.549	18.518	1019.352	778.833
70.563	18.404	1018.201	777.364
71.578	18.323	1016.973	775.994
72.593	18.322	1016.133	775.280
73.607	18.219	1016.025	774.661
74.622	18.251	1015.639	774.444
75.636	18.421	1014.277	774.105
76.651	18.343	1014.163	773.594
77.666	18.550	1012.982	773.561
78.680	18.477	1012.363	772.693
79.695	18.505	1012.384	772.766
80.709	18.653	1011.592	772.759
81.724	18.965	1010.793	773.483
82.739	18.748	1010.362	772.107
83.753	19.233	1009.315	773.420
84.768	19.503	1009.142	774.428
85.782	19.712	1008.330	774.675
86.797	19.567	1007.153	773.051
87.812	19.358	1006.392	771.465
88.826	19.378	1005.653	770.920
89.841	19.511	1004.435	770.513
90.855	19.538	1003.810	770.085
91.870	19.598	1003.579	770.108
92.884	19.494	1002.211	768.528
93.899	19.549	1001.443	768.114
94.914	19.657	1000.772	768.013
95.928	19.535	999.413	766.359
96.943	19.405	999.127	765.494
97.957	19.310	998.063	764.189
98.972	19.326	996.965	763.350
99.987	19.483	996.259	763.440
101.001	19.403	995.128	762.152
102.016	19.390	994.275	761.376
103.030	19.434	993.426	760.848
104.045	19.449	992.712	760.301
105.060	19.332	991.689	758.936
106.074	18.981	990.842	756.677
107.089	18.684	989.654	754.398
108.103	18.630	988.888	753.508
109.118	18.643	987.550	752.482
110.133	18.624	986.918	751.848
111.147	18.705	985.600	751.131
112.162	18.678	985.254	750.682
113.176	18.827	984.672	750.826
114.191	18.810	984.651	750.670
115.206	18.777	983.281	749.412
116.220	18.699	982.830	748.664
117.235	18.807	981.297	747.900
118.249	18.696	980.536	746.770
119.264	18.578	980.157	745.904
120.279	18.566	978.917	744.841
121.293	18.526	978.294	744.129
122.308	18.450	977.273	742.955
123.322	18.306	976.084	741.361
124.337	18.332	975.098	740.663
125.352	18.431	974.275	740.397
126.366	18.471	972.960	739.506
127.381	18.414	971.896	738.386
128.395	18.464	971.563	738.282
129.410	18.565	970.714	738.007
130.424	18.512	970.238	737.353
131.439	18.766	969.526	737.836
132.454	18.792	968.965	737.459
133.468	18.858	968.076	736.997
134.483	18.702	967.112	735.531
135.497	18.976	965.953	735.757
136.512	18.877	965.329	734.794
137.527	18.758	965.098	734.042
138.541	18.865	964.147	733.710
139.556	18.911	963.433	733.299
140.570	19.079	963.227	733.797
141.585	19.334	962.295	734.106
142.600	19.417	960.903	733.334
143.614	19.539	960.482	733.463
144.629	19.470	959.667	732.483
145.643	19.473	958.780	731.754
146.658	19.156	957.529	729.394
147.673	18.979	956.623	727.887
148.687	19.009	955.650	727.212
149.702	18.954	954.708	726.199
150.716	18.920	953.732	725.248
151.731	18.845	953.579	724.750
152.746	19.003	952.334	724.406
153.760	19.035	952.091	724.290
154.775	19.258	951.436	724.667
155.789	19.256	950.962	724.234
156.804	19.295	950.215	723.765
157.819	19.360	949.597	723.502
158.833	19.404	949.235	723.347
159.848	19.690	948.078	723.598
160.862	19.476	947.027	721.839
161.877	19.159	945.566	719.336
162.892	18.996	944.600	717.859
163.906	18.937	943.506	716.716
164.921	18.910	943.118	716.245
165.935	19.129	942.055	716.289
166.950	19.056	941.592	715.568
167.964	19.090	940.320	714.681
168.979	18.945	939.577	713.447
169.994	19.033	938.652	713.051
171.008	19.245	937.979	713.354
172.023	19.371	937.747	713.636
173.037	19.562	937.070	713.846
174.052	19.246	936.239	711.842
175.067	19.035	935.169	710.099
176.081	18.891	934.582	708.994
177.096	18.873	934.237	708.597
178.110	18.883	933.747	708.202
179.125	18.939	933.288	708.022
180.140	18.997	932.660	707.720
181.154	19.227	932.230	708.280
182.169	19.537	931.532	708.958
183.183	19.522	930.990	708.422
184.198	19.409	930.398	707.444
185.213	19.486	929.784	707.234
186.227	19.498	929.154	706.737
187.242	19.623	928.282	706.523
188.256	19.888	927.811	707.187
189.271	19.743	926.742	705.716
190.286	19.378	925.909	703.532
191.300	18.733	925.229	700.321
192.315	18.770	924.277	699.689
193.329	18.852	923.794	699.597
194.344	18.996	923.287	699.736
195.359	19.180	923.092	700.277
196.373	19.413	922.105	700.412
197.388	19.460	922.173	700.593
198.402	19.755	921.649	701.328
199.417	19.867	921.297	701.452
200.432	19.891	920.674	701.015
201.446	19.999	920.358	701.148
202.461	20.160	919.670	701.214
203.475	19.976	919.159	700.018
204.490	19.758	917.590	697.883
205.504	19.587	917.192	696.827
206.519	19.584	915.855	695.736
207.534	19.613	915.103	695.222
208.548	19.546	915.098	694.885
209.563	19.620	914.498	694.666
210.577	19.613	913.681	693.957
211.592	19.937	912.786	694.515
212.607	19.981	912.640	694.519
213.621	19.834	911.737	693.181
214.636	19.828	911.016	692.548
215.650	19.852	910.172	691.942
216.665	19.961	909.736	691.985
217.680	20.059	909.145	691.863
218.694	20.174	908.681	691.912
219.709	20.006	908.475	691.022
220.723	19.938	907.686	690.088
221.738	19.885	907.094	689.369
222.753	19.986	905.805	688.730
223.767	20.025	905.854	688.859
224.782	20.189	905.115	688.886
225.796	20.373	904.350	688.976
226.811	20.015	904.334	687.482
227.826	19.843	902.896	685.646
228.840	19.891	902.112	685.180
229.855	19.837	901.322	684.306
230.869	19.778	900.892	683.685
231.884	19.822	900.277	683.330
232.899	19.735	899.151	682.072
233.913	19.700	898.310	681.236
234.928	19.513	897.947	680.165
235.942	19.517	897.278	679.614
236.957	19.594	896.643	679.374
237.972	19.577	895.821	678.624
238.986	19.523	895.430	678.057
240.001	19.559	895.122	677.904
241.015	19.755	894.396	678.065
242.030	19.790	894.359	678.114
243.045	19.785	893.691	677.526
244.059	19.954	892.652	677.342
245.074	19.970	892.077	676.908
246.088	20.038	891.606	676.757
247.103	20.126	891.270	676.785
248.117	20.176	891.478	677.078
249.132	20.728	890.670	678.558
250.147	20.937	890.178	678.938
251.161	20.961	889.462	678.423
252.176	20.947	888.668	677.704
253.190	20.990	888.583	677.747
254.205	21.038	887.667	677.172
255.220	20.980	886.833	676.251
256.234	20.884	886.335	675.441
257.249	20.807	885.855	674.716
258.263	20.859	884.735	674.006
259.278	20.867	884.264	673.617
260.293	20.985	884.019	673.826
261.307	21.023	883.376	673.423
262.322	20.911	882.852	672.532
263.336	20.991	882.209	672.291
264.351	21.127	881.307	672.069
265.366	20.998	881.052	671.321
266.380	21.095	880.114	670.919
267.395	20.827	879.347	669.245
268.409	20.848	878.732	668.798
269.424	20.749	877.697	667.573
270.439	20.824	876.726	667.059
271.453	20.491	876.284	665.388
272.468	20.717	875.561	665.646
273.482	20.708	874.836	665.002
274.497	20.583	874.620	664.304
275.512	20.679	873.916	664.077
276.526	20.553	873.950	663.562
277.541	20.713	873.261	663.588
278.555	21.099	872.385	664.335
279.570	21.195	872.102	664.427
280.585	21.103	871.264	663.381
281.599	20.892	870.328	661.805
282.614	20.571	869.839	660.159
283.628	20.703	869.445	660.302
284.643	20.844	868.494	660.055
285.657	20.638	868.250	659.031
286.672	20.737	867.257	658.593
287.687	20.846	866.678	658.507
288.701	20.850	866.187	658.092
289.716	20.878	865.643	657.724
290.730	20.959	864.932	657.434
291.745	20.987	864.235	656.951
292.760	21.134	863.790	657.108
293.774	21.196	863.674	657.195
294.789	21.350	862.435	656.771
295.803	20.931	861.761	654.628
296.818	20.760	861.248	653.536
297.833	20.855	860.541	653.300
298.847	21.058	859.743	653.394
299.862	21.106	859.413	653.268
300.876	21.010	859.215	652.700
301.891	21.309	858.688	653.359
302.906	21.475	858.174	653.533
303.920	21.447	858.054	653.276
304.935	21.684	857.078	653.359
305.949	21.487	856.613	652.215
306.964	21.313	855.931	650.988
307.979	21.438	855.127	650.785
308.993	21.418	854.829	650.426
310.008	21.289	854.576	649.697
311.022	21.150	853.751	648.495
312.037	21.133	853.010	647.813
313.052	20.933	852.302	646.476
314.066	20.777	851.553	645.273
315.081	20.800	851.227	645.052
316.095	20.862	850.556	644.717
317.110	20.937	849.825	644.383
318.125	20.824	849.385	643.575
319.139	20.799	849.128	643.231
320.154	21.005	848.171	643.207
321.168	21.046	847.688	642.937
322.183	21.041	847.547	642.754
323.197	21.009	846.980	642.148
324.212	21.183	846.169	642.117
325.227	21.055	845.598	641.158
326.241	20.893	845.127	640.149
327.256	20.847	844.940	639.783
328.270	21.106	843.558	639.629
329.285	20.940	842.693	638.309
330.300	21.053	842.277	638.347
331.314	21.050	841.995	638.067
332.329	21.288	841.584	638.570
333.343	21.325	841.507	638.591
334.358	21.342	841.081	638.274
335.373	21.298	840.842	637.873
336.387	21.314	840.793	637.840
337.402	21.497	840.542	638.258
338.416	21.787	839.963	638.819
339.431	21.978	839.936	639.441
340.446	21.938	839.226	638.698
341.460	21.998	839.128	638.784
342.475	21.956	838.745	638.284
343.489	21.998	838.428	638.138
344.504	22.048	837.651	637.670
345.519	22.201	837.465	638.029
346.533	22.071	836.388	636.680
347.548	21.809	835.707	635.156
348.562	21.638	835.122	634.038
349.577	21.335	834.666	632.537
350.592	21.338	833.652	631.723
351.606	21.453	833.143	631.699
352.621	21.387	832.294	630.760
353.635	21.586	831.548	630.858
354.650	21.529	831.575	630.616
355.665	21.684	830.713	630.464
356.679	21.746	830.153	630.205
357.694	21.692	829.629	629.560
358.708	21.795	828.714	629.178
359.723	21.707	828.478	628.629
360.738	21.710	827.893	628.139
361.752	22.018	827.057	628.553
362.767	21.844	827.136	627.934
363.781	22.142	826.616	628.549
364.796	22.292	826.044	628.596
365.810	22.467	825.891	629.049
366.825	22.346	825.470	628.239
367.840	22.292	824.909	627.565
368.854	22.128	824.248	626.422
369.869	22.095	823.785	625.896
370.883	22.124	823.432	625.675
371.898	22.193	823.144	625.649
372.913	22.308	822.989	625.885
373.927	22.124	822.019	624.437
374.942	22.191	821.629	624.322
375.956	22.240	821.477	624.327
376.971	22.532	820.803	624.794
377.986	22.615	820.570	624.857
379.000	22.519	819.934	623.977
380.015	22.443	819.634	623.425
381.029	22.453	818.879	622.829
382.044	22.618	818.028	622.710
383.059	22.601	817.591	622.264
384.073	22.293	817.117	620.760
385.088	22.202	816.000	619.534
386.102	22.000	815.563	618.440
387.117	22.147	814.741	618.277
388.132	22.019	814.412	617.521
389.146	22.209	813.729	617.616
390.161	22.332	813.744	618.005
391.175	22.513	812.969	617.997
392.190	22.289	812.672	616.933
393.205	22.274	811.543	615.967
394.219	22.139	811.718	615.573
395.234	22.054	811.319	614.920
396.248	21.944	810.360	613.753
397.263	21.788	810.169	613.009
398.278	21.870	809.511	612.742
399.292	21.871	809.096	612.380
400.307	21.876	808.678	612.024
401.321	22.026	808.121	612.073
402.336	22.147	807.786	612.184
403.350	22.348	807.533	612.641
404.365	22.326	807.112	612.188
405.380	22.593	806.977	612.963
406.394	22.655	806.507	612.765
407.409	22.649	806.104	612.383
408.423	22.735	805.951	612.511
409.438	22.933	805.303	612.653
410.453	22.931	805.002	612.363
411.467	22.823	804.701	611.707
412.482	22.986	804.519	612.079
413.496	23.092	804.012	612.004
414.511	22.992	803.344	611.096
415.526	22.882	803.165	610.526
416.540	22.764	802.275	609.387
417.555	22.912	802.083	609.698
418.569	22.820	801.343	608.765
419.584	22.985	801.038	609.047
420.599	22.994	800.589	608.685
421.613	165.679	1371.144	1797.375
422.628	144.016	1454.266	1797.461
