DTS Sentinel unit serial number:	SN413079Multiplexer serial number:	ORYXHardware model number:	OX4-SRSoftware version number:	ORYX F/W v4.00 Oryx Data Collector v3.7.2.0data status	okinstallation	princeton_trtdifferential loss correction	single-endedforward channel	channel 1reverse channel	N/Adate	2019/09/11time	22:00:11forward acquisition time	60.00reverse acquisition time	0.00gamma	496.2192k internal	0.2312k external	0.2312temperature offset calibration	1.0056default loss term (dB/km)	0.3790temperature slope calibration	1.0000multiplexer offset coefficient	1.0000multiplexer slope coefficient	1.0000fibre end	0.00T internal ref (°C)	35.52T ext. ref 1 (°C)	1.73T ext. ref 2 (°C)	29.54length (m)	temperature (°C)	Stokes	anti-Stokes-747.200	-80.997	0.172	0.058
-746.185	-200.000	0.011	0.227
-745.171	-105.350	0.404	0.093
-744.156	-69.872	-0.196	0.076
-743.142	388.017	0.136	-0.285
-742.127	800.000	-0.031	0.114
-741.112	-148.631	-0.025	-0.002
-740.098	-149.248	-0.404	0.033
-739.083	9.543	-0.237	-0.182
-738.069	-200.000	-0.008	-0.220
-737.054	-88.546	-0.482	0.146
-736.039	-38.397	-0.463	0.249
-735.025	-163.801	-0.359	-0.017
-734.010	-77.504	-0.062	0.022
-732.996	16.350	-0.096	-0.077
-731.981	409.857	-0.102	-0.220
-730.966	-130.675	0.157	-0.021
-729.952	-184.469	-0.163	0.003
-728.937	598.226	0.066	-0.167
-727.923	51.633	0.171	0.164
-726.908	-94.495	-0.282	0.078
-725.894	-127.011	-0.137	-0.020
-724.879	-18.879	-0.255	0.161
-723.864	-163.470	-0.176	0.008
-722.850	426.638	-0.043	0.094
-721.835	196.671	-0.082	0.127
-720.821	-156.131	-0.383	-0.024
-719.806	-99.361	0.161	0.041
-718.791	-52.048	-0.250	-0.118
-717.777	-200.000	-0.002	-0.019
-716.762	800.000	0.040	-0.146
-715.748	-84.771	-0.199	-0.064
-714.733	-200.000	-0.002	-0.171
-713.718	-200.000	-0.013	-0.121
-712.704	601.570	0.144	-0.364
-711.689	104.216	-0.164	-0.195
-710.675	-200.000	-0.010	0.204
-709.660	-126.177	0.320	-0.049
-708.645	73.010	0.333	-0.353
-707.631	-40.540	0.192	0.101
-706.616	-32.147	-0.295	-0.167
-705.602	-132.642	0.050	-0.007
-704.587	20.102	-0.079	0.065
-703.572	155.529	0.052	0.073
-702.558	-200.000	-0.014	-0.176
-701.543	22.126	-0.119	0.099
-700.529	144.027	0.112	-0.151
-699.514	-200.000	0.049	-0.231
-698.499	-81.154	-0.231	-0.077
-697.485	-200.000	0.017	0.285
-696.470	-59.933	0.250	0.108
-695.456	-16.054	0.144	-0.093
-694.441	-133.404	-0.408	-0.052
-693.426	254.599	0.242	-0.419
-692.412	191.110	-0.203	0.310
-691.397	129.256	0.160	-0.207
-690.383	-200.000	0.010	0.084
-689.368	-93.827	-0.265	-0.074
-688.354	-200.000	0.016	0.146
-687.339	250.626	0.150	0.259
-686.324	800.000	-0.028	-0.105
-685.310	-76.563	-0.269	0.096
-684.295	-200.000	0.055	-0.255
-683.281	-200.000	0.006	0.146
-682.266	-156.897	-0.075	0.005
-681.251	-200.000	0.070	-0.346
-680.237	-85.699	0.151	0.047
-679.222	-85.959	-0.096	-0.030
-678.208	-153.761	0.144	0.010
-677.193	20.737	-0.253	-0.207
-676.178	-200.000	-0.035	-0.166
-675.164	-119.911	0.069	-0.012
-674.149	-200.000	-0.151	-0.000
-673.135	800.000	0.025	0.080
-672.120	3.280	-0.305	0.225
-671.105	-180.754	-0.440	0.009
-670.091	-200.000	0.020	-0.230
-669.076	-200.000	-0.017	-0.083
-668.062	-101.105	-0.191	-0.047
-667.047	65.089	-0.212	-0.216
-666.032	-156.485	-0.123	0.008
-665.018	-114.293	0.261	0.051
-664.003	-152.688	-0.156	-0.011
-662.989	-118.693	-0.227	0.040
-661.974	635.242	-0.159	-0.408
-660.959	-75.271	-0.498	-0.180
-659.945	-146.526	-0.051	0.004
-658.930	41.058	-0.149	0.137
-657.916	800.000	-0.122	0.381
-656.901	4.985	0.049	0.037
-655.886	800.000	-0.081	0.264
-654.872	-66.387	-0.298	0.120
-653.857	-80.360	0.121	-0.041
-652.843	-51.957	-0.132	-0.062
-651.828	19.790	0.108	-0.088
-650.814	-57.152	-0.223	-0.100
-649.799	-34.893	-0.238	0.132
-648.784	-200.000	-0.012	0.126
-647.770	800.000	0.098	-0.429
-646.755	218.175	-0.226	-0.365
-645.741	-115.403	0.088	0.017
-644.726	-200.000	0.036	0.165
-643.711	147.925	-0.314	-0.428
-642.697	627.755	-0.101	0.259
-641.682	800.000	0.121	0.368
-640.668	-200.000	-0.093	-0.000
-639.653	126.162	0.050	-0.064
-638.638	37.023	0.138	0.123
-637.624	-200.000	-0.046	0.303
-636.609	57.896	0.274	-0.271
-635.595	800.000	0.124	0.523
-634.580	-124.390	0.222	-0.035
-633.565	168.912	0.109	0.157
-632.551	-31.088	0.227	0.130
-631.536	-5.942	-0.114	0.079
-630.522	70.032	-0.076	-0.079
-629.507	-200.000	-0.012	-0.079
-628.492	409.981	-0.073	-0.155
-627.478	800.000	-0.070	-0.272
-626.463	27.348	0.306	-0.260
-625.449	275.388	0.083	-0.149
-624.434	-200.000	0.003	0.111
-623.419	-30.014	0.126	0.072
-622.405	800.000	-0.073	-0.309
-621.390	-137.387	-0.223	-0.026
-620.376	-200.000	0.040	0.272
-619.361	330.255	0.064	0.124
-618.346	30.096	-0.088	-0.076
-617.332	-33.603	0.307	0.171
-616.317	149.296	0.176	-0.241
-615.303	-200.000	0.020	-0.096
-614.288	-131.245	-0.634	-0.085
-613.273	254.522	-0.235	-0.406
-612.259	-87.016	0.201	-0.062
-611.244	-49.243	0.030	0.015
-610.230	-33.997	-0.066	0.037
-609.215	-64.293	0.195	0.080
-608.201	19.626	-0.132	-0.107
-607.186	-104.246	0.040	0.009
-606.171	800.000	0.072	0.242
-605.157	90.978	-0.059	-0.067
-604.142	-65.848	-0.043	-0.018
-603.128	800.000	0.059	0.235
-602.113	-92.116	-0.158	0.045
-601.098	535.403	-0.066	-0.159
-600.084	-90.421	0.088	-0.026
-599.069	56.733	-0.090	-0.089
-598.055	-32.356	0.280	-0.158
-597.040	-200.000	0.034	-0.251
-596.025	330.781	-0.093	0.181
-595.011	-200.000	0.031	-0.237
-593.996	800.000	-0.070	0.301
-592.982	24.536	-0.115	-0.096
-591.967	95.656	-0.140	-0.162
-590.952	-200.000	-0.007	-0.185
-589.938	-30.679	0.135	-0.077
-588.923	69.182	-0.125	-0.130
-587.909	-200.000	-0.006	0.092
-586.894	8.516	0.152	0.115
-585.879	-115.651	-0.112	0.021
-584.865	37.287	-0.130	0.117
-583.850	-158.606	-0.120	0.007
-582.836	104.912	0.204	0.242
-581.821	-200.000	-0.022	-0.277
-580.806	9.113	-0.064	0.049
-579.792	82.556	-0.206	-0.226
-578.777	307.970	-0.148	-0.278
-577.763	-27.586	0.198	-0.116
-576.748	218.582	-0.069	-0.111
-575.733	-52.364	0.212	0.099
-574.719	47.756	-0.235	0.222
-573.704	-3.533	0.230	0.161
-572.690	-200.000	-0.032	0.191
-571.675	220.312	0.099	-0.159
-570.661	405.353	-0.093	-0.198
-569.646	-7.398	0.456	-0.311
-568.631	542.433	0.073	0.176
-567.617	29.681	0.100	-0.086
-566.602	800.000	-0.030	0.093
-565.588	-109.180	-0.398	0.085
-564.573	-21.787	-0.185	-0.113
-563.558	-87.167	0.175	-0.054
-562.544	-16.281	-0.159	-0.102
-561.529	-72.356	-0.234	0.087
-560.515	-61.857	-0.302	-0.127
-559.500	-200.000	0.000	0.015
-558.485	53.392	0.224	0.216
-557.471	-99.379	0.343	0.087
-556.456	195.458	0.187	-0.286
-555.442	-129.588	0.177	0.025
-554.427	733.004	-0.090	0.242
-553.412	-118.605	-0.285	-0.051
-552.398	-200.000	0.029	-0.191
-551.383	665.017	-0.054	-0.141
-550.369	-200.000	0.036	0.235
-549.354	-94.168	-0.150	-0.041
-548.339	190.353	0.086	0.130
-547.325	-52.207	0.074	0.034
-546.310	-3.727	-0.132	0.092
-545.296	-200.000	0.013	0.283
-544.281	-200.000	0.009	0.362
-543.266	-14.218	0.415	0.270
-542.252	447.734	-0.136	-0.301
-541.237	-140.902	0.050	0.005
-540.223	-41.916	0.125	0.064
-539.208	-76.285	-0.138	-0.049
-538.193	58.409	0.104	-0.103
-537.179	800.000	0.092	0.257
-536.164	151.274	0.093	0.128
-535.150	571.052	-0.071	-0.174
-534.135	-107.411	0.409	-0.090
-533.121	800.000	-0.019	-0.064
-532.106	39.854	0.058	-0.052
-531.091	-42.906	0.055	0.028
-530.077	495.344	-0.079	-0.183
-529.062	-200.000	0.064	0.319
-528.048	-200.000	-0.002	0.241
-527.033	111.653	-0.360	-0.437
-526.018	221.554	-0.018	-0.029
-525.004	-134.537	0.386	0.047
-523.989	-200.000	0.054	0.277
-522.975	-85.719	0.132	-0.041
-521.960	-73.898	0.155	0.056
-520.945	800.000	0.072	0.250
-519.931	-200.000	-0.038	-0.196
-518.916	-143.953	-0.136	-0.013
-517.902	-10.285	0.103	-0.068
-516.887	174.775	-0.097	0.141
-515.872	-71.801	0.465	0.174
-514.858	-69.850	0.565	-0.217
-513.843	169.672	-0.112	0.162
-512.829	17.394	0.196	-0.157
-511.814	654.893	0.012	-0.031
-510.799	312.424	0.077	0.145
-509.785	7.798	-0.089	0.067
-508.770	-130.688	0.373	-0.051
-507.756	7.010	-0.281	-0.211
-506.741	77.488	-0.168	0.179
-505.726	-200.000	-0.058	0.517
-504.712	636.285	-0.028	-0.071
-503.697	-77.902	0.445	-0.154
-502.683	240.426	-0.161	0.269
-501.668	-70.340	0.248	-0.095
-500.653	-200.000	0.064	0.413
-499.639	-91.625	-0.210	0.060
-498.624	-200.000	0.004	-0.064
-497.610	-66.076	0.228	0.091
-496.595	56.651	-0.246	-0.241
-495.581	-12.759	0.053	0.035
-494.566	-200.000	-0.106	-0.550
-493.551	800.000	-0.067	0.192
-492.537	-200.000	-0.000	0.044
-491.522	5.394	-0.192	-0.142
-490.508	489.906	0.073	0.169
-489.493	800.000	0.037	-0.114
-488.478	-93.155	0.070	0.019
-487.464	-200.000	0.016	-0.250
-486.449	-200.000	-0.018	0.176
-485.435	-90.795	0.296	-0.086
-484.420	434.749	0.011	0.025
-483.405	26.317	0.098	0.083
-482.391	800.000	0.065	0.205
-481.376	-185.374	-0.560	0.009
-480.362	39.367	-0.065	-0.059
-479.347	800.000	0.055	0.152
-478.332	-83.507	0.131	-0.042
-477.318	-130.050	0.134	0.018
-476.303	-107.265	0.064	-0.014
-475.289	-200.000	0.057	-0.370
-474.274	800.000	-0.073	0.204
-473.259	138.720	-0.146	-0.193
-472.245	-59.804	0.189	-0.081
-471.230	-179.271	0.092	-0.002
-470.216	-101.215	0.169	0.041
-469.201	-200.000	-0.009	0.078
-468.186	-200.000	0.045	-0.200
-467.172	-200.000	-0.060	-0.308
-466.157	572.191	-0.072	-0.175
-465.143	58.024	0.032	-0.032
-464.128	-32.915	0.093	0.052
-463.113	83.075	-0.241	0.263
-462.099	354.450	-0.118	-0.235
-461.084	-65.513	0.168	-0.068
-460.070	-9.465	-0.325	-0.218
-459.055	63.778	-0.131	-0.132
-458.040	-200.000	-0.020	0.205
-457.026	589.097	0.028	0.070
-456.011	158.910	0.065	0.091
-454.997	346.576	-0.080	0.158
-453.982	-103.116	-0.288	0.068
-452.968	-200.000	0.011	0.080
-451.953	-23.384	0.188	0.113
-450.938	-132.308	-0.293	-0.038
-449.924	-20.056	-0.151	-0.093
-448.909	-96.359	-0.158	0.042
-447.895	108.734	-0.173	-0.208
-446.880	122.098	0.043	-0.053
-445.865	360.814	0.050	0.100
-444.851	-142.637	0.127	-0.012
-443.836	116.913	-0.161	0.198
-442.822	311.904	-0.136	-0.256
-441.807	-169.037	0.302	0.011
-440.792	-25.370	-0.220	0.130
-439.778	-109.142	0.239	-0.051
-438.763	236.687	0.077	-0.129
-437.749	109.128	-0.118	0.142
-436.734	-200.000	0.022	0.101
-435.719	-149.924	-0.285	0.022
-434.705	800.000	0.168	-0.524
-433.690	800.000	0.061	-0.181
-432.676	-200.000	0.036	0.240
-431.661	54.516	0.324	0.313
-430.646	67.414	-0.201	-0.206
-429.632	-159.158	-0.200	-0.011
-428.617	465.223	0.076	-0.170
-427.603	219.436	-0.009	0.015
-426.588	221.030	-0.071	0.115
-425.573	-200.000	0.011	0.151
-424.559	-69.252	0.122	-0.047
-423.544	-87.352	-0.076	-0.023
-422.530	-200.000	0.013	0.321
-421.515	12.182	0.380	0.293
-420.500	399.636	-0.141	0.297
-419.486	197.302	0.160	-0.245
-418.471	49.707	-0.084	-0.079
-417.457	-121.710	0.066	0.011
-416.442	523.841	0.047	-0.110
-415.428	30.719	-0.058	-0.049
-414.413	-75.947	-0.241	0.085
-413.398	-200.000	0.042	0.257
-412.384	699.994	0.098	-0.259
-411.369	299.885	-0.150	0.277
-410.355	-72.924	-0.195	0.072
-409.340	67.916	0.194	-0.198
-408.325	-135.139	-0.253	-0.030
-407.311	-15.007	-0.142	0.091
-406.296	-85.987	-0.105	0.032
-405.282	291.035	0.003	-0.005
-404.267	92.453	-0.122	0.138
-403.252	-40.236	-0.368	0.192
-402.238	-200.000	-0.040	-0.198
-401.223	800.000	-0.041	0.142
-400.209	800.000	-0.041	0.132
-399.194	99.254	0.087	0.101
-398.179	89.126	0.122	-0.136
-397.165	-76.977	-0.396	0.138
-396.150	-132.692	0.325	0.042
-395.136	529.125	-0.027	0.063
-394.121	35.062	0.038	0.033
-393.106	-97.331	0.142	0.037
-392.092	-200.000	-0.017	-0.180
-391.077	241.725	-0.090	-0.151
-390.063	-69.260	0.114	-0.044
-389.048	117.248	0.044	-0.054
-388.033	-64.039	0.261	0.107
-387.019	-71.272	-0.287	-0.108
-386.004	-200.000	-0.047	-0.226
-384.990	131.199	-0.043	-0.055
-383.975	415.365	0.068	0.146
-382.960	-191.062	0.416	0.004
-381.946	-110.874	-0.333	0.069
-380.931	-111.737	-0.497	-0.101
-379.917	-200.000	-0.016	-0.175
-378.902	-200.000	0.018	0.083
-377.888	243.240	-0.087	-0.147
-376.873	121.915	-0.128	0.160
-375.858	-134.836	-0.182	-0.022
-374.844	-182.941	0.399	0.007
-373.829	800.000	-0.092	0.296
-372.815	-103.219	0.458	-0.108
-371.800	325.002	-0.172	-0.329
-370.785	59.020	0.360	-0.354
-369.771	-176.079	-0.168	-0.004
-368.756	161.529	0.175	-0.245
-367.742	-148.069	0.292	-0.024
-366.727	4.193	-0.143	-0.104
-365.712	800.000	-0.132	-0.426
-364.698	401.414	-0.066	0.138
-363.683	-45.115	0.059	0.029
-362.669	19.717	0.077	-0.062
-361.654	361.765	-0.063	0.126
-360.639	-131.771	-0.323	-0.042
-359.625	-126.764	-0.098	-0.015
-358.610	800.000	-0.027	-0.105
-357.596	-165.898	0.212	0.009
-356.581	287.133	0.122	0.220
-355.566	-109.660	-0.252	0.053
-354.552	48.711	-0.045	0.042
-353.537	-111.709	0.096	0.019
-352.523	574.218	-0.123	0.299
-351.508	128.779	0.169	0.216
-350.493	23.864	-0.120	0.099
-349.479	15.003	-0.161	0.126
-348.464	800.000	-0.109	-0.309
-347.450	56.140	0.226	0.219
-346.435	800.000	0.044	0.127
-345.420	-4.765	-0.146	0.101
-344.406	800.000	-0.084	0.310
-343.391	501.263	-0.039	0.090
-342.377	66.570	0.148	-0.151
-341.362	127.687	-0.188	0.239
-340.348	-84.659	-0.099	-0.031
-339.333	392.449	-0.052	-0.108
-338.318	-153.433	0.090	0.006
-337.304	388.118	-0.064	-0.133
-336.289	730.456	0.111	-0.296
-335.275	-200.000	0.042	0.279
-334.260	190.834	0.076	-0.114
-333.245	15.131	0.341	-0.267
-332.231	-81.167	-0.325	0.107
-331.216	-106.865	0.193	-0.043
-330.202	-172.366	-0.056	0.002
-329.187	-67.758	-0.329	-0.129
-328.172	-200.000	-0.042	0.303
-327.158	340.172	0.148	0.289
-326.143	350.933	0.133	-0.262
-325.129	800.000	0.122	0.514
-324.114	-200.000	0.018	-0.156
-323.099	131.011	0.225	0.288
-322.085	271.496	-0.192	-0.338
-321.070	-200.000	-0.041	0.256
-320.056	368.029	-0.215	-0.433
-319.041	-6.351	0.262	-0.179
-318.026	459.085	0.143	-0.317
-317.012	492.933	0.109	-0.249
-315.997	-185.770	-0.317	-0.005
-314.983	-149.060	-0.331	-0.027
-313.968	58.019	-0.039	0.038
-312.953	-200.000	0.029	-0.320
-311.939	125.146	0.116	-0.146
-310.924	-200.000	-0.055	0.483
-309.910	-200.000	0.032	0.355
-308.895	13.786	-0.132	-0.102
-307.880	191.234	-0.048	0.073
-306.866	-69.048	-0.315	-0.121
-305.851	-60.146	-0.101	-0.043
-304.837	8.998	-0.175	0.132
-303.822	-200.000	-0.025	-0.255
-302.807	111.465	0.163	-0.196
-301.793	-120.763	-0.393	0.066
-300.778	-200.000	0.018	-0.303
-299.764	26.740	0.115	-0.096
-298.749	800.000	0.076	0.217
-297.735	800.000	0.045	-0.143
-296.720	238.079	0.040	-0.066
-295.705	54.725	0.121	-0.117
-294.691	-36.846	-0.036	0.019
-293.676	-149.491	-0.218	-0.017
-292.662	-200.000	0.010	0.233
-291.647	97.409	0.055	-0.063
-290.632	-31.902	0.111	-0.062
-289.618	800.000	-0.122	0.388
-288.603	153.477	0.116	0.158
-287.589	118.178	-0.257	-0.316
-286.574	-22.131	-0.209	0.127
-285.559	-14.722	0.194	0.125
-284.545	179.384	-0.089	0.130
-283.530	-83.985	0.333	-0.106
-282.516	-45.450	0.140	0.069
-281.501	72.682	-0.141	-0.146
-280.486	160.232	-0.097	0.135
-279.472	-169.967	-0.021	0.001
-278.457	477.648	-0.138	-0.311
-277.443	-95.079	0.059	0.016
-276.428	-89.171	0.101	-0.030
-275.413	-200.000	0.024	0.164
-274.399	-165.920	0.247	-0.011
-273.384	800.000	0.081	0.273
-272.370	-65.287	0.152	0.061
-271.355	19.618	0.031	-0.025
-270.340	477.590	0.091	-0.205
-269.326	800.000	0.116	0.374
-268.311	51.321	0.231	0.219
-267.297	-97.616	0.021	-0.005
-266.282	-145.993	-0.205	-0.018
-265.267	-200.000	0.044	-0.232
-264.253	-20.498	0.329	-0.201
-263.238	-200.000	-0.005	-0.075
-262.224	-23.185	0.294	0.176
-261.209	-90.193	-0.227	0.066
-260.195	800.000	-0.062	0.250
-259.180	-200.000	0.013	0.128
-258.165	-139.975	0.280	-0.029
-257.151	-200.000	0.014	-0.205
-256.136	-200.000	0.028	-0.326
-255.122	-200.000	-0.051	0.269
-254.107	800.000	-0.101	0.315
-253.092	33.973	0.107	0.093
-252.078	-125.131	-0.195	-0.030
-251.063	343.372	-0.198	0.386
-250.049	800.000	-0.163	-0.473
-249.034	-78.945	-0.124	-0.042
-248.019	-200.000	-0.006	0.285
-247.005	-100.551	0.126	-0.031
-245.990	-200.000	0.001	0.019
-244.976	254.466	-0.226	-0.386
-243.961	155.756	0.142	-0.194
-242.946	-5.905	0.137	-0.094
-241.932	-8.520	0.090	-0.060
-240.917	800.000	-0.134	-0.474
-239.903	568.354	0.091	-0.220
-238.888	96.017	0.270	0.307
-237.873	-44.383	0.302	0.151
-236.859	269.137	-0.209	-0.365
-235.844	-127.172	-0.245	0.036
-234.830	43.907	-0.169	0.154
-233.815	-8.597	0.092	-0.062
-232.800	-123.304	0.075	0.012
-231.786	369.665	0.061	-0.123
-230.771	-200.000	0.001	-0.181
-229.757	25.460	-0.233	-0.193
-228.742	1.353	-0.164	0.117
-227.727	-124.501	-0.119	-0.018
-226.713	-128.237	-0.436	-0.062
-225.698	-200.000	0.012	-0.652
-224.684	-200.000	0.190	-0.000
-223.669	-103.039	0.013	0.003
-222.655	-34.453	-0.302	-0.165
-221.640	800.000	-0.105	0.400
-220.625	27.362	-0.036	0.030
-219.611	24.434	-0.092	0.076
-218.596	-200.000	-0.016	-0.086
-217.582	-62.367	0.423	-0.175
-216.567	582.485	0.119	0.291
-215.552	800.000	0.073	0.238
-214.538	-85.305	-0.122	0.038
-213.523	84.408	-0.091	-0.099
-212.509	-128.781	-0.374	0.052
-211.494	195.417	0.120	0.181
-210.479	375.553	0.140	0.284
-209.465	-200.000	0.024	-0.259
-208.450	-83.468	-0.488	-0.155
-207.436	-200.000	0.174	0.000
-206.421	587.393	0.060	0.148
-205.406	-200.000	-0.020	0.122
-204.392	2.050	0.197	-0.141
-203.377	167.928	0.129	-0.183
-202.363	172.110	0.148	0.212
-201.348	-200.000	-0.050	0.315
-200.333	800.000	-0.117	0.365
-199.319	-200.000	-0.041	0.268
-198.304	800.000	0.053	-0.204
-197.290	-65.890	0.319	0.127
-196.275	71.649	0.111	-0.114
-195.260	219.451	-0.074	0.117
-194.246	-50.033	-0.306	-0.144
-193.231	129.936	-0.063	0.080
-192.217	-200.000	-0.017	0.328
-191.202	-150.034	-0.280	-0.022
-190.187	204.890	-0.164	-0.253
-189.173	196.411	0.102	-0.155
-188.158	-82.541	0.250	0.081
-187.144	-58.153	0.110	0.047
-186.129	-93.582	0.056	-0.015
-185.114	-41.032	-0.159	0.081
-184.100	-200.000	0.026	0.195
-183.085	81.174	-0.096	0.103
-182.071	-58.635	-0.118	-0.051
-181.056	-200.000	-0.030	-0.249
-180.042	-91.221	0.278	0.079
-179.027	-158.914	0.374	0.021
-178.012	-200.000	-0.002	-0.133
-176.998	-68.213	-0.095	0.037
-175.983	532.036	0.021	0.050
-174.969	92.069	-0.074	0.083
-173.954	-105.175	-0.367	-0.083
-172.939	97.176	-0.149	-0.170
-171.925	275.678	-0.074	0.130
-170.910	-143.565	-0.502	0.047
-169.896	800.000	-0.064	-0.239
-168.881	-147.060	0.243	-0.021
-167.866	-32.662	-0.087	0.048
-166.852	800.000	-0.074	-0.280
-165.837	-80.659	0.251	-0.083
-164.823	-200.000	-0.016	0.311
-163.808	6.834	-0.110	-0.082
-162.793	489.243	-0.060	-0.136
-161.779	-85.109	0.233	-0.072
-160.764	-83.559	-0.130	0.041
-159.750	-119.851	0.259	0.044
-158.735	480.299	0.167	-0.375
-157.720	21.041	0.382	0.307
-156.706	-200.000	-0.035	0.153
-155.691	-200.000	-0.030	0.186
-154.677	-200.000	0.017	0.287
-153.662	99.709	0.235	0.269
-152.647	312.564	0.078	-0.145
-151.633	-65.643	-0.056	-0.022
-150.618	303.468	-0.134	-0.246
-149.604	266.962	-0.154	0.267
-148.589	-52.799	0.321	-0.147
-147.574	-200.000	-0.023	0.127
-146.560	139.524	-0.099	-0.130
-145.545	-110.636	0.121	0.025
-144.531	-56.526	0.067	0.029
-143.516	-165.236	-0.146	-0.006
-142.502	-125.064	0.094	-0.014
-141.487	-58.484	0.119	-0.051
-140.472	325.451	-0.010	-0.019
-139.458	709.715	-0.075	0.197
-138.443	-115.519	-0.117	-0.022
-137.429	-22.001	0.291	-0.175
-136.414	800.000	-0.071	-0.205
-135.399	-200.000	0.039	-0.186
-134.385	-186.020	-0.225	0.003
-133.370	-177.750	-0.198	-0.005
-132.356	-49.925	-0.272	0.128
-131.341	-79.269	-0.212	-0.071
-130.326	67.873	0.086	0.087
-129.312	-200.000	-0.021	0.166
-128.297	582.534	-0.140	-0.341
-127.283	-81.859	0.260	-0.084
-126.268	800.000	-0.013	0.049
-125.253	-200.000	0.003	0.111
-124.239	-176.107	0.386	-0.010
-123.224	22.957	0.098	0.080
-122.210	-58.982	0.235	0.100
-121.195	91.528	0.029	-0.032
-120.180	5.859	0.316	-0.231
-119.166	-49.357	0.350	-0.165
-118.151	-44.039	0.305	0.152
-117.137	-57.892	-0.178	-0.077
-116.122	-51.257	-0.196	0.091
-115.107	84.758	0.169	0.183
-114.093	448.245	0.039	-0.086
-113.078	-4.089	-0.045	-0.031
-112.064	800.000	-0.077	-0.223
-111.049	-145.384	-0.325	0.029
-110.034	-73.120	0.189	-0.068
-109.020	165.172	0.040	-0.056
-108.005	208.210	-0.099	-0.154
-106.991	800.000	-0.108	-0.350
-105.976	-90.601	0.174	0.050
-104.962	30.676	-0.190	-0.161
-103.947	-79.906	0.214	-0.071
-102.932	344.452	0.187	-0.363
-101.918	-118.073	0.243	0.043
-100.903	-29.149	-0.179	-0.102
-99.889	653.009	0.105	-0.266
-98.874	376.172	0.077	-0.155
-97.859	-138.068	-0.130	0.014
-96.845	127.883	0.170	-0.214
-95.830	-200.000	-0.103	0.490
-94.816	-56.043	0.090	0.040
-93.801	-132.281	0.225	-0.029
-92.786	90.135	0.258	0.285
-91.772	-94.081	0.311	-0.085
-90.757	-89.305	0.100	0.029
-89.743	740.082	0.087	0.232
-88.728	-200.000	0.002	0.238
-87.713	-10.481	0.221	0.145
-86.699	77.929	-0.144	-0.152
-85.684	-60.433	0.114	0.048
-84.670	45.078	0.268	0.244
-83.655	-200.000	0.026	0.228
-82.640	-40.871	0.322	-0.165
-81.626	-130.096	0.358	0.048
-80.611	-37.751	0.202	-0.107
-79.597	22.110	0.278	0.225
-78.582	-87.479	0.245	0.073
-77.567	9.267	-0.186	-0.139
-76.553	-99.408	-0.097	-0.024
-75.538	293.907	0.203	0.366
-74.524	800.000	-0.049	0.200
-73.509	-101.933	0.199	-0.048
-72.494	-11.079	-0.170	0.111
-71.480	-142.101	-0.058	0.006
-70.465	-180.271	0.093	-0.002
-69.451	7.048	-0.091	0.067
-68.436	-200.000	-0.004	-0.037
-67.422	800.000	0.046	0.141
-66.407	-53.940	0.097	0.044
-65.392	-200.000	0.034	-0.566
-64.378	269.028	0.040	-0.069
-63.363	-12.694	-0.085	-0.055
-62.349	21.575	0.249	-0.200
-61.334	224.969	-0.583	-0.932
-60.319	26.317	0.366	0.303
-59.305	800.000	-0.342	-1.092
-58.290	235.537	0.375	0.612
-57.276	800.000	0.482	1.742
-56.261	-200.000	94.943	573.812
-55.246	566.074	1367.312	3276.655
-54.232	153.946	2575.038	3487.691
-53.217	117.308	2162.424	2626.221
-52.203	47.404	1621.972	1492.984
-51.188	39.122	1359.084	1200.632
-50.173	35.745	1316.307	1142.771
-49.159	57.671	1365.410	1318.526
-48.144	62.596	1383.821	1365.975
-47.130	39.418	1337.785	1183.408
-46.115	35.637	1320.144	1145.281
-45.100	35.500	1315.534	1140.419
-44.086	35.482	1312.518	1137.656
-43.071	35.276	1311.013	1135.085
-42.057	35.290	1308.820	1133.224
-41.042	35.347	1306.965	1131.910
-40.027	35.345	1305.213	1130.332
-39.013	35.449	1302.986	1128.975
-37.998	35.457	1301.279	1127.497
-36.984	35.515	1299.501	1126.250
-35.969	35.671	1297.725	1125.579
-34.954	35.549	1296.166	1123.470
-33.940	35.613	1294.928	1122.729
-32.925	35.574	1294.263	1121.880
-31.911	35.566	1292.688	1120.421
-30.896	35.739	1290.399	1119.398
-29.881	35.568	1289.615	1117.681
-28.867	35.606	1287.953	1116.416
-27.852	35.643	1286.665	1115.474
-26.838	35.573	1285.582	1114.080
-25.823	35.667	1283.704	1112.951
-24.809	35.560	1282.868	1111.565
-23.794	35.618	1281.086	1110.310
-22.779	35.670	1279.623	1109.298
-21.765	35.613	1278.518	1107.968
-20.750	35.611	1277.237	1106.805
-19.736	35.460	1276.001	1104.820
-18.721	35.503	1274.584	1103.796
-17.706	35.427	1273.552	1102.425
-16.692	35.513	1271.908	1101.451
-15.677	35.509	1271.328	1100.880
-14.663	35.391	1270.244	1099.221
-13.648	35.457	1268.906	1098.396
-12.633	35.439	1267.934	1097.412
-11.619	35.357	1267.375	1096.413
-10.604	35.457	1266.262	1095.980
-9.590	35.444	1265.166	1094.913
-8.575	35.337	1264.394	1093.592
-7.560	35.381	1263.467	1092.995
-6.546	35.401	1262.472	1092.209
-5.531	35.431	1261.679	1091.646
-4.517	35.323	1261.183	1090.559
-3.502	35.527	1259.673	1090.372
-2.487	35.436	1258.908	1089.152
-1.473	35.383	1254.796	1085.251
-0.458	34.105	1239.707	1065.010
0.556	30.716	1222.168	1027.017
1.571	27.083	1227.422	1011.161
2.586	26.071	1242.967	1018.168
3.600	25.531	1231.938	1006.028
4.615	18.571	1157.786	908.646
5.629	7.249	1077.744	789.615
6.644	2.096	1055.410	747.988
7.659	1.646	1052.412	743.599
8.673	1.631	1051.342	742.704
9.688	1.527	1050.202	741.327
10.702	2.148	1049.001	743.434
11.717	8.930	1059.290	783.907
12.731	19.394	1073.939	846.288
13.746	23.960	1079.394	872.974
14.761	24.582	1079.791	876.267
15.775	24.591	1079.374	875.895
16.790	24.383	1078.499	874.089
17.804	24.262	1078.251	873.218
18.819	24.425	1077.329	873.192
19.834	24.574	1077.291	873.812
20.848	24.709	1076.175	873.489
21.863	24.599	1076.249	872.936
22.877	24.525	1075.535	871.917
23.892	24.477	1074.690	870.920
24.907	24.534	1073.980	870.547
25.921	24.614	1072.697	869.819
26.936	24.548	1071.340	868.322
27.950	24.379	1070.320	866.597
28.965	24.372	1067.886	864.518
29.980	24.388	1066.646	863.512
30.994	24.648	1065.601	863.848
32.009	24.625	1064.460	862.736
33.023	24.438	1063.413	860.910
34.038	24.625	1062.505	860.999
35.053	24.748	1061.874	861.004
36.067	24.647	1061.138	859.845
37.082	24.660	1060.614	859.406
38.096	24.879	1059.792	859.716
39.111	24.866	1059.771	859.561
40.126	24.710	1057.886	857.206
41.140	24.348	1056.436	854.221
42.155	24.054	1055.121	851.677
43.169	24.216	1054.024	851.493
44.184	24.374	1052.820	851.197
45.199	24.057	1051.889	848.857
46.213	24.252	1051.025	849.014
47.228	24.492	1049.948	849.210
48.242	24.376	1049.582	848.290
49.257	24.558	1048.544	848.239
50.271	24.664	1047.890	848.138
51.286	24.689	1047.428	847.805
52.301	24.620	1046.759	846.865
53.315	24.533	1045.422	845.296
54.330	24.540	1044.678	844.653
55.344	24.458	1043.931	843.587
56.359	24.541	1042.841	843.021
57.374	24.397	1042.047	841.625
58.388	24.389	1041.233	840.858
59.403	24.266	1040.204	839.374
60.417	24.172	1039.503	838.293
61.432	24.307	1038.909	838.371
62.447	24.419	1038.237	838.281
63.461	24.334	1037.541	837.247
64.476	24.331	1036.427	836.262
65.490	24.252	1035.257	834.870
66.505	24.284	1035.043	834.774
67.520	24.414	1034.263	834.682
68.534	24.162	1033.249	832.608
69.549	23.959	1031.244	829.974
70.563	23.835	1031.216	829.297
71.578	23.832	1030.152	828.356
72.593	23.705	1029.751	827.369
73.607	23.849	1028.843	827.235
74.622	24.124	1028.707	828.333
75.636	24.249	1027.753	828.071
76.651	24.038	1026.836	826.280
77.666	23.866	1026.422	825.077
78.680	24.025	1025.364	824.891
79.695	24.128	1024.758	824.806
80.709	24.256	1023.757	824.518
81.724	24.205	1023.245	823.800
82.739	24.291	1022.479	823.509
83.753	24.711	1021.774	824.806
84.768	25.019	1021.328	825.792
85.782	24.898	1020.959	824.863
86.797	24.754	1019.253	822.749
87.812	24.708	1018.316	821.708
88.826	24.879	1017.460	821.730
89.841	24.861	1016.782	821.026
90.855	24.910	1016.190	820.702
91.870	24.818	1015.223	819.428
92.884	24.635	1014.173	817.670
93.899	24.551	1013.169	816.401
94.914	24.842	1012.015	816.727
95.928	24.606	1010.931	814.708
96.943	24.502	1009.839	813.282
97.957	24.260	1008.547	811.066
98.972	24.053	1007.496	809.208
99.987	24.403	1007.121	810.427
101.001	24.550	1006.356	810.405
102.016	24.678	1005.228	810.005
103.030	24.457	1004.102	808.026
104.045	24.266	1003.425	806.546
105.060	24.127	1002.265	804.913
106.074	24.312	1001.578	805.127
107.089	24.604	1000.914	805.840
108.103	24.549	999.918	804.720
109.118	24.277	998.925	802.624
110.133	24.238	998.102	801.714
111.147	24.165	996.792	800.265
112.162	24.021	995.946	798.867
113.176	24.303	995.017	799.317
114.191	24.214	994.216	798.202
115.206	23.826	993.390	795.733
116.220	23.918	992.220	795.139
117.235	24.018	991.718	795.111
118.249	24.016	990.864	794.347
119.264	24.000	989.903	793.435
120.279	23.956	989.482	792.833
121.293	24.029	988.395	792.217
122.308	23.942	987.733	791.229
123.322	24.041	986.334	790.475
124.337	23.860	984.807	788.381
125.352	23.373	983.301	784.950
126.366	23.370	982.523	784.244
127.381	24.084	982.922	787.654
128.395	24.560	982.328	789.211
129.410	24.618	981.236	788.521
130.424	24.578	980.168	787.416
131.439	24.423	979.769	786.343
132.454	24.645	978.119	785.928
133.468	24.534	977.423	784.807
134.483	24.645	977.067	784.942
135.497	24.779	976.261	784.811
136.512	24.821	975.363	784.203
137.527	24.790	974.785	783.534
138.541	24.736	974.332	782.864
139.556	24.828	973.018	782.142
140.570	24.959	971.970	781.805
141.585	24.814	971.298	780.561
142.600	24.863	970.137	779.770
143.614	24.891	969.620	779.410
144.629	25.023	969.098	779.497
145.643	24.903	967.531	777.647
146.658	24.696	966.389	775.762
147.673	24.602	965.478	774.553
148.687	24.476	964.614	773.245
149.702	24.470	963.244	772.052
150.716	24.379	962.457	770.962
151.731	24.646	962.111	771.770
152.746	25.004	960.954	772.317
153.760	24.895	961.139	771.924
154.775	24.965	959.949	771.204
155.789	24.998	958.962	770.485
156.804	24.788	958.452	769.104
157.819	25.036	957.359	769.224
158.833	24.993	956.963	768.650
159.848	25.041	956.086	768.084
160.862	24.825	954.820	766.077
161.877	24.711	953.770	764.678
162.892	24.996	952.791	765.041
163.906	24.910	951.504	763.576
164.921	24.783	951.069	762.616
165.935	24.877	949.917	762.026
166.950	24.945	948.950	761.474
167.964	24.903	948.193	760.618
168.979	24.818	946.908	759.159
169.994	24.834	946.445	758.788
171.008	24.944	946.026	758.851
172.023	24.982	944.573	757.782
173.037	24.845	943.531	756.298
174.052	24.666	942.514	754.662
175.067	24.646	942.306	754.343
176.081	24.771	941.954	754.523
177.096	24.708	940.992	753.421
178.110	24.265	940.240	750.885
179.125	24.220	939.462	750.006
180.140	24.352	939.038	750.159
181.154	24.420	938.711	750.116
182.169	24.744	938.677	751.383
183.183	25.021	938.282	752.165
184.198	24.845	937.350	750.613
185.213	24.865	936.248	749.746
186.227	24.946	935.770	749.639
187.242	24.934	934.832	748.769
188.256	24.805	934.913	748.230
189.271	25.054	933.546	748.108
190.286	24.759	932.413	745.905
191.300	23.958	931.154	741.493
192.315	23.334	929.576	737.576
193.329	23.221	929.434	736.927
194.344	24.171	929.591	740.940
195.359	24.592	929.671	742.689
196.373	24.867	929.133	743.335
197.388	24.680	928.829	742.248
198.402	24.829	927.633	741.843
199.417	24.863	927.252	741.617
200.432	24.500	926.138	739.157
201.446	24.335	925.848	738.175
202.461	24.450	924.943	737.866
203.475	23.527	923.227	732.620
204.490	22.946	921.165	728.525
205.504	23.713	921.976	732.267
206.519	24.331	922.007	734.772
207.534	24.425	921.356	734.576
208.548	24.694	921.675	735.874
209.563	24.693	920.614	734.955
210.577	24.559	919.931	733.796
211.592	25.046	919.221	735.164
212.607	24.861	918.857	734.047
213.621	25.014	918.258	734.130
214.636	25.005	917.192	733.176
215.650	24.889	916.763	732.294
216.665	25.092	915.890	732.364
217.680	24.983	915.083	731.206
218.694	24.479	914.106	728.307
219.709	24.345	913.125	726.914
220.723	24.679	913.080	728.174
221.738	24.978	912.319	728.721
222.753	24.732	912.015	727.414
223.767	24.926	911.519	727.740
224.782	25.014	911.144	727.736
225.796	24.898	910.882	726.989
226.811	24.316	908.953	723.028
227.826	23.779	907.611	719.720
228.840	23.869	907.449	719.892
229.855	24.048	906.454	719.766
230.869	23.716	905.514	717.615
231.884	23.965	905.951	718.901
232.899	24.713	905.981	721.885
233.913	24.812	905.091	721.511
234.928	24.769	904.387	720.711
235.942	24.659	903.757	719.704
236.957	24.325	903.088	717.762
237.972	24.393	902.369	717.402
238.986	24.562	901.641	717.437
240.001	24.469	901.403	716.811
241.015	24.435	900.853	716.175
242.030	24.681	900.474	716.795
243.045	24.884	899.851	717.050
244.059	25.002	899.450	717.137
245.074	24.765	898.555	715.415
246.088	24.502	897.368	713.355
247.103	24.709	897.367	714.120
248.117	25.244	897.460	716.264
249.132	25.470	897.054	716.780
250.147	25.555	896.462	716.584
251.161	25.621	895.732	716.196
252.176	25.625	895.305	715.807
253.190	25.815	894.615	715.949
254.205	25.981	894.003	716.056
255.220	25.805	893.538	714.919
256.234	25.805	892.436	713.975
257.249	25.644	892.045	712.961
258.263	25.724	891.074	712.439
259.278	25.692	890.356	711.675
260.293	25.830	890.048	711.910
261.307	25.583	889.597	710.514
262.322	25.432	888.342	708.852
263.336	24.812	886.379	704.782
264.351	23.700	884.725	699.028
265.366	23.739	884.380	698.849
266.380	24.842	885.066	703.668
267.395	25.344	884.979	705.509
268.409	25.382	883.796	704.653
269.424	25.536	883.302	704.799
270.439	25.438	883.072	704.172
271.453	25.591	882.200	704.012
272.468	25.762	882.309	704.705
273.482	25.687	882.147	704.221
274.497	25.315	880.743	701.586
275.512	24.887	880.501	699.658
276.526	25.222	879.877	700.410
277.541	25.449	879.479	700.917
278.555	25.283	878.534	699.453
279.570	25.236	877.275	698.207
280.585	25.471	877.086	698.908
281.599	25.388	876.123	697.754
282.614	24.756	874.610	694.037
283.628	24.797	874.389	693.960
284.643	25.109	874.221	694.976
285.657	24.770	872.786	692.460
286.672	24.509	871.997	690.765
287.687	25.018	872.524	693.088
288.701	24.968	871.976	692.400
289.716	24.756	871.074	690.802
290.730	24.651	870.424	689.820
291.745	24.434	869.399	688.111
292.760	24.842	869.219	689.482
293.774	25.830	869.445	693.403
294.789	25.928	869.579	693.826
295.803	26.049	869.016	693.781
296.818	26.191	867.613	693.146
297.833	25.684	866.778	690.472
298.847	25.552	866.350	689.562
299.862	25.967	865.940	690.767
300.876	26.092	865.608	690.919
301.891	25.899	864.890	689.546
302.906	25.540	863.812	687.256
303.920	25.828	863.318	687.899
304.935	26.097	863.439	688.963
305.949	25.932	862.864	687.812
306.964	25.628	862.189	686.055
307.979	25.756	862.111	686.421
308.993	26.214	861.439	687.570
310.008	26.042	861.298	686.742
311.022	25.975	860.200	685.550
312.037	25.893	859.086	684.292
313.052	25.591	858.387	682.526
314.066	24.606	856.854	677.515
315.081	24.245	856.426	675.750
316.095	25.205	856.444	679.338
317.110	25.722	856.096	680.962
318.125	24.759	854.870	676.285
319.139	23.919	853.082	671.640
320.154	23.858	852.815	671.142
321.168	24.702	853.209	674.577
322.183	25.240	853.866	677.068
323.197	25.530	853.507	677.815
324.212	25.657	853.035	677.861
325.227	25.931	851.989	678.000
326.241	25.664	851.517	676.561
327.256	25.491	851.103	675.520
328.270	25.364	850.364	674.398
329.285	25.305	849.096	673.112
330.300	25.019	848.511	671.516
331.314	25.189	848.488	672.076
332.329	25.702	848.115	673.642
333.343	25.783	847.767	673.607
334.358	25.732	847.483	673.132
335.373	25.835	847.046	673.111
336.387	26.269	846.857	674.522
337.402	26.360	846.810	674.766
338.416	26.271	846.460	674.094
339.431	26.325	846.442	674.222
340.446	26.577	845.525	674.371
341.460	26.462	844.829	673.327
342.475	26.108	844.598	671.764
343.489	26.305	844.484	672.350
344.504	26.626	844.068	673.151
345.519	26.753	843.737	673.299
346.533	26.711	842.961	672.464
347.548	26.630	842.484	671.726
348.562	26.661	841.799	671.233
349.577	26.639	841.360	670.745
350.592	26.570	840.364	669.634
351.606	26.605	839.969	669.388
352.621	26.492	839.149	668.260
353.635	26.449	838.186	667.276
354.650	25.811	836.745	663.718
355.665	24.787	835.469	658.879
356.679	25.296	835.024	660.344
357.694	25.726	834.657	661.574
358.708	25.705	833.877	660.818
359.723	25.875	834.446	661.837
360.738	26.191	834.054	662.628
361.752	26.348	833.781	662.927
362.767	26.590	833.374	663.431
363.781	26.823	833.154	664.053
364.796	27.077	832.638	664.510
365.810	26.987	832.366	663.906
366.825	27.031	831.744	663.511
367.840	26.727	830.977	661.730
368.854	26.415	829.599	659.437
369.869	26.359	829.444	659.052
370.883	26.304	829.015	658.454
371.898	26.405	828.630	658.457
372.913	26.503	828.479	658.634
373.927	26.643	827.679	658.449
374.942	26.710	827.351	658.375
375.956	26.767	826.887	658.153
376.971	26.984	826.387	658.483
377.986	27.074	826.268	658.659
379.000	26.999	825.687	657.866
380.015	26.829	824.949	656.604
381.029	26.799	824.689	656.229
382.044	27.007	823.799	656.216
383.059	27.030	823.510	656.011
384.073	27.004	822.976	655.432
385.088	27.075	822.030	654.877
386.102	26.835	821.725	653.710
387.117	26.749	820.846	652.644
388.132	26.230	819.537	649.678
389.146	25.980	818.775	648.120
390.161	26.225	819.033	649.148
391.175	26.744	818.434	650.479
392.190	26.415	817.339	648.370
393.205	24.965	815.723	641.841
394.219	23.591	813.382	635.029
395.234	23.495	813.495	634.718
396.248	25.045	814.913	641.320
397.263	26.634	815.831	647.671
398.278	26.604	815.139	646.959
399.292	26.257	814.685	645.301
400.307	26.347	814.115	645.114
401.321	26.452	813.846	645.219
402.336	26.864	813.741	646.548
403.350	27.265	813.747	647.924
404.365	27.431	813.503	648.262
405.380	27.723	812.938	648.793
406.394	27.795	812.543	648.676
407.409	27.661	812.094	647.785
408.423	27.696	811.668	647.511
409.438	27.693	811.474	647.288
410.453	27.751	811.106	647.145
411.467	27.753	810.310	646.458
412.482	27.667	810.246	646.046
413.496	27.782	809.634	645.909
414.511	27.920	808.992	645.828
415.526	27.852	808.436	645.087
416.540	27.623	808.152	643.993
417.555	27.199	807.731	642.103
418.569	27.299	807.560	642.263
419.584	27.351	806.486	641.536
420.599	27.325	805.718	640.775
421.613	107.068	1280.395	1439.627
422.628	92.384	1349.538	1439.741
