DTS Sentinel unit serial number:	SN413079Multiplexer serial number:	ORYXHardware model number:	OX4-SRSoftware version number:	ORYX F/W v4.00 Oryx Data Collector v3.7.2.0data status	okinstallation	princeton_trtdifferential loss correction	single-endedforward channel	channel 1reverse channel	N/Adate	2019/09/12time	19:57:34forward acquisition time	15.00reverse acquisition time	0.00gamma	496.2192k internal	0.2323k external	0.2323temperature offset calibration	1.0134default loss term (dB/km)	0.3790temperature slope calibration	1.0000multiplexer offset coefficient	1.0000multiplexer slope coefficient	1.0000fibre end	0.00T internal ref (°C)	31.81T ext. ref 1 (°C)	3.47T ext. ref 2 (°C)	26.39length (m)	temperature (°C)	Stokes	anti-Stokes-747.200	-139.193	-0.164	0.018
-746.185	-13.112	0.381	-0.250
-745.171	246.393	-0.276	-0.470
-744.156	-38.080	-0.153	-0.082
-743.142	-144.770	0.666	-0.062
-742.127	-200.000	0.150	0.759
-741.112	800.000	-0.152	0.601
-740.098	101.557	0.158	-0.186
-739.083	136.204	-0.240	0.315
-738.069	800.000	0.110	-0.388
-737.054	34.062	-0.460	0.405
-736.039	-24.992	-0.441	-0.264
-735.025	-99.092	-0.930	0.238
-734.010	-200.000	0.049	-0.242
-732.996	-125.934	-0.668	-0.102
-731.981	-200.000	0.014	-0.579
-730.966	-118.469	0.458	-0.082
-729.952	-50.512	-0.783	0.373
-728.937	800.000	-0.148	-0.445
-727.923	-200.000	0.049	-0.637
-726.908	-142.552	-0.744	0.074
-725.894	689.292	-0.251	-0.663
-724.879	800.000	0.059	-0.203
-723.864	58.557	0.030	-0.029
-722.850	173.005	-0.167	0.243
-721.835	189.658	-0.254	0.385
-720.821	-89.370	0.340	-0.101
-719.806	127.513	-0.202	-0.259
-718.791	71.895	0.069	0.073
-717.777	-200.000	-0.008	0.195
-716.762	-200.000	0.189	-1.003
-715.748	28.959	0.245	0.210
-714.733	290.555	-0.186	0.341
-713.718	-158.054	0.982	-0.058
-712.704	-111.563	0.302	-0.062
-711.689	197.512	-0.377	-0.581
-710.675	-104.185	0.773	0.181
-709.660	-55.170	-0.507	-0.230
-708.645	508.708	-0.225	0.527
-707.631	-128.244	0.309	0.044
-706.616	-104.838	-0.143	0.033
-705.602	800.000	0.140	-0.453
-704.587	11.907	0.507	0.393
-703.572	-50.250	1.016	-0.485
-702.558	-22.882	0.094	0.057
-701.543	449.649	-0.179	-0.399
-700.529	293.962	-0.160	0.295
-699.514	-20.335	-0.405	-0.251
-698.499	-200.000	-0.040	-0.343
-697.485	800.000	-0.340	-1.056
-696.470	261.731	0.383	-0.669
-695.456	-142.894	-0.628	-0.061
-694.441	-134.158	-0.469	-0.058
-693.426	-26.023	0.245	0.145
-692.412	-200.000	0.111	0.928
-691.397	502.298	-0.149	0.348
-690.383	55.018	0.176	-0.172
-689.368	708.893	-0.476	-1.269
-688.354	-200.000	-0.093	-0.521
-687.339	105.471	0.551	0.656
-686.324	139.627	-0.387	-0.514
-685.310	47.798	0.509	-0.479
-684.295	-146.477	-0.508	0.045
-683.281	60.987	0.331	-0.331
-682.266	-200.000	-0.053	0.337
-681.251	-165.349	-0.105	-0.005
-680.237	-154.454	-0.558	0.038
-679.222	6.760	0.476	0.357
-678.208	-200.000	0.086	-0.501
-677.193	-38.639	-0.634	-0.337
-676.178	-200.000	-0.016	-1.223
-675.164	-64.518	0.267	-0.109
-674.149	-38.483	0.420	0.224
-673.135	-61.147	0.321	0.137
-672.120	-200.000	0.055	-0.438
-671.105	-200.000	-0.002	0.085
-670.091	18.972	-0.160	0.129
-669.076	90.077	-0.236	-0.266
-668.062	800.000	-0.025	-0.087
-667.047	7.208	-0.623	-0.468
-666.032	43.221	0.589	-0.542
-665.018	-111.053	0.548	-0.113
-664.003	-64.777	-0.513	0.209
-662.989	122.771	-0.161	-0.203
-661.974	7.571	-0.705	-0.531
-660.959	172.204	-0.524	-0.759
-659.945	214.168	0.778	1.239
-658.930	-87.912	0.244	-0.074
-657.916	800.000	0.180	-0.589
-656.901	800.000	0.019	-0.085
-655.886	-37.991	0.803	-0.429
-654.872	800.000	0.190	-0.539
-653.857	-1.457	-0.330	0.235
-652.843	-200.000	0.153	-0.709
-651.828	-185.732	-0.276	0.004
-650.814	800.000	-0.087	-0.243
-649.799	-200.000	0.134	-0.731
-648.784	268.052	-0.178	-0.313
-647.770	-165.575	0.321	0.014
-646.755	-200.000	0.022	-0.132
-645.741	800.000	0.126	0.512
-644.726	16.652	-0.292	0.232
-643.711	800.000	0.019	0.057
-642.697	501.317	-0.092	-0.213
-641.682	-95.922	0.486	-0.130
-640.668	-1.334	0.226	0.161
-639.653	20.605	-0.603	-0.491
-638.638	-101.259	-0.594	-0.146
-637.624	-200.000	-0.102	0.563
-636.609	96.545	0.489	0.563
-635.595	124.506	-0.366	0.463
-634.580	-132.056	0.409	-0.053
-633.565	257.545	-0.346	0.598
-632.551	-78.555	-0.665	-0.229
-631.536	-127.437	-0.389	-0.057
-630.522	800.000	0.141	0.452
-629.507	115.164	-1.006	1.235
-628.492	-200.000	-0.569	0.002
-627.478	800.000	0.150	-0.507
-626.463	-200.000	0.043	0.592
-625.449	-132.803	0.745	-0.096
-624.434	800.000	-0.194	-0.600
-623.419	-195.087	-0.149	0.001
-622.405	-121.826	-0.619	0.103
-621.390	-81.602	0.309	-0.102
-620.376	-119.515	-0.340	0.059
-619.361	63.544	0.176	0.177
-618.346	-20.739	0.568	0.350
-617.332	449.083	-0.456	-1.009
-616.317	800.000	-0.230	-0.661
-615.303	-200.000	-0.020	-0.197
-614.288	354.618	-0.314	0.626
-613.273	-151.366	-1.277	0.096
-612.259	107.269	0.491	-0.587
-611.244	-35.709	0.346	0.188
-610.230	-68.133	-0.695	0.272
-609.215	-34.705	-0.089	0.049
-608.201	-147.666	-0.765	-0.065
-607.186	800.000	-0.148	0.540
-606.171	-95.779	-1.047	0.281
-605.157	-12.949	-0.362	-0.237
-604.142	192.875	0.381	-0.578
-603.128	-92.931	-0.313	0.088
-602.113	298.608	-0.277	-0.512
-601.098	-200.000	-0.142	1.038
-600.084	-200.000	0.128	-1.400
-599.069	139.326	0.275	-0.363
-598.055	176.193	-0.217	0.317
-597.040	-200.000	-0.042	-0.192
-596.025	-132.933	0.561	0.072
-595.011	24.826	0.214	-0.178
-593.996	-1.856	-0.313	0.221
-592.982	337.433	-0.293	-0.571
-591.967	-130.285	0.660	0.090
-590.952	800.000	0.042	-0.168
-589.938	125.161	-0.171	-0.216
-588.923	120.363	-0.836	1.042
-587.909	30.939	0.412	-0.355
-586.894	28.521	-0.533	-0.452
-585.879	-27.562	0.183	-0.107
-584.865	204.627	-0.284	-0.442
-583.850	98.836	-0.456	0.529
-582.836	-200.000	-0.006	0.495
-581.821	135.759	-0.520	0.680
-580.806	800.000	-0.235	0.792
-579.792	800.000	-0.145	-0.496
-578.777	800.000	0.187	-0.523
-577.763	-200.000	-0.065	0.552
-576.748	800.000	-0.089	-0.281
-575.733	-200.000	0.060	0.561
-574.719	800.000	0.133	-0.482
-573.704	-70.383	0.846	0.322
-572.690	101.373	-0.318	0.371
-571.675	-200.000	0.071	0.405
-570.661	800.000	0.118	0.468
-569.646	-200.000	-0.038	-0.302
-568.631	-53.724	0.201	-0.092
-567.617	-130.941	-0.675	0.091
-566.602	-148.715	0.594	-0.048
-565.588	224.079	-0.082	0.133
-564.573	298.985	-0.543	-1.002
-563.558	-35.194	-0.491	-0.268
-562.544	384.523	0.032	0.067
-561.529	-30.717	-0.953	0.540
-560.515	-200.000	-0.060	0.598
-559.500	-166.016	-0.682	0.029
-558.485	-94.149	0.758	-0.208
-557.471	-60.638	-0.207	0.088
-556.456	158.080	-0.417	0.580
-555.442	39.552	-0.503	0.452
-554.427	30.351	0.752	0.644
-553.412	25.626	0.615	-0.513
-552.398	-200.000	0.114	-0.532
-551.383	-118.170	-0.619	-0.111
-550.369	-41.266	0.702	-0.363
-549.354	800.000	-0.128	-0.477
-548.339	-200.000	-0.008	0.292
-547.325	-200.000	0.047	-0.429
-546.310	-200.000	0.001	0.365
-545.296	-123.726	0.607	0.096
-544.281	-200.000	0.055	0.750
-543.266	-63.148	0.482	-0.199
-542.252	-18.804	-0.343	-0.214
-541.237	135.183	-0.162	-0.211
-540.223	158.289	0.488	-0.679
-539.208	263.906	-0.432	0.753
-538.193	-200.000	-0.107	0.506
-537.179	46.182	-0.687	0.638
-536.164	291.828	0.358	0.653
-535.150	478.441	-0.075	0.169
-534.135	608.958	0.122	0.305
-533.121	-200.000	0.122	0.980
-532.106	-0.789	-0.520	-0.369
-531.091	-16.087	0.665	-0.424
-530.077	-5.085	-0.532	0.367
-529.062	-15.782	0.506	-0.323
-528.048	564.514	-0.189	0.460
-527.033	367.038	0.195	-0.394
-526.018	-200.000	0.012	-0.359
-525.004	148.937	-0.405	-0.549
-523.989	-53.416	0.715	0.328
-522.975	-43.130	0.468	-0.237
-521.960	-200.000	0.064	0.675
-520.945	-200.000	0.098	-0.848
-519.931	76.290	-0.396	-0.420
-518.916	-200.000	0.155	0.937
-517.902	91.698	0.449	-0.505
-516.887	-54.568	-0.239	0.108
-515.872	255.382	-0.125	0.215
-514.858	-14.540	-0.440	-0.283
-513.843	339.562	-0.213	0.416
-512.829	80.650	-0.248	0.267
-511.814	-200.000	-0.072	0.963
-510.799	800.000	-0.332	0.926
-509.785	-69.315	-1.012	-0.389
-508.770	467.448	-0.140	0.314
-507.756	-119.598	0.250	-0.043
-506.741	197.981	-0.476	0.729
-505.726	343.088	0.295	0.577
-504.712	-71.856	0.441	-0.164
-503.697	-2.244	-0.354	0.249
-502.683	-144.859	0.621	-0.057
-501.668	373.423	0.187	-0.380
-500.653	-145.659	-0.399	-0.036
-499.639	-48.251	0.324	-0.156
-498.624	107.228	0.347	-0.412
-497.610	-82.010	0.565	-0.185
-496.595	800.000	-0.227	0.632
-495.581	109.015	-0.393	-0.470
-494.566	-200.000	0.045	0.312
-493.551	325.869	-0.266	-0.509
-492.537	-84.712	-0.186	0.058
-491.522	-200.000	0.010	-0.511
-490.508	-28.068	-0.487	0.282
-489.493	60.579	0.041	0.041
-488.478	-200.000	-0.027	0.129
-487.464	-200.000	-0.005	0.049
-486.449	800.000	0.049	-0.152
-485.435	-22.354	0.134	-0.081
-484.420	-137.122	0.129	0.015
-483.405	-167.547	1.059	0.042
-482.391	-65.101	-0.504	0.203
-481.376	97.886	-0.653	-0.750
-480.362	101.371	0.583	0.679
-479.347	103.796	0.202	-0.237
-478.332	-200.000	-0.011	0.091
-477.318	395.242	0.041	-0.085
-476.303	132.866	0.472	-0.609
-475.289	64.886	0.552	0.557
-474.274	797.845	0.309	-0.851
-473.259	-200.000	-0.045	-0.428
-472.245	-200.000	-0.013	0.537
-471.230	-106.771	-0.282	0.063
-470.216	273.834	-0.293	0.518
-469.201	-19.762	0.075	0.046
-468.186	22.372	0.349	-0.285
-467.172	-81.698	-0.472	0.155
-466.157	-49.805	0.635	0.301
-465.143	-77.763	0.407	-0.140
-464.128	69.824	0.444	-0.458
-463.113	-144.648	0.967	-0.089
-462.099	-200.000	-0.052	0.466
-461.084	800.000	-0.127	0.521
-460.070	42.227	-0.095	0.086
-459.055	-9.139	1.049	-0.701
-458.040	-200.000	-0.046	-0.292
-457.026	-97.279	0.450	-0.117
-456.011	-200.000	-0.018	-0.168
-454.997	114.282	0.885	-1.076
-453.982	236.269	-0.098	0.162
-452.968	-104.418	-0.524	0.121
-451.953	196.570	0.695	1.057
-450.938	800.000	0.238	0.742
-449.924	60.881	-0.502	0.498
-448.909	-127.664	0.475	0.069
-447.895	800.000	-0.272	0.829
-446.880	93.147	-0.380	0.429
-445.865	-62.604	0.549	-0.227
-444.851	453.202	-0.306	0.677
-443.836	-191.500	0.317	-0.003
-442.822	178.563	0.433	-0.631
-441.807	18.893	0.726	-0.581
-440.792	10.006	0.076	-0.058
-439.778	544.443	0.225	-0.536
-438.763	94.724	0.575	0.653
-437.749	-30.438	-0.546	-0.309
-436.734	-148.502	-0.599	-0.049
-435.719	-44.368	-0.149	0.074
-434.705	-200.000	0.176	0.775
-433.690	800.000	0.154	-0.442
-432.676	-17.342	0.158	-0.099
-431.661	226.502	0.030	0.048
-430.646	205.442	-0.351	-0.543
-429.632	800.000	0.144	0.446
-428.617	474.441	0.019	-0.042
-427.603	-33.039	-0.473	-0.262
-426.588	-17.970	0.661	-0.413
-425.573	540.628	-0.487	1.157
-424.559	-52.556	0.127	0.058
-423.544	-93.712	-0.569	-0.156
-422.530	181.361	0.311	-0.456
-421.515	-73.781	-0.451	0.163
-420.500	-70.041	-1.170	-0.444
-419.486	344.142	-0.127	-0.249
-418.471	-80.372	0.620	-0.206
-417.457	368.343	0.101	0.204
-416.442	111.748	-0.390	-0.469
-415.428	-8.913	-0.870	-0.581
-414.413	800.000	-0.227	-0.805
-413.398	-200.000	0.142	-0.692
-412.384	-72.506	-0.715	0.263
-411.369	-126.658	0.307	0.045
-410.355	29.954	0.186	0.158
-409.340	683.862	0.235	0.610
-408.325	-146.235	0.020	-0.002
-407.311	-78.960	-0.685	0.232
-406.296	96.493	-0.384	0.438
-405.282	-44.680	0.052	-0.026
-404.267	-200.000	-0.157	0.857
-403.252	-200.000	0.078	0.845
-402.238	142.724	0.245	-0.325
-401.223	-200.000	0.049	-0.226
-400.209	312.989	-0.315	0.590
-399.194	-200.000	0.024	0.625
-398.179	-200.000	0.001	0.706
-397.165	94.161	-0.178	-0.201
-396.150	235.629	-0.200	-0.330
-395.136	-104.890	-0.604	-0.138
-394.121	499.632	-0.176	-0.404
-393.106	-61.948	0.342	0.143
-392.092	-200.000	0.085	-0.496
-391.077	-70.457	-0.496	0.187
-390.063	-200.000	0.012	0.227
-389.048	800.000	-0.140	-0.489
-388.033	28.309	0.232	0.195
-387.019	-159.884	-1.048	-0.057
-386.004	-200.000	0.038	0.449
-384.990	-200.000	0.092	0.928
-383.975	-92.029	-1.047	-0.295
-382.960	-173.427	0.475	-0.014
-381.946	-133.591	-0.534	0.067
-380.931	-63.250	0.375	0.154
-379.917	-74.154	0.447	0.161
-378.902	374.093	0.160	-0.324
-377.888	-180.306	-0.529	0.011
-376.873	265.191	-0.552	-0.957
-375.858	800.000	0.126	0.427
-374.844	-200.000	-0.066	0.462
-373.829	28.638	-0.207	0.174
-372.815	-150.694	0.383	-0.029
-371.800	184.141	0.164	0.241
-370.785	800.000	0.087	-0.258
-369.771	351.258	-0.156	-0.307
-368.756	-73.549	0.243	-0.088
-367.742	36.154	0.253	-0.221
-366.727	-19.090	-0.416	-0.257
-365.712	60.748	0.246	-0.242
-364.698	322.558	0.058	0.110
-363.683	138.249	0.216	0.281
-362.669	432.756	-0.120	-0.258
-361.654	-36.384	-0.247	-0.132
-360.639	33.955	0.584	-0.506
-359.625	288.909	0.182	-0.328
-358.610	-11.718	-0.277	-0.181
-357.596	51.531	0.579	0.547
-356.581	220.753	-0.236	0.377
-355.566	15.794	0.415	0.325
-354.552	-96.402	-0.140	-0.037
-353.537	-66.803	-0.441	-0.174
-352.523	-36.794	0.095	0.051
-351.508	51.083	-0.892	-0.842
-350.493	15.571	-0.301	0.235
-349.479	68.607	-0.474	0.483
-348.464	158.566	0.177	0.244
-347.450	-200.000	0.017	-0.583
-346.435	-61.361	0.287	0.120
-345.420	-200.000	-0.054	-0.535
-344.406	377.828	0.244	0.497
-343.391	234.960	-0.343	-0.562
-342.377	74.145	0.622	0.649
-341.362	800.000	-0.067	0.271
-340.348	800.000	-0.067	-0.203
-339.333	-132.286	0.163	-0.021
-338.318	-66.259	-0.141	0.056
-337.304	800.000	0.160	0.671
-336.289	-200.000	0.020	0.094
-335.275	376.821	-0.145	0.295
-334.260	-113.374	1.119	0.218
-333.245	453.236	-0.138	-0.304
-332.231	-15.779	-0.289	-0.183
-331.216	-200.000	0.103	0.830
-330.202	-99.623	-0.068	0.017
-329.187	800.000	0.152	0.531
-328.172	185.565	0.286	0.422
-327.158	-200.000	0.048	0.712
-326.143	-200.000	0.072	-0.726
-325.129	217.076	0.135	0.213
-324.114	-200.000	-0.018	0.548
-323.099	20.755	-0.275	0.221
-322.085	510.353	0.085	0.197
-321.070	-200.000	0.108	-0.794
-320.056	-123.150	-0.191	0.030
-319.041	-115.989	0.544	0.101
-318.026	232.793	0.630	-1.029
-317.012	71.274	0.246	-0.253
-315.997	-200.000	0.047	-0.432
-314.983	-117.604	0.460	-0.082
-313.968	-167.177	0.397	-0.016
-312.953	1.708	-0.209	-0.149
-311.939	-200.000	0.003	-0.926
-310.924	108.277	0.354	-0.419
-309.910	112.617	0.348	-0.418
-308.895	649.250	-0.067	0.170
-307.880	-200.000	0.058	0.322
-306.866	-139.413	-0.607	-0.065
-305.851	4.941	0.662	-0.483
-304.837	162.842	-0.362	-0.504
-303.822	237.249	0.394	-0.647
-302.807	-108.355	-0.820	-0.176
-301.793	-3.076	-0.758	-0.525
-300.778	184.222	0.215	0.317
-299.764	-200.000	-0.014	0.220
-298.749	-200.000	0.093	-0.567
-297.735	800.000	0.141	0.584
-296.720	800.000	0.263	-0.840
-295.705	-101.202	0.492	-0.119
-294.691	3.683	-0.528	-0.383
-293.676	800.000	-0.186	-0.601
-292.662	-121.667	0.466	-0.077
-291.647	800.000	0.088	-0.243
-290.632	800.000	0.216	-0.823
-289.618	148.269	0.322	-0.432
-288.603	-14.261	0.889	0.568
-287.589	-19.399	-0.284	-0.175
-286.574	-135.391	-0.626	-0.074
-285.559	-200.000	0.145	0.834
-284.545	1.980	0.428	0.306
-283.530	-20.588	0.056	0.034
-282.516	18.703	0.351	-0.278
-281.501	-24.031	1.076	0.638
-280.486	-111.705	-0.070	0.014
-279.472	116.815	-0.527	-0.642
-278.457	107.517	0.535	0.631
-277.443	450.703	0.366	-0.801
-276.428	229.374	-0.250	0.404
-275.413	800.000	0.288	1.215
-274.399	800.000	-0.074	0.254
-273.384	-160.176	-0.167	0.009
-272.370	3.878	0.977	-0.708
-271.355	482.248	0.497	-1.118
-270.340	104.274	0.346	0.404
-269.326	-200.000	0.006	0.427
-268.311	-200.000	-0.153	-0.974
-267.297	596.359	-0.107	-0.263
-266.282	163.712	-0.118	-0.164
-265.267	20.859	0.275	0.221
-264.253	-50.361	-0.127	-0.059
-263.238	317.108	-0.348	-0.652
-262.224	-115.308	-0.401	0.075
-261.209	-16.570	0.519	-0.326
-260.195	-200.000	-0.002	-0.297
-259.180	-89.875	-0.455	0.132
-258.165	800.000	0.231	0.760
-257.151	-52.731	0.121	-0.055
-256.136	312.398	-0.449	-0.835
-255.122	-55.642	0.459	0.204
-254.107	36.508	0.248	-0.217
-253.092	736.363	-0.121	-0.321
-252.078	80.008	-0.217	-0.231
-251.063	-84.094	-0.953	0.300
-250.049	-143.734	-0.973	0.091
-249.034	-23.424	-0.448	0.267
-248.019	800.000	-0.082	-0.244
-247.005	135.145	0.107	0.138
-245.990	-110.767	0.447	0.091
-244.976	-106.887	0.587	-0.129
-243.961	800.000	-0.179	-0.659
-242.946	35.779	-0.807	-0.703
-241.932	390.630	0.041	0.084
-240.917	-4.433	0.050	0.034
-239.903	382.222	-0.132	-0.270
-238.888	-200.000	-0.043	0.226
-237.873	-200.000	0.005	-0.053
-236.859	-19.778	0.242	0.148
-235.844	800.000	0.294	0.803
-234.830	-42.750	-0.731	0.368
-233.815	800.000	0.026	0.073
-232.800	-2.878	0.205	-0.141
-231.786	-15.233	0.799	0.506
-230.771	76.924	0.202	-0.212
-229.757	-177.465	-0.477	0.012
-228.742	297.458	-0.122	0.222
-227.727	-86.564	0.438	-0.133
-226.713	-200.000	-0.043	-0.267
-225.698	-30.426	0.402	-0.226
-224.684	-200.000	-0.060	0.906
-223.669	776.345	0.246	-0.665
-222.655	-200.000	0.014	0.125
-221.640	-57.043	0.228	-0.100
-220.625	-200.000	0.071	-0.884
-219.611	800.000	-0.257	0.938
-218.596	800.000	-0.077	0.315
-217.582	-75.042	1.059	-0.375
-216.567	-66.709	0.445	0.175
-215.552	-200.000	-0.158	0.907
-214.538	123.255	0.094	-0.116
-213.523	-200.000	-0.019	0.235
-212.509	-194.806	0.413	-0.003
-211.494	-200.000	-0.013	0.257
-210.479	29.438	0.189	0.159
-209.465	263.899	0.189	0.326
-208.450	58.051	0.411	0.399
-207.436	54.780	0.744	0.710
-206.421	341.414	0.139	0.270
-205.406	19.604	-0.355	-0.282
-204.392	800.000	0.122	-0.493
-203.377	-200.000	-0.205	-0.893
-202.363	-200.000	0.008	-0.178
-201.348	2.847	-0.558	0.400
-200.333	43.807	-0.521	-0.472
-199.319	-200.000	0.004	-0.632
-198.304	91.897	-0.747	-0.831
-197.290	280.051	0.247	-0.437
-196.275	-27.544	0.629	0.361
-195.260	-60.838	-0.555	-0.232
-194.246	166.410	-0.437	-0.612
-193.231	-200.000	-0.143	-0.748
-192.217	702.496	-0.300	0.782
-191.202	-70.945	0.487	0.181
-190.187	-124.003	-0.211	-0.033
-189.173	-29.898	-0.519	-0.292
-188.158	-7.047	-0.291	-0.195
-187.144	-36.258	-0.064	0.034
-186.129	533.578	0.230	0.538
-185.114	-200.000	-0.038	-0.405
-184.100	748.902	-0.014	-0.038
-183.085	311.215	-0.299	-0.554
-182.071	333.033	0.461	-0.879
-181.056	-77.740	0.416	0.142
-180.042	800.000	0.155	-0.481
-179.027	-200.000	0.025	-0.190
-178.012	9.573	0.474	0.355
-176.998	-200.000	0.009	-0.171
-175.983	-69.893	0.172	-0.065
-174.969	-115.391	0.794	0.148
-173.954	800.000	0.167	-0.519
-172.939	-19.871	-0.657	0.401
-171.925	-49.119	0.453	0.214
-170.910	682.944	-0.306	0.789
-169.896	159.688	-0.467	-0.643
-168.881	523.162	-0.442	1.025
-167.866	772.808	-0.094	-0.254
-166.852	-101.416	-1.080	-0.260
-165.837	196.845	0.563	0.847
-164.823	800.000	0.058	0.193
-163.808	-200.000	0.015	-0.206
-162.793	-104.674	0.245	-0.056
-161.779	26.771	0.403	-0.333
-160.764	-135.072	0.555	-0.066
-159.750	181.431	-0.648	0.942
-158.735	128.979	0.310	0.391
-157.720	49.127	0.547	-0.507
-156.706	-200.000	0.026	-0.582
-155.691	800.000	0.096	-0.311
-154.677	-200.000	0.061	0.266
-153.662	-129.394	0.511	0.070
-152.647	-162.635	-0.334	0.016
-151.633	-106.144	0.420	-0.093
-150.618	215.492	0.424	-0.663
-149.604	-184.996	0.808	0.013
-148.589	352.100	-0.291	0.569
-147.574	362.991	-0.261	0.516
-146.560	-44.974	-0.938	0.461
-145.545	-1.754	-0.251	0.174
-144.531	18.062	-0.455	0.358
-143.516	296.020	0.211	0.382
-142.502	-200.000	-0.020	-1.031
-141.487	10.999	0.174	0.131
-140.472	-200.000	-0.947	0.002
-139.458	-77.932	-1.021	0.347
-138.443	-162.753	0.347	-0.017
-137.429	-107.327	-0.350	0.076
-136.414	-116.605	0.500	0.091
-135.399	67.746	0.593	-0.598
-134.385	320.723	-0.336	0.629
-133.370	-200.000	0.053	-0.465
-132.356	800.000	-0.053	-0.185
-131.341	19.329	0.291	-0.231
-130.326	-115.729	0.313	0.058
-129.312	-34.072	-0.204	0.111
-128.297	-200.000	-0.031	0.322
-127.283	222.612	0.048	0.076
-126.268	142.183	-0.439	0.574
-125.253	-200.000	0.007	-0.137
-124.239	-35.151	-0.541	-0.290
-123.224	-12.277	0.745	-0.480
-122.210	70.675	0.171	-0.174
-121.195	62.914	-0.372	-0.367
-120.180	22.712	-0.291	0.235
-119.166	-59.552	0.392	-0.166
-118.151	8.012	0.733	0.542
-117.137	110.132	-0.091	0.108
-116.122	58.289	0.214	0.207
-115.107	16.660	-0.108	0.084
-114.093	120.477	0.313	-0.383
-113.078	477.127	0.442	-0.986
-112.064	302.641	-0.261	-0.476
-111.049	-9.109	-0.385	0.254
-110.034	423.355	0.233	-0.493
-109.020	-126.047	0.227	-0.034
-108.005	-200.000	-0.036	-0.167
-106.991	112.899	0.190	0.226
-105.976	-97.690	-0.895	0.228
-104.962	-200.000	0.043	0.564
-103.947	269.742	0.154	0.266
-102.932	-171.396	0.472	-0.016
-101.918	432.210	-0.174	0.371
-100.903	-37.435	-0.215	-0.113
-99.889	-194.755	-1.167	-0.009
-98.874	95.194	-0.186	0.209
-97.859	12.876	0.609	0.464
-96.845	800.000	-0.166	-0.454
-95.830	110.738	-0.479	0.567
-94.816	-85.004	0.119	0.037
-93.801	-22.798	0.364	-0.217
-92.786	4.229	-0.422	0.305
-91.772	-82.638	0.462	0.147
-90.757	-200.000	-0.026	-0.208
-89.743	81.750	0.464	0.494
-88.728	-71.071	-0.470	-0.174
-87.713	34.755	0.557	-0.479
-86.699	50.215	-0.270	-0.251
-85.684	800.000	0.234	-0.877
-84.670	40.951	-0.446	0.397
-83.655	-103.125	-0.532	-0.124
-82.640	800.000	0.199	-0.742
-81.626	67.196	0.808	-0.811
-80.611	-86.870	-0.694	-0.208
-79.597	108.561	0.236	-0.277
-78.582	-89.116	0.169	0.049
-77.567	800.000	0.115	-0.360
-76.553	70.596	-0.298	-0.303
-75.538	-62.023	0.254	0.105
-74.524	-171.112	0.328	-0.011
-73.509	363.210	0.181	0.358
-72.494	-82.055	0.706	-0.227
-71.480	131.614	0.524	-0.663
-70.465	210.960	-0.460	-0.712
-69.451	-75.475	0.708	-0.248
-68.436	-200.000	-0.031	-0.671
-67.422	-200.000	0.055	-0.767
-66.407	270.858	0.198	-0.343
-65.392	-200.000	0.075	0.680
-64.378	-4.745	0.385	-0.261
-63.363	-200.000	-0.037	0.238
-62.349	-64.282	-0.293	-0.117
-61.334	128.296	-1.045	-1.309
-60.319	43.469	-0.343	-0.308
-59.305	407.784	-0.462	-0.961
-58.290	800.000	0.266	0.904
-57.276	168.725	1.006	1.409
-56.261	-200.000	97.499	603.639
-55.246	627.838	1373.322	3410.333
-54.232	201.621	2535.780	3840.542
-53.217	118.275	2118.075	2567.752
-52.203	43.923	1585.584	1427.840
-51.188	35.386	1325.670	1143.146
-50.173	32.043	1284.219	1088.020
-49.159	56.540	1335.461	1276.673
-48.144	57.385	1350.839	1296.301
-47.130	35.479	1308.604	1128.798
-46.115	32.006	1291.606	1093.889
-45.100	32.109	1285.107	1088.938
-44.086	31.640	1283.203	1084.569
-43.071	31.800	1280.478	1083.142
-42.057	31.855	1278.145	1081.444
-41.042	31.718	1276.699	1079.389
-40.027	31.769	1276.858	1079.776
-39.013	31.655	1274.268	1076.890
-37.998	31.889	1272.397	1076.607
-36.984	31.757	1271.199	1074.793
-35.969	31.804	1268.953	1073.119
-34.954	31.711	1268.015	1071.752
-33.940	32.214	1264.879	1071.927
-32.925	31.792	1265.430	1069.943
-31.911	32.177	1261.821	1069.046
-30.896	31.908	1261.593	1067.279
-29.881	32.030	1261.165	1067.569
-28.867	31.779	1260.566	1065.588
-27.852	31.840	1258.535	1064.175
-26.838	32.083	1255.803	1063.201
-25.823	32.008	1254.477	1061.613
-24.809	31.794	1253.693	1059.694
-23.794	31.897	1251.950	1058.763
-22.779	32.070	1251.180	1059.046
-21.765	31.805	1249.196	1055.831
-20.750	31.605	1249.056	1054.544
-19.736	31.696	1247.348	1053.570
-18.721	31.713	1246.716	1053.093
-17.706	31.802	1244.643	1051.800
-16.692	31.774	1244.180	1051.208
-15.677	31.692	1242.364	1049.176
-14.663	31.732	1240.965	1048.174
-13.648	31.991	1238.951	1047.879
-12.633	31.519	1239.306	1045.497
-11.619	31.597	1239.369	1045.947
-10.604	32.038	1237.362	1046.671
-9.590	31.863	1236.319	1044.774
-8.575	31.748	1235.766	1043.623
-7.560	31.684	1235.382	1042.904
-6.546	31.477	1234.747	1041.171
-5.531	31.700	1233.514	1041.329
-4.517	31.824	1232.994	1041.540
-3.502	31.884	1231.519	1040.584
-2.487	31.551	1231.687	1038.835
-1.473	31.509	1227.230	1034.805
-0.458	30.047	1211.157	1013.222
0.556	27.832	1194.214	975.517
1.571	23.981	1199.097	958.710
2.586	23.007	1213.580	964.894
3.600	22.742	1201.893	954.080
4.615	16.896	1131.965	868.628
5.629	7.709	1057.530	767.277
6.644	3.852	1038.110	734.816
7.659	3.341	1035.591	730.546
8.673	3.504	1033.367	729.687
9.688	3.185	1033.238	728.022
10.702	3.946	1030.151	729.371
11.717	9.361	1039.200	761.404
12.731	18.662	1051.852	814.976
13.746	23.550	1057.455	842.522
14.761	24.232	1057.515	845.731
15.775	23.730	1057.310	843.111
16.790	23.322	1055.566	839.713
17.804	23.136	1055.378	838.606
18.819	22.883	1054.977	837.016
19.834	23.027	1054.216	837.018
20.848	23.082	1053.892	836.948
21.863	23.472	1052.456	837.575
22.877	22.942	1052.275	834.853
23.892	23.032	1050.779	834.016
24.907	22.671	1050.809	832.266
25.921	22.750	1048.991	831.122
26.936	22.734	1047.062	829.446
27.950	22.614	1046.592	828.435
28.965	22.804	1044.530	827.623
29.980	22.801	1043.285	826.547
30.994	23.187	1042.181	827.406
32.009	22.953	1042.177	826.238
33.023	22.907	1041.147	825.133
34.038	22.770	1040.208	823.676
35.053	22.579	1040.140	822.657
36.067	22.850	1037.872	822.050
37.082	22.671	1037.890	821.160
38.096	22.912	1037.781	822.121
39.111	22.834	1037.184	821.213
40.126	22.355	1035.711	817.752
41.140	22.466	1033.742	816.636
42.155	22.336	1030.910	813.727
43.169	22.423	1030.673	813.868
44.184	22.279	1028.724	811.596
45.199	22.045	1029.138	810.771
46.213	22.379	1028.800	811.972
47.228	22.754	1029.122	813.883
48.242	22.967	1028.544	814.336
49.257	23.119	1026.430	813.292
50.271	23.401	1026.216	814.347
51.286	23.429	1024.910	813.366
52.301	23.275	1024.468	812.236
53.315	22.954	1023.027	809.551
54.330	23.151	1022.026	809.590
55.344	22.635	1021.378	806.643
56.359	22.677	1019.956	805.639
57.374	22.685	1019.846	805.520
58.388	22.399	1019.709	804.033
59.403	22.067	1018.806	801.737
60.417	22.119	1017.905	801.191
61.432	22.233	1017.476	801.302
62.447	21.897	1016.391	798.851
63.461	22.015	1014.727	798.009
64.476	22.176	1014.326	798.352
65.490	22.174	1013.162	797.355
66.505	22.385	1012.101	797.406
67.520	22.398	1011.224	796.706
68.534	22.096	1011.459	795.453
69.549	22.039	1009.934	793.923
70.563	21.891	1008.896	792.369
71.578	21.477	1008.343	789.997
72.593	21.393	1007.989	789.269
73.607	21.329	1006.839	788.009
74.622	21.792	1006.247	789.562
75.636	21.666	1005.982	788.717
76.651	21.793	1004.843	788.329
77.666	21.709	1004.715	787.779
78.680	21.613	1004.204	786.875
79.695	21.988	1002.968	787.523
80.709	21.871	1003.253	787.151
81.724	22.272	1002.152	788.012
82.739	22.324	1001.915	787.993
83.753	22.678	1002.206	789.735
84.768	23.224	1001.622	791.646
85.782	23.354	999.802	790.720
86.797	23.503	999.021	790.697
87.812	23.232	998.764	789.214
88.826	23.092	997.256	787.332
89.841	23.340	996.233	787.558
90.855	23.375	995.997	787.456
91.870	23.143	995.868	786.253
92.884	23.380	994.363	786.045
93.899	22.835	994.280	783.493
94.914	22.911	992.485	782.346
95.928	22.954	991.757	781.891
96.943	22.884	990.047	780.168
97.957	22.725	989.564	779.016
98.972	23.078	987.840	779.145
99.987	23.144	987.805	779.338
101.001	23.043	986.117	777.495
102.016	23.168	985.284	777.319
103.030	23.170	984.110	776.330
104.045	23.439	984.236	777.543
105.060	22.915	984.162	775.115
106.074	22.874	982.541	773.593
107.089	22.320	982.333	770.934
108.103	22.580	980.419	770.498
109.118	22.021	979.401	767.187
110.133	22.177	978.354	766.980
111.147	21.932	977.298	765.017
112.162	21.877	976.851	764.361
113.176	22.216	975.790	764.937
114.191	22.536	975.072	765.698
115.206	22.156	974.589	763.602
116.220	21.941	973.882	762.043
117.235	22.044	972.763	761.549
118.249	22.129	970.901	760.391
119.264	22.085	970.731	760.002
120.279	21.981	970.164	759.043
121.293	21.673	968.950	756.695
122.308	21.207	969.415	754.974
123.322	21.577	967.229	754.802
124.337	21.347	966.447	753.133
125.352	21.436	966.330	753.358
126.366	21.620	964.446	752.614
127.381	21.673	963.971	752.406
128.395	21.987	963.345	753.197
129.410	22.039	962.709	752.855
130.424	22.226	961.570	752.702
131.439	22.478	961.402	753.579
132.454	22.510	960.319	752.802
133.468	22.584	957.685	750.986
134.483	22.518	959.038	751.699
135.497	22.484	957.411	750.211
136.512	22.327	957.245	749.346
137.527	22.822	955.518	750.033
138.541	22.409	955.634	748.301
139.556	22.770	954.895	749.189
140.570	22.952	954.880	749.883
141.585	23.199	953.976	750.155
142.600	23.090	953.952	749.608
143.614	23.168	953.174	749.262
144.629	23.514	951.252	749.145
145.643	23.334	950.107	747.416
146.658	23.097	949.283	745.706
147.673	22.700	947.747	742.760
148.687	22.563	947.402	741.848
149.702	22.390	946.049	739.996
150.716	22.662	944.975	740.231
151.731	22.668	944.416	739.754
152.746	22.696	943.847	739.359
153.760	22.827	942.976	739.161
154.775	22.955	943.177	739.786
155.789	23.089	942.755	739.953
156.804	22.621	942.347	737.609
157.819	22.593	941.560	736.810
158.833	23.388	939.922	738.779
159.848	23.218	939.283	737.504
160.862	22.862	939.408	736.053
161.877	22.730	937.616	734.036
162.892	22.524	936.298	732.082
163.906	22.660	934.327	731.041
164.921	22.654	933.390	730.219
165.935	22.362	934.139	729.530
166.950	22.736	932.701	729.890
167.964	22.763	932.161	729.514
168.979	22.473	931.019	727.358
169.994	22.728	929.305	727.004
171.008	22.842	929.366	727.457
172.023	22.998	929.226	727.928
173.037	23.294	928.651	728.629
174.052	22.774	927.547	725.563
175.067	22.455	926.239	723.166
176.081	22.611	924.868	722.669
177.096	22.515	924.638	722.031
178.110	22.222	923.144	719.603
179.125	21.962	923.686	718.899
180.140	22.172	923.720	719.721
181.154	22.566	923.049	720.745
182.169	23.006	922.983	722.431
183.183	22.991	922.399	721.846
184.198	22.795	921.578	720.340
185.213	22.784	920.566	719.440
186.227	22.991	919.468	719.362
187.242	22.947	919.930	719.482
188.256	23.144	919.712	720.047
189.271	23.227	918.360	719.262
190.286	22.599	917.978	716.347
191.300	22.467	915.957	714.175
192.315	22.130	915.466	712.362
193.329	22.156	915.172	712.177
194.344	22.173	915.304	712.282
195.359	22.652	914.250	713.339
196.373	22.826	913.815	713.640
197.388	23.158	913.001	714.281
198.402	23.359	914.083	715.877
199.417	23.365	913.770	715.592
200.432	23.235	913.393	714.708
201.446	23.524	912.343	714.991
202.461	23.633	911.269	714.522
203.475	23.417	909.584	712.270
204.490	22.957	909.672	710.430
205.504	22.969	908.677	709.637
206.519	23.004	908.085	709.251
207.534	23.001	907.722	708.894
208.548	23.041	905.626	707.352
209.563	22.519	907.209	706.434
210.577	22.659	906.188	706.137
211.592	23.223	905.688	707.943
212.607	23.928	904.366	709.661
213.621	23.423	904.139	707.404
214.636	23.302	903.178	706.109
215.650	22.985	902.923	704.583
216.665	23.125	902.436	704.699
217.680	23.479	901.197	705.076
218.694	23.456	900.427	704.318
219.709	23.260	899.996	703.140
220.723	23.050	899.415	701.791
221.738	23.395	898.174	702.129
222.753	23.240	897.623	701.023
223.767	22.932	897.417	699.579
224.782	23.379	897.551	701.393
225.796	23.746	896.832	702.217
226.811	23.320	895.148	699.158
227.826	23.103	894.627	697.831
228.840	23.159	893.632	697.214
229.855	22.983	892.961	695.939
230.869	22.796	892.706	694.939
231.884	22.735	892.188	694.237
232.899	22.821	890.890	693.501
233.913	22.657	890.764	692.699
234.928	22.433	889.537	690.803
235.942	22.183	889.804	689.971
236.957	22.626	888.115	690.336
237.972	22.321	888.636	689.485
238.986	22.389	887.956	689.162
240.001	22.280	886.852	687.817
241.015	22.297	886.773	687.762
242.030	22.602	886.069	688.344
243.045	22.785	885.703	688.712
244.059	23.016	885.530	689.421
245.074	22.980	884.734	688.600
246.088	23.218	884.135	688.997
247.103	23.264	883.719	688.791
248.117	23.576	883.123	689.478
249.132	23.967	883.943	691.577
250.147	24.443	883.100	692.705
251.161	24.296	883.315	692.241
252.176	24.165	883.026	691.448
253.190	24.364	881.965	691.325
254.205	24.694	880.173	691.137
255.220	24.153	879.653	688.577
256.234	23.956	879.272	687.457
257.249	24.334	878.266	688.067
258.263	24.066	877.823	686.626
259.278	24.276	877.010	686.739
260.293	23.968	877.494	685.867
261.307	24.661	875.190	686.670
262.322	24.062	876.560	685.381
263.336	24.077	875.374	684.448
264.351	24.011	873.620	682.764
265.366	23.851	873.291	681.833
266.380	24.283	873.832	683.852
267.395	23.997	872.670	681.788
268.409	23.852	872.506	681.043
269.424	24.003	870.929	680.329
270.439	23.996	869.504	679.126
271.453	23.667	869.759	678.012
272.468	23.801	868.736	677.665
273.482	23.932	868.021	677.545
274.497	23.920	868.299	677.658
275.512	23.911	867.246	676.740
276.526	24.038	866.878	676.876
277.541	24.049	867.312	677.197
278.555	24.352	865.776	677.089
279.570	24.297	866.371	677.287
280.585	24.249	864.815	675.828
281.599	24.306	863.573	675.013
282.614	23.734	863.601	672.810
283.628	24.036	860.747	671.667
284.643	23.727	862.227	671.593
285.657	23.521	861.160	669.927
286.672	24.093	860.181	671.261
287.687	24.031	859.679	670.578
288.701	23.851	859.345	669.578
289.716	23.852	859.038	669.284
290.730	23.805	858.331	668.497
291.745	23.888	858.135	668.597
292.760	23.963	857.884	668.625
293.774	24.302	857.698	669.694
294.789	24.444	856.365	669.125
295.803	24.164	855.790	667.568
296.818	24.204	854.322	666.515
297.833	24.132	853.160	665.278
298.847	24.214	853.847	666.062
299.862	23.800	854.507	664.971
300.876	24.307	852.839	665.507
301.891	24.530	852.783	666.234
302.906	24.757	852.206	666.571
303.920	24.763	851.390	665.896
304.935	25.076	851.392	667.003
305.949	24.642	850.245	664.434
306.964	24.103	849.766	661.998
307.979	23.928	849.640	661.192
308.993	24.400	848.668	662.127
310.008	24.527	848.375	662.310
311.022	24.354	847.781	661.149
312.037	23.831	846.989	658.534
313.052	23.746	845.905	657.318
314.066	23.531	845.489	656.143
315.081	23.875	844.779	656.805
316.095	23.905	844.196	656.405
317.110	23.800	843.303	655.263
318.125	23.845	841.850	654.243
319.139	23.524	841.934	653.068
320.154	22.811	843.207	651.368
321.168	23.369	842.547	652.857
322.183	23.597	840.992	652.434
323.197	23.680	841.117	652.776
324.212	23.966	839.272	652.338
325.227	24.119	839.100	652.706
326.241	23.446	839.868	650.777
327.256	23.213	839.097	649.265
328.270	23.123	837.949	647.991
329.285	23.657	835.982	648.362
330.300	23.421	836.573	647.900
331.314	23.529	836.347	648.063
332.329	24.058	835.887	649.580
333.343	23.833	835.089	648.083
334.358	24.160	835.305	649.385
335.373	24.356	834.234	649.211
336.387	24.956	833.485	650.751
337.402	24.399	834.283	649.289
338.416	24.649	833.893	649.837
339.431	25.181	832.786	650.850
340.446	24.804	833.611	650.067
341.460	25.155	833.242	650.996
342.475	24.934	833.368	650.232
343.489	24.881	833.353	649.972
344.504	25.125	832.659	650.257
345.519	25.644	831.186	650.929
346.533	25.330	831.621	650.074
347.548	25.095	830.676	648.427
348.562	24.626	829.912	646.080
349.577	24.139	828.947	643.512
350.592	24.265	828.463	643.533
351.606	23.975	827.137	641.404
352.621	24.041	827.224	641.652
353.635	24.236	825.917	641.283
354.650	24.050	826.084	640.686
355.665	24.209	824.715	640.138
356.679	24.870	823.363	641.401
357.694	24.644	822.801	640.097
358.708	24.431	823.062	639.480
359.723	24.083	822.876	638.032
360.738	24.656	821.630	639.062
361.752	24.497	821.649	638.450
362.767	24.826	821.415	639.388
363.781	25.293	821.070	640.730
364.796	25.209	820.895	640.237
365.810	25.423	820.831	640.892
366.825	25.304	819.866	639.660
367.840	25.458	819.190	639.625
368.854	24.665	818.032	635.843
369.869	24.759	817.254	635.517
370.883	24.995	816.939	636.053
371.898	25.013	817.096	636.182
372.913	25.261	817.306	637.171
373.927	24.932	816.360	635.212
374.942	25.062	815.271	634.766
375.956	25.006	815.860	634.971
376.971	25.421	814.830	635.582
377.986	25.260	815.461	635.449
379.000	25.576	813.085	634.655
380.015	25.228	813.986	634.074
381.029	25.157	812.954	632.961
382.044	25.423	812.924	633.821
383.059	25.219	812.870	633.002
384.073	25.399	811.196	632.277
385.088	25.033	809.839	629.879
386.102	24.684	809.446	628.288
387.117	24.606	809.072	627.669
388.132	24.311	808.877	626.428
389.146	24.721	807.886	627.041
390.161	24.863	807.906	627.500
391.175	25.267	807.273	628.366
392.190	24.922	806.613	626.591
393.205	24.462	806.086	624.516
394.219	24.185	805.554	623.083
395.234	23.850	805.052	621.467
396.248	24.366	804.916	623.110
397.263	24.685	803.156	622.805
398.278	24.370	803.554	621.958
399.292	24.109	803.189	620.711
400.307	23.842	802.594	619.266
401.321	23.841	803.444	619.864
402.336	24.696	801.490	621.275
403.350	24.952	801.084	621.795
404.365	25.131	801.854	622.958
405.380	25.388	801.685	623.666
406.394	25.591	800.728	623.571
407.409	25.721	800.215	623.564
408.423	25.706	800.042	623.323
409.438	26.012	799.553	623.945
410.453	25.969	799.479	623.686
411.467	25.757	799.366	622.808
412.482	25.889	798.452	622.496
413.496	25.577	797.974	620.993
414.511	25.399	798.271	620.553
415.526	25.449	797.972	620.438
416.540	25.465	797.614	620.162
417.555	25.649	796.114	619.572
418.569	25.446	796.148	618.845
419.584	25.514	795.952	618.872
420.599	25.797	794.892	618.966
421.613	161.953	1370.683	1794.078
422.628	140.458	1454.556	1794.136
