DTS Sentinel unit serial number:	SN413079Multiplexer serial number:	ORYXHardware model number:	OX4-SRSoftware version number:	ORYX F/W v4.00 Oryx Data Collector v3.7.2.0data status	okinstallation	princeton_trtdifferential loss correction	single-endedforward channel	channel 1reverse channel	N/Adate	2019/09/16time	12:50:35forward acquisition time	60.00reverse acquisition time	0.00gamma	496.2192k internal	0.2294k external	0.2294temperature offset calibration	0.9953default loss term (dB/km)	0.3790temperature slope calibration	1.0000multiplexer offset coefficient	1.0000multiplexer slope coefficient	1.0000fibre end	0.00T internal ref (°C)	40.31T ext. ref 1 (°C)	13.51T ext. ref 2 (°C)	37.12length (m)	temperature (°C)	Stokes	anti-Stokes-747.200	-155.124	0.476	0.032
-746.185	-12.902	0.179	0.119
-745.171	437.652	-0.091	-0.204
-744.156	-129.095	0.189	0.027
-743.142	785.443	-0.139	-0.391
-742.127	-103.646	0.212	0.051
-741.112	-56.970	0.207	-0.093
-740.098	34.296	0.115	0.102
-739.083	549.519	-0.074	0.182
-738.069	12.224	-0.314	0.247
-737.054	226.412	-0.093	-0.155
-736.039	-200.000	0.051	-0.236
-735.025	-200.000	0.039	0.265
-734.010	14.256	0.109	-0.087
-732.996	64.136	-0.142	-0.146
-731.981	437.503	-0.078	0.173
-730.966	800.000	0.105	-0.400
-729.952	-200.000	0.051	-0.255
-728.937	67.852	-0.143	0.149
-727.923	-6.957	-0.165	-0.114
-726.908	-68.992	-0.417	-0.164
-725.894	118.517	0.111	-0.140
-724.879	224.784	-0.053	0.087
-723.864	-78.189	-0.148	-0.052
-722.850	-113.106	-0.178	-0.036
-721.835	194.082	0.184	0.284
-720.821	20.052	-0.247	0.204
-719.806	-72.123	0.267	-0.101
-718.791	-133.787	-0.206	0.026
-717.777	-200.000	-0.004	0.202
-716.762	800.000	-0.048	-0.145
-715.748	56.898	-0.168	-0.167
-714.733	800.000	0.082	0.245
-713.718	-200.000	-0.014	0.100
-712.704	-3.416	0.381	0.271
-711.689	177.715	-0.144	-0.214
-710.675	191.410	0.165	-0.254
-709.660	31.337	-0.328	-0.287
-708.645	-126.620	0.299	0.045
-707.631	286.064	0.163	-0.300
-706.616	800.000	0.014	-0.056
-705.602	-200.000	0.023	-0.125
-704.587	-76.011	-0.255	-0.092
-703.572	471.705	-0.052	0.118
-702.558	-47.388	0.148	-0.073
-701.543	-200.000	0.014	0.064
-700.529	-160.870	0.501	0.027
-699.514	-90.871	0.465	0.137
-698.499	85.273	-0.185	-0.207
-697.485	-200.000	0.048	-0.235
-696.470	-136.307	-0.336	-0.040
-695.456	-169.488	0.261	-0.010
-694.441	289.161	-0.106	-0.196
-693.426	201.988	-0.130	-0.205
-692.412	-33.270	-0.336	0.190
-691.397	-154.221	-0.146	-0.010
-690.383	800.000	-0.072	0.272
-689.368	-95.724	0.104	0.028
-688.354	-113.524	0.276	-0.055
-687.339	-200.000	0.039	0.326
-686.324	297.819	0.115	-0.215
-685.310	31.849	0.171	0.150
-684.295	800.000	-0.076	-0.225
-683.281	-200.000	0.014	0.233
-682.266	-81.257	-0.182	-0.061
-681.251	-17.391	0.211	0.136
-680.237	751.920	-0.009	0.025
-679.222	-4.927	0.161	-0.113
-678.208	-145.577	-0.277	0.025
-677.193	19.528	0.161	-0.132
-676.178	800.000	0.108	-0.400
-675.164	-180.684	-0.196	-0.004
-674.149	-200.000	-0.053	-0.241
-673.135	-200.000	0.030	-0.210
-672.120	-36.491	0.070	0.039
-671.105	-1.584	0.124	0.089
-670.091	697.028	-0.112	0.301
-669.076	49.772	0.051	0.049
-668.062	133.397	-0.213	0.280
-667.047	241.836	0.030	0.051
-666.032	-19.284	0.155	0.098
-665.018	-45.892	0.312	-0.157
-664.003	-8.666	-0.133	-0.091
-662.989	12.287	-0.246	-0.193
-661.974	-85.728	0.120	-0.038
-660.959	-2.333	0.055	-0.040
-659.945	128.520	0.088	-0.114
-658.930	205.317	-0.139	0.221
-657.916	-77.034	-0.194	-0.069
-656.901	-107.494	-0.181	0.040
-655.886	200.030	-0.233	-0.364
-654.872	-200.000	-0.041	-0.229
-653.857	800.000	-0.029	-0.121
-652.843	800.000	-0.061	-0.205
-651.828	16.527	-0.121	0.097
-650.814	53.561	-0.076	-0.074
-649.799	-60.369	-0.462	0.200
-648.784	800.000	-0.064	-0.200
-647.770	-200.000	-0.038	-0.311
-646.755	21.695	0.206	0.171
-645.741	-66.738	-0.345	0.139
-644.726	229.490	0.187	-0.310
-643.711	-159.061	-0.223	-0.013
-642.697	-200.000	0.006	0.247
-641.682	-112.681	0.330	0.067
-640.668	-121.704	-0.281	0.047
-639.653	174.009	-0.061	-0.089
-638.638	264.486	0.189	-0.336
-637.624	4.025	-0.316	0.235
-636.609	-200.000	-0.021	0.269
-635.595	-95.884	-0.164	-0.044
-634.580	571.303	-0.054	0.134
-633.565	-200.000	-0.033	0.147
-632.551	-134.246	0.167	0.021
-631.536	452.471	-0.121	-0.273
-630.522	800.000	0.016	-0.045
-629.507	34.834	-0.211	-0.188
-628.492	-96.360	0.165	0.044
-627.478	536.083	-0.014	-0.035
-626.463	-200.000	-0.286	0.000
-625.449	-35.415	0.130	0.072
-624.434	153.376	0.203	0.283
-623.419	364.276	0.057	0.116
-622.405	-73.667	-0.228	-0.084
-621.390	183.150	0.120	0.181
-620.376	-107.733	-0.184	-0.041
-619.361	64.939	0.291	-0.299
-618.346	-200.000	0.047	0.278
-617.332	28.629	-0.238	-0.205
-616.317	-96.445	-0.201	-0.054
-615.303	364.527	-0.022	-0.045
-614.288	-200.000	0.023	-0.112
-613.273	275.747	0.059	-0.107
-612.259	-200.000	-0.014	-0.106
-611.244	-200.000	0.022	-0.140
-610.230	-200.000	0.015	-0.126
-609.215	-6.623	-0.302	-0.209
-608.201	43.953	-0.202	0.188
-607.186	108.886	0.186	-0.226
-606.171	-39.999	0.166	-0.088
-605.157	-67.640	-0.257	-0.103
-604.142	70.493	0.198	-0.208
-603.128	800.000	0.048	0.185
-602.113	800.000	0.089	0.338
-601.098	-50.239	-0.329	0.158
-600.084	-34.094	-0.207	-0.116
-599.069	31.475	-0.147	-0.128
-598.055	-165.146	0.302	0.014
-597.040	47.093	-0.214	-0.202
-596.025	-146.694	0.313	-0.028
-595.011	227.945	0.088	0.145
-593.996	-103.082	0.145	0.035
-592.982	-15.920	-0.167	0.108
-591.967	-88.043	-0.105	0.032
-590.952	-200.000	0.014	-0.118
-589.938	336.880	0.136	0.268
-588.923	-73.970	0.270	-0.099
-587.909	-99.346	-0.093	0.024
-586.894	116.362	0.099	0.123
-585.879	129.737	-0.074	-0.096
-584.865	167.779	-0.077	-0.111
-583.850	177.963	0.136	0.202
-582.836	177.237	-0.104	0.154
-581.821	90.610	0.171	-0.194
-580.806	-130.353	-0.100	-0.014
-579.792	-54.429	-0.145	-0.067
-578.777	-83.163	-0.231	0.076
-577.763	-200.000	-0.044	-0.226
-576.748	-45.412	-0.074	0.037
-575.733	44.091	0.118	-0.110
-574.719	-68.860	0.241	0.095
-573.704	-32.521	-0.405	-0.229
-572.690	-72.530	-0.180	-0.068
-571.675	84.197	0.209	-0.232
-570.661	-114.062	0.173	0.034
-569.646	-200.000	0.007	-0.065
-568.631	-200.000	0.031	-0.224
-567.617	-40.935	0.278	-0.146
-566.602	-73.430	0.412	-0.153
-565.588	248.851	-0.171	-0.295
-564.573	-44.198	0.305	-0.155
-563.558	200.623	0.071	0.111
-562.544	-136.557	0.268	-0.032
-561.529	-200.000	0.014	0.214
-560.515	295.371	0.053	-0.099
-559.500	-57.767	0.131	0.058
-558.485	-85.695	0.140	0.044
-557.471	74.255	0.098	0.104
-556.456	-200.000	-0.024	0.126
-555.442	-54.473	-0.150	-0.069
-554.427	-107.254	-0.054	0.012
-553.412	-200.000	0.037	-0.364
-552.398	-64.757	-0.136	0.056
-551.383	-52.379	0.234	0.110
-550.369	800.000	0.055	0.219
-549.354	20.540	-0.207	-0.170
-548.339	764.028	-0.069	-0.190
-547.325	-200.000	-0.028	-0.177
-546.310	663.139	-0.046	-0.121
-545.296	682.497	-0.030	0.079
-544.281	-34.613	-0.279	-0.155
-543.266	34.281	0.056	0.050
-542.252	-200.000	0.049	0.272
-541.237	-93.307	-0.379	-0.107
-540.223	-200.000	-0.044	-0.195
-539.208	73.204	-0.028	-0.030
-538.193	800.000	-0.037	0.132
-537.179	-106.555	-0.499	-0.113
-536.164	800.000	0.061	0.206
-535.150	800.000	0.051	0.144
-534.135	-200.000	-0.010	-0.218
-533.121	231.460	0.098	-0.162
-532.106	360.385	0.054	0.110
-531.091	-200.000	0.001	-0.017
-530.077	49.263	-0.120	0.115
-529.062	-89.440	-0.116	-0.035
-528.048	-113.700	-0.074	-0.015
-527.033	-100.686	0.146	-0.037
-526.018	349.244	0.099	0.199
-525.004	-136.124	-0.182	-0.022
-523.989	-101.367	-0.135	-0.033
-522.975	320.352	0.100	0.192
-521.960	-95.216	0.150	-0.041
-520.945	-14.267	0.064	-0.042
-519.931	-200.000	0.089	0.411
-518.916	-200.000	0.091	-0.461
-517.902	-200.000	0.024	-0.254
-516.887	462.510	-0.182	0.412
-515.872	132.610	0.129	0.169
-514.858	232.175	-0.128	0.213
-513.843	-200.000	-0.021	0.093
-512.829	-107.946	0.273	0.060
-511.814	167.497	-0.124	0.179
-510.799	263.539	0.089	-0.156
-509.785	-200.000	-0.070	-0.454
-508.770	299.397	-0.135	0.252
-507.756	-114.566	-0.356	0.069
-506.741	-171.538	-0.409	0.014
-505.726	800.000	-0.021	-0.069
-504.712	-55.930	-0.177	0.080
-503.697	214.779	-0.035	0.057
-502.683	-90.048	0.284	0.084
-501.668	-50.546	0.112	0.054
-500.653	351.090	-0.050	-0.101
-499.639	77.800	-0.124	0.134
-498.624	74.543	-0.090	-0.096
-497.610	595.283	-0.083	0.209
-496.595	715.604	-0.086	0.230
-495.581	-200.000	-0.014	-0.167
-494.566	29.787	0.314	-0.271
-493.551	-200.000	-0.024	0.238
-492.537	28.028	0.190	0.162
-491.522	-97.370	0.101	0.027
-490.508	0.629	-0.168	-0.122
-489.493	132.438	-0.148	-0.193
-488.478	371.231	0.151	0.310
-487.464	23.096	-0.236	-0.196
-486.449	-179.049	-0.284	-0.006
-485.435	-50.296	0.258	-0.124
-484.420	-200.000	0.039	0.188
-483.405	-95.720	-0.236	0.064
-482.391	800.000	0.072	0.208
-481.376	252.397	0.043	-0.075
-480.362	-82.713	-0.139	-0.046
-479.347	-200.000	0.010	-0.120
-478.332	439.738	0.080	-0.177
-477.318	-155.445	0.151	0.010
-476.303	-44.503	0.051	-0.026
-475.289	408.716	-0.122	0.261
-474.274	90.810	0.042	0.047
-473.259	-184.242	0.325	-0.005
-472.245	377.086	-0.045	0.094
-471.230	245.932	-0.048	0.081
-470.216	302.436	-0.064	0.121
-469.201	800.000	-0.070	-0.199
-468.186	-59.936	0.424	0.183
-467.172	-70.379	0.242	-0.093
-466.157	13.756	-0.410	-0.322
-465.143	-85.956	0.126	-0.039
-464.128	-107.717	0.233	-0.051
-463.113	-200.000	0.010	0.055
-462.099	21.468	0.093	-0.077
-461.084	-200.000	0.010	-0.348
-460.070	102.572	-0.184	-0.218
-459.055	-200.000	-0.003	-0.117
-458.040	-175.998	0.113	0.003
-457.026	462.244	0.234	0.527
-456.011	127.221	-0.012	-0.016
-454.997	-45.666	0.235	-0.117
-453.982	268.719	-0.091	-0.161
-452.968	325.325	-0.044	-0.086
-451.953	-101.100	-0.035	0.009
-450.938	-200.000	0.013	-0.349
-449.924	-200.000	0.033	-0.158
-448.909	271.030	-0.102	0.182
-447.895	-6.993	-0.166	0.114
-446.880	452.486	0.135	0.302
-445.865	-11.586	-0.016	0.010
-444.851	-6.621	0.127	0.087
-443.836	154.372	-0.236	0.328
-442.822	800.000	0.062	0.214
-441.807	-18.582	0.264	0.167
-440.792	41.346	0.328	0.300
-439.778	-85.720	0.400	0.125
-438.763	339.033	0.089	0.175
-437.749	-200.000	0.003	0.136
-436.734	33.111	-0.075	-0.066
-435.719	-186.312	-0.036	-0.001
-434.705	319.623	-0.098	-0.187
-433.690	800.000	0.034	-0.120
-432.676	290.557	0.135	-0.248
-431.661	-110.802	0.412	0.086
-430.646	692.845	-0.080	-0.213
-429.632	-23.061	0.275	0.167
-428.617	-109.520	0.246	0.052
-427.603	-108.333	-0.314	0.069
-426.588	61.009	0.310	-0.310
-425.573	-200.000	-0.050	-0.244
-424.559	32.964	-0.255	-0.223
-423.544	259.326	0.269	-0.469
-422.530	233.797	0.083	-0.138
-421.515	497.894	0.101	-0.234
-420.500	255.381	-0.042	-0.073
-419.486	413.199	0.122	0.262
-418.471	-129.284	-0.051	-0.007
-417.457	69.952	0.077	-0.081
-416.442	-87.495	-0.343	0.105
-415.428	-10.077	-0.345	0.231
-414.413	189.879	-0.058	-0.087
-413.398	-200.000	0.033	-0.146
-412.384	-200.000	-0.011	0.536
-411.369	128.057	0.075	-0.096
-410.355	-200.000	-0.018	-0.374
-409.340	467.450	0.148	-0.335
-408.325	-68.749	-0.448	-0.175
-407.311	-8.907	0.144	0.097
-406.296	-45.048	0.187	-0.094
-405.282	41.421	0.067	0.062
-404.267	-139.539	0.082	0.009
-403.252	18.213	-0.214	0.172
-402.238	88.354	-0.103	0.115
-401.223	800.000	-0.059	-0.238
-400.209	27.577	-0.281	0.238
-399.194	312.541	-0.135	-0.255
-398.179	-66.924	-0.043	0.017
-397.165	540.730	-0.052	-0.125
-396.150	483.607	0.015	-0.034
-395.136	-163.955	-0.365	0.017
-394.121	48.850	0.053	-0.050
-393.106	180.775	0.070	-0.103
-392.092	-200.000	0.008	0.191
-391.077	27.557	-0.089	0.075
-390.063	-147.977	-0.079	0.007
-389.048	239.270	-0.136	-0.229
-388.033	-67.797	-0.245	0.097
-387.019	-200.000	-0.013	0.398
-386.004	158.169	-0.075	0.105
-384.990	-200.000	-0.019	0.143
-383.975	115.330	0.064	0.079
-382.960	498.412	0.022	-0.050
-381.946	-24.953	-0.175	0.105
-380.931	-138.438	-0.176	0.020
-379.917	158.141	-0.111	-0.155
-378.902	-200.000	0.033	-0.360
-377.888	800.000	-0.019	0.060
-376.873	800.000	-0.016	-0.047
-375.858	-22.387	0.336	0.205
-374.844	800.000	0.066	0.220
-373.829	-200.000	0.213	0.001
-372.815	800.000	-0.097	0.390
-371.800	-120.569	-0.300	0.051
-370.785	-200.000	0.048	-0.329
-369.771	651.152	0.141	0.365
-368.756	-200.000	0.002	0.159
-367.742	-56.090	-0.366	0.164
-366.727	171.729	0.043	0.063
-365.712	-125.556	0.227	0.035
-364.698	-148.992	0.411	0.033
-363.683	-64.759	0.136	0.056
-362.669	231.632	-0.019	-0.031
-361.654	527.212	-0.053	-0.125
-360.639	-200.000	0.006	-0.158
-359.625	-200.000	-0.128	0.001
-358.610	-9.200	-0.099	-0.067
-357.596	-80.124	0.233	0.079
-356.581	-200.000	-0.084	0.486
-355.566	800.000	-0.085	-0.281
-354.552	-93.589	-0.203	0.057
-353.537	-200.000	-0.027	0.240
-352.523	18.394	-0.034	0.027
-351.508	-200.000	-0.030	-0.372
-350.493	800.000	-0.104	0.401
-349.479	-200.000	-0.022	0.166
-348.464	-74.971	0.174	0.063
-347.450	15.635	-0.144	-0.114
-346.435	-42.050	-0.273	-0.140
-345.420	-94.694	0.108	0.029
-344.406	38.163	0.102	-0.091
-343.391	-28.157	0.349	-0.203
-342.377	-78.197	-0.478	0.166
-341.362	37.815	-0.248	0.222
-340.348	-77.414	0.158	-0.055
-339.333	159.116	-0.092	0.129
-338.318	71.262	0.201	0.210
-337.304	152.368	0.152	0.209
-336.289	-26.266	-0.354	0.209
-335.275	-19.174	0.149	-0.093
-334.260	96.531	-0.035	0.040
-333.245	191.128	-0.096	0.145
-332.231	228.028	0.100	-0.164
-331.216	-136.575	0.234	0.027
-330.202	239.229	-0.092	0.154
-329.187	-11.044	-0.367	0.244
-328.172	800.000	0.076	0.242
-327.158	-200.000	-0.016	-0.217
-326.143	-147.218	0.098	-0.008
-325.129	112.299	-0.110	0.134
-324.114	102.413	-0.226	-0.266
-323.099	-200.000	-0.024	-0.116
-322.085	25.150	-0.029	-0.024
-321.070	87.921	0.131	0.147
-320.056	-49.391	0.076	-0.037
-319.041	-200.000	0.009	-0.351
-318.026	-173.551	0.047	-0.001
-317.012	800.000	0.109	0.366
-315.997	-90.268	-0.311	-0.091
-314.983	-44.053	0.165	0.083
-313.968	67.317	-0.136	-0.139
-312.953	-200.000	0.010	-0.254
-311.939	-200.000	-0.006	-0.139
-310.924	47.819	-0.251	-0.236
-309.910	-200.000	0.034	-0.152
-308.895	-200.000	-0.004	0.043
-307.880	-77.956	0.091	0.032
-306.866	-28.728	0.182	0.105
-305.851	800.000	0.028	0.088
-304.837	-119.408	-0.108	-0.019
-303.822	-62.297	0.298	0.125
-302.807	-80.443	0.237	0.080
-301.793	341.254	-0.125	0.245
-300.778	-81.896	-0.075	0.025
-299.764	733.443	0.087	-0.234
-298.749	10.279	0.225	-0.172
-297.735	-200.000	0.055	0.301
-296.720	162.460	0.110	0.155
-295.705	-135.588	0.258	-0.031
-294.691	-168.114	-0.177	0.007
-293.676	-111.971	-0.123	-0.025
-292.662	-69.631	-0.325	0.125
-291.647	110.528	-0.178	0.215
-290.632	-71.091	-0.293	-0.111
-289.618	-76.777	0.195	0.069
-288.603	661.403	-0.116	-0.301
-287.589	279.402	0.116	0.209
-286.574	53.655	0.311	-0.300
-285.559	-89.642	-0.252	0.074
-284.545	-200.000	0.008	-0.210
-283.530	516.472	-0.010	0.024
-282.516	-200.000	-0.000	-0.249
-281.501	-200.000	0.051	0.341
-280.486	-189.358	-0.158	-0.002
-279.472	-55.745	0.193	-0.087
-278.457	-48.118	0.142	-0.069
-277.443	-72.476	0.176	0.065
-276.428	-62.331	-0.182	-0.076
-275.413	-33.493	0.184	0.102
-274.399	-146.463	0.235	0.021
-273.384	-98.929	-0.290	-0.074
-272.370	21.654	0.225	-0.184
-271.355	-60.445	-0.169	0.072
-270.340	57.946	0.088	0.086
-269.326	234.677	0.089	0.147
-268.311	376.307	-0.067	0.138
-267.297	26.902	0.099	0.083
-266.282	16.532	-0.065	-0.052
-265.267	-200.000	0.008	0.072
-264.253	-200.000	0.014	0.417
-263.238	-139.791	-0.220	0.023
-262.224	2.934	0.180	-0.131
-261.209	-11.236	0.103	0.068
-260.195	-195.423	-0.390	0.003
-259.180	-200.000	-0.018	0.221
-258.165	132.523	0.163	-0.211
-257.151	106.464	-0.094	-0.112
-256.136	800.000	0.024	-0.087
-255.122	-102.384	0.042	-0.010
-254.107	800.000	0.019	-0.071
-253.092	1.518	0.210	0.152
-252.078	-142.176	-0.250	0.025
-251.063	-200.000	0.022	-0.322
-250.049	33.203	-0.202	-0.176
-249.034	158.221	0.045	-0.063
-248.019	21.436	-0.257	-0.210
-247.005	64.731	-0.133	-0.135
-245.990	423.955	0.068	0.148
-244.976	-200.000	0.026	-0.451
-243.961	-103.763	-0.275	-0.065
-242.946	-108.488	-0.039	-0.008
-241.932	-11.635	0.319	0.210
-240.917	-200.000	-0.058	0.317
-239.903	-160.235	-0.259	-0.014
-238.888	55.096	-0.131	0.127
-237.873	-159.712	-0.321	-0.018
-236.859	192.681	0.076	0.115
-235.844	73.051	0.227	0.238
-234.830	-92.467	0.128	0.036
-233.815	137.360	0.151	-0.198
-232.800	-49.518	-0.119	0.057
-231.786	-200.000	0.033	-0.159
-230.771	515.580	-0.088	-0.207
-229.757	333.975	-0.076	-0.147
-228.742	800.000	0.032	-0.122
-227.727	-97.570	0.189	-0.049
-226.713	-88.552	0.131	0.039
-225.698	45.771	0.099	0.092
-224.684	-141.764	0.131	-0.013
-223.669	-200.000	0.086	0.562
-222.655	377.893	-0.081	0.165
-221.640	176.209	-0.054	-0.079
-220.625	450.901	0.149	0.330
-219.611	-194.157	-0.081	0.001
-218.596	332.945	-0.098	-0.190
-217.582	149.689	0.059	-0.080
-216.567	700.220	0.045	0.120
-215.552	382.183	-0.079	0.163
-214.538	601.487	0.132	-0.327
-213.523	-175.327	0.424	-0.012
-212.509	107.291	0.112	-0.133
-211.494	-200.000	0.048	-0.323
-210.479	322.854	0.158	-0.301
-209.465	137.560	-0.135	0.177
-208.450	-200.000	-0.051	0.339
-207.436	800.000	-0.061	-0.191
-206.421	42.213	-0.196	0.179
-205.406	-104.745	0.307	0.071
-204.392	402.470	0.081	-0.169
-203.377	-200.000	0.050	-0.448
-202.363	-100.458	0.099	-0.025
-201.348	-162.513	-0.476	-0.024
-200.333	-200.000	0.003	0.026
-199.319	-59.008	-0.184	0.080
-198.304	67.210	0.313	0.320
-197.290	182.583	-0.065	-0.095
-196.275	-98.335	-0.213	0.055
-195.260	-125.661	0.128	-0.019
-194.246	-174.017	0.326	-0.010
-193.231	-200.000	0.025	0.146
-192.217	554.361	-0.091	-0.220
-191.202	-166.780	0.153	-0.006
-190.187	-3.104	-0.209	0.146
-189.173	258.602	0.087	-0.150
-188.158	-19.224	-0.194	0.121
-187.144	-160.223	0.152	0.008
-186.129	-159.073	-0.015	-0.001
-185.114	86.034	-0.162	0.178
-184.100	-56.456	0.081	0.036
-183.085	800.000	0.168	0.587
-182.071	800.000	0.084	-0.330
-181.056	800.000	-0.103	-0.301
-180.042	-200.000	0.011	-0.141
-179.027	82.322	0.148	-0.161
-178.012	-191.752	-0.443	0.004
-176.998	460.481	-0.124	-0.276
-175.983	373.986	0.062	-0.125
-174.969	-200.000	0.003	0.194
-173.954	233.580	0.203	-0.333
-172.939	800.000	0.173	0.559
-171.925	-200.000	0.040	0.202
-170.910	539.721	0.143	-0.339
-169.896	141.925	0.132	-0.175
-168.881	-104.489	-0.225	0.052
-167.866	-120.165	-0.106	-0.018
-166.852	-53.437	0.207	0.095
-165.837	-200.000	0.004	0.127
-164.823	800.000	-0.049	0.165
-163.808	-200.000	-0.032	-0.165
-162.793	-88.503	0.169	-0.050
-161.779	30.203	-0.239	-0.204
-160.764	-21.544	0.362	0.221
-159.750	-200.000	-0.021	-0.292
-158.735	53.362	-0.088	0.084
-157.720	204.916	0.119	0.184
-156.706	-113.139	0.163	0.032
-155.691	773.167	-0.094	0.257
-154.677	-88.838	0.420	0.125
-153.662	800.000	-0.161	-0.445
-152.647	12.649	0.528	0.407
-151.633	-200.000	0.016	-0.110
-150.618	130.166	0.035	-0.045
-149.604	102.452	-0.171	0.200
-148.589	94.853	-0.320	-0.364
-147.574	800.000	-0.073	0.316
-146.560	800.000	0.026	-0.086
-145.545	-2.875	0.141	-0.098
-144.531	-7.566	0.139	-0.094
-143.516	-200.000	-0.021	0.103
-142.502	-147.762	-0.415	-0.035
-141.487	-200.000	0.002	0.267
-140.472	462.799	0.074	-0.165
-139.458	150.216	-0.019	-0.026
-138.443	140.207	0.035	0.047
-137.429	162.762	-0.062	-0.087
-136.414	-166.464	0.208	-0.009
-135.399	216.173	0.044	0.069
-134.385	-82.965	0.224	0.072
-133.370	192.777	0.131	0.197
-132.356	-200.000	-0.038	-0.320
-131.341	297.894	-0.067	0.123
-130.326	81.850	0.258	0.279
-129.312	-34.311	0.157	0.086
-128.297	556.547	-0.074	0.177
-127.283	-24.925	-0.006	-0.003
-126.268	-37.723	-0.156	-0.083
-125.253	-163.807	0.135	-0.006
-124.239	322.963	-0.137	-0.260
-123.224	-200.000	-0.001	-0.430
-122.210	-200.000	-0.035	-0.154
-121.195	-24.527	0.100	0.059
-120.180	-200.000	0.029	0.222
-119.166	302.316	-0.223	0.412
-118.151	800.000	-0.059	0.167
-117.137	-79.827	0.079	-0.026
-116.122	-122.322	0.310	-0.050
-115.107	112.849	-0.059	-0.072
-114.093	383.143	-0.176	0.361
-113.078	178.298	0.147	-0.214
-112.064	515.019	-0.069	-0.161
-111.049	187.468	0.201	-0.300
-110.034	-60.583	-0.071	0.030
-109.020	-100.614	0.239	-0.059
-108.005	-125.088	0.051	0.008
-106.991	-200.000	0.061	-0.271
-105.976	-200.000	0.037	0.173
-104.962	800.000	-0.059	0.219
-103.947	-200.000	-0.044	0.296
-102.932	17.541	0.139	0.110
-101.918	-31.113	-0.245	0.138
-100.903	-141.657	-0.196	0.020
-99.889	143.530	0.251	0.333
-98.874	507.456	0.023	0.053
-97.859	-200.000	-0.000	-0.235
-96.845	-121.033	0.160	-0.027
-95.830	-42.928	-0.388	-0.197
-94.816	-38.950	-0.062	0.033
-93.801	-85.018	-0.094	0.029
-92.786	-164.385	-0.044	0.002
-91.772	154.085	0.222	0.304
-90.757	-149.281	-0.053	-0.004
-89.743	672.390	0.133	0.344
-88.728	-200.000	-0.030	0.228
-87.713	234.370	-0.226	-0.371
-86.699	-72.762	0.140	0.051
-85.684	74.870	0.072	0.075
-84.670	800.000	0.076	-0.212
-83.655	-70.883	0.070	-0.026
-82.640	122.232	0.054	0.067
-81.626	65.238	-0.145	0.146
-80.611	-200.000	-0.024	0.247
-79.597	800.000	-0.019	0.066
-78.582	17.118	0.273	-0.216
-77.567	266.936	-0.106	0.185
-76.553	6.906	-0.235	-0.174
-75.538	-200.000	-0.002	0.027
-74.524	-83.271	-0.234	0.075
-73.509	-84.270	-0.110	-0.035
-72.494	-200.000	-0.009	0.100
-71.480	-191.600	0.172	-0.002
-70.465	34.027	0.247	-0.214
-69.451	183.369	-0.190	-0.280
-68.436	-22.805	0.215	0.129
-67.422	153.248	0.106	-0.144
-66.407	-153.005	0.156	0.011
-65.392	31.570	0.145	-0.124
-64.378	-175.207	-0.348	0.010
-63.363	-54.425	0.395	-0.178
-62.349	-200.000	0.042	-0.342
-61.334	75.860	-0.770	-0.811
-60.319	800.000	0.123	0.479
-59.305	800.000	-0.309	-0.955
-58.290	14.077	0.490	0.380
-57.276	446.869	0.705	1.543
-56.261	-200.000	76.821	519.869
-55.246	510.762	1341.797	3107.269
-54.232	142.303	2594.959	3427.610
-53.217	115.413	2258.598	2746.535
-52.203	51.945	1700.480	1611.472
-51.188	43.924	1422.746	1297.155
-50.173	40.489	1376.013	1233.177
-49.159	58.671	1412.263	1380.234
-48.144	64.782	1431.116	1436.940
-47.130	44.465	1393.046	1273.267
-46.115	40.403	1376.624	1232.997
-45.100	40.280	1371.604	1227.689
-44.086	40.106	1369.674	1224.832
-43.071	40.136	1366.905	1222.496
-42.057	40.125	1364.488	1220.218
-41.042	40.079	1363.177	1218.711
-40.027	40.110	1361.740	1217.570
-39.013	40.170	1359.744	1216.104
-37.998	40.178	1357.801	1214.367
-36.984	40.277	1356.044	1213.354
-35.969	40.370	1353.773	1211.845
-34.954	40.374	1351.874	1210.118
-33.940	40.451	1351.034	1209.793
-32.925	40.387	1349.521	1208.000
-31.911	40.398	1348.074	1206.722
-30.896	40.292	1346.838	1204.920
-29.881	40.322	1345.142	1203.540
-28.867	40.431	1343.720	1202.879
-27.852	40.473	1341.664	1201.249
-26.838	40.397	1340.702	1199.880
-25.823	40.404	1339.029	1198.374
-24.809	40.468	1337.787	1197.604
-23.794	40.447	1336.222	1196.027
-22.779	40.358	1335.189	1194.520
-21.765	40.460	1333.618	1193.682
-20.750	40.357	1332.218	1191.758
-19.736	40.312	1330.343	1189.763
-18.721	40.314	1329.315	1188.811
-17.706	40.305	1328.167	1187.685
-16.692	40.357	1326.926	1186.840
-15.677	40.312	1325.851	1185.560
-14.663	40.240	1324.727	1184.080
-13.648	40.273	1324.211	1183.768
-12.633	40.232	1322.938	1182.339
-11.619	40.206	1322.319	1181.579
-10.604	40.277	1320.974	1180.757
-9.590	40.200	1320.152	1179.516
-8.575	40.207	1319.287	1178.737
-7.560	40.250	1318.300	1178.062
-6.546	40.198	1317.849	1177.309
-5.531	40.163	1316.811	1176.126
-4.517	40.183	1315.437	1174.965
-3.502	40.216	1314.425	1174.211
-2.487	40.216	1314.157	1173.928
-1.473	40.344	1309.876	1170.815
-0.458	39.356	1294.967	1151.664
0.556	34.007	1275.042	1109.860
1.571	29.711	1279.656	1088.550
2.586	28.023	1295.061	1091.482
3.600	26.801	1283.720	1074.590
4.615	22.983	1211.312	992.496
5.629	16.861	1135.439	897.913
6.644	13.776	1113.698	864.590
7.659	13.530	1110.627	860.850
8.673	13.361	1109.335	858.900
9.688	13.384	1107.874	857.810
10.702	13.622	1106.737	858.088
11.717	17.438	1111.706	881.671
12.731	21.374	1116.776	906.056
13.746	20.163	1113.609	897.143
14.761	17.779	1109.430	881.392
15.775	16.548	1107.409	873.356
16.790	15.344	1105.302	865.410
17.804	14.641	1103.864	860.585
18.819	14.150	1102.268	856.734
19.834	13.844	1101.165	854.228
20.848	13.571	1100.225	852.021
21.863	13.451	1099.072	850.433
22.877	13.203	1098.654	848.764
23.892	13.139	1097.813	847.708
24.907	13.237	1096.902	847.431
25.921	13.211	1096.033	846.553
26.936	13.380	1094.454	846.126
27.950	13.392	1092.954	844.952
28.965	13.424	1091.315	843.772
29.980	13.393	1089.744	842.326
30.994	13.484	1088.498	841.749
32.009	13.473	1087.800	841.082
33.023	13.445	1086.766	840.066
34.038	13.498	1085.343	839.158
35.053	13.442	1084.311	838.001
36.067	13.433	1083.454	837.221
37.082	13.491	1082.783	836.923
38.096	13.385	1082.072	835.762
39.111	13.420	1081.446	835.383
40.126	13.328	1080.122	833.819
41.140	13.351	1078.522	832.629
42.155	13.284	1077.564	831.478
43.169	13.215	1076.512	830.245
44.184	13.140	1074.965	828.602
45.199	13.188	1073.936	827.977
46.213	13.269	1072.811	827.442
47.228	13.261	1071.981	826.690
48.242	13.319	1071.295	826.378
49.257	13.311	1070.111	825.349
50.271	13.398	1069.043	824.886
51.286	13.465	1067.948	824.301
52.301	13.322	1066.954	822.750
53.315	13.380	1066.126	822.329
54.330	13.246	1064.972	820.697
55.344	13.268	1064.013	819.995
56.359	13.252	1063.288	819.285
57.374	13.188	1062.159	818.028
58.388	13.193	1061.465	817.445
59.403	13.197	1060.620	816.741
60.417	13.205	1059.499	815.846
61.432	13.204	1058.795	815.226
62.447	13.033	1058.019	813.713
63.461	13.156	1056.995	813.461
64.476	13.030	1056.532	812.412
65.490	13.041	1055.539	811.632
66.505	13.169	1054.847	811.658
67.520	13.155	1053.846	810.744
68.534	13.144	1053.037	809.996
69.549	13.194	1052.653	809.873
70.563	13.195	1051.958	809.271
71.578	13.166	1050.725	808.114
72.593	12.945	1050.466	806.760
73.607	12.980	1049.982	806.488
74.622	13.097	1048.997	806.230
75.636	13.071	1048.414	805.583
76.651	12.971	1047.489	804.316
77.666	13.064	1046.843	804.202
78.680	13.135	1046.337	804.086
79.695	13.166	1045.437	803.476
80.709	13.158	1044.860	802.921
81.724	13.239	1044.032	802.610
82.739	13.200	1043.792	802.162
83.753	13.283	1042.820	801.748
84.768	13.372	1041.745	801.279
85.782	13.463	1040.640	800.801
86.797	13.394	1040.290	800.126
87.812	13.336	1039.034	798.808
88.826	13.303	1038.151	797.901
89.841	13.412	1036.883	797.383
90.855	13.344	1036.208	796.466
91.870	13.483	1035.377	796.423
92.884	13.419	1034.411	795.301
93.899	13.439	1033.698	794.779
94.914	13.564	1032.482	794.373
95.928	13.486	1031.894	793.478
96.943	13.363	1031.204	792.290
97.957	13.478	1030.042	791.876
98.972	13.472	1029.242	791.160
99.987	13.384	1028.568	790.151
101.001	13.445	1027.203	789.324
102.016	13.372	1026.647	788.481
103.030	13.375	1025.919	787.867
104.045	13.444	1025.086	787.483
105.060	13.401	1024.007	786.383
106.074	13.376	1022.797	785.262
107.089	13.250	1021.631	783.703
108.103	13.294	1020.697	783.123
109.118	13.193	1020.167	782.172
110.133	13.224	1019.035	781.382
111.147	13.280	1017.832	780.651
112.162	13.367	1017.403	780.666
113.176	13.360	1016.543	779.905
114.191	13.313	1015.912	779.130
115.206	13.429	1014.655	778.643
116.220	13.201	1014.337	777.254
117.235	13.340	1012.802	776.666
118.249	13.121	1012.721	775.505
119.264	13.405	1011.417	775.772
120.279	13.257	1010.700	774.459
121.293	13.269	1009.888	773.825
122.308	13.303	1008.604	772.928
123.322	13.322	1007.561	772.151
124.337	13.215	1007.044	771.186
125.352	13.151	1006.339	770.282
126.366	13.339	1004.659	769.802
127.381	13.216	1004.056	768.698
128.395	13.261	1002.833	767.904
129.410	13.313	1001.804	767.290
130.424	13.440	1000.979	767.178
131.439	13.470	1000.079	766.561
132.454	13.430	999.773	766.074
133.468	13.503	998.641	765.474
134.483	13.442	997.970	764.611
135.497	13.453	996.918	763.788
136.512	13.377	996.194	762.817
137.527	13.461	995.600	762.680
138.541	13.450	994.769	761.927
139.556	13.486	994.028	761.457
140.570	13.543	992.968	760.838
141.585	13.605	992.262	760.516
142.600	13.643	991.115	759.743
143.614	13.633	990.580	759.220
144.629	13.660	989.729	758.624
145.643	13.745	988.474	757.982
146.658	13.604	987.493	756.521
147.673	13.428	986.952	755.236
148.687	13.482	985.979	754.672
149.702	13.433	985.134	753.734
150.716	13.486	984.003	753.043
151.731	13.579	982.795	752.474
152.746	13.479	982.655	751.844
153.760	13.440	982.408	751.414
154.775	13.589	981.214	751.108
155.789	13.582	980.699	750.615
156.804	13.643	979.803	750.140
157.819	13.596	979.355	749.517
158.833	13.698	978.910	749.575
159.848	13.683	977.822	748.604
160.862	13.712	976.727	747.834
161.877	13.689	975.478	746.707
162.892	13.608	974.874	745.813
163.906	13.696	973.486	745.080
164.921	13.576	972.837	743.977
165.935	13.495	972.099	742.984
166.950	13.634	970.954	742.670
167.964	13.606	970.240	741.928
168.979	13.587	969.236	741.013
169.994	13.636	968.041	740.254
171.008	13.659	967.829	740.128
172.023	13.766	966.819	739.766
173.037	13.772	966.473	739.463
174.052	13.681	965.965	738.601
175.067	13.666	964.871	737.635
176.081	13.628	964.283	736.951
177.096	13.567	963.885	736.310
178.110	13.648	963.304	736.162
179.125	13.804	961.987	735.783
180.140	13.666	962.071	735.170
181.154	13.826	961.308	735.230
182.169	13.879	960.818	735.023
183.183	13.847	959.940	734.147
184.198	13.909	959.115	733.722
185.213	13.839	958.627	732.977
186.227	13.981	957.804	732.911
187.242	13.875	957.411	732.074
188.256	14.052	956.678	732.231
189.271	13.919	956.114	731.150
190.286	13.779	955.408	729.928
191.300	13.788	954.042	728.860
192.315	13.696	953.824	728.224
193.329	13.696	953.525	727.931
194.344	13.808	952.717	727.742
195.359	13.853	952.064	727.375
196.373	13.855	951.333	726.761
197.388	14.087	950.747	727.266
198.402	13.999	950.562	726.672
199.417	14.138	949.722	726.576
200.432	14.157	949.091	726.110
201.446	14.139	948.343	725.394
202.461	14.280	947.853	725.573
203.475	14.293	947.389	725.210
204.490	14.025	946.647	723.408
205.504	14.078	946.240	723.264
206.519	14.062	945.221	722.353
207.534	14.132	944.460	722.011
208.548	14.225	943.845	721.881
209.563	14.089	943.011	720.588
210.577	14.159	942.242	720.243
211.592	14.297	941.737	720.390
212.607	14.303	940.495	719.399
213.621	14.291	940.068	718.960
214.636	14.482	938.950	718.864
215.650	14.373	938.690	718.130
216.665	14.333	938.172	717.497
217.680	14.454	937.037	717.087
218.694	14.385	936.917	716.634
219.709	14.359	936.140	715.864
220.723	14.269	935.407	714.855
221.738	14.255	934.445	713.997
222.753	14.406	933.744	714.044
223.767	14.436	933.535	713.951
224.782	14.589	932.855	714.021
225.796	14.520	932.089	713.080
226.811	14.518	931.586	712.621
227.826	14.461	930.500	711.483
228.840	14.576	929.793	711.371
229.855	14.377	929.325	710.101
230.869	14.504	928.074	709.622
231.884	14.572	927.421	709.353
232.899	14.486	926.665	708.347
233.913	14.465	926.042	707.718
234.928	14.406	925.580	707.053
235.942	14.453	925.353	707.016
236.957	14.611	924.236	706.766
237.972	14.426	923.487	705.351
238.986	14.534	923.309	705.610
240.001	14.553	922.427	704.952
241.015	14.608	921.783	704.631
242.030	14.616	921.074	704.059
243.045	14.566	920.552	703.388
244.059	14.574	920.088	703.004
245.074	14.568	919.793	702.693
246.088	14.676	918.573	702.151
247.103	14.759	917.886	701.915
248.117	14.576	917.938	701.120
249.132	14.827	917.106	701.479
250.147	14.967	916.337	701.415
251.161	15.008	915.294	700.727
252.176	14.994	915.002	700.381
253.190	15.073	914.408	700.193
254.205	14.870	913.708	698.750
255.220	15.043	912.845	698.751
256.234	15.040	911.975	698.010
257.249	15.049	911.436	697.574
258.263	14.957	910.867	696.692
259.278	14.917	910.318	696.042
260.293	15.114	909.744	696.363
261.307	15.133	908.886	695.723
262.322	15.126	908.215	695.119
263.336	15.222	907.109	694.609
264.351	15.207	906.600	694.094
265.366	15.231	906.206	693.834
266.380	15.237	905.695	693.405
267.395	15.156	904.952	692.441
268.409	15.196	903.594	691.506
269.424	15.236	902.848	691.039
270.439	15.241	902.421	690.670
271.453	15.169	901.881	689.900
272.468	15.211	901.266	689.539
273.482	15.169	900.696	688.870
274.497	15.252	899.970	688.597
275.512	15.176	899.636	687.967
276.526	15.211	899.258	687.760
277.541	15.277	898.679	687.528
278.555	15.313	898.178	687.229
279.570	15.408	897.255	686.852
280.585	15.347	896.497	685.961
281.599	15.376	895.641	685.365
282.614	15.341	894.963	684.642
283.628	15.340	894.776	684.433
284.643	15.345	894.138	683.908
285.657	15.489	893.229	683.737
286.672	15.391	892.768	682.926
287.687	15.429	891.861	682.326
288.701	15.465	891.418	682.072
289.716	15.485	891.066	681.824
290.730	15.425	890.242	680.891
291.745	15.323	890.017	680.244
292.760	15.499	888.773	679.946
293.774	15.548	888.216	679.655
294.789	15.398	887.803	678.676
295.803	15.465	887.220	678.441
296.818	15.615	886.014	678.062
297.833	15.661	885.517	677.806
298.847	15.460	885.174	676.676
299.862	15.669	884.515	676.952
300.876	15.590	883.862	676.073
301.891	15.822	883.161	676.411
302.906	15.673	883.069	675.683
303.920	15.717	882.331	675.233
304.935	15.784	881.608	674.889
305.949	15.911	880.564	674.542
306.964	15.857	880.098	673.906
307.979	15.854	879.444	673.334
308.993	15.852	879.481	673.297
310.008	15.928	878.509	672.795
311.022	15.828	877.921	671.888
312.037	15.761	877.446	671.197
313.052	15.716	876.889	670.533
314.066	15.688	876.109	669.763
315.081	15.774	875.344	669.464
316.095	15.852	875.066	669.500
317.110	15.843	874.484	668.960
318.125	15.688	873.959	667.883
319.139	15.920	873.289	668.233
320.154	15.766	873.011	667.352
321.168	15.901	872.171	667.185
322.183	15.822	871.692	666.446
323.197	15.919	871.395	666.545
324.212	15.882	870.699	665.806
325.227	15.878	870.010	665.203
326.241	15.947	869.371	664.931
327.256	15.873	868.730	664.090
328.270	15.845	868.510	663.752
329.285	15.924	867.808	663.469
330.300	15.847	867.056	662.533
331.314	16.039	866.457	662.772
332.329	16.022	865.827	662.163
333.343	16.051	865.676	662.101
334.358	16.071	865.343	661.869
335.373	16.011	864.850	661.198
336.387	16.037	864.543	661.005
337.402	16.232	864.040	661.328
338.416	16.095	864.007	660.707
339.431	16.225	863.401	660.692
340.446	16.240	862.791	660.226
341.460	16.389	862.250	660.335
342.475	16.262	862.149	659.703
343.489	16.229	861.821	659.267
344.504	16.366	860.923	659.056
345.519	16.364	860.800	658.893
346.533	16.489	859.970	658.687
347.548	16.289	859.489	657.482
348.562	16.383	858.818	657.278
349.577	16.238	858.582	656.474
350.592	16.390	857.859	656.455
351.606	16.308	856.840	655.299
352.621	16.275	856.332	654.724
353.635	16.383	855.666	654.575
354.650	16.314	855.085	653.805
355.665	16.390	854.284	653.431
356.679	16.542	853.588	653.428
357.694	16.483	853.130	652.791
358.708	16.464	852.642	652.285
359.723	16.547	851.723	651.846
360.738	16.643	851.031	651.629
361.752	16.537	850.509	650.763
362.767	16.530	850.289	650.510
363.781	16.675	849.749	650.598
364.796	16.591	849.487	650.013
365.810	16.718	848.804	649.924
366.825	16.638	848.600	649.403
367.840	16.575	848.376	648.932
368.854	16.676	847.768	648.794
369.869	16.695	846.868	648.122
370.883	16.810	846.508	648.228
371.898	16.654	846.559	647.615
372.913	16.698	845.885	647.208
373.927	16.924	844.944	647.296
374.942	16.809	844.528	646.479
375.956	16.906	844.178	646.524
376.971	16.919	843.787	646.219
377.986	16.926	843.586	646.034
379.000	16.898	843.128	645.518
380.015	16.916	842.536	645.076
381.029	17.082	841.830	645.110
382.044	17.031	841.325	644.474
383.059	17.124	840.745	644.324
384.073	16.955	840.017	643.069
385.088	17.056	839.233	642.795
386.102	16.891	839.091	642.005
387.117	16.904	838.287	641.381
388.132	16.931	837.667	640.951
389.146	17.119	837.066	641.144
390.161	17.047	836.920	640.704
391.175	17.066	836.404	640.324
392.190	17.147	835.470	639.857
393.205	17.130	834.711	639.154
394.219	17.095	834.965	639.162
395.234	16.964	834.362	638.150
396.248	17.035	833.825	637.950
397.263	16.994	833.584	637.556
398.278	16.798	833.050	636.357
399.292	17.157	832.769	637.430
400.307	17.030	832.201	636.464
401.321	16.956	831.757	635.793
402.336	17.096	831.292	635.903
403.350	17.233	830.642	635.865
404.365	17.084	830.323	635.006
405.380	17.353	829.615	635.412
406.394	17.410	829.287	635.320
407.409	17.297	828.945	634.579
408.423	17.319	828.702	634.418
409.438	17.397	828.241	634.300
410.453	17.285	827.975	633.622
411.467	17.292	827.016	632.857
412.482	17.446	826.624	633.075
413.496	17.401	826.616	632.846
414.511	17.499	826.260	632.884
415.526	17.490	825.815	632.452
416.540	17.473	825.090	631.779
417.555	17.435	824.558	631.173
418.569	17.477	824.287	631.066
419.584	17.698	823.559	631.272
420.599	17.586	823.590	630.824
421.613	92.494	1269.753	1379.534
422.628	79.564	1334.768	1379.670
