DTS Sentinel unit serial number:	SN413079Multiplexer serial number:	ORYXHardware model number:	OX4-SRSoftware version number:	ORYX F/W v4.00 Oryx Data Collector v3.7.2.0data status	okinstallation	princeton_trtdifferential loss correction	single-endedforward channel	channel 1reverse channel	N/Adate	2019/09/11time	15:40:11forward acquisition time	60.00reverse acquisition time	0.00gamma	496.2192k internal	0.2291k external	0.2291temperature offset calibration	0.9991default loss term (dB/km)	0.3790temperature slope calibration	1.0000multiplexer offset coefficient	1.0000multiplexer slope coefficient	1.0000fibre end	0.00T internal ref (°C)	42.81T ext. ref 1 (°C)	1.00T ext. ref 2 (°C)	37.41length (m)	temperature (°C)	Stokes	anti-Stokes-747.200	95.069	-0.052	-0.061
-746.185	-149.460	-0.087	-0.007
-745.171	-163.031	0.434	-0.022
-744.156	2.958	-0.376	0.280
-743.142	-126.768	-0.047	-0.007
-742.127	97.338	-0.249	0.293
-741.112	-200.000	0.015	0.566
-740.098	-166.504	-0.023	0.001
-739.083	-200.000	-0.029	0.256
-738.069	-37.240	-0.339	-0.186
-737.054	-153.586	-0.544	-0.038
-736.039	-149.030	-0.183	-0.015
-735.025	89.205	0.249	0.283
-734.010	39.629	0.320	-0.294
-732.996	-67.476	-0.083	-0.033
-731.981	-200.000	0.075	0.410
-730.966	-126.105	-0.363	0.056
-729.952	-55.043	-0.259	-0.119
-728.937	-104.278	0.171	0.040
-727.923	-200.000	0.032	-0.358
-726.908	-14.477	0.224	-0.148
-725.894	800.000	-0.044	-0.128
-724.879	112.120	-0.215	0.266
-723.864	-68.100	0.319	0.127
-722.850	-105.635	-0.255	0.059
-721.835	-17.106	-0.159	0.103
-720.821	273.422	-0.090	-0.163
-719.806	-28.161	0.181	0.107
-718.791	75.687	0.041	0.045
-717.777	35.558	-0.142	0.128
-716.762	-7.191	-0.413	-0.287
-715.748	-39.339	0.112	-0.060
-714.733	800.000	0.028	-0.111
-713.718	-57.650	0.435	0.195
-712.704	800.000	0.014	0.042
-711.689	4.022	0.213	-0.159
-710.675	142.401	-0.147	-0.200
-709.660	-200.000	0.025	0.307
-708.645	74.172	-0.353	-0.379
-707.631	20.736	0.103	0.086
-706.616	800.000	0.100	0.298
-705.602	-200.000	-0.058	0.303
-704.587	800.000	0.050	-0.189
-703.572	11.436	-0.164	-0.129
-702.558	-146.506	-0.356	0.032
-701.543	-200.000	0.047	0.597
-700.529	800.000	-0.062	-0.252
-699.514	-79.653	0.325	-0.112
-698.499	-125.534	-0.085	0.013
-697.485	144.309	0.089	-0.122
-696.470	-31.999	0.109	0.063
-695.456	-66.953	0.439	-0.177
-694.441	107.086	0.159	-0.193
-693.426	-156.295	-0.207	-0.013
-692.412	-200.000	-0.014	0.173
-691.397	-190.499	-0.180	-0.002
-690.383	-67.851	0.195	0.078
-689.368	471.252	-0.065	-0.150
-688.354	0.211	-0.300	0.219
-687.339	102.239	0.182	0.218
-686.324	-200.000	0.068	-0.314
-685.310	-200.000	-0.003	0.015
-684.295	-33.507	0.136	0.077
-683.281	-127.707	-0.301	-0.044
-682.266	-99.567	0.013	0.003
-681.251	148.603	-0.164	-0.227
-680.237	-50.214	0.358	-0.173
-679.222	257.146	0.171	0.300
-678.208	-15.668	0.110	-0.072
-677.193	-200.000	-0.005	-0.066
-676.178	7.032	0.234	-0.178
-675.164	9.533	0.006	0.004
-674.149	1.948	0.138	0.102
-673.135	-69.838	-0.112	-0.044
-672.120	-43.501	-0.361	0.186
-671.105	475.691	-0.108	-0.249
-670.091	-133.570	-0.166	-0.021
-669.076	-57.529	-0.272	-0.122
-668.062	-139.655	-0.383	-0.042
-667.047	-147.991	-0.193	-0.016
-666.032	23.185	0.067	0.056
-665.018	15.568	-0.206	0.165
-664.003	-128.839	0.327	0.047
-662.989	-153.451	-0.209	0.015
-661.974	-2.128	0.086	0.061
-660.959	-49.022	0.198	0.097
-659.945	-200.000	-0.013	-0.178
-658.930	-200.000	-0.132	-0.644
-657.916	-200.000	0.010	-0.091
-656.901	338.732	0.037	-0.073
-655.886	-92.099	-0.331	-0.095
-654.872	71.356	0.224	-0.237
-653.857	469.013	0.132	-0.302
-652.843	13.125	0.108	0.085
-651.828	316.023	-0.076	-0.147
-650.814	-200.000	0.003	-0.060
-649.799	-41.799	0.277	-0.145
-648.784	-94.171	-0.273	0.076
-647.770	269.612	-0.086	0.155
-646.755	-86.972	-0.161	-0.050
-645.741	800.000	-0.109	0.452
-644.726	800.000	-0.081	-0.255
-643.711	-200.000	0.001	-0.363
-642.697	800.000	-0.090	-0.373
-641.682	-73.815	-0.111	0.041
-640.668	-47.546	0.482	-0.239
-639.653	-116.041	-0.192	-0.037
-638.638	-0.699	-0.153	0.111
-637.624	77.391	-0.209	-0.226
-636.609	106.607	0.141	0.171
-635.595	177.356	-0.104	-0.155
-634.580	800.000	-0.018	-0.061
-633.565	-200.000	-0.056	-0.341
-632.551	109.331	-0.144	-0.176
-631.536	-59.853	-0.175	-0.076
-630.522	260.265	-0.143	-0.252
-629.507	-96.186	-0.282	-0.076
-628.492	-148.258	-0.333	0.028
-627.478	-53.381	0.296	-0.138
-626.463	-34.208	0.152	0.085
-625.449	-127.025	0.273	-0.041
-624.434	118.906	-0.208	-0.262
-623.419	154.284	0.151	-0.212
-622.405	-110.271	0.431	-0.091
-621.390	42.346	-0.282	0.261
-620.376	-116.454	0.121	-0.023
-619.361	-200.000	0.005	0.022
-618.346	-80.197	0.223	0.076
-617.332	-165.306	0.327	0.015
-616.317	-5.595	0.083	-0.058
-615.303	800.000	-0.074	0.218
-614.288	800.000	-0.105	-0.391
-613.273	-200.000	-0.003	-0.361
-612.259	-64.705	-0.189	-0.078
-611.244	48.380	-0.066	-0.063
-610.230	-36.536	-0.025	-0.014
-609.215	96.853	0.037	-0.043
-608.201	-200.000	0.009	0.260
-607.186	-95.954	-0.079	-0.022
-606.171	-75.057	0.254	0.093
-605.157	-62.435	0.089	-0.038
-604.142	800.000	0.037	0.114
-603.128	-96.138	0.313	-0.085
-602.113	510.706	-0.037	0.089
-601.098	457.911	0.015	-0.033
-600.084	-154.093	0.278	0.019
-599.069	-42.302	0.272	0.142
-598.055	213.536	-0.061	0.098
-597.040	524.690	0.068	0.164
-596.025	-20.853	-0.214	0.134
-595.011	-200.000	0.009	0.353
-593.996	83.480	-0.050	0.055
-592.982	-200.000	0.031	0.153
-591.967	241.522	0.121	-0.206
-590.952	-112.195	0.463	-0.095
-589.938	-14.994	0.066	0.043
-588.923	-50.175	-0.226	-0.109
-587.909	333.334	0.194	0.382
-586.894	-133.271	-0.112	-0.014
-585.879	-78.282	-0.198	-0.069
-584.865	-90.544	0.076	-0.022
-583.850	333.673	-0.161	-0.317
-582.836	314.320	0.184	-0.352
-581.821	-112.973	0.089	-0.018
-580.806	-200.000	-0.004	-0.242
-579.792	157.807	-0.090	-0.127
-578.777	-103.125	-0.031	0.008
-577.763	58.203	0.152	-0.152
-576.748	-200.000	-0.001	-0.044
-575.733	215.562	0.121	-0.195
-574.719	-11.607	-0.076	-0.051
-573.704	232.598	0.117	0.196
-572.690	-200.000	-0.058	-0.430
-571.675	-200.000	-0.013	-0.241
-570.661	-137.241	-0.296	-0.034
-569.646	408.988	0.180	0.388
-568.631	-17.630	0.107	-0.069
-567.617	665.670	-0.141	0.372
-566.602	327.468	-0.055	-0.106
-565.588	-37.467	0.178	-0.097
-564.573	-151.943	0.377	-0.028
-563.558	-200.000	0.045	0.232
-562.544	-31.142	-0.254	0.146
-561.529	-91.990	-0.166	0.048
-560.515	-104.932	-0.282	-0.066
-559.500	35.146	0.215	-0.191
-558.485	-107.823	0.186	0.041
-557.471	53.055	0.148	-0.144
-556.456	28.871	0.227	0.195
-555.442	54.056	-0.127	0.125
-554.427	-200.000	-0.006	-0.216
-553.412	30.985	0.123	-0.107
-552.398	13.437	0.141	0.111
-551.383	-129.127	-0.151	-0.021
-550.369	10.085	-0.171	-0.132
-549.354	-200.000	0.002	-0.019
-548.339	41.521	-0.051	-0.047
-547.325	800.000	0.049	0.178
-546.310	-200.000	0.006	0.189
-545.296	135.217	-0.216	-0.285
-544.281	-200.000	0.051	0.281
-543.266	54.273	0.114	-0.112
-542.252	-25.936	0.298	-0.178
-541.237	-137.600	0.117	0.013
-540.223	-200.000	0.003	-0.238
-539.208	13.289	-0.352	0.278
-538.193	-200.000	0.004	0.044
-537.179	194.547	-0.266	0.410
-536.164	-135.223	0.180	-0.022
-535.150	-77.884	0.036	0.013
-534.135	-122.039	0.325	0.054
-533.121	-39.812	-0.123	-0.065
-532.106	127.260	-0.055	-0.070
-531.091	-173.990	-0.181	-0.005
-530.077	-169.221	-0.501	0.019
-529.062	365.076	0.076	0.156
-528.048	297.038	-0.068	0.126
-527.033	21.364	-0.096	0.079
-526.018	3.109	-0.114	0.084
-525.004	-200.000	0.001	0.036
-523.989	-4.768	-0.395	0.277
-522.975	151.385	-0.053	-0.073
-521.960	332.072	-0.133	-0.260
-520.945	-134.827	0.339	-0.042
-519.931	7.641	0.368	0.280
-518.916	-109.944	0.257	-0.055
-517.902	140.502	0.139	-0.186
-516.887	351.976	-0.203	0.408
-515.872	800.000	-0.053	0.187
-514.858	-140.213	-0.193	-0.021
-513.843	34.658	-0.185	0.164
-512.829	-55.684	0.367	-0.167
-511.814	-88.213	0.356	0.108
-510.799	-93.187	0.154	-0.043
-509.785	2.935	-0.453	0.334
-508.770	-103.750	0.230	0.055
-507.756	290.950	-0.084	0.156
-506.741	287.325	0.097	0.177
-505.726	107.323	-0.056	0.067
-504.712	800.000	-0.053	0.202
-503.697	-8.646	-0.233	0.159
-502.683	-98.229	0.300	-0.078
-501.668	113.798	0.102	-0.126
-500.653	-167.455	-0.305	-0.012
-499.639	-57.735	0.003	0.001
-498.624	151.542	0.239	0.330
-497.610	190.467	-0.112	-0.171
-496.595	152.208	-0.092	0.128
-495.581	-145.401	-0.026	-0.002
-494.566	-200.000	-0.003	-0.047
-493.551	-200.000	-0.018	0.098
-492.537	800.000	0.035	-0.124
-491.522	-118.710	-0.300	0.054
-490.508	50.885	0.101	0.097
-489.493	119.855	0.175	-0.220
-488.478	800.000	0.042	-0.158
-487.464	350.356	0.134	0.269
-486.449	-26.306	0.229	0.136
-485.435	675.074	0.002	0.006
-484.420	60.791	-0.132	-0.133
-483.405	14.420	0.284	0.224
-482.391	800.000	0.079	0.314
-481.376	-200.000	-0.015	0.478
-480.362	149.684	0.227	0.312
-479.347	428.196	-0.103	-0.225
-478.332	-57.033	0.181	0.081
-477.318	800.000	-0.030	0.121
-476.303	538.051	0.075	-0.181
-475.289	-69.599	0.234	-0.091
-474.274	238.928	-0.038	0.063
-473.259	220.272	-0.080	-0.130
-472.245	-59.408	0.103	0.045
-471.230	101.485	-0.096	0.114
-470.216	-100.749	-0.156	0.039
-469.201	183.814	-0.051	0.076
-468.186	99.672	-0.205	-0.240
-467.172	-200.000	-0.022	0.327
-466.157	141.486	0.057	-0.077
-465.143	10.872	0.156	-0.120
-464.128	656.714	0.017	0.045
-463.113	800.000	0.127	0.417
-462.099	-194.559	0.029	0.000
-461.084	112.693	-0.078	0.095
-460.070	-127.441	-0.202	0.030
-459.055	-200.000	0.037	-0.264
-458.040	28.485	0.312	0.267
-457.026	-75.439	-0.169	0.061
-456.011	-106.686	-0.177	0.040
-454.997	-200.000	0.039	-0.196
-453.982	800.000	0.019	-0.082
-452.968	-200.000	-0.015	0.201
-451.953	318.499	0.105	-0.201
-450.938	250.990	-0.079	-0.136
-449.924	800.000	0.050	-0.187
-448.909	800.000	0.024	0.071
-447.895	26.710	0.228	-0.193
-446.880	-140.721	-0.285	-0.030
-445.865	137.352	0.148	0.196
-444.851	462.010	-0.141	0.317
-443.836	-83.813	0.078	-0.025
-442.822	130.366	-0.089	-0.116
-441.807	-200.000	-0.002	0.041
-440.792	-83.474	-0.084	0.027
-439.778	-200.000	-0.027	-0.244
-438.763	-200.000	-0.014	-0.141
-437.749	800.000	-0.033	0.093
-436.734	-172.657	0.224	0.007
-435.719	10.499	0.276	-0.213
-434.705	-200.000	-0.001	0.092
-433.690	-200.000	0.038	-0.286
-432.676	22.680	-0.116	0.096
-431.661	28.437	0.111	-0.095
-430.646	194.284	-0.074	-0.114
-429.632	-200.000	0.015	0.081
-428.617	241.866	0.278	-0.470
-427.603	-180.556	-0.352	-0.007
-426.588	-13.409	0.306	-0.200
-425.573	-101.415	-0.095	-0.023
-424.559	-69.043	-0.163	0.063
-423.544	-55.055	0.350	-0.160
-422.530	-181.530	-0.135	0.003
-421.515	54.711	-0.262	-0.256
-420.500	-200.000	0.014	-0.222
-419.486	-56.752	0.448	0.200
-418.471	130.445	-0.070	-0.091
-417.457	697.444	-0.107	0.284
-416.442	66.324	-0.063	-0.064
-415.428	-129.177	-0.338	0.048
-414.413	800.000	-0.090	0.267
-413.398	26.070	0.331	0.279
-412.384	-132.282	0.405	0.053
-411.369	-32.504	0.283	0.159
-410.355	-200.000	0.058	-0.336
-409.340	-108.784	-0.146	-0.032
-408.325	323.666	-0.160	0.309
-407.311	800.000	-0.081	-0.317
-406.296	438.846	-0.124	-0.273
-405.282	120.043	0.108	-0.135
-404.267	16.726	-0.172	-0.138
-403.252	222.425	-0.111	-0.181
-402.238	-55.673	0.278	-0.126
-401.223	-85.032	-0.138	-0.044
-400.209	-64.542	-0.483	0.198
-399.194	-200.000	0.011	0.226
-398.179	-64.143	0.007	0.003
-397.165	30.162	0.107	0.093
-396.150	64.198	-0.013	-0.013
-395.136	-109.348	-0.163	0.035
-394.121	800.000	0.154	-0.502
-393.106	-156.273	-0.223	-0.014
-392.092	-17.224	0.262	-0.167
-391.077	800.000	0.047	0.155
-390.063	116.898	0.223	-0.276
-389.048	-52.886	-0.082	0.038
-388.033	-200.000	0.064	-0.501
-387.019	47.295	-0.083	-0.078
-386.004	601.810	-0.130	0.326
-384.990	-200.000	0.005	0.052
-383.975	-16.969	0.272	-0.173
-382.960	-200.000	0.044	-0.356
-381.946	-3.972	0.148	-0.103
-380.931	-164.268	0.187	0.009
-379.917	404.541	0.099	-0.211
-378.902	404.361	-0.204	0.433
-377.888	149.636	0.202	0.276
-376.873	-200.000	-0.021	0.261
-375.858	800.000	-0.048	0.146
-374.844	-200.000	-0.001	0.237
-373.829	-200.000	0.030	-0.189
-372.815	-200.000	-0.001	0.012
-371.800	-200.000	0.019	-0.214
-370.785	157.542	-0.025	-0.035
-369.771	612.315	-0.193	-0.487
-368.756	17.833	0.168	-0.135
-367.742	220.886	0.037	0.060
-366.727	-91.552	0.027	-0.008
-365.712	33.760	0.314	0.275
-364.698	-200.000	0.047	0.231
-363.683	61.962	0.170	0.171
-362.669	-200.000	-0.001	0.098
-361.654	495.818	-0.004	0.009
-360.639	241.146	0.237	0.400
-359.625	138.875	0.141	0.187
-358.610	606.071	0.042	0.107
-357.596	-105.082	0.381	-0.088
-356.581	800.000	-0.093	0.272
-355.566	-47.916	-0.294	0.143
-354.552	204.610	0.100	0.156
-353.537	800.000	-0.081	0.282
-352.523	98.590	0.107	-0.124
-351.508	-27.559	-0.102	-0.060
-350.493	42.201	-0.163	0.149
-349.479	185.485	-0.118	-0.176
-348.464	26.349	0.089	-0.075
-347.450	800.000	0.071	-0.244
-346.435	-77.029	0.253	-0.089
-345.420	-1.500	-0.378	0.269
-344.406	800.000	0.038	-0.127
-343.391	5.858	-0.263	-0.196
-342.377	328.232	-0.051	-0.099
-341.362	-86.864	0.152	-0.047
-340.348	-29.218	-0.132	-0.076
-339.333	-200.000	0.007	0.063
-338.318	-51.843	0.142	0.067
-337.304	-200.000	-0.031	-0.250
-336.289	644.686	0.058	0.148
-335.275	-82.271	-0.194	-0.064
-334.260	-200.000	0.048	0.293
-333.245	800.000	-0.045	0.196
-332.231	800.000	0.065	-0.251
-331.216	-95.881	0.289	-0.078
-330.202	399.949	0.162	-0.342
-329.187	93.290	-0.045	-0.051
-328.172	68.376	0.128	-0.132
-327.158	-112.499	0.219	0.044
-326.143	-200.000	-0.159	0.000
-325.129	-200.000	0.024	-0.158
-324.114	62.472	0.193	0.195
-323.099	-14.919	-0.253	0.164
-322.085	-200.000	0.075	0.442
-321.070	800.000	-0.019	-0.061
-320.056	-46.175	-0.195	-0.096
-319.041	800.000	-0.101	-0.337
-318.026	167.565	-0.141	-0.202
-317.012	-128.453	-0.223	-0.032
-315.997	-200.000	0.027	-0.125
-314.983	313.012	-0.108	-0.204
-313.968	800.000	0.063	0.211
-312.953	-176.763	0.121	0.003
-311.939	237.341	-0.105	-0.175
-310.924	-137.294	0.202	0.023
-309.910	-200.000	-0.027	0.309
-308.895	800.000	0.057	-0.224
-307.880	575.407	0.116	-0.286
-306.866	-46.732	-0.141	-0.070
-305.851	91.607	-0.197	-0.223
-304.837	-200.000	0.022	0.228
-303.822	-91.645	-0.288	-0.083
-302.807	120.738	0.297	-0.372
-301.793	312.957	-0.144	-0.272
-300.778	-200.000	-0.004	0.085
-299.764	221.271	-0.221	-0.357
-298.749	-102.221	-0.185	-0.045
-297.735	-93.792	-0.260	-0.072
-296.720	-166.173	0.174	-0.007
-295.705	709.478	-0.107	-0.285
-294.691	-200.000	-0.016	-0.072
-293.676	800.000	-0.046	0.175
-292.662	-35.457	0.300	0.164
-291.647	-102.477	-0.119	0.029
-290.632	-55.183	0.285	0.129
-289.618	-128.423	0.138	-0.020
-288.603	800.000	0.011	-0.042
-287.589	472.215	0.046	0.105
-286.574	800.000	-0.087	0.358
-285.559	-72.230	-0.320	0.119
-284.545	-200.000	-0.014	0.105
-283.530	53.611	-0.240	0.232
-282.516	-102.831	0.085	0.020
-281.501	-200.000	0.037	-0.551
-280.486	-68.315	-0.216	0.084
-279.472	497.215	0.078	-0.180
-278.457	98.386	-0.083	-0.096
-277.443	800.000	0.014	-0.053
-276.428	-200.000	-0.029	0.326
-275.413	-51.631	-0.270	0.126
-274.399	-114.645	-0.373	-0.072
-273.384	-200.000	-0.012	0.309
-272.370	-112.088	-0.099	-0.020
-271.355	-103.780	0.083	0.020
-270.340	-46.341	-0.132	-0.065
-269.326	-10.376	-0.105	-0.070
-268.311	-200.000	-0.009	0.351
-267.297	48.385	0.193	0.182
-266.282	375.683	0.119	-0.245
-265.267	144.983	-0.092	-0.123
-264.253	693.186	0.092	0.244
-263.238	262.597	0.121	-0.210
-262.224	-200.000	-0.033	-0.264
-261.209	206.678	0.162	-0.253
-260.195	52.344	0.127	-0.122
-259.180	39.224	0.213	-0.192
-258.165	7.451	-0.223	0.168
-257.151	-175.198	0.013	-0.000
-256.136	-123.105	-0.211	-0.034
-255.122	-175.403	-0.310	-0.009
-254.107	800.000	0.040	-0.151
-253.092	-192.507	0.310	0.003
-252.078	103.763	0.097	-0.114
-251.063	146.808	-0.082	-0.110
-250.049	-166.246	0.269	0.011
-249.034	800.000	0.094	0.263
-248.019	-8.017	0.168	0.114
-247.005	-95.518	-0.108	0.029
-245.990	-200.000	0.060	0.360
-244.976	-172.752	0.480	0.015
-243.961	-200.000	0.200	0.000
-242.946	-48.049	0.072	0.035
-241.932	20.364	-0.281	0.228
-240.917	-184.576	0.433	-0.007
-239.903	67.286	-0.167	0.171
-238.888	-65.436	-0.246	-0.099
-237.873	362.211	0.021	0.043
-236.859	248.082	0.073	-0.123
-235.844	438.592	0.076	0.167
-234.830	539.484	0.084	0.201
-233.815	293.866	0.217	0.398
-232.800	800.000	-0.080	-0.290
-231.786	10.909	-0.074	-0.057
-230.771	51.464	0.163	-0.155
-229.757	-129.272	-0.105	-0.015
-228.742	-50.851	0.129	0.061
-227.727	230.607	0.071	-0.116
-226.713	4.198	-0.093	0.068
-225.698	26.667	-0.180	-0.151
-224.684	800.000	-0.055	-0.198
-223.669	-121.931	-0.168	0.028
-222.655	-47.669	-0.206	0.101
-221.640	-29.690	0.075	-0.043
-220.625	-106.344	0.232	0.052
-219.611	-79.523	0.077	-0.026
-218.596	32.076	-0.267	0.231
-217.582	26.428	-0.256	-0.214
-216.567	800.000	-0.091	0.282
-215.552	-184.215	-0.009	0.000
-214.538	-163.722	-0.213	0.010
-213.523	-200.000	0.016	-0.138
-212.509	11.059	0.100	0.077
-211.494	800.000	-0.107	0.305
-210.479	129.606	-0.162	0.208
-209.465	800.000	0.041	-0.119
-208.450	-200.000	0.027	-0.258
-207.436	148.138	0.098	0.132
-206.421	-20.417	-0.089	0.055
-205.406	344.818	-0.255	0.502
-204.392	61.753	0.081	-0.081
-203.377	800.000	-0.102	-0.358
-202.363	12.881	-0.122	-0.094
-201.348	645.638	-0.019	-0.048
-200.333	26.550	-0.173	-0.145
-199.319	-200.000	0.032	-0.387
-198.304	-45.804	-0.326	-0.162
-197.290	-27.158	0.330	0.193
-196.275	-104.909	0.156	0.036
-195.260	800.000	0.115	0.342
-194.246	-200.000	0.040	-0.228
-193.231	-180.943	-0.205	0.004
-192.217	-200.000	0.020	0.273
-191.202	-200.000	0.134	0.590
-190.187	-8.670	0.040	-0.027
-189.173	800.000	-0.074	0.218
-188.158	-200.000	-0.144	0.001
-187.144	-69.663	-0.204	-0.078
-186.129	470.129	-0.084	-0.189
-185.114	3.584	0.249	-0.182
-184.100	35.597	-0.151	-0.133
-183.085	800.000	0.064	-0.205
-182.071	-133.831	-0.157	0.020
-181.056	-157.912	0.168	-0.010
-180.042	-200.000	0.043	0.265
-179.027	113.216	-0.091	0.110
-178.012	474.143	0.122	0.275
-176.998	-200.000	-0.026	-0.162
-175.983	-200.000	0.016	0.115
-174.969	518.938	-0.127	0.299
-173.954	-116.668	-0.065	-0.012
-172.939	-200.000	0.039	-0.253
-171.925	-171.738	-0.277	-0.009
-170.910	32.502	-0.116	0.101
-169.896	-200.000	-0.034	0.371
-168.881	36.266	0.161	0.142
-167.866	17.748	-0.066	-0.053
-166.852	-31.142	-0.135	0.076
-165.837	-200.000	-0.010	-0.195
-164.823	-22.732	-0.181	0.109
-163.808	-200.000	-0.294	-0.001
-162.793	-200.000	0.018	0.128
-161.779	-82.250	0.078	0.025
-160.764	-200.000	-0.050	0.242
-159.750	727.869	-0.031	-0.082
-158.735	-129.470	-0.212	-0.029
-157.720	795.735	-0.092	-0.254
-156.706	443.030	0.031	0.067
-155.691	-89.726	-0.348	0.102
-154.677	-135.248	0.193	0.023
-153.662	-200.000	-0.022	-0.263
-152.647	60.247	0.108	-0.107
-151.633	114.543	-0.138	0.168
-150.618	10.974	-0.112	0.086
-149.604	-200.000	0.028	-0.310
-148.589	304.039	-0.080	-0.149
-147.574	-15.933	0.329	-0.209
-146.560	-200.000	0.012	0.125
-145.545	-109.287	0.123	0.026
-144.531	77.875	0.089	-0.095
-143.516	59.948	0.272	0.268
-142.502	-41.631	-0.087	0.044
-141.487	-21.777	0.308	0.188
-140.472	-96.080	0.151	-0.040
-139.458	-108.025	0.326	-0.071
-138.443	-157.625	-0.149	0.009
-137.429	800.000	0.071	-0.219
-136.414	140.516	0.190	-0.251
-135.399	800.000	0.010	-0.032
-134.385	-115.691	0.146	0.027
-133.370	106.273	0.060	0.071
-132.356	-53.609	-0.136	-0.062
-131.341	81.679	-0.289	-0.312
-130.326	-127.194	-0.061	-0.009
-129.312	92.052	0.217	0.245
-128.297	48.474	-0.067	0.063
-127.283	-125.971	-0.359	-0.054
-126.268	17.172	-0.115	0.091
-125.253	220.682	0.141	-0.226
-124.239	193.822	-0.078	0.118
-123.224	60.356	0.039	-0.038
-122.210	235.357	-0.021	-0.034
-121.195	-133.931	-0.116	0.014
-120.180	516.544	0.102	0.238
-119.166	107.719	0.130	0.155
-118.151	-200.000	-0.014	0.196
-117.137	-200.000	0.013	0.481
-116.122	-30.076	-0.388	-0.221
-115.107	167.301	0.152	-0.216
-114.093	300.753	-0.060	0.111
-113.078	112.312	0.355	0.430
-112.064	-100.324	-0.568	0.141
-111.049	-200.000	-0.025	-0.190
-110.034	-200.000	0.021	0.173
-109.020	800.000	-0.055	0.234
-108.005	-162.517	-0.051	0.003
-106.991	-72.754	-0.073	0.027
-105.976	285.727	0.060	-0.109
-104.962	96.458	-0.252	0.288
-103.947	-52.213	-0.220	-0.102
-102.932	151.965	-0.093	0.126
-101.918	-200.000	-0.065	0.671
-100.903	-80.401	-0.230	-0.077
-99.889	-153.729	0.188	-0.013
-98.874	-23.058	0.291	0.175
-97.859	85.434	0.113	0.124
-96.845	-21.892	0.176	-0.107
-95.830	96.230	-0.102	-0.116
-94.816	-19.571	0.165	0.102
-93.801	-35.922	-0.196	0.106
-92.786	-78.223	0.008	0.003
-91.772	-52.977	-0.351	-0.161
-90.757	518.756	0.093	0.218
-89.743	341.118	-0.149	-0.291
-88.728	185.179	-0.098	-0.145
-87.713	196.638	0.049	-0.074
-86.699	315.471	-0.135	0.254
-85.684	-170.572	-0.141	0.005
-84.670	-200.000	0.032	0.361
-83.655	800.000	-0.097	-0.407
-82.640	2.170	-0.158	0.114
-81.626	-115.226	0.225	0.043
-80.611	800.000	0.065	0.191
-79.597	-146.062	-0.241	-0.021
-78.582	800.000	-0.036	0.115
-77.567	-200.000	-0.004	0.210
-76.553	800.000	0.098	0.301
-75.538	800.000	0.030	-0.093
-74.524	230.572	-0.097	-0.159
-73.509	800.000	-0.075	-0.223
-72.494	172.187	-0.257	-0.369
-71.480	-108.345	0.166	0.036
-70.465	800.000	0.073	0.266
-69.451	-128.754	-0.212	-0.030
-68.436	-109.757	-0.386	0.081
-67.422	-200.000	-0.013	0.368
-66.407	468.300	-0.066	0.148
-65.392	-88.965	0.349	-0.103
-64.378	488.821	-0.064	0.147
-63.363	292.170	0.215	-0.390
-62.349	270.408	0.237	0.416
-61.334	49.504	-0.639	-0.600
-60.319	-76.128	0.197	0.069
-59.305	-200.000	-0.020	-0.624
-58.290	225.490	0.336	0.543
-57.276	800.000	0.543	1.960
-56.261	-200.000	75.178	543.539
-55.246	579.129	1300.683	3174.091
-54.232	147.157	2523.133	3384.510
-53.217	122.777	2222.559	2772.165
-52.203	55.758	1662.842	1606.538
-51.188	46.966	1381.374	1280.378
-50.173	43.024	1333.871	1212.632
-49.159	61.252	1366.621	1353.319
-48.144	69.126	1385.828	1419.937
-47.130	47.213	1348.346	1251.060
-46.115	43.044	1331.894	1210.767
-45.100	42.672	1327.632	1204.615
-44.086	42.647	1324.805	1201.853
-43.071	42.592	1322.912	1199.760
-42.057	42.640	1319.902	1197.265
-41.042	42.597	1318.471	1195.662
-40.027	42.745	1316.789	1194.972
-39.013	42.560	1315.662	1192.806
-37.998	42.670	1313.036	1191.029
-36.984	42.734	1311.205	1189.698
-35.969	42.741	1309.688	1188.317
-34.954	42.836	1308.183	1187.465
-33.940	42.808	1306.748	1185.948
-32.925	42.885	1305.481	1185.202
-31.911	42.951	1304.042	1184.241
-30.896	42.869	1302.370	1182.193
-29.881	43.071	1300.214	1181.375
-28.867	42.886	1299.562	1179.649
-27.852	42.935	1297.923	1178.400
-26.838	42.975	1296.357	1177.168
-25.823	42.977	1295.143	1176.028
-24.809	42.865	1293.888	1174.190
-23.794	42.943	1291.919	1172.810
-22.779	42.895	1290.849	1171.515
-21.765	42.811	1289.253	1169.531
-20.750	42.917	1287.836	1168.812
-19.736	42.754	1286.587	1166.690
-18.721	42.807	1285.291	1165.772
-17.706	42.838	1284.199	1164.917
-16.692	42.913	1282.561	1163.820
-15.677	42.761	1281.775	1162.180
-14.663	42.740	1280.788	1161.120
-13.648	42.751	1279.723	1160.168
-12.633	42.888	1278.394	1159.710
-11.619	42.670	1277.847	1157.911
-10.604	42.764	1277.090	1157.722
-9.590	42.745	1276.129	1156.696
-8.575	42.697	1274.861	1155.222
-7.560	42.762	1274.299	1155.039
-6.546	42.671	1273.164	1153.442
-5.531	42.779	1272.147	1153.099
-4.517	42.725	1271.544	1152.196
-3.502	42.719	1270.570	1151.233
-2.487	42.812	1269.160	1150.440
-1.473	42.732	1265.906	1146.991
-0.458	41.783	1251.468	1128.506
0.556	37.233	1231.894	1088.142
1.571	33.614	1235.228	1070.604
2.586	32.344	1250.877	1076.809
3.600	31.089	1240.287	1060.466
4.615	22.261	1162.534	946.620
5.629	7.995	1076.080	804.558
6.644	1.451	1051.100	753.447
7.659	0.952	1047.914	748.626
8.673	0.819	1046.402	746.826
9.688	0.790	1045.059	745.658
10.702	1.353	1044.712	748.121
11.717	9.517	1057.436	797.744
12.731	21.113	1073.307	867.637
13.746	24.375	1076.197	886.133
14.761	23.550	1074.843	880.845
15.775	23.350	1074.053	879.124
16.790	23.130	1073.081	877.160
17.804	23.036	1072.457	876.111
18.819	23.185	1072.113	876.490
19.834	23.081	1071.589	875.465
20.848	23.284	1070.958	875.880
21.863	23.219	1070.416	875.036
22.877	23.131	1069.598	873.855
23.892	23.112	1068.886	873.103
24.907	23.161	1068.669	873.091
25.921	23.120	1067.980	872.249
26.936	23.176	1066.068	870.883
27.950	23.044	1064.692	869.034
28.965	22.888	1062.601	866.484
29.980	23.039	1061.441	866.201
30.994	23.150	1060.263	865.708
32.009	23.165	1059.265	864.888
33.023	23.066	1057.280	862.712
34.038	22.993	1057.372	862.353
35.053	23.134	1056.509	862.258
36.067	23.172	1055.804	861.795
37.082	23.181	1054.891	861.015
38.096	23.453	1054.292	861.774
39.111	23.385	1053.869	861.022
40.126	23.231	1052.432	859.023
41.140	23.035	1050.547	856.457
42.155	22.677	1049.091	853.463
43.169	22.791	1048.315	853.307
44.184	22.739	1047.277	852.138
45.199	22.771	1046.289	851.414
46.213	22.710	1045.504	850.405
47.228	22.969	1044.596	850.837
48.242	23.019	1043.619	850.207
49.257	23.109	1043.273	850.284
50.271	23.310	1042.311	850.390
51.286	23.186	1041.712	849.229
52.301	23.287	1040.788	848.884
53.315	23.199	1039.904	847.667
54.330	23.129	1038.711	846.283
55.344	23.117	1038.149	845.696
56.359	23.092	1037.033	844.593
57.374	22.922	1035.871	842.759
58.388	22.938	1035.443	842.413
59.403	22.889	1034.296	841.173
60.417	22.726	1033.719	839.854
61.432	22.853	1032.851	839.677
62.447	23.074	1032.107	840.049
63.461	22.990	1031.509	839.090
64.476	22.913	1030.295	837.662
65.490	22.878	1029.456	836.740
66.505	22.894	1028.915	836.302
67.520	22.954	1028.359	836.061
68.534	22.683	1026.922	833.535
69.549	22.458	1025.831	831.514
70.563	22.488	1024.898	830.827
71.578	22.531	1023.970	830.204
72.593	22.267	1023.569	828.563
73.607	22.413	1023.102	828.796
74.622	22.710	1022.750	829.837
75.636	22.807	1021.863	829.500
76.651	22.791	1021.041	828.682
77.666	22.477	1020.505	826.703
78.680	22.594	1019.951	826.727
79.695	22.706	1019.073	826.470
80.709	22.882	1017.913	826.279
81.724	22.788	1017.482	825.417
82.739	22.853	1016.696	825.009
83.753	23.149	1016.428	826.098
84.768	23.379	1015.739	826.540
85.782	23.748	1014.047	826.808
86.797	23.389	1013.727	824.803
87.812	23.199	1012.319	822.700
88.826	23.403	1011.446	822.866
89.841	23.411	1010.783	822.293
90.855	23.508	1009.220	821.396
91.870	23.432	1008.765	820.601
92.884	23.301	1007.539	818.925
93.899	23.256	1006.662	817.931
94.914	23.387	1005.849	817.804
95.928	23.288	1004.742	816.377
96.943	23.147	1002.992	814.234
97.957	22.867	1002.148	812.188
98.972	22.677	1001.294	810.552
99.987	22.865	1000.633	810.809
101.001	23.121	1000.014	811.408
102.016	23.201	999.227	811.067
103.030	23.107	998.391	809.887
104.045	22.953	997.275	808.202
105.060	22.836	996.036	806.591
106.074	22.961	995.226	806.438
107.089	23.299	995.078	807.788
108.103	23.135	993.819	805.946
109.118	23.035	992.537	804.381
110.133	22.895	991.757	803.040
111.147	22.837	990.017	801.299
112.162	22.628	989.357	799.746
113.176	22.903	988.776	800.451
114.191	22.864	987.929	799.517
115.206	22.396	986.667	796.309
116.220	22.417	986.178	795.939
117.235	22.569	985.108	795.692
118.249	22.570	984.298	794.970
119.264	22.612	983.591	794.520
120.279	22.440	983.351	793.479
121.293	22.740	981.649	793.385
122.308	22.750	981.228	793.022
123.322	22.720	979.779	791.644
124.337	22.512	978.537	789.641
125.352	21.990	977.017	786.005
126.366	21.924	976.036	784.850
127.381	22.677	976.008	788.123
128.395	23.111	976.070	790.045
129.410	23.191	975.062	789.516
130.424	23.245	973.976	788.809
131.439	23.236	973.157	788.034
132.454	23.173	972.004	786.749
133.468	23.220	971.235	786.267
134.483	23.179	970.586	785.489
135.497	23.449	969.751	785.940
136.512	23.455	969.028	785.315
137.527	23.435	968.320	784.581
138.541	23.592	967.246	784.339
139.556	23.524	966.494	783.356
140.570	23.604	965.825	783.100
141.585	23.541	964.717	781.851
142.600	23.551	963.569	780.896
143.614	23.723	963.219	781.301
144.629	23.863	962.391	781.174
145.643	23.536	961.239	778.738
146.658	23.570	959.821	777.665
147.673	23.318	958.855	775.713
148.687	23.344	957.749	774.864
149.702	23.253	956.696	773.544
150.716	23.188	956.105	772.717
151.731	23.277	955.542	772.581
152.746	23.486	954.388	772.490
153.760	23.600	954.132	772.711
154.775	23.663	953.385	772.313
155.789	23.651	952.702	771.638
156.804	23.530	951.547	770.107
157.819	23.561	950.658	769.456
158.833	23.620	950.128	769.215
159.848	23.665	949.136	768.537
160.862	23.413	947.978	766.440
161.877	23.488	946.756	765.709
162.892	23.535	946.103	765.318
163.906	23.513	944.848	764.140
164.921	23.476	944.222	763.405
165.935	23.773	942.969	763.601
166.950	23.618	941.688	761.832
167.964	23.514	941.438	761.117
168.979	23.386	940.314	759.591
169.994	23.322	939.216	758.365
171.008	23.660	938.430	759.107
172.023	23.653	937.948	758.619
173.037	23.324	937.113	756.474
174.052	23.221	936.205	755.233
175.067	23.295	935.152	754.632
176.081	23.388	934.460	754.403
177.096	23.289	934.005	753.549
178.110	22.983	933.364	751.664
179.125	22.893	932.344	750.392
180.140	22.945	931.853	750.153
181.154	23.030	931.714	750.334
182.169	23.364	931.186	751.258
183.183	23.498	930.907	751.538
184.198	23.540	930.273	751.135
185.213	23.524	929.314	750.225
186.227	23.438	928.731	749.325
187.242	23.503	928.684	749.497
188.256	23.658	927.344	749.002
189.271	23.672	926.653	748.436
190.286	23.312	925.576	745.985
191.300	23.011	923.965	743.354
192.315	21.865	922.868	737.592
193.329	21.871	922.425	737.199
194.344	22.752	923.182	741.441
195.359	23.477	922.221	743.644
196.373	23.577	921.766	743.632
197.388	23.283	921.599	742.196
198.402	23.400	920.568	741.791
199.417	23.593	919.683	741.820
200.432	23.095	918.751	738.924
201.446	22.964	918.280	737.931
202.461	23.069	917.838	737.950
203.475	22.241	915.749	732.756
204.490	21.637	914.279	729.000
205.504	22.234	915.131	732.102
206.519	23.064	914.860	735.275
207.534	23.140	914.300	735.073
208.548	23.460	914.570	736.555
209.563	23.249	913.263	734.563
210.577	23.197	912.550	733.708
211.592	23.689	912.382	735.546
212.607	23.539	911.116	733.843
213.621	23.654	910.856	734.045
214.636	23.669	909.879	733.250
215.650	23.530	909.492	732.300
216.665	23.715	908.700	732.361
217.680	23.517	908.125	731.018
218.694	23.131	907.103	728.543
219.709	23.042	906.458	727.594
220.723	23.343	905.687	728.146
221.738	23.515	904.927	728.179
222.753	23.488	904.675	727.801
223.767	23.573	904.195	727.700
224.782	23.910	903.699	728.615
225.796	23.800	903.208	727.704
226.811	23.000	901.843	723.268
227.826	22.446	900.599	719.940
228.840	22.770	899.890	720.635
229.855	22.772	899.387	720.178
230.869	22.336	898.144	717.340
231.884	22.720	898.296	718.965
232.899	23.420	898.783	722.145
233.913	23.467	897.306	721.082
234.928	23.462	896.804	720.597
235.942	23.381	896.136	719.667
236.957	23.193	895.063	717.979
237.972	23.083	894.682	717.162
238.986	23.122	894.580	717.175
240.001	23.089	893.964	716.485
241.015	23.279	893.340	716.690
242.030	23.385	893.142	716.896
243.045	23.412	892.578	716.488
244.059	23.585	891.973	716.640
245.074	23.365	891.052	714.947
246.088	23.022	890.057	712.704
247.103	23.259	889.856	713.436
248.117	23.959	889.563	715.957
249.132	24.054	889.144	715.937
250.147	24.211	888.631	716.091
251.161	24.502	887.827	716.549
252.176	24.230	887.849	715.410
253.190	24.403	886.777	715.180
254.205	24.543	886.453	715.412
255.220	24.496	885.913	714.727
256.234	24.307	885.207	713.337
257.249	24.306	883.948	712.257
258.263	24.392	883.416	712.109
259.278	24.425	882.932	711.785
260.293	24.416	882.822	711.597
261.307	24.250	881.909	710.139
262.322	24.055	880.972	708.547
263.336	23.399	879.067	704.343
264.351	22.434	876.661	698.528
265.366	22.305	877.338	698.494
266.380	23.547	877.530	703.513
267.395	23.914	877.494	704.876
268.409	23.991	876.495	704.316
269.424	24.146	876.087	704.540
270.439	24.092	875.418	703.727
271.453	24.181	875.028	703.701
272.468	24.299	874.605	703.763
273.482	24.329	874.209	703.502
274.497	23.844	873.137	700.666
275.512	23.531	872.185	698.609
276.526	24.011	872.195	700.443
277.541	24.080	872.037	700.527
278.555	23.839	871.207	698.852
279.570	23.919	869.770	697.949
280.585	24.130	869.251	698.300
281.599	23.902	868.800	696.981
282.614	23.425	867.264	693.821
283.628	23.405	866.598	693.147
284.643	23.764	866.753	694.617
285.657	23.418	865.543	692.234
286.672	23.126	864.677	690.340
287.687	23.760	864.245	692.404
288.701	23.827	863.723	692.188
289.716	23.488	863.204	690.392
290.730	23.368	862.561	689.350
291.745	23.097	861.536	687.414
292.760	23.367	861.077	688.035
293.774	24.378	861.821	692.496
294.789	24.542	861.537	692.842
295.803	24.773	860.587	692.914
296.818	24.766	860.127	692.453
297.833	24.297	859.012	689.681
298.847	24.222	858.221	688.694
299.862	24.416	858.272	689.424
300.876	24.746	857.573	690.076
301.891	24.643	857.238	689.348
302.906	24.054	856.355	686.309
303.920	24.373	855.647	686.907
304.935	24.709	855.571	688.080
305.949	24.727	854.977	687.610
306.964	24.337	854.310	685.516
307.979	24.422	853.526	685.151
308.993	24.873	853.307	686.644
310.008	24.834	852.796	686.025
311.022	24.503	852.324	684.315
312.037	24.347	851.625	683.095
313.052	24.170	850.361	681.344
314.066	23.373	848.970	677.126
315.081	23.019	848.329	675.204
316.095	23.783	849.044	678.632
317.110	24.295	848.565	680.140
318.125	23.504	847.331	676.078
319.139	22.457	845.496	670.570
320.154	22.472	845.163	670.301
321.168	23.178	845.741	673.389
322.183	24.029	845.794	676.610
323.197	24.156	845.090	676.469
324.212	24.378	845.051	677.219
325.227	24.389	844.622	676.858
326.241	24.399	843.561	675.987
327.256	24.279	843.096	675.100
328.270	24.055	842.723	673.891
329.285	24.028	841.560	672.800
330.300	23.720	840.812	670.981
331.314	24.016	840.431	671.736
332.329	24.509	840.353	673.471
333.343	24.779	839.846	674.025
334.358	24.526	839.526	672.756
335.373	24.630	839.325	672.925
336.387	24.946	839.329	674.058
337.402	24.918	839.336	673.900
338.416	24.905	838.637	673.228
339.431	25.025	838.498	673.511
340.446	25.123	838.231	673.603
341.460	25.121	837.530	672.972
342.475	24.790	836.802	671.088
343.489	24.855	836.804	671.274
344.504	25.272	836.229	672.313
345.519	25.275	836.149	672.202
346.533	25.347	835.698	672.048
347.548	25.413	835.020	671.693
348.562	25.229	834.294	670.360
349.577	25.215	833.730	669.797
350.592	25.188	833.034	669.077
351.606	25.337	832.139	668.854
352.621	25.054	831.474	667.206
353.635	25.157	830.416	666.682
354.650	24.536	829.132	663.286
355.665	23.477	827.795	658.229
356.679	23.784	827.748	659.272
357.694	24.271	827.499	660.823
358.708	24.171	827.010	660.003
359.723	24.638	826.680	661.410
360.738	24.868	826.519	662.073
361.752	25.061	826.025	662.332
362.767	25.248	825.843	662.820
363.781	25.484	825.432	663.302
364.796	25.695	824.910	663.603
365.810	25.838	824.173	663.477
366.825	25.735	823.914	662.829
367.840	25.415	823.326	661.122
368.854	24.979	822.444	658.750
369.869	24.996	822.049	658.438
370.883	25.004	821.274	657.791
371.898	24.910	821.130	657.270
372.913	25.034	820.765	657.377
373.927	25.166	820.622	657.688
374.942	25.355	820.111	657.911
375.956	25.346	819.689	657.481
376.971	25.543	819.470	657.968
377.986	25.772	818.805	658.213
379.000	25.660	818.188	657.252
380.015	25.416	817.448	655.706
381.029	25.584	817.166	656.036
382.044	25.791	816.709	656.365
383.059	25.528	815.976	654.760
384.073	25.702	815.074	654.613
385.088	25.612	814.403	653.690
386.102	25.580	813.933	653.138
387.117	25.399	813.505	652.080
388.132	25.047	812.325	649.798
389.146	24.660	811.000	647.282
390.161	24.937	811.335	648.494
391.175	25.472	811.225	650.285
392.190	25.163	810.335	648.399
393.205	23.806	808.212	641.743
394.219	22.353	806.294	634.926
395.234	22.143	806.137	633.989
396.248	23.713	807.391	640.587
397.263	25.253	808.455	646.930
398.278	25.209	808.553	646.794
399.292	24.995	807.673	645.264
400.307	24.910	807.165	644.491
401.321	24.859	807.035	644.147
402.336	25.476	806.779	646.105
403.350	25.902	806.469	647.330
404.365	26.193	805.918	647.877
405.380	26.400	805.691	648.379
406.394	26.678	805.124	648.862
407.409	26.494	804.487	647.632
408.423	26.242	804.681	646.826
409.438	26.364	804.378	646.966
410.453	26.309	803.712	646.175
411.467	26.305	803.010	645.537
412.482	26.174	802.928	644.947
413.496	26.467	802.273	645.410
414.511	26.359	802.049	644.789
415.526	26.376	801.432	644.295
416.540	25.924	801.250	642.479
417.555	25.963	800.202	641.722
418.569	26.050	799.907	641.737
419.584	26.035	799.339	641.171
420.599	26.017	798.384	640.286
421.613	88.649	1250.571	1336.391
422.628	75.630	1316.509	1336.525
