DTS Sentinel unit serial number:	SN413079Multiplexer serial number:	ORYXHardware model number:	OX4-SRSoftware version number:	ORYX F/W v4.00 Oryx Data Collector v3.7.2.0data status	okinstallation	princeton_trtdifferential loss correction	single-endedforward channel	channel 1reverse channel	N/Adate	2019/09/16time	05:26:35forward acquisition time	60.00reverse acquisition time	0.00gamma	496.2192k internal	0.2332k external	0.2332temperature offset calibration	0.9982default loss term (dB/km)	0.3790temperature slope calibration	1.0000multiplexer offset coefficient	1.0000multiplexer slope coefficient	1.0000fibre end	0.00T internal ref (°C)	27.28T ext. ref 1 (°C)	11.10T ext. ref 2 (°C)	22.11length (m)	temperature (°C)	Stokes	anti-Stokes-747.200	26.095	0.121	0.102
-746.185	726.561	-0.106	0.285
-745.171	-122.304	0.167	-0.027
-744.156	-48.046	-0.207	0.101
-743.142	68.646	0.200	-0.207
-742.127	-90.631	0.168	0.049
-741.112	-120.121	-0.184	0.032
-740.098	-6.181	-0.311	0.214
-739.083	-156.981	0.110	0.007
-738.069	77.134	-0.397	0.424
-737.054	-90.530	0.252	0.073
-736.039	-94.918	-0.523	-0.143
-735.025	-108.645	0.256	-0.055
-734.010	-136.500	-0.308	-0.036
-732.996	15.317	-0.118	-0.093
-731.981	-145.576	0.274	-0.025
-730.966	-44.925	-0.168	-0.084
-729.952	461.748	-0.076	-0.171
-728.937	119.127	0.020	0.025
-727.923	4.918	-0.013	-0.009
-726.908	198.255	-0.180	-0.277
-725.894	-200.000	-0.015	0.171
-724.879	64.746	0.254	-0.258
-723.864	45.909	0.327	0.304
-722.850	-130.239	-0.237	-0.032
-721.835	345.948	0.141	-0.279
-720.821	-56.606	0.094	0.042
-719.806	199.640	-0.161	0.249
-718.791	661.177	-0.104	-0.270
-717.777	800.000	-0.128	-0.460
-716.762	-200.000	0.009	0.097
-715.748	-200.000	0.108	-0.528
-714.733	-29.705	-0.275	-0.158
-713.718	220.892	0.124	-0.201
-712.704	800.000	-0.087	-0.252
-711.689	-51.622	0.275	-0.129
-710.675	-13.791	-0.221	-0.144
-709.660	166.533	-0.062	-0.088
-708.645	-50.403	0.128	0.061
-707.631	519.671	-0.084	-0.199
-706.616	22.736	0.205	-0.169
-705.602	313.170	-0.085	0.161
-704.587	-200.000	0.012	-0.301
-703.572	-171.674	-0.209	0.007
-702.558	89.987	-0.132	-0.148
-701.543	134.503	0.104	-0.136
-700.529	-50.765	-0.354	-0.167
-699.514	570.687	0.099	-0.241
-698.499	100.269	0.088	-0.102
-697.485	800.000	-0.150	0.576
-696.470	-35.668	0.202	0.110
-695.456	-48.143	0.043	-0.021
-694.441	-133.467	0.418	-0.053
-693.426	504.132	-0.060	0.140
-692.412	-32.777	-0.110	-0.061
-691.397	134.415	-0.014	0.018
-690.383	167.722	-0.160	0.229
-689.368	-120.864	-0.364	0.062
-688.354	-200.000	-0.005	0.163
-687.339	-140.532	0.277	0.029
-686.324	247.207	0.193	0.327
-685.310	-200.000	0.010	-0.191
-684.295	350.905	-0.180	-0.358
-683.281	-200.000	-0.066	-0.425
-682.266	-134.822	-0.175	0.021
-681.251	800.000	-0.083	0.238
-680.237	-79.984	0.268	-0.090
-679.222	-39.347	-0.187	0.098
-678.208	-57.435	0.055	-0.024
-677.193	-200.000	0.041	0.248
-676.178	129.867	-0.073	-0.093
-675.164	-36.400	-0.195	-0.105
-674.149	-59.758	0.101	-0.044
-673.135	-81.139	-0.523	0.174
-672.120	177.118	0.172	0.252
-671.105	-200.000	-0.005	0.062
-670.091	18.756	0.156	0.126
-669.076	-200.000	0.017	0.144
-668.062	-146.007	0.282	0.025
-667.047	251.036	0.056	-0.096
-666.032	-172.947	-0.341	0.011
-665.018	-128.568	-0.476	-0.068
-664.003	-103.701	0.332	-0.078
-662.989	-200.000	-0.009	0.063
-661.974	-38.594	0.199	0.105
-660.959	65.653	-0.228	0.232
-659.945	800.000	-0.082	-0.232
-658.930	-97.488	-0.199	0.052
-657.916	71.275	-0.194	-0.202
-656.901	-200.000	-0.005	0.216
-655.886	353.340	-0.149	-0.296
-654.872	-70.807	-0.170	-0.064
-653.857	-16.216	0.209	-0.133
-652.843	-127.807	-0.334	-0.048
-651.828	-29.444	-0.055	-0.031
-650.814	-48.778	0.144	-0.069
-649.799	101.450	0.137	0.159
-648.784	-200.000	-0.002	-0.131
-647.770	-48.975	0.161	0.077
-646.755	-74.392	0.119	0.043
-645.741	-6.573	0.104	-0.071
-644.726	-200.000	-0.008	-0.163
-643.711	252.284	-0.014	-0.025
-642.697	-32.357	0.051	0.028
-641.682	-163.001	0.332	-0.016
-640.668	-200.000	-0.064	-0.362
-639.653	-157.198	0.150	0.009
-638.638	-15.612	0.242	-0.155
-637.624	-200.000	0.034	-0.231
-636.609	49.634	0.069	0.065
-635.595	-28.543	0.065	0.038
-634.580	-22.657	0.223	0.135
-633.565	16.226	-0.105	-0.083
-632.551	-200.000	0.020	0.232
-631.536	106.029	-0.094	-0.111
-630.522	-138.980	-0.160	-0.017
-629.507	-148.695	-0.176	0.014
-628.492	281.539	0.095	0.170
-627.478	-200.000	-0.026	0.528
-626.463	-200.000	-0.074	0.326
-625.449	20.890	-0.069	-0.056
-624.434	-47.299	0.184	-0.090
-623.419	-15.947	-0.228	0.145
-622.405	0.924	-0.046	0.033
-621.390	202.705	0.152	0.235
-620.376	385.719	-0.203	0.419
-619.361	31.052	-0.172	0.148
-618.346	-200.000	-0.035	-0.334
-617.332	119.385	0.036	0.044
-616.317	251.003	0.111	-0.189
-615.303	123.085	0.175	0.220
-614.288	238.716	-0.188	-0.313
-613.273	-124.430	0.210	-0.033
-612.259	-200.000	0.004	0.028
-611.244	-53.205	-0.192	-0.088
-610.230	-12.197	-0.195	-0.128
-609.215	109.241	0.164	-0.196
-608.201	91.832	-0.238	-0.268
-607.186	-15.295	-0.118	0.075
-606.171	800.000	0.081	-0.333
-605.157	-200.000	0.024	0.127
-604.142	30.365	0.104	0.089
-603.128	-90.360	-0.380	-0.110
-602.113	216.639	-0.158	-0.251
-601.098	-75.338	-0.153	-0.055
-600.084	-200.000	0.001	0.036
-599.069	8.196	-0.200	0.150
-598.055	-200.000	0.018	-0.162
-597.040	176.373	-0.073	0.106
-596.025	479.020	0.075	-0.170
-595.011	800.000	-0.032	0.120
-593.996	-200.000	0.031	-0.225
-592.982	39.035	-0.159	-0.142
-591.967	-37.770	0.247	-0.131
-590.952	-161.084	-0.248	-0.013
-589.938	-86.994	0.106	-0.032
-588.923	126.675	0.156	0.197
-587.909	800.000	0.093	0.285
-586.894	-164.525	0.371	-0.017
-585.879	707.339	-0.049	0.129
-584.865	-10.027	0.275	0.183
-583.850	-200.000	-0.027	-0.424
-582.836	-124.293	-0.207	0.032
-581.821	800.000	0.028	0.097
-580.806	115.786	0.021	-0.026
-579.792	687.124	-0.097	0.254
-578.777	-71.725	0.108	0.040
-577.763	-127.632	0.132	0.019
-576.748	-8.750	-0.257	0.173
-575.733	3.585	0.055	-0.040
-574.719	480.668	-0.089	0.202
-573.704	15.755	-0.239	0.188
-572.690	-98.717	0.352	0.090
-571.675	137.667	-0.119	0.156
-570.661	664.736	-0.096	-0.249
-569.646	-200.000	0.015	-0.131
-568.631	800.000	-0.083	0.293
-567.617	-161.337	0.317	-0.016
-566.602	534.161	-0.046	-0.110
-565.588	800.000	-0.034	-0.144
-564.573	40.072	-0.284	0.255
-563.558	128.893	0.155	-0.198
-562.544	-101.750	0.303	0.073
-561.529	800.000	0.014	-0.041
-560.515	-200.000	-0.005	-0.253
-559.500	2.150	-0.141	-0.102
-558.485	800.000	0.114	-0.432
-557.471	16.209	0.104	-0.082
-556.456	-113.608	0.254	0.049
-555.442	20.766	0.207	0.168
-554.427	800.000	0.050	-0.174
-553.412	148.393	-0.245	0.330
-552.398	133.450	0.089	-0.115
-551.383	-200.000	0.062	-0.287
-550.369	-78.287	0.118	-0.040
-549.354	180.175	-0.188	0.275
-548.339	-200.000	-0.014	0.237
-547.325	-113.993	0.114	-0.022
-546.310	-200.000	0.002	0.155
-545.296	-200.000	-0.049	-0.283
-544.281	-26.003	-0.162	-0.095
-543.266	800.000	-0.064	-0.239
-542.252	-56.908	0.238	-0.105
-541.237	-133.221	-0.268	-0.034
-540.223	-200.000	0.130	-0.000
-539.208	800.000	-0.030	-0.087
-538.193	-56.381	-0.278	-0.123
-537.179	644.077	-0.110	-0.281
-536.164	46.909	-0.118	-0.109
-535.150	211.575	-0.214	0.336
-534.135	-200.000	-0.001	0.062
-533.121	800.000	-0.058	0.221
-532.106	41.327	0.176	0.159
-531.091	467.603	0.081	-0.182
-530.077	229.103	0.147	0.239
-529.062	-16.645	0.153	0.097
-528.048	-57.515	-0.298	0.130
-527.033	-12.036	0.267	-0.174
-526.018	229.976	0.140	0.227
-525.004	204.728	-0.122	-0.188
-523.989	597.631	-0.108	0.266
-522.975	800.000	0.150	-0.438
-521.960	-200.000	-0.040	-0.245
-520.945	-34.826	-0.198	-0.108
-519.931	-104.378	0.316	-0.073
-518.916	-71.898	-0.320	0.119
-517.902	74.045	0.180	-0.189
-516.887	727.807	-0.041	0.108
-515.872	677.550	-0.121	0.313
-514.858	-97.139	-0.241	0.063
-513.843	109.259	-0.033	0.039
-512.829	-146.648	-0.375	-0.032
-511.814	36.139	-0.195	-0.171
-510.799	92.994	0.234	-0.264
-509.785	-85.701	-0.193	-0.060
-508.770	-121.960	0.281	-0.046
-507.756	-166.063	0.369	0.016
-506.741	-200.000	-0.040	-0.376
-505.726	286.014	0.141	-0.253
-504.712	-200.000	0.040	-0.188
-503.697	186.835	-0.057	-0.085
-502.683	-135.005	0.292	-0.035
-501.668	172.011	0.180	-0.258
-500.653	-91.160	-0.074	-0.021
-499.639	-200.000	0.021	0.597
-498.624	30.872	-0.581	0.496
-497.610	-49.329	-0.121	-0.058
-496.595	-200.000	0.006	-0.100
-495.581	49.973	-0.070	-0.066
-494.566	673.748	0.104	-0.268
-493.551	34.560	-0.184	0.160
-492.537	-20.849	-0.244	-0.149
-491.522	-18.398	-0.094	-0.059
-490.508	-200.000	-0.018	0.355
-489.493	-92.231	-0.161	0.045
-488.478	-200.000	-0.006	-0.479
-487.464	-70.127	0.134	0.051
-486.449	-153.072	-0.454	-0.032
-485.435	-17.702	-0.115	0.072
-484.420	-200.000	-0.005	-0.292
-483.405	-200.000	-0.027	0.216
-482.391	63.700	-0.028	-0.028
-481.376	775.724	-0.038	0.104
-480.362	-149.277	-0.059	-0.005
-479.347	143.965	-0.135	0.179
-478.332	800.000	0.088	-0.354
-477.318	-200.000	0.021	-0.221
-476.303	-109.533	-0.165	0.035
-475.289	-100.621	0.115	-0.028
-474.274	800.000	-0.073	0.206
-473.259	35.962	0.089	-0.078
-472.245	-166.966	-0.217	0.009
-471.230	241.078	0.128	0.213
-470.216	-200.000	-0.070	0.331
-469.201	800.000	-0.014	0.051
-468.186	246.271	-0.074	-0.124
-467.172	-149.376	-0.215	-0.017
-466.157	525.687	0.030	-0.071
-465.143	-89.083	-0.336	0.099
-464.128	130.716	-0.079	-0.101
-463.113	16.739	0.276	0.217
-462.099	67.670	-0.162	0.165
-461.084	-2.246	-0.232	0.162
-460.070	-200.000	0.040	0.177
-459.055	-86.792	0.091	-0.028
-458.040	-200.000	-0.093	-0.427
-457.026	-102.689	0.212	-0.050
-456.011	-53.258	-0.395	0.180
-454.997	86.979	0.125	-0.138
-453.982	-200.000	0.052	-0.377
-452.968	797.372	0.034	-0.094
-451.953	0.485	-0.029	0.021
-450.938	134.374	0.101	0.130
-449.924	-133.120	0.365	0.046
-448.909	41.102	0.046	0.041
-447.895	-200.000	-0.005	0.328
-446.880	51.507	-0.163	-0.154
-445.865	-55.397	0.489	0.218
-444.851	93.457	-0.054	0.061
-443.836	-22.168	0.101	-0.061
-442.822	-35.324	0.091	-0.049
-441.807	800.000	-0.070	-0.207
-440.792	13.507	0.183	-0.141
-439.778	-72.911	0.243	-0.089
-438.763	-91.486	-0.067	0.019
-437.749	-200.000	-0.006	0.129
-436.734	-200.000	0.005	0.148
-435.719	800.000	0.104	0.404
-434.705	82.125	-0.177	0.191
-433.690	96.642	0.087	-0.099
-432.676	-69.650	-0.349	-0.133
-431.661	-106.560	-0.432	0.096
-430.646	-38.207	-0.130	-0.069
-429.632	-107.295	-0.236	0.052
-428.617	-200.000	0.019	0.266
-427.603	-60.022	0.111	-0.047
-426.588	387.654	-0.037	-0.076
-425.573	238.915	0.090	-0.149
-424.559	-53.576	-0.179	-0.081
-423.544	126.978	-0.176	0.221
-422.530	790.895	-0.093	0.253
-421.515	671.656	0.102	-0.263
-420.500	-200.000	-0.056	-0.395
-419.486	30.756	0.024	0.020
-418.471	-71.565	0.218	-0.081
-417.457	-200.000	0.012	-0.122
-416.442	401.250	0.183	0.382
-415.428	419.633	0.102	-0.218
-414.413	800.000	-0.006	-0.019
-413.398	578.073	0.139	0.339
-412.384	94.473	-0.127	0.143
-411.369	314.164	0.021	0.040
-410.355	18.388	0.219	0.173
-409.340	217.920	0.133	-0.210
-408.325	-48.681	0.210	0.100
-407.311	59.928	0.240	-0.235
-406.296	-127.516	-0.306	0.044
-405.282	27.780	0.086	0.072
-404.267	81.528	0.164	-0.176
-403.252	128.027	0.042	0.053
-402.238	-101.149	0.074	-0.018
-401.223	-52.003	-0.338	-0.156
-400.209	24.109	0.180	-0.148
-399.194	-200.000	-0.093	0.525
-398.179	718.176	0.145	-0.383
-397.165	-124.314	0.336	-0.052
-396.150	-200.000	-0.004	-0.294
-395.136	5.806	-0.314	0.230
-394.121	-200.000	0.051	-0.265
-393.106	-113.382	-0.143	-0.028
-392.092	375.966	0.088	-0.177
-391.077	-7.930	-0.115	-0.077
-390.063	32.661	-0.196	-0.168
-389.048	-79.473	0.198	0.066
-388.033	-200.000	0.024	-0.135
-387.019	-1.830	0.105	0.073
-386.004	650.870	-0.092	-0.233
-384.990	-172.842	-0.070	0.002
-383.975	-126.805	-0.213	-0.031
-382.960	800.000	0.043	0.124
-381.946	-73.262	0.225	-0.082
-380.931	-19.424	0.241	0.148
-379.917	-34.796	0.272	0.148
-378.902	-90.786	-0.108	0.031
-377.888	-144.504	-0.230	0.021
-376.873	259.336	-0.089	-0.152
-375.858	-200.000	0.011	-0.128
-374.844	800.000	0.035	0.125
-373.829	529.168	0.027	-0.063
-372.815	121.017	0.072	0.089
-371.800	-46.248	-0.338	-0.165
-370.785	-45.193	-0.285	0.140
-369.771	381.598	-0.089	-0.182
-368.756	-200.000	-0.232	-0.001
-367.742	-200.000	0.011	0.138
-366.727	194.136	-0.223	0.334
-365.712	12.077	0.114	0.087
-364.698	-102.559	0.086	0.020
-363.683	2.342	0.061	0.044
-362.669	800.000	-0.018	0.052
-361.654	-200.000	0.049	0.286
-360.639	-115.115	-0.181	0.034
-359.625	-200.000	0.012	0.559
-358.610	-75.049	0.106	-0.037
-357.596	119.484	-0.075	-0.092
-356.581	100.372	-0.173	0.199
-355.566	231.104	-0.179	0.290
-354.552	-54.645	-0.149	-0.067
-353.537	-82.796	0.237	0.076
-352.523	-200.000	-0.059	-0.560
-351.508	173.925	0.087	-0.124
-350.493	-38.656	0.175	0.092
-349.479	-200.000	0.030	-0.174
-348.464	682.257	0.115	0.296
-347.450	-200.000	-0.009	0.051
-346.435	-200.000	0.027	0.126
-345.420	800.000	-0.057	0.176
-344.406	800.000	0.027	-0.084
-343.391	-97.609	0.381	-0.098
-342.377	800.000	-0.052	0.164
-341.362	-93.906	0.285	0.078
-340.348	-200.000	-0.023	0.194
-339.333	138.506	-0.105	0.137
-338.318	-89.878	-0.152	0.044
-337.304	-81.909	0.336	0.109
-336.289	-67.879	-0.190	-0.074
-335.275	149.129	-0.133	-0.178
-334.260	60.803	-0.089	-0.087
-333.245	-67.846	-0.261	-0.101
-332.231	54.402	-0.306	0.292
-331.216	392.608	0.242	-0.498
-330.202	-83.477	0.121	0.038
-329.187	800.000	0.028	0.111
-328.172	109.362	-0.278	-0.330
-327.158	81.681	0.197	-0.211
-326.143	73.060	0.108	0.111
-325.129	-31.484	0.331	-0.184
-324.114	-128.634	-0.306	0.043
-323.099	747.078	-0.171	-0.457
-322.085	800.000	-0.057	-0.174
-321.070	51.689	-0.218	0.205
-320.056	-124.832	-0.155	-0.024
-319.041	-200.000	-0.009	-0.248
-318.026	-200.000	0.044	0.252
-317.012	-47.999	-0.120	-0.058
-315.997	-200.000	0.006	0.035
-314.983	-183.181	0.319	-0.006
-313.968	-92.539	0.121	0.034
-312.953	800.000	0.053	0.157
-311.939	13.473	0.150	0.115
-310.924	-135.508	-0.462	-0.054
-309.910	406.130	-0.078	0.162
-308.895	-200.000	-0.011	-0.096
-307.880	800.000	0.108	0.301
-306.866	-200.000	-0.034	0.185
-305.851	-31.436	0.287	-0.159
-304.837	-74.143	0.101	0.036
-303.822	800.000	0.033	0.099
-302.807	-200.000	0.009	0.224
-301.793	800.000	-0.083	0.269
-300.778	-117.154	0.310	0.056
-299.764	-69.578	0.150	-0.057
-298.749	-59.117	0.113	-0.048
-297.735	-105.917	-0.386	-0.086
-296.720	-98.441	-0.260	-0.066
-295.705	547.998	-0.065	-0.155
-294.691	321.022	0.022	0.041
-293.676	62.126	0.169	0.167
-292.662	-40.923	-0.133	0.068
-291.647	-71.823	0.123	-0.045
-290.632	800.000	0.068	-0.248
-289.618	-22.763	-0.124	0.074
-288.603	437.377	0.174	-0.375
-287.589	215.472	0.188	0.295
-286.574	-37.253	0.130	0.069
-285.559	94.468	0.358	0.402
-284.545	-200.000	0.035	0.241
-283.530	-200.000	-0.016	0.410
-282.516	684.963	-0.110	0.283
-281.501	-58.241	0.177	0.076
-280.486	174.956	0.213	0.304
-279.472	-129.172	0.106	-0.015
-278.457	-98.073	0.152	0.039
-277.443	69.093	-0.079	0.080
-276.428	-46.145	0.148	0.072
-275.413	-124.238	0.368	-0.057
-274.399	-12.759	-0.238	0.153
-273.384	800.000	0.047	-0.141
-272.370	11.819	-0.247	-0.188
-271.355	-200.000	0.039	0.167
-270.340	291.750	-0.219	-0.393
-269.326	-200.000	-0.011	0.123
-268.311	-200.000	-0.054	-0.266
-267.297	-145.989	-0.374	-0.033
-266.282	-98.870	-0.045	-0.011
-265.267	-27.073	0.206	0.119
-264.253	-200.000	-0.015	0.072
-263.238	-116.472	-0.218	0.040
-262.224	276.487	0.177	0.311
-261.209	189.807	-0.129	0.191
-260.195	-23.405	-0.166	0.098
-259.180	-200.000	0.053	0.277
-258.165	233.654	-0.092	0.150
-257.151	222.543	0.048	0.076
-256.136	352.221	-0.187	-0.365
-255.122	-85.839	0.294	0.090
-254.107	300.165	-0.139	0.252
-253.092	-84.970	0.199	0.062
-252.078	55.931	-0.185	-0.178
-251.063	191.212	-0.050	0.075
-250.049	-200.000	-0.029	-0.286
-249.034	-45.867	0.143	-0.070
-248.019	-162.855	0.214	0.010
-247.005	558.308	-0.075	0.178
-245.990	-66.540	-0.229	0.090
-244.976	399.817	-0.130	0.270
-243.961	-82.544	-0.242	-0.078
-242.946	-200.000	-0.003	-0.256
-241.932	-150.369	0.245	0.019
-240.917	-33.613	-0.148	0.081
-239.903	-110.818	-0.031	0.006
-238.888	178.214	-0.143	-0.206
-237.873	-21.513	0.281	-0.169
-236.859	44.699	0.097	0.088
-235.844	-200.000	-0.022	-0.448
-234.830	-36.104	-0.224	0.119
-233.815	14.203	-0.264	-0.203
-232.800	-200.000	0.041	-0.183
-231.786	800.000	-0.065	-0.178
-230.771	17.723	0.192	-0.150
-229.757	-200.000	-0.022	0.223
-228.742	28.413	-0.109	-0.091
-227.727	800.000	-0.162	-0.459
-226.713	-93.804	0.349	0.095
-225.698	20.588	-0.054	0.043
-224.684	219.637	0.142	0.224
-223.669	800.000	0.071	0.223
-222.655	-200.000	0.043	-0.213
-221.640	-77.277	0.054	-0.019
-220.625	548.895	0.105	-0.247
-219.611	-200.000	0.054	-0.335
-218.596	-174.329	-0.096	-0.003
-217.582	124.700	-0.391	0.485
-216.567	-200.000	0.007	0.295
-215.552	155.044	-0.194	0.263
-214.538	19.520	0.181	0.143
-213.523	-45.274	-0.296	-0.145
-212.509	237.049	-0.119	0.194
-211.494	800.000	0.095	-0.289
-210.479	55.381	-0.197	-0.188
-209.465	-22.601	0.095	-0.056
-208.450	277.191	0.209	-0.367
-207.436	66.413	0.189	-0.189
-206.421	-200.000	-0.022	0.102
-205.406	479.978	0.026	0.059
-204.392	-54.899	-0.442	-0.196
-203.377	30.884	-0.114	0.096
-202.363	-69.217	0.242	-0.091
-201.348	-177.837	0.285	0.007
-200.333	156.265	0.275	-0.374
-199.319	-200.000	-0.018	0.127
-198.304	173.528	-0.157	0.224
-197.290	4.850	-0.186	0.135
-196.275	800.000	-0.038	0.159
-195.260	187.360	0.143	-0.210
-194.246	121.526	0.129	0.159
-193.231	800.000	0.099	0.377
-192.217	-58.428	0.212	0.091
-191.202	-98.102	0.130	0.033
-190.187	-89.003	0.243	-0.071
-189.173	10.352	-0.153	-0.115
-188.158	223.225	0.119	-0.189
-187.144	36.525	-0.028	-0.024
-186.129	-52.187	0.387	-0.177
-185.114	155.136	0.176	0.238
-184.100	-200.000	0.003	-0.200
-183.085	-70.067	-0.166	-0.062
-182.071	-200.000	-0.038	-0.280
-181.056	55.744	0.172	-0.164
-180.042	-42.268	0.182	0.092
-179.027	-200.000	-0.001	0.060
-178.012	-200.000	-0.001	0.201
-176.998	800.000	0.130	0.357
-175.983	-91.417	0.264	0.074
-174.969	-43.984	0.096	-0.047
-173.954	800.000	0.059	0.250
-172.939	-49.309	0.265	0.124
-171.925	-45.308	-0.242	0.118
-170.910	-5.324	-0.240	-0.162
-169.896	488.060	-0.093	0.208
-168.881	-101.258	-0.087	-0.021
-167.866	-200.000	0.320	-0.001
-166.852	151.951	-0.123	0.165
-165.837	-74.752	0.236	-0.083
-164.823	-49.929	-0.296	-0.138
-163.808	-200.000	0.013	0.062
-162.793	-78.139	-0.184	0.062
-161.779	-21.778	-0.141	0.085
-160.764	26.958	0.362	-0.298
-159.750	58.287	0.117	-0.112
-158.735	60.758	-0.173	-0.169
-157.720	235.543	-0.059	0.095
-156.706	800.000	0.046	-0.137
-155.691	-200.000	-0.089	-0.552
-154.677	-54.032	0.148	0.066
-153.662	-101.292	-0.196	-0.047
-152.647	227.700	-0.079	-0.127
-151.633	63.943	0.206	-0.203
-150.618	-200.000	-0.036	-0.187
-149.604	-35.682	-0.261	0.139
-148.589	-41.982	0.348	0.175
-147.574	-163.433	0.110	0.005
-146.560	118.966	-0.184	-0.224
-145.545	-155.247	-0.344	-0.022
-144.531	-66.226	0.188	-0.074
-143.516	8.648	-0.180	0.133
-142.502	-72.003	-0.350	0.128
-141.487	-42.734	-0.159	-0.079
-140.472	-15.537	0.142	0.089
-139.458	-200.000	-0.005	0.030
-138.443	56.840	-0.064	-0.061
-137.429	33.071	0.176	0.150
-136.414	-86.275	-0.198	-0.060
-135.399	800.000	-0.081	0.278
-134.385	613.727	0.077	0.188
-133.370	-147.559	0.080	0.007
-132.356	248.903	0.046	-0.077
-131.341	-28.285	-0.342	-0.194
-130.326	-200.000	0.012	0.143
-129.312	503.465	0.103	-0.235
-128.297	204.812	0.056	-0.085
-127.283	-61.658	0.555	0.228
-126.268	173.376	-0.044	-0.062
-125.253	-175.882	0.286	-0.007
-124.239	23.421	0.222	0.179
-123.224	-200.000	0.004	0.019
-122.210	41.996	0.111	-0.099
-121.195	800.000	-0.058	-0.234
-120.180	242.926	0.074	-0.121
-119.166	161.458	0.096	-0.132
-118.151	-200.000	-0.060	-0.354
-117.137	-128.529	0.250	-0.035
-116.122	800.000	-0.100	-0.334
-115.107	90.368	-0.121	0.133
-114.093	23.625	-0.238	-0.192
-113.078	-95.330	0.246	-0.065
-112.064	-80.718	0.060	-0.020
-111.049	37.116	-0.174	0.151
-110.034	202.200	0.131	0.198
-109.020	-200.000	-0.005	0.093
-108.005	-45.901	-0.147	0.071
-106.991	235.241	0.244	0.395
-105.976	-33.145	0.494	-0.269
-104.962	197.049	-0.028	-0.043
-103.947	-176.313	0.171	-0.004
-102.932	-137.521	0.211	0.023
-101.918	800.000	-0.052	0.177
-100.903	-9.024	0.087	0.057
-99.889	70.237	0.038	0.039
-98.874	800.000	-0.070	0.272
-97.859	-176.601	0.274	-0.007
-96.845	70.251	-0.227	0.230
-95.830	-123.476	0.084	-0.013
-94.816	137.803	-0.128	-0.164
-93.801	-39.354	-0.219	0.113
-92.786	-200.000	0.001	-0.038
-91.772	-110.839	0.501	-0.101
-90.757	-28.221	0.139	-0.079
-89.743	76.345	-0.144	0.149
-88.728	641.253	-0.056	-0.139
-87.713	-200.000	-0.028	-0.201
-86.699	126.737	0.136	0.169
-85.684	83.623	-0.113	0.121
-84.670	-200.000	-0.023	-0.429
-83.655	-105.241	0.266	0.060
-82.640	336.629	0.100	0.190
-81.626	-126.093	0.348	0.051
-80.611	-139.151	0.117	0.012
-79.597	485.012	0.103	-0.230
-78.582	-167.783	-0.071	0.003
-77.567	-10.730	-0.098	0.063
-76.553	800.000	-0.090	-0.296
-75.538	-57.976	0.226	0.097
-74.524	-10.163	-0.149	0.097
-73.509	-200.000	0.020	-0.167
-72.494	-200.000	-0.010	-0.048
-71.480	98.185	0.156	0.177
-70.465	-159.477	0.344	0.019
-69.451	219.327	-0.069	0.109
-68.436	-121.199	-0.461	-0.076
-67.422	800.000	0.080	-0.248
-66.407	-163.656	-0.198	0.009
-65.392	-200.000	-0.023	0.125
-64.378	-132.737	-0.212	0.027
-63.363	181.550	0.095	-0.137
-62.349	150.306	0.277	-0.369
-61.334	101.995	-0.911	-1.042
-60.319	251.474	0.502	0.837
-59.305	326.841	-0.559	-1.049
-58.290	800.000	0.412	1.125
-57.276	331.220	0.681	1.286
-56.261	-200.000	114.184	644.229
-55.246	463.735	1512.148	3309.032
-54.232	146.605	2679.284	3524.972
-53.217	103.000	2154.600	2471.548
-52.203	38.642	1600.853	1398.548
-51.188	30.561	1346.322	1127.372
-50.173	27.714	1308.103	1078.523
-49.159	55.492	1363.780	1292.581
-48.144	53.742	1378.505	1295.963
-47.130	30.824	1334.461	1118.846
-46.115	27.361	1316.379	1083.070
-45.100	27.259	1311.564	1078.462
-44.086	27.268	1308.662	1076.086
-43.071	27.032	1306.797	1073.116
-42.057	27.116	1304.469	1071.660
-41.042	27.086	1302.990	1070.226
-40.027	27.138	1301.647	1069.381
-39.013	27.129	1299.465	1067.497
-37.998	27.137	1297.505	1065.889
-36.984	27.158	1295.857	1064.616
-35.969	27.411	1293.390	1064.029
-34.954	27.258	1292.527	1062.379
-33.940	27.212	1291.302	1061.064
-32.925	27.311	1289.982	1060.515
-31.911	27.392	1288.394	1059.640
-30.896	27.405	1286.650	1058.235
-29.881	27.452	1285.452	1057.482
-28.867	27.325	1284.038	1055.540
-27.852	27.364	1282.699	1054.627
-26.838	27.406	1280.890	1053.341
-25.823	27.475	1279.908	1052.889
-24.809	27.353	1278.106	1050.657
-23.794	27.294	1277.409	1049.707
-22.779	27.263	1276.091	1048.398
-21.765	27.482	1274.452	1048.275
-20.750	27.415	1273.208	1046.826
-19.736	27.280	1272.009	1045.021
-18.721	27.180	1271.354	1043.866
-17.706	27.331	1269.498	1043.165
-16.692	27.217	1268.758	1041.867
-15.677	27.235	1267.863	1041.188
-14.663	27.248	1266.475	1040.084
-13.648	27.204	1265.436	1038.940
-12.633	27.160	1264.493	1037.870
-11.619	27.214	1263.614	1037.416
-10.604	27.323	1262.826	1037.349
-9.590	27.256	1261.746	1036.042
-8.575	27.225	1260.848	1035.084
-7.560	27.295	1260.124	1034.846
-6.546	27.181	1258.819	1033.090
-5.531	27.200	1258.378	1032.792
-4.517	27.184	1257.322	1031.792
-3.502	27.248	1255.855	1030.911
-2.487	27.273	1255.416	1030.652
-1.473	27.162	1251.562	1026.819
-0.458	25.772	1236.618	1006.754
0.556	21.117	1220.413	971.015
1.571	17.645	1226.749	956.516
2.586	16.917	1241.858	964.076
3.600	16.992	1231.244	956.174
4.615	15.647	1164.320	896.947
5.629	12.702	1098.163	831.066
6.644	11.253	1081.742	811.358
7.659	11.035	1079.434	808.471
8.673	11.059	1078.185	807.582
9.688	11.054	1076.866	806.498
10.702	11.286	1074.517	805.815
11.717	12.996	1076.254	815.504
12.731	15.840	1080.068	832.410
13.746	17.557	1082.166	842.453
14.761	17.625	1080.958	841.772
15.775	16.606	1079.754	835.729
16.790	15.594	1077.189	828.682
17.804	14.828	1075.739	823.718
18.819	14.519	1074.686	821.317
19.834	14.146	1073.642	818.614
20.848	13.805	1072.924	816.316
21.863	13.626	1072.124	814.755
22.877	13.725	1070.520	813.950
23.892	13.613	1070.275	813.142
24.907	13.488	1069.654	811.986
25.921	13.597	1068.260	811.391
26.936	13.659	1067.072	810.717
27.950	13.659	1065.580	809.512
28.965	13.609	1064.235	808.174
29.980	13.716	1062.832	807.558
30.994	13.789	1061.598	806.904
32.009	13.785	1061.012	806.369
33.023	13.832	1059.429	805.321
34.038	13.720	1058.622	804.095
35.053	13.722	1057.806	803.414
36.067	13.798	1056.385	802.633
37.082	13.714	1056.070	801.914
38.096	13.749	1055.172	801.332
39.111	13.743	1054.031	800.363
40.126	13.607	1052.787	798.693
41.140	13.529	1051.966	797.624
42.155	13.590	1050.486	796.724
43.169	13.633	1049.168	795.863
44.184	13.467	1048.672	794.620
45.199	13.612	1047.148	794.088
46.213	13.536	1046.387	793.075
47.228	13.684	1045.528	793.063
48.242	13.683	1044.213	791.991
49.257	13.710	1043.195	791.278
50.271	13.662	1042.554	790.492
51.286	13.716	1041.482	789.868
52.301	13.660	1040.313	788.645
53.315	13.657	1039.712	788.108
54.330	13.536	1038.804	786.774
55.344	13.608	1037.365	785.954
56.359	13.663	1036.487	785.481
57.374	13.531	1035.710	784.199
58.388	13.412	1035.182	783.163
59.403	13.572	1034.019	782.971
60.417	13.431	1033.314	781.703
61.432	13.475	1032.648	781.335
62.447	13.489	1031.526	780.484
63.461	13.414	1030.830	779.537
64.476	13.379	1030.046	778.712
65.490	13.502	1028.807	778.281
66.505	13.502	1028.353	777.871
67.520	13.443	1028.024	777.276
68.534	13.396	1027.104	776.289
69.549	13.584	1026.046	776.300
70.563	13.529	1025.650	775.675
71.578	13.311	1024.775	773.928
72.593	13.505	1023.778	774.012
73.607	13.380	1023.697	773.297
74.622	13.349	1022.849	772.446
75.636	13.363	1022.206	771.953
76.651	13.373	1021.620	771.494
77.666	13.376	1021.014	770.982
78.680	13.236	1020.229	769.666
79.695	13.474	1019.445	770.113
80.709	13.536	1018.676	769.752
81.724	13.473	1018.028	768.901
82.739	13.611	1017.744	769.261
83.753	13.578	1016.970	768.453
84.768	13.749	1015.695	768.217
85.782	13.725	1015.145	767.619
86.797	13.705	1013.885	766.510
87.812	13.702	1012.998	765.754
88.826	13.542	1012.528	764.593
89.841	13.722	1011.261	764.401
90.855	13.855	1010.017	764.003
91.870	13.829	1009.515	763.437
92.884	13.755	1008.946	762.600
93.899	13.907	1007.638	762.238
94.914	13.911	1007.223	761.877
95.928	13.737	1006.679	760.599
96.943	13.758	1005.508	759.742
97.957	13.831	1004.289	759.089
98.972	13.734	1003.781	758.193
99.987	13.890	1002.376	757.778
101.001	13.904	1001.484	757.103
102.016	13.796	1000.864	756.074
103.030	13.819	1000.483	755.826
104.045	13.752	999.791	754.931
105.060	13.742	998.728	754.015
106.074	13.606	997.691	752.548
107.089	13.637	996.157	751.462
108.103	13.552	995.635	750.617
109.118	13.524	994.788	749.788
110.133	13.577	993.945	749.326
111.147	13.630	993.299	749.013
112.162	13.653	992.024	748.090
113.176	13.721	991.214	747.718
114.191	13.739	990.644	747.300
115.206	13.576	989.889	745.931
116.220	13.625	989.118	745.505
117.235	13.629	987.940	744.568
118.249	13.615	987.191	743.879
119.264	13.550	986.422	742.939
120.279	13.617	985.519	742.493
121.293	13.601	984.749	741.776
122.308	13.594	983.746	740.923
123.322	13.486	983.130	739.910
124.337	13.501	981.783	738.902
125.352	13.516	980.838	738.189
126.366	13.518	979.778	737.338
127.381	13.555	978.540	736.502
128.395	13.515	977.867	735.754
129.410	13.595	976.921	735.332
130.424	13.663	976.007	734.880
131.439	13.709	975.388	734.552
132.454	13.665	974.857	733.894
133.468	13.690	973.968	733.270
134.483	13.692	972.896	732.410
135.497	13.698	971.561	731.364
136.512	13.672	971.025	730.782
137.527	13.715	970.174	730.267
138.541	13.728	969.410	729.683
139.556	13.874	968.566	729.624
140.570	13.824	967.915	728.849
141.585	13.857	967.556	728.661
142.600	13.692	966.798	727.303
143.614	13.814	966.074	727.226
144.629	13.976	965.192	727.207
145.643	13.951	963.844	726.017
146.658	13.802	963.071	724.722
147.673	13.809	962.341	724.137
148.687	13.783	961.226	723.121
149.702	13.690	960.616	722.192
150.716	13.764	959.622	721.705
151.731	13.932	958.539	721.556
152.746	13.876	958.325	721.088
153.760	13.808	957.612	720.194
154.775	13.938	957.131	720.333
155.789	13.874	956.594	719.587
156.804	13.948	955.329	718.891
157.819	14.037	954.525	718.608
158.833	13.988	954.246	718.120
159.848	13.951	953.675	717.469
160.862	14.046	952.441	716.887
161.877	13.953	951.412	715.647
162.892	13.932	950.108	714.513
163.906	13.918	949.108	713.638
164.921	13.878	948.788	713.165
165.935	13.946	947.851	712.689
166.950	14.008	946.409	711.805
167.964	14.082	945.618	711.464
168.979	13.963	945.012	710.437
169.994	13.955	944.329	709.827
171.008	14.106	943.412	709.718
172.023	14.183	942.739	709.478
173.037	14.120	942.261	708.787
174.052	14.071	941.289	707.786
175.067	13.922	941.000	706.873
176.081	14.023	940.317	706.726
177.096	14.037	940.028	706.502
178.110	13.913	939.535	705.546
179.125	14.006	938.416	705.035
180.140	14.022	938.113	704.813
181.154	14.076	937.493	704.514
182.169	14.158	937.164	704.554
183.183	14.388	936.195	704.734
184.198	14.171	935.630	703.331
185.213	14.190	934.936	702.827
186.227	14.314	934.160	702.702
187.242	14.253	933.779	702.099
188.256	14.310	933.023	701.705
189.271	14.317	932.333	701.155
190.286	14.214	931.454	700.000
191.300	13.992	930.964	698.637
192.315	14.075	930.008	698.206
193.329	14.140	929.464	698.007
194.344	14.179	928.605	697.463
195.359	14.284	928.214	697.548
196.373	14.494	927.278	697.664
197.388	14.378	927.089	696.973
198.402	14.460	927.289	697.406
199.417	14.429	926.361	696.515
200.432	14.451	925.895	696.195
201.446	14.615	924.637	695.873
202.461	14.611	924.659	695.811
203.475	14.545	924.087	695.042
204.490	14.523	923.150	694.187
205.504	14.602	922.360	693.860
206.519	14.481	921.484	692.634
207.534	14.540	921.227	692.625
208.548	14.411	920.885	691.772
209.563	14.533	919.732	691.350
210.577	14.635	919.073	691.218
211.592	14.581	918.548	690.538
212.607	14.660	917.803	690.243
213.621	14.603	917.096	689.414
214.636	14.692	916.542	689.303
215.650	14.632	915.822	688.456
216.665	14.765	914.597	688.022
217.680	14.763	914.583	687.939
218.694	14.767	913.626	687.177
219.709	14.671	912.884	686.163
220.723	14.985	911.895	686.648
221.738	14.748	911.634	685.418
222.753	14.748	910.708	684.662
223.767	14.703	910.543	684.293
224.782	14.813	910.099	684.350
225.796	14.812	909.372	683.739
226.811	14.867	908.999	683.621
227.826	14.769	908.505	682.791
228.840	14.847	907.002	681.916
229.855	14.794	906.316	681.123
230.869	14.692	905.867	680.312
231.884	14.898	904.844	680.321
232.899	14.770	903.864	679.006
233.913	14.867	902.959	678.659
234.928	14.794	903.045	678.368
235.942	14.722	902.588	677.673
236.957	14.844	901.978	677.649
237.972	14.811	901.223	676.887
238.986	14.806	900.503	676.268
240.001	14.803	899.925	675.762
241.015	14.973	898.924	675.635
242.030	14.840	898.623	674.813
243.045	14.869	898.333	674.650
244.059	14.944	897.733	674.445
245.074	14.974	896.290	673.421
246.088	14.992	896.419	673.532
247.103	15.109	895.345	673.135
248.117	15.105	895.099	672.873
249.132	15.177	894.564	672.702
250.147	15.336	893.945	672.815
251.161	15.319	892.986	671.964
252.176	15.344	892.566	671.688
253.190	15.331	892.188	671.292
254.205	15.333	891.571	670.777
255.220	15.309	890.959	670.164
256.234	15.488	889.824	669.965
257.249	15.455	889.369	669.432
258.263	15.397	888.531	668.507
259.278	15.482	887.652	668.125
260.293	15.522	887.428	668.059
261.307	15.545	887.116	667.854
262.322	15.548	886.067	667.020
263.336	15.600	885.598	666.811
264.351	15.541	885.009	666.078
265.366	15.502	884.339	665.360
266.380	15.598	883.483	665.035
267.395	15.690	882.713	664.761
268.409	15.627	881.934	663.865
269.424	15.598	881.236	663.169
270.439	15.654	880.598	662.850
271.453	15.532	880.185	662.000
272.468	15.535	880.008	661.820
273.482	15.585	879.054	661.240
274.497	15.545	878.600	660.685
275.512	15.600	878.188	660.533
276.526	15.637	877.179	659.858
277.541	15.675	876.637	659.540
278.555	15.681	876.273	659.234
279.570	15.777	875.513	658.979
280.585	15.717	875.001	658.303
281.599	15.856	873.617	657.744
282.614	15.740	873.380	657.056
283.628	15.657	873.337	656.640
284.643	15.808	872.067	656.217
285.657	15.811	871.244	655.549
286.672	15.744	871.007	655.052
287.687	15.838	870.184	654.743
288.701	15.814	869.325	653.944
289.716	15.846	868.852	653.654
290.730	15.943	868.513	653.720
291.745	15.797	867.884	652.620
292.760	15.931	867.306	652.646
293.774	16.055	866.337	652.341
294.789	15.857	865.916	651.200
295.803	15.849	865.577	650.856
296.818	15.946	864.557	650.408
297.833	15.875	863.887	649.570
298.847	15.878	863.342	649.116
299.862	15.897	862.807	648.729
300.876	15.957	862.443	648.631
301.891	16.055	861.951	648.579
302.906	16.204	861.018	648.391
303.920	16.214	860.591	648.052
304.935	16.178	860.073	647.468
305.949	16.083	859.710	646.770
306.964	16.280	859.050	646.971
307.979	16.196	858.284	646.017
308.993	16.113	857.990	645.422
310.008	16.264	857.363	645.468
311.022	16.336	856.401	644.963
312.037	16.145	855.971	643.854
313.052	16.252	855.426	643.794
314.066	16.115	855.027	642.914
315.081	16.249	854.405	642.902
316.095	16.095	853.440	641.531
317.110	16.269	852.909	641.736
318.125	16.323	852.551	641.617
319.139	16.179	851.660	640.344
320.154	16.188	851.481	640.186
321.168	16.383	851.044	640.539
322.183	16.157	850.403	639.144
323.197	16.407	849.961	639.702
324.212	16.367	849.557	639.189
325.227	16.422	848.610	638.627
326.241	16.323	848.253	637.929
327.256	16.372	847.585	637.556
328.270	16.211	847.119	636.540
329.285	16.312	846.903	636.704
330.300	16.349	845.901	636.033
331.314	16.269	845.579	635.433
332.329	16.263	845.267	635.122
333.343	16.625	844.472	635.828
334.358	16.477	844.345	635.121
335.373	16.454	843.872	634.619
336.387	16.383	843.777	634.228
337.402	16.522	843.349	634.372
338.416	16.496	843.117	634.043
339.431	16.665	842.409	634.085
340.446	16.636	842.489	633.984
341.460	16.691	841.549	633.425
342.475	16.640	841.597	633.214
343.489	16.810	840.680	633.103
344.504	16.665	840.519	632.384
345.519	16.716	840.014	632.138
346.533	16.817	839.307	631.928
347.548	16.730	838.642	631.046
348.562	16.734	838.061	630.570
349.577	16.567	837.830	629.716
350.592	16.655	837.145	629.476
351.606	16.694	836.297	628.925
352.621	16.738	835.583	628.497
353.635	16.883	834.920	628.479
354.650	16.739	834.141	627.303
355.665	16.716	833.580	626.743
356.679	16.897	833.134	627.020
357.694	16.806	832.360	626.048
358.708	16.908	831.932	626.046
359.723	16.931	831.067	625.424
360.738	16.812	830.671	624.633
361.752	16.945	830.220	624.727
362.767	16.921	830.023	624.437
363.781	16.971	829.146	623.904
364.796	17.146	828.700	624.159
365.810	17.108	828.424	623.755
366.825	17.064	828.070	623.272
367.840	17.050	827.520	622.753
368.854	17.206	826.759	622.693
369.869	17.166	826.687	622.440
370.883	17.077	826.186	621.682
371.898	17.155	825.949	621.732
372.913	16.972	826.005	621.051
373.927	17.149	824.821	620.751
374.942	17.293	824.497	620.979
375.956	17.285	824.198	620.668
376.971	17.305	823.673	620.291
377.986	17.311	822.813	619.613
379.000	17.399	822.526	619.663
380.015	17.446	822.107	619.464
381.029	17.224	821.676	618.274
382.044	17.320	821.017	618.073
383.059	17.365	820.103	617.492
384.073	17.391	819.787	617.295
385.088	17.422	819.210	616.918
386.102	17.234	818.865	615.923
387.117	17.221	818.117	615.260
388.132	17.267	817.502	614.909
389.146	17.400	816.698	614.730
390.161	17.453	816.454	614.683
391.175	17.368	816.066	614.031
392.190	17.584	815.374	614.234
393.205	17.285	815.165	612.945
394.219	17.295	815.098	612.876
395.234	17.432	814.593	612.934
396.248	17.305	813.853	611.868
397.263	17.384	813.414	611.767
398.278	17.271	813.233	611.169
399.292	17.338	812.744	610.991
400.307	17.262	812.317	610.340
401.321	17.437	811.394	610.221
402.336	17.450	811.124	610.010
403.350	17.506	810.667	609.815
404.365	17.467	810.557	609.539
405.380	17.402	810.019	608.846
406.394	17.675	809.172	609.133
407.409	17.619	808.857	608.640
408.423	17.815	808.583	609.079
409.438	17.661	808.327	608.285
410.453	17.725	807.689	607.977
411.467	17.904	807.169	608.170
412.482	17.768	807.023	607.523
413.496	17.868	806.598	607.506
414.511	17.921	805.986	607.179
415.526	17.881	805.471	606.594
416.540	17.925	805.127	606.438
417.555	17.777	804.576	605.445
418.569	17.896	804.287	605.596
419.584	18.089	803.699	605.784
420.599	17.991	803.351	605.120
421.613	111.752	1294.958	1477.293
422.628	96.373	1366.535	1477.375
