DTS Sentinel unit serial number:	SN413079Multiplexer serial number:	ORYXHardware model number:	OX4-SRSoftware version number:	ORYX F/W v4.00 Oryx Data Collector v3.7.2.0data status	okinstallation	princeton_trtdifferential loss correction	single-endedforward channel	channel 1reverse channel	N/Adate	2019/09/15time	18:06:35forward acquisition time	60.00reverse acquisition time	0.00gamma	496.2192k internal	0.2290k external	0.2290temperature offset calibration	0.9936default loss term (dB/km)	0.3790temperature slope calibration	1.0000multiplexer offset coefficient	1.0000multiplexer slope coefficient	1.0000fibre end	0.00T internal ref (°C)	44.66T ext. ref 1 (°C)	6.52T ext. ref 2 (°C)	39.06length (m)	temperature (°C)	Stokes	anti-Stokes-747.200	256.099	0.013	0.024
-746.185	39.558	0.041	0.038
-745.171	37.063	0.239	-0.217
-744.156	261.442	-0.019	-0.033
-743.142	-8.005	0.244	0.168
-742.127	-63.281	-0.196	0.083
-741.112	-127.119	0.160	-0.024
-740.098	800.000	-0.125	0.543
-739.083	-150.312	-0.274	-0.022
-738.069	-7.834	0.024	0.017
-737.054	-192.518	0.179	0.002
-736.039	-3.795	-0.046	-0.033
-735.025	675.926	-0.115	0.305
-734.010	95.997	0.119	-0.139
-732.996	-25.659	0.101	0.061
-731.981	293.392	0.116	-0.217
-730.966	154.274	-0.210	-0.296
-729.952	-130.235	-0.212	0.030
-728.937	139.895	-0.141	-0.191
-727.923	-131.588	0.123	-0.017
-726.908	-56.810	0.249	-0.113
-725.894	-102.468	0.071	-0.017
-724.879	-23.807	0.142	0.087
-723.864	800.000	-0.093	0.397
-722.850	-200.000	0.005	0.116
-721.835	-78.202	0.157	-0.055
-720.821	-200.000	-0.025	0.194
-719.806	64.218	-0.235	-0.242
-718.791	13.235	-0.171	0.135
-717.777	-200.000	0.001	0.088
-716.762	-200.000	-0.026	-0.287
-715.748	-200.000	-0.013	0.098
-714.733	-52.403	-0.109	0.051
-713.718	559.114	-0.130	-0.320
-712.704	-200.000	-0.048	-0.347
-711.689	-200.000	0.051	0.398
-710.675	800.000	0.080	-0.237
-709.660	-43.419	0.235	0.122
-708.645	800.000	-0.096	0.305
-707.631	-200.000	0.039	0.194
-706.616	-200.000	0.057	-0.335
-705.602	800.000	0.037	0.122
-704.587	-174.905	0.272	-0.008
-703.572	-200.000	0.000	0.109
-702.558	95.072	0.264	0.307
-701.543	117.806	0.084	-0.106
-700.529	-74.650	0.102	0.038
-699.514	800.000	-0.064	-0.231
-698.499	83.241	-0.156	0.173
-697.485	-110.892	-0.113	-0.024
-696.470	-56.180	-0.189	-0.086
-695.456	759.510	0.050	0.139
-694.441	-134.327	0.196	0.025
-693.426	800.000	-0.092	-0.288
-692.412	242.598	-0.204	-0.350
-691.397	29.243	-0.213	0.184
-690.383	-58.714	0.287	-0.127
-689.368	-200.000	0.018	-0.362
-688.354	-200.000	-0.011	-0.420
-687.339	-80.424	0.010	-0.003
-686.324	513.565	-0.046	-0.111
-685.310	-139.180	-0.392	-0.043
-684.295	93.061	-0.313	-0.362
-683.281	-160.742	-0.167	-0.009
-682.266	172.563	-0.150	-0.221
-681.251	-200.000	0.023	0.206
-680.237	5.515	0.087	-0.066
-679.222	143.269	0.167	-0.227
-678.208	-156.190	0.117	0.008
-677.193	-166.823	0.229	-0.010
-676.178	367.450	0.113	0.234
-675.164	-200.000	0.080	-0.530
-674.149	-126.713	0.091	-0.014
-673.135	-162.014	-0.387	0.020
-672.120	-200.000	-0.016	0.084
-671.105	297.924	0.246	0.461
-670.091	-23.150	-0.423	0.260
-669.076	15.936	0.055	0.044
-668.062	800.000	0.107	0.308
-667.047	-200.000	-0.049	-0.391
-666.032	48.228	-0.237	0.227
-665.018	145.509	-0.049	-0.067
-664.003	365.556	0.078	0.161
-662.989	-130.869	-0.337	-0.046
-661.974	-22.010	-0.235	-0.146
-660.959	275.329	-0.080	0.145
-659.945	-200.000	0.006	0.291
-658.930	-200.000	0.037	-0.349
-657.916	6.864	-0.287	-0.218
-656.901	158.302	0.234	-0.332
-655.886	-100.564	0.127	-0.032
-654.872	-19.390	-0.123	0.078
-653.857	612.949	0.101	-0.257
-652.843	107.944	0.221	-0.269
-651.828	-200.000	-0.018	-0.328
-650.814	3.124	0.212	-0.157
-649.799	-124.979	-0.164	0.026
-648.784	316.517	0.183	0.353
-647.770	353.667	0.098	-0.199
-646.755	-72.557	-0.168	-0.063
-645.741	-39.972	-0.375	0.200
-644.726	-200.000	0.021	-0.312
-643.711	736.741	0.092	-0.251
-642.697	149.064	0.145	-0.200
-641.682	800.000	-0.047	-0.145
-640.668	-22.747	0.227	0.140
-639.653	382.517	-0.116	0.243
-638.638	631.476	-0.039	0.101
-637.624	439.799	0.064	0.144
-636.609	-71.030	-0.092	0.035
-635.595	24.475	-0.243	0.205
-634.580	131.316	0.116	-0.152
-633.565	-82.546	0.091	-0.030
-632.551	505.964	-0.156	0.370
-631.536	-56.792	0.173	-0.078
-630.522	234.440	-0.120	0.202
-629.507	-200.000	0.028	-0.524
-628.492	-156.179	-0.208	-0.013
-627.478	-200.000	0.022	-0.451
-626.463	-110.733	-0.062	-0.013
-625.449	148.341	0.104	0.144
-624.434	-110.730	-0.331	-0.070
-623.419	800.000	-0.044	-0.145
-622.405	-200.000	0.053	-0.281
-621.390	800.000	-0.026	0.108
-620.376	-158.917	-0.122	-0.007
-619.361	-67.036	0.292	-0.118
-618.346	650.698	-0.106	0.276
-617.332	270.060	-0.089	-0.160
-616.317	652.205	-0.100	-0.261
-615.303	74.579	-0.076	0.081
-614.288	-200.000	-0.081	-0.413
-613.273	96.137	0.085	0.099
-612.259	246.923	-0.109	-0.187
-611.244	240.103	0.233	-0.396
-610.230	662.366	-0.115	0.302
-609.215	144.100	-0.286	-0.388
-608.201	-77.620	-0.158	0.056
-607.186	-15.399	-0.092	0.060
-606.171	-200.000	0.029	-0.417
-605.157	-8.407	-0.140	0.096
-604.142	7.330	0.271	-0.206
-603.128	28.584	-0.182	0.157
-602.113	-168.459	-0.049	-0.002
-601.098	-43.173	-0.108	0.056
-600.084	-53.045	-0.158	-0.074
-599.069	-136.433	-0.255	-0.030
-598.055	45.092	-0.073	-0.069
-597.040	40.606	0.272	0.250
-596.025	-87.599	-0.165	0.051
-595.011	-46.328	-0.170	0.085
-593.996	-26.550	-0.182	-0.109
-592.982	179.040	-0.112	0.166
-591.967	-130.202	0.208	-0.029
-590.952	100.926	-0.066	-0.078
-589.938	121.409	-0.098	-0.124
-588.923	135.793	0.157	0.208
-587.909	24.935	0.162	0.136
-586.894	94.606	0.102	-0.118
-585.879	-24.175	0.119	-0.072
-584.865	-165.168	0.087	-0.004
-583.850	-55.348	-0.158	0.072
-582.836	477.433	0.033	-0.077
-581.821	-53.819	0.310	0.144
-580.806	-24.167	0.255	-0.155
-579.792	-32.409	-0.193	0.110
-578.777	670.292	0.060	0.158
-577.763	213.150	0.034	0.054
-576.748	-93.951	0.010	0.003
-575.733	-200.000	0.049	-0.303
-574.719	-8.592	-0.289	-0.197
-573.704	-200.000	-0.030	0.312
-572.690	-95.377	-0.497	0.136
-571.675	800.000	-0.031	0.095
-570.661	-141.930	-0.276	0.028
-569.646	-76.814	0.178	-0.063
-568.631	-155.244	-0.080	0.005
-567.617	-87.707	0.263	-0.081
-566.602	369.684	-0.077	-0.158
-565.588	40.631	0.044	0.040
-564.573	-200.000	0.008	-0.118
-563.558	-126.008	0.183	-0.028
-562.544	528.787	0.051	0.121
-561.529	356.559	-0.042	-0.085
-560.515	145.629	-0.046	-0.063
-559.500	57.812	-0.331	-0.329
-558.485	-140.579	-0.175	-0.018
-557.471	-119.760	0.357	0.063
-556.456	74.970	-0.223	-0.239
-555.442	274.796	0.060	0.108
-554.427	-200.000	0.022	0.111
-553.412	-34.607	-0.229	0.128
-552.398	-0.175	0.048	-0.035
-551.383	-116.533	0.070	-0.013
-550.369	-64.660	0.258	0.106
-549.354	-200.000	-0.001	0.189
-548.339	248.598	-0.106	0.182
-547.325	-56.448	0.058	0.026
-546.310	-63.906	0.116	-0.048
-545.296	-111.010	0.178	-0.037
-544.281	45.951	0.174	0.163
-543.266	-200.000	-0.018	0.345
-542.252	278.133	-0.103	-0.186
-541.237	37.837	-0.253	-0.228
-540.223	26.301	0.077	0.066
-539.208	-170.238	0.372	-0.013
-538.193	-85.808	-0.467	-0.147
-537.179	180.382	-0.158	-0.235
-536.164	292.114	-0.092	0.171
-535.150	168.048	0.101	-0.146
-534.135	800.000	-0.046	-0.204
-533.121	-51.860	0.052	-0.025
-532.106	-75.580	-0.215	0.078
-531.091	151.081	0.036	-0.049
-530.077	-188.173	-0.338	-0.004
-529.062	-115.436	-0.177	0.034
-528.048	-200.000	-0.060	0.271
-527.033	252.913	0.180	0.312
-526.018	-200.000	0.034	0.275
-525.004	117.298	0.151	-0.189
-523.989	-72.469	-0.133	0.050
-522.975	-23.873	0.093	-0.056
-521.960	-200.000	0.011	-0.285
-520.945	-85.065	0.254	-0.081
-519.931	36.473	0.327	-0.293
-518.916	-159.435	-0.338	-0.019
-517.902	-69.815	-0.151	-0.059
-516.887	-62.829	-0.087	0.037
-515.872	112.680	-0.138	0.169
-514.858	256.429	0.046	0.081
-513.843	-165.430	0.379	-0.017
-512.829	-200.000	-0.006	-0.205
-511.814	122.798	-0.077	-0.098
-510.799	-135.122	0.150	0.018
-509.785	800.000	0.062	-0.201
-508.770	278.444	0.097	-0.175
-507.756	-200.000	-0.034	-0.175
-506.741	47.543	-0.358	-0.339
-505.726	420.745	0.047	-0.102
-504.712	-200.000	-0.005	0.027
-503.697	-196.802	0.233	0.002
-502.683	105.263	-0.074	0.089
-501.668	97.505	-0.061	-0.071
-500.653	-133.479	-0.184	-0.023
-499.639	-167.364	-0.151	-0.006
-498.624	21.349	0.099	0.082
-497.610	-24.192	0.245	-0.148
-496.595	609.205	-0.070	-0.176
-495.581	94.299	0.131	-0.151
-494.566	52.143	0.072	-0.069
-493.551	65.190	-0.104	0.106
-492.537	9.907	-0.098	-0.076
-491.522	726.917	-0.096	0.261
-490.508	800.000	0.086	-0.327
-489.493	-100.416	-0.390	0.098
-488.478	-59.273	0.060	0.026
-487.464	39.393	0.291	0.264
-486.449	18.722	-0.139	0.113
-485.435	-200.000	0.053	-0.603
-484.420	563.015	-0.051	0.125
-483.405	-200.000	-0.008	0.224
-482.391	-200.000	-0.003	0.248
-481.376	-200.000	-0.008	0.129
-480.362	-200.000	-0.061	-0.410
-479.347	541.052	0.187	0.452
-478.332	41.630	-0.178	0.163
-477.318	-200.000	-0.033	-0.228
-476.303	800.000	0.083	-0.274
-475.289	-132.394	-0.314	0.041
-474.274	138.993	-0.094	0.125
-473.259	239.904	0.179	-0.301
-472.245	-70.168	0.165	-0.063
-471.230	145.779	0.110	-0.150
-470.216	-121.943	0.268	0.045
-469.201	619.454	-0.092	0.235
-468.186	-200.000	0.033	0.199
-467.172	-42.412	0.175	0.091
-466.157	23.866	-0.100	0.083
-465.143	111.176	0.057	0.069
-464.128	-128.623	-0.061	0.009
-463.113	-6.673	0.100	0.069
-462.099	254.292	-0.090	0.156
-461.084	615.449	0.053	-0.134
-460.070	-200.000	0.051	-0.306
-459.055	-82.115	0.340	-0.112
-458.040	-200.000	0.004	0.183
-457.026	800.000	-0.081	0.254
-456.011	478.986	-0.131	0.301
-454.997	-94.735	0.205	-0.056
-453.982	319.383	-0.107	0.205
-452.968	126.507	-0.223	-0.285
-451.953	-119.636	0.420	-0.073
-450.938	50.159	-0.038	0.037
-449.924	-127.529	0.077	-0.011
-448.909	-56.014	0.258	0.117
-447.895	316.684	0.063	-0.120
-446.880	81.633	-0.130	-0.143
-445.865	213.395	-0.187	0.299
-444.851	38.817	-0.202	0.182
-443.836	-200.000	-0.041	-0.297
-442.822	800.000	0.076	-0.263
-441.807	-200.000	0.011	-0.149
-440.792	-188.570	-0.266	-0.003
-439.778	-60.781	0.186	0.080
-438.763	163.362	-0.048	-0.068
-437.749	-200.000	0.004	0.177
-436.734	800.000	-0.061	0.227
-435.719	153.628	0.130	0.180
-434.705	-59.336	-0.295	0.129
-433.690	-83.326	0.347	-0.113
-432.676	-51.809	-0.115	0.054
-431.661	-200.000	0.046	-0.222
-430.646	-200.000	0.007	0.035
-429.632	353.446	-0.064	-0.128
-428.617	141.848	0.174	0.234
-427.603	-69.381	0.193	-0.075
-426.588	-127.266	-0.173	0.026
-425.573	-200.000	-0.058	-0.309
-424.559	-22.161	-0.397	0.244
-423.544	559.550	0.114	-0.279
-422.530	105.506	0.261	0.312
-421.515	-200.000	0.011	-0.091
-420.500	-200.000	-0.020	0.170
-419.486	425.438	-0.021	-0.046
-418.471	-200.000	0.016	0.198
-417.457	-200.000	0.038	-0.230
-416.442	-74.250	-0.131	-0.048
-415.428	348.714	-0.121	0.241
-414.413	800.000	-0.070	0.234
-413.398	26.595	-0.121	-0.102
-412.384	-42.165	0.328	0.170
-411.369	66.932	0.197	0.202
-410.355	171.761	-0.212	0.307
-409.340	155.696	-0.167	0.232
-408.325	58.506	-0.233	-0.231
-407.311	-91.352	-0.124	-0.036
-406.296	293.650	-0.071	-0.131
-405.282	-63.736	-0.098	0.040
-404.267	33.069	0.139	0.121
-403.252	74.192	-0.141	0.149
-402.238	-200.000	-0.010	0.178
-401.223	800.000	-0.058	0.249
-400.209	42.317	0.134	0.123
-399.194	-140.310	-0.225	0.024
-398.179	-35.090	0.278	-0.153
-397.165	197.133	-0.129	0.199
-396.150	-186.628	0.182	0.003
-395.136	-64.984	0.030	-0.012
-394.121	-44.933	-0.163	0.082
-393.106	409.803	-0.058	0.124
-392.092	-165.347	0.213	-0.009
-391.077	-174.254	-0.080	-0.002
-390.063	-96.805	-0.161	-0.043
-389.048	-180.765	-0.499	0.010
-388.033	-87.041	0.038	0.012
-387.019	666.901	0.103	0.270
-386.004	-46.309	0.154	0.076
-384.990	-23.827	0.152	0.092
-383.975	800.000	-0.040	0.168
-382.960	-200.000	0.032	0.466
-381.946	-200.000	-0.032	-0.254
-380.931	-143.036	0.508	-0.050
-379.917	669.604	0.020	0.051
-378.902	163.048	-0.077	-0.110
-377.888	108.671	-0.108	-0.130
-376.873	146.039	-0.240	-0.325
-375.858	800.000	0.055	-0.164
-374.844	-17.995	0.356	-0.225
-373.829	-200.000	-0.026	0.138
-372.815	800.000	0.147	0.478
-371.800	9.051	0.223	0.170
-370.785	152.245	0.173	-0.239
-369.771	9.588	0.036	-0.028
-368.756	127.933	0.074	-0.095
-367.742	-200.000	0.007	-0.200
-366.727	-104.246	0.338	0.079
-365.712	68.218	-0.109	0.113
-364.698	-111.284	0.073	0.015
-363.683	-200.000	-0.012	0.216
-362.669	313.528	-0.074	0.141
-361.654	-140.024	0.217	0.023
-360.639	-37.223	0.123	0.066
-359.625	-30.276	0.396	0.227
-358.610	-88.003	0.467	0.141
-357.596	-150.147	-0.238	-0.019
-356.581	-200.000	-0.014	-0.227
-355.566	154.736	0.182	0.252
-354.552	175.864	-0.127	0.187
-353.537	646.922	0.088	0.227
-352.523	-127.023	0.232	0.034
-351.508	317.562	0.098	0.187
-350.493	8.711	-0.184	0.140
-349.479	800.000	0.017	0.057
-348.464	-195.077	0.364	-0.003
-347.450	800.000	-0.055	0.171
-346.435	631.921	0.064	0.163
-345.420	20.751	0.037	-0.030
-344.406	-84.863	0.124	-0.039
-343.391	800.000	0.098	0.320
-342.377	-116.131	0.421	-0.079
-341.362	-165.531	-0.228	0.010
-340.348	191.277	-0.122	-0.186
-339.333	-68.335	-0.392	-0.154
-338.318	-16.597	-0.137	-0.087
-337.304	-140.740	0.143	0.015
-336.289	448.058	-0.083	-0.184
-335.275	-119.049	-0.081	-0.014
-334.260	-200.000	0.014	0.283
-333.245	485.873	0.178	-0.409
-332.231	-200.000	0.002	-0.086
-331.216	-155.541	0.015	0.001
-330.202	53.550	-0.397	-0.383
-329.187	800.000	0.059	-0.180
-328.172	-174.458	0.201	0.006
-327.158	15.724	0.087	0.069
-326.143	159.311	-0.125	0.175
-325.129	-62.541	-0.377	-0.158
-324.114	-73.724	-0.254	0.093
-323.099	-200.000	-0.033	-0.175
-322.085	172.479	-0.047	-0.068
-321.070	270.892	-0.160	-0.285
-320.056	800.000	0.012	-0.035
-319.041	800.000	0.037	-0.141
-318.026	800.000	0.036	-0.145
-317.012	-9.759	-0.224	-0.151
-315.997	264.781	-0.111	0.195
-314.983	591.134	-0.036	0.090
-313.968	-107.913	0.293	-0.064
-312.953	-200.000	-0.005	-0.178
-311.939	72.691	-0.044	0.046
-310.924	-97.534	-0.168	0.044
-309.910	122.989	-0.092	0.116
-308.895	-81.424	-0.124	0.041
-307.880	-1.030	0.108	0.077
-306.866	-45.617	0.359	-0.179
-305.851	291.397	-0.130	-0.239
-304.837	800.000	-0.105	-0.360
-303.822	47.718	-0.034	0.032
-302.807	168.890	-0.049	-0.070
-301.793	-36.684	0.157	0.085
-300.778	-104.623	0.314	0.073
-299.764	-116.908	-0.310	0.057
-298.749	800.000	0.030	-0.131
-297.735	-98.910	0.081	-0.021
-296.720	175.531	-0.242	0.353
-295.705	-200.000	0.037	0.167
-294.691	-168.419	-0.167	0.006
-293.676	380.955	0.051	0.106
-292.662	-173.188	0.128	-0.004
-291.647	29.996	0.337	0.289
-290.632	800.000	0.115	0.353
-289.618	-36.641	-0.126	-0.068
-288.603	146.232	-0.137	0.185
-287.589	-128.807	-0.369	-0.052
-286.574	182.083	0.152	0.225
-285.559	-200.000	0.003	-0.049
-284.545	-200.000	0.072	-0.324
-283.530	183.553	-0.075	-0.111
-282.516	-176.221	0.110	0.003
-281.501	-151.180	-0.252	-0.019
-280.486	132.517	-0.122	0.159
-279.472	-65.797	-0.330	-0.133
-278.457	-200.000	-0.004	-0.092
-277.443	-107.166	0.305	-0.068
-276.428	800.000	0.081	-0.287
-275.413	679.792	0.183	0.478
-274.399	234.264	-0.211	0.350
-273.384	61.653	-0.108	-0.108
-272.370	-25.585	0.070	0.042
-271.355	-87.005	0.071	-0.022
-270.340	168.232	0.215	-0.308
-269.326	-162.998	-0.115	-0.006
-268.311	-153.887	-0.455	0.031
-267.297	-28.157	-0.217	-0.126
-266.282	186.149	0.024	0.036
-265.267	291.847	-0.023	-0.042
-264.253	-131.056	-0.304	0.041
-263.238	-58.293	0.242	0.106
-262.224	119.732	0.190	0.236
-261.209	800.000	-0.054	0.201
-260.195	-200.000	-0.009	-0.139
-259.180	-103.514	-0.131	0.031
-258.165	-193.932	0.292	0.002
-257.151	-14.455	0.082	0.053
-256.136	206.447	-0.127	0.199
-255.122	-200.000	0.020	-0.258
-254.107	-200.000	0.019	-0.180
-253.092	800.000	-0.018	-0.064
-252.078	-34.768	0.255	-0.140
-251.063	-121.759	0.064	0.011
-250.049	99.356	-0.116	-0.135
-249.034	531.508	-0.137	0.325
-248.019	5.038	0.218	0.161
-247.005	323.829	0.114	0.218
-245.990	-55.648	-0.091	-0.041
-244.976	-191.801	0.244	0.002
-243.961	496.501	0.090	-0.207
-242.946	-200.000	0.042	0.200
-241.932	-61.870	-0.302	-0.127
-240.917	-199.200	-0.061	0.000
-239.903	-5.084	-0.125	0.087
-238.888	-200.000	-0.008	0.123
-237.873	207.948	0.087	-0.137
-236.859	800.000	-0.071	0.218
-235.844	-200.000	-0.001	-0.074
-234.830	-101.085	0.084	0.021
-233.815	-200.000	-0.003	0.062
-232.800	800.000	-0.033	-0.126
-231.786	-60.579	0.437	-0.186
-230.771	-200.000	0.022	-0.152
-229.757	21.774	0.090	0.074
-228.742	-200.000	0.020	0.093
-227.727	-19.855	0.041	0.026
-226.713	-200.000	0.026	0.118
-225.698	-154.130	0.283	0.019
-224.684	-200.000	-0.116	0.000
-223.669	81.625	0.007	-0.008
-222.655	79.170	0.190	0.204
-221.640	742.673	0.093	0.252
-220.625	160.265	-0.251	0.351
-219.611	800.000	-0.014	-0.040
-218.596	-109.708	-0.295	-0.062
-217.582	800.000	0.070	0.249
-216.567	-200.000	-0.039	0.265
-215.552	-103.551	0.221	0.052
-214.538	-200.000	0.048	-0.224
-213.523	-94.517	-0.094	-0.026
-212.509	-40.276	-0.218	-0.114
-211.494	578.547	-0.088	-0.217
-210.479	-85.630	0.094	0.029
-209.465	126.752	-0.184	-0.233
-208.450	-200.000	0.039	0.217
-207.436	-19.624	-0.262	-0.163
-206.421	-44.317	0.397	0.200
-205.406	45.008	-0.116	0.107
-204.392	681.808	0.090	0.236
-203.377	-37.959	0.111	0.059
-202.363	-32.689	0.256	-0.143
-201.348	-182.319	0.275	0.005
-200.333	48.832	-0.055	0.052
-199.319	-200.000	-0.005	0.134
-198.304	401.110	-0.060	-0.127
-197.290	-21.295	0.319	0.195
-196.275	44.976	0.086	0.080
-195.260	622.963	0.075	-0.189
-194.246	236.630	0.040	-0.066
-193.231	-19.103	0.237	-0.148
-192.217	-182.596	-0.237	0.004
-191.202	54.706	0.075	-0.072
-190.187	800.000	-0.052	-0.206
-189.173	78.136	0.234	-0.250
-188.158	124.212	-0.096	0.120
-187.144	53.690	0.183	-0.176
-186.129	360.204	-0.122	0.245
-185.114	-200.000	0.281	-0.000
-184.100	800.000	-0.043	0.159
-183.085	-200.000	0.013	-0.103
-182.071	-4.217	-0.083	0.057
-181.056	-124.499	0.147	-0.023
-180.042	-165.118	0.126	-0.006
-179.027	-200.000	0.062	0.277
-178.012	-136.571	-0.074	-0.009
-176.998	-30.503	0.261	-0.148
-175.983	-126.280	-0.289	-0.043
-174.969	-27.082	-0.235	0.138
-173.954	-65.911	0.327	-0.131
-172.939	-99.768	-0.314	-0.079
-171.925	-200.000	0.009	-0.112
-170.910	-92.055	0.115	0.032
-169.896	225.104	0.193	-0.312
-168.881	156.694	0.096	0.133
-167.866	-200.000	0.038	-0.265
-166.852	-50.727	0.296	0.140
-165.837	-200.000	-0.042	-0.303
-164.823	-200.000	0.018	-0.222
-163.808	-23.376	-0.387	-0.233
-162.793	-159.697	-0.367	0.020
-161.779	97.172	-0.152	-0.175
-160.764	-57.236	0.053	-0.023
-159.750	26.863	-0.107	-0.090
-158.735	-62.454	0.233	-0.097
-157.720	-200.000	-0.050	-0.263
-156.706	-143.848	-0.560	0.053
-155.691	-200.000	0.004	0.082
-154.677	-91.905	0.177	-0.050
-153.662	-94.208	0.166	-0.046
-152.647	-200.000	0.017	0.245
-151.633	-28.309	-0.102	-0.059
-150.618	78.417	0.119	-0.127
-149.604	-200.000	-0.012	-0.261
-148.589	22.456	-0.122	-0.100
-147.574	-41.921	-0.187	0.096
-146.560	288.103	-0.116	-0.209
-145.545	-72.162	-0.232	0.086
-144.531	-51.764	-0.212	0.099
-143.516	-200.000	0.026	0.158
-142.502	201.931	0.193	0.298
-141.487	318.481	-0.057	-0.108
-140.472	-200.000	0.103	-0.460
-139.458	79.252	0.216	-0.232
-138.443	221.830	0.082	0.132
-137.429	473.835	-0.049	0.111
-136.414	-200.000	-0.029	0.165
-135.399	-200.000	0.021	0.262
-134.385	-200.000	-0.013	0.407
-133.370	800.000	-0.056	0.168
-132.356	-3.959	0.105	-0.073
-131.341	-110.788	-0.328	0.068
-130.326	-109.291	0.168	0.036
-129.312	206.213	-0.028	-0.043
-128.297	27.750	0.205	-0.172
-127.283	-38.546	0.331	0.175
-126.268	-200.000	-0.011	0.069
-125.253	800.000	0.082	0.292
-124.239	100.948	-0.128	0.149
-123.224	235.680	0.186	0.308
-122.210	-200.000	-0.038	-0.382
-121.195	-200.000	0.004	-0.241
-120.180	-125.178	0.240	-0.037
-119.166	-94.358	-0.365	-0.100
-118.151	800.000	0.071	-0.211
-117.137	414.032	0.009	-0.020
-116.122	-63.111	-0.475	0.196
-115.107	56.434	0.197	0.191
-114.093	-110.491	0.281	0.058
-113.078	800.000	0.037	0.147
-112.064	-25.954	0.310	-0.182
-111.049	21.096	0.087	-0.071
-110.034	800.000	-0.048	-0.152
-109.020	-141.464	-0.160	-0.016
-108.005	-200.000	-0.032	-0.272
-106.991	-200.000	-0.068	0.000
-105.976	800.000	-0.102	0.329
-104.962	800.000	0.093	0.324
-103.947	-2.353	0.097	0.068
-102.932	10.539	-0.112	-0.085
-101.918	-19.144	0.094	-0.058
-100.903	124.895	0.274	-0.345
-99.889	-16.664	-0.122	-0.077
-98.874	108.255	0.135	0.161
-97.859	399.208	-0.161	0.337
-96.845	-200.000	-0.051	-0.304
-95.830	150.276	0.073	-0.099
-94.816	-40.145	0.271	0.141
-93.801	-62.854	0.168	-0.069
-92.786	-69.945	-0.199	0.076
-91.772	33.718	-0.285	-0.247
-90.757	-82.680	0.370	-0.120
-89.743	44.282	-0.105	-0.096
-88.728	-200.000	-0.012	-0.161
-87.713	282.509	0.160	-0.287
-86.699	181.735	0.148	0.218
-85.684	49.547	-0.198	-0.186
-84.670	95.639	-0.188	0.214
-83.655	-133.916	-0.080	0.010
-82.640	-200.000	-0.007	-0.075
-81.626	-142.739	0.124	-0.012
-80.611	268.503	-0.024	0.043
-79.597	-151.207	-0.331	-0.025
-78.582	-49.839	0.482	-0.228
-77.567	-133.647	0.139	0.017
-76.553	800.000	0.134	0.487
-75.538	-200.000	0.095	0.000
-74.524	-149.913	0.125	-0.010
-73.509	-107.612	0.428	-0.093
-72.494	145.902	0.190	-0.255
-71.480	-41.673	0.226	-0.116
-70.465	227.059	-0.161	-0.261
-69.451	-51.590	0.323	-0.151
-68.436	-59.386	0.214	-0.092
-67.422	54.303	-0.132	0.127
-66.407	294.014	0.060	0.109
-65.392	-163.528	0.134	0.006
-64.378	-45.866	0.083	0.041
-63.363	-200.000	0.025	-0.128
-62.349	307.299	-0.046	0.086
-61.334	93.003	-0.596	-0.672
-60.319	473.516	-0.091	0.204
-59.305	800.000	0.202	-0.617
-58.290	139.263	0.468	0.614
-57.276	438.760	0.788	1.714
-56.261	-200.000	70.355	526.835
-55.246	600.229	1249.363	3092.393
-54.232	143.845	2490.483	3309.904
-53.217	122.051	2232.444	2778.407
-52.203	57.891	1680.939	1640.073
-51.188	48.969	1396.989	1307.538
-50.173	45.033	1348.749	1238.510
-49.159	62.399	1379.632	1373.305
-48.144	71.406	1399.618	1448.057
-47.130	49.267	1363.077	1277.416
-46.115	44.863	1346.992	1235.672
-45.100	44.613	1342.290	1229.797
-44.086	44.447	1340.345	1226.967
-43.071	44.468	1337.892	1224.800
-42.057	44.396	1335.894	1222.486
-41.042	44.465	1333.980	1221.101
-40.027	44.599	1332.185	1220.212
-39.013	44.570	1330.504	1218.455
-37.998	44.580	1328.406	1216.541
-36.984	44.703	1327.098	1216.029
-35.969	44.693	1325.320	1214.294
-34.954	44.717	1322.972	1212.235
-33.940	44.771	1321.611	1211.261
-32.925	44.668	1320.626	1209.697
-31.911	44.658	1319.156	1208.247
-30.896	44.672	1317.318	1206.596
-29.881	44.863	1315.469	1205.989
-28.867	44.798	1314.292	1204.477
-27.852	44.772	1312.692	1202.807
-26.838	44.787	1311.026	1201.321
-25.823	44.735	1310.121	1200.138
-24.809	44.895	1308.200	1199.270
-23.794	44.770	1307.120	1197.502
-22.779	44.700	1305.807	1195.839
-21.765	44.756	1304.475	1194.900
-20.750	44.770	1303.371	1193.920
-19.736	44.555	1301.816	1191.194
-18.721	44.646	1300.356	1190.340
-17.706	44.567	1299.616	1189.156
-16.692	44.687	1297.960	1188.293
-15.677	44.555	1297.837	1187.364
-14.663	44.644	1296.597	1186.701
-13.648	44.533	1295.542	1185.038
-12.633	44.566	1294.522	1184.255
-11.619	44.588	1293.745	1183.625
-10.604	44.620	1292.815	1182.914
-9.590	44.549	1291.842	1181.561
-8.575	44.492	1290.755	1180.190
-7.560	44.538	1289.788	1179.523
-6.546	44.586	1288.687	1178.749
-5.531	44.556	1287.770	1177.691
-4.517	44.554	1286.915	1176.848
-3.502	44.686	1285.839	1176.585
-2.487	44.676	1284.500	1175.254
-1.473	44.677	1281.341	1172.322
-0.458	43.377	1266.201	1151.022
0.556	36.793	1243.879	1102.404
1.571	31.194	1244.689	1071.008
2.586	28.970	1258.076	1069.519
3.600	27.096	1246.914	1049.124
4.615	21.124	1173.761	954.918
5.629	11.763	1093.910	841.915
6.644	6.982	1069.663	799.073
7.659	6.454	1066.801	794.199
8.673	6.375	1065.521	792.780
9.688	6.261	1063.793	790.853
10.702	6.758	1062.960	792.659
11.717	11.987	1070.689	824.730
12.731	18.697	1079.586	865.455
13.746	19.525	1079.123	869.182
14.761	17.535	1076.118	856.680
15.775	16.192	1073.991	848.165
16.790	15.194	1071.634	841.221
17.804	14.477	1069.627	835.977
18.819	14.118	1068.635	833.330
19.834	13.731	1068.031	830.848
20.848	13.397	1067.229	828.478
21.863	13.296	1065.766	826.760
22.877	13.187	1065.012	825.559
23.892	13.091	1064.925	824.941
24.907	13.118	1063.904	824.212
25.921	13.131	1062.739	823.302
26.936	13.128	1061.702	822.412
27.950	13.204	1060.337	821.659
28.965	13.250	1058.704	820.548
29.980	13.268	1057.358	819.519
30.994	13.268	1056.162	818.523
32.009	13.478	1054.976	818.569
33.023	13.355	1054.063	817.182
34.038	13.266	1053.095	815.916
35.053	13.251	1052.176	815.057
36.067	13.281	1051.044	814.257
37.082	13.213	1050.242	813.232
38.096	13.427	1049.483	813.621
39.111	13.292	1048.614	812.214
40.126	13.201	1047.863	811.116
41.140	13.090	1046.382	809.351
42.155	13.006	1045.417	808.121
43.169	13.041	1044.069	807.181
44.184	13.085	1042.823	806.362
45.199	13.068	1042.026	805.590
46.213	13.205	1040.753	805.200
47.228	13.260	1039.832	804.686
48.242	13.131	1038.655	803.074
49.257	13.062	1037.862	802.057
50.271	13.266	1037.079	802.371
51.286	13.400	1035.978	802.098
52.301	13.228	1034.809	800.292
53.315	13.239	1033.859	799.535
54.330	13.097	1033.054	798.159
55.344	13.187	1031.674	797.454
56.359	13.082	1031.354	796.629
57.374	13.106	1030.410	795.948
58.388	13.084	1029.231	794.857
59.403	13.001	1028.540	793.857
60.417	12.976	1027.810	793.101
61.432	13.122	1026.826	792.974
62.447	13.031	1026.343	792.093
63.461	13.012	1025.402	791.208
64.476	12.938	1024.308	789.937
65.490	12.951	1023.653	789.426
66.505	12.997	1023.045	789.104
67.520	12.984	1022.509	788.563
68.534	13.099	1021.430	788.210
69.549	12.933	1021.015	787.027
70.563	13.003	1020.139	786.616
71.578	12.975	1019.221	785.701
72.593	12.873	1018.524	784.613
73.607	12.974	1017.285	784.067
74.622	12.894	1017.144	783.509
75.636	12.981	1016.320	783.218
76.651	12.904	1016.008	782.542
77.666	12.868	1015.185	781.672
78.680	12.916	1014.550	781.340
79.695	12.904	1014.120	780.883
80.709	13.047	1013.226	780.799
81.724	13.140	1012.782	780.832
82.739	13.164	1011.545	779.919
83.753	13.127	1011.381	779.551
84.768	13.259	1010.226	779.212
85.782	13.363	1009.447	779.034
86.797	13.341	1008.336	778.004
87.812	13.116	1007.749	776.424
88.826	13.214	1006.611	775.937
89.841	13.242	1005.614	775.231
90.855	13.245	1004.652	774.434
91.870	13.491	1003.720	774.800
92.884	13.288	1002.919	773.165
93.899	13.433	1001.881	772.973
94.914	13.389	1001.208	772.179
95.928	13.316	1000.924	771.553
96.943	13.395	999.618	770.847
97.957	13.258	998.674	769.411
98.972	13.430	997.487	769.228
99.987	13.343	996.979	768.366
101.001	13.265	996.333	767.436
102.016	13.279	995.361	766.684
103.030	13.379	994.446	766.374
104.045	13.429	993.886	766.109
105.060	13.339	992.804	764.791
106.074	13.170	991.964	763.295
107.089	13.169	990.747	762.287
108.103	13.008	990.093	760.973
109.118	13.162	988.934	760.726
110.133	13.050	988.277	759.635
111.147	13.183	986.924	759.138
112.162	13.112	986.495	758.417
113.176	13.129	985.764	757.867
114.191	13.299	984.995	757.985
115.206	13.151	984.513	756.872
116.220	13.015	984.062	755.833
117.235	13.217	982.292	755.331
118.249	13.220	981.661	754.791
119.264	13.178	981.410	754.339
120.279	13.194	980.630	753.746
121.293	13.203	979.158	752.592
122.308	13.165	978.438	751.796
123.322	13.154	977.325	750.824
124.337	12.983	976.754	749.543
125.352	13.085	975.768	749.185
126.366	13.064	974.518	748.064
127.381	13.065	973.758	747.417
128.395	13.301	972.345	747.336
129.410	13.314	971.447	746.638
130.424	13.236	970.870	745.777
131.439	13.271	970.399	745.503
132.454	13.438	969.210	745.276
133.468	13.332	968.400	744.112
134.483	13.348	967.680	743.567
135.497	13.213	967.139	742.476
136.512	13.411	965.912	742.359
137.527	13.383	964.928	741.408
138.541	13.344	964.250	740.647
139.556	13.380	963.815	740.411
140.570	13.367	963.528	740.065
141.585	13.472	962.300	739.528
142.600	13.488	961.518	738.931
143.614	13.548	960.640	738.460
144.629	13.529	960.142	737.924
145.643	13.634	958.881	737.357
146.658	13.470	958.026	735.907
147.673	13.326	956.886	734.327
148.687	13.449	956.090	734.197
149.702	13.347	955.373	733.130
150.716	13.276	954.644	732.190
151.731	13.285	953.929	731.616
152.746	13.363	953.103	731.265
153.760	13.420	952.162	730.731
154.775	13.334	951.809	730.013
155.789	13.481	951.104	730.056
156.804	13.554	950.481	729.836
157.819	13.565	949.431	729.015
158.833	13.547	949.041	728.570
159.848	13.579	948.553	728.273
160.862	13.492	947.403	726.941
161.877	13.445	946.350	725.864
162.892	13.326	945.703	724.784
163.906	13.221	944.921	723.657
164.921	13.401	943.943	723.634
165.935	13.441	942.832	722.893
166.950	13.606	941.792	722.751
167.964	13.501	941.065	721.671
168.979	13.477	940.368	720.966
169.994	13.472	939.488	720.208
171.008	13.526	938.946	719.962
172.023	13.518	938.258	719.337
173.037	13.507	937.779	718.859
174.052	13.592	936.854	718.456
175.067	13.426	936.023	717.033
176.081	13.418	935.352	716.423
177.096	13.435	934.829	716.033
178.110	13.537	934.379	716.065
179.125	13.585	933.532	715.559
180.140	13.526	933.293	715.059
181.154	13.583	933.247	715.207
182.169	13.778	932.187	715.171
183.183	13.892	931.745	715.260
184.198	13.739	930.825	713.833
185.213	13.824	930.106	713.582
186.227	13.750	929.382	712.646
187.242	13.812	928.871	712.458
188.256	13.849	928.471	712.246
189.271	13.845	927.350	711.305
190.286	13.780	926.432	710.263
191.300	13.612	925.626	708.860
192.315	13.458	925.386	707.959
193.329	13.527	924.772	707.720
194.344	13.637	924.580	707.980
195.359	13.608	923.546	707.001
196.373	13.695	923.361	707.170
197.388	13.881	922.779	707.452
198.402	13.897	922.272	707.072
199.417	13.981	921.664	706.899
200.432	14.085	920.954	706.733
201.446	14.032	920.643	706.207
202.461	14.045	920.271	705.914
203.475	14.008	919.643	705.213
204.490	13.972	919.001	704.506
205.504	14.047	918.072	704.050
206.519	14.202	916.770	703.642
207.534	13.959	916.413	702.281
208.548	14.023	915.516	701.802
209.563	13.842	915.344	700.844
210.577	14.074	914.676	701.249
211.592	14.198	914.009	701.199
212.607	14.164	913.060	700.266
213.621	14.162	912.527	699.783
214.636	14.236	911.721	699.416
215.650	14.227	911.372	699.049
216.665	14.244	910.270	698.215
217.680	14.176	909.969	697.633
218.694	14.234	909.371	697.358
219.709	14.246	908.448	696.639
220.723	14.260	907.634	696.012
221.738	14.290	906.841	695.465
222.753	14.213	906.152	694.554
223.767	14.352	905.878	694.864
224.782	14.273	905.593	694.255
225.796	14.410	905.085	694.373
226.811	14.442	903.797	693.458
227.826	14.353	903.257	692.613
228.840	14.343	902.804	692.162
229.855	14.381	901.862	691.535
230.869	14.368	901.146	690.872
231.884	14.355	900.368	690.159
232.899	14.242	899.968	689.323
233.913	14.201	898.988	688.345
234.928	14.123	898.802	687.820
235.942	14.317	897.947	687.903
236.957	14.245	897.419	687.142
237.972	14.365	896.692	687.020
238.986	14.319	896.319	686.481
240.001	14.407	895.322	686.022
241.015	14.534	894.346	685.734
242.030	14.495	894.252	685.442
243.045	14.505	893.461	684.817
244.059	14.404	892.989	683.977
245.074	14.552	892.009	683.775
246.088	14.566	891.785	683.599
247.103	14.609	890.871	683.016
248.117	14.613	890.437	682.639
249.132	14.715	890.100	682.736
250.147	14.798	889.088	682.238
251.161	14.819	889.061	682.242
252.176	14.794	888.129	681.367
253.190	14.941	887.798	681.649
254.205	14.946	886.512	680.624
255.220	14.848	886.264	679.971
256.234	14.893	885.497	679.508
257.249	15.014	884.821	679.420
258.263	14.975	884.389	678.870
259.278	14.949	883.464	677.994
260.293	15.009	882.826	677.690
261.307	15.023	882.620	677.526
262.322	15.079	882.227	677.392
263.336	15.100	881.179	676.612
264.351	15.060	880.256	675.682
265.366	15.174	879.369	675.400
266.380	15.047	879.216	674.711
267.395	15.193	878.174	674.439
268.409	15.033	877.734	673.397
269.424	15.162	876.425	672.854
270.439	15.249	875.921	672.755
271.453	15.034	875.490	671.505
272.468	15.093	874.847	671.187
273.482	15.092	874.017	670.487
274.497	15.207	873.807	670.728
275.512	15.071	873.199	669.659
276.526	15.191	872.379	669.446
277.541	15.263	872.240	669.568
278.555	15.166	871.479	668.540
279.570	15.195	870.685	667.987
280.585	15.362	870.228	668.241
281.599	15.377	869.070	667.352
282.614	15.253	868.587	666.432
283.628	15.130	868.224	665.606
284.643	15.280	867.421	665.526
285.657	15.204	867.126	664.940
286.672	15.327	866.543	664.920
287.687	15.381	865.455	664.239
288.701	15.281	865.427	663.763
289.716	15.299	864.868	663.348
290.730	15.335	864.242	662.950
291.745	15.275	863.724	662.256
292.760	15.562	863.081	662.838
293.774	15.505	862.176	661.861
294.789	15.493	861.684	661.379
295.803	15.523	860.571	660.584
296.818	15.550	860.125	660.287
297.833	15.485	859.636	659.599
298.847	15.405	859.120	658.830
299.862	15.637	858.365	659.104
300.876	15.538	858.151	658.492
301.891	15.563	857.457	657.999
302.906	15.653	856.615	657.647
303.920	15.729	856.432	657.746
304.935	15.818	855.445	657.275
305.949	15.640	855.113	656.268
306.964	15.630	854.718	655.868
307.979	15.699	853.770	655.354
308.993	15.628	853.709	654.972
310.008	15.638	852.820	654.269
311.022	15.615	852.144	653.604
312.037	15.869	851.260	653.854
313.052	15.649	851.252	652.938
314.066	15.742	850.421	652.602
315.081	15.526	850.196	651.533
316.095	15.680	849.478	651.521
317.110	15.465	848.862	650.160
318.125	15.765	848.105	650.683
319.139	15.692	847.946	650.222
320.154	15.654	847.106	649.371
321.168	15.706	846.717	649.219
322.183	15.774	846.109	648.958
323.197	15.732	845.855	648.543
324.212	15.766	845.079	648.020
325.227	15.804	844.474	647.645
326.241	15.785	843.972	647.131
327.256	15.785	843.603	646.791
328.270	15.783	842.549	645.916
329.285	15.942	841.938	646.003
330.300	15.881	841.521	645.393
331.314	15.883	841.007	644.946
332.329	15.858	840.658	644.525
333.343	15.793	840.269	643.921
334.358	15.977	839.793	644.205
335.373	15.857	839.777	643.676
336.387	16.013	839.146	643.733
337.402	15.975	838.738	643.216
338.416	16.223	838.223	643.712
339.431	16.194	838.139	643.480
340.446	16.238	837.997	643.482
341.460	16.231	837.342	642.895
342.475	16.158	837.080	642.359
343.489	16.304	836.529	642.434
344.504	16.276	835.794	641.707
345.519	16.181	835.676	641.197
346.533	16.288	835.181	641.170
347.548	16.153	834.541	640.108
348.562	16.207	833.917	639.776
349.577	16.096	833.273	638.806
350.592	16.213	832.788	638.819
351.606	16.105	832.117	637.841
352.621	16.205	831.358	637.580
353.635	16.105	830.860	636.763
354.650	16.251	830.146	636.713
355.665	16.304	829.182	636.115
356.679	16.294	828.563	635.547
357.694	16.250	828.408	635.207
358.708	16.383	827.586	635.019
359.723	16.387	827.048	634.566
360.738	16.368	826.652	634.135
361.752	16.504	825.802	633.938
362.767	16.512	825.341	633.557
363.781	16.418	824.721	632.672
364.796	16.499	824.643	632.858
365.810	16.593	824.123	632.756
366.825	16.619	823.712	632.482
367.840	16.503	823.591	631.898
368.854	16.607	822.573	631.452
369.869	16.621	822.321	631.252
370.883	16.490	821.883	630.373
371.898	16.616	821.481	630.478
372.913	16.736	821.142	630.608
373.927	16.726	820.572	630.077
374.942	16.789	820.289	630.039
375.956	16.958	819.164	629.747
376.971	16.889	819.226	629.483
377.986	16.663	819.009	628.422
379.000	16.680	818.560	628.086
380.015	16.862	817.977	628.255
381.029	16.971	817.171	627.984
382.044	16.918	816.467	627.194
383.059	16.998	815.890	626.991
384.073	16.954	815.449	626.431
385.088	16.759	815.004	625.314
386.102	16.828	814.160	624.866
387.117	16.733	813.524	623.973
388.132	16.781	813.139	623.798
389.146	16.800	812.827	623.575
390.161	16.881	812.546	623.601
391.175	16.910	811.972	623.212
392.190	16.956	811.274	622.792
393.205	16.850	810.839	622.012
394.219	16.890	810.413	621.778
395.234	16.813	810.349	621.391
396.248	16.714	809.780	620.536
397.263	16.822	809.310	620.519
398.278	16.936	808.841	620.520
399.292	16.861	808.308	619.782
400.307	16.891	807.889	619.518
401.321	16.888	807.101	618.848
402.336	16.925	806.811	618.705
403.350	16.971	806.571	618.633
404.365	16.907	806.380	618.197
405.380	17.137	805.639	618.413
406.394	17.078	805.494	618.033
407.409	17.138	805.037	617.845
408.423	17.271	804.529	617.885
409.438	17.247	804.212	617.498
410.453	17.375	803.607	617.446
411.467	17.234	803.272	616.622
412.482	17.360	802.965	616.787
413.496	17.333	802.685	616.422
414.511	17.376	802.288	616.217
415.526	17.353	801.906	615.786
416.540	17.298	801.294	615.063
417.555	17.303	800.787	614.638
418.569	17.234	800.598	614.189
419.584	17.389	799.739	614.035
420.599	17.545	799.116	614.064
421.613	75.706	1235.434	1261.774
422.628	63.860	1299.042	1261.920
