DTS Sentinel unit serial number:	SN413079Multiplexer serial number:	ORYXHardware model number:	OX4-SRSoftware version number:	ORYX F/W v4.00 Oryx Data Collector v3.7.2.0data status	okinstallation	princeton_trtdifferential loss correction	single-endedforward channel	channel 1reverse channel	N/Adate	2019/09/19time	07:22:35forward acquisition time	60.00reverse acquisition time	0.00gamma	496.2192k internal	0.2342k external	0.2342temperature offset calibration	1.0016default loss term (dB/km)	0.3790temperature slope calibration	1.0000multiplexer offset coefficient	1.0000multiplexer slope coefficient	1.0000fibre end	0.00T internal ref (°C)	19.14T ext. ref 1 (°C)	0.56T ext. ref 2 (°C)	13.65length (m)	temperature (°C)	Stokes	anti-Stokes-747.200	90.723	-0.064	-0.072
-746.185	-164.964	-0.649	0.029
-745.171	26.504	-0.266	0.223
-744.156	604.630	-0.098	-0.244
-743.142	-43.882	-0.127	-0.064
-742.127	-109.188	-0.211	0.045
-741.112	-200.000	0.013	0.104
-740.098	53.174	-0.060	0.057
-739.083	-200.000	-0.015	0.099
-738.069	-100.979	-0.277	0.068
-737.054	-6.711	0.076	-0.051
-736.039	123.220	-0.361	-0.453
-735.025	57.977	0.198	-0.194
-734.010	2.605	-0.106	-0.077
-732.996	-147.398	-0.217	0.018
-731.981	-108.339	0.149	0.032
-730.966	132.533	0.088	0.114
-729.952	-126.069	-0.193	0.029
-728.937	41.057	-0.252	0.228
-727.923	-71.460	-0.084	-0.032
-726.908	-200.000	-0.003	-0.143
-725.894	-142.956	-0.123	-0.012
-724.879	25.667	-0.094	0.079
-723.864	-1.454	0.265	0.187
-722.850	193.962	0.086	0.130
-721.835	68.388	-0.195	0.200
-720.821	125.854	0.188	0.238
-719.806	-55.744	-0.191	0.085
-718.791	-200.000	0.024	0.134
-717.777	-79.840	0.195	-0.066
-716.762	-162.003	-0.320	-0.016
-715.748	238.098	-0.066	-0.109
-714.733	-200.000	-0.008	-0.158
-713.718	62.530	0.229	-0.229
-712.704	800.000	0.089	-0.341
-711.689	-171.447	-0.131	0.004
-710.675	89.830	-0.099	0.111
-709.660	788.512	-0.036	-0.099
-708.645	86.869	0.280	-0.309
-707.631	25.549	-0.332	-0.276
-706.616	620.895	0.043	0.109
-705.602	460.582	-0.086	0.192
-704.587	93.954	-0.161	0.182
-703.572	-99.009	-0.202	0.051
-702.558	-97.127	0.190	-0.050
-701.543	275.443	-0.088	-0.157
-700.529	-200.000	-0.052	0.448
-699.514	-96.028	0.430	-0.114
-698.499	800.000	0.028	-0.114
-697.485	74.627	0.026	0.027
-696.470	53.833	-0.483	0.464
-695.456	124.134	0.053	0.067
-694.441	28.550	-0.159	0.134
-693.426	-118.591	0.204	0.036
-692.412	-128.264	0.226	0.032
-691.397	-200.000	0.041	0.305
-690.383	-105.134	-0.187	0.043
-689.368	-47.550	-0.329	-0.160
-688.354	-200.000	-0.001	-0.262
-687.339	-200.000	-0.006	0.086
-686.324	58.118	0.143	-0.140
-685.310	288.017	0.108	-0.196
-684.295	800.000	-0.018	-0.066
-683.281	220.888	-0.151	-0.243
-682.266	119.232	0.139	-0.172
-681.251	88.753	-0.099	-0.110
-680.237	43.907	-0.239	-0.218
-679.222	291.157	0.269	-0.489
-678.208	173.927	0.128	0.185
-677.193	-32.467	0.210	-0.117
-676.178	591.652	-0.145	-0.357
-675.164	-60.447	0.271	0.115
-674.149	-146.231	-0.261	0.023
-673.135	190.367	-0.078	0.116
-672.120	66.392	0.098	-0.099
-671.105	64.938	0.350	0.353
-670.091	44.062	0.220	0.201
-669.076	333.326	0.141	-0.273
-668.062	9.427	0.079	-0.059
-667.047	-169.580	-0.252	-0.009
-666.032	-179.678	0.260	-0.006
-665.018	-69.144	-0.251	0.096
-664.003	-96.149	-0.235	0.062
-662.989	54.741	-0.198	-0.191
-661.974	29.201	-0.280	-0.237
-660.959	-143.450	-0.045	-0.004
-659.945	-200.000	-0.003	-0.025
-658.930	-71.780	-0.310	-0.115
-657.916	-50.265	-0.330	-0.156
-656.901	-200.000	0.029	0.318
-655.886	7.461	0.154	-0.115
-654.872	-62.982	-0.038	0.016
-653.857	-200.000	0.006	0.225
-652.843	-56.561	-0.241	0.107
-651.828	-45.000	-0.217	-0.108
-650.814	41.863	-0.244	-0.221
-649.799	160.361	-0.159	0.222
-648.784	-152.304	0.041	-0.003
-647.770	115.667	-0.129	0.157
-646.755	77.403	-0.316	-0.335
-645.741	18.735	0.029	0.023
-644.726	636.280	-0.246	-0.624
-643.711	29.217	0.034	0.029
-642.697	101.228	-0.123	-0.143
-641.682	-68.144	-0.097	-0.038
-640.668	-41.221	-0.151	-0.078
-639.653	-200.000	0.000	0.037
-638.638	7.078	-0.131	-0.098
-637.624	-54.092	-0.192	0.087
-636.609	76.883	-0.148	0.156
-635.595	74.809	0.185	0.194
-634.580	7.240	0.130	-0.097
-633.565	800.000	-0.042	0.135
-632.551	-42.757	-0.038	-0.019
-631.536	63.737	-0.076	-0.076
-630.522	62.080	0.148	-0.147
-629.507	71.004	-0.285	-0.295
-628.492	118.165	0.267	0.329
-627.478	-200.000	0.003	0.204
-626.463	19.850	0.059	-0.047
-625.449	-77.869	0.285	0.098
-624.434	32.236	0.222	0.191
-623.419	-131.785	-0.031	0.004
-622.405	103.530	0.085	-0.100
-621.390	-16.903	0.227	-0.143
-620.376	103.302	0.113	-0.132
-619.361	-48.298	-0.079	0.038
-618.346	-88.645	-0.289	0.086
-617.332	-9.430	-0.090	0.060
-616.317	-128.240	-0.307	-0.044
-615.303	-128.401	-0.310	-0.044
-614.288	800.000	-0.066	0.237
-613.273	-131.067	-0.405	0.054
-612.259	299.766	-0.156	-0.286
-611.244	482.817	0.187	-0.423
-610.230	-200.000	0.021	0.156
-609.215	-200.000	0.002	0.273
-608.201	-38.306	-0.077	0.041
-607.186	-200.000	-0.008	0.253
-606.171	264.661	0.120	0.208
-605.157	-114.377	-0.184	0.035
-604.142	49.308	0.255	-0.239
-603.128	-105.514	-0.418	0.094
-602.113	-2.755	0.165	0.115
-601.098	-200.000	-0.015	-0.114
-600.084	491.754	-0.019	-0.044
-599.069	386.967	-0.190	-0.390
-598.055	-40.507	0.114	-0.059
-597.040	800.000	0.120	0.378
-596.025	-100.231	0.044	0.011
-595.011	-171.041	0.106	0.004
-593.996	-139.142	-0.366	0.039
-592.982	-75.959	0.385	0.136
-591.967	184.647	-0.180	-0.266
-590.952	-200.000	0.029	-0.130
-589.938	300.562	-0.060	0.111
-588.923	243.108	0.161	0.269
-587.909	2.345	0.197	0.142
-586.894	-129.346	-0.246	0.034
-585.879	800.000	-0.058	-0.243
-584.865	-200.000	-0.055	-0.320
-583.850	800.000	-0.164	0.557
-582.836	-57.417	0.487	-0.213
-581.821	-158.057	0.154	-0.009
-580.806	714.128	0.084	0.223
-579.792	744.879	-0.060	-0.160
-578.777	-200.000	0.014	0.465
-577.763	-88.044	0.295	-0.088
-576.748	-11.254	0.119	0.078
-575.733	-100.473	-0.131	-0.032
-574.719	206.310	-0.130	0.201
-573.704	-200.000	-0.007	0.273
-572.690	82.318	-0.159	0.172
-571.675	144.588	-0.183	-0.243
-570.661	37.917	-0.084	-0.074
-569.646	800.000	-0.007	-0.023
-568.631	-30.929	-0.051	0.029
-567.617	-85.103	-0.135	-0.042
-566.602	-36.593	-0.254	-0.136
-565.588	-55.830	0.098	-0.044
-564.573	389.957	0.163	0.336
-563.558	-200.000	0.038	0.253
-562.544	-151.282	0.200	-0.015
-561.529	419.348	0.116	-0.247
-560.515	133.793	0.065	-0.084
-559.500	-6.134	0.103	0.070
-558.485	800.000	0.168	0.473
-557.471	-62.879	-0.244	-0.100
-556.456	61.312	0.078	-0.077
-555.442	-104.046	-0.349	-0.081
-554.427	46.068	-0.069	-0.064
-553.412	-200.000	-0.018	0.177
-552.398	-57.431	-0.322	-0.141
-551.383	-200.000	0.066	-0.512
-550.369	-15.476	-0.347	-0.220
-549.354	-56.495	-0.353	-0.156
-548.339	-200.000	-0.007	-0.112
-547.325	263.482	0.098	0.170
-546.310	12.468	-0.157	-0.120
-545.296	-105.784	0.223	-0.050
-544.281	-55.514	0.200	-0.089
-543.266	-31.599	0.119	-0.066
-542.252	-9.325	0.220	-0.146
-541.237	-7.498	0.286	0.192
-540.223	-124.668	0.152	-0.023
-539.208	-169.792	0.048	-0.002
-538.193	-45.447	-0.413	0.203
-537.179	204.954	-0.215	0.331
-536.164	86.881	0.111	-0.122
-535.150	-41.457	0.213	0.109
-534.135	171.403	0.133	-0.190
-533.121	-18.904	0.073	0.045
-532.106	129.333	0.041	0.052
-531.091	41.253	-0.246	-0.221
-530.077	-20.683	-0.245	0.149
-529.062	363.694	-0.183	0.366
-528.048	-134.859	0.298	-0.036
-527.033	-29.944	0.222	-0.125
-526.018	144.630	0.171	-0.227
-525.004	-200.000	-0.012	-0.150
-523.989	-200.000	0.003	-0.071
-522.975	800.000	-0.058	0.195
-521.960	300.195	0.078	-0.144
-520.945	49.804	0.321	-0.301
-519.931	-89.203	0.132	-0.039
-518.916	800.000	0.044	-0.173
-517.902	-101.308	-0.439	-0.106
-516.887	85.455	0.054	0.059
-515.872	58.976	0.146	-0.142
-514.858	87.739	-0.152	-0.167
-513.843	148.552	-0.083	-0.111
-512.829	-82.659	0.222	0.071
-511.814	-140.088	-0.150	0.016
-510.799	31.631	0.223	0.191
-509.785	-21.463	-0.185	-0.112
-508.770	570.783	-0.065	0.157
-507.756	-110.355	0.203	-0.042
-506.741	-200.000	-0.000	-0.197
-505.726	709.889	0.131	0.343
-504.712	-200.000	-0.056	0.476
-503.697	-21.953	-0.140	-0.084
-502.683	-200.000	-0.049	0.673
-501.668	466.467	0.099	-0.219
-500.653	-101.317	0.146	0.035
-499.639	-73.981	0.342	-0.123
-498.624	-164.126	-0.202	0.009
-497.610	-60.783	0.297	-0.125
-496.595	-200.000	-0.038	-0.250
-495.581	-200.000	0.002	-0.163
-494.566	228.961	0.128	-0.207
-493.551	144.211	0.134	-0.178
-492.537	6.783	0.208	0.153
-491.522	366.858	0.084	-0.168
-490.508	-200.000	-0.021	0.107
-489.493	21.197	0.174	-0.140
-488.478	-33.766	0.215	-0.117
-487.464	747.969	-0.064	0.171
-486.449	-29.694	0.185	0.105
-485.435	-90.274	-0.196	-0.057
-484.420	-90.424	0.052	-0.015
-483.405	-151.691	0.380	0.028
-482.391	-200.000	0.013	0.481
-481.376	5.498	-0.209	-0.153
-480.362	800.000	0.070	0.255
-479.347	-105.770	-0.339	0.076
-478.332	145.714	-0.070	0.093
-477.318	-119.916	-0.180	-0.031
-476.303	713.155	-0.052	-0.137
-475.289	-200.000	0.031	-0.193
-474.274	87.085	-0.252	0.276
-473.259	249.806	0.065	0.110
-472.245	444.449	0.176	0.382
-471.230	-200.000	0.019	-0.322
-470.216	-68.808	-0.361	-0.138
-469.201	64.135	-0.109	-0.108
-468.186	-64.601	0.343	-0.138
-467.172	-200.000	0.014	0.282
-466.157	-200.000	-0.023	-0.104
-465.143	517.043	-0.090	-0.209
-464.128	-157.191	0.135	-0.008
-463.113	-11.688	-0.017	0.011
-462.099	-200.000	-0.074	-0.431
-461.084	41.456	0.151	-0.135
-460.070	-200.000	-0.028	0.227
-459.055	-93.850	-0.175	0.048
-458.040	-200.000	-0.002	0.132
-457.026	17.440	-0.104	0.082
-456.011	54.575	-0.221	0.211
-454.997	-77.556	0.436	-0.150
-453.982	-200.000	0.001	-0.254
-452.968	-200.000	-0.038	0.314
-451.953	-47.317	-0.121	0.058
-450.938	386.442	0.112	-0.229
-449.924	88.133	0.288	0.316
-448.909	-122.407	0.134	-0.022
-447.895	-103.773	0.136	0.032
-446.880	147.056	0.181	-0.241
-445.865	-200.000	-0.054	-0.517
-444.851	666.050	0.078	-0.200
-443.836	-200.000	-0.054	-0.328
-442.822	161.815	-0.077	0.106
-441.807	-200.000	-0.054	0.240
-440.792	-148.468	-0.429	0.035
-439.778	-26.275	0.154	0.090
-438.763	157.848	-0.149	0.205
-437.749	115.791	-0.268	0.325
-436.734	550.927	-0.150	0.357
-435.719	105.300	0.155	0.181
-434.705	87.022	0.186	0.204
-433.690	34.581	0.140	0.121
-432.676	-67.668	-0.159	-0.061
-431.661	-149.379	-0.390	-0.031
-430.646	-46.735	0.268	-0.130
-429.632	630.478	-0.127	-0.318
-428.617	84.499	0.081	0.088
-427.603	-126.353	0.185	0.027
-426.588	-170.664	0.105	0.004
-425.573	-77.903	0.240	-0.082
-424.559	6.303	0.262	0.193
-423.544	-50.336	-0.172	-0.080
-422.530	-59.678	-0.120	-0.051
-421.515	258.406	0.040	-0.067
-420.500	-69.840	-0.127	-0.048
-419.486	-139.580	0.102	0.011
-418.471	23.640	0.223	-0.182
-417.457	640.438	-0.068	-0.171
-416.442	587.127	-0.030	-0.074
-415.428	18.415	-0.236	0.186
-414.413	-200.000	0.015	-0.118
-413.398	-115.642	0.248	0.046
-412.384	800.000	0.147	-0.610
-411.369	-107.981	0.244	-0.052
-410.355	-55.763	-0.347	-0.153
-409.340	596.506	-0.029	0.070
-408.325	-200.000	0.016	-0.352
-407.311	82.991	0.101	-0.109
-406.296	-21.220	-0.164	-0.099
-405.282	-197.696	0.263	-0.002
-404.267	-14.556	-0.057	0.036
-403.252	800.000	0.033	0.131
-402.238	-80.479	0.033	-0.011
-401.223	-200.000	-0.004	0.191
-400.209	-155.049	0.461	0.030
-399.194	-200.000	0.047	-0.320
-398.179	-120.053	-0.239	-0.041
-397.165	535.192	0.060	0.140
-396.150	-108.324	-0.040	0.008
-395.136	105.812	0.107	-0.125
-394.121	-200.000	0.040	0.302
-393.106	-25.567	0.101	-0.059
-392.092	-200.000	0.003	0.100
-391.077	-102.390	0.056	0.013
-390.063	-149.720	0.133	-0.010
-389.048	-70.752	0.125	-0.047
-388.033	-111.833	0.279	-0.056
-387.019	-39.717	0.173	0.089
-386.004	33.639	-0.101	-0.087
-384.990	-28.700	0.404	0.230
-383.975	231.589	0.141	0.228
-382.960	184.502	-0.175	0.256
-381.946	-51.538	0.428	-0.197
-380.931	-101.323	-0.101	0.024
-379.917	255.848	0.063	0.107
-378.902	-27.161	-0.475	-0.274
-377.888	-17.885	0.090	0.056
-376.873	-200.000	0.028	0.253
-375.858	78.092	0.103	0.109
-374.844	-5.947	-0.225	-0.152
-373.829	800.000	0.032	-0.132
-372.815	-72.052	0.118	-0.043
-371.800	179.286	-0.042	-0.060
-370.785	359.791	-0.111	-0.219
-369.771	-200.000	0.000	-0.292
-368.756	356.720	0.141	0.277
-367.742	10.577	-0.152	-0.114
-366.727	-200.000	0.027	-0.306
-365.712	34.127	-0.198	-0.170
-364.698	-200.000	0.015	-0.259
-363.683	-3.353	0.249	-0.171
-362.669	-60.036	0.126	-0.053
-361.654	193.119	0.157	0.235
-360.639	-200.000	-0.018	0.255
-359.625	4.653	-0.203	0.147
-358.610	34.044	-0.193	0.166
-357.596	-126.578	-0.248	0.036
-356.581	-200.000	-0.022	-0.128
-355.566	-72.882	0.238	-0.086
-354.552	90.381	-0.037	-0.041
-353.537	-35.910	-0.161	0.086
-352.523	391.001	0.056	0.114
-351.508	-133.968	0.406	0.050
-350.493	40.606	-0.144	-0.128
-349.479	-200.000	-0.028	0.194
-348.464	-10.970	0.243	-0.158
-347.450	18.544	0.147	-0.116
-346.435	-66.991	0.158	-0.062
-345.420	800.000	0.050	0.172
-344.406	-18.327	-0.298	-0.183
-343.391	40.341	-0.045	-0.040
-342.377	12.274	0.279	-0.212
-341.362	335.341	0.148	-0.282
-340.348	-3.974	0.385	-0.263
-339.333	800.000	-0.044	-0.174
-338.318	800.000	0.056	0.203
-337.304	174.424	-0.044	0.063
-336.289	-124.799	-0.174	0.026
-335.275	-23.968	-0.057	0.034
-334.260	345.166	-0.069	-0.133
-333.245	800.000	-0.010	0.043
-332.231	38.082	0.157	-0.138
-331.216	-115.610	0.238	0.044
-330.202	-99.528	0.117	0.029
-329.187	-105.037	0.264	-0.060
-328.172	-141.513	0.052	-0.005
-327.158	25.625	0.131	0.108
-326.143	-200.000	-0.037	-0.234
-325.129	-188.674	-0.136	0.002
-324.114	-200.000	0.027	-0.214
-323.099	-3.765	0.227	0.155
-322.085	15.700	0.173	0.134
-321.070	83.103	0.212	-0.227
-320.056	189.198	0.182	-0.269
-319.041	-145.783	0.029	-0.003
-318.026	42.211	-0.269	0.241
-317.012	-44.326	0.050	-0.024
-315.997	97.716	0.190	0.215
-314.983	-42.314	0.110	0.055
-313.968	-9.734	0.309	0.203
-312.953	-137.923	-0.259	0.029
-311.939	131.421	-0.090	-0.114
-310.924	664.859	0.062	0.157
-309.910	-200.000	-0.076	0.367
-308.895	-170.278	-0.483	-0.017
-307.880	185.516	-0.160	-0.234
-306.866	-200.000	0.043	0.206
-305.851	-54.828	-0.060	0.027
-304.837	134.194	0.207	0.264
-303.822	-34.711	0.173	-0.093
-302.807	44.507	0.181	-0.163
-301.793	-180.680	-0.300	-0.006
-300.778	92.765	0.202	-0.225
-299.764	250.869	-0.086	-0.144
-298.749	21.729	0.143	0.114
-297.735	800.000	0.054	-0.173
-296.720	800.000	0.053	0.148
-295.705	-200.000	0.054	-0.431
-294.691	-200.000	0.100	-0.445
-293.676	-135.056	-0.164	-0.019
-292.662	169.799	0.141	-0.198
-291.647	52.549	0.228	-0.214
-290.632	385.843	-0.247	-0.502
-289.618	-38.169	-0.463	0.241
-288.603	800.000	0.053	0.160
-287.589	-200.000	-0.008	-0.280
-286.574	156.362	-0.113	0.153
-285.559	800.000	0.044	0.180
-284.545	51.431	0.211	-0.197
-283.530	800.000	-0.032	-0.106
-282.516	-28.363	-0.272	0.155
-281.501	-84.119	0.563	0.176
-280.486	169.908	-0.209	0.294
-279.472	677.828	-0.071	0.181
-278.457	-74.541	-0.294	-0.104
-277.443	487.632	0.035	0.079
-276.428	-200.000	0.002	0.050
-275.413	-181.526	-0.429	0.008
-274.399	-101.461	-0.366	0.088
-273.384	-89.682	0.163	-0.047
-272.370	179.969	0.203	-0.292
-271.355	-137.430	-0.221	-0.025
-270.340	-64.319	-0.150	-0.060
-269.326	-63.298	-0.025	0.010
-268.311	-141.002	-0.251	0.025
-267.297	149.020	-0.083	0.111
-266.282	-200.000	-0.040	0.453
-265.267	800.000	-0.049	0.137
-264.253	-145.799	-0.416	0.036
-263.238	199.190	-0.145	0.219
-262.224	49.526	-0.058	-0.054
-261.209	-122.693	0.320	0.051
-260.195	135.029	0.027	0.034
-259.180	7.037	-0.410	-0.300
-258.165	598.612	-0.090	0.220
-257.151	-1.087	0.153	-0.106
-256.136	286.622	-0.095	0.169
-255.122	267.073	0.099	0.170
-254.107	-200.000	-0.037	-0.197
-253.092	167.145	-0.388	0.542
-252.078	0.017	-0.414	0.290
-251.063	1.933	0.255	-0.181
-250.049	28.172	-0.112	0.093
-249.034	-1.205	0.157	0.109
-248.019	203.734	-0.223	-0.339
-247.005	-200.000	0.029	-0.213
-245.990	-197.008	0.214	0.001
-244.976	-200.000	0.019	0.089
-243.961	383.897	-0.119	-0.241
-242.946	2.277	0.073	0.052
-241.932	-200.000	0.010	-0.076
-240.917	-108.249	-0.290	0.062
-239.903	-105.567	-0.108	0.024
-238.888	-154.844	-0.250	0.016
-237.873	-58.789	0.143	0.061
-236.859	-19.860	-0.388	-0.235
-235.844	37.474	0.113	-0.098
-234.830	126.569	-0.035	0.044
-233.815	-200.000	0.021	-0.119
-232.800	800.000	0.011	0.042
-231.786	-188.285	-0.106	-0.001
-230.771	2.154	-0.236	0.168
-229.757	-32.427	0.197	0.108
-228.742	-200.000	-0.004	0.257
-227.727	-133.579	-0.279	0.034
-226.713	-163.504	0.410	-0.019
-225.698	-61.934	-0.105	0.043
-224.684	504.649	-0.184	-0.418
-223.669	476.562	-0.224	0.496
-222.655	-128.400	-0.357	-0.050
-221.640	88.786	-0.148	0.161
-220.625	800.000	0.079	0.251
-219.611	496.017	-0.171	-0.386
-218.596	800.000	-0.010	-0.027
-217.582	175.646	0.123	0.175
-216.567	-200.000	-0.079	0.339
-215.552	-127.059	0.269	-0.039
-214.538	-200.000	-0.016	-0.144
-213.523	-103.333	-0.234	0.054
-212.509	-90.326	0.252	-0.072
-211.494	-165.758	0.355	0.015
-210.479	8.133	0.195	0.144
-209.465	-21.693	-0.170	0.102
-208.450	83.132	0.266	0.284
-207.436	-200.000	0.022	0.340
-206.421	172.586	-0.098	0.138
-205.406	-37.696	-0.196	-0.102
-204.392	-200.000	-0.004	0.055
-203.377	111.420	-0.037	-0.043
-202.363	261.501	-0.106	-0.181
-201.348	77.733	-0.054	0.056
-200.333	13.154	-0.024	0.018
-199.319	-200.000	0.010	0.174
-198.304	-16.892	0.209	-0.129
-197.290	-64.523	0.054	0.021
-196.275	40.849	-0.090	-0.080
-195.260	-173.385	0.349	-0.010
-194.246	-200.000	-0.012	-0.169
-193.231	-200.000	0.030	0.267
-192.217	235.587	-0.097	-0.157
-191.202	-53.280	0.268	-0.121
-190.187	-55.795	0.204	0.089
-189.173	80.077	0.303	0.320
-188.158	-200.000	-0.019	-0.122
-187.144	-200.000	-0.006	-0.106
-186.129	98.060	-0.165	-0.186
-185.114	-200.000	0.023	0.230
-184.100	55.355	-0.251	-0.238
-183.085	-80.348	0.295	-0.097
-182.071	-200.000	0.007	-0.209
-181.056	-28.561	0.084	-0.047
-180.042	77.740	-0.016	0.016
-179.027	200.030	-0.326	0.490
-178.012	762.406	-0.066	0.174
-176.998	64.598	0.172	-0.170
-175.983	-150.234	0.216	0.016
-174.969	617.592	-0.150	-0.369
-173.954	800.000	0.015	-0.058
-172.939	-25.328	0.242	0.140
-171.925	139.686	0.153	-0.198
-170.910	-169.536	-0.362	0.013
-169.896	-177.085	-0.034	-0.001
-168.881	800.000	-0.083	0.270
-167.866	755.207	-0.051	0.136
-166.852	-139.794	0.243	0.025
-165.837	800.000	-0.016	0.060
-164.823	800.000	-0.087	-0.275
-163.808	18.029	-0.156	0.122
-162.793	-200.000	-0.016	-0.214
-161.779	800.000	-0.006	0.023
-160.764	-19.095	-0.143	-0.087
-159.750	2.636	0.122	0.086
-158.735	135.332	0.229	0.291
-157.720	-200.000	-0.005	0.248
-156.706	228.189	0.187	0.298
-155.691	-200.000	0.014	0.146
-154.677	-93.476	-0.463	-0.125
-153.662	-113.930	-0.355	-0.068
-152.647	87.206	-0.196	0.212
-151.633	-137.537	-0.115	-0.013
-150.618	456.248	-0.183	0.397
-149.604	-200.000	0.004	0.146
-148.589	-152.959	0.251	-0.017
-147.574	-28.238	-0.229	-0.130
-146.560	-200.000	0.027	-0.146
-145.545	-6.303	-0.217	0.145
-144.531	800.000	0.026	0.072
-143.516	-40.623	-0.240	0.122
-142.502	-92.754	0.075	-0.021
-141.487	543.888	-0.123	-0.287
-140.472	67.436	-0.178	0.177
-139.458	-157.872	-0.191	0.011
-138.443	-20.364	-0.060	0.036
-137.429	-13.224	0.124	-0.078
-136.414	566.065	-0.017	0.041
-135.399	-19.579	-0.060	-0.036
-134.385	451.960	-0.101	-0.218
-133.370	165.009	-0.174	-0.241
-132.356	83.191	0.067	0.071
-131.341	-200.000	-0.014	0.224
-130.326	-171.700	0.282	0.009
-129.312	-95.980	-0.464	-0.121
-128.297	91.727	0.080	-0.088
-127.283	157.000	-0.138	-0.187
-126.268	95.237	-0.094	-0.104
-125.253	800.000	-0.056	-0.179
-124.239	-200.000	-0.036	-0.166
-123.224	-169.260	0.192	-0.007
-122.210	-5.827	-0.161	0.108
-121.195	-80.359	0.220	-0.072
-120.180	800.000	-0.055	-0.187
-119.166	800.000	0.066	-0.219
-118.151	295.886	-0.087	-0.155
-117.137	53.298	-0.139	0.130
-116.122	-81.221	0.343	0.111
-115.107	757.928	0.051	-0.136
-114.093	38.217	0.215	0.187
-113.078	-164.152	0.279	-0.013
-112.064	639.581	-0.066	0.165
-111.049	800.000	0.024	0.076
-110.034	57.859	-0.273	0.261
-109.020	390.645	0.032	0.064
-108.005	-105.426	0.359	-0.080
-106.991	-115.172	0.219	-0.040
-105.976	-105.776	0.381	0.084
-104.962	-200.000	-0.019	-0.366
-103.947	800.000	-0.045	0.154
-102.932	-200.000	0.025	-0.248
-101.918	-42.824	-0.290	-0.144
-100.903	-61.884	-0.072	-0.029
-99.889	15.889	0.343	0.264
-98.874	9.668	0.103	-0.076
-97.859	109.142	-0.109	-0.128
-96.845	69.701	0.125	-0.126
-95.830	437.690	-0.098	0.209
-94.816	11.897	0.249	0.187
-93.801	377.034	0.188	0.374
-92.786	800.000	-0.022	0.077
-91.772	207.415	0.156	0.238
-90.757	-117.967	0.246	-0.043
-89.743	-84.145	0.448	-0.139
-88.728	393.206	-0.032	0.066
-87.713	305.936	-0.294	-0.534
-86.699	184.951	0.107	0.155
-85.684	237.294	-0.092	-0.148
-84.670	19.487	0.100	0.078
-83.655	-200.000	-0.004	0.282
-82.640	-83.223	0.217	-0.068
-81.626	97.713	0.214	-0.240
-80.611	-200.000	-0.044	-0.420
-79.597	417.107	0.044	-0.092
-78.582	528.655	-0.083	-0.191
-77.567	-200.000	0.012	-0.088
-76.553	63.583	0.091	-0.089
-75.538	317.794	0.024	0.044
-74.524	-15.736	0.183	-0.114
-73.509	-200.000	0.013	0.478
-72.494	800.000	-0.096	0.271
-71.480	-57.026	0.147	0.063
-70.465	457.593	0.040	0.086
-69.451	-29.738	0.326	0.181
-68.436	-130.063	-0.403	-0.054
-67.422	-17.414	0.182	0.112
-66.407	-22.980	-0.076	-0.045
-65.392	139.342	-0.245	0.315
-64.378	800.000	-0.089	0.365
-63.363	-200.000	0.018	0.141
-62.349	-182.720	0.238	0.004
-61.334	124.563	-1.186	-1.455
-60.319	20.074	0.823	0.648
-59.305	352.344	-0.932	-1.801
-58.290	366.017	0.881	1.731
-57.276	489.150	0.577	1.286
-56.261	-200.000	135.714	618.298
-55.246	335.910	1643.475	3108.635
-54.232	136.107	2781.725	3534.749
-53.217	81.392	2160.151	2276.395
-52.203	29.776	1593.000	1322.485
-51.188	22.169	1345.221	1070.600
-50.173	20.187	1310.915	1031.476
-49.159	46.508	1385.731	1253.254
-48.144	42.140	1394.550	1234.347
-47.130	22.214	1342.310	1068.387
-46.115	19.365	1323.392	1036.190
-45.100	19.103	1318.046	1030.398
-44.086	19.121	1315.657	1028.595
-43.071	19.056	1313.584	1026.548
-42.057	18.853	1312.216	1024.226
-41.042	18.903	1310.073	1022.811
-40.027	19.062	1308.536	1022.517
-39.013	18.874	1307.175	1020.296
-37.998	19.095	1304.721	1019.648
-36.984	19.176	1302.668	1018.486
-35.969	19.162	1301.206	1017.217
-34.954	19.075	1299.934	1015.669
-33.940	19.237	1298.188	1015.220
-32.925	19.092	1297.315	1013.644
-31.911	19.124	1295.722	1012.546
-30.896	19.276	1293.830	1011.922
-29.881	19.344	1292.562	1011.289
-28.867	19.330	1290.777	1009.768
-27.852	19.199	1289.859	1008.242
-26.838	19.244	1288.414	1007.339
-25.823	19.191	1287.197	1006.038
-24.809	19.328	1285.712	1005.631
-23.794	19.282	1284.147	1004.103
-22.779	19.231	1283.165	1002.997
-21.765	19.242	1282.133	1002.214
-20.750	19.060	1281.122	1000.328
-19.736	19.146	1279.586	999.589
-18.721	19.123	1278.015	998.188
-17.706	19.219	1276.520	997.536
-16.692	19.103	1276.193	996.568
-15.677	19.229	1274.455	995.900
-14.663	19.107	1273.609	994.495
-13.648	19.062	1272.465	993.302
-12.633	19.093	1271.601	992.765
-11.619	19.030	1271.162	992.020
-10.604	19.110	1270.011	991.547
-9.590	19.092	1268.805	990.460
-8.575	18.999	1268.330	989.514
-7.560	19.015	1267.265	988.739
-6.546	19.043	1266.186	988.014
-5.531	19.062	1265.406	987.480
-4.517	19.113	1264.535	987.051
-3.502	19.169	1263.439	986.475
-2.487	19.129	1262.705	985.639
-1.473	19.127	1258.540	982.336
-0.458	17.591	1243.217	961.673
0.556	13.327	1228.339	926.223
1.571	10.095	1237.392	914.706
2.586	9.696	1252.735	923.684
3.600	9.894	1240.120	915.422
4.615	7.504	1168.638	849.798
5.629	2.774	1100.185	776.070
6.644	0.745	1084.937	755.115
7.659	0.410	1083.708	752.522
8.673	0.477	1082.556	751.992
9.688	0.609	1081.471	751.826
10.702	0.702	1078.447	750.119
11.717	3.462	1081.237	765.713
12.731	9.479	1089.296	801.381
13.746	15.035	1096.502	834.383
14.761	17.067	1098.921	846.291
15.775	16.557	1097.276	842.411
16.790	15.421	1095.410	835.249
17.804	14.852	1093.659	831.015
18.819	14.460	1092.614	828.201
19.834	14.420	1091.501	827.084
20.848	13.978	1091.047	824.475
21.863	13.882	1089.853	823.022
22.877	13.548	1089.361	820.924
23.892	13.569	1088.279	820.139
24.907	13.648	1087.391	819.789
25.921	13.613	1086.942	819.205
26.936	13.615	1085.986	818.421
27.950	13.741	1085.120	818.318
28.965	13.666	1083.961	817.003
29.980	13.916	1082.387	816.973
30.994	13.786	1081.627	815.690
32.009	13.796	1080.870	815.093
33.023	13.874	1079.385	814.286
34.038	13.713	1078.915	813.069
35.053	13.802	1077.303	812.217
36.067	13.794	1076.488	811.491
37.082	13.705	1076.473	810.975
38.096	13.763	1075.453	810.420
39.111	13.718	1074.792	809.629
40.126	13.772	1073.158	808.588
41.140	13.574	1072.389	806.972
42.155	13.550	1070.912	805.673
43.169	13.627	1069.998	805.290
44.184	13.549	1068.892	804.009
45.199	13.657	1067.849	803.677
46.213	13.634	1066.742	802.660
47.228	13.640	1065.720	801.850
48.242	13.580	1064.489	800.561
49.257	13.650	1063.574	800.139
50.271	13.725	1062.544	799.654
51.286	13.686	1061.916	798.925
52.301	13.751	1060.633	798.204
53.315	13.628	1059.700	796.839
54.330	13.487	1059.021	795.579
55.344	13.676	1057.594	795.341
56.359	13.564	1057.270	794.492
57.374	13.592	1056.220	793.768
58.388	13.684	1055.094	793.291
59.403	13.618	1054.190	792.228
60.417	13.590	1053.546	791.536
61.432	13.486	1052.879	790.472
62.447	13.512	1051.808	789.719
63.461	13.481	1051.467	789.245
64.476	13.505	1050.160	788.310
65.490	13.492	1049.387	787.601
66.505	13.466	1048.997	787.111
67.520	13.594	1048.196	787.051
68.534	13.682	1047.018	786.513
69.549	13.491	1046.444	785.107
70.563	13.492	1045.778	784.543
71.578	13.475	1044.590	783.503
72.593	13.357	1044.375	782.712
73.607	13.501	1043.016	782.305
74.622	13.407	1042.575	781.461
75.636	13.524	1041.963	781.486
76.651	13.489	1041.602	780.978
77.666	13.438	1040.716	780.008
78.680	13.556	1039.746	779.765
79.695	13.551	1039.049	779.150
80.709	13.500	1038.344	778.312
81.724	13.535	1037.808	778.006
82.739	13.669	1036.846	777.847
83.753	13.701	1036.470	777.644
84.768	13.684	1035.323	776.634
85.782	13.639	1034.666	775.864
86.797	13.688	1033.485	775.140
87.812	13.683	1032.134	774.036
88.826	13.707	1031.540	773.632
89.841	13.690	1030.374	772.610
90.855	13.769	1029.607	772.336
91.870	13.633	1028.811	771.034
92.884	13.705	1027.827	770.563
93.899	13.782	1027.289	770.452
94.914	13.805	1026.220	769.688
95.928	13.713	1025.588	768.719
96.943	13.597	1025.252	767.860
97.957	13.789	1023.637	767.473
98.972	13.741	1022.943	766.662
99.987	13.797	1021.868	766.048
101.001	13.709	1020.893	764.843
102.016	13.743	1019.821	764.130
103.030	13.783	1019.132	763.731
104.045	13.711	1018.714	763.019
105.060	13.778	1017.934	762.671
106.074	13.531	1016.826	760.643
107.089	13.641	1015.688	760.225
108.103	13.624	1014.906	759.496
109.118	13.698	1014.016	759.104
110.133	13.644	1012.950	757.991
111.147	13.687	1012.282	757.622
112.162	13.659	1011.695	756.984
113.176	13.720	1010.662	756.424
114.191	13.754	1009.957	755.986
115.206	13.753	1008.891	755.116
116.220	13.654	1008.453	754.268
117.235	13.760	1006.923	753.542
118.249	13.784	1006.334	753.140
119.264	13.587	1006.235	752.105
120.279	13.626	1004.895	751.215
121.293	13.699	1004.236	750.988
122.308	13.758	1003.124	750.356
123.322	13.710	1002.041	749.261
124.337	13.581	1000.940	747.792
125.352	13.593	1000.086	747.139
126.366	13.633	998.814	746.307
127.381	13.667	998.246	745.966
128.395	13.602	997.176	744.809
129.410	13.655	996.062	744.151
130.424	13.569	995.264	743.104
131.439	13.672	994.225	742.721
132.454	13.625	993.962	742.248
133.468	13.813	992.481	741.920
134.483	13.675	992.047	740.913
135.497	13.752	990.872	740.313
136.512	13.761	990.230	739.806
137.527	13.720	989.426	738.959
138.541	13.771	988.396	738.349
139.556	13.643	988.194	737.564
140.570	13.825	987.124	737.511
141.585	13.890	985.988	736.883
142.600	13.974	985.521	736.842
143.614	13.939	984.431	735.809
144.629	14.114	983.518	735.833
145.643	13.907	982.722	734.256
146.658	13.822	982.111	733.363
147.673	13.966	980.743	732.909
148.687	13.874	980.364	732.156
149.702	13.854	979.208	731.139
150.716	13.696	978.863	730.124
151.731	13.773	978.299	729.978
152.746	13.859	977.435	729.644
153.760	13.899	976.386	728.973
154.775	14.079	975.753	729.225
155.789	14.102	975.110	728.780
156.804	13.959	974.491	727.626
157.819	14.034	973.713	727.309
158.833	13.895	973.589	726.544
159.848	14.035	972.223	726.071
160.862	14.034	971.518	725.480
161.877	14.173	970.076	724.944
162.892	13.945	969.511	723.464
163.906	14.046	968.181	722.847
164.921	13.968	968.230	722.481
165.935	14.081	966.617	721.703
166.950	14.244	965.684	721.650
167.964	14.019	965.492	720.465
168.979	14.156	964.085	719.944
169.994	14.072	963.347	718.966
171.008	14.128	962.519	718.529
172.023	14.156	961.727	717.996
173.037	14.247	961.254	717.969
174.052	14.159	960.837	717.214
175.067	14.068	959.702	715.915
176.081	14.052	959.302	715.481
177.096	14.053	959.114	715.285
178.110	14.326	957.697	715.335
179.125	14.207	957.357	714.510
180.140	14.237	956.855	714.197
181.154	14.207	956.796	713.962
182.169	14.136	956.108	713.081
183.183	14.373	955.061	713.251
184.198	14.264	954.147	712.041
185.213	14.355	953.224	711.677
186.227	14.469	952.412	711.493
187.242	14.356	951.843	710.524
188.256	14.324	951.516	710.084
189.271	14.374	950.750	709.658
190.286	14.223	949.934	708.347
191.300	14.276	949.267	708.013
192.315	14.131	949.098	707.206
193.329	14.262	948.405	707.181
194.344	14.211	948.004	706.607
195.359	14.365	946.445	706.034
196.373	14.398	946.150	705.890
197.388	14.219	946.208	705.113
198.402	14.497	945.117	705.413
199.417	14.484	944.644	704.943
200.432	14.413	944.294	704.321
201.446	14.636	943.398	704.530
202.461	14.704	942.770	704.287
203.475	14.582	942.646	703.616
204.490	14.499	941.670	702.478
205.504	14.488	940.889	701.785
206.519	14.619	939.679	701.370
207.534	14.656	939.369	701.235
208.548	14.633	938.528	700.447
209.563	14.709	938.168	700.433
210.577	14.607	937.380	699.358
211.592	14.760	936.492	699.272
212.607	14.753	935.404	698.370
213.621	14.699	935.288	697.996
214.636	14.728	934.394	697.390
215.650	14.677	934.277	697.027
216.665	14.693	933.356	696.343
217.680	14.853	932.204	696.090
218.694	14.807	931.640	695.417
219.709	14.777	930.935	694.703
220.723	14.745	930.410	694.116
221.738	14.859	929.097	693.547
222.753	14.866	928.387	692.987
223.767	14.933	928.597	693.359
224.782	14.945	927.784	692.740
225.796	14.987	926.767	692.095
226.811	14.962	926.352	691.618
227.826	14.962	925.762	691.118
228.840	14.947	924.995	690.423
229.855	14.937	924.165	689.701
230.869	14.924	923.109	688.798
231.884	14.859	922.673	688.141
232.899	15.019	921.873	688.142
233.913	15.019	920.909	687.362
234.928	14.861	920.999	686.720
235.942	14.944	920.333	686.504
236.957	15.064	919.449	686.275
237.972	15.062	918.700	685.649
238.986	14.900	918.270	684.603
240.001	14.838	917.781	683.925
241.015	15.093	916.993	684.319
242.030	15.127	916.337	683.907
243.045	15.134	915.541	683.283
244.059	15.023	915.027	682.386
245.074	15.008	914.345	681.757
246.088	15.187	913.761	681.989
247.103	15.260	912.727	681.452
248.117	15.315	912.355	681.337
249.132	15.296	911.815	680.797
250.147	15.239	911.403	680.197
251.161	15.375	910.764	680.214
252.176	15.400	909.871	679.585
253.190	15.385	909.059	678.860
254.205	15.313	908.862	678.363
255.220	15.403	907.686	677.789
256.234	15.409	907.575	677.667
257.249	15.375	906.894	676.963
258.263	15.423	905.976	676.412
259.278	15.541	904.482	675.711
260.293	15.544	904.368	675.578
261.307	15.678	903.745	675.593
262.322	15.590	903.532	675.020
263.336	15.622	902.291	674.161
264.351	15.611	901.623	673.558
265.366	15.499	901.473	672.935
266.380	15.794	900.571	673.383
267.395	15.649	899.800	672.169
268.409	15.686	898.910	671.591
269.424	15.635	898.382	670.933
270.439	15.620	897.711	670.314
271.453	15.698	896.673	669.790
272.468	15.679	896.615	669.612
273.482	15.647	896.056	669.007
274.497	15.543	895.463	668.091
275.512	15.669	894.857	668.082
276.526	15.776	894.317	668.044
277.541	15.700	893.972	667.428
278.555	15.829	892.674	666.908
279.570	15.791	892.161	666.316
280.585	16.027	891.069	666.375
281.599	15.994	890.555	665.803
282.614	15.900	889.861	664.853
283.628	15.807	889.442	664.113
284.643	15.845	888.864	663.775
285.657	15.913	888.235	663.513
286.672	15.874	887.578	662.811
287.687	15.978	887.327	662.973
288.701	15.920	886.279	661.905
289.716	16.169	885.735	662.417
290.730	16.014	885.023	661.218
291.745	15.884	884.925	660.577
292.760	16.027	884.107	660.468
293.774	16.233	883.214	660.547
294.789	16.219	882.325	659.769
295.803	16.099	881.604	658.704
296.818	16.137	881.241	658.523
297.833	16.093	880.802	657.964
298.847	16.089	880.038	657.321
299.862	16.111	879.101	656.649
300.876	16.246	878.612	656.748
301.891	16.069	878.356	655.811
302.906	16.121	877.473	655.297
303.920	16.241	876.983	655.340
304.935	16.390	876.194	655.269
305.949	16.252	875.518	654.171
306.964	16.285	875.278	654.061
307.979	16.345	874.346	653.537
308.993	16.282	874.156	653.097
310.008	16.413	873.661	653.173
311.022	16.318	872.609	651.965
312.037	16.300	872.087	651.447
313.052	16.396	871.638	651.422
314.066	16.306	871.104	650.619
315.081	16.376	870.719	650.545
316.095	16.242	869.849	649.322
317.110	16.405	869.119	649.345
318.125	16.343	868.902	648.887
319.139	16.336	868.796	648.722
320.154	16.404	867.897	648.255
321.168	16.412	867.749	648.117
322.183	16.476	866.694	647.519
323.197	16.426	866.283	646.963
324.212	16.463	865.530	646.486
325.227	16.383	865.185	645.862
326.241	16.652	864.345	646.207
327.256	16.534	863.772	645.272
328.270	16.471	863.165	644.521
329.285	16.475	862.928	644.303
330.300	16.604	861.856	643.935
331.314	16.457	861.640	643.158
332.329	16.614	861.043	643.254
333.343	16.556	860.923	642.886
334.358	16.727	860.032	642.813
335.373	16.520	859.908	641.879
336.387	16.685	859.279	641.975
337.402	16.579	859.228	641.479
338.416	16.692	858.989	641.672
339.431	16.580	858.762	641.021
340.446	16.713	858.080	640.958
341.460	16.758	857.566	640.687
342.475	16.682	857.241	640.100
343.489	16.800	856.791	640.156
344.504	16.879	855.807	639.661
345.519	16.971	855.682	639.860
346.533	16.876	854.956	638.902
347.548	16.745	854.524	638.029
348.562	16.923	854.014	638.260
349.577	16.828	853.393	637.382
350.592	16.876	852.603	636.917
351.606	16.795	852.457	636.446
352.621	16.856	851.480	635.890
353.635	16.899	850.839	635.515
354.650	16.910	850.360	635.143
355.665	16.909	849.651	634.555
356.679	16.982	848.976	634.266
357.694	16.964	848.331	633.662
358.708	17.200	847.547	633.901
359.723	16.996	847.389	632.965
360.738	16.935	846.394	631.938
361.752	17.075	845.950	632.071
362.767	17.106	845.470	631.774
363.781	17.102	844.834	631.228
364.796	17.072	844.299	630.661
365.810	17.115	843.938	630.493
366.825	17.105	843.453	630.040
367.840	17.236	843.042	630.164
368.854	17.205	843.193	630.103
369.869	17.252	841.760	629.152
370.883	17.258	841.631	629.023
371.898	17.430	841.542	629.536
372.913	17.344	841.088	628.823
373.927	17.405	840.139	628.282
374.942	17.335	840.010	627.872
375.956	17.285	839.586	627.314
376.971	17.355	838.927	627.026
377.986	17.542	838.536	627.368
379.000	17.471	837.907	626.580
380.015	17.389	837.359	625.813
381.029	17.458	837.105	625.823
382.044	17.383	836.554	625.081
383.059	17.549	835.688	624.986
384.073	17.546	834.995	624.403
385.088	17.491	834.711	623.932
386.102	17.500	834.209	623.536
387.117	17.477	833.464	622.839
388.132	17.478	833.054	622.481
389.146	17.703	832.277	622.667
390.161	17.507	832.283	621.900
391.175	17.711	831.658	622.123
392.190	17.639	830.986	621.302
393.205	17.646	830.763	621.105
394.219	17.510	830.304	620.214
395.234	17.589	829.851	620.106
396.248	17.544	829.208	619.408
397.263	17.629	828.819	619.371
398.278	17.705	828.125	619.074
399.292	17.667	828.085	618.850
400.307	17.509	827.790	618.003
401.321	17.606	827.117	617.795
402.336	17.606	826.231	617.081
403.350	17.629	826.380	617.219
404.365	17.660	825.568	616.673
405.380	17.803	824.964	616.683
406.394	17.836	824.504	616.404
407.409	17.835	824.116	616.057
408.423	17.977	823.970	616.403
409.438	17.986	823.739	616.211
410.453	17.882	823.534	615.627
411.467	17.931	822.516	614.988
412.482	17.921	822.217	614.675
413.496	18.041	821.565	614.563
414.511	18.131	821.304	614.638
415.526	18.018	820.800	613.800
416.540	18.040	820.287	613.439
417.555	17.962	820.376	613.174
418.569	18.036	819.895	613.025
419.584	18.080	819.110	612.542
420.599	18.239	818.638	612.702
421.613	115.401	1302.269	1491.974
422.628	100.053	1372.675	1492.040
