DTS Sentinel unit serial number:	SN413079Multiplexer serial number:	ORYXHardware model number:	OX4-SRSoftware version number:	ORYX F/W v4.00 Oryx Data Collector v3.7.2.0data status	okinstallation	princeton_trtdifferential loss correction	single-endedforward channel	channel 1reverse channel	N/Adate	2019/09/12time	02:16:11forward acquisition time	60.00reverse acquisition time	0.00gamma	496.2192k internal	0.2321k external	0.2321temperature offset calibration	1.0078default loss term (dB/km)	0.3790temperature slope calibration	1.0000multiplexer offset coefficient	1.0000multiplexer slope coefficient	1.0000fibre end	0.00T internal ref (°C)	32.62T ext. ref 1 (°C)	2.07T ext. ref 2 (°C)	26.33length (m)	temperature (°C)	Stokes	anti-Stokes-747.200	800.000	0.010	0.038
-746.185	-200.000	0.023	0.218
-745.171	-127.520	-0.349	-0.051
-744.156	-200.000	0.009	0.111
-743.142	135.260	-0.328	0.430
-742.127	800.000	-0.164	0.510
-741.112	403.757	-0.113	-0.241
-740.098	-26.412	-0.119	0.071
-739.083	-110.291	0.374	-0.079
-738.069	228.722	0.124	0.205
-737.054	-200.000	-0.031	-0.244
-736.039	-25.792	0.207	0.123
-735.025	58.588	0.198	0.196
-734.010	-134.065	-0.236	-0.030
-732.996	-200.000	0.038	-0.219
-731.981	-81.453	-0.261	-0.087
-730.966	83.001	-0.074	-0.082
-729.952	242.229	0.166	-0.280
-728.937	50.686	0.195	0.187
-727.923	182.206	-0.062	-0.093
-726.908	-200.000	0.012	-0.285
-725.894	22.869	0.191	-0.158
-724.879	148.121	0.150	0.205
-723.864	10.490	-0.132	-0.101
-722.850	-106.936	-0.357	0.080
-721.835	-24.042	0.437	-0.264
-720.821	5.910	0.148	0.111
-719.806	-129.452	-0.042	-0.006
-718.791	82.738	-0.283	-0.311
-717.777	-72.149	-0.236	-0.088
-716.762	-200.000	-0.002	0.073
-715.748	-130.657	-0.228	0.031
-714.733	175.446	0.064	-0.094
-713.718	-170.900	-0.059	-0.002
-712.704	-69.388	-0.222	-0.086
-711.689	423.188	0.016	-0.034
-710.675	-108.126	-0.056	-0.012
-709.660	-88.406	-0.154	-0.046
-708.645	413.232	0.044	0.095
-707.631	-1.327	-0.166	0.119
-706.616	-57.924	-0.073	0.032
-705.602	800.000	0.114	-0.404
-704.587	-73.629	-0.265	-0.098
-703.572	800.000	-0.022	0.083
-702.558	-75.794	0.210	-0.075
-701.543	-79.100	-0.351	-0.120
-700.529	-200.000	0.023	0.108
-699.514	-200.000	-0.021	0.172
-698.499	25.011	-0.066	-0.055
-697.485	91.310	-0.148	0.168
-696.470	-9.811	-0.109	0.074
-695.456	-186.336	-0.314	-0.005
-694.441	202.212	-0.088	-0.137
-693.426	-4.773	0.271	-0.189
-692.412	38.598	-0.185	0.167
-691.397	57.249	0.118	0.116
-690.383	-68.448	-0.327	0.128
-689.368	-77.626	-0.109	-0.038
-688.354	302.203	-0.101	-0.189
-687.339	-113.018	-0.329	0.065
-686.324	-200.000	0.000	-0.093
-685.310	297.913	-0.091	-0.169
-684.295	800.000	0.091	-0.321
-683.281	-43.575	-0.423	-0.215
-682.266	800.000	-0.067	0.223
-681.251	-58.809	0.190	0.083
-680.237	-200.000	-0.034	-0.368
-679.222	-125.245	0.109	-0.017
-678.208	63.275	-0.175	-0.177
-677.193	-131.960	-0.342	-0.045
-676.178	27.251	0.085	-0.072
-675.164	35.293	-0.158	-0.140
-674.149	-152.400	0.059	-0.004
-673.135	85.540	-0.096	-0.106
-672.120	309.759	-0.075	0.142
-671.105	-10.292	-0.065	-0.043
-670.091	143.806	-0.156	0.209
-669.076	-52.008	-0.142	-0.067
-668.062	-71.944	-0.245	-0.092
-667.047	536.501	0.150	-0.360
-666.032	-109.567	-0.170	-0.036
-665.018	317.170	-0.162	0.309
-664.003	296.256	0.127	0.235
-662.989	-98.667	-0.240	-0.062
-661.974	35.294	-0.124	-0.110
-660.959	-200.000	0.083	-0.437
-659.945	-101.868	0.246	-0.060
-658.930	-167.193	0.072	-0.003
-657.916	-200.000	-0.037	-0.337
-656.901	5.581	-0.257	0.191
-655.886	-200.000	0.057	-0.363
-654.872	286.288	0.214	-0.389
-653.857	-85.540	0.298	-0.094
-652.843	107.627	-0.150	-0.180
-651.828	29.800	-0.082	-0.070
-650.814	77.927	0.201	0.215
-649.799	181.810	0.340	-0.504
-648.784	-200.000	-0.000	0.250
-647.770	800.000	-0.034	0.148
-646.755	-35.939	-0.065	0.035
-645.741	-165.233	0.153	-0.007
-644.726	-128.922	-0.307	0.043
-643.711	92.787	0.081	0.092
-642.697	-200.000	-0.023	0.144
-641.682	800.000	0.027	-0.106
-640.668	103.695	0.100	-0.119
-639.653	-131.202	-0.304	-0.041
-638.638	-21.641	-0.205	-0.126
-637.624	467.584	-0.069	-0.156
-636.609	209.356	0.159	0.250
-635.595	-133.186	-0.139	0.018
-634.580	-200.000	0.022	0.116
-633.565	-150.518	0.196	-0.015
-632.551	-148.199	-0.144	-0.012
-631.536	2.799	-0.034	-0.025
-630.522	-51.720	0.308	-0.145
-629.507	-200.000	0.013	-0.146
-628.492	87.692	0.051	-0.057
-627.478	69.410	0.097	0.101
-626.463	-127.413	-0.082	0.012
-625.449	-200.000	-0.005	0.052
-624.434	43.421	-0.278	-0.255
-623.419	498.199	-0.042	-0.097
-622.405	-129.725	0.093	-0.013
-621.390	-200.000	0.018	-0.173
-620.376	-107.326	-0.226	0.050
-619.361	48.475	-0.157	0.148
-618.346	24.605	0.213	-0.178
-617.332	72.683	0.120	-0.126
-616.317	800.000	0.171	-0.496
-615.303	553.089	0.056	-0.134
-614.288	-122.040	0.025	0.004
-613.273	278.539	0.184	-0.330
-612.259	184.371	0.130	0.193
-611.244	-200.000	0.046	0.231
-610.230	-103.584	-0.314	0.074
-609.215	800.000	0.061	-0.193
-608.201	533.927	-0.040	-0.095
-607.186	-30.388	0.096	-0.055
-606.171	800.000	-0.016	-0.045
-605.157	-19.200	-0.021	0.013
-604.142	231.815	0.186	0.307
-603.128	131.997	0.141	0.182
-602.113	-91.012	0.075	0.022
-601.098	-200.000	0.031	-0.203
-600.084	800.000	0.024	-0.087
-599.069	518.286	-0.095	-0.223
-598.055	-47.496	0.155	0.076
-597.040	-200.000	0.041	-0.333
-596.025	-200.000	-0.044	-0.263
-595.011	-127.913	-0.034	-0.005
-593.996	-55.788	0.248	0.111
-592.982	159.855	-0.087	0.122
-591.967	79.426	-0.117	-0.126
-590.952	420.843	0.080	0.172
-589.938	179.488	0.204	-0.300
-588.923	-135.969	-0.344	-0.041
-587.909	-106.915	0.369	0.082
-586.894	283.322	-0.027	-0.049
-585.879	37.931	-0.401	0.358
-584.865	5.537	-0.269	0.199
-583.850	-200.000	-0.012	0.129
-582.836	-200.000	-0.029	0.244
-581.821	-200.000	0.025	-0.208
-580.806	-124.547	-0.234	0.037
-579.792	-200.000	0.011	-0.179
-578.777	133.254	-0.162	-0.211
-577.763	800.000	0.086	0.260
-576.748	10.512	0.088	-0.068
-575.733	-68.217	-0.085	-0.033
-574.719	-200.000	-0.005	0.055
-573.704	143.872	-0.036	-0.048
-572.690	-133.429	0.423	-0.053
-571.675	-128.518	-0.318	-0.045
-570.661	19.711	0.157	-0.127
-569.646	78.761	0.025	0.027
-568.631	-41.658	-0.125	-0.065
-567.617	-2.983	-0.177	-0.124
-566.602	-200.000	0.045	-0.345
-565.588	260.736	0.194	-0.337
-564.573	165.348	-0.226	-0.320
-563.558	-84.279	-0.326	0.103
-562.544	800.000	-0.120	-0.361
-561.529	263.156	0.048	-0.084
-560.515	-200.000	-0.046	0.203
-559.500	3.789	-0.137	0.101
-558.485	-27.709	0.178	0.104
-557.471	210.748	0.108	-0.171
-556.456	578.304	0.086	-0.210
-555.442	198.967	-0.120	-0.184
-554.427	800.000	0.096	0.396
-553.412	-200.000	0.028	0.128
-552.398	-128.837	-0.189	0.027
-551.383	800.000	-0.071	0.268
-550.369	-109.577	-0.472	0.100
-549.354	18.978	-0.098	-0.079
-548.339	197.031	0.062	0.095
-547.325	-17.318	-0.371	0.234
-546.310	-200.000	-0.014	0.229
-545.296	-200.000	-0.034	0.161
-544.281	239.294	-0.084	-0.140
-543.266	-161.492	0.123	-0.006
-542.252	800.000	-0.074	-0.206
-541.237	57.790	-0.080	0.079
-540.223	-200.000	0.045	-0.390
-539.208	-200.000	0.039	-0.289
-538.193	-16.998	-0.097	-0.062
-537.179	-200.000	-0.023	-0.187
-536.164	664.328	-0.131	-0.339
-535.150	-130.624	-0.154	0.021
-534.135	-108.908	0.199	-0.043
-533.121	-200.000	0.025	-0.123
-532.106	6.215	-0.299	-0.223
-531.091	-200.000	-0.042	-0.256
-530.077	98.954	0.187	0.216
-529.062	-200.000	-0.031	0.180
-528.048	-67.541	0.304	0.120
-527.033	-113.160	-0.343	0.068
-526.018	-31.606	0.144	-0.081
-525.004	800.000	-0.021	0.060
-523.989	-97.395	-0.302	0.079
-522.975	-200.000	-0.049	0.217
-521.960	622.872	-0.109	-0.274
-520.945	83.143	0.115	-0.126
-519.931	-97.738	-0.286	-0.074
-518.916	-200.000	0.030	0.324
-517.902	92.638	0.107	0.121
-516.887	569.754	0.040	-0.098
-515.872	690.550	-0.039	-0.102
-514.858	205.743	-0.104	0.161
-513.843	92.639	0.125	0.141
-512.829	-14.120	-0.258	0.167
-511.814	85.040	-0.248	0.272
-510.799	800.000	-0.036	-0.142
-509.785	-140.011	-0.311	0.033
-508.770	346.952	-0.154	0.304
-507.756	407.077	0.123	0.259
-506.741	800.000	0.060	0.225
-505.726	-4.912	0.153	-0.105
-504.712	-200.000	-0.013	-0.301
-503.697	-129.439	-0.315	0.044
-502.683	214.628	-0.057	-0.091
-501.668	800.000	0.066	-0.226
-500.653	136.794	-0.225	0.295
-499.639	-200.000	0.006	-0.127
-498.624	-102.370	-0.293	0.070
-497.610	-200.000	-0.009	0.298
-496.595	-163.307	0.165	0.008
-495.581	-200.000	-0.012	-0.218
-494.566	123.755	-0.354	-0.444
-493.551	435.909	0.064	0.139
-492.537	800.000	-0.038	-0.129
-491.522	-200.000	0.027	-0.149
-490.508	800.000	0.046	-0.168
-489.493	16.983	0.216	-0.171
-488.478	-147.558	-0.168	0.014
-487.464	-200.000	0.053	-0.352
-486.449	-5.714	0.136	-0.093
-485.435	-200.000	0.018	0.370
-484.420	224.296	0.182	0.294
-483.405	-83.079	0.276	0.089
-482.391	-81.284	0.108	0.036
-481.376	-200.000	0.006	-0.302
-480.362	800.000	-0.041	-0.118
-479.347	-6.035	0.404	-0.276
-478.332	220.344	-0.111	0.178
-477.318	739.929	0.043	-0.115
-476.303	-200.000	0.034	-0.339
-475.289	-4.178	-0.196	0.136
-474.274	210.643	-0.109	0.172
-473.259	476.680	-0.097	0.218
-472.245	181.006	-0.021	-0.031
-471.230	800.000	0.066	0.289
-470.216	-26.283	0.305	0.179
-469.201	-200.000	-0.097	0.455
-468.186	97.910	0.089	0.103
-467.172	800.000	-0.051	0.149
-466.157	-68.315	0.079	0.031
-465.143	112.072	-0.201	0.243
-464.128	276.749	-0.074	0.132
-463.113	-200.000	0.005	0.207
-462.099	9.719	-0.249	0.188
-461.084	3.049	0.025	0.018
-460.070	315.472	0.100	-0.189
-459.055	-15.141	-0.277	0.177
-458.040	361.441	-0.052	0.105
-457.026	133.867	0.151	0.195
-456.011	-22.408	-0.225	-0.136
-454.997	46.290	0.165	-0.153
-453.982	-122.238	0.120	-0.020
-452.968	800.000	0.051	0.143
-451.953	-32.033	-0.047	-0.026
-450.938	223.162	0.187	0.302
-449.924	-200.000	0.002	-0.228
-448.909	-200.000	0.015	0.089
-447.895	-200.000	-0.011	0.479
-446.880	27.940	-0.216	0.182
-445.865	205.636	-0.076	-0.119
-444.851	-200.000	0.055	0.274
-443.836	-6.157	0.083	0.057
-442.822	696.915	0.165	-0.432
-441.807	211.344	0.127	-0.200
-440.792	125.769	0.321	-0.405
-439.778	54.194	0.098	-0.095
-438.763	800.000	0.037	0.138
-437.749	71.097	0.035	-0.036
-436.734	28.866	-0.185	-0.156
-435.719	-200.000	0.004	0.210
-434.705	-182.417	-0.251	0.005
-433.690	-200.000	-0.024	0.118
-432.676	-23.987	-0.093	0.056
-431.661	-200.000	0.013	0.169
-430.646	-128.291	0.195	-0.028
-429.632	-49.189	0.163	-0.078
-428.617	-200.000	-0.006	-0.233
-427.603	137.493	0.085	0.110
-426.588	-158.628	0.119	0.007
-425.573	-82.810	-0.364	0.117
-424.559	-2.011	-0.028	0.020
-423.544	-8.663	-0.204	-0.137
-422.530	163.238	-0.171	0.239
-421.515	-91.849	-0.272	0.077
-420.500	-53.251	0.128	0.059
-419.486	-200.000	-0.017	0.223
-418.471	-59.510	-0.292	-0.125
-417.457	89.967	0.114	-0.127
-416.442	4.038	0.188	0.137
-415.428	-60.722	0.246	-0.104
-414.413	312.318	-0.068	0.128
-413.398	174.322	-0.263	0.379
-412.384	8.676	0.278	-0.209
-411.369	-59.862	0.384	0.164
-410.355	-200.000	-0.022	-0.178
-409.340	-200.000	-0.006	-0.297
-408.325	-94.385	0.249	0.068
-407.311	-200.000	0.008	-0.187
-406.296	157.864	0.197	-0.272
-405.282	182.925	-0.026	-0.038
-404.267	-200.000	-0.005	-0.035
-403.252	-200.000	-0.005	0.061
-402.238	29.863	-0.107	0.091
-401.223	117.781	-0.214	-0.263
-400.209	-33.756	-0.170	0.093
-399.194	113.016	-0.195	0.236
-398.179	800.000	-0.055	0.234
-397.165	37.073	-0.077	0.068
-396.150	558.230	-0.030	-0.073
-395.136	-101.426	0.182	0.044
-394.121	29.945	0.060	-0.051
-393.106	141.959	-0.139	-0.184
-392.092	-121.562	-0.024	-0.004
-391.077	-47.063	0.200	0.097
-390.063	-200.000	0.009	-0.146
-389.048	-46.697	0.279	0.136
-388.033	800.000	0.058	0.180
-387.019	-61.219	-0.265	-0.111
-386.004	-200.000	0.022	-0.208
-384.990	258.293	-0.182	-0.313
-383.975	9.549	0.254	0.192
-382.960	273.433	0.234	0.412
-381.946	-200.000	-0.002	0.590
-380.931	299.914	-0.079	-0.145
-379.917	-0.707	-0.180	-0.127
-378.902	-200.000	-0.084	0.391
-377.888	-180.733	0.162	0.003
-376.873	-19.343	-0.211	0.130
-375.858	-200.000	-0.012	0.094
-374.844	-200.000	0.030	-0.162
-373.829	-114.175	-0.275	0.053
-372.815	-200.000	-0.026	-0.149
-371.800	-161.653	-0.140	0.007
-370.785	680.472	0.031	-0.081
-369.771	-123.085	-0.122	0.019
-368.756	0.984	0.182	-0.130
-367.742	800.000	-0.067	0.207
-366.727	574.701	0.016	0.038
-365.712	-142.008	0.347	-0.034
-364.698	201.307	0.124	-0.191
-363.683	-40.799	0.359	0.185
-362.669	-126.505	-0.144	0.021
-361.654	481.145	-0.017	0.038
-360.639	139.977	0.193	0.253
-359.625	-1.187	0.110	-0.077
-358.610	186.124	-0.124	0.184
-357.596	-32.373	0.103	-0.057
-356.581	-82.698	-0.428	0.138
-355.566	144.355	0.155	0.207
-354.552	-62.516	0.332	-0.137
-353.537	57.027	-0.092	-0.090
-352.523	17.631	-0.222	-0.176
-351.508	-200.000	-0.018	-0.109
-350.493	800.000	0.036	0.152
-349.479	35.042	-0.210	-0.183
-348.464	306.548	-0.052	-0.097
-347.450	-102.463	0.323	-0.077
-346.435	-48.021	0.324	0.156
-345.420	279.463	-0.139	-0.246
-344.406	-200.000	0.011	0.150
-343.391	51.072	-0.101	-0.095
-342.377	-105.422	-0.222	-0.050
-341.362	-6.949	-0.080	0.054
-340.348	83.133	-0.017	-0.018
-339.333	-200.000	0.002	0.031
-338.318	-4.420	-0.184	0.127
-337.304	479.793	0.155	-0.349
-336.289	-73.312	-0.339	-0.123
-335.275	-200.000	0.023	-0.259
-334.260	-28.702	-0.135	0.077
-333.245	-200.000	0.020	0.102
-332.231	800.000	0.032	-0.120
-331.216	-200.000	-0.009	0.254
-330.202	24.157	-0.102	-0.084
-329.187	64.511	-0.227	-0.228
-328.172	482.674	-0.046	-0.104
-327.158	43.891	0.130	-0.118
-326.143	60.266	0.249	0.245
-325.129	-160.436	-0.373	0.020
-324.114	0.192	-0.230	-0.163
-323.099	-19.649	-0.474	0.292
-322.085	1.575	0.297	-0.213
-321.070	630.027	0.047	0.119
-320.056	17.178	-0.116	0.091
-319.041	-57.886	-0.206	-0.089
-318.026	-126.690	-0.171	-0.025
-317.012	-116.565	-0.378	-0.069
-315.997	301.183	-0.014	0.026
-314.983	-200.000	0.015	0.120
-313.968	288.309	-0.047	-0.084
-312.953	598.536	-0.009	-0.023
-311.939	-58.410	-0.095	0.041
-310.924	-78.978	0.193	0.065
-309.910	87.122	0.206	0.226
-308.895	-44.269	-0.380	-0.189
-307.880	-159.077	0.467	-0.026
-306.866	800.000	0.055	0.160
-305.851	800.000	0.084	0.231
-304.837	369.102	0.108	0.218
-303.822	-117.998	-0.202	-0.036
-302.807	-163.341	0.104	0.005
-301.793	131.729	-0.108	0.138
-300.778	-83.718	-0.239	0.076
-299.764	-169.634	0.116	0.004
-298.749	650.575	0.033	0.084
-297.735	679.783	0.071	0.185
-296.720	800.000	0.053	0.205
-295.705	-9.067	-0.212	-0.141
-294.691	-200.000	0.016	-0.280
-293.676	120.705	-0.284	-0.350
-292.662	587.376	0.092	0.224
-291.647	165.235	0.152	0.214
-290.632	384.628	0.047	0.096
-289.618	-200.000	-0.006	0.281
-288.603	-200.000	0.005	0.284
-287.589	92.465	0.235	0.263
-286.574	-1.166	0.315	-0.221
-285.559	800.000	-0.101	-0.317
-284.545	-48.375	0.104	0.050
-283.530	-63.230	0.097	0.040
-282.516	375.062	0.079	-0.161
-281.501	-76.124	-0.341	-0.119
-280.486	-26.681	-0.192	0.112
-279.472	-82.551	0.044	-0.014
-278.457	296.912	0.141	0.258
-277.443	-28.730	0.170	0.097
-276.428	-155.993	-0.241	0.015
-275.413	-76.895	0.331	-0.115
-274.399	-82.227	0.085	0.027
-273.384	-115.009	0.197	-0.037
-272.370	5.499	0.040	-0.030
-271.355	-40.786	0.058	0.030
-270.340	-149.880	0.264	0.021
-269.326	-104.973	-0.129	0.029
-268.311	-200.000	-0.033	0.381
-267.297	311.461	0.005	0.010
-266.282	584.862	0.084	0.205
-265.267	40.662	-0.152	-0.136
-264.253	-137.131	-0.297	0.034
-263.238	-200.000	0.104	0.485
-262.224	63.897	-0.070	-0.070
-261.209	-200.000	0.036	0.203
-260.195	52.281	-0.236	0.224
-259.180	-200.000	0.002	-0.011
-258.165	-128.660	0.358	-0.050
-257.151	304.837	0.166	0.305
-256.136	-98.465	-0.214	0.054
-255.122	-200.000	0.024	-0.483
-254.107	21.481	0.066	-0.053
-253.092	381.706	0.090	0.183
-252.078	206.699	0.106	0.164
-251.063	-57.552	0.261	0.114
-250.049	-92.132	-0.219	-0.061
-249.034	541.687	0.071	-0.169
-248.019	-200.000	0.003	-0.111
-247.005	562.090	0.058	0.139
-245.990	159.993	0.062	-0.086
-244.976	-9.658	-0.248	-0.164
-243.961	-165.647	0.166	0.007
-242.946	-200.000	0.010	-0.070
-241.932	117.135	-0.170	0.207
-240.917	10.506	0.160	0.121
-239.903	-70.332	0.037	0.014
-238.888	27.016	0.120	0.100
-237.873	-200.000	-0.030	0.194
-236.859	329.296	0.185	-0.353
-235.844	13.793	-0.178	0.137
-234.830	-200.000	-0.025	-0.189
-233.815	4.701	0.053	-0.039
-232.800	51.176	0.078	0.073
-231.786	209.783	-0.154	0.240
-230.771	280.310	0.054	0.096
-229.757	-136.773	0.367	-0.042
-228.742	88.409	0.215	-0.237
-227.727	166.578	0.167	-0.235
-226.713	63.485	0.252	0.251
-225.698	-29.542	-0.106	0.060
-224.684	472.391	0.255	0.569
-223.669	376.475	0.025	0.050
-222.655	800.000	0.102	-0.398
-221.640	-200.000	0.050	-0.322
-220.625	-200.000	0.079	-0.356
-219.611	800.000	0.131	0.429
-218.596	187.038	0.105	-0.155
-217.582	-153.923	-0.218	0.015
-216.567	-90.974	0.133	-0.038
-215.552	-167.023	0.198	-0.008
-214.538	-141.850	0.344	-0.034
-213.523	203.634	0.153	-0.235
-212.509	-133.359	-0.155	0.019
-211.494	-18.263	-0.237	-0.147
-210.479	-88.523	0.282	0.083
-209.465	103.395	0.100	-0.117
-208.450	143.417	-0.202	-0.266
-207.436	-142.367	0.376	0.037
-206.421	216.853	0.087	0.138
-205.406	209.755	-0.021	-0.033
-204.392	-30.308	0.399	0.224
-203.377	94.887	0.032	-0.036
-202.363	-200.000	0.004	0.116
-201.348	335.058	-0.161	-0.309
-200.333	108.471	0.159	-0.188
-199.319	436.419	-0.051	0.109
-198.304	427.436	0.117	-0.250
-197.290	-7.096	-0.094	0.063
-196.275	-152.558	0.033	-0.002
-195.260	-200.000	-0.007	-0.071
-194.246	-200.000	-0.069	-0.426
-193.231	800.000	-0.099	-0.333
-192.217	278.852	-0.135	-0.239
-191.202	-41.228	-0.318	-0.162
-190.187	-149.307	-0.273	0.022
-189.173	-72.712	0.236	-0.086
-188.158	-116.265	-0.164	-0.030
-187.144	-200.000	0.043	0.232
-186.129	-200.000	0.018	0.288
-185.114	243.136	0.118	0.195
-184.100	181.868	0.118	-0.172
-183.085	-200.000	0.041	-0.223
-182.071	19.431	-0.148	-0.118
-181.056	327.728	0.021	-0.040
-180.042	-200.000	0.088	-0.419
-179.027	-73.475	0.487	-0.176
-178.012	-200.000	0.019	0.210
-176.998	594.334	-0.066	0.160
-175.983	-116.205	-0.141	0.026
-174.969	-107.730	-0.101	0.022
-173.954	111.998	0.120	0.144
-172.939	81.780	0.085	-0.091
-171.925	236.983	-0.104	0.170
-170.910	-97.754	0.095	0.024
-169.896	-114.729	-0.020	-0.004
-168.881	186.186	-0.160	0.235
-167.866	31.509	-0.093	-0.079
-166.852	-74.095	-0.340	-0.122
-165.837	525.519	0.052	-0.121
-164.823	-60.468	0.106	0.045
-163.808	-128.549	0.077	0.011
-162.793	45.008	-0.117	0.107
-161.779	-23.046	0.050	0.030
-160.764	11.404	0.088	0.066
-159.750	-82.981	0.391	0.125
-158.735	-200.000	0.018	-0.432
-157.720	-94.571	-0.040	0.011
-156.706	51.362	-0.118	0.110
-155.691	800.000	0.042	-0.114
-154.677	53.260	0.115	0.109
-153.662	-183.675	0.130	-0.002
-152.647	154.329	0.083	0.113
-151.633	800.000	-0.094	-0.257
-150.618	800.000	-0.001	0.003
-149.604	-101.756	-0.156	-0.037
-148.589	-56.981	0.208	-0.091
-147.574	-200.000	0.114	-0.611
-146.560	800.000	-0.029	0.094
-145.545	19.678	0.203	0.161
-144.531	56.642	0.102	-0.098
-143.516	-105.496	0.144	0.032
-142.502	328.678	0.215	0.407
-141.487	800.000	-0.030	0.103
-140.472	-102.483	0.100	0.024
-139.458	219.972	-0.121	-0.191
-138.443	366.893	-0.099	0.198
-137.429	22.260	0.154	0.124
-136.414	-114.848	0.321	-0.060
-135.399	-193.188	-0.275	0.002
-134.385	800.000	-0.067	0.231
-133.370	164.586	-0.059	0.082
-132.356	-111.634	0.047	-0.009
-131.341	800.000	-0.098	-0.313
-130.326	291.692	0.036	-0.065
-129.312	800.000	-0.093	-0.391
-128.297	-46.917	-0.115	-0.055
-127.283	-138.147	0.210	-0.023
-126.268	8.577	-0.248	-0.185
-125.253	-200.000	-0.006	-0.075
-124.239	-28.847	-0.147	-0.083
-123.224	-37.826	0.098	0.052
-122.210	-80.354	0.214	0.071
-121.195	177.906	-0.017	0.024
-120.180	-68.600	-0.252	-0.096
-119.166	72.464	-0.102	-0.104
-118.151	-116.992	0.393	0.071
-117.137	11.632	-0.125	0.094
-116.122	5.637	-0.174	0.127
-115.107	-60.687	-0.162	0.068
-114.093	-200.000	-0.016	0.097
-113.078	-18.049	-0.170	0.105
-112.064	110.619	-0.169	0.200
-111.049	647.262	0.076	0.191
-110.034	-22.105	0.307	-0.184
-109.020	2.993	0.199	-0.142
-108.005	731.126	-0.121	-0.318
-106.991	800.000	0.065	-0.183
-105.976	-7.681	-0.125	-0.083
-104.962	41.077	-0.105	-0.094
-103.947	-200.000	0.015	-0.105
-102.932	69.044	0.143	0.145
-101.918	-169.909	-0.131	0.005
-100.903	53.736	-0.113	-0.107
-99.889	800.000	0.041	-0.162
-98.874	-149.898	0.341	-0.026
-97.859	-200.000	-0.017	0.295
-96.845	79.273	0.124	-0.132
-95.830	-7.224	0.129	0.086
-94.816	-55.021	-0.282	0.125
-93.801	17.014	-0.265	0.207
-92.786	247.023	0.076	-0.127
-91.772	418.583	-0.162	0.341
-90.757	-168.036	0.185	-0.007
-89.743	378.439	-0.063	0.127
-88.728	-112.089	0.290	-0.057
-87.713	-26.343	0.349	0.201
-86.699	-20.337	0.250	0.151
-85.684	-200.000	0.064	-0.328
-84.670	-116.412	0.308	-0.056
-83.655	-27.571	0.162	-0.093
-82.640	-11.284	-0.098	-0.064
-81.626	-200.000	-0.045	0.220
-80.611	349.129	-0.169	0.329
-79.597	-114.950	0.264	0.049
-78.582	104.551	-0.120	0.140
-77.567	800.000	-0.047	0.134
-76.553	797.965	0.140	0.381
-75.538	155.065	0.191	0.258
-74.524	-200.000	0.047	0.000
-73.509	-3.309	-0.064	0.044
-72.494	56.107	0.060	-0.057
-71.480	-200.000	0.021	-0.281
-70.465	-152.232	0.415	0.030
-69.451	800.000	-0.093	-0.256
-68.436	234.240	0.110	0.179
-67.422	800.000	0.019	-0.072
-66.407	430.595	0.261	0.556
-65.392	-19.999	0.170	0.103
-64.378	18.591	-0.043	-0.034
-63.363	-57.469	-0.256	-0.111
-62.349	305.307	0.105	0.192
-61.334	141.600	-0.706	-0.921
-60.319	300.594	0.276	0.500
-59.305	-200.000	-0.192	-1.056
-58.290	373.155	0.558	1.116
-57.276	800.000	0.505	1.576
-56.261	-200.000	95.780	580.346
-55.246	564.336	1369.694	3265.087
-54.232	162.089	2543.674	3506.684
-53.217	113.244	2137.853	2551.555
-52.203	44.279	1602.926	1447.266
-51.188	36.110	1341.359	1162.064
-50.173	32.947	1299.667	1107.388
-49.159	54.574	1347.006	1277.264
-48.144	56.815	1363.743	1306.447
-47.130	36.390	1321.964	1146.739
-46.115	32.867	1304.896	1111.190
-45.100	32.617	1300.076	1105.580
-44.086	32.592	1297.344	1103.062
-43.071	32.501	1295.338	1100.784
-42.057	32.596	1292.788	1099.125
-41.042	32.539	1291.792	1097.907
-40.027	32.603	1289.970	1096.686
-39.013	32.516	1288.583	1094.953
-37.998	32.447	1286.440	1092.691
-36.984	32.642	1284.362	1092.013
-35.969	32.697	1282.613	1090.798
-34.954	32.678	1281.122	1089.381
-33.940	32.692	1279.662	1088.177
-32.925	32.749	1278.288	1087.290
-31.911	32.753	1276.468	1085.728
-30.896	32.704	1275.048	1084.191
-29.881	32.759	1274.158	1083.706
-28.867	32.725	1272.751	1082.275
-27.852	32.711	1271.155	1080.791
-26.838	32.713	1269.687	1079.512
-25.823	32.773	1268.823	1079.079
-24.809	32.687	1267.163	1077.136
-23.794	32.740	1265.550	1076.021
-22.779	32.756	1264.319	1075.021
-21.765	32.763	1263.399	1074.237
-20.750	32.600	1262.232	1072.276
-19.736	32.721	1260.583	1071.522
-18.721	32.624	1259.569	1070.067
-17.706	32.590	1258.107	1068.590
-16.692	32.515	1257.493	1067.597
-15.677	32.563	1256.360	1066.865
-14.663	32.596	1254.990	1065.846
-13.648	32.521	1254.251	1064.754
-12.633	32.610	1252.908	1064.071
-11.619	32.621	1251.819	1063.166
-10.604	32.553	1251.351	1062.343
-9.590	32.522	1250.359	1061.285
-8.575	32.522	1249.200	1060.260
-7.560	32.425	1248.771	1059.305
-6.546	32.530	1247.764	1059.002
-5.531	32.472	1246.932	1057.931
-4.517	32.573	1245.442	1057.187
-3.502	32.630	1245.009	1057.101
-2.487	32.588	1243.948	1055.924
-1.473	32.613	1239.899	1052.582
-0.458	30.930	1224.620	1030.272
0.556	27.940	1206.604	992.511
1.571	24.367	1211.827	977.187
2.586	23.675	1226.375	984.993
3.600	22.993	1215.766	972.632
4.615	16.885	1143.613	883.108
5.629	6.934	1066.889	775.208
6.644	2.399	1045.888	738.041
7.659	2.122	1043.122	734.691
8.673	1.899	1042.685	733.245
9.688	1.852	1040.564	731.468
10.702	2.273	1039.683	732.800
11.717	8.872	1048.859	771.030
12.731	18.927	1063.124	830.247
13.746	24.139	1068.767	859.810
14.761	25.177	1070.334	866.009
15.775	25.195	1070.122	865.849
16.790	25.107	1069.024	864.457
17.804	24.953	1068.748	863.415
18.819	25.128	1067.927	863.519
19.834	25.152	1067.895	863.531
20.848	25.314	1067.063	863.562
21.863	25.214	1066.921	862.890
22.877	25.114	1066.260	861.799
23.892	25.204	1065.069	861.194
24.907	25.251	1064.823	861.141
25.921	25.066	1063.978	859.498
26.936	25.265	1061.909	858.704
27.950	25.076	1060.926	856.927
28.965	24.915	1059.078	854.588
29.980	25.021	1057.351	853.624
30.994	25.251	1056.645	854.077
32.009	25.294	1055.321	853.135
33.023	25.042	1054.460	851.166
34.038	25.005	1053.679	850.282
35.053	25.213	1053.274	850.866
36.067	25.189	1052.383	849.961
37.082	25.427	1051.293	850.129
38.096	25.498	1050.758	849.957
39.111	25.595	1049.795	849.563
40.126	25.281	1048.899	847.282
41.140	25.010	1047.234	844.586
42.155	24.633	1045.786	841.565
43.169	24.826	1044.931	841.713
44.184	24.804	1044.086	840.852
45.199	24.791	1042.758	839.647
46.213	24.916	1042.317	839.807
47.228	25.058	1041.530	839.760
48.242	25.072	1040.420	838.861
49.257	25.117	1039.889	838.568
50.271	25.198	1039.084	838.219
51.286	25.339	1037.914	837.860
52.301	25.200	1037.539	836.835
53.315	25.114	1036.578	835.589
54.330	25.197	1035.732	835.218
55.344	25.120	1035.253	834.398
56.359	25.198	1034.036	833.704
57.374	24.999	1033.169	832.010
58.388	25.009	1032.550	831.485
59.403	24.906	1031.417	830.018
60.417	24.765	1030.642	828.669
61.432	24.894	1030.275	828.898
62.447	24.994	1029.382	828.571
63.461	24.977	1028.932	828.054
64.476	24.977	1027.574	826.892
65.490	24.795	1026.944	825.471
66.505	24.884	1026.109	825.136
67.520	24.868	1026.013	824.914
68.534	24.752	1024.028	822.709
69.549	24.511	1023.147	820.822
70.563	24.477	1022.766	820.286
71.578	24.548	1021.726	819.705
72.593	24.361	1020.691	817.944
73.607	24.489	1020.460	818.273
74.622	24.786	1019.980	819.178
75.636	24.818	1019.250	818.667
76.651	24.642	1018.421	817.124
77.666	24.483	1017.628	815.689
78.680	24.604	1017.048	815.704
79.695	24.703	1016.545	815.677
80.709	24.897	1015.571	815.707
81.724	24.766	1014.855	814.466
82.739	24.970	1014.112	814.724
83.753	25.200	1013.656	815.333
84.768	25.513	1012.833	816.019
85.782	25.698	1012.071	816.173
86.797	25.405	1011.113	814.001
87.812	25.244	1010.018	812.317
88.826	25.430	1009.416	812.603
89.841	25.437	1008.494	811.818
90.855	25.536	1007.352	811.275
91.870	25.361	1006.471	809.706
92.884	25.293	1005.082	808.210
93.899	25.275	1004.379	807.493
94.914	25.568	1003.452	807.992
95.928	25.290	1002.643	806.021
96.943	24.939	1001.427	803.399
97.957	24.808	999.932	801.543
98.972	24.684	999.304	800.410
99.987	24.894	998.377	800.538
101.001	25.144	997.649	800.998
102.016	25.078	997.044	800.149
103.030	24.977	996.192	798.946
104.045	24.855	995.198	797.534
105.060	24.806	994.472	796.660
106.074	24.937	993.974	796.777
107.089	25.150	993.233	797.057
108.103	25.201	991.215	795.593
109.118	24.920	990.460	793.673
110.133	24.914	989.279	792.627
111.147	24.809	988.223	791.249
112.162	24.643	987.202	789.629
113.176	24.878	987.149	790.552
114.191	24.800	986.360	789.506
115.206	24.543	985.129	787.320
116.220	24.487	983.929	786.044
117.235	24.785	982.672	786.279
118.249	24.577	982.213	784.931
119.264	24.559	981.560	784.261
120.279	24.480	981.010	783.403
121.293	24.618	980.307	783.377
122.308	24.629	979.137	782.421
123.322	24.700	977.950	781.717
124.337	24.463	976.959	779.818
125.352	23.917	975.425	776.141
126.366	23.931	974.471	775.375
127.381	24.695	974.721	778.835
128.395	25.093	974.272	780.142
129.410	25.180	973.292	779.664
130.424	25.205	972.158	778.797
131.439	25.103	971.518	777.770
132.454	25.146	970.424	777.013
133.468	25.178	969.691	776.499
134.483	25.268	968.822	776.121
135.497	25.345	967.958	775.695
136.512	25.572	967.284	776.063
137.527	25.335	966.845	774.620
138.541	25.423	965.545	773.892
139.556	25.397	964.731	773.056
140.570	25.506	964.213	773.045
141.585	25.607	963.151	772.556
142.600	25.488	961.938	771.005
143.614	25.652	961.571	771.347
144.629	25.687	961.068	771.026
145.643	25.606	959.267	769.164
146.658	25.286	958.508	767.122
147.673	25.263	957.116	765.841
148.687	25.255	956.142	764.961
149.702	25.270	955.333	764.309
150.716	25.061	954.635	762.791
151.731	25.289	954.096	763.266
152.746	25.605	953.347	763.942
153.760	25.580	953.343	763.762
154.775	25.689	952.216	763.254
155.789	25.629	951.406	762.283
156.804	25.527	950.534	761.085
157.819	25.645	949.922	761.026
158.833	25.733	949.253	760.799
159.848	25.603	948.154	759.300
160.862	25.452	946.919	757.607
161.877	25.709	945.703	757.650
162.892	25.630	944.872	756.583
163.906	25.575	943.922	755.526
164.921	25.572	942.803	754.549
165.935	25.592	942.335	754.194
166.950	25.524	941.087	752.843
167.964	25.539	940.508	752.375
168.979	25.435	938.993	750.663
169.994	25.355	938.547	749.905
171.008	25.589	937.987	750.368
172.023	25.671	937.066	749.908
173.037	25.404	936.209	748.042
174.052	25.394	934.687	746.718
175.067	25.282	934.624	746.136
176.081	25.482	933.501	746.005
177.096	25.321	933.244	745.066
178.110	25.074	932.376	743.283
179.125	24.899	931.604	741.875
180.140	24.923	931.147	741.546
181.154	25.303	930.615	742.628
182.169	25.491	930.713	743.418
183.183	25.522	930.276	743.133
184.198	25.528	928.990	742.064
185.213	25.508	928.326	741.386
186.227	25.612	928.433	741.836
187.242	25.561	927.470	740.789
188.256	25.669	926.728	740.577
189.271	25.709	926.142	740.205
190.286	25.263	925.150	737.518
191.300	24.679	923.991	734.128
192.315	23.997	922.188	729.837
193.329	24.033	921.468	729.348
194.344	24.885	921.883	733.103
195.359	25.362	922.261	735.292
196.373	25.473	921.367	734.967
197.388	25.501	920.987	734.716
198.402	25.385	920.495	733.783
199.417	25.549	919.449	733.553
200.432	25.159	918.791	731.373
201.446	25.117	917.921	730.444
202.461	25.110	917.164	729.750
203.475	24.255	915.328	724.749
204.490	23.541	914.138	720.843
205.504	24.481	914.196	724.645
206.519	25.016	914.729	727.173
207.534	25.032	914.388	726.902
208.548	25.505	913.942	728.402
209.563	25.258	912.834	726.453
210.577	25.356	912.136	726.228
211.592	25.682	912.113	727.466
212.607	25.683	910.940	726.469
213.621	25.680	910.628	726.145
214.636	25.644	909.722	725.214
215.650	25.553	908.712	723.978
216.665	25.656	908.478	724.141
217.680	25.688	907.456	723.392
218.694	25.298	906.161	720.727
219.709	25.036	906.165	719.617
220.723	25.456	905.283	720.539
221.738	25.383	904.805	719.800
222.753	25.439	903.703	719.083
223.767	25.560	903.811	719.592
224.782	25.804	903.563	720.307
225.796	25.835	902.763	719.730
226.811	25.177	901.386	715.941
227.826	24.528	900.294	712.423
228.840	24.559	899.929	712.193
229.855	24.791	899.004	712.325
230.869	24.412	898.253	710.159
231.884	24.595	898.419	710.951
232.899	25.555	898.257	714.581
233.913	25.341	897.607	713.149
234.928	25.400	897.081	712.903
235.942	25.488	896.230	712.513
236.957	25.236	894.959	710.440
237.972	25.049	894.767	709.484
238.986	25.041	894.538	709.211
240.001	25.164	893.756	709.015
241.015	25.166	893.519	708.768
242.030	25.412	892.907	709.194
243.045	25.441	892.800	709.159
244.059	25.562	892.303	709.177
245.074	25.506	891.099	707.941
246.088	25.160	889.947	705.602
247.103	25.498	889.528	706.534
248.117	25.969	890.008	708.706
249.132	26.235	889.380	709.186
250.147	26.338	888.735	709.014
251.161	26.445	888.230	708.967
252.176	26.314	887.801	708.048
253.190	26.479	887.460	708.362
254.205	26.671	886.697	708.441
255.220	26.473	886.419	707.380
256.234	26.252	885.896	706.039
257.249	26.166	885.045	704.962
258.263	26.298	884.119	704.677
259.278	26.314	883.437	704.134
260.293	26.453	882.729	704.048
261.307	26.285	882.352	703.031
262.322	26.298	880.767	701.756
263.336	25.244	879.672	696.730
264.351	24.253	877.635	691.215
265.366	24.366	877.622	691.581
266.380	25.514	878.101	696.349
267.395	25.928	877.884	697.716
268.409	25.846	876.923	696.575
269.424	26.167	876.443	697.370
270.439	26.181	876.060	697.059
271.453	26.088	875.495	696.189
272.468	26.399	875.224	697.113
273.482	26.559	874.679	697.233
274.497	25.883	873.711	693.797
275.512	25.694	872.529	692.068
276.526	25.978	872.717	693.252
277.541	26.235	872.131	693.712
278.555	26.084	871.150	692.290
279.570	25.966	870.572	691.318
280.585	26.070	870.246	691.396
281.599	25.943	869.333	690.122
282.614	25.280	867.956	686.432
283.628	25.460	867.646	686.817
284.643	25.879	867.071	687.898
285.657	25.395	866.149	685.261
286.672	25.245	865.124	683.817
287.687	25.710	865.412	685.759
288.701	25.763	864.933	685.520
289.716	25.393	864.076	683.373
290.730	25.346	863.633	682.783
291.745	24.952	862.502	680.330
292.760	25.517	862.174	682.158
293.774	26.372	862.757	685.801
294.789	26.658	862.683	686.767
295.803	26.740	862.347	686.751
296.818	26.796	861.140	685.942
297.833	26.329	859.972	683.183
298.847	26.269	859.098	682.203
299.862	26.434	859.472	683.061
300.876	26.704	859.206	683.808
301.891	26.662	858.354	682.915
302.906	26.233	857.278	680.381
303.920	26.389	856.907	680.613
304.935	26.762	856.503	681.635
305.949	26.754	855.976	681.125
306.964	26.459	855.391	679.494
307.979	26.480	855.104	679.283
308.993	26.775	854.806	680.093
310.008	26.761	853.843	679.213
311.022	26.572	852.890	677.687
312.037	26.401	852.726	676.858
313.052	26.161	851.727	675.108
314.066	25.281	849.874	670.295
315.081	25.033	849.537	669.044
316.095	25.970	849.816	672.701
317.110	26.424	849.796	674.319
318.125	25.304	848.166	668.798
319.139	24.569	846.455	664.653
320.154	24.549	846.291	664.393
321.168	25.471	846.774	668.142
322.183	26.065	847.003	670.472
323.197	26.231	846.774	670.849
324.212	26.416	846.455	671.224
325.227	26.594	845.588	671.135
326.241	26.188	845.130	669.207
327.256	26.201	844.665	668.827
328.270	26.193	843.463	667.788
329.285	25.899	842.693	666.033
330.300	25.728	841.857	664.682
331.314	26.068	841.581	665.661
332.329	26.528	841.534	667.260
333.343	26.627	841.104	667.225
334.358	26.573	840.854	666.767
335.373	26.605	840.523	666.566
336.387	26.846	840.632	667.479
337.402	26.913	840.620	667.657
338.416	26.933	839.817	667.034
339.431	27.093	839.427	667.252
340.446	27.138	839.661	667.545
341.460	27.097	838.849	666.691
342.475	26.800	838.099	664.946
343.489	27.012	837.719	665.365
344.504	27.295	837.628	666.269
345.519	27.354	837.231	666.111
346.533	27.479	836.652	666.049
347.548	27.368	836.197	665.221
348.562	27.536	835.602	665.303
349.577	27.317	834.981	663.951
350.592	27.272	834.219	663.121
351.606	27.256	833.538	662.463
352.621	27.142	832.495	661.160
353.635	27.057	831.934	660.349
354.650	26.435	830.473	656.870
355.665	25.651	828.732	652.595
356.679	25.974	829.075	653.979
357.694	26.338	828.712	654.952
358.708	26.245	827.892	653.911
359.723	26.727	827.605	655.369
360.738	26.983	827.637	656.264
361.752	26.965	827.235	655.818
362.767	27.430	826.930	657.199
363.781	27.628	826.704	657.676
364.796	27.530	826.433	657.049
365.810	27.888	825.811	657.785
366.825	27.693	825.290	656.610
367.840	27.475	824.311	654.991
368.854	27.037	823.661	652.841
369.869	27.078	823.103	652.489
370.883	27.142	822.687	652.331
371.898	27.071	822.292	651.703
372.913	27.023	822.180	651.387
373.927	27.290	821.502	651.749
374.942	27.311	821.515	651.777
375.956	27.511	820.585	651.696
376.971	27.556	820.430	651.676
377.986	27.810	819.851	652.067
379.000	27.739	819.189	651.230
380.015	27.664	818.774	650.575
381.029	27.574	818.658	650.102
382.044	27.673	817.917	649.809
383.059	27.757	816.897	649.239
384.073	27.849	816.666	649.327
385.088	27.610	816.027	647.914
386.102	27.445	815.313	646.701
387.117	27.557	814.141	646.112
388.132	27.104	813.225	643.724
389.146	26.629	812.555	641.455
390.161	26.942	812.945	642.814
391.175	27.383	812.256	643.773
392.190	26.950	811.288	641.417
393.205	25.719	809.147	635.327
394.219	24.301	807.388	628.891
395.234	24.212	807.278	628.436
396.248	25.817	808.539	635.026
397.263	27.147	809.573	640.473
398.278	27.103	809.138	639.917
399.292	27.103	808.207	639.124
400.307	26.936	808.045	638.352
401.321	27.010	807.599	638.205
402.336	27.510	807.433	639.774
403.350	27.990	807.272	641.274
404.365	28.258	807.152	642.063
405.380	28.338	807.050	642.206
406.394	28.475	806.491	642.182
407.409	28.295	805.989	641.095
408.423	28.318	805.416	640.663
409.438	28.470	805.072	640.864
410.453	28.662	804.435	640.971
411.467	28.412	804.137	639.804
412.482	28.314	804.076	639.358
413.496	28.437	803.714	639.442
414.511	28.454	803.239	639.067
415.526	28.446	802.650	638.516
416.540	28.226	802.149	637.293
417.555	28.038	801.456	636.031
418.569	28.168	800.862	635.957
419.584	28.230	800.066	635.484
420.599	27.980	799.532	634.134
421.613	111.822	1284.707	1458.719
422.628	96.508	1355.387	1458.823
