DTS Sentinel unit serial number:	SN413079Multiplexer serial number:	ORYXHardware model number:	OX4-SRSoftware version number:	ORYX F/W v4.00 Oryx Data Collector v3.7.2.0data status	okinstallation	princeton_trtdifferential loss correction	single-endedforward channel	channel 1reverse channel	N/Adate	2019/09/13time	12:18:35forward acquisition time	60.00reverse acquisition time	0.00gamma	496.2192k internal	0.2309k external	0.2309temperature offset calibration	1.0172default loss term (dB/km)	0.3790temperature slope calibration	1.0000multiplexer offset coefficient	1.0000multiplexer slope coefficient	1.0000fibre end	0.00T internal ref (°C)	34.06T ext. ref 1 (°C)	4.63T ext. ref 2 (°C)	30.87length (m)	temperature (°C)	Stokes	anti-Stokes-747.200	-34.496	0.197	0.110
-746.185	-110.288	-0.358	0.076
-745.171	-76.191	0.352	-0.126
-744.156	-200.000	-0.002	-0.202
-743.142	105.304	0.051	0.062
-742.127	6.995	-0.099	-0.075
-741.112	-7.238	0.152	0.105
-740.098	163.501	-0.074	0.106
-739.083	50.540	0.049	0.047
-738.069	148.594	-0.073	-0.101
-737.054	349.582	0.204	-0.410
-736.039	17.944	-0.102	-0.082
-735.025	16.035	0.299	0.239
-734.010	67.190	-0.410	-0.424
-732.996	-200.000	-0.012	-0.168
-731.981	-129.981	0.043	0.006
-730.966	1.665	0.139	-0.102
-729.952	-154.944	-0.292	0.020
-728.937	118.057	-0.247	-0.309
-727.923	-132.745	-0.125	0.016
-726.908	-182.987	0.113	0.002
-725.894	27.331	0.190	-0.162
-724.879	75.566	0.082	0.088
-723.864	-106.274	0.332	-0.076
-722.850	244.004	-0.244	-0.417
-721.835	389.291	-0.094	-0.198
-720.821	-5.315	-0.189	0.132
-719.806	3.272	0.280	-0.207
-718.791	6.881	-0.206	-0.156
-717.777	-74.700	0.123	0.045
-716.762	-50.456	-0.115	0.055
-715.748	336.519	-0.195	0.384
-714.733	130.736	-0.082	-0.107
-713.718	47.073	-0.129	-0.122
-712.704	192.253	0.089	0.137
-711.689	-94.774	-0.368	0.101
-710.675	800.000	0.062	-0.262
-709.660	77.729	-0.237	-0.256
-708.645	314.004	-0.124	0.237
-707.631	-12.040	0.129	0.085
-706.616	-144.213	0.444	-0.042
-705.602	-68.619	-0.201	0.079
-704.587	-50.658	0.131	0.063
-703.572	800.000	0.055	0.179
-702.558	-134.277	0.383	0.048
-701.543	800.000	-0.073	0.303
-700.529	-200.000	-0.039	-0.374
-699.514	-128.610	-0.159	-0.023
-698.499	-200.000	0.014	0.199
-697.485	326.963	0.086	-0.167
-696.470	-200.000	0.028	-0.248
-695.456	37.889	0.157	-0.142
-694.441	109.955	-0.038	-0.046
-693.426	23.652	0.203	0.169
-692.412	-116.410	0.272	0.051
-691.397	-177.785	0.160	-0.004
-690.383	-23.922	0.277	-0.168
-689.368	92.335	0.068	-0.078
-688.354	-51.393	0.158	-0.075
-687.339	-76.061	0.279	-0.100
-686.324	800.000	-0.080	-0.245
-685.310	7.697	-0.195	0.148
-684.295	45.565	-0.071	0.066
-683.281	-200.000	0.039	-0.179
-682.266	-89.739	-0.496	-0.147
-681.251	-56.855	0.153	-0.068
-680.237	-161.357	-0.315	-0.016
-679.222	-84.129	0.305	0.098
-678.208	-0.782	0.099	0.071
-677.193	-200.000	0.044	-0.196
-676.178	-200.000	-0.028	-0.298
-675.164	-200.000	0.030	-0.285
-674.149	-200.000	-0.024	0.162
-673.135	-91.541	-0.319	-0.092
-672.120	-200.000	0.039	-0.332
-671.105	369.683	0.122	-0.251
-670.091	-46.292	0.057	-0.028
-669.076	338.537	-0.094	0.185
-668.062	800.000	-0.128	-0.369
-667.047	67.139	0.120	-0.124
-666.032	-200.000	0.021	0.256
-665.018	157.577	0.168	0.236
-664.003	90.629	-0.084	0.096
-662.989	-107.634	0.226	-0.050
-661.974	83.429	-0.031	0.034
-660.959	-200.000	0.091	0.497
-659.945	133.359	0.181	0.238
-658.930	78.159	0.016	0.017
-657.916	-37.945	0.260	-0.140
-656.901	64.509	0.039	-0.040
-655.886	-22.566	-0.211	0.129
-654.872	-86.412	0.136	-0.042
-653.857	-54.347	-0.158	0.073
-652.843	-94.093	-0.029	0.008
-651.828	-38.213	0.444	-0.238
-650.814	118.145	-0.152	0.189
-649.799	-65.163	-0.281	-0.115
-648.784	288.970	-0.225	-0.413
-647.770	-115.163	-0.208	-0.040
-646.755	10.824	-0.166	-0.128
-645.741	-200.000	0.032	-0.195
-644.726	87.358	0.088	0.098
-643.711	215.398	-0.084	0.135
-642.697	800.000	0.026	-0.108
-641.682	46.577	-0.152	-0.143
-640.668	22.587	0.178	0.148
-639.653	202.207	0.118	-0.184
-638.638	273.209	-0.151	0.270
-637.624	105.857	0.087	0.105
-636.609	126.730	0.134	0.171
-635.595	800.000	-0.038	0.154
-634.580	89.238	0.219	0.247
-633.565	176.357	-0.111	0.163
-632.551	-118.700	-0.404	0.072
-631.536	183.210	-0.071	-0.106
-630.522	117.521	0.044	0.055
-629.507	7.765	-0.290	-0.220
-628.492	800.000	-0.069	0.199
-627.478	-61.822	0.180	0.076
-626.463	66.153	-0.052	-0.053
-625.449	35.696	0.062	-0.055
-624.434	81.432	0.136	-0.148
-623.419	-200.000	-0.001	0.171
-622.405	-28.659	0.475	-0.276
-621.390	418.394	0.041	-0.088
-620.376	-157.899	0.272	-0.016
-619.361	-64.585	0.277	0.114
-618.346	-49.493	-0.199	0.096
-617.332	298.315	0.100	-0.187
-616.317	111.241	-0.072	0.088
-615.303	-56.435	0.338	-0.152
-614.288	575.662	0.118	0.291
-613.273	800.000	-0.026	0.108
-612.259	-71.732	0.198	0.075
-611.244	-143.020	0.123	0.012
-610.230	-61.170	0.163	0.069
-609.215	-200.000	0.027	-0.168
-608.201	800.000	0.168	0.525
-607.186	179.688	-0.141	-0.209
-606.171	-103.643	0.187	-0.044
-605.157	182.283	0.056	-0.083
-604.142	2.688	0.198	0.145
-603.128	800.000	0.031	-0.126
-602.113	-200.000	-0.020	-0.171
-601.098	-200.000	-0.016	-0.288
-600.084	652.540	0.044	0.114
-599.069	-165.576	-0.354	0.016
-598.055	12.231	0.160	0.124
-597.040	-200.000	0.041	0.374
-596.025	142.303	-0.111	0.149
-595.011	-83.866	0.048	-0.015
-593.996	-25.612	0.118	-0.070
-592.982	-114.091	-0.484	-0.095
-591.967	52.050	-0.297	0.286
-590.952	-200.000	0.033	0.270
-589.938	-200.000	-0.009	-0.122
-588.923	-145.035	0.295	-0.027
-587.909	109.364	0.368	0.445
-586.894	47.643	-0.041	-0.039
-585.879	83.958	0.082	0.090
-584.865	7.759	-0.293	-0.222
-583.850	-200.000	-0.035	0.279
-582.836	711.482	0.037	0.099
-581.821	71.808	-0.187	0.196
-580.806	-25.303	-0.123	0.073
-579.792	-200.000	-0.027	-0.295
-578.777	49.465	0.178	0.169
-577.763	800.000	-0.019	0.061
-576.748	-97.212	-0.037	-0.010
-575.733	12.954	0.232	-0.181
-574.719	-200.000	0.016	-0.161
-573.704	66.122	0.071	0.072
-572.690	800.000	-0.111	-0.412
-571.675	-143.586	-0.231	0.022
-570.661	-200.000	0.004	-0.099
-569.646	-11.130	-0.245	-0.163
-568.631	-12.821	0.100	0.066
-567.617	199.344	0.073	0.113
-566.602	69.768	-0.153	0.160
-565.588	-169.098	-0.077	0.003
-564.573	-137.597	0.351	0.040
-563.558	-35.651	-0.255	-0.139
-562.544	17.205	-0.149	-0.120
-561.529	-166.852	0.237	-0.010
-560.515	570.116	0.039	-0.097
-559.500	308.947	-0.104	-0.196
-558.485	-98.272	0.111	0.029
-557.471	-200.000	-0.030	0.414
-556.456	800.000	0.058	0.188
-555.442	-200.000	-0.014	-0.120
-554.427	-200.000	-0.011	-0.089
-553.412	578.450	0.075	0.185
-552.398	800.000	0.034	0.146
-551.383	800.000	0.063	-0.184
-550.369	-200.000	-0.032	-0.280
-549.354	-62.286	-0.262	0.110
-548.339	-200.000	0.266	0.000
-547.325	273.845	0.141	-0.251
-546.310	-112.868	-0.197	0.039
-545.296	-164.509	-0.208	-0.010
-544.281	196.334	0.180	-0.276
-543.266	88.801	0.196	0.220
-542.252	800.000	-0.031	0.111
-541.237	-82.100	0.268	-0.088
-540.223	-134.868	0.070	0.009
-539.208	154.138	-0.136	-0.188
-538.193	800.000	0.042	-0.162
-537.179	-200.000	-0.010	0.160
-536.164	-200.000	0.012	-0.141
-535.150	-50.471	-0.167	0.079
-534.135	-69.109	-0.090	0.035
-533.121	-70.484	0.113	-0.043
-532.106	13.310	-0.297	0.232
-531.091	-82.826	-0.024	-0.008
-530.077	800.000	0.107	0.427
-529.062	-200.000	-0.004	0.042
-528.048	-50.094	-0.130	-0.062
-527.033	800.000	0.104	-0.399
-526.018	69.308	-0.195	-0.202
-525.004	-173.316	-0.197	0.006
-523.989	442.434	-0.116	-0.256
-522.975	30.544	0.334	-0.287
-521.960	498.042	0.052	0.120
-520.945	162.062	0.167	-0.235
-519.931	-67.978	0.084	-0.033
-518.916	357.225	0.168	0.337
-517.902	800.000	-0.018	0.081
-516.887	800.000	0.078	-0.248
-515.872	66.229	-0.069	0.071
-514.858	403.118	-0.209	0.442
-513.843	-200.000	-0.019	0.271
-512.829	121.474	-0.263	-0.330
-511.814	210.636	0.138	-0.218
-510.799	800.000	0.059	-0.208
-509.785	-200.000	-0.026	0.132
-508.770	200.849	-0.139	-0.215
-507.756	-37.756	-0.310	-0.166
-506.741	8.436	-0.193	-0.146
-505.726	313.003	-0.103	-0.195
-504.712	-131.123	0.232	0.031
-503.697	-200.000	0.111	0.583
-502.683	101.467	-0.171	-0.201
-501.668	91.152	0.123	0.139
-500.653	-50.252	-0.145	0.069
-499.639	55.037	0.101	0.098
-498.624	150.636	-0.098	-0.133
-497.610	28.427	0.057	-0.049
-496.595	136.964	-0.130	0.171
-495.581	800.000	0.041	-0.170
-494.566	205.073	0.164	0.256
-493.551	-200.000	-0.022	0.195
-492.537	-22.629	0.130	-0.079
-491.522	29.362	-0.097	-0.083
-490.508	-171.684	-0.432	-0.014
-489.493	-43.188	0.052	-0.026
-488.478	-141.397	0.113	-0.011
-487.464	557.115	0.133	-0.323
-486.449	-82.986	0.078	0.025
-485.435	-128.736	0.142	-0.020
-484.420	358.717	-0.052	-0.104
-483.405	568.068	0.066	-0.161
-482.391	-137.953	0.363	-0.041
-481.376	-176.209	-0.147	-0.004
-480.362	-200.000	0.058	0.434
-479.347	103.154	-0.114	-0.134
-478.332	127.072	0.117	-0.150
-477.318	-111.952	-0.424	-0.086
-476.303	-99.887	-0.460	0.116
-475.289	800.000	-0.076	0.243
-474.274	240.881	-0.067	-0.112
-473.259	49.876	-0.212	-0.201
-472.245	-133.905	0.127	0.016
-471.230	-103.183	-0.086	-0.021
-470.216	-150.433	-0.229	-0.018
-469.201	137.984	0.238	-0.314
-468.186	127.206	0.148	-0.189
-467.172	-200.000	-0.006	-0.110
-466.157	159.168	0.178	-0.249
-465.143	-200.000	0.056	0.551
-464.128	-200.000	-0.016	-0.135
-463.113	117.785	0.190	-0.235
-462.099	-85.483	0.208	-0.065
-461.084	-41.379	-0.057	0.029
-460.070	-200.000	-0.033	-0.226
-459.055	-120.685	0.215	0.036
-458.040	-17.898	-0.015	-0.009
-457.026	52.306	0.149	0.143
-456.011	50.107	0.111	-0.105
-454.997	-64.264	0.034	0.014
-453.982	136.275	-0.141	0.185
-452.968	-33.443	0.213	0.118
-451.953	96.451	0.181	0.208
-450.938	-93.100	0.311	-0.087
-449.924	1.031	-0.192	-0.139
-448.909	800.000	-0.051	0.173
-447.895	379.943	-0.014	-0.028
-446.880	66.898	0.316	-0.323
-445.865	-76.985	-0.148	0.052
-444.851	-30.315	0.176	0.101
-443.836	135.166	-0.076	-0.099
-442.822	-200.000	0.037	-0.240
-441.807	-200.000	-0.021	0.454
-440.792	279.486	-0.179	0.321
-439.778	800.000	0.023	-0.077
-438.763	554.291	-0.086	-0.207
-437.749	-200.000	0.355	0.001
-436.734	174.703	0.068	0.099
-435.719	-94.239	0.207	0.057
-434.705	33.556	0.156	0.136
-433.690	67.783	0.021	0.021
-432.676	187.546	-0.163	-0.245
-431.661	800.000	0.017	-0.052
-430.646	-157.014	0.239	0.015
-429.632	-200.000	-0.025	0.228
-428.617	-200.000	0.022	0.114
-427.603	105.601	-0.042	-0.049
-426.588	350.949	-0.110	0.218
-425.573	666.353	0.161	-0.416
-424.559	23.167	-0.197	-0.163
-423.544	93.172	-0.192	0.218
-422.530	-106.618	0.158	0.035
-421.515	104.350	-0.301	0.355
-420.500	-200.000	0.031	0.152
-419.486	565.853	-0.073	0.179
-418.471	800.000	0.042	-0.134
-417.457	441.282	0.150	-0.329
-416.442	-131.912	-0.155	-0.020
-415.428	34.212	0.231	0.202
-414.413	112.902	0.077	-0.094
-413.398	-62.937	-0.219	0.091
-412.384	-200.000	0.053	-0.268
-411.369	147.782	0.139	-0.188
-410.355	-19.899	0.324	-0.201
-409.340	-85.514	-0.176	0.055
-408.325	25.679	-0.083	0.069
-407.311	800.000	0.102	-0.289
-406.296	36.887	0.142	-0.126
-405.282	-47.849	-0.175	0.085
-404.267	800.000	-0.083	0.269
-403.252	-77.672	-0.290	-0.101
-402.238	139.096	0.136	-0.180
-401.223	-33.787	0.175	-0.097
-400.209	-43.097	-0.074	-0.037
-399.194	95.625	-0.201	-0.229
-398.179	800.000	0.099	-0.343
-397.165	-200.000	-0.048	-0.241
-396.150	449.591	-0.156	-0.344
-395.136	-200.000	-0.056	-0.300
-394.121	29.976	0.081	-0.069
-393.106	-20.033	-0.029	0.018
-392.092	-117.552	-0.373	-0.068
-391.077	800.000	0.123	-0.382
-390.063	137.066	0.028	0.037
-389.048	-9.693	0.242	0.162
-388.033	41.213	-0.290	0.263
-387.019	4.009	-0.077	0.056
-386.004	-171.332	-0.145	0.005
-384.990	-65.749	0.362	-0.145
-383.975	8.994	0.168	0.127
-382.960	126.329	0.063	-0.080
-381.946	-200.000	0.010	0.183
-380.931	68.409	0.065	0.066
-379.917	644.635	0.075	0.193
-378.902	800.000	0.055	0.212
-377.888	800.000	0.025	0.076
-376.873	122.698	0.125	-0.156
-375.858	-133.587	-0.512	-0.064
-374.844	-200.000	0.037	0.178
-373.829	-200.000	-0.037	-0.240
-372.815	-24.908	-0.253	-0.151
-371.800	-58.394	0.136	-0.059
-370.785	-102.272	0.139	0.033
-369.771	-200.000	0.008	0.355
-368.756	-200.000	-0.013	-0.072
-367.742	-51.151	-0.256	-0.120
-366.727	54.543	-0.041	-0.039
-365.712	34.628	-0.082	-0.072
-364.698	-114.273	-0.214	-0.041
-363.683	-200.000	0.003	0.377
-362.669	-28.127	-0.053	-0.031
-361.654	139.401	-0.057	-0.076
-360.639	-142.043	-0.269	-0.027
-359.625	-200.000	-0.050	0.240
-358.610	800.000	-0.046	-0.186
-357.596	-200.000	-0.028	-0.399
-356.581	-50.978	0.234	0.110
-355.566	800.000	-0.070	-0.295
-354.552	-41.127	0.207	0.107
-353.537	88.921	0.033	-0.037
-352.523	568.174	0.115	0.278
-351.508	113.861	0.078	0.094
-350.493	291.437	-0.075	-0.136
-349.479	79.369	-0.280	0.301
-348.464	-139.477	-0.256	0.027
-347.450	-143.083	-0.130	0.013
-346.435	386.203	0.049	0.102
-345.420	800.000	0.078	0.229
-344.406	800.000	0.039	-0.160
-343.391	112.060	0.274	-0.331
-342.377	129.206	-0.130	-0.167
-341.362	-30.175	-0.074	-0.042
-340.348	95.802	-0.245	-0.280
-339.333	74.973	-0.118	0.124
-338.318	-46.416	0.216	0.106
-337.304	12.745	-0.549	0.424
-336.289	15.409	-0.222	0.175
-335.275	438.079	0.077	0.169
-334.260	-12.595	0.378	0.247
-333.245	385.909	-0.055	-0.114
-332.231	-5.265	-0.068	-0.047
-331.216	-99.458	0.109	-0.027
-330.202	455.134	-0.199	-0.441
-329.187	4.243	-0.282	0.207
-328.172	601.735	-0.100	-0.249
-327.158	800.000	0.118	-0.514
-326.143	765.473	0.071	0.192
-325.129	800.000	0.040	-0.146
-324.114	-92.235	-0.364	0.103
-323.099	-200.000	0.071	0.431
-322.085	118.175	-0.186	0.229
-321.070	-82.092	0.278	-0.091
-320.056	-82.091	0.012	-0.004
-319.041	-1.943	-0.059	0.042
-318.026	242.526	0.134	-0.223
-317.012	36.122	-0.171	-0.150
-315.997	1.541	-0.138	0.099
-314.983	-200.000	-0.003	-0.031
-313.968	-200.000	0.004	0.192
-312.953	49.423	0.210	-0.197
-311.939	485.265	-0.109	0.248
-310.924	-106.795	-0.128	-0.028
-309.910	-200.000	0.014	0.119
-308.895	7.823	-0.109	0.081
-307.880	-161.903	-0.190	0.010
-306.866	305.962	-0.080	-0.148
-305.851	264.166	0.180	-0.313
-304.837	-125.720	0.108	0.016
-303.822	-102.257	-0.193	-0.046
-302.807	800.000	0.042	0.118
-301.793	-200.000	-0.019	-0.105
-300.778	123.985	-0.009	0.011
-299.764	-122.765	-0.112	-0.018
-298.749	-47.685	0.433	0.210
-297.735	0.323	-0.288	-0.205
-296.720	318.879	0.085	0.161
-295.705	-0.500	0.272	-0.193
-294.691	365.930	-0.103	-0.207
-293.676	217.408	0.170	0.271
-292.662	-200.000	-0.014	-0.195
-291.647	308.545	0.081	0.151
-290.632	-87.764	0.220	0.066
-289.618	-44.377	0.081	-0.041
-288.603	800.000	-0.089	-0.288
-287.589	-140.915	0.144	-0.015
-286.574	-47.896	-0.092	-0.045
-285.559	-9.482	-0.301	0.200
-284.545	-169.003	0.131	0.005
-283.530	-47.282	0.043	-0.021
-282.516	554.464	-0.003	0.007
-281.501	-92.909	0.259	-0.072
-280.486	460.607	0.119	0.264
-279.472	33.870	-0.239	-0.207
-278.457	-53.018	0.105	0.048
-277.443	-200.000	0.010	-0.045
-276.428	-56.910	0.211	0.093
-275.413	24.272	-0.070	-0.057
-274.399	-200.000	0.043	-0.212
-273.384	221.086	-0.051	0.082
-272.370	-129.855	0.247	-0.034
-271.355	455.535	-0.021	-0.047
-270.340	637.981	0.046	-0.116
-269.326	59.963	-0.228	-0.225
-268.311	40.033	0.063	0.056
-267.297	-147.670	0.382	0.032
-266.282	800.000	-0.009	-0.027
-265.267	28.458	-0.187	0.158
-264.253	-107.459	-0.088	-0.019
-263.238	800.000	-0.009	-0.028
-262.224	141.259	-0.069	0.091
-261.209	186.036	0.129	-0.191
-260.195	-200.000	-0.034	-0.336
-259.180	111.786	0.158	-0.190
-258.165	-200.000	-0.066	0.397
-257.151	-200.000	-0.015	0.078
-256.136	800.000	0.056	0.218
-255.122	-52.379	-0.114	-0.053
-254.107	-162.155	-0.338	0.017
-253.092	-73.858	0.085	-0.031
-252.078	106.289	-0.179	-0.212
-251.063	800.000	0.041	-0.135
-250.049	-3.650	0.099	0.069
-249.034	-16.358	-0.384	0.243
-248.019	-200.000	-0.051	-0.229
-247.005	-98.607	-0.133	-0.034
-245.990	256.323	0.080	-0.137
-244.976	-200.000	-0.064	-0.298
-243.961	-26.827	0.206	-0.120
-242.946	-37.408	-0.171	-0.091
-241.932	-136.320	-0.066	0.008
-240.917	-200.000	0.036	-0.171
-239.903	-145.574	-0.328	-0.029
-238.888	-22.834	-0.375	0.225
-237.873	-128.249	0.115	0.016
-236.859	15.222	0.466	0.364
-235.844	141.441	-0.137	-0.180
-234.830	524.158	0.167	0.391
-233.815	800.000	0.153	-0.431
-232.800	686.834	-0.029	0.075
-231.786	-200.000	0.041	0.217
-230.771	121.893	0.107	0.134
-229.757	800.000	0.174	0.512
-228.742	183.244	0.038	0.055
-227.727	34.630	0.115	-0.100
-226.713	-200.000	0.014	0.149
-225.698	72.928	-0.122	-0.127
-224.684	9.959	-0.217	0.164
-223.669	15.159	0.212	-0.166
-222.655	-91.485	0.334	0.095
-221.640	-200.000	0.090	-0.413
-220.625	-200.000	0.040	-0.246
-219.611	13.126	-0.175	0.135
-218.596	-54.090	0.282	0.128
-217.582	306.490	0.092	0.171
-216.567	587.806	0.038	-0.092
-215.552	1.331	-0.078	0.056
-214.538	250.974	-0.061	-0.102
-213.523	96.123	0.120	0.136
-212.509	-200.000	0.032	-0.173
-211.494	242.062	-0.102	-0.170
-210.479	80.144	-0.212	-0.227
-209.465	-200.000	-0.075	0.385
-208.450	201.569	-0.043	0.066
-207.436	800.000	-0.039	-0.112
-206.421	800.000	-0.137	-0.477
-205.406	2.533	0.158	0.114
-204.392	-6.356	0.137	-0.093
-203.377	-35.223	-0.068	-0.037
-202.363	494.433	-0.037	-0.084
-201.348	26.229	-0.200	0.166
-200.333	-110.496	0.280	-0.058
-199.319	131.137	0.089	0.114
-198.304	800.000	-0.059	0.201
-197.290	-74.891	0.211	0.075
-196.275	88.217	-0.061	-0.067
-195.260	-28.136	0.072	-0.041
-194.246	82.327	0.176	-0.190
-193.231	-3.338	-0.103	-0.071
-192.217	-200.000	-0.022	-0.251
-191.202	473.179	0.144	0.323
-190.187	229.762	-0.139	0.226
-189.173	206.377	0.171	0.265
-188.158	-200.000	0.011	-0.116
-187.144	-46.725	-0.110	0.054
-186.129	-110.205	0.282	0.058
-185.114	520.294	-0.115	-0.268
-184.100	-10.698	-0.241	0.158
-183.085	34.652	-0.152	0.132
-182.071	-200.000	0.003	-0.125
-181.056	-114.649	0.119	-0.023
-180.042	-200.000	0.045	0.350
-179.027	135.023	0.190	0.245
-178.012	-128.051	-0.158	0.022
-176.998	-51.520	0.169	0.079
-175.983	-200.000	0.091	0.401
-174.969	106.663	-0.167	0.197
-173.954	96.879	0.037	-0.042
-172.939	226.409	0.060	0.097
-171.925	0.008	0.206	-0.146
-170.910	-200.000	-0.018	-0.179
-169.896	-36.585	0.145	0.078
-168.881	-25.735	-0.209	0.122
-167.866	396.245	-0.175	0.363
-166.852	177.658	-0.044	0.064
-165.837	-166.329	0.119	-0.005
-164.823	80.478	0.323	0.346
-163.808	413.808	0.078	-0.164
-162.793	339.454	0.136	0.263
-161.779	-11.329	-0.035	-0.023
-160.764	-51.773	0.081	0.038
-159.750	-84.656	-0.138	0.043
-158.735	-65.301	-0.330	-0.132
-157.720	800.000	0.154	0.458
-156.706	-200.000	0.008	0.230
-155.691	8.147	-0.263	0.196
-154.677	548.211	0.069	0.165
-153.662	-169.823	-0.504	-0.018
-152.647	-96.857	-0.275	0.072
-151.633	-2.117	0.251	-0.175
-150.618	282.320	-0.227	-0.404
-149.604	-190.111	0.169	0.002
-148.589	58.080	0.186	-0.181
-147.574	590.833	-0.066	0.161
-146.560	43.716	0.272	-0.247
-145.545	-43.272	-0.169	0.085
-144.531	-103.810	-0.522	0.121
-143.516	37.965	-0.056	0.050
-142.502	-169.183	0.149	0.005
-141.487	-46.736	0.151	0.073
-140.472	242.613	0.030	0.050
-139.458	13.285	0.099	0.076
-138.443	-200.000	0.010	-0.105
-137.429	39.068	-0.046	-0.040
-136.414	-200.000	-0.042	0.336
-135.399	-101.867	-0.230	0.055
-134.385	-112.256	0.229	-0.046
-133.370	-101.922	-0.150	0.036
-132.356	-200.000	0.063	-0.318
-131.341	128.574	-0.089	0.112
-130.326	70.644	0.256	-0.262
-129.312	18.878	0.032	-0.026
-128.297	91.445	-0.222	-0.247
-127.283	-14.531	0.056	-0.036
-126.268	174.140	0.138	0.198
-125.253	-137.798	0.201	0.022
-124.239	-200.000	0.020	0.143
-123.224	-200.000	0.040	0.187
-122.210	-200.000	0.027	-0.230
-121.195	-39.338	0.029	-0.015
-120.180	-41.757	0.208	0.106
-119.166	-60.643	0.288	0.121
-118.151	8.095	0.165	0.123
-117.137	5.332	-0.153	-0.112
-116.122	531.093	-0.059	0.139
-115.107	-129.879	0.084	0.011
-114.093	-8.549	0.131	-0.087
-113.078	428.631	0.031	-0.066
-112.064	92.639	-0.213	-0.238
-111.049	-200.000	0.016	-0.126
-110.034	-154.612	0.317	0.021
-109.020	-10.620	0.080	0.052
-108.005	800.000	-0.042	-0.117
-106.991	-176.092	0.168	0.004
-105.976	354.172	0.063	-0.125
-104.962	152.304	0.092	0.124
-103.947	-47.516	-0.123	0.059
-102.932	102.162	-0.154	-0.178
-101.918	245.888	-0.067	-0.112
-100.903	-9.164	-0.221	-0.146
-99.889	-26.407	-0.343	-0.199
-98.874	-200.000	0.015	0.275
-97.859	-200.000	0.020	-0.277
-96.845	60.734	0.302	-0.297
-95.830	78.088	-0.078	-0.083
-94.816	-163.897	-0.121	0.006
-93.801	-113.014	-0.338	0.066
-92.786	-28.103	0.165	0.095
-91.772	24.403	-0.121	-0.099
-90.757	-29.615	0.183	0.104
-89.743	159.695	-0.310	-0.428
-88.728	-200.000	-0.010	-0.171
-87.713	-200.000	-0.031	0.162
-86.699	-102.042	-0.123	-0.029
-85.684	-91.098	0.483	-0.137
-84.670	30.559	0.036	0.031
-83.655	-134.017	0.211	-0.026
-82.640	1.272	-0.232	0.165
-81.626	-75.894	0.320	0.112
-80.611	428.891	-0.126	0.270
-79.597	-165.294	0.069	-0.003
-78.582	39.696	-0.240	0.213
-77.567	328.955	-0.091	0.173
-76.553	-200.000	0.042	-0.234
-75.538	57.887	-0.162	-0.157
-74.524	-200.000	-0.002	0.196
-73.509	-134.690	-0.349	-0.042
-72.494	-135.165	-0.395	-0.047
-71.480	-27.332	0.051	-0.030
-70.465	-57.641	0.143	0.062
-69.451	262.122	0.247	-0.423
-68.436	86.541	-0.131	-0.143
-67.422	-119.215	-0.315	0.054
-66.407	-200.000	0.016	0.180
-65.392	-200.000	0.021	0.262
-64.378	800.000	-0.036	0.100
-63.363	-141.249	0.282	-0.028
-62.349	-190.903	-0.206	-0.002
-61.334	78.003	-0.803	-0.848
-60.319	-88.101	0.564	0.167
-59.305	800.000	-0.203	-0.842
-58.290	86.165	0.679	0.740
-57.276	800.000	0.342	1.422
-56.261	-200.000	96.702	568.367
-55.246	617.343	1406.412	3491.208
-54.232	182.714	2629.943	3837.591
-53.217	120.002	2199.908	2698.315
-52.203	45.829	1643.976	1503.501
-51.188	37.612	1375.975	1207.638
-50.173	34.293	1333.014	1149.897
-49.159	55.757	1382.034	1324.551
-48.144	59.643	1399.773	1365.345
-47.130	37.925	1353.825	1189.923
-46.115	34.307	1336.092	1152.449
-45.100	34.124	1331.474	1147.322
-44.086	33.975	1329.090	1144.321
-43.071	33.865	1327.120	1141.920
-42.057	33.957	1324.808	1140.438
-41.042	33.974	1322.902	1138.855
-40.027	34.016	1321.362	1137.735
-39.013	34.004	1319.521	1136.032
-37.998	34.029	1317.591	1134.476
-36.984	34.095	1315.823	1133.301
-35.969	34.125	1314.081	1131.934
-34.954	34.162	1312.177	1130.467
-33.940	34.134	1311.069	1129.303
-32.925	34.147	1309.758	1128.206
-31.911	34.067	1308.650	1126.731
-30.896	34.165	1306.852	1125.718
-29.881	34.150	1305.378	1124.316
-28.867	34.149	1304.095	1123.161
-27.852	34.322	1301.963	1122.302
-26.838	34.158	1301.019	1120.474
-25.823	34.197	1299.631	1119.463
-24.809	34.181	1298.047	1117.962
-23.794	34.222	1296.823	1117.104
-22.779	34.116	1295.814	1115.567
-21.765	34.119	1294.353	1114.286
-20.750	34.060	1293.169	1112.874
-19.736	34.057	1292.062	1111.864
-18.721	33.899	1290.713	1109.733
-17.706	33.998	1289.619	1109.330
-16.692	33.986	1288.579	1108.317
-15.677	34.043	1286.798	1107.076
-14.663	33.991	1285.980	1106.025
-13.648	33.966	1285.069	1105.053
-12.633	34.022	1283.979	1104.393
-11.619	34.004	1283.029	1103.432
-10.604	34.017	1282.198	1102.748
-9.590	33.984	1281.158	1101.618
-8.575	33.946	1280.179	1100.511
-7.560	34.037	1279.077	1100.046
-6.546	33.880	1278.615	1098.701
-5.531	33.915	1277.907	1098.250
-4.517	33.940	1276.782	1097.381
-3.502	33.848	1276.047	1096.179
-2.487	34.011	1274.772	1095.976
-1.473	33.999	1270.699	1092.366
-0.458	32.923	1256.146	1073.693
0.556	31.302	1236.833	1031.922
1.571	27.000	1241.570	1011.861
2.586	25.472	1256.078	1014.972
3.600	23.794	1243.233	995.115
4.615	17.921	1169.316	904.842
5.629	9.163	1092.892	802.067
6.644	4.973	1071.906	766.042
7.659	4.747	1069.057	762.826
8.673	4.435	1068.184	760.609
9.688	4.367	1066.346	758.900
10.702	5.097	1065.536	761.820
11.717	10.670	1073.605	794.876
12.731	19.049	1085.840	845.196
13.746	22.476	1088.784	864.257
14.761	22.187	1088.011	862.151
15.775	21.295	1086.547	856.541
16.790	20.367	1084.058	849.968
17.804	19.634	1082.882	845.384
18.819	19.362	1081.777	843.116
19.834	19.341	1080.728	842.121
20.848	19.076	1080.536	840.599
21.863	18.935	1079.608	839.118
22.877	18.682	1078.864	837.228
23.892	18.733	1078.275	836.946
24.907	18.736	1077.249	836.091
25.921	18.641	1076.293	834.815
26.936	18.612	1074.987	833.589
27.950	18.778	1072.934	832.724
28.965	18.953	1071.695	832.537
29.980	18.943	1070.640	831.594
30.994	19.098	1069.561	831.434
32.009	19.204	1068.578	831.105
33.023	19.096	1067.752	829.871
34.038	18.995	1066.133	828.055
35.053	18.887	1065.629	827.069
36.067	18.837	1064.659	826.001
37.082	18.759	1064.261	825.244
38.096	18.954	1063.149	825.244
39.111	18.975	1062.667	824.900
40.126	18.767	1061.161	822.659
41.140	18.591	1059.359	820.351
42.155	18.519	1058.288	819.105
43.169	18.471	1057.203	817.963
44.184	18.493	1056.635	817.554
45.199	18.385	1055.925	816.418
46.213	18.587	1054.803	816.443
47.228	18.784	1054.464	817.044
48.242	18.940	1052.907	816.507
49.257	18.964	1051.887	815.758
50.271	18.957	1051.067	815.018
51.286	18.886	1050.549	814.205
52.301	18.818	1049.671	813.132
53.315	18.759	1048.157	811.609
54.330	18.695	1047.077	810.396
55.344	18.682	1046.202	809.589
56.359	18.662	1045.650	808.995
57.374	18.571	1044.613	807.692
58.388	18.330	1043.818	805.871
59.403	18.280	1043.026	804.952
60.417	18.459	1042.208	805.091
61.432	18.474	1040.855	804.044
62.447	18.267	1040.587	802.796
63.461	18.149	1040.016	801.733
64.476	18.174	1038.860	800.887
65.490	18.178	1038.289	800.393
66.505	18.313	1037.406	800.276
67.520	18.304	1036.971	799.824
68.534	18.248	1036.015	798.756
69.549	18.217	1035.552	798.184
70.563	18.218	1034.034	796.949
71.578	18.100	1033.388	795.831
72.593	18.168	1032.544	795.425
73.607	18.060	1032.144	794.548
74.622	18.091	1031.162	793.862
75.636	18.093	1030.801	793.524
76.651	18.126	1030.187	793.135
77.666	18.105	1029.427	792.380
78.680	18.301	1028.446	792.466
79.695	18.180	1028.088	791.558
80.709	18.318	1027.379	791.579
81.724	18.572	1026.517	792.018
82.739	18.521	1026.332	791.572
83.753	18.823	1025.351	792.138
84.768	19.088	1024.864	792.911
85.782	19.300	1023.882	793.057
86.797	19.237	1023.182	792.157
87.812	18.858	1022.202	789.584
88.826	18.988	1021.279	789.399
89.841	18.988	1020.176	788.477
90.855	19.094	1019.214	788.147
91.870	19.187	1018.375	787.856
92.884	19.004	1017.431	786.219
93.899	19.105	1016.384	785.802
94.914	19.083	1015.799	785.179
95.928	19.104	1015.089	784.657
96.943	18.934	1014.153	783.089
97.957	18.977	1013.544	782.748
98.972	18.893	1012.750	781.683
99.987	18.902	1012.113	781.164
101.001	19.021	1010.662	780.514
102.016	18.905	1010.080	779.468
103.030	19.086	1009.034	779.414
104.045	19.089	1008.677	779.083
105.060	18.985	1007.243	777.433
106.074	18.638	1006.233	775.019
107.089	18.519	1004.675	773.212
108.103	18.312	1003.760	771.508
109.118	18.275	1002.770	770.515
110.133	18.369	1001.681	770.029
111.147	18.308	1000.667	768.907
112.162	18.341	1000.518	768.873
113.176	18.415	1000.096	768.815
114.191	18.469	999.125	768.241
115.206	18.570	997.983	767.748
116.220	18.477	997.024	766.526
117.235	18.532	995.891	765.835
118.249	18.439	995.348	764.932
119.264	18.422	994.721	764.309
120.279	18.362	993.938	763.373
121.293	18.264	993.366	762.427
122.308	18.239	992.172	761.332
123.322	18.173	990.981	760.059
124.337	18.037	990.103	758.712
125.352	18.193	988.823	758.358
126.366	18.197	987.655	757.412
127.381	18.241	986.567	756.706
128.395	18.156	986.468	756.186
129.410	18.358	984.935	755.836
130.424	18.358	984.410	755.365
131.439	18.468	983.963	755.441
132.454	18.595	983.139	755.303
133.468	18.530	982.620	754.550
134.483	18.652	981.379	754.066
135.497	18.538	980.348	752.706
136.512	18.644	979.606	752.537
137.527	18.579	979.129	751.816
138.541	18.585	977.910	750.840
139.556	18.652	977.755	750.949
140.570	18.806	977.099	751.052
141.585	18.983	976.184	751.054
142.600	19.014	975.296	750.440
143.614	19.144	974.525	750.349
144.629	19.153	974.073	749.975
145.643	19.119	972.754	748.744
146.658	18.826	971.720	746.607
147.673	18.794	970.341	745.344
148.687	18.758	969.351	744.360
149.702	18.512	968.982	742.944
150.716	18.593	967.935	742.429
151.731	18.693	967.132	742.179
152.746	18.608	966.663	741.388
153.760	18.701	965.955	741.181
154.775	18.779	965.926	741.427
155.789	18.783	965.403	740.976
156.804	18.824	964.361	740.290
157.819	19.009	963.328	740.228
158.833	19.191	962.460	740.277
159.848	19.183	962.217	739.991
160.862	18.999	960.934	738.149
161.877	18.829	959.510	736.259
162.892	18.459	959.114	734.309
163.906	18.529	957.617	733.394
164.921	18.631	956.822	733.158
165.935	18.684	956.417	733.010
166.950	18.849	954.986	732.551
167.964	18.790	953.902	731.403
168.979	18.633	953.597	730.436
169.994	18.543	952.905	729.456
171.008	18.820	951.657	729.614
172.023	19.000	951.444	730.153
173.037	19.081	951.076	730.148
174.052	19.004	949.906	728.860
175.067	18.809	948.716	727.056
176.081	18.598	948.293	725.776
177.096	18.629	948.075	725.677
178.110	18.712	947.546	725.558
179.125	18.731	946.779	724.984
180.140	18.725	946.503	724.687
181.154	18.948	946.140	725.282
182.169	19.083	945.734	725.478
183.183	19.021	945.072	724.642
184.198	19.174	944.080	724.462
185.213	19.127	943.579	723.818
186.227	19.172	942.784	723.333
187.242	19.230	942.284	723.129
188.256	19.392	941.657	723.264
189.271	19.379	940.864	722.536
190.286	18.972	939.758	719.916
191.300	18.548	939.268	717.703
192.315	18.497	938.109	716.543
193.329	18.567	937.910	716.618
194.344	18.871	937.169	717.257
195.359	18.774	936.682	716.416
196.373	19.155	936.153	717.537
197.388	19.166	935.583	717.085
198.402	19.282	935.378	717.343
199.417	19.430	934.774	717.435
200.432	19.530	934.226	717.365
201.446	19.565	934.177	717.409
202.461	19.731	933.734	717.694
203.475	19.659	932.226	716.174
204.490	19.410	931.555	714.565
205.504	19.230	930.892	713.248
206.519	19.373	929.759	712.908
207.534	19.077	929.603	711.501
208.548	19.194	928.863	711.353
209.563	19.188	928.109	710.688
210.577	19.338	927.310	710.633
211.592	19.537	927.083	711.219
212.607	19.652	926.492	711.175
213.621	19.528	925.713	710.005
214.636	19.463	924.841	709.004
215.650	19.630	923.647	708.712
216.665	19.729	923.306	708.792
217.680	19.667	923.169	708.369
218.694	19.766	922.421	708.141
219.709	19.610	922.116	707.203
220.723	19.573	921.152	706.251
221.738	19.684	920.195	705.906
222.753	19.638	919.685	705.267
223.767	19.607	919.279	704.767
224.782	19.903	918.642	705.424
225.796	19.870	918.260	704.932
226.811	19.840	917.324	704.028
227.826	19.583	916.632	702.392
228.840	19.460	915.988	701.334
229.855	19.472	915.418	700.885
230.869	19.434	914.248	699.774
231.884	19.409	914.065	699.471
232.899	19.573	912.458	698.843
233.913	19.322	912.149	697.527
234.928	19.377	911.315	697.050
235.942	19.327	910.407	696.093
236.957	19.341	910.448	696.119
237.972	19.331	909.753	695.485
238.986	19.333	909.092	694.928
240.001	19.304	908.465	694.270
241.015	19.477	908.016	694.560
242.030	19.463	907.155	693.784
243.045	19.656	906.759	694.197
244.059	19.508	906.120	693.052
245.074	19.638	905.653	693.154
246.088	19.646	905.174	692.759
247.103	19.842	904.407	692.895
248.117	19.920	904.213	692.998
249.132	20.277	903.784	694.035
250.147	20.354	903.430	694.011
251.161	20.462	902.923	693.992
252.176	20.418	902.258	693.243
253.190	20.423	901.612	692.707
254.205	20.621	900.787	692.798
255.220	20.472	899.844	691.420
256.234	20.543	899.268	691.200
257.249	20.510	898.916	690.734
258.263	20.403	897.863	689.441
259.278	20.377	897.242	688.801
260.293	20.554	896.698	689.021
261.307	20.644	896.404	689.092
262.322	20.843	895.530	689.148
263.336	20.646	894.783	687.734
264.351	20.518	893.988	686.557
265.366	20.696	893.572	686.877
266.380	20.600	893.082	686.060
267.395	20.531	891.646	684.627
268.409	20.578	890.858	684.143
269.424	20.494	890.294	683.323
270.439	20.583	889.445	682.957
271.453	20.493	888.497	681.818
272.468	20.311	888.342	680.924
273.482	20.422	887.770	680.862
274.497	20.476	887.355	680.692
275.512	20.281	886.664	679.338
276.526	20.393	886.067	679.261
277.541	20.503	885.917	679.514
278.555	20.637	885.315	679.518
279.570	20.854	884.707	679.837
280.585	20.786	884.117	679.058
281.599	20.606	883.177	677.573
282.614	20.511	882.547	676.662
283.628	20.563	882.100	676.460
284.643	20.523	881.302	675.632
285.657	20.589	880.737	675.397
286.672	20.522	880.085	674.579
287.687	20.652	879.039	674.219
288.701	20.491	878.848	673.390
289.716	20.585	878.219	673.212
290.730	20.625	877.523	672.775
291.745	20.739	876.954	672.720
292.760	20.758	876.505	672.388
293.774	20.960	875.840	672.598
294.789	20.859	875.226	671.678
295.803	20.704	874.603	670.545
296.818	20.550	873.634	669.148
297.833	20.536	872.980	668.534
298.847	20.619	872.674	668.560
299.862	20.576	872.246	668.008
300.876	20.872	871.378	668.421
301.891	20.923	871.085	668.331
302.906	21.110	870.801	668.770
303.920	21.219	870.361	668.793
304.935	21.266	869.689	668.395
305.949	21.044	869.129	667.057
306.964	20.942	868.263	665.943
307.979	20.959	867.588	665.432
308.993	21.035	867.134	665.313
310.008	21.059	866.800	665.093
311.022	21.049	865.898	664.303
312.037	20.874	865.054	662.932
313.052	20.719	864.939	662.193
314.066	20.661	863.633	660.915
315.081	20.458	863.522	660.001
316.095	20.641	862.695	660.004
317.110	20.750	862.019	659.842
318.125	20.748	861.673	659.511
319.139	20.608	861.197	658.559
320.154	20.722	860.706	658.557
321.168	20.808	859.783	658.118
322.183	20.795	859.643	657.903
323.197	20.870	858.824	657.498
324.212	20.953	858.377	657.414
325.227	20.831	857.752	656.415
326.241	20.733	857.573	655.852
327.256	20.750	857.035	655.446
328.270	20.740	856.341	654.820
329.285	20.674	855.519	653.884
330.300	20.592	855.126	653.220
331.314	20.741	854.497	653.240
332.329	20.965	854.113	653.730
333.343	21.022	853.683	653.555
334.358	21.102	853.350	653.543
335.373	21.160	853.056	653.476
336.387	21.138	852.940	653.246
337.402	21.213	852.801	653.365
338.416	21.363	852.392	653.556
339.431	21.498	851.752	653.508
340.446	21.618	851.293	653.548
341.460	21.624	850.837	653.162
342.475	21.700	850.753	653.324
343.489	21.682	850.150	652.737
344.504	21.782	849.747	652.740
345.519	21.863	849.304	652.644
346.533	21.817	848.626	651.893
347.548	21.514	848.024	650.248
348.562	21.246	847.435	648.743
349.577	21.132	846.892	647.849
350.592	21.254	845.629	647.276
351.606	21.078	845.266	646.289
352.621	21.326	844.366	646.461
353.635	21.319	843.922	646.037
354.650	21.339	843.380	645.639
355.665	21.402	842.733	645.320
356.679	21.582	842.075	645.424
357.694	21.533	841.676	644.880
358.708	21.433	841.065	643.988
359.723	21.510	840.103	643.475
360.738	21.446	839.566	642.771
361.752	21.493	839.158	642.576
362.767	21.755	839.127	643.456
363.781	21.722	838.621	642.891
364.796	21.839	838.131	642.886
365.810	22.114	837.495	643.349
366.825	22.038	837.469	642.993
367.840	21.964	836.976	642.287
368.854	21.708	836.410	640.861
369.869	21.919	835.395	640.798
370.883	21.957	835.176	640.711
371.898	21.946	835.139	640.587
372.913	21.940	834.783	640.234
373.927	21.855	833.950	639.229
374.942	22.084	833.230	639.453
375.956	22.105	833.090	639.366
376.971	22.130	832.850	639.217
377.986	22.277	832.410	639.358
379.000	22.342	831.732	639.016
380.015	22.081	831.430	637.779
381.029	22.170	830.593	637.403
382.044	22.013	830.088	636.391
383.059	22.285	829.384	636.782
384.073	22.173	828.425	635.583
385.088	21.858	828.259	634.258
386.102	21.801	827.535	633.443
387.117	21.621	827.403	632.637
388.132	21.687	826.486	632.117
389.146	22.015	825.623	632.584
390.161	22.186	825.191	632.812
391.175	22.273	824.791	632.760
392.190	22.043	824.444	631.610
393.205	21.838	824.008	630.485
394.219	21.938	823.345	630.282
395.234	21.846	823.010	629.640
396.248	21.617	822.348	628.256
397.263	21.709	821.811	628.118
398.278	21.642	821.458	627.555
399.292	21.747	821.099	627.600
400.307	21.738	820.422	626.995
401.321	21.849	820.263	627.215
402.336	21.913	819.612	626.890
403.350	22.077	819.348	627.220
404.365	22.087	819.161	627.057
405.380	22.169	818.751	626.980
406.394	22.366	818.349	627.317
407.409	22.274	817.923	626.609
408.423	22.365	817.416	626.489
409.438	22.692	816.932	627.223
410.453	22.507	816.735	626.361
411.467	22.611	816.095	626.184
412.482	22.688	815.776	626.156
413.496	22.633	815.465	625.668
414.511	22.656	815.225	625.511
415.526	22.591	814.673	624.801
416.540	22.573	813.964	624.137
417.555	22.626	813.691	624.058
418.569	22.593	813.343	623.622
419.584	22.763	812.751	623.714
420.599	22.670	812.336	623.010
421.613	160.177	1370.835	1790.117
422.628	139.453	1452.208	1790.221
