DTS Sentinel unit serial number:	SN413079Multiplexer serial number:	ORYXHardware model number:	OX4-SRSoftware version number:	ORYX F/W v4.00 Oryx Data Collector v3.7.2.0data status	okinstallation	princeton_trtdifferential loss correction	single-endedforward channel	channel 1reverse channel	N/Adate	2019/09/14time	23:54:35forward acquisition time	60.00reverse acquisition time	0.00gamma	496.2192k internal	0.2320k external	0.2320temperature offset calibration	0.9990default loss term (dB/km)	0.3790temperature slope calibration	1.0000multiplexer offset coefficient	1.0000multiplexer slope coefficient	1.0000fibre end	0.00T internal ref (°C)	32.25T ext. ref 1 (°C)	4.63T ext. ref 2 (°C)	27.07length (m)	temperature (°C)	Stokes	anti-Stokes-747.200	234.156	0.180	0.299
-746.185	-200.000	0.067	0.329
-745.171	-89.002	-0.225	-0.067
-744.156	-96.125	-0.053	0.014
-743.142	278.665	0.091	0.164
-742.127	-200.000	-0.023	0.293
-741.112	464.059	0.104	0.235
-740.098	-82.131	0.024	0.008
-739.083	-171.063	-0.321	0.011
-738.069	326.125	-0.017	0.033
-737.054	-167.312	-0.090	-0.004
-736.039	-67.577	-0.255	0.101
-735.025	74.368	0.018	-0.019
-734.010	-69.914	-0.191	0.074
-732.996	-22.469	-0.209	0.128
-731.981	-200.000	0.020	-0.309
-730.966	14.466	0.018	-0.014
-729.952	-152.349	-0.448	0.033
-728.937	800.000	0.045	0.169
-727.923	315.898	-0.057	-0.110
-726.908	34.022	-0.163	0.143
-725.894	-39.446	-0.378	-0.200
-724.879	800.000	0.112	-0.316
-723.864	800.000	0.018	-0.053
-722.850	61.107	0.198	-0.199
-721.835	-68.464	-0.333	-0.131
-720.821	46.319	0.186	-0.175
-719.806	-137.670	-0.213	-0.024
-718.791	-142.157	-0.264	0.026
-717.777	-119.318	-0.224	0.039
-716.762	48.102	0.106	-0.100
-715.748	584.876	-0.088	-0.219
-714.733	6.389	-0.150	0.113
-713.718	28.718	-0.287	-0.245
-712.704	-33.458	0.280	-0.156
-711.689	-125.576	0.229	-0.035
-710.675	86.544	0.049	-0.054
-709.660	214.323	-0.063	0.101
-708.645	-200.000	-0.041	-0.205
-707.631	-76.185	0.103	-0.037
-706.616	72.924	0.233	0.245
-705.602	-41.315	0.192	-0.100
-704.587	-200.000	-0.091	-0.405
-703.572	-200.000	0.011	-0.401
-702.558	800.000	-0.007	0.030
-701.543	416.997	0.086	0.185
-700.529	-148.443	0.135	0.011
-699.514	-100.439	0.078	0.020
-698.499	99.854	-0.182	-0.212
-697.485	-185.929	-0.122	-0.002
-696.470	-25.146	0.341	-0.204
-695.456	-118.111	0.326	-0.059
-694.441	4.337	0.205	-0.152
-693.426	800.000	0.073	0.309
-692.412	157.642	-0.140	-0.196
-691.397	800.000	-0.089	-0.278
-690.383	-122.008	0.025	-0.004
-689.368	34.191	0.177	-0.156
-688.354	-57.036	0.210	-0.094
-687.339	-14.497	0.181	-0.117
-686.324	33.734	-0.128	-0.113
-685.310	-101.943	0.356	0.087
-684.295	-65.345	0.231	-0.094
-683.281	-27.471	-0.116	0.068
-682.266	183.830	0.055	0.083
-681.251	294.120	-0.026	-0.049
-680.237	720.312	0.118	-0.316
-679.222	83.709	0.193	-0.212
-678.208	-200.000	-0.047	0.424
-677.193	-40.752	-0.464	0.242
-676.178	780.621	0.045	-0.125
-675.164	23.692	-0.176	0.146
-674.149	374.902	-0.053	-0.109
-673.135	-90.602	-0.096	-0.028
-672.120	800.000	-0.052	0.216
-671.105	-125.901	-0.156	-0.024
-670.091	-200.000	0.003	0.044
-669.076	-35.521	0.093	0.051
-668.062	63.257	-0.037	0.037
-667.047	-158.565	0.284	-0.017
-666.032	81.850	-0.402	-0.438
-665.018	800.000	-0.034	-0.120
-664.003	-55.569	-0.123	0.055
-662.989	-200.000	0.017	-0.073
-661.974	-200.000	-0.020	-0.168
-660.959	-73.686	0.426	-0.156
-659.945	40.477	-0.161	-0.146
-658.930	-200.000	-0.037	-0.203
-657.916	371.954	0.106	-0.216
-656.901	-159.363	-0.259	-0.015
-655.886	800.000	0.017	0.058
-654.872	128.637	0.095	0.122
-653.857	-93.912	-0.233	-0.065
-652.843	-111.011	-0.088	0.018
-651.828	-200.000	-0.008	-0.155
-650.814	800.000	-0.095	-0.379
-649.799	22.987	-0.212	0.176
-648.784	-87.261	-0.260	0.079
-647.770	32.723	-0.033	-0.029
-646.755	189.433	-0.097	0.147
-645.741	618.521	0.105	0.265
-644.726	136.462	-0.056	-0.074
-643.711	375.379	0.130	-0.268
-642.697	-51.589	-0.328	0.154
-641.682	33.885	-0.115	-0.101
-640.668	-35.299	-0.356	-0.195
-639.653	74.304	-0.107	0.113
-638.638	585.969	0.076	-0.189
-637.624	7.267	-0.369	-0.278
-636.609	433.551	-0.083	-0.181
-635.595	34.844	0.119	0.105
-634.580	-87.769	0.174	-0.053
-633.565	279.839	-0.168	0.302
-632.551	-200.000	-0.012	-0.121
-631.536	-200.000	-0.001	-0.100
-630.522	-145.421	-0.160	0.015
-629.507	-32.171	0.129	-0.073
-628.492	-48.675	-0.139	-0.067
-627.478	-132.676	-0.252	-0.032
-626.463	385.653	0.130	-0.271
-625.449	108.388	0.018	0.022
-624.434	800.000	-0.067	0.215
-623.419	28.722	-0.121	0.103
-622.405	26.648	-0.171	0.144
-621.390	800.000	-0.115	0.388
-620.376	-125.394	0.384	0.059
-619.361	126.129	0.172	-0.219
-618.346	41.883	0.141	0.129
-617.332	-46.494	-0.085	-0.042
-616.317	-79.152	0.447	0.153
-615.303	-200.000	-0.016	-0.082
-614.288	362.702	-0.104	-0.209
-613.273	-83.403	-0.228	0.074
-612.259	3.833	0.058	0.043
-611.244	6.479	0.045	-0.034
-610.230	93.901	0.166	-0.190
-609.215	-200.000	-0.019	0.128
-608.201	-113.359	-0.241	0.048
-607.186	-152.529	-0.455	-0.033
-606.171	30.763	-0.151	-0.130
-605.157	-79.167	0.150	0.051
-604.142	-28.631	-0.148	0.085
-603.128	71.093	-0.175	-0.183
-602.113	800.000	-0.068	0.238
-601.098	-54.265	-0.181	-0.083
-600.084	-18.360	0.269	0.169
-599.069	-5.256	-0.067	-0.046
-598.055	-94.492	0.159	-0.044
-597.040	48.680	-0.103	-0.097
-596.025	113.902	-0.147	0.180
-595.011	-200.000	-0.001	-0.046
-593.996	64.693	-0.312	0.317
-592.982	-200.000	-0.005	0.314
-591.967	15.002	-0.263	-0.207
-590.952	3.428	-0.164	-0.120
-589.938	800.000	-0.026	0.101
-588.923	-181.839	0.176	-0.003
-587.909	-200.000	-0.048	-0.224
-586.894	-200.000	0.068	0.562
-585.879	102.932	-0.097	-0.115
-584.865	42.770	0.064	-0.059
-583.850	-70.902	-0.096	-0.036
-582.836	800.000	-0.047	0.158
-581.821	342.524	0.049	0.097
-580.806	-48.687	0.068	-0.033
-579.792	7.319	-0.057	-0.043
-578.777	7.910	0.214	0.161
-577.763	-1.978	0.136	-0.096
-576.748	800.000	0.048	0.142
-575.733	-103.383	0.178	-0.042
-574.719	726.943	-0.057	-0.153
-573.704	168.840	-0.108	0.155
-572.690	-94.955	-0.091	-0.025
-571.675	50.258	0.138	-0.131
-570.661	686.431	0.165	-0.433
-569.646	13.160	-0.145	0.113
-568.631	380.919	-0.082	-0.169
-567.617	-200.000	-0.008	0.183
-566.602	-200.000	0.024	-0.140
-565.588	33.218	-0.033	0.028
-564.573	322.569	-0.249	0.476
-563.558	15.289	-0.255	0.201
-562.544	800.000	0.076	-0.300
-561.529	179.176	0.112	0.165
-560.515	421.506	0.037	0.080
-559.500	-200.000	-0.020	-0.214
-558.485	-30.867	-0.294	-0.167
-557.471	52.219	-0.124	-0.119
-556.456	39.189	-0.127	-0.114
-555.442	800.000	0.140	-0.441
-554.427	50.283	0.284	-0.269
-553.412	-63.931	-0.092	-0.038
-552.398	-200.000	0.057	-0.338
-551.383	230.656	0.062	-0.103
-550.369	568.046	-0.023	0.057
-549.354	184.967	-0.136	-0.202
-548.339	12.652	0.194	-0.150
-547.325	-122.856	-0.153	-0.025
-546.310	-141.247	-0.313	0.032
-545.296	-200.000	0.053	0.393
-544.281	504.977	-0.099	0.230
-543.266	81.768	-0.152	-0.165
-542.252	-83.176	-0.089	-0.029
-541.237	-108.325	-0.363	0.079
-540.223	-200.000	0.038	0.256
-539.208	-9.712	-0.090	0.060
-538.193	-200.000	-0.064	-0.301
-537.179	800.000	-0.028	-0.089
-536.164	567.395	0.049	0.119
-535.150	-129.858	-0.212	-0.029
-534.135	-23.163	0.178	-0.108
-533.121	1.256	0.071	-0.051
-532.106	-35.104	0.206	-0.113
-531.091	-110.480	0.135	-0.028
-530.077	122.934	-0.185	0.233
-529.062	-127.709	0.250	0.036
-528.048	-44.885	0.239	-0.119
-527.033	315.594	-0.090	-0.170
-526.018	-200.000	0.109	-0.500
-525.004	-75.368	0.322	-0.115
-523.989	34.106	0.204	0.178
-522.975	-200.000	-0.032	0.318
-521.960	-83.807	-0.105	-0.034
-520.945	21.009	0.120	-0.098
-519.931	-172.913	0.366	-0.011
-518.916	-63.297	0.329	0.136
-517.902	39.282	-0.143	-0.128
-516.887	800.000	0.061	0.213
-515.872	-60.450	0.096	0.041
-514.858	565.929	-0.091	0.222
-513.843	306.101	-0.110	0.204
-512.829	207.842	-0.180	0.282
-511.814	150.834	0.246	0.335
-510.799	93.572	-0.179	0.203
-509.785	619.774	0.054	-0.136
-508.770	-200.000	0.002	0.055
-507.756	8.975	0.089	-0.068
-506.741	-25.045	0.289	-0.172
-505.726	-27.909	0.078	-0.045
-504.712	-200.000	0.022	-0.159
-503.697	88.922	0.246	-0.274
-502.683	-200.000	-0.037	-0.263
-501.668	-145.640	-0.084	-0.008
-500.653	-56.331	-0.346	0.154
-499.639	322.193	0.239	0.456
-498.624	221.136	-0.157	-0.253
-497.610	393.476	-0.101	-0.210
-496.595	296.312	-0.070	-0.128
-495.581	-52.171	0.115	-0.053
-494.566	-200.000	0.008	0.110
-493.551	-126.372	-0.198	0.030
-492.537	-200.000	0.041	0.220
-491.522	-200.000	-0.020	-0.265
-490.508	-11.226	0.173	-0.114
-489.493	561.331	0.161	-0.390
-488.478	-200.000	0.018	0.321
-487.464	-53.087	0.091	-0.042
-486.449	-153.038	-0.391	0.028
-485.435	0.943	0.127	0.091
-484.420	210.640	0.141	0.221
-483.405	-200.000	-0.020	-0.130
-482.391	-12.519	0.318	-0.208
-481.376	-103.563	-0.116	0.027
-480.362	800.000	0.102	0.301
-479.347	-200.000	0.076	-0.423
-478.332	-64.298	0.340	0.138
-477.318	43.618	0.120	0.110
-476.303	-197.990	-0.156	-0.001
-475.289	-21.860	0.323	-0.196
-474.274	-182.834	-0.225	-0.004
-473.259	-200.000	0.010	0.279
-472.245	135.187	-0.189	0.246
-471.230	-146.113	0.279	-0.025
-470.216	-200.000	0.023	0.102
-469.201	-200.000	0.029	0.243
-468.186	-47.646	-0.223	0.108
-467.172	-74.377	0.170	0.061
-466.157	-69.155	0.117	-0.045
-465.143	800.000	0.053	0.194
-464.128	800.000	0.018	-0.071
-463.113	-10.204	0.112	0.074
-462.099	179.671	-0.046	-0.067
-461.084	800.000	-0.054	0.233
-460.070	-200.000	-0.047	-0.350
-459.055	-200.000	-0.037	0.172
-458.040	-200.000	-0.041	-0.351
-457.026	-167.977	-0.155	-0.006
-456.011	800.000	-0.029	0.104
-454.997	31.073	0.153	0.131
-453.982	176.623	-0.148	-0.216
-452.968	-179.400	-0.197	0.004
-451.953	755.352	-0.040	-0.107
-450.938	497.762	-0.097	-0.224
-449.924	-22.029	-0.315	0.191
-448.909	-32.624	-0.063	-0.035
-447.895	138.406	0.169	-0.221
-446.880	-136.449	0.202	-0.023
-445.865	800.000	0.054	0.200
-444.851	-38.704	-0.156	0.082
-443.836	192.549	0.099	0.149
-442.822	-128.355	-0.251	-0.036
-441.807	79.156	-0.042	-0.045
-440.792	359.216	-0.099	-0.199
-439.778	-133.795	0.152	-0.019
-438.763	31.160	-0.333	-0.285
-437.749	800.000	0.047	-0.161
-436.734	-2.768	0.120	-0.084
-435.719	-106.210	0.187	0.042
-434.705	10.623	0.264	0.201
-433.690	-200.000	-0.005	0.227
-432.676	-74.521	-0.319	-0.115
-431.661	800.000	0.045	-0.147
-430.646	101.353	-0.098	0.114
-429.632	-103.273	-0.086	-0.020
-428.617	295.607	-0.047	-0.087
-427.603	187.100	0.136	0.203
-426.588	64.909	0.077	-0.078
-425.573	-200.000	-0.024	0.124
-424.559	-200.000	-0.018	0.237
-423.544	-4.886	-0.066	-0.045
-422.530	-12.909	0.096	0.062
-421.515	-134.231	-0.147	0.018
-420.500	-8.266	-0.270	0.181
-419.486	124.416	-0.187	0.235
-418.471	186.627	-0.154	0.229
-417.457	-154.625	0.320	-0.021
-416.442	92.696	0.361	-0.407
-415.428	37.398	0.085	-0.075
-414.413	-134.209	0.012	-0.001
-413.398	-172.631	-0.131	0.004
-412.384	-113.890	0.281	0.055
-411.369	800.000	-0.089	0.272
-410.355	800.000	-0.060	0.167
-409.340	-45.531	-0.113	-0.056
-408.325	-29.177	0.341	0.195
-407.311	-200.000	-0.004	-0.205
-406.296	-6.430	-0.108	-0.074
-405.282	-200.000	0.010	-0.134
-404.267	-130.762	0.192	-0.026
-403.252	-97.081	0.017	0.004
-402.238	-182.924	-0.268	0.005
-401.223	45.814	-0.076	-0.071
-400.209	134.051	-0.163	-0.210
-399.194	-200.000	-0.004	-0.208
-398.179	-28.840	-0.245	-0.141
-397.165	-152.916	-0.159	0.011
-396.150	40.684	0.191	-0.172
-395.136	-31.503	0.083	-0.046
-394.121	-200.000	-0.030	-0.244
-393.106	35.522	0.099	-0.086
-392.092	-70.118	0.173	-0.066
-391.077	93.652	0.304	0.344
-390.063	6.295	0.286	0.212
-389.048	-29.875	0.134	0.076
-388.033	800.000	0.101	0.306
-387.019	-37.817	0.291	-0.154
-386.004	-67.275	0.019	-0.008
-384.990	-200.000	0.009	0.306
-383.975	375.837	0.017	-0.035
-382.960	800.000	-0.089	-0.252
-381.946	109.907	0.156	-0.186
-380.931	-118.052	0.148	-0.026
-379.917	-200.000	0.059	-0.306
-378.902	-123.023	-0.191	-0.031
-377.888	119.973	-0.078	0.097
-376.873	77.285	-0.094	-0.100
-375.858	-200.000	0.033	-0.231
-374.844	-59.479	0.145	0.062
-373.829	30.698	-0.243	-0.208
-372.815	-82.836	-0.158	-0.051
-371.800	-4.563	0.244	0.168
-370.785	-200.000	-0.002	-0.336
-369.771	-8.328	0.208	0.139
-368.756	-87.620	0.143	0.043
-367.742	-165.615	0.346	-0.015
-366.727	-1.121	-0.105	-0.074
-365.712	565.339	-0.048	-0.116
-364.698	-52.592	0.242	0.111
-363.683	205.701	0.145	0.225
-362.669	166.655	0.167	-0.237
-361.654	-126.017	-0.345	-0.052
-360.639	244.616	0.146	0.244
-359.625	644.687	0.061	-0.155
-358.610	-200.000	0.008	-0.262
-357.596	407.145	0.024	-0.051
-356.581	21.290	0.333	0.269
-355.566	176.794	0.072	0.104
-354.552	365.510	0.102	-0.204
-353.537	75.387	-0.092	0.097
-352.523	92.022	0.202	-0.227
-351.508	-123.530	0.141	-0.022
-350.493	-6.631	0.332	-0.225
-349.479	-200.000	-0.082	0.465
-348.464	-200.000	0.151	0.000
-347.450	116.183	-0.152	0.185
-346.435	80.438	-0.200	-0.214
-345.420	777.747	0.074	-0.200
-344.406	-200.000	0.034	0.642
-343.391	-85.958	-0.172	-0.053
-342.377	-135.695	0.349	-0.041
-341.362	275.032	-0.065	0.114
-340.348	15.253	-0.212	0.166
-339.333	-108.787	-0.078	-0.017
-338.318	543.426	0.096	0.227
-337.304	63.431	-0.079	-0.079
-336.289	-59.028	0.240	-0.103
-335.275	65.337	0.120	-0.120
-334.260	161.294	0.105	-0.146
-333.245	-189.568	0.106	0.001
-332.231	-200.000	0.012	0.181
-331.216	560.598	-0.066	0.160
-330.202	-0.434	0.203	0.144
-329.187	-200.000	0.037	0.237
-328.172	-200.000	-0.006	-0.120
-327.158	-90.154	0.212	-0.061
-326.143	-15.651	-0.286	-0.181
-325.129	117.012	-0.197	-0.240
-324.114	-105.738	-0.135	0.030
-323.099	-200.000	-0.063	0.340
-322.085	-37.625	0.258	-0.137
-321.070	-0.712	-0.334	0.235
-320.056	55.944	-0.063	-0.060
-319.041	800.000	0.092	0.313
-318.026	-6.563	-0.150	-0.101
-317.012	-156.926	0.244	0.015
-315.997	85.474	0.117	-0.127
-314.983	-127.910	0.275	0.039
-313.968	-105.796	-0.186	-0.042
-312.953	-200.000	0.053	-0.432
-311.939	441.097	-0.064	-0.139
-310.924	-166.527	0.026	0.001
-309.910	752.255	-0.081	0.219
-308.895	-60.384	0.112	-0.047
-307.880	25.594	-0.130	0.108
-306.866	-36.599	0.064	0.034
-305.851	-200.000	-0.018	0.135
-304.837	-74.778	0.249	-0.089
-303.822	-183.904	0.237	0.004
-302.807	153.848	0.182	-0.247
-301.793	21.745	-0.172	-0.139
-300.778	82.897	0.235	0.254
-299.764	-10.107	-0.398	0.263
-298.749	-134.907	-0.353	-0.042
-297.735	-89.810	-0.271	0.079
-296.720	-122.787	0.418	0.067
-295.705	302.969	0.117	0.215
-294.691	-200.000	0.038	-0.252
-293.676	-55.058	0.056	0.025
-292.662	327.895	-0.149	-0.284
-291.647	-88.024	0.161	-0.048
-290.632	-109.306	-0.185	-0.039
-289.618	-200.000	0.053	-0.234
-288.603	735.338	-0.158	-0.421
-287.589	-200.000	0.017	-0.133
-286.574	-62.116	0.191	0.079
-285.559	118.770	-0.119	0.146
-284.545	441.087	0.161	0.350
-283.530	37.179	-0.199	-0.175
-282.516	-43.145	0.168	-0.084
-281.501	230.927	0.066	-0.108
-280.486	-200.000	-0.023	-0.185
-279.472	-160.580	-0.061	0.003
-278.457	-182.244	0.166	-0.003
-277.443	-49.592	-0.176	-0.083
-276.428	-108.821	-0.135	-0.029
-275.413	538.327	0.244	0.576
-274.399	-4.106	-0.216	0.148
-273.384	-200.000	-0.010	-0.200
-272.370	-167.742	-0.165	-0.006
-271.355	85.662	-0.118	-0.128
-270.340	-121.983	-0.052	0.008
-269.326	163.666	0.078	-0.109
-268.311	68.364	-0.265	0.270
-267.297	-68.341	-0.167	-0.064
-266.282	-6.250	-0.069	-0.046
-265.267	32.202	0.150	0.128
-264.253	800.000	-0.024	-0.093
-263.238	-21.413	-0.241	0.146
-262.224	-112.554	-0.235	-0.047
-261.209	-58.259	0.441	0.191
-260.195	342.670	0.080	-0.155
-259.180	-200.000	-0.358	0.000
-258.165	128.098	-0.082	-0.103
-257.151	800.000	-0.091	-0.384
-256.136	-200.000	-0.055	0.515
-255.122	-109.169	0.154	-0.033
-254.107	121.526	0.120	-0.148
-253.092	-116.633	-0.132	-0.024
-252.078	114.567	-0.108	0.130
-251.063	219.983	-0.031	-0.049
-250.049	-57.869	0.077	-0.033
-249.034	-200.000	0.009	0.179
-248.019	-68.755	-0.336	-0.129
-247.005	-200.000	0.005	-0.137
-245.990	-91.954	-0.070	0.020
-244.976	-200.000	-0.014	-0.549
-243.961	365.398	0.035	0.069
-242.946	227.998	0.111	-0.179
-241.932	-138.459	-0.247	0.027
-240.917	-200.000	0.018	0.100
-239.903	-200.000	0.039	0.521
-238.888	-107.906	0.229	0.049
-237.873	-200.000	0.074	-0.333
-236.859	-106.828	0.269	0.059
-235.844	-114.492	0.096	0.018
-234.830	124.916	0.158	-0.197
-233.815	-167.282	-0.185	-0.007
-232.800	-20.679	-0.268	0.163
-231.786	108.550	0.274	-0.325
-230.771	-112.829	0.388	-0.076
-229.757	800.000	-0.022	-0.061
-228.742	32.722	0.142	0.122
-227.727	2.691	-0.206	0.148
-226.713	800.000	-0.098	0.406
-225.698	800.000	-0.015	-0.059
-224.684	-110.648	0.167	-0.034
-223.669	-119.136	-0.099	-0.017
-222.655	13.903	-0.188	-0.145
-221.640	49.554	-0.188	-0.175
-220.625	26.241	0.202	0.167
-219.611	800.000	-0.046	0.173
-218.596	-200.000	-0.067	-0.342
-217.582	-137.273	0.297	0.033
-216.567	297.980	0.074	-0.135
-215.552	519.651	0.166	0.386
-214.538	0.353	0.199	0.141
-213.523	243.187	-0.055	0.091
-212.509	12.442	0.042	0.032
-211.494	800.000	0.114	0.369
-210.479	94.663	-0.169	0.191
-209.465	-26.993	-0.119	-0.069
-208.450	-131.511	-0.365	0.048
-207.436	351.814	-0.032	-0.064
-206.421	-145.152	-0.173	0.016
-205.406	233.895	0.124	-0.202
-204.392	-146.622	-0.127	0.011
-203.377	52.950	0.036	-0.034
-202.363	-56.316	-0.195	0.086
-201.348	-105.847	-0.131	-0.029
-200.333	-92.750	0.247	-0.068
-199.319	-137.447	-0.249	-0.028
-198.304	-167.132	-0.268	0.011
-197.290	-35.839	-0.351	0.188
-196.275	-19.315	0.209	0.129
-195.260	65.699	0.183	-0.183
-194.246	-113.473	0.347	-0.067
-193.231	116.043	0.084	-0.102
-192.217	-200.000	-0.001	-0.136
-191.202	-170.057	-0.277	-0.010
-190.187	-71.164	-0.248	0.092
-189.173	43.431	0.264	0.239
-188.158	43.150	-0.175	0.158
-187.144	-200.000	0.009	-0.124
-186.129	800.000	0.085	-0.313
-185.114	-200.000	-0.006	0.113
-184.100	-200.000	-0.062	-0.293
-183.085	-47.530	-0.027	-0.013
-182.071	800.000	-0.065	0.218
-181.056	1.467	0.158	-0.113
-180.042	-50.450	-0.302	-0.141
-179.027	-114.121	-0.105	-0.020
-178.012	-22.451	-0.219	-0.131
-176.998	-90.515	-0.048	0.014
-175.983	43.806	0.373	0.338
-174.969	-195.016	-0.329	-0.002
-173.954	71.411	-0.143	0.147
-172.939	28.083	0.105	-0.087
-171.925	30.070	0.056	0.047
-170.910	800.000	0.071	0.221
-169.896	-109.695	-0.206	-0.043
-168.881	-154.005	-0.062	0.004
-167.866	-145.364	0.061	0.005
-166.852	-200.000	-0.024	0.323
-165.837	-115.169	0.355	-0.066
-164.823	160.334	-0.099	-0.136
-163.808	-200.000	0.011	-0.170
-162.793	-200.000	-0.050	0.247
-161.779	-11.908	-0.120	0.078
-160.764	394.567	-0.015	0.031
-159.750	-200.000	0.001	0.161
-158.735	21.625	0.089	-0.072
-157.720	57.756	0.054	0.052
-156.706	-8.548	0.213	0.141
-155.691	6.433	0.345	0.253
-154.677	-200.000	0.009	0.111
-153.662	-68.234	0.167	-0.064
-152.647	-71.357	-0.167	-0.062
-151.633	86.328	0.113	-0.123
-150.618	-142.776	0.306	0.029
-149.604	-56.284	-0.155	-0.068
-148.589	-116.703	-0.335	-0.061
-147.574	529.780	0.042	0.099
-146.560	-200.000	0.009	0.195
-145.545	-146.674	-0.330	-0.028
-144.531	330.555	-0.075	-0.143
-143.516	-133.812	0.168	-0.021
-142.502	-66.636	0.121	0.047
-141.487	-200.000	-0.007	-0.125
-140.472	21.571	0.179	0.144
-139.458	-54.857	-0.150	-0.067
-138.443	-71.196	-0.280	-0.104
-137.429	-97.677	-0.232	0.059
-136.414	-200.000	-0.042	-0.319
-135.399	-92.287	-0.231	0.064
-134.385	494.789	-0.029	0.066
-133.370	-51.072	-0.303	-0.140
-132.356	-200.000	0.007	-0.192
-131.341	-41.028	0.203	-0.103
-130.326	126.494	-0.158	-0.197
-129.312	-35.129	0.307	0.165
-128.297	-65.854	0.234	0.093
-127.283	-153.619	0.258	-0.018
-126.268	-12.497	0.161	0.104
-125.253	162.529	-0.113	-0.157
-124.239	-193.905	-0.194	-0.002
-123.224	800.000	0.013	0.047
-122.210	72.917	0.119	0.123
-121.195	-200.000	0.027	-0.403
-120.180	16.088	0.182	0.141
-119.166	-54.550	0.230	-0.103
-118.151	502.339	0.106	0.242
-117.137	24.572	-0.229	-0.187
-116.122	800.000	-0.025	0.107
-115.107	-40.057	-0.292	-0.150
-114.093	246.416	-0.043	-0.071
-113.078	-200.000	-0.017	0.371
-112.064	583.412	0.062	-0.151
-111.049	-200.000	-0.025	-0.419
-110.034	244.731	-0.044	-0.074
-109.020	-112.154	0.275	-0.055
-108.005	-23.444	-0.097	0.057
-106.991	104.577	-0.108	-0.126
-105.976	7.765	0.195	-0.144
-104.962	-125.300	0.109	0.016
-103.947	-64.969	0.239	-0.095
-102.932	35.949	0.093	0.081
-101.918	28.226	0.060	-0.050
-100.903	98.782	-0.135	0.154
-99.889	-0.224	0.311	0.218
-98.874	46.607	-0.221	-0.202
-97.859	32.816	-0.132	0.113
-96.845	66.034	-0.072	-0.072
-95.830	-120.500	0.246	-0.041
-94.816	450.537	0.112	0.244
-93.801	82.841	0.188	0.202
-92.786	-48.952	0.135	0.064
-91.772	-200.000	0.035	0.255
-90.757	-73.912	0.399	-0.143
-89.743	639.044	-0.102	-0.257
-88.728	-200.000	-0.005	-0.032
-87.713	-88.500	-0.288	0.085
-86.699	147.701	0.142	-0.189
-85.684	-36.153	0.264	0.140
-84.670	-128.178	0.273	0.038
-83.655	800.000	-0.003	-0.010
-82.640	-123.606	0.075	-0.012
-81.626	338.646	-0.124	0.238
-80.611	-100.374	-0.118	0.029
-79.597	-136.327	-0.451	-0.052
-78.582	-26.517	0.099	0.057
-77.567	-51.579	0.112	0.052
-76.553	-127.415	0.095	0.014
-75.538	337.198	0.103	-0.196
-74.524	119.079	-0.211	0.258
-73.509	627.145	0.044	0.109
-72.494	-70.488	0.250	0.093
-71.480	73.207	-0.124	-0.128
-70.465	-200.000	-0.012	-0.262
-69.451	258.260	0.050	0.084
-68.436	371.834	-0.231	-0.462
-67.422	-38.165	0.247	0.129
-66.407	92.188	0.154	-0.171
-65.392	177.896	-0.126	0.181
-64.378	-53.656	-0.302	-0.136
-63.363	543.554	-0.063	-0.147
-62.349	55.836	-0.237	0.226
-61.334	-60.635	-0.989	-0.413
-60.319	113.366	0.422	0.504
-59.305	354.155	-0.492	-0.962
-58.290	236.775	0.689	1.123
-57.276	216.340	0.924	1.446
-56.261	-200.000	95.667	596.440
-55.246	668.520	1370.469	3489.897
-54.232	199.834	2542.885	3841.301
-53.217	121.660	2138.791	2624.739
-52.203	44.416	1603.250	1449.212
-51.188	35.810	1341.779	1161.157
-50.173	32.582	1300.529	1106.490
-49.159	54.540	1347.171	1277.812
-48.144	56.672	1363.549	1306.016
-47.130	35.946	1323.065	1145.593
-46.115	32.594	1305.458	1110.580
-45.100	32.205	1301.064	1104.511
-44.086	32.251	1298.166	1102.281
-43.071	32.072	1296.076	1099.410
-42.057	32.086	1293.826	1097.543
-41.042	32.182	1291.918	1096.441
-40.027	32.215	1290.256	1095.177
-39.013	32.124	1288.538	1093.150
-37.998	32.076	1287.177	1091.671
-36.984	32.199	1285.282	1090.736
-35.969	32.153	1283.641	1089.033
-34.954	32.304	1281.732	1088.245
-33.940	32.336	1280.795	1087.590
-32.925	32.335	1278.911	1085.943
-31.911	32.398	1277.187	1084.799
-30.896	32.395	1276.012	1083.737
-29.881	32.402	1274.499	1082.452
-28.867	32.494	1272.781	1081.477
-27.852	32.406	1271.982	1080.250
-26.838	32.381	1270.397	1078.718
-25.823	32.410	1269.115	1077.750
-24.809	32.344	1267.873	1076.278
-23.794	32.354	1266.794	1075.373
-22.779	32.332	1265.414	1074.038
-21.765	32.258	1264.244	1072.580
-20.750	32.332	1262.693	1071.641
-19.736	32.238	1261.283	1069.869
-18.721	32.085	1260.746	1068.500
-17.706	32.193	1259.459	1067.977
-16.692	32.238	1257.789	1066.774
-15.677	32.156	1257.203	1065.774
-14.663	32.235	1255.802	1064.990
-13.648	32.201	1254.824	1063.926
-12.633	32.209	1253.792	1063.054
-11.619	32.181	1253.076	1062.244
-10.604	32.154	1252.044	1061.177
-9.590	32.148	1250.906	1060.138
-8.575	32.166	1250.096	1059.508
-7.560	32.201	1249.037	1058.766
-6.546	32.220	1248.668	1058.520
-5.531	32.077	1247.775	1056.914
-4.517	32.152	1246.597	1056.298
-3.502	32.234	1245.661	1055.921
-2.487	32.185	1244.532	1054.648
-1.473	32.180	1240.189	1050.901
-0.458	30.791	1225.764	1030.947
0.556	26.043	1208.875	993.187
1.571	22.355	1214.947	977.643
2.586	21.546	1229.384	984.625
3.600	21.049	1218.940	973.399
4.615	16.020	1148.154	890.290
5.629	8.230	1074.429	794.395
6.644	4.879	1054.835	763.440
7.659	4.554	1052.821	760.324
8.673	4.552	1051.607	759.373
9.688	4.536	1050.029	758.086
10.702	4.785	1048.532	758.153
11.717	9.188	1054.682	784.060
12.731	16.386	1064.528	826.652
13.746	18.846	1067.468	840.917
14.761	18.158	1065.428	835.873
15.775	16.996	1063.683	828.758
16.790	16.056	1061.339	822.274
17.804	15.266	1059.855	817.202
18.819	14.924	1058.896	814.725
19.834	14.652	1057.907	812.566
20.848	14.467	1057.068	810.951
21.863	14.264	1056.407	809.386
22.877	14.260	1055.157	808.337
23.892	14.108	1054.941	807.363
24.907	14.129	1053.989	806.662
25.921	14.243	1052.911	806.317
26.936	14.167	1051.737	804.983
27.950	14.191	1050.062	803.742
28.965	14.413	1048.676	803.685
29.980	14.392	1047.447	802.568
30.994	14.559	1046.046	802.226
32.009	14.483	1045.034	801.015
33.023	14.357	1044.152	799.664
34.038	14.461	1042.785	799.044
35.053	14.443	1041.714	798.065
36.067	14.389	1041.034	797.218
37.082	14.366	1040.374	796.528
38.096	14.440	1039.833	796.399
39.111	14.398	1038.989	795.481
40.126	14.378	1037.737	794.359
41.140	14.106	1036.716	792.213
42.155	13.964	1035.405	790.464
43.169	14.080	1033.838	789.748
44.184	14.020	1033.296	788.979
45.199	13.991	1032.005	787.788
46.213	14.161	1031.171	787.884
47.228	14.259	1030.146	787.497
48.242	14.334	1029.317	787.144
49.257	14.201	1028.086	785.507
50.271	14.263	1027.782	785.499
51.286	14.346	1026.569	784.893
52.301	14.309	1025.611	783.917
53.315	14.162	1024.742	782.491
54.330	14.149	1023.487	781.405
55.344	14.220	1022.537	780.941
56.359	14.105	1022.091	779.993
57.374	14.147	1021.136	779.391
58.388	14.033	1020.129	778.021
59.403	14.052	1018.847	777.064
60.417	14.043	1018.533	776.715
61.432	13.999	1017.472	775.630
62.447	13.959	1016.994	775.011
63.461	13.924	1016.114	774.108
64.476	13.898	1015.650	773.564
65.490	13.978	1014.461	772.965
66.505	14.037	1013.750	772.628
67.520	13.996	1013.053	771.838
68.534	13.975	1012.454	771.216
69.549	14.120	1011.357	770.985
70.563	14.057	1010.807	770.206
71.578	13.882	1010.286	768.928
72.593	13.923	1009.439	768.405
73.607	13.879	1008.759	767.616
74.622	13.895	1008.374	767.331
75.636	13.843	1007.734	766.536
76.651	13.943	1006.940	766.324
77.666	13.918	1006.332	765.677
78.680	13.935	1005.298	764.902
79.695	13.923	1004.978	764.536
80.709	14.034	1004.361	764.507
81.724	14.008	1003.563	763.715
82.739	14.252	1002.809	764.194
83.753	14.327	1002.047	763.890
84.768	14.437	1001.522	763.926
85.782	14.466	1000.615	763.301
86.797	14.382	999.676	762.130
87.812	14.275	998.478	760.661
88.826	14.307	997.795	760.221
89.841	14.381	996.613	759.590
90.855	14.509	995.906	759.565
91.870	14.441	995.226	758.672
92.884	14.415	994.393	757.851
93.899	14.383	993.835	757.215
94.914	14.477	992.533	756.583
95.928	14.590	991.672	756.368
96.943	14.381	991.242	755.026
97.957	14.416	990.222	754.342
98.972	14.398	989.491	753.637
99.987	14.386	988.812	753.001
101.001	14.387	987.636	752.041
102.016	14.325	986.999	751.210
103.030	14.500	986.164	751.296
104.045	14.492	985.316	750.550
105.060	14.362	984.388	749.192
106.074	14.185	983.590	747.722
107.089	14.145	982.357	746.540
108.103	14.076	981.531	745.537
109.118	14.213	980.063	744.967
110.133	14.148	979.516	744.196
111.147	14.079	978.582	743.112
112.162	14.073	977.662	742.320
113.176	14.227	977.315	742.679
114.191	14.175	976.610	741.847
115.206	14.323	975.582	741.658
116.220	14.209	975.227	740.816
117.235	14.229	974.011	739.914
118.249	14.216	973.035	739.048
119.264	14.154	972.279	738.133
120.279	14.224	971.489	737.779
121.293	14.091	970.556	736.416
122.308	14.131	969.511	735.737
123.322	14.037	969.371	735.149
124.337	13.939	968.116	733.699
125.352	14.057	966.578	732.992
126.366	14.016	965.836	732.179
127.381	14.096	964.962	731.806
128.395	14.044	963.843	730.665
129.410	14.051	963.061	730.039
130.424	14.270	962.158	730.250
131.439	14.255	961.552	729.660
132.454	14.173	961.088	728.884
133.468	14.319	959.986	728.624
134.483	14.254	959.103	727.605
135.497	14.304	958.078	726.980
136.512	14.281	957.175	726.129
137.527	14.259	956.618	725.546
138.541	14.264	956.176	725.170
139.556	14.343	955.495	724.931
140.570	14.474	954.352	724.570
141.585	14.464	953.882	724.105
142.600	14.533	952.878	723.581
143.614	14.628	951.741	723.063
144.629	14.585	951.472	722.607
145.643	14.414	950.697	721.215
146.658	14.373	949.612	720.155
147.673	14.321	948.641	719.129
148.687	14.238	947.870	718.124
149.702	14.339	947.078	717.892
150.716	14.351	946.250	717.253
151.731	14.304	945.613	716.506
152.746	14.314	944.935	715.972
153.760	14.444	944.126	715.852
154.775	14.442	943.959	715.656
155.789	14.522	943.438	715.538
156.804	14.479	942.291	714.422
157.819	14.598	941.866	714.546
158.833	14.638	941.063	714.046
159.848	14.616	940.275	713.288
160.862	14.574	939.511	712.467
161.877	14.497	938.153	711.046
162.892	14.348	937.377	709.763
163.906	14.402	936.464	709.237
164.921	14.402	935.540	708.476
165.935	14.462	934.911	708.188
166.950	14.385	933.895	707.031
167.964	14.447	933.256	706.747
168.979	14.588	932.169	706.459
169.994	14.609	931.101	705.676
171.008	14.517	930.701	704.920
172.023	14.688	930.071	705.103
173.037	14.680	929.427	704.520
174.052	14.531	928.983	703.493
175.067	14.450	928.388	702.637
176.081	14.460	927.640	702.050
177.096	14.451	926.946	701.427
178.110	14.437	926.368	700.869
179.125	14.560	925.691	700.810
180.140	14.622	925.483	700.851
181.154	14.660	924.794	700.429
182.169	14.791	924.044	700.347
183.183	14.756	923.404	699.652
184.198	14.810	922.975	699.491
185.213	14.661	922.461	698.417
186.227	14.770	921.579	698.144
187.242	14.823	921.053	697.904
188.256	15.027	920.376	698.180
189.271	14.845	919.661	696.820
190.286	14.635	918.864	695.276
191.300	14.471	917.963	693.852
192.315	14.422	917.217	693.025
193.329	14.527	916.880	693.142
194.344	14.587	916.243	692.849
195.359	14.545	915.957	692.398
196.373	14.606	915.270	692.069
197.388	14.934	914.765	692.988
198.402	15.076	913.954	692.898
199.417	15.018	913.882	692.543
200.432	15.232	912.685	692.459
201.446	15.154	912.568	691.987
202.461	15.117	912.276	691.550
203.475	15.215	911.428	691.250
204.490	15.005	910.525	689.639
205.504	15.012	909.871	689.114
206.519	14.946	909.140	688.225
207.534	14.942	908.412	687.599
208.548	14.911	907.947	687.056
209.563	14.999	906.833	686.517
210.577	15.095	906.388	686.509
211.592	15.224	905.563	686.352
212.607	15.192	904.695	685.503
213.621	15.222	904.293	685.263
214.636	15.149	903.619	684.390
215.650	15.195	902.966	684.026
216.665	15.244	902.243	683.615
217.680	15.254	901.696	683.181
218.694	15.337	901.046	682.968
219.709	15.378	900.397	682.580
220.723	15.367	899.873	682.079
221.738	15.269	898.843	680.842
222.753	15.376	898.329	680.826
223.767	15.328	898.068	680.373
224.782	15.330	897.714	680.053
225.796	15.449	897.019	679.948
226.811	15.435	895.944	679.013
227.826	15.292	895.531	678.063
228.840	15.386	894.687	677.744
229.855	15.229	894.248	676.720
230.869	15.267	893.525	676.264
231.884	15.242	892.602	675.405
232.899	15.276	891.991	675.022
233.913	15.105	891.360	673.794
234.928	15.217	890.863	673.810
235.942	15.260	889.895	673.190
236.957	15.353	889.438	673.161
237.972	15.413	889.038	673.037
238.986	15.337	888.100	671.964
240.001	15.235	887.670	671.169
241.015	15.218	887.333	670.787
242.030	15.286	886.713	670.530
243.045	15.375	885.820	670.151
244.059	15.505	885.158	670.111
245.074	15.409	884.847	669.432
246.088	15.504	883.818	668.976
247.103	15.775	883.264	669.577
248.117	15.459	883.071	668.111
249.132	15.833	882.291	668.949
250.147	15.790	881.869	668.401
251.161	15.917	881.255	668.380
252.176	15.953	880.314	667.750
253.190	16.086	879.742	667.783
254.205	16.002	879.014	666.840
255.220	15.936	878.544	666.161
256.234	15.971	877.974	665.808
257.249	16.101	877.102	665.602
258.263	16.000	876.495	664.684
259.278	16.082	875.527	664.213
260.293	15.988	874.896	663.308
261.307	16.138	874.734	663.716
262.322	16.007	874.337	662.839
263.336	16.235	873.408	662.973
264.351	16.185	872.464	662.004
265.366	16.195	872.264	661.832
266.380	16.027	871.502	660.536
267.395	16.117	870.743	660.255
268.409	16.114	869.660	659.361
269.424	16.132	869.000	658.876
270.439	16.105	868.894	658.629
271.453	16.082	868.014	657.816
272.468	16.074	867.404	657.263
273.482	16.030	866.753	656.540
274.497	15.957	866.363	655.903
275.512	15.961	866.183	655.722
276.526	16.082	865.308	655.473
277.541	16.035	864.755	654.815
278.555	16.205	864.157	654.964
279.570	16.237	863.802	654.763
280.585	16.257	862.912	654.105
281.599	16.270	861.719	653.194
282.614	16.152	861.194	652.281
283.628	16.211	861.099	652.379
284.643	16.013	860.436	651.057
285.657	16.335	859.382	651.442
286.672	16.291	859.213	651.089
287.687	16.359	858.600	650.828
288.701	16.258	857.942	649.883
289.716	16.259	857.624	649.589
290.730	16.341	856.719	649.161
291.745	16.483	855.849	648.989
292.760	16.509	855.451	648.728
293.774	16.416	855.038	648.003
294.789	16.384	854.329	647.286
295.803	16.374	853.412	646.493
296.818	16.500	852.749	646.417
297.833	16.379	852.303	645.558
298.847	16.427	851.337	644.952
299.862	16.336	851.239	644.476
300.876	16.540	850.652	644.752
301.891	16.665	849.940	644.629
302.906	16.593	849.640	644.072
303.920	16.704	849.441	644.284
304.935	16.747	848.734	643.855
305.949	16.650	848.207	643.030
306.964	16.709	847.294	642.505
307.979	16.668	846.759	641.886
308.993	16.672	846.463	641.624
310.008	16.732	845.649	641.175
311.022	16.651	844.791	640.162
312.037	16.561	844.433	639.493
313.052	16.552	843.803	638.925
314.066	16.436	843.428	638.148
315.081	16.475	842.785	637.751
316.095	16.621	842.102	637.728
317.110	16.579	841.575	637.116
318.125	16.559	841.282	636.763
319.139	16.613	840.651	636.432
320.154	16.596	839.831	635.691
321.168	16.728	839.580	635.939
322.183	16.663	838.947	635.160
323.197	16.714	838.684	635.094
324.212	16.626	837.915	634.128
325.227	16.603	837.493	633.668
326.241	16.728	836.649	633.438
327.256	16.759	836.179	633.143
328.270	16.705	835.875	632.654
329.285	16.710	834.844	631.839
330.300	16.724	834.470	631.551
331.314	16.604	834.273	630.899
332.329	16.636	834.036	630.783
333.343	16.953	833.238	631.303
334.358	16.845	833.226	630.836
335.373	16.804	832.710	630.238
336.387	17.000	832.371	630.654
337.402	17.105	831.883	630.619
338.416	17.014	831.890	630.228
339.431	17.131	831.175	630.065
340.446	16.974	830.894	629.213
341.460	17.085	830.476	629.255
342.475	17.078	830.212	628.972
343.489	17.184	829.606	628.851
344.504	17.246	829.071	628.618
345.519	17.312	828.447	628.332
346.533	17.337	828.071	628.085
347.548	17.116	827.383	626.693
348.562	17.069	826.770	626.000
349.577	16.930	826.478	625.209
350.592	17.062	825.667	625.029
351.606	17.074	824.930	624.457
352.621	17.069	824.100	623.755
353.635	17.017	823.793	623.279
354.650	17.169	823.088	623.248
355.665	17.118	822.712	622.719
356.679	17.268	821.990	622.669
357.694	17.279	821.232	622.080
358.708	17.132	820.829	621.180
359.723	17.219	820.227	620.989
360.738	17.314	819.767	620.934
361.752	17.414	819.178	620.795
362.767	17.496	818.126	620.242
363.781	17.434	818.091	619.937
364.796	17.598	817.245	619.837
365.810	17.613	817.163	619.774
366.825	17.711	817.073	620.008
367.840	17.529	816.638	618.961
368.854	17.540	815.692	618.228
369.869	17.344	815.386	617.229
370.883	17.439	815.373	617.511
371.898	17.611	814.709	617.576
372.913	17.684	813.932	617.196
373.927	17.763	813.649	617.213
374.942	17.580	813.337	616.263
375.956	17.685	813.306	616.563
376.971	17.813	812.514	616.370
377.986	17.828	811.894	615.899
379.000	17.890	811.533	615.795
380.015	17.897	810.658	615.102
381.029	17.832	810.414	614.629
382.044	17.696	809.926	613.712
383.059	18.020	809.029	614.146
384.073	17.852	808.746	613.272
385.088	17.818	808.088	612.596
386.102	17.726	807.220	611.555
387.117	17.688	806.978	611.181
388.132	17.642	806.271	610.425
389.146	17.710	805.897	610.334
390.161	17.815	805.551	610.394
391.175	17.974	804.956	610.456
392.190	17.893	804.314	609.624
393.205	17.864	803.788	609.071
394.219	17.780	803.754	608.690
395.234	17.712	803.515	608.212
396.248	17.671	803.046	607.659
397.263	17.713	802.382	607.252
398.278	17.701	802.279	607.078
399.292	17.843	801.609	607.020
400.307	17.741	801.210	606.305
401.321	17.704	800.789	605.799
402.336	17.901	799.871	605.751
403.350	17.786	799.790	605.227
404.365	17.788	799.777	605.171
405.380	18.031	798.804	605.242
406.394	18.067	798.318	604.947
407.409	18.215	797.754	604.990
408.423	18.484	797.112	605.398
409.438	18.291	797.090	604.650
410.453	18.298	797.140	604.656
411.467	18.273	796.325	603.897
412.482	18.367	795.912	603.863
413.496	18.360	795.788	603.690
414.511	18.529	794.911	603.564
415.526	18.281	794.997	602.705
416.540	18.405	793.884	602.244
417.555	18.347	793.668	601.821
418.569	18.446	793.300	601.839
419.584	18.346	793.070	601.258
420.599	18.338	792.284	600.582
421.613	156.164	1370.294	1793.983
422.628	135.144	1454.493	1794.055
