DTS Sentinel unit serial number:	SN413079Multiplexer serial number:	ORYXHardware model number:	OX4-SRSoftware version number:	ORYX F/W v4.00 Oryx Data Collector v3.7.2.0data status	okinstallation	princeton_trtdifferential loss correction	single-endedforward channel	channel 1reverse channel	N/Adate	2019/09/11time	03:56:11forward acquisition time	60.00reverse acquisition time	0.00gamma	496.2192k internal	0.2331k external	0.2331temperature offset calibration	0.9923default loss term (dB/km)	0.3790temperature slope calibration	1.0000multiplexer offset coefficient	1.0000multiplexer slope coefficient	1.0000fibre end	0.00T internal ref (°C)	29.56T ext. ref 1 (°C)	-0.30T ext. ref 2 (°C)	23.67length (m)	temperature (°C)	Stokes	anti-Stokes-747.200	155.518	0.082	0.113
-746.185	538.864	-0.037	-0.090
-745.171	102.461	-0.036	0.043
-744.156	388.418	0.060	-0.125
-743.142	265.623	0.276	-0.485
-742.127	320.470	0.229	0.437
-741.112	142.109	-0.061	-0.081
-740.098	-23.427	-0.282	0.170
-739.083	-105.352	-0.269	0.062
-738.069	-45.383	-0.088	-0.044
-737.054	-78.983	0.172	-0.059
-736.039	-129.299	-0.265	-0.037
-735.025	249.830	0.054	0.092
-734.010	-164.920	-0.140	0.006
-732.996	67.488	-0.276	-0.284
-731.981	274.648	-0.193	-0.344
-730.966	-63.463	-0.239	-0.099
-729.952	62.216	0.065	-0.065
-728.937	790.162	0.129	0.356
-727.923	-180.706	-0.112	-0.002
-726.908	40.654	-0.182	-0.165
-725.894	10.825	0.211	0.162
-724.879	800.000	0.075	-0.237
-723.864	-31.208	0.069	0.039
-722.850	293.023	0.045	-0.083
-721.835	5.235	0.143	0.106
-720.821	-117.028	-0.181	-0.033
-719.806	-102.477	-0.289	-0.070
-718.791	-200.000	-0.023	-0.112
-717.777	95.812	-0.114	0.130
-716.762	60.408	0.190	-0.189
-715.748	315.935	0.086	0.163
-714.733	339.669	-0.112	-0.220
-713.718	-82.297	-0.134	0.044
-712.704	-120.587	-0.272	-0.046
-711.689	-32.940	-0.125	0.070
-710.675	131.503	-0.129	-0.166
-709.660	-37.637	-0.102	0.055
-708.645	405.883	0.034	-0.072
-707.631	275.233	0.094	0.168
-706.616	174.485	-0.128	-0.187
-705.602	108.481	0.118	-0.141
-704.587	567.858	0.065	-0.160
-703.572	-97.144	-0.263	0.069
-702.558	148.752	0.239	0.324
-701.543	-58.468	-0.251	0.110
-700.529	27.157	-0.235	-0.198
-699.514	-53.311	-0.416	0.191
-698.499	-200.000	0.028	-0.181
-697.485	-81.756	-0.082	-0.027
-696.470	685.063	-0.041	0.106
-695.456	-9.704	0.355	-0.237
-694.441	800.000	0.052	-0.172
-693.426	0.750	-0.332	0.239
-692.412	434.158	-0.034	-0.074
-691.397	-54.411	0.237	-0.108
-690.383	-143.909	0.286	-0.027
-689.368	542.043	0.120	-0.286
-688.354	-126.485	-0.193	0.029
-687.339	16.474	-0.141	0.112
-686.324	-14.738	-0.050	0.032
-685.310	-61.887	0.442	-0.186
-684.295	267.307	-0.133	-0.234
-683.281	800.000	-0.091	-0.293
-682.266	133.131	-0.060	-0.078
-681.251	800.000	0.038	-0.152
-680.237	-142.790	-0.343	-0.034
-679.222	-35.053	0.054	-0.029
-678.208	-6.133	-0.139	0.095
-677.193	-88.308	-0.264	-0.079
-676.178	-102.972	0.306	0.073
-675.164	-200.000	-0.011	0.078
-674.149	-20.330	-0.141	-0.087
-673.135	432.645	0.041	-0.089
-672.120	-34.065	-0.314	-0.173
-671.105	237.689	-0.241	0.401
-670.091	-5.733	-0.100	-0.069
-669.076	-22.859	0.020	0.012
-668.062	-78.534	-0.121	0.042
-667.047	288.841	0.061	-0.110
-666.032	-39.938	0.213	-0.112
-665.018	-200.000	-0.004	-0.210
-664.003	-200.000	0.005	0.030
-662.989	-154.212	0.222	0.015
-661.974	107.544	-0.103	-0.123
-660.959	696.989	0.123	-0.323
-659.945	42.114	0.287	-0.261
-658.930	-163.054	-0.130	-0.006
-657.916	226.742	-0.097	0.158
-656.901	18.009	-0.108	-0.087
-655.886	71.523	-0.050	0.052
-654.872	261.544	0.157	0.273
-653.857	-62.641	0.244	0.101
-652.843	-85.765	0.194	-0.060
-651.828	-142.091	-0.172	0.017
-650.814	-86.855	0.212	-0.065
-649.799	-99.994	0.152	0.038
-648.784	-92.801	0.256	-0.072
-647.770	-98.208	-0.186	-0.048
-646.755	218.299	-0.166	-0.266
-645.741	-174.698	0.244	0.007
-644.726	800.000	0.042	-0.147
-643.711	-72.308	0.420	-0.156
-642.697	-83.962	-0.064	0.020
-641.682	38.500	0.231	0.207
-640.668	484.363	-0.035	-0.081
-639.653	-31.671	0.091	0.051
-638.638	-200.000	0.032	-0.227
-637.624	800.000	0.136	-0.449
-636.609	-5.118	0.156	0.108
-635.595	75.813	-0.141	-0.150
-634.580	800.000	0.016	-0.071
-633.565	48.648	-0.136	-0.128
-632.551	800.000	0.026	-0.085
-631.536	245.354	0.090	0.152
-630.522	-38.675	0.461	0.244
-629.507	-90.844	-0.223	0.064
-628.492	-200.000	0.023	0.142
-627.478	-74.565	-0.288	-0.104
-626.463	-70.168	-0.308	0.117
-625.449	-172.043	-0.209	0.007
-624.434	494.353	-0.059	0.136
-623.419	698.511	-0.117	0.308
-622.405	800.000	0.022	0.080
-621.390	120.026	0.090	0.112
-620.376	800.000	-0.087	-0.343
-619.361	604.779	0.061	0.152
-618.346	-82.206	-0.181	-0.059
-617.332	-66.224	0.072	0.029
-616.317	31.610	0.132	0.114
-615.303	-60.989	-0.135	-0.057
-614.288	-14.493	-0.105	-0.068
-613.273	-171.865	0.123	-0.004
-612.259	-83.100	0.374	-0.121
-611.244	-12.174	-0.094	-0.062
-610.230	357.412	-0.090	-0.180
-609.215	-78.634	-0.061	-0.021
-608.201	436.987	0.043	0.094
-607.186	-47.991	0.393	-0.191
-606.171	-148.398	-0.488	0.040
-605.157	157.422	0.127	0.176
-604.142	-26.121	0.314	0.185
-603.128	-200.000	0.008	0.078
-602.113	-78.732	-0.263	0.090
-601.098	-200.000	-0.002	0.084
-600.084	20.058	0.187	0.151
-599.069	390.955	-0.078	-0.163
-598.055	177.661	0.051	-0.075
-597.040	80.599	-0.170	-0.183
-596.025	249.548	0.152	-0.259
-595.011	-200.000	-0.001	0.187
-593.996	217.835	-0.145	-0.231
-592.982	-60.795	0.355	0.150
-591.967	-200.000	-0.025	0.320
-590.952	800.000	0.064	0.207
-589.938	101.770	-0.201	0.235
-588.923	35.324	-0.164	0.144
-587.909	193.883	-0.163	-0.247
-586.894	800.000	0.022	0.082
-585.879	-104.304	-0.109	-0.025
-584.865	714.662	0.092	-0.243
-583.850	-52.090	-0.133	-0.062
-582.836	121.005	0.216	0.269
-581.821	113.764	-0.127	-0.154
-580.806	-200.000	0.014	0.070
-579.792	101.044	0.188	0.219
-578.777	254.086	-0.085	-0.146
-577.763	354.186	-0.064	0.126
-576.748	558.966	-0.170	0.409
-575.733	-170.468	0.317	0.011
-574.719	-4.521	-0.059	0.041
-573.704	23.169	-0.145	0.119
-572.690	-200.000	-0.005	-0.039
-571.675	-85.397	0.286	-0.089
-570.661	545.534	0.052	-0.125
-569.646	595.865	-0.113	-0.279
-568.631	-118.315	0.391	0.070
-567.617	-87.302	0.038	-0.012
-566.602	295.404	0.058	-0.106
-565.588	-190.340	0.318	0.003
-564.573	0.677	0.144	-0.103
-563.558	800.000	0.065	0.254
-562.544	94.160	0.058	-0.066
-561.529	-116.360	-0.084	0.015
-560.515	123.430	0.107	0.134
-559.500	-200.000	-0.008	-0.038
-558.485	-200.000	-0.010	-0.061
-557.471	157.918	-0.139	0.192
-556.456	-66.793	-0.193	0.076
-555.442	-148.271	-0.145	-0.012
-554.427	-69.311	-0.409	0.157
-553.412	34.992	0.062	-0.054
-552.398	-58.476	-0.295	-0.128
-551.383	-200.000	-0.032	-0.190
-550.369	666.781	-0.136	0.350
-549.354	183.843	0.228	0.338
-548.339	-122.637	0.050	0.008
-547.325	716.094	-0.031	-0.082
-546.310	68.575	0.307	0.314
-545.296	-63.998	0.198	0.081
-544.281	-29.423	0.284	0.162
-543.266	209.500	-0.067	0.105
-542.252	-52.276	-0.309	-0.143
-541.237	800.000	0.088	0.271
-540.223	157.126	0.126	0.174
-539.208	27.955	0.090	0.076
-538.193	-110.573	0.377	0.078
-537.179	-170.005	-0.198	0.007
-536.164	800.000	0.012	0.037
-535.150	-17.716	0.188	-0.118
-534.135	-86.737	0.470	-0.143
-533.121	86.877	0.055	-0.060
-532.106	360.132	-0.040	0.079
-531.091	-184.706	0.218	0.003
-530.077	2.067	-0.387	0.279
-529.062	2.512	0.027	0.020
-528.048	-101.931	-0.336	-0.081
-527.033	-200.000	-0.010	0.127
-526.018	-200.000	-0.031	-0.192
-525.004	800.000	0.024	-0.078
-523.989	-162.756	-0.046	-0.002
-522.975	-128.274	-0.281	-0.040
-521.960	-14.126	0.136	-0.087
-520.945	-53.041	-0.049	-0.022
-519.931	78.553	0.129	-0.138
-518.916	-200.000	0.023	0.165
-517.902	-114.518	-0.148	-0.028
-516.887	-200.000	-0.015	0.285
-515.872	56.969	-0.211	-0.205
-514.858	-94.984	0.036	-0.010
-513.843	-18.132	-0.221	-0.138
-512.829	-200.000	0.041	0.224
-511.814	-79.806	-0.270	0.091
-510.799	-15.521	0.108	-0.069
-509.785	-97.854	-0.126	-0.033
-508.770	-73.381	-0.240	-0.088
-507.756	143.808	0.131	0.175
-506.741	151.468	-0.068	0.092
-505.726	800.000	0.036	-0.135
-504.712	106.415	0.143	-0.169
-503.697	28.734	-0.173	-0.146
-502.683	641.868	-0.119	0.303
-501.668	-100.526	-0.128	-0.031
-500.653	-9.064	-0.018	0.012
-499.639	106.373	0.173	0.204
-498.624	262.607	0.080	0.139
-497.610	-130.422	0.216	-0.029
-496.595	-200.000	-0.066	0.340
-495.581	-31.709	-0.182	0.102
-494.566	218.042	-0.176	0.280
-493.551	563.256	0.106	-0.255
-492.537	-166.076	0.236	0.010
-491.522	-200.000	0.061	0.342
-490.508	559.931	0.034	-0.081
-489.493	-200.000	0.017	0.133
-488.478	74.941	0.214	-0.225
-487.464	-13.640	-0.082	-0.053
-486.449	-146.659	-0.487	0.042
-485.435	95.245	0.061	-0.070
-484.420	-76.771	-0.100	0.035
-483.405	-200.000	0.029	0.325
-482.391	-200.000	-0.030	-0.571
-481.376	-98.657	0.117	0.030
-480.362	-200.000	-0.006	-0.341
-479.347	-16.600	0.290	-0.183
-478.332	131.788	-0.120	-0.154
-477.318	-68.870	-0.162	-0.062
-476.303	-61.023	-0.275	0.116
-475.289	-29.176	-0.306	0.175
-474.274	196.401	-0.140	0.212
-473.259	-91.854	-0.332	-0.094
-472.245	251.561	0.086	-0.146
-471.230	72.871	0.144	-0.150
-470.216	136.072	-0.103	0.133
-469.201	-200.000	-0.056	-0.295
-468.186	44.491	-0.032	-0.030
-467.172	347.092	-0.030	-0.060
-466.157	-200.000	-0.018	-0.113
-465.143	78.647	-0.168	0.179
-464.128	-169.650	-0.117	-0.004
-463.113	-142.933	0.096	0.009
-462.099	144.701	0.223	-0.296
-461.084	38.388	0.133	0.118
-460.070	54.211	0.178	0.170
-459.055	53.935	0.144	-0.138
-458.040	-60.740	-0.268	-0.113
-457.026	-62.870	-0.062	0.025
-456.011	-46.608	0.280	-0.137
-454.997	-2.649	0.161	-0.112
-453.982	151.299	0.104	0.141
-452.968	800.000	-0.102	-0.286
-451.953	-77.198	0.118	0.041
-450.938	-110.270	-0.096	0.020
-449.924	-200.000	-0.002	-0.046
-448.909	-107.003	0.460	-0.101
-447.895	-86.303	0.451	-0.138
-446.880	767.471	0.070	0.190
-445.865	333.796	0.038	0.073
-444.851	167.326	-0.156	0.221
-443.836	202.069	-0.262	-0.402
-442.822	800.000	-0.046	-0.159
-441.807	-187.075	-0.114	-0.002
-440.792	-200.000	-0.004	-0.106
-439.778	34.621	-0.365	-0.317
-438.763	-58.969	-0.250	0.107
-437.749	-200.000	0.042	-0.248
-436.734	-200.000	0.043	-0.309
-435.719	-1.580	0.282	0.198
-434.705	486.740	0.042	0.096
-433.690	68.044	0.174	-0.177
-432.676	-26.212	-0.471	-0.275
-431.661	-200.000	0.021	0.200
-430.646	800.000	-0.020	0.072
-429.632	64.532	-0.095	0.095
-428.617	770.510	0.067	0.182
-427.603	336.175	0.078	0.151
-426.588	278.768	0.279	-0.494
-425.573	158.314	0.158	-0.218
-424.559	800.000	-0.050	-0.199
-423.544	-200.000	-0.034	0.206
-422.530	178.878	-0.136	0.198
-421.515	800.000	-0.034	0.124
-420.500	-200.000	-0.065	0.312
-419.486	25.222	-0.029	-0.024
-418.471	-200.000	0.009	0.058
-417.457	-187.335	0.249	-0.003
-416.442	282.302	-0.187	-0.332
-415.428	10.404	0.108	0.082
-414.413	-131.143	0.123	0.016
-413.398	-24.126	-0.049	-0.029
-412.384	78.268	-0.142	0.151
-411.369	-158.608	0.154	0.009
-410.355	-21.724	-0.397	-0.240
-409.340	170.069	0.114	0.162
-408.325	538.664	-0.061	0.145
-407.311	508.000	-0.122	0.281
-406.296	-181.891	-0.158	-0.003
-405.282	-146.394	-0.098	0.009
-404.267	-163.796	-0.227	-0.011
-403.252	2.456	0.013	0.009
-402.238	27.523	-0.168	0.141
-401.223	151.110	-0.120	-0.162
-400.209	93.608	0.177	-0.199
-399.194	33.142	-0.225	-0.194
-398.179	-136.234	0.083	0.010
-397.165	202.233	0.073	0.111
-396.150	-200.000	-0.013	-0.278
-395.136	-100.938	-0.218	-0.053
-394.121	511.114	0.086	-0.199
-393.106	-117.702	-0.119	-0.021
-392.092	-200.000	-0.043	0.261
-391.077	49.106	0.153	0.143
-390.063	39.741	-0.225	0.200
-389.048	-200.000	0.010	-0.092
-388.033	800.000	0.055	0.228
-387.019	13.031	-0.211	0.162
-386.004	492.215	0.063	-0.143
-384.990	573.778	-0.085	0.207
-383.975	800.000	0.083	0.278
-382.960	-12.743	-0.380	-0.245
-381.946	800.000	-0.063	-0.196
-380.931	-200.000	-0.011	0.099
-379.917	-22.141	-0.081	0.048
-378.902	108.897	-0.050	-0.059
-377.888	96.067	-0.221	-0.251
-376.873	800.000	0.105	0.431
-375.858	800.000	0.056	-0.157
-374.844	800.000	-0.068	0.273
-373.829	48.101	-0.207	0.192
-372.815	800.000	-0.056	-0.230
-371.800	345.075	-0.154	-0.300
-370.785	122.877	-0.147	0.183
-369.771	571.858	-0.092	-0.221
-368.756	-35.114	-0.308	-0.167
-367.742	474.305	0.186	-0.416
-366.727	26.293	0.228	-0.189
-365.712	548.087	0.028	-0.066
-364.698	14.365	0.224	0.173
-363.683	-116.076	0.215	-0.040
-362.669	507.795	0.134	0.308
-361.654	-134.038	0.193	0.024
-360.639	-110.901	-0.266	0.054
-359.625	63.780	-0.226	0.225
-358.610	-131.131	0.405	-0.053
-357.596	-200.000	0.018	0.200
-356.581	-85.954	0.335	0.103
-355.566	-200.000	-0.012	0.205
-354.552	-76.182	0.047	-0.017
-353.537	-200.000	0.022	0.223
-352.523	125.720	-0.198	0.247
-351.508	411.702	0.083	-0.175
-350.493	-150.384	0.275	0.021
-349.479	800.000	0.071	-0.280
-348.464	-124.876	-0.331	-0.051
-347.450	600.370	0.088	-0.218
-346.435	127.149	-0.203	-0.256
-345.420	-19.211	-0.017	0.011
-344.406	-124.041	-0.294	-0.046
-343.391	800.000	-0.125	-0.381
-342.377	-141.957	0.118	0.012
-341.362	117.715	0.209	-0.255
-340.348	42.992	-0.090	-0.081
-339.333	-135.367	-0.176	0.021
-338.318	3.843	-0.142	0.102
-337.304	438.081	0.106	0.228
-336.289	800.000	0.080	-0.324
-335.275	-112.267	-0.269	-0.053
-334.260	422.309	0.158	-0.337
-333.245	-124.812	-0.311	0.048
-332.231	2.482	0.110	0.079
-331.216	66.723	-0.059	0.060
-330.202	-56.950	-0.038	-0.017
-329.187	320.168	0.221	0.416
-328.172	251.489	-0.311	0.524
-327.158	537.993	-0.103	-0.243
-326.143	-17.630	0.237	-0.148
-325.129	-200.000	-0.005	-0.071
-324.114	77.457	-0.165	-0.173
-323.099	39.267	0.179	-0.158
-322.085	77.615	0.226	0.238
-321.070	800.000	-0.135	-0.410
-320.056	112.567	-0.173	0.207
-319.041	800.000	-0.037	-0.134
-318.026	-200.000	-0.028	0.264
-317.012	-200.000	0.014	0.260
-315.997	520.466	0.165	-0.382
-314.983	-3.939	-0.047	0.032
-313.968	209.555	0.236	-0.366
-312.953	107.995	0.147	0.173
-311.939	43.751	-0.137	-0.124
-310.924	-35.975	0.072	0.039
-309.910	800.000	-0.061	-0.263
-308.895	-102.041	-0.122	0.029
-307.880	9.781	-0.413	-0.310
-306.866	-200.000	-0.002	-0.218
-305.851	-154.177	-0.065	-0.004
-304.837	114.355	-0.292	0.352
-303.822	800.000	-0.018	0.069
-302.807	-119.567	0.154	-0.026
-301.793	800.000	0.067	0.243
-300.778	-124.741	-0.245	0.038
-299.764	56.584	-0.247	0.238
-298.749	-200.000	-0.012	-0.128
-297.735	-200.000	-0.030	0.214
-296.720	-122.057	-0.141	-0.023
-295.705	159.385	0.104	-0.144
-294.691	-20.066	-0.098	-0.060
-293.676	36.767	0.089	0.078
-292.662	-18.517	0.151	0.093
-291.647	154.136	0.058	-0.078
-290.632	637.380	0.114	0.287
-289.618	-90.209	-0.242	0.070
-288.603	-16.473	0.125	-0.079
-287.589	-43.391	-0.303	-0.151
-286.574	168.212	-0.213	0.300
-285.559	146.224	0.265	0.352
-284.545	-200.000	-0.017	0.299
-283.530	800.000	0.088	-0.249
-282.516	-200.000	0.030	0.155
-281.501	-118.966	0.096	0.017
-280.486	-178.790	-0.173	-0.004
-279.472	-200.000	0.012	0.371
-278.457	-117.704	0.124	0.022
-277.443	38.420	-0.222	0.196
-276.428	-101.719	0.221	0.053
-275.413	-200.000	-0.011	0.296
-274.399	-66.669	-0.464	-0.182
-273.384	421.074	0.107	0.227
-272.370	271.857	-0.131	0.229
-271.355	179.243	-0.100	-0.145
-270.340	-200.000	-0.015	-0.223
-269.326	800.000	0.033	0.102
-268.311	394.025	0.048	-0.098
-267.297	-200.000	0.006	0.254
-266.282	-55.327	0.219	-0.097
-265.267	88.779	-0.157	0.172
-264.253	-96.932	0.060	-0.015
-263.238	-9.002	0.377	0.249
-262.224	-84.610	0.259	0.081
-261.209	72.897	-0.204	0.210
-260.195	-54.499	0.267	0.120
-259.180	800.000	0.025	-0.102
-258.165	18.249	-0.226	-0.178
-257.151	-87.982	-0.025	0.007
-256.136	159.232	-0.131	0.180
-255.122	-103.660	0.326	0.075
-254.107	-200.000	-0.048	-0.222
-253.092	-95.959	0.252	-0.066
-252.078	402.262	-0.089	-0.184
-251.063	-64.217	-0.268	-0.108
-250.049	-149.482	-0.074	0.006
-249.034	-200.000	0.009	-0.069
-248.019	125.372	0.153	0.191
-247.005	393.964	0.063	0.130
-245.990	49.752	-0.172	0.160
-244.976	-99.899	-0.311	-0.077
-243.961	-22.293	-0.240	0.144
-242.946	-88.143	0.068	0.020
-241.932	82.412	-0.103	-0.111
-240.917	59.028	-0.039	-0.037
-239.903	-164.554	0.312	-0.014
-238.888	-200.000	-0.041	-0.243
-237.873	283.155	0.213	-0.378
-236.859	410.419	-0.187	-0.392
-235.844	-95.533	0.243	-0.064
-234.830	58.383	-0.044	0.043
-233.815	-200.000	-0.001	-0.106
-232.800	-69.720	0.382	-0.144
-231.786	517.631	-0.168	-0.388
-230.771	-35.657	0.134	0.072
-229.757	65.976	-0.139	-0.139
-228.742	90.272	0.093	0.102
-227.727	800.000	0.059	0.171
-226.713	237.430	-0.257	0.420
-225.698	31.397	0.138	0.117
-224.684	800.000	0.052	-0.178
-223.669	-186.663	0.173	-0.002
-222.655	-76.178	0.367	0.128
-221.640	-148.106	0.073	-0.006
-220.625	-155.622	0.111	-0.007
-219.611	800.000	0.088	0.277
-218.596	-200.000	-0.002	-0.027
-217.582	800.000	0.071	-0.282
-216.567	800.000	0.098	-0.298
-215.552	396.383	0.085	-0.174
-214.538	103.747	0.192	-0.223
-213.523	-137.073	0.254	0.029
-212.509	-200.000	0.060	-0.334
-211.494	-11.107	0.266	-0.173
-210.479	117.548	-0.187	-0.227
-209.465	39.248	-0.140	-0.124
-208.450	-50.484	-0.285	-0.132
-207.436	-32.861	-0.288	-0.158
-206.421	-45.911	0.217	-0.105
-205.406	283.473	-0.044	0.077
-204.392	-147.354	-0.125	0.010
-203.377	564.042	0.199	0.475
-202.363	-85.628	-0.260	-0.080
-201.348	128.572	-0.106	-0.133
-200.333	110.385	0.246	0.291
-199.319	164.011	0.157	-0.218
-198.304	800.000	0.099	-0.272
-197.290	-0.366	-0.255	-0.179
-196.275	-43.176	-0.226	0.113
-195.260	29.396	-0.095	-0.080
-194.246	-200.000	-0.004	-0.073
-193.231	77.953	0.261	0.274
-192.217	128.995	-0.149	-0.188
-191.202	-122.085	0.258	0.042
-190.187	-97.150	-0.185	0.048
-189.173	-129.493	0.474	0.065
-188.158	-192.381	0.120	0.001
-187.144	363.708	0.047	-0.093
-186.129	-140.811	0.204	0.021
-185.114	-123.103	0.072	-0.011
-184.100	-78.636	-0.162	-0.054
-183.085	129.271	-0.107	0.134
-182.071	166.782	-0.344	-0.480
-181.056	139.590	0.031	0.040
-180.042	-7.850	0.249	0.166
-179.027	-15.042	0.167	0.106
-178.012	-89.885	0.225	-0.065
-176.998	-46.091	-0.040	0.019
-175.983	-92.617	-0.282	0.078
-174.969	-75.077	0.166	-0.058
-173.954	-148.311	0.107	0.009
-172.939	-69.170	0.427	0.162
-171.925	-123.666	0.387	0.060
-170.910	-64.125	-0.343	-0.138
-169.896	-200.000	0.011	-0.080
-168.881	-200.000	-0.020	0.105
-167.866	102.665	0.125	-0.144
-166.852	-200.000	0.064	0.313
-165.837	-200.000	-0.040	0.208
-164.823	-145.483	0.076	-0.007
-163.808	41.830	0.119	0.106
-162.793	12.170	-0.065	-0.049
-161.779	-63.794	-0.248	0.100
-160.764	166.846	-0.194	0.271
-159.750	-97.205	0.288	-0.074
-158.735	38.737	-0.057	0.050
-157.720	216.652	0.086	-0.135
-156.706	91.813	-0.091	0.100
-155.691	-200.000	-0.024	-0.205
-154.677	4.358	0.118	0.085
-153.662	-200.000	0.021	-0.213
-152.647	132.143	0.103	0.131
-151.633	350.282	0.038	0.074
-150.618	-200.000	-0.063	0.283
-149.604	124.890	0.142	0.176
-148.589	-83.186	-0.237	0.075
-147.574	257.233	-0.162	0.274
-146.560	-136.508	0.054	0.006
-145.545	45.697	-0.183	0.166
-144.531	-26.760	0.164	-0.095
-143.516	-127.512	0.265	0.038
-142.502	286.529	0.117	0.208
-141.487	71.577	-0.031	-0.032
-140.472	86.965	0.169	-0.184
-139.458	141.577	0.135	-0.176
-138.443	-11.850	0.409	-0.264
-137.429	-200.000	-0.001	0.095
-136.414	-200.000	0.024	0.225
-135.399	-162.564	-0.075	-0.004
-134.385	800.000	-0.136	-0.564
-133.370	-200.000	-0.013	0.168
-132.356	-7.757	0.178	0.118
-131.341	-113.313	0.217	0.042
-130.326	-200.000	-0.055	0.256
-129.312	-84.329	-0.204	-0.064
-128.297	174.062	-0.107	0.152
-127.283	-19.651	0.309	0.188
-126.268	649.041	-0.111	0.279
-125.253	82.298	0.173	0.184
-124.239	42.366	0.127	0.113
-123.224	111.271	0.050	0.059
-122.210	-66.737	-0.180	0.070
-121.195	-200.000	-0.025	0.122
-120.180	56.638	-0.039	-0.037
-119.166	800.000	0.036	0.123
-118.151	-182.389	-0.398	0.007
-117.137	12.126	-0.094	0.071
-116.122	112.693	0.143	-0.170
-115.107	800.000	-0.042	-0.165
-114.093	61.502	0.054	0.053
-113.078	146.523	-0.134	-0.176
-112.064	-200.000	0.036	-0.201
-111.049	200.501	0.280	0.422
-110.034	208.461	0.194	0.298
-109.020	391.484	-0.126	0.258
-108.005	23.999	0.276	-0.224
-106.991	800.000	-0.069	-0.205
-105.976	459.054	-0.192	-0.420
-104.962	20.660	-0.195	-0.155
-103.947	-57.387	-0.112	0.048
-102.932	-44.920	-0.244	0.119
-101.918	-200.000	0.067	0.391
-100.903	-14.509	-0.197	0.125
-99.889	-200.000	0.017	-0.245
-98.874	800.000	-0.043	-0.161
-97.859	-27.484	0.244	0.139
-96.845	101.628	0.100	-0.114
-95.830	800.000	-0.043	0.155
-94.816	-83.417	-0.355	-0.112
-93.801	155.779	-0.250	0.339
-92.786	-97.994	0.340	0.086
-91.772	82.953	-0.032	-0.034
-90.757	285.100	-0.141	0.250
-89.743	-200.000	0.043	0.238
-88.728	-75.839	0.102	0.036
-87.713	702.920	-0.137	0.355
-86.699	68.079	-0.236	0.237
-85.684	101.300	-0.262	-0.300
-84.670	72.462	0.057	-0.058
-83.655	-146.591	0.292	0.025
-82.640	-93.828	0.133	0.036
-81.626	52.630	-0.120	0.112
-80.611	-57.869	0.178	-0.076
-79.597	-77.217	0.045	-0.015
-78.582	-2.198	0.145	0.100
-77.567	-200.000	-0.002	-0.152
-76.553	325.467	-0.099	-0.185
-75.538	-22.447	0.231	-0.137
-74.524	341.893	0.112	-0.214
-73.509	-68.368	0.052	0.020
-72.494	-125.009	0.373	0.056
-71.480	6.357	-0.287	0.209
-70.465	52.808	-0.087	0.081
-69.451	-200.000	-0.020	-0.134
-68.436	-200.000	-0.019	-0.109
-67.422	21.043	0.148	0.118
-66.407	-106.962	-0.177	-0.038
-65.392	31.381	0.241	-0.203
-64.378	-43.411	-0.222	-0.110
-63.363	-200.000	0.018	0.182
-62.349	-66.475	0.122	0.047
-61.334	222.785	-0.587	-0.927
-60.319	24.759	0.475	0.385
-59.305	669.737	-0.401	-1.016
-58.290	154.490	0.967	1.301
-57.276	800.000	0.580	1.779
-56.261	-200.000	105.891	611.308
-55.246	501.640	1508.320	3412.733
-54.232	176.603	2699.923	3845.259
-53.217	111.960	2165.142	2562.204
-52.203	41.577	1598.579	1418.076
-51.188	33.120	1332.043	1131.255
-50.173	29.908	1290.621	1077.373
-49.159	54.145	1344.974	1267.426
-48.144	54.716	1359.932	1284.857
-47.130	33.233	1315.089	1117.343
-46.115	29.702	1297.191	1081.478
-45.100	29.531	1292.447	1076.486
-44.086	29.496	1289.926	1074.137
-43.071	29.447	1287.589	1071.864
-42.057	29.384	1285.307	1069.558
-41.042	29.533	1283.078	1068.524
-40.027	29.383	1282.392	1067.039
-39.013	29.491	1280.172	1065.775
-37.998	29.444	1278.751	1064.275
-36.984	29.518	1276.975	1063.187
-35.969	29.679	1274.248	1061.794
-34.954	29.532	1273.116	1059.969
-33.940	29.540	1272.087	1059.116
-32.925	29.519	1270.645	1057.752
-31.911	29.693	1269.099	1057.419
-30.896	29.631	1267.575	1055.750
-29.881	29.765	1265.737	1054.947
-28.867	29.696	1265.013	1053.904
-27.852	29.631	1263.560	1052.282
-26.838	29.560	1262.350	1050.827
-25.823	29.679	1260.721	1050.106
-24.809	29.719	1259.564	1049.329
-23.794	29.596	1258.522	1047.725
-22.779	29.719	1256.700	1046.864
-21.765	29.819	1255.256	1046.182
-20.750	29.661	1254.119	1044.298
-19.736	29.522	1253.324	1042.808
-18.721	29.610	1251.929	1042.107
-17.706	29.545	1250.610	1040.599
-16.692	29.563	1249.528	1039.757
-15.677	29.486	1248.684	1038.583
-14.663	29.389	1247.865	1037.316
-13.648	29.533	1246.443	1036.901
-12.633	29.497	1245.492	1035.866
-11.619	29.480	1244.335	1034.767
-10.604	29.497	1243.651	1034.252
-9.590	29.426	1242.679	1033.006
-8.575	29.467	1241.704	1032.383
-7.560	29.417	1240.836	1031.342
-6.546	29.531	1240.371	1031.553
-5.531	29.490	1239.491	1030.552
-4.517	29.538	1238.267	1029.760
-3.502	29.597	1237.724	1029.593
-2.487	29.560	1236.466	1028.301
-1.473	29.585	1231.846	1024.556
-0.458	28.079	1217.996	1004.730
0.556	22.446	1200.662	968.710
1.571	18.978	1205.717	953.510
2.586	18.109	1220.839	960.501
3.600	18.055	1209.954	951.556
4.615	13.541	1139.005	871.965
5.629	4.495	1064.822	770.410
6.644	0.066	1044.344	733.950
7.659	-0.381	1041.738	729.877
8.673	-0.454	1041.100	729.011
9.688	-0.439	1039.367	727.807
10.702	0.047	1037.978	729.125
11.717	6.063	1046.459	764.355
12.731	15.050	1059.401	817.828
13.746	19.483	1064.682	843.553
14.761	20.448	1065.896	849.157
15.775	20.532	1065.160	848.906
16.790	20.224	1064.743	846.996
17.804	20.262	1064.262	846.723
18.819	20.338	1063.469	846.387
19.834	20.373	1062.935	846.059
20.848	20.350	1062.703	845.688
21.863	20.360	1062.139	845.213
22.877	20.346	1061.845	844.835
23.892	20.242	1060.676	843.322
24.907	20.416	1059.921	843.495
25.921	20.439	1058.484	842.387
26.936	20.461	1057.099	841.316
27.950	20.349	1055.810	839.675
28.965	20.231	1054.119	837.689
29.980	20.230	1052.667	836.456
30.994	20.418	1051.724	836.538
32.009	20.529	1050.141	835.736
33.023	20.288	1048.846	833.474
34.038	20.338	1048.286	833.196
35.053	20.504	1047.194	833.050
36.067	20.499	1046.839	832.673
37.082	20.386	1046.381	831.689
38.096	20.643	1045.566	832.198
39.111	20.663	1044.823	831.632
40.126	20.653	1043.364	830.347
41.140	20.333	1041.512	827.275
42.155	20.134	1039.863	824.947
43.169	20.084	1039.205	824.111
44.184	20.027	1038.502	823.210
45.199	20.070	1036.787	821.985
46.213	20.015	1036.399	821.342
47.228	20.141	1035.510	821.162
48.242	20.282	1034.320	820.813
49.257	20.424	1033.734	820.946
50.271	20.400	1033.041	820.209
51.286	20.498	1032.266	819.987
52.301	20.623	1030.843	819.371
53.315	20.532	1029.741	817.995
54.330	20.471	1029.263	817.256
55.344	20.469	1028.486	816.557
56.359	20.390	1027.361	815.222
57.374	20.228	1026.639	813.816
58.388	20.250	1025.668	813.075
59.403	20.185	1024.915	812.101
60.417	19.966	1024.145	810.396
61.432	19.987	1023.997	810.305
62.447	20.270	1022.897	810.686
63.461	20.314	1022.216	810.279
64.476	20.167	1021.116	808.651
65.490	20.109	1020.008	807.434
66.505	20.271	1019.406	807.639
67.520	20.249	1018.476	806.727
68.534	20.069	1017.275	804.868
69.549	19.854	1016.374	803.089
70.563	19.861	1015.595	802.431
71.578	19.660	1015.441	801.306
72.593	19.633	1013.731	799.763
73.607	19.700	1014.118	800.308
74.622	20.070	1013.279	801.287
75.636	20.095	1012.582	800.779
76.651	20.094	1010.722	799.234
77.666	19.923	1010.909	798.520
78.680	20.021	1009.844	798.060
79.695	19.963	1009.479	797.434
80.709	20.043	1008.520	796.973
81.724	20.065	1007.675	796.337
82.739	20.091	1006.991	795.846
83.753	20.388	1006.763	796.958
84.768	20.700	1005.042	796.953
85.782	20.803	1004.528	796.947
86.797	20.661	1003.465	795.388
87.812	20.536	1002.707	794.144
88.826	20.588	1001.737	793.544
89.841	20.654	1000.819	793.046
90.855	20.583	999.780	791.827
91.870	20.604	998.972	791.213
92.884	20.484	997.692	789.587
93.899	20.472	996.830	788.779
94.914	20.610	995.840	788.551
95.928	20.560	994.933	787.535
96.943	20.265	993.999	785.392
97.957	20.005	992.821	783.218
98.972	19.999	991.085	781.750
99.987	20.254	990.667	782.502
101.001	20.342	990.344	782.577
102.016	20.440	989.149	782.002
103.030	20.261	988.146	780.335
104.045	20.073	987.220	778.691
105.060	20.054	986.025	777.593
106.074	20.033	986.050	777.450
107.089	20.581	985.370	779.301
108.103	20.385	984.059	777.322
109.118	20.256	982.874	775.739
110.133	20.270	982.090	775.114
111.147	19.977	981.265	773.086
112.162	19.879	979.734	771.372
113.176	20.204	979.061	772.224
114.191	20.108	977.945	770.848
115.206	19.760	977.296	768.720
116.220	19.796	976.377	768.088
117.235	19.941	975.293	767.815
118.249	19.976	974.528	767.295
119.264	19.819	973.468	765.701
120.279	19.980	972.948	765.935
121.293	19.995	972.509	765.590
122.308	20.005	971.514	764.782
123.322	19.998	969.946	763.447
124.337	19.876	968.468	761.681
125.352	19.429	966.966	758.466
126.366	19.345	966.122	757.367
127.381	20.126	966.357	760.917
128.395	20.399	965.738	761.556
129.410	20.471	964.835	761.094
130.424	20.463	963.496	759.934
131.439	20.404	962.559	758.873
132.454	20.382	961.597	757.952
133.468	20.446	960.499	757.300
134.483	20.420	960.186	756.872
135.497	20.696	959.444	757.417
136.512	20.683	958.300	756.393
137.527	20.647	957.891	755.846
138.541	20.662	957.296	755.377
139.556	20.628	956.382	754.439
140.570	20.651	955.404	753.700
141.585	20.627	954.374	752.719
142.600	20.619	953.551	751.970
143.614	20.689	953.136	751.879
144.629	20.938	951.770	751.809
145.643	20.658	950.864	749.821
146.658	20.684	949.357	748.674
147.673	20.556	948.578	747.444
148.687	20.494	947.561	746.309
149.702	20.650	946.279	745.905
150.716	20.450	945.184	744.118
151.731	20.593	945.340	744.789
152.746	20.734	944.888	744.969
153.760	20.798	943.801	744.321
154.775	20.847	943.022	743.850
155.789	20.756	942.574	743.043
156.804	20.781	941.340	742.108
157.819	20.892	940.497	741.852
158.833	20.869	939.940	741.250
159.848	20.918	939.056	740.695
160.862	20.853	937.502	739.129
161.877	20.779	937.056	738.399
162.892	20.882	936.304	738.174
163.906	20.749	935.157	736.643
164.921	20.726	933.995	735.563
165.935	20.934	933.221	735.770
166.950	20.893	932.279	734.788
167.964	20.885	931.228	733.860
168.979	20.723	930.416	732.474
169.994	20.645	929.362	731.254
171.008	20.854	929.117	731.874
172.023	20.889	928.033	731.101
173.037	20.661	926.959	729.235
174.052	20.493	925.792	727.550
175.067	20.611	925.639	727.857
176.081	20.803	924.692	727.853
177.096	20.642	924.653	727.085
178.110	20.321	923.174	724.518
179.125	20.115	922.617	723.154
180.140	20.276	922.374	723.572
181.154	20.397	922.237	723.904
182.169	20.508	921.799	723.960
183.183	20.803	921.380	724.794
184.198	20.730	920.391	723.650
185.213	20.811	919.227	723.007
186.227	20.819	918.877	722.700
187.242	20.766	918.071	721.784
188.256	20.951	917.232	721.827
189.271	20.804	916.511	720.587
190.286	20.498	915.746	718.658
191.300	20.083	914.156	715.632
192.315	19.323	912.947	711.488
193.329	19.246	912.434	710.707
194.344	20.110	912.954	714.614
195.359	20.635	912.776	716.572
196.373	20.770	911.899	716.377
197.388	20.498	911.542	714.912
198.402	20.593	910.834	714.683
199.417	20.661	909.870	714.145
200.432	20.332	908.950	712.012
201.446	20.277	908.108	711.062
202.461	20.262	907.726	710.638
203.475	19.407	905.406	705.268
204.490	18.657	904.501	701.435
205.504	19.831	904.903	706.483
206.519	20.382	904.697	708.505
207.534	20.395	904.302	708.189
208.548	20.790	904.079	709.559
209.563	20.697	902.949	708.231
210.577	20.566	902.507	707.290
211.592	20.858	902.122	708.114
212.607	20.930	900.861	707.354
213.621	20.914	900.348	706.822
214.636	20.948	899.917	706.560
215.650	20.635	899.256	704.708
216.665	20.973	898.820	705.674
217.680	20.759	897.940	704.055
218.694	20.599	896.496	702.215
219.709	20.361	895.925	700.746
220.723	20.583	895.596	701.323
221.738	20.779	894.908	701.511
222.753	20.652	894.636	700.725
223.767	20.711	894.291	700.628
224.782	20.982	893.744	701.227
225.796	20.898	892.977	700.228
226.811	20.188	891.587	696.224
227.826	19.593	890.420	692.868
228.840	20.081	889.481	694.030
229.855	20.037	889.063	693.467
230.869	19.627	887.984	690.923
231.884	20.050	888.147	692.680
232.899	20.770	888.292	695.612
233.913	20.728	887.488	694.752
234.928	20.624	886.993	693.889
235.942	20.595	886.124	693.031
236.957	20.220	885.313	690.840
237.972	20.375	884.778	690.981
238.986	20.473	884.166	690.829
240.001	20.303	883.726	689.750
241.015	20.627	882.744	690.207
242.030	20.743	882.609	690.504
243.045	20.592	882.149	689.484
244.059	20.824	881.487	689.822
245.074	20.679	880.071	688.079
246.088	20.451	879.692	686.822
247.103	20.660	879.528	687.460
248.117	21.220	879.239	689.383
249.132	21.409	878.510	689.499
250.147	21.455	877.825	689.080
251.161	21.561	877.693	689.330
252.176	21.446	877.063	688.324
253.190	21.531	876.362	688.048
254.205	21.722	875.853	688.336
255.220	21.726	875.095	687.696
256.234	21.451	874.353	685.975
257.249	21.376	873.528	684.970
258.263	21.534	872.904	685.038
259.278	21.604	872.440	684.891
260.293	21.589	871.893	684.341
261.307	21.485	871.238	683.360
262.322	21.350	870.142	681.914
263.336	20.538	868.274	677.225
264.351	19.376	866.466	671.236
265.366	19.641	865.950	671.810
266.380	20.762	866.899	676.847
267.395	21.206	865.828	677.672
268.409	21.151	865.617	677.237
269.424	21.231	865.670	677.528
270.439	21.269	864.776	676.915
271.453	21.508	864.148	677.286
272.468	21.612	864.016	677.526
273.482	21.756	862.793	677.063
274.497	21.231	861.890	674.270
275.512	20.900	861.445	672.586
276.526	21.411	861.467	674.515
277.541	21.501	861.034	674.464
278.555	21.240	859.526	672.216
279.570	21.021	859.035	670.931
280.585	21.239	858.640	671.402
281.599	21.199	857.454	670.261
282.614	20.652	856.359	667.248
283.628	20.741	856.197	667.405
284.643	21.069	855.536	668.087
285.657	20.605	854.379	665.350
286.672	20.320	853.754	663.714
287.687	20.964	853.723	666.094
288.701	20.848	853.150	665.142
289.716	20.644	852.199	663.566
290.730	20.580	851.650	662.833
291.745	20.394	850.661	661.296
292.760	20.713	850.391	662.242
293.774	21.518	851.153	665.842
294.789	21.803	850.761	666.562
295.803	22.032	849.939	666.728
296.818	22.009	849.283	666.067
297.833	21.519	847.940	663.098
298.847	21.355	847.724	662.250
299.862	21.665	847.060	662.846
300.876	21.851	846.919	663.378
301.891	21.860	846.162	662.763
302.906	21.367	845.150	660.050
303.920	21.602	844.696	660.524
304.935	21.949	844.680	661.763
305.949	22.037	843.765	661.317
306.964	21.653	843.539	659.635
307.979	21.678	843.232	659.432
308.993	21.935	842.835	660.029
310.008	22.116	841.700	659.761
311.022	21.719	841.195	657.818
312.037	21.625	840.901	657.178
313.052	21.354	839.830	655.265
314.066	20.626	838.247	651.249
315.081	20.312	837.842	649.702
316.095	21.176	838.010	653.007
317.110	21.713	837.351	654.443
318.125	20.782	836.277	650.071
319.139	19.807	834.617	645.087
320.154	19.885	834.480	645.215
321.168	20.612	835.087	648.339
322.183	21.401	834.604	650.847
323.197	21.330	834.656	650.563
324.212	21.740	834.111	651.607
325.227	21.738	833.698	651.218
326.241	21.547	832.850	649.790
327.256	21.488	832.314	649.093
328.270	21.418	831.677	648.279
329.285	21.245	830.657	646.788
330.300	21.065	829.839	645.427
331.314	21.212	829.594	645.725
332.329	21.621	830.110	647.581
333.343	21.740	829.380	647.395
334.358	21.843	828.323	646.891
335.373	21.767	828.790	646.919
336.387	22.064	828.222	647.514
337.402	22.287	827.686	647.858
338.416	22.098	827.477	646.940
339.431	22.150	827.136	646.809
340.446	22.347	826.566	647.031
341.460	22.118	826.092	645.759
342.475	21.902	825.715	644.615
343.489	22.140	825.364	645.159
344.504	22.369	825.064	645.707
345.519	22.315	825.033	645.429
346.533	22.444	824.504	645.429
347.548	22.461	823.885	644.949
348.562	22.549	823.259	644.725
349.577	22.559	822.581	644.174
350.592	22.575	821.744	643.517
351.606	22.417	821.541	642.726
352.621	22.473	820.357	641.946
353.635	22.387	819.280	640.736
354.650	21.861	817.599	637.452
355.665	20.762	816.414	632.483
356.679	21.346	816.029	634.247
357.694	21.526	816.014	634.834
358.708	21.370	815.909	634.128
359.723	21.837	815.447	635.406
360.738	22.174	815.386	636.523
361.752	22.287	814.612	636.270
362.767	22.439	814.401	636.601
363.781	22.887	813.731	637.639
364.796	22.818	813.809	637.392
365.810	22.804	813.171	636.786
366.825	22.858	812.765	636.607
367.840	22.587	812.071	635.031
368.854	22.147	810.915	632.485
369.869	22.247	810.528	632.489
370.883	22.367	810.041	632.485
371.898	22.163	809.808	631.514
372.913	22.244	809.547	631.547
373.927	22.281	809.070	631.251
374.942	22.570	808.852	632.062
375.956	22.525	808.392	631.483
376.971	22.771	807.957	631.970
377.986	22.742	807.575	631.512
379.000	22.791	807.021	631.197
380.015	22.546	806.378	629.764
381.029	22.750	805.666	629.878
382.044	22.945	805.431	630.337
383.059	22.799	804.914	629.354
384.073	22.925	804.111	629.121
385.088	22.895	803.707	628.643
386.102	22.582	803.323	627.170
387.117	22.386	802.625	625.876
388.132	22.271	801.442	624.489
389.146	21.982	800.274	622.499
390.161	22.166	800.281	623.102
391.175	22.537	800.083	624.205
392.190	22.179	799.023	622.057
393.205	20.939	796.927	615.990
394.219	19.567	795.087	609.672
395.234	19.547	795.453	609.829
396.248	21.216	796.773	616.687
397.263	22.571	797.224	621.764
398.278	22.587	796.980	621.577
399.292	22.286	795.959	619.667
400.307	22.225	795.775	619.254
401.321	22.300	795.785	619.468
402.336	22.735	795.374	620.626
403.350	23.104	795.118	621.668
404.365	23.370	795.055	622.499
405.380	23.396	794.837	622.362
406.394	23.638	794.122	622.596
407.409	23.497	793.454	621.524
408.423	23.385	793.151	620.838
409.438	23.410	793.013	620.765
410.453	23.556	792.760	621.022
411.467	23.472	791.954	620.043
412.482	23.563	791.515	619.960
413.496	23.521	791.378	619.652
414.511	23.681	790.620	619.563
415.526	23.563	790.177	618.748
416.540	23.436	789.945	618.070
417.555	23.123	788.979	616.170
418.569	23.243	788.878	616.456
419.584	23.237	787.920	615.630
420.599	22.976	787.611	614.428
421.613	157.871	1364.980	1798.900
422.628	136.636	1449.090	1798.987
