DTS Sentinel unit serial number:	SN413079Multiplexer serial number:	ORYXHardware model number:	OX4-SRSoftware version number:	ORYX F/W v4.00 Oryx Data Collector v3.7.2.0data status	okinstallation	princeton_trtdifferential loss correction	single-endedforward channel	channel 1reverse channel	N/Adate	2019/09/12time	08:04:11forward acquisition time	60.00reverse acquisition time	0.00gamma	496.2192k internal	0.2314k external	0.2314temperature offset calibration	1.0042default loss term (dB/km)	0.3790temperature slope calibration	1.0000multiplexer offset coefficient	1.0000multiplexer slope coefficient	1.0000fibre end	0.00T internal ref (°C)	33.12T ext. ref 1 (°C)	1.66T ext. ref 2 (°C)	29.63length (m)	temperature (°C)	Stokes	anti-Stokes-747.200	-43.279	0.254	0.130
-746.185	800.000	0.065	0.281
-745.171	800.000	-0.052	0.157
-744.156	-200.000	-0.052	0.257
-743.142	-99.220	-0.273	-0.070
-742.127	132.251	-0.223	0.291
-741.112	-163.945	-0.237	0.011
-740.098	70.553	-0.089	0.093
-739.083	-173.905	-0.077	-0.002
-738.069	800.000	0.024	-0.100
-737.054	-125.028	0.091	-0.014
-736.039	800.000	0.120	-0.395
-735.025	-200.000	-0.008	0.114
-734.010	-5.636	-0.243	-0.169
-732.996	-23.050	0.129	-0.079
-731.981	287.122	-0.117	-0.214
-730.966	-172.522	0.049	-0.002
-729.952	152.584	0.012	-0.017
-728.937	506.268	0.097	0.227
-727.923	-85.348	-0.595	-0.188
-726.908	-36.428	-0.047	0.026
-725.894	-55.893	0.134	-0.061
-724.879	407.973	0.055	0.118
-723.864	800.000	-0.043	-0.131
-722.850	-200.000	-0.084	-0.451
-721.835	-83.338	0.308	-0.100
-720.821	-41.858	-0.201	-0.104
-719.806	-48.726	-0.079	0.038
-718.791	30.464	-0.064	0.056
-717.777	-200.000	-0.024	-0.228
-716.762	25.423	-0.135	-0.114
-715.748	278.619	-0.140	-0.253
-714.733	39.300	-0.083	-0.075
-713.718	493.452	-0.095	-0.222
-712.704	14.399	-0.112	-0.089
-711.689	-154.007	-0.268	0.018
-710.675	-200.000	0.010	-0.154
-709.660	180.863	0.081	0.121
-708.645	672.293	-0.039	0.102
-707.631	25.131	0.170	-0.143
-706.616	-20.104	0.091	0.057
-705.602	395.786	0.077	-0.163
-704.587	281.863	0.172	-0.311
-703.572	557.826	-0.101	-0.246
-702.558	-86.753	-0.156	-0.048
-701.543	56.551	-0.193	-0.190
-700.529	-200.000	0.017	0.082
-699.514	169.275	-0.044	-0.064
-698.499	-200.000	-0.096	-0.471
-697.485	800.000	-0.006	0.020
-696.470	-200.000	0.021	0.112
-695.456	192.324	0.024	-0.037
-694.441	-53.830	-0.248	0.114
-693.426	-102.557	-0.311	-0.075
-692.412	79.156	0.274	0.297
-691.397	-16.905	0.195	0.125
-690.383	-140.644	0.248	0.026
-689.368	53.247	0.058	-0.056
-688.354	129.544	-0.090	-0.117
-687.339	-115.495	-0.431	-0.082
-686.324	-61.364	0.284	-0.121
-685.310	-24.351	0.118	0.071
-684.295	-200.000	0.017	0.155
-683.281	-85.132	-0.154	-0.049
-682.266	414.807	-0.042	0.091
-681.251	0.489	-0.198	0.143
-680.237	40.851	0.215	-0.196
-679.222	-69.488	-0.262	-0.102
-678.208	56.320	0.118	0.116
-677.193	62.475	0.193	0.195
-676.178	800.000	-0.078	-0.236
-675.164	304.246	-0.198	-0.372
-674.149	-117.538	0.091	0.017
-673.135	28.628	-0.089	-0.076
-672.120	800.000	-0.142	-0.413
-671.105	195.896	0.201	-0.310
-670.091	800.000	0.042	0.166
-669.076	800.000	-0.010	0.039
-668.062	-159.023	0.247	0.014
-667.047	120.751	-0.092	0.116
-666.032	72.350	-0.309	0.325
-665.018	4.961	-0.228	-0.169
-664.003	-200.000	0.009	-0.248
-662.989	-72.150	0.178	0.067
-661.974	87.678	-0.097	0.108
-660.959	99.587	-0.082	-0.096
-659.945	-200.000	-0.017	-0.330
-658.930	800.000	-0.079	0.309
-657.916	36.907	0.203	0.182
-656.901	-61.262	-0.063	-0.027
-655.886	210.550	0.121	0.192
-654.872	-200.000	-0.003	-0.190
-653.857	800.000	-0.072	-0.297
-652.843	-0.347	-0.222	-0.159
-651.828	800.000	-0.046	-0.154
-650.814	-71.203	-0.413	0.157
-649.799	290.927	-0.117	0.215
-648.784	551.571	0.066	-0.161
-647.770	411.450	-0.042	0.091
-646.755	-124.202	0.067	0.011
-645.741	-70.522	0.231	-0.088
-644.726	450.219	-0.078	-0.174
-643.711	-72.546	0.058	-0.022
-642.697	260.419	-0.209	0.364
-641.682	73.333	-0.186	-0.197
-640.668	-29.444	0.255	0.147
-639.653	121.654	-0.266	0.335
-638.638	49.462	0.089	-0.085
-637.624	191.311	0.060	0.091
-636.609	266.043	-0.142	0.249
-635.595	77.809	-0.237	-0.255
-634.580	103.210	-0.410	-0.485
-633.565	-123.013	-0.150	-0.024
-632.551	304.935	-0.164	0.308
-631.536	354.442	0.223	0.448
-630.522	800.000	-0.029	0.107
-629.507	-200.000	0.002	0.085
-628.492	-200.000	0.004	0.047
-627.478	440.542	0.023	0.051
-626.463	15.774	-0.166	0.131
-625.449	191.674	-0.299	-0.454
-624.434	215.146	0.074	-0.118
-623.419	-200.000	0.006	0.137
-622.405	92.210	0.166	0.189
-621.390	-200.000	-0.017	0.237
-620.376	84.487	-0.038	-0.042
-619.361	800.000	0.043	0.130
-618.346	12.778	0.042	-0.033
-617.332	242.347	0.094	0.159
-616.317	-90.490	-0.398	0.116
-615.303	-88.348	0.085	0.026
-614.288	242.056	0.084	-0.141
-613.273	-107.225	0.086	0.019
-612.259	-28.322	0.108	0.063
-611.244	-85.748	-0.450	-0.141
-610.230	-200.000	-0.060	-0.329
-609.215	-137.715	0.090	0.010
-608.201	513.939	0.103	-0.242
-607.186	6.085	0.120	-0.090
-606.171	-200.000	0.010	0.044
-605.157	-20.605	-0.149	0.093
-604.142	642.060	-0.139	-0.357
-603.128	309.946	-0.050	0.093
-602.113	-152.469	-0.128	0.009
-601.098	5.679	0.310	0.231
-600.084	-133.104	-0.134	0.017
-599.069	17.456	-0.102	-0.082
-598.055	-64.406	0.415	0.170
-597.040	-0.705	-0.097	0.069
-596.025	155.648	0.050	-0.070
-595.011	20.474	-0.092	-0.075
-593.996	93.074	0.153	0.174
-592.982	-41.618	-0.113	0.058
-591.967	319.724	0.139	0.266
-590.952	38.704	0.227	-0.204
-589.938	436.079	0.037	-0.082
-588.923	414.914	-0.083	0.178
-587.909	-36.090	-0.056	-0.030
-586.894	-98.997	0.140	-0.036
-585.879	800.000	0.052	-0.226
-584.865	-25.877	0.351	0.208
-583.850	21.345	0.099	0.081
-582.836	-190.424	-0.453	0.005
-581.821	-31.718	-0.257	-0.146
-580.806	672.414	-0.057	0.148
-579.792	339.650	0.100	0.196
-578.777	-75.206	0.060	-0.022
-577.763	-33.533	0.287	-0.160
-576.748	-85.422	0.117	0.037
-575.733	-81.076	-0.454	0.151
-574.719	244.383	0.133	-0.225
-573.704	-127.455	0.194	0.028
-572.690	-111.501	0.221	-0.045
-571.675	381.172	-0.123	-0.254
-570.661	-129.586	-0.051	-0.007
-569.646	-200.000	-0.070	0.341
-568.631	-114.560	-0.186	0.036
-567.617	101.622	0.121	0.142
-566.602	800.000	-0.031	-0.121
-565.588	126.223	0.066	-0.084
-564.573	-43.544	0.216	0.110
-563.558	161.883	0.130	0.183
-562.544	56.219	0.345	-0.337
-561.529	-97.362	0.074	-0.020
-560.515	800.000	0.135	-0.395
-559.500	-37.620	0.246	0.132
-558.485	120.788	-0.047	-0.059
-557.471	-200.000	0.004	-0.077
-556.456	-119.700	-0.275	0.048
-555.442	171.832	-0.080	0.116
-554.427	-157.264	-0.128	-0.008
-553.412	40.189	-0.153	0.138
-552.398	-200.000	0.021	0.367
-551.383	105.813	0.137	0.163
-550.369	800.000	0.020	-0.067
-549.354	-78.181	0.071	-0.024
-548.339	69.957	0.251	-0.261
-547.325	16.831	-0.307	-0.244
-546.310	28.326	0.307	-0.261
-545.296	110.769	0.064	0.078
-544.281	61.760	0.100	0.101
-543.266	-109.646	0.169	-0.036
-542.252	800.000	-0.062	-0.254
-541.237	-161.900	-0.249	0.013
-540.223	20.125	-0.185	-0.150
-539.208	61.845	0.162	-0.163
-538.193	155.531	-0.093	0.129
-537.179	800.000	0.057	-0.171
-536.164	180.261	0.101	0.148
-535.150	368.194	-0.211	-0.430
-534.135	-32.132	0.207	-0.117
-533.121	396.915	0.033	0.070
-532.106	-197.692	-0.400	-0.002
-531.091	45.009	-0.119	-0.110
-530.077	-25.176	-0.386	-0.230
-529.062	800.000	-0.087	0.329
-528.048	47.451	-0.241	0.226
-527.033	800.000	0.046	0.139
-526.018	23.850	0.311	0.257
-525.004	800.000	-0.087	0.346
-523.989	-84.621	-0.221	-0.070
-522.975	601.343	0.168	0.419
-521.960	-143.244	0.051	0.005
-520.945	-117.660	-0.344	-0.062
-519.931	-5.085	-0.414	0.287
-518.916	-200.000	-0.056	0.445
-517.902	494.009	0.041	0.095
-516.887	-97.563	-0.086	-0.022
-515.872	106.831	0.238	0.284
-514.858	-61.181	-0.194	0.082
-513.843	-90.603	0.499	0.145
-512.829	-72.971	-0.235	-0.087
-511.814	-200.000	-0.015	0.131
-510.799	790.882	-0.055	0.153
-509.785	800.000	0.062	-0.265
-508.770	-200.000	0.019	-0.127
-507.756	50.803	-0.119	-0.114
-506.741	-129.707	0.089	0.012
-505.726	-200.000	-0.056	-0.276
-504.712	-147.615	-0.136	-0.011
-503.697	-94.721	-0.515	0.140
-502.683	242.832	-0.095	-0.159
-501.668	-52.160	0.240	0.112
-500.653	-200.000	-0.014	-0.258
-499.639	73.149	0.194	0.204
-498.624	-200.000	-0.018	0.297
-497.610	182.119	0.096	-0.142
-496.595	-33.153	-0.055	0.030
-495.581	-108.349	-0.107	-0.023
-494.566	-200.000	-0.001	-0.147
-493.551	63.175	0.253	0.255
-492.537	-139.384	-0.333	0.036
-491.522	24.126	-0.083	0.069
-490.508	-68.104	-0.048	0.019
-489.493	82.300	0.099	0.108
-488.478	800.000	0.039	-0.155
-487.464	-38.840	-0.090	-0.048
-486.449	-8.090	0.049	-0.033
-485.435	184.768	-0.093	0.139
-484.420	494.856	0.056	-0.129
-483.405	-151.625	-0.145	0.011
-482.391	-152.558	0.125	0.009
-481.376	800.000	-0.084	0.319
-480.362	-72.138	0.256	0.095
-479.347	8.437	0.010	-0.008
-478.332	-38.254	-0.144	0.077
-477.318	-42.842	0.380	-0.194
-476.303	-77.502	0.146	0.051
-475.289	-0.899	-0.195	0.138
-474.274	288.481	-0.161	-0.292
-473.259	-200.000	0.030	0.142
-472.245	-120.522	0.273	-0.047
-471.230	312.078	0.192	0.362
-470.216	10.133	-0.339	0.258
-469.201	69.824	0.035	0.037
-468.186	115.560	0.124	0.151
-467.172	73.061	-0.163	0.170
-466.157	-200.000	0.050	-0.289
-465.143	-161.043	0.258	0.014
-464.128	-200.000	-0.025	-0.141
-463.113	276.576	0.131	0.234
-462.099	37.907	0.224	-0.199
-461.084	79.481	0.391	-0.421
-460.070	51.276	-0.086	0.082
-459.055	-98.827	0.138	0.035
-458.040	-104.515	0.193	-0.045
-457.026	-200.000	0.004	-0.042
-456.011	-200.000	-0.028	-0.342
-454.997	-200.000	0.003	-0.201
-453.982	-132.612	0.083	0.011
-452.968	800.000	-0.038	-0.145
-451.953	-7.020	0.305	-0.207
-450.938	-140.634	-0.104	0.011
-449.924	-138.982	0.128	-0.014
-448.909	-135.216	0.082	-0.010
-447.895	25.582	0.061	-0.051
-446.880	800.000	-0.011	-0.044
-445.865	415.444	0.064	0.137
-444.851	-66.597	-0.181	0.072
-443.836	728.052	0.000	-0.001
-442.822	111.376	0.300	-0.362
-441.807	-13.878	0.200	-0.130
-440.792	-54.663	-0.248	0.112
-439.778	75.295	0.074	0.078
-438.763	192.047	-0.118	0.178
-437.749	-200.000	0.080	-0.476
-436.734	-160.976	-0.346	-0.018
-435.719	-28.060	-0.109	-0.063
-434.705	-52.106	-0.345	0.160
-433.690	213.160	0.030	-0.047
-432.676	-200.000	-0.012	0.097
-431.661	800.000	-0.090	-0.288
-430.646	-116.112	-0.172	-0.032
-429.632	800.000	0.049	0.144
-428.617	418.126	-0.089	-0.190
-427.603	800.000	0.055	0.197
-426.588	91.261	-0.125	-0.141
-425.573	381.475	0.097	-0.200
-424.559	658.528	0.033	-0.085
-423.544	-157.791	0.146	-0.009
-422.530	104.761	-0.036	-0.043
-421.515	-200.000	0.087	-0.395
-420.500	-200.000	0.023	-0.115
-419.486	-6.419	-0.310	0.212
-418.471	800.000	0.059	0.243
-417.457	-92.762	-0.217	-0.061
-416.442	155.130	-0.194	-0.267
-415.428	-95.058	-0.124	-0.034
-414.413	-192.749	0.139	-0.001
-413.398	583.613	-0.056	-0.137
-412.384	-122.738	-0.165	0.027
-411.369	414.550	0.235	0.502
-410.355	800.000	0.060	-0.226
-409.340	-200.000	0.021	-0.146
-408.325	800.000	0.022	-0.064
-407.311	321.841	-0.126	0.240
-406.296	5.964	0.110	0.082
-405.282	-200.000	0.003	-0.226
-404.267	204.131	0.143	-0.222
-403.252	-88.438	0.040	-0.012
-402.238	-35.220	-0.061	-0.033
-401.223	368.313	-0.197	0.398
-400.209	107.287	-0.128	-0.153
-399.194	556.282	0.042	-0.101
-398.179	-41.968	-0.135	-0.069
-397.165	-46.526	-0.186	0.091
-396.150	-143.230	0.123	0.012
-395.136	-26.845	-0.167	0.098
-394.121	-25.007	0.296	-0.176
-393.106	153.528	0.087	-0.119
-392.092	163.820	-0.079	-0.112
-391.077	226.076	-0.064	-0.104
-390.063	177.117	0.173	-0.251
-389.048	177.198	-0.193	0.281
-388.033	-32.133	0.137	-0.077
-387.019	614.268	-0.068	-0.171
-386.004	-141.059	-0.368	-0.038
-384.990	-82.721	-0.215	0.070
-383.975	-2.744	0.183	0.128
-382.960	12.444	-0.105	0.081
-381.946	372.358	0.087	-0.178
-380.931	134.662	-0.089	-0.115
-379.917	206.169	0.019	-0.030
-378.902	-200.000	-0.010	0.056
-377.888	723.876	0.067	0.177
-376.873	-200.000	-0.034	0.282
-375.858	652.964	0.104	0.266
-374.844	-94.085	0.181	-0.050
-373.829	-14.908	0.106	0.068
-372.815	-200.000	0.070	-0.312
-371.800	800.000	-0.076	-0.322
-370.785	-200.000	-0.006	0.267
-369.771	279.804	-0.054	-0.097
-368.756	-106.128	0.334	-0.075
-367.742	-81.746	0.077	0.025
-366.727	136.378	0.103	-0.135
-365.712	126.188	0.208	-0.263
-364.698	383.081	0.197	-0.405
-363.683	131.849	-0.077	-0.100
-362.669	-200.000	-0.054	0.323
-361.654	710.034	0.012	0.032
-360.639	-60.735	-0.266	-0.113
-359.625	-48.310	-0.264	0.127
-358.610	25.815	0.142	0.118
-357.596	12.255	0.223	-0.171
-356.581	-115.723	-0.203	-0.038
-355.566	-144.220	0.284	0.026
-354.552	189.247	-0.053	-0.079
-353.537	-120.371	-0.154	-0.026
-352.523	-1.311	0.246	0.174
-351.508	267.727	0.090	0.158
-350.493	-193.590	0.044	0.000
-349.479	-120.170	-0.349	-0.060
-348.464	100.459	-0.073	0.084
-347.450	245.134	-0.136	0.228
-346.435	115.662	0.056	-0.068
-345.420	-141.514	-0.049	-0.005
-344.406	-66.582	0.083	-0.033
-343.391	-132.821	-0.311	-0.040
-342.377	-90.696	-0.191	-0.055
-341.362	-79.384	-0.214	-0.072
-340.348	-18.614	-0.305	0.190
-339.333	-200.000	-0.004	0.086
-338.318	-130.641	-0.177	-0.024
-337.304	35.499	0.147	-0.129
-336.289	35.858	-0.232	-0.203
-335.275	321.352	0.075	-0.143
-334.260	444.535	0.025	0.054
-333.245	-69.571	0.374	0.143
-332.231	-69.588	-0.274	0.105
-331.216	-200.000	0.036	-0.306
-330.202	-105.792	0.201	0.045
-329.187	89.025	0.028	0.032
-328.172	53.433	-0.174	-0.167
-327.158	160.254	0.286	-0.398
-326.143	-200.000	0.010	-0.195
-325.129	-129.047	-0.203	-0.028
-324.114	-150.949	0.044	0.003
-323.099	-157.501	-0.195	-0.012
-322.085	786.456	-0.007	-0.019
-321.070	-105.287	-0.210	-0.048
-320.056	-115.788	0.066	0.012
-319.041	-107.632	0.215	0.047
-318.026	-200.000	0.006	-0.125
-317.012	153.023	-0.157	-0.214
-315.997	-60.809	0.046	-0.020
-314.983	-48.432	0.098	-0.047
-313.968	-200.000	-0.006	-0.201
-312.953	-60.198	-0.128	-0.054
-311.939	-66.531	0.256	0.101
-310.924	-57.502	0.226	0.099
-309.910	-200.000	-0.008	-0.050
-308.895	-200.000	0.016	0.143
-307.880	9.480	-0.363	0.274
-306.866	-102.286	-0.065	0.016
-305.851	-200.000	0.041	-0.216
-304.837	800.000	0.061	-0.261
-303.822	-57.667	0.045	-0.020
-302.807	800.000	-0.023	0.079
-301.793	-66.969	0.235	0.092
-300.778	363.152	0.086	-0.173
-299.764	247.611	0.154	0.260
-298.749	51.705	-0.032	-0.030
-297.735	6.729	0.173	-0.128
-296.720	677.111	-0.043	-0.111
-295.705	-185.143	-0.100	-0.002
-294.691	-200.000	-0.064	-0.374
-293.676	-94.320	0.255	-0.069
-292.662	800.000	-0.055	-0.213
-291.647	-39.500	0.066	-0.034
-290.632	-198.472	-0.067	-0.000
-289.618	-64.034	-0.104	0.042
-288.603	-200.000	0.004	-0.129
-287.589	-71.271	0.379	0.142
-286.574	-43.693	-0.241	0.121
-285.559	-103.042	-0.086	0.020
-284.545	-11.614	0.113	0.074
-283.530	-78.710	0.208	-0.071
-282.516	543.555	0.040	-0.095
-281.501	-200.000	0.016	-0.215
-280.486	-138.624	-0.291	-0.032
-279.472	196.127	-0.060	0.091
-278.457	800.000	-0.061	-0.216
-277.443	547.841	0.055	0.132
-276.428	-200.000	-0.034	0.320
-275.413	800.000	0.090	0.259
-274.399	-82.244	-0.433	0.140
-273.384	-109.770	0.148	-0.031
-272.370	118.324	0.126	0.155
-271.355	55.002	-0.223	-0.214
-270.340	53.445	0.097	-0.092
-269.326	800.000	-0.136	0.387
-268.311	99.735	-0.279	0.322
-267.297	257.324	0.133	-0.228
-266.282	78.713	0.262	0.278
-265.267	227.529	0.104	0.167
-264.253	-147.634	0.090	-0.008
-263.238	-200.000	-0.012	-0.155
-262.224	-200.000	-0.004	0.331
-261.209	-200.000	-0.068	-0.421
-260.195	-2.498	0.190	-0.133
-259.180	-200.000	0.010	0.166
-258.165	-150.507	0.141	0.011
-257.151	-200.000	-0.011	0.263
-256.136	213.915	0.167	0.262
-255.122	436.243	-0.118	-0.255
-254.107	-111.642	0.237	-0.048
-253.092	800.000	-0.063	-0.205
-252.078	800.000	-0.030	0.096
-251.063	-155.452	0.220	-0.014
-250.049	219.645	0.182	0.289
-249.034	-10.678	0.345	-0.227
-248.019	-200.000	-0.015	-0.136
-247.005	63.382	0.098	0.098
-245.990	-24.213	-0.107	-0.063
-244.976	167.217	-0.059	-0.083
-243.961	33.664	0.230	0.198
-242.946	-200.000	-0.003	0.201
-241.932	-76.173	-0.130	0.045
-240.917	560.830	-0.165	-0.396
-239.903	-7.420	0.099	0.067
-238.888	352.256	0.149	-0.294
-237.873	27.497	-0.036	-0.030
-236.859	-200.000	-0.009	0.117
-235.844	95.259	-0.179	0.203
-234.830	93.965	0.177	-0.199
-233.815	-132.954	0.215	0.027
-232.800	-200.000	0.005	-0.230
-231.786	-77.897	-0.422	0.145
-230.771	216.597	0.005	0.009
-229.757	800.000	0.065	-0.232
-228.742	-200.000	0.014	-0.105
-227.727	-72.893	0.309	0.113
-226.713	-200.000	-0.057	0.470
-225.698	800.000	-0.138	0.415
-224.684	152.600	0.154	-0.209
-223.669	25.138	0.271	0.223
-222.655	94.863	-0.184	0.207
-221.640	510.961	-0.066	-0.152
-220.625	-200.000	-0.007	-0.067
-219.611	800.000	-0.064	-0.248
-218.596	-200.000	0.059	0.502
-217.582	-48.316	0.053	-0.025
-216.567	800.000	0.038	0.107
-215.552	-102.317	0.251	-0.060
-214.538	-200.000	-0.028	-0.368
-213.523	277.336	0.081	-0.144
-212.509	800.000	-0.003	-0.012
-211.494	-200.000	-0.019	-0.227
-210.479	-145.592	-0.291	-0.026
-209.465	-148.120	0.106	-0.009
-208.450	47.499	-0.307	-0.284
-207.436	-200.000	-0.016	0.158
-206.421	431.939	0.033	-0.071
-205.406	-200.000	0.062	-0.292
-204.392	42.770	-0.138	0.125
-203.377	-200.000	-0.033	-0.317
-202.363	-68.661	0.124	0.048
-201.348	536.923	-0.110	0.260
-200.333	372.474	0.143	0.288
-199.319	-136.158	0.261	-0.030
-198.304	-26.104	-0.301	0.176
-197.290	132.877	-0.197	0.252
-196.275	42.046	0.128	0.116
-195.260	-90.237	-0.122	0.035
-194.246	4.685	0.078	-0.057
-193.231	41.983	-0.170	0.153
-192.217	-200.000	0.002	0.130
-191.202	253.728	-0.033	-0.057
-190.187	-31.149	0.218	-0.122
-189.173	-89.911	0.195	0.057
-188.158	18.763	-0.165	0.131
-187.144	-111.730	0.297	-0.060
-186.129	263.052	-0.194	0.334
-185.114	160.209	-0.105	-0.145
-184.100	-113.691	-0.135	0.026
-183.085	166.873	-0.061	0.086
-182.071	-141.315	0.248	-0.025
-181.056	-200.000	0.033	0.179
-180.042	-200.000	-0.025	0.200
-179.027	519.822	0.062	0.145
-178.012	37.374	0.110	0.097
-176.998	-122.186	0.103	-0.017
-175.983	19.217	-0.097	0.078
-174.969	17.421	-0.104	0.082
-173.954	-200.000	-0.050	0.249
-172.939	-200.000	-0.001	-0.038
-171.925	-141.295	0.205	-0.021
-170.910	-8.286	-0.210	0.140
-169.896	245.738	-0.187	0.313
-168.881	-146.890	0.170	0.014
-167.866	-72.075	0.162	-0.060
-166.852	370.070	-0.059	-0.119
-165.837	143.418	0.145	-0.191
-164.823	-46.434	-0.221	0.108
-163.808	44.355	0.234	-0.213
-162.793	120.979	-0.263	-0.324
-161.779	670.373	-0.032	0.081
-160.764	-200.000	-0.047	0.310
-159.750	62.163	0.256	0.253
-158.735	461.548	0.004	-0.009
-157.720	-134.959	-0.411	-0.049
-156.706	-125.012	0.294	-0.045
-155.691	-40.208	0.337	-0.174
-154.677	252.894	-0.205	-0.347
-153.662	-147.542	-0.248	0.021
-152.647	-131.210	0.076	-0.010
-151.633	18.046	0.047	-0.037
-150.618	131.899	-0.085	-0.108
-149.604	106.567	0.054	-0.064
-148.589	247.177	0.081	-0.135
-147.574	-171.614	0.165	-0.005
-146.560	795.837	0.071	-0.194
-145.545	-59.767	-0.051	-0.021
-144.531	800.000	0.003	-0.011
-143.516	-91.626	-0.260	-0.073
-142.502	-143.706	0.368	0.034
-141.487	44.367	-0.046	0.042
-140.472	287.341	-0.016	-0.029
-139.458	26.201	0.408	-0.337
-138.443	-200.000	0.015	-0.244
-137.429	137.656	0.254	-0.329
-136.414	-112.504	0.402	-0.079
-135.399	-183.084	0.190	-0.003
-134.385	-200.000	-0.069	0.350
-133.370	142.100	-0.017	-0.022
-132.356	474.818	0.022	-0.050
-131.341	-126.871	-0.159	-0.023
-130.326	-108.924	-0.047	-0.010
-129.312	465.294	-0.188	-0.415
-128.297	-200.000	0.025	-0.402
-127.283	-96.585	0.528	0.138
-126.268	800.000	0.078	0.292
-125.253	144.173	0.042	0.055
-124.239	-200.000	0.015	-0.280
-123.224	-200.000	-0.010	-0.114
-122.210	-2.489	-0.210	-0.146
-121.195	596.821	0.081	0.199
-120.180	42.875	-0.210	0.190
-119.166	-70.401	0.157	0.059
-118.151	187.008	-0.093	0.138
-117.137	-122.331	-0.327	-0.053
-116.122	-33.431	0.248	0.135
-115.107	-2.372	0.151	0.105
-114.093	29.557	-0.096	-0.080
-113.078	-200.000	0.015	-0.405
-112.064	475.503	0.107	-0.240
-111.049	123.992	0.099	0.123
-110.034	-21.996	0.258	0.155
-109.020	-200.000	-0.030	0.257
-108.005	-78.939	-0.090	-0.030
-106.991	-89.338	0.197	0.058
-105.976	-121.261	0.329	-0.054
-104.962	14.633	-0.078	0.060
-103.947	511.861	0.069	0.158
-102.932	200.677	-0.108	0.164
-101.918	-165.566	0.274	0.012
-100.903	-67.495	0.182	0.071
-99.889	459.150	-0.230	0.507
-98.874	-200.000	-0.005	-0.358
-97.859	-59.452	0.212	-0.090
-96.845	24.579	0.224	0.183
-95.830	-178.399	-0.191	-0.004
-94.816	800.000	-0.109	-0.300
-93.801	476.974	-0.075	0.167
-92.786	-146.760	0.361	0.031
-91.772	-168.940	0.207	-0.008
-90.757	-31.263	0.371	0.206
-89.743	151.095	0.131	0.176
-88.728	800.000	0.082	-0.238
-87.713	154.810	-0.157	-0.213
-86.699	-200.000	-0.022	0.206
-85.684	800.000	-0.133	0.384
-84.670	800.000	-0.084	0.261
-83.655	800.000	-0.034	-0.096
-82.640	-14.394	0.126	0.080
-81.626	-200.000	-0.020	-0.094
-80.611	-200.000	0.006	-0.198
-79.597	-200.000	0.026	0.138
-78.582	-98.366	0.064	-0.016
-77.567	-59.120	-0.227	0.097
-76.553	-74.551	-0.050	-0.018
-75.538	-102.813	-0.210	0.049
-74.524	-200.000	0.037	0.203
-73.509	129.007	0.140	0.176
-72.494	-200.000	-0.002	-0.026
-71.480	42.003	-0.257	-0.231
-70.465	800.000	0.030	0.105
-69.451	58.443	0.232	-0.224
-68.436	-5.704	0.471	-0.319
-67.422	142.492	0.048	-0.063
-66.407	95.030	-0.195	0.219
-65.392	-157.732	0.453	0.027
-64.378	683.145	0.073	0.187
-63.363	190.744	0.089	0.132
-62.349	800.000	0.063	0.235
-61.334	154.420	-0.659	-0.893
-60.319	210.865	0.278	0.432
-59.305	443.091	-0.516	-1.116
-58.290	410.827	0.470	0.983
-57.276	800.000	0.327	1.211
-56.261	-200.000	98.651	601.779
-55.246	534.513	1416.947	3314.490
-54.232	150.942	2608.646	3500.495
-53.217	112.148	2168.856	2586.807
-52.203	44.727	1619.715	1470.021
-51.188	36.639	1356.441	1181.868
-50.173	33.375	1313.651	1125.184
-49.159	56.911	1362.832	1310.094
-48.144	59.215	1379.159	1339.626
-47.130	36.912	1335.533	1165.106
-46.115	33.288	1318.276	1128.444
-45.100	33.166	1313.344	1123.458
-44.086	32.998	1311.373	1120.728
-43.071	32.924	1308.664	1117.928
-42.057	32.960	1306.527	1116.271
-41.042	33.042	1305.247	1115.621
-40.027	33.100	1303.919	1114.783
-39.013	33.154	1302.144	1113.538
-37.998	33.081	1300.152	1111.362
-36.984	33.159	1298.247	1110.149
-35.969	33.186	1296.434	1108.712
-34.954	33.188	1294.929	1107.394
-33.940	33.194	1293.483	1106.145
-32.925	33.067	1292.722	1104.711
-31.911	33.145	1290.658	1103.355
-30.896	33.215	1288.785	1102.123
-29.881	33.186	1288.143	1101.357
-28.867	33.189	1286.854	1100.232
-27.852	33.156	1285.229	1098.604
-26.838	33.286	1283.022	1097.427
-25.823	33.244	1282.327	1096.547
-24.809	33.198	1280.917	1095.030
-23.794	33.167	1279.325	1093.447
-22.779	33.208	1278.344	1092.802
-21.765	33.173	1276.902	1091.328
-20.750	33.261	1275.433	1090.533
-19.736	33.144	1274.304	1088.850
-18.721	33.145	1273.263	1087.924
-17.706	33.112	1272.441	1086.992
-16.692	33.114	1271.007	1085.731
-15.677	33.139	1269.789	1084.793
-14.663	33.073	1268.868	1083.584
-13.648	33.058	1267.764	1082.512
-12.633	32.977	1267.126	1081.459
-11.619	33.019	1266.129	1080.809
-10.604	32.949	1265.606	1079.918
-9.590	33.087	1263.884	1079.195
-8.575	33.036	1263.196	1078.270
-7.560	33.018	1262.585	1077.603
-6.546	33.125	1261.209	1076.997
-5.531	33.039	1260.200	1075.602
-4.517	33.002	1259.771	1074.985
-3.502	33.046	1258.903	1074.450
-2.487	33.080	1257.687	1073.564
-1.473	32.981	1254.129	1069.924
-0.458	31.863	1239.724	1051.325
0.556	28.599	1222.280	1015.757
1.571	24.995	1228.608	1000.834
2.586	24.162	1244.416	1008.904
3.600	23.468	1233.254	995.873
4.615	16.864	1159.289	901.072
5.629	6.436	1080.952	788.167
6.644	1.944	1060.309	750.968
7.659	1.684	1057.191	747.415
8.673	1.562	1056.091	745.973
9.688	1.451	1054.539	744.269
10.702	1.701	1053.101	744.412
11.717	7.910	1062.437	781.498
12.731	18.360	1077.302	844.131
13.746	23.873	1084.126	876.668
14.761	24.858	1085.490	882.553
15.775	25.042	1084.185	882.320
16.790	24.819	1084.071	881.051
17.804	24.711	1083.318	879.829
18.819	24.688	1083.710	879.957
19.834	24.898	1082.778	880.156
20.848	25.039	1081.874	880.035
21.863	24.979	1081.591	879.436
22.877	24.896	1081.118	878.562
23.892	24.812	1080.376	877.471
24.907	24.851	1079.798	877.114
25.921	25.011	1078.426	876.705
26.936	24.840	1077.097	874.714
27.950	24.805	1075.431	873.110
28.965	24.757	1073.662	871.365
29.980	24.711	1072.479	870.103
30.994	24.967	1071.482	870.463
32.009	24.800	1070.759	868.987
33.023	24.730	1069.262	867.355
34.038	24.782	1068.641	867.028
35.053	24.966	1068.213	867.493
36.067	24.952	1067.154	866.490
37.082	24.968	1066.596	866.038
38.096	25.204	1065.883	866.523
39.111	25.270	1064.884	865.952
40.126	24.978	1064.039	863.780
41.140	24.790	1061.988	861.133
42.155	24.508	1060.916	858.833
43.169	24.564	1059.605	857.967
44.184	24.538	1058.905	857.196
45.199	24.547	1057.401	855.948
46.213	24.548	1056.851	855.430
47.228	24.853	1055.893	856.040
48.242	24.854	1055.329	855.509
49.257	24.867	1054.594	854.899
50.271	25.134	1053.390	855.123
51.286	25.048	1053.151	854.444
52.301	25.050	1052.307	853.691
53.315	24.911	1051.236	852.085
54.330	24.826	1050.574	851.070
55.344	24.918	1049.199	850.316
56.359	24.815	1048.569	849.241
57.374	24.633	1047.921	847.782
58.388	24.764	1046.963	847.553
59.403	24.693	1045.815	846.209
60.417	24.605	1044.784	844.885
61.432	24.541	1045.049	844.724
62.447	24.640	1043.966	844.241
63.461	24.751	1043.128	844.013
64.476	24.543	1042.506	842.450
65.490	24.537	1041.402	841.457
66.505	24.633	1040.992	841.504
67.520	24.615	1040.051	840.581
68.534	24.450	1039.223	839.065
69.549	24.220	1037.235	836.306
70.563	24.270	1036.680	836.018
71.578	24.216	1036.017	835.157
72.593	23.928	1035.636	833.426
73.607	24.175	1034.766	833.811
74.622	24.360	1034.881	834.695
75.636	24.545	1033.749	834.573
76.651	24.424	1032.559	832.973
77.666	24.254	1032.133	831.760
78.680	24.404	1031.418	831.812
79.695	24.390	1030.786	831.164
80.709	24.564	1029.836	831.132
81.724	24.460	1029.629	830.406
82.739	24.556	1028.761	830.081
83.753	25.009	1027.809	831.340
84.768	25.257	1027.269	831.981
85.782	25.331	1026.575	831.687
86.797	25.289	1025.427	830.492
87.812	25.022	1024.576	828.494
88.826	25.153	1023.756	828.362
89.841	25.267	1022.939	828.154
90.855	25.075	1022.431	826.786
91.870	25.226	1021.261	826.462
92.884	24.982	1019.831	824.107
93.899	25.081	1018.512	823.426
94.914	25.206	1017.999	823.508
95.928	25.084	1016.893	821.983
96.943	24.768	1015.905	819.665
97.957	24.641	1014.747	818.075
98.972	24.436	1013.552	816.102
99.987	24.802	1013.002	817.259
101.001	24.796	1012.734	816.946
102.016	24.904	1011.478	816.352
103.030	24.780	1010.554	814.970
104.045	24.734	1009.016	813.445
105.060	24.668	1007.995	812.253
106.074	24.726	1007.995	812.444
107.089	24.979	1007.518	813.136
108.103	24.892	1006.255	811.650
109.118	24.869	1004.507	810.067
110.133	24.748	1003.898	808.953
111.147	24.558	1002.510	806.908
112.162	24.399	1001.894	805.619
113.176	24.539	1001.435	805.814
114.191	24.465	1000.438	804.607
115.206	24.234	999.554	802.785
116.220	24.170	998.796	801.816
117.235	24.353	997.960	801.897
118.249	24.439	996.975	801.420
119.264	24.341	995.902	800.048
120.279	24.330	995.384	799.509
121.293	24.457	994.151	799.017
122.308	24.425	993.698	798.441
123.322	24.336	992.496	797.007
124.337	24.227	991.017	795.262
125.352	23.685	989.367	791.452
126.366	23.632	988.516	790.465
127.381	24.398	988.758	793.999
128.395	24.829	988.394	795.554
129.410	24.944	987.704	795.437
130.424	24.932	986.489	794.337
131.439	24.859	985.943	793.500
132.454	24.922	984.624	792.649
133.468	24.799	983.708	791.298
134.483	24.882	983.359	791.316
135.497	25.113	982.637	791.682
136.512	25.096	981.879	790.926
137.527	25.182	980.701	790.288
138.541	25.077	980.340	789.465
139.556	25.210	979.059	788.948
140.570	25.281	978.323	788.595
141.585	25.132	977.879	787.514
142.600	25.202	976.449	786.601
143.614	25.230	976.455	786.658
144.629	25.452	975.288	786.619
145.643	25.265	973.979	784.679
146.658	25.114	972.754	782.964
147.673	25.128	971.734	782.131
148.687	24.831	970.879	780.082
149.702	24.789	969.860	779.011
150.716	24.950	968.712	778.719
151.731	24.990	968.566	778.706
152.746	25.258	967.904	779.270
153.760	25.298	967.356	778.932
154.775	25.317	966.453	778.221
155.789	25.343	965.321	777.351
156.804	25.306	964.411	776.392
157.819	25.358	963.829	776.077
158.833	25.396	963.379	775.810
159.848	25.344	962.319	774.666
160.862	25.244	961.585	773.574
161.877	25.336	960.111	772.716
162.892	25.408	958.659	771.787
163.906	25.235	957.972	770.423
164.921	25.274	956.959	769.706
165.935	25.442	956.045	769.626
166.950	25.407	955.153	768.691
167.964	25.280	954.576	767.611
168.979	25.117	953.476	765.965
169.994	25.041	952.287	764.616
171.008	25.335	952.277	765.796
172.023	25.343	951.308	764.981
173.037	25.196	949.968	763.213
174.052	24.908	949.045	761.179
175.067	25.030	948.684	761.340
176.081	25.083	948.161	761.081
177.096	25.037	947.597	760.362
178.110	24.762	946.243	758.044
179.125	24.565	945.903	756.869
180.140	24.781	944.985	756.981
181.154	24.854	944.960	757.206
182.169	24.960	945.108	757.703
183.183	25.309	944.370	758.521
184.198	25.219	943.260	757.182
185.213	25.135	943.156	756.677
186.227	25.231	942.198	756.245
187.242	25.177	942.052	755.836
188.256	25.357	941.189	755.832
189.271	25.329	940.426	755.038
190.286	25.098	939.264	753.066
191.300	24.546	937.612	749.360
192.315	23.671	936.115	744.431
193.329	23.544	935.806	743.587
194.344	24.551	936.329	748.156
195.359	25.122	935.881	750.122
196.373	25.224	935.772	750.396
197.388	25.059	935.318	749.273
198.402	25.142	934.440	748.852
199.417	25.220	933.577	748.418
200.432	24.995	932.789	746.786
201.446	24.748	932.171	745.192
202.461	24.822	931.834	745.166
203.475	23.969	929.578	739.752
204.490	23.292	928.253	735.818
205.504	24.134	928.774	739.664
206.519	24.683	928.672	741.797
207.534	24.932	928.169	742.364
208.548	25.195	928.048	743.292
209.563	24.949	926.724	741.146
210.577	24.871	926.441	740.530
211.592	25.404	926.132	742.423
212.607	25.433	925.133	741.676
213.621	25.457	924.387	741.111
214.636	25.441	923.549	740.310
215.650	25.288	922.872	739.068
216.665	25.454	922.575	739.449
217.680	25.460	921.120	738.243
218.694	24.996	919.901	735.296
219.709	24.702	919.739	733.895
220.723	25.051	919.486	735.061
221.738	25.141	919.137	735.084
222.753	25.089	918.285	734.125
223.767	25.391	917.612	734.759
224.782	25.560	917.501	735.298
225.796	25.425	917.048	734.318
226.811	24.814	915.196	730.275
227.826	24.158	914.116	726.675
228.840	24.413	913.701	727.320
229.855	24.429	912.760	726.571
230.869	24.053	911.644	724.088
231.884	24.417	912.035	725.817
232.899	25.174	912.287	729.031
233.913	25.032	911.190	727.512
234.928	25.007	910.728	726.977
235.942	25.088	910.131	726.766
236.957	24.691	909.194	724.344
237.972	24.775	908.679	724.210
238.986	24.846	908.038	723.923
240.001	24.880	907.936	723.914
241.015	24.831	907.541	723.339
242.030	25.097	906.877	723.820
243.045	25.127	906.351	723.459
244.059	25.263	905.937	723.610
245.074	25.241	904.568	722.365
246.088	24.646	904.147	719.570
247.103	25.086	903.235	720.551
248.117	25.656	903.517	723.004
249.132	25.750	903.508	723.309
250.147	25.872	902.987	723.318
251.161	26.188	901.912	723.660
252.176	26.080	901.470	722.808
253.190	26.161	901.014	722.702
254.205	26.250	900.310	722.430
255.220	26.175	900.109	721.903
256.234	26.044	899.030	720.452
257.249	25.950	898.574	719.648
258.263	26.030	897.819	719.300
259.278	26.122	896.949	718.903
260.293	26.154	896.608	718.692
261.307	26.038	895.686	717.432
262.322	25.936	894.972	716.390
263.336	25.013	893.255	711.290
264.351	24.041	891.249	705.778
265.366	24.233	890.985	706.269
266.380	25.345	891.568	711.070
267.395	25.564	891.729	712.007
268.409	25.548	890.751	711.097
269.424	25.887	890.174	711.912
270.439	25.799	889.568	711.021
271.453	26.125	889.038	711.820
272.468	26.076	889.265	711.745
273.482	26.148	888.150	711.072
274.497	25.640	887.154	708.213
275.512	25.480	886.081	706.662
276.526	25.582	886.756	707.542
277.541	25.857	886.180	708.099
278.555	25.738	885.018	706.643
279.570	25.635	883.991	705.357
280.585	25.690	883.526	705.139
281.599	25.719	882.886	704.678
282.614	25.012	881.913	701.073
283.628	25.017	881.390	700.617
284.643	25.435	880.798	701.717
285.657	25.045	879.585	699.165
286.672	24.756	878.941	697.464
287.687	25.431	878.835	699.951
288.701	25.478	878.417	699.740
289.716	25.176	877.274	697.591
290.730	25.208	876.784	697.266
291.745	24.919	875.850	695.338
292.760	25.186	876.042	696.465
293.774	26.180	876.103	700.311
294.789	26.427	876.133	701.230
295.803	26.388	875.336	700.378
296.818	26.350	874.740	699.692
297.833	25.872	873.844	697.064
298.847	26.011	872.826	696.729
299.862	26.202	872.636	697.252
300.876	26.397	872.409	697.761
301.891	26.411	871.156	696.754
302.906	26.025	870.382	694.585
303.920	26.126	870.538	695.037
304.935	26.474	870.120	695.981
305.949	26.348	869.794	695.174
306.964	26.021	868.914	693.154
307.979	26.035	868.522	692.832
308.993	26.520	868.370	694.513
310.008	26.656	867.637	694.386
311.022	26.239	866.457	691.784
312.037	26.118	866.132	690.998
313.052	25.838	865.076	689.026
314.066	24.948	863.647	684.425
315.081	24.654	862.833	682.598
316.095	25.631	863.054	686.442
317.110	25.912	862.889	687.324
318.125	25.113	861.342	682.986
319.139	24.141	859.721	677.943
320.154	24.191	859.382	677.806
321.168	25.098	859.824	681.545
322.183	25.611	860.082	683.640
323.197	25.901	859.809	684.463
324.212	26.130	859.337	684.896
325.227	26.116	858.794	684.350
326.241	25.935	858.175	683.112
327.256	25.877	857.624	682.390
328.270	25.864	856.578	681.448
329.285	25.661	855.815	680.014
330.300	25.448	854.965	678.477
331.314	25.930	854.854	680.148
332.329	26.280	854.655	681.247
333.343	26.272	854.597	681.110
334.358	26.281	853.854	680.493
335.373	26.328	853.635	680.436
336.387	26.641	853.770	681.660
337.402	26.641	853.575	681.446
338.416	26.553	853.223	680.770
339.431	26.749	852.753	681.074
340.446	26.821	852.912	681.412
341.460	26.757	852.015	680.394
342.475	26.584	851.289	679.103
343.489	26.590	851.036	678.865
344.504	26.920	850.673	679.754
345.519	27.184	850.393	680.458
346.533	27.128	849.945	679.828
347.548	27.249	849.209	679.632
348.562	27.010	848.873	678.409
349.577	26.923	847.979	677.311
350.592	26.840	847.507	676.564
351.606	27.091	846.264	676.448
352.621	26.884	845.736	675.196
353.635	26.818	845.270	674.519
354.650	26.038	843.632	670.254
355.665	25.127	842.099	665.598
356.679	25.578	841.717	666.906
357.694	26.146	841.112	668.473
358.708	25.966	841.028	667.683
359.723	26.344	841.271	669.213
360.738	26.714	840.696	670.067
361.752	26.862	839.782	669.827
362.767	27.258	839.426	670.944
363.781	27.285	839.460	671.010
364.796	27.419	839.480	671.463
365.810	27.506	838.631	671.046
366.825	27.465	838.252	670.530
367.840	27.274	837.152	668.891
368.854	26.778	836.497	666.483
369.869	26.864	835.996	666.343
370.883	26.947	835.503	666.195
371.898	26.800	835.081	665.261
372.913	26.818	834.584	664.873
373.927	26.914	834.553	665.137
374.942	27.062	834.132	665.288
375.956	27.056	833.840	664.972
376.971	27.371	833.506	665.802
377.986	27.522	833.042	665.925
379.000	27.387	832.467	664.912
380.015	27.257	831.554	663.649
381.029	27.170	831.568	663.285
382.044	27.342	830.798	663.237
383.059	27.436	830.178	663.026
384.073	27.337	829.692	662.219
385.088	27.466	828.913	662.008
386.102	27.220	828.240	660.519
387.117	27.088	827.375	659.291
388.132	26.682	826.690	657.215
389.146	26.400	825.447	655.148
390.161	26.693	825.549	656.232
391.175	27.122	825.754	657.892
392.190	26.678	824.499	655.227
393.205	25.522	821.996	649.008
394.219	23.867	820.394	641.718
395.234	23.853	820.122	641.397
396.248	25.287	821.881	647.898
397.263	26.834	822.640	654.023
398.278	26.862	822.263	653.765
399.292	26.582	821.641	652.206
400.307	26.473	821.061	651.295
401.321	26.669	820.686	651.644
402.336	27.252	820.304	653.377
403.350	27.557	820.564	654.622
404.365	27.751	820.503	655.214
405.380	28.072	820.089	655.976
406.394	28.177	819.491	655.817
407.409	28.024	819.039	654.848
408.423	27.920	818.806	654.233
409.438	28.054	818.488	654.401
410.453	27.984	817.788	653.531
411.467	28.126	817.041	653.385
412.482	28.138	816.560	652.986
413.496	28.230	816.633	653.314
414.511	28.151	815.913	652.396
415.526	28.236	815.608	652.398
416.540	28.121	814.399	650.964
417.555	27.836	814.102	649.655
418.569	27.782	813.745	649.122
419.584	27.822	813.122	648.711
420.599	27.553	812.893	647.514
421.613	108.315	1285.934	1452.534
422.628	93.644	1354.835	1452.645
