DTS Sentinel unit serial number:	SN413079Multiplexer serial number:	ORYXHardware model number:	OX4-SRSoftware version number:	ORYX F/W v4.00 Oryx Data Collector v3.7.2.0data status	okinstallation	princeton_trtdifferential loss correction	single-endedforward channel	channel 1reverse channel	N/Adate	2019/09/13time	03:34:35forward acquisition time	60.00reverse acquisition time	0.00gamma	496.2192k internal	0.2332k external	0.2332temperature offset calibration	1.0161default loss term (dB/km)	0.3790temperature slope calibration	1.0000multiplexer offset coefficient	1.0000multiplexer slope coefficient	1.0000fibre end	0.00T internal ref (°C)	27.28T ext. ref 1 (°C)	4.05T ext. ref 2 (°C)	21.66length (m)	temperature (°C)	Stokes	anti-Stokes-747.200	88.339	0.123	0.137
-746.185	22.898	-0.152	-0.125
-745.171	-200.000	-0.004	-0.124
-744.156	605.084	0.072	0.181
-743.142	-160.598	0.256	-0.014
-742.127	-200.000	-0.033	0.202
-741.112	272.171	0.115	0.203
-740.098	-156.709	-0.219	0.014
-739.083	11.497	-0.178	-0.137
-738.069	98.099	-0.040	0.046
-737.054	-200.000	-0.014	-0.144
-736.039	410.254	0.054	-0.114
-735.025	39.432	0.126	0.113
-734.010	-200.000	0.001	-0.028
-732.996	800.000	0.037	0.120
-731.981	19.380	-0.150	-0.121
-730.966	-77.597	-0.306	-0.107
-729.952	800.000	-0.053	0.152
-728.937	70.625	0.258	0.268
-727.923	-43.428	-0.170	0.086
-726.908	-200.000	0.007	-0.062
-725.894	-125.439	-0.251	-0.038
-724.879	-85.665	-0.023	-0.007
-723.864	-74.064	-0.366	0.133
-722.850	-70.931	-0.194	0.073
-721.835	216.827	-0.017	-0.028
-720.821	-46.842	-0.291	0.143
-719.806	800.000	-0.061	-0.187
-718.791	92.607	-0.146	-0.165
-717.777	-200.000	0.009	-0.208
-716.762	800.000	0.071	-0.215
-715.748	-91.444	-0.233	0.067
-714.733	295.448	0.111	-0.205
-713.718	-163.378	-0.164	-0.008
-712.704	-104.489	-0.241	0.056
-711.689	220.498	0.021	0.034
-710.675	-32.624	-0.187	0.105
-709.660	-57.786	-0.154	0.068
-708.645	-123.467	0.327	0.052
-707.631	534.004	-0.176	-0.419
-706.616	-200.000	-0.014	0.103
-705.602	-81.035	-0.305	0.101
-704.587	-12.485	-0.118	-0.077
-703.572	-200.000	0.011	0.224
-702.558	-200.000	-0.020	0.190
-701.543	-60.526	0.202	0.086
-700.529	-108.375	-0.161	0.035
-699.514	139.310	0.170	0.225
-698.499	-200.000	0.026	0.135
-697.485	-59.990	-0.175	-0.075
-696.470	296.024	0.200	-0.369
-695.456	-114.235	0.144	-0.028
-694.441	580.323	-0.091	-0.225
-693.426	-200.000	-0.061	0.289
-692.412	-82.955	-0.050	0.016
-691.397	-142.820	-0.400	-0.039
-690.383	133.084	-0.014	0.019
-689.368	-200.000	0.003	0.304
-688.354	-42.021	0.512	0.263
-687.339	-148.987	0.194	0.016
-686.324	-51.660	-0.049	0.023
-685.310	122.975	-0.032	0.040
-684.295	-24.670	-0.089	-0.053
-683.281	-36.009	-0.077	0.042
-682.266	103.615	-0.071	0.084
-681.251	-46.353	0.092	-0.045
-680.237	190.721	0.053	-0.080
-679.222	216.620	-0.096	0.153
-678.208	800.000	-0.009	0.039
-677.193	-8.523	0.434	-0.293
-676.178	-137.761	-0.180	-0.020
-675.164	-165.672	0.226	-0.010
-674.149	97.995	-0.066	-0.076
-673.135	187.262	-0.084	0.126
-672.120	800.000	0.090	0.281
-671.105	-103.753	0.057	-0.013
-670.091	-68.524	0.179	0.069
-669.076	-79.793	0.229	0.077
-668.062	-127.410	0.213	0.031
-667.047	-92.257	0.228	0.064
-666.032	-71.229	-0.179	-0.067
-665.018	760.951	0.103	-0.281
-664.003	800.000	0.051	-0.153
-662.989	-141.365	0.395	0.040
-661.974	212.203	-0.262	-0.414
-660.959	124.241	0.109	-0.137
-659.945	800.000	0.054	0.176
-658.930	-74.696	0.116	0.042
-657.916	-61.873	-0.196	0.082
-656.901	-19.424	-0.279	0.174
-655.886	-200.000	-0.036	0.309
-654.872	-200.000	0.011	-0.204
-653.857	192.909	-0.229	0.347
-652.843	-149.174	0.442	0.035
-651.828	-154.408	0.188	0.013
-650.814	237.474	0.160	0.265
-649.799	276.118	0.109	0.194
-648.784	-115.904	-0.127	0.024
-647.770	141.352	-0.239	0.317
-646.755	-200.000	-0.017	-0.227
-645.741	-39.716	-0.320	0.168
-644.726	-24.090	-0.245	-0.147
-643.711	-200.000	0.019	0.245
-642.697	173.228	0.151	-0.219
-641.682	142.654	-0.133	0.177
-640.668	26.954	-0.286	0.241
-639.653	253.237	-0.116	-0.198
-638.638	55.512	-0.145	-0.140
-637.624	221.649	0.096	-0.154
-636.609	163.954	-0.106	-0.150
-635.595	-40.034	-0.126	0.066
-634.580	-200.000	0.003	-0.144
-633.565	-112.592	0.105	0.021
-632.551	105.598	0.024	0.028
-631.536	800.000	0.039	-0.121
-630.522	800.000	-0.119	0.438
-629.507	502.144	0.075	0.172
-628.492	-200.000	-0.009	0.103
-627.478	-200.000	0.014	0.183
-626.463	8.306	0.118	0.089
-625.449	-200.000	0.011	-0.330
-624.434	-179.800	-0.123	0.003
-623.419	800.000	0.096	-0.383
-622.405	800.000	-0.055	0.190
-621.390	448.022	-0.106	0.235
-620.376	-131.398	-0.089	0.012
-619.361	800.000	0.032	0.121
-618.346	567.347	0.065	0.158
-617.332	-66.817	0.189	-0.075
-616.317	-186.787	-0.065	-0.001
-615.303	146.826	0.111	0.150
-614.288	-8.720	-0.047	-0.032
-613.273	-200.000	0.060	0.354
-612.259	-200.000	-0.039	-0.231
-611.244	-200.000	-0.053	-0.285
-610.230	-62.282	0.223	-0.093
-609.215	-91.978	-0.123	-0.035
-608.201	-48.813	-0.204	0.098
-607.186	447.470	-0.125	0.276
-606.171	95.080	0.122	-0.139
-605.157	415.847	0.050	-0.106
-604.142	-200.000	-0.056	-0.280
-603.128	82.852	0.134	-0.146
-602.113	-200.000	-0.027	-0.198
-601.098	119.767	0.074	-0.091
-600.084	194.523	-0.098	0.149
-599.069	197.618	-0.112	0.170
-598.055	343.649	0.028	0.055
-597.040	-55.687	0.362	0.162
-596.025	800.000	0.053	-0.146
-595.011	-63.916	0.060	-0.025
-593.996	-94.501	-0.241	0.066
-592.982	800.000	-0.029	-0.084
-591.967	272.843	0.124	-0.220
-590.952	-108.995	-0.148	0.032
-589.938	-11.798	-0.373	-0.245
-588.923	587.542	0.136	0.334
-587.909	-101.717	0.079	0.019
-586.894	-200.000	-0.021	-0.194
-585.879	303.102	-0.116	-0.214
-584.865	-42.619	-0.329	0.167
-583.850	58.412	-0.048	-0.047
-582.836	37.922	0.201	0.179
-581.821	-38.471	-0.026	-0.014
-580.806	-23.005	-0.058	-0.035
-579.792	195.598	-0.029	0.044
-578.777	74.598	0.186	-0.195
-577.763	69.489	-0.059	0.060
-576.748	800.000	0.023	-0.070
-575.733	11.528	0.099	-0.076
-574.719	38.690	0.216	-0.193
-573.704	-200.000	-0.021	0.145
-572.690	-200.000	0.027	0.308
-571.675	84.631	0.062	-0.068
-570.661	-200.000	0.019	-0.314
-569.646	-200.000	-0.007	0.079
-568.631	-151.246	-0.102	-0.008
-567.617	-160.784	-0.073	0.004
-566.602	540.959	0.091	0.217
-565.588	-62.112	0.520	-0.217
-564.573	-8.231	0.110	-0.074
-563.558	-174.500	-0.156	-0.004
-562.544	-44.085	0.311	-0.156
-561.529	33.396	0.223	0.194
-560.515	-200.000	-0.043	0.226
-559.500	-155.739	0.276	0.018
-558.485	-97.452	0.126	-0.033
-557.471	46.747	-0.215	0.199
-556.456	178.477	0.184	-0.268
-555.442	-200.000	-0.009	0.079
-554.427	163.126	-0.125	-0.176
-553.412	-200.000	-0.003	-0.170
-552.398	394.277	0.101	0.210
-551.383	-148.380	-0.183	0.015
-550.369	317.984	0.019	0.036
-549.354	-34.963	-0.181	0.099
-548.339	24.409	-0.132	-0.109
-547.325	-200.000	-0.014	-0.322
-546.310	-200.000	-0.033	-0.167
-545.296	37.831	-0.295	0.261
-544.281	800.000	-0.050	-0.146
-543.266	-200.000	-0.041	-0.202
-542.252	319.598	-0.069	-0.131
-541.237	-89.676	0.151	0.044
-540.223	-75.455	0.221	-0.078
-539.208	185.678	-0.157	0.233
-538.193	-65.389	-0.281	-0.113
-537.179	-16.254	-0.356	-0.226
-536.164	-86.289	-0.117	-0.036
-535.150	-25.391	-0.097	-0.057
-534.135	227.441	0.087	-0.142
-533.121	-200.000	0.061	0.341
-532.106	800.000	-0.040	0.127
-531.091	-172.595	-0.264	0.008
-530.077	-163.392	0.267	-0.013
-529.062	-80.474	0.179	0.059
-528.048	800.000	-0.021	-0.066
-527.033	44.173	0.267	-0.244
-526.018	-88.784	0.207	0.061
-525.004	-200.000	0.015	-0.103
-523.989	-2.388	-0.149	-0.105
-522.975	422.019	0.131	-0.280
-521.960	752.983	-0.059	-0.159
-520.945	15.560	-0.208	-0.163
-519.931	-123.397	-0.227	0.036
-518.916	96.184	0.190	0.216
-517.902	-200.000	-0.017	0.138
-516.887	277.414	-0.085	0.150
-515.872	-123.226	0.136	0.022
-514.858	10.015	0.277	-0.210
-513.843	155.835	0.235	-0.323
-512.829	-3.153	-0.078	0.054
-511.814	-51.555	-0.230	-0.107
-510.799	-200.000	0.006	-0.118
-509.785	-200.000	-0.011	-0.205
-508.770	800.000	-0.052	-0.201
-507.756	-200.000	0.003	0.122
-506.741	-103.748	0.284	0.066
-505.726	-183.002	-0.130	-0.002
-504.712	-200.000	-0.053	-0.303
-503.697	-146.077	-0.210	-0.018
-502.683	106.859	0.150	0.177
-501.668	-75.375	-0.161	-0.057
-500.653	8.723	-0.060	0.045
-499.639	5.648	-0.166	-0.122
-498.624	-200.000	0.032	-0.171
-497.610	-200.000	0.041	-0.420
-496.595	265.707	-0.143	0.249
-495.581	-40.121	0.258	0.134
-494.566	146.920	0.205	-0.275
-493.551	-35.802	-0.306	-0.165
-492.537	-26.578	-0.231	0.135
-491.522	-25.145	0.213	-0.126
-490.508	800.000	0.112	-0.338
-489.493	253.999	0.102	-0.173
-488.478	115.095	-0.117	-0.143
-487.464	149.336	0.035	-0.047
-486.449	-183.581	0.451	-0.008
-485.435	-107.937	-0.268	0.058
-484.420	-200.000	0.048	0.350
-483.405	408.306	0.032	-0.067
-482.391	-200.000	0.024	0.215
-481.376	-157.112	0.175	-0.011
-480.362	-19.595	0.202	-0.124
-479.347	-104.980	0.137	0.031
-478.332	205.943	0.225	0.349
-477.318	-79.231	0.263	0.089
-476.303	-200.000	-0.002	0.284
-475.289	24.789	0.180	0.148
-474.274	-38.964	-0.115	0.060
-473.259	17.267	-0.074	0.058
-472.245	23.930	-0.291	-0.239
-471.230	-200.000	0.018	0.160
-470.216	800.000	0.052	-0.149
-469.201	-57.248	0.224	-0.098
-468.186	-79.853	-0.222	0.074
-467.172	-200.000	0.009	0.223
-466.157	800.000	0.034	-0.096
-465.143	116.455	-0.206	-0.252
-464.128	18.201	0.080	-0.064
-463.113	-200.000	0.065	0.651
-462.099	218.313	-0.086	-0.136
-461.084	-200.000	0.039	0.442
-460.070	91.745	0.135	0.151
-459.055	97.818	-0.012	-0.014
-458.040	-200.000	-0.020	-0.220
-457.026	-62.255	0.311	0.129
-456.011	-96.166	0.063	0.017
-454.997	71.895	0.117	-0.121
-453.982	113.540	0.117	0.141
-452.968	-90.943	-0.094	-0.027
-451.953	-31.035	0.087	0.049
-450.938	263.415	-0.057	0.099
-449.924	28.754	0.160	0.135
-448.909	-72.445	-0.107	0.039
-447.895	-200.000	-0.018	-0.097
-446.880	-32.454	0.405	0.224
-445.865	-200.000	0.008	0.131
-444.851	800.000	-0.026	-0.073
-443.836	-62.428	0.352	0.145
-442.822	202.743	0.077	-0.119
-441.807	-22.237	0.269	-0.162
-440.792	-200.000	0.008	0.062
-439.778	-123.995	-0.244	0.038
-438.763	467.155	-0.111	-0.248
-437.749	-33.633	0.359	-0.197
-436.734	800.000	0.069	0.230
-435.719	134.450	0.083	-0.107
-434.705	-63.656	0.340	0.139
-433.690	111.719	-0.039	-0.047
-432.676	-130.603	-0.321	0.043
-431.661	800.000	0.063	-0.190
-430.646	-200.000	-0.013	-0.222
-429.632	-113.059	0.127	-0.025
-428.617	-50.650	0.075	-0.035
-427.603	359.843	0.081	0.161
-426.588	711.669	-0.136	0.359
-425.573	364.071	0.133	0.267
-424.559	236.104	-0.163	0.267
-423.544	-200.000	0.043	0.233
-422.530	-106.509	-0.131	-0.029
-421.515	-200.000	-0.005	0.265
-420.500	-200.000	-0.038	0.183
-419.486	800.000	-0.063	-0.216
-418.471	-200.000	-0.042	-0.224
-417.457	153.791	-0.116	-0.159
-416.442	-60.707	-0.232	-0.098
-415.428	-200.000	-0.013	-0.115
-414.413	-126.201	0.058	-0.009
-413.398	354.439	0.104	0.205
-412.384	-152.272	-0.229	-0.016
-411.369	-143.080	-0.138	-0.013
-410.355	87.015	0.095	-0.104
-409.340	25.224	0.265	-0.218
-408.325	-99.754	-0.238	0.059
-407.311	47.872	-0.254	-0.235
-406.296	82.514	0.122	0.131
-405.282	-66.429	-0.323	-0.128
-404.267	-200.000	0.004	-0.308
-403.252	800.000	-0.010	0.040
-402.238	64.760	0.116	-0.117
-401.223	-155.653	0.388	0.025
-400.209	-200.000	0.015	0.325
-399.194	227.265	-0.052	0.084
-398.179	-22.894	-0.268	-0.161
-397.165	332.234	0.060	-0.116
-396.150	800.000	0.058	-0.196
-395.136	-128.898	-0.270	-0.038
-394.121	-133.817	-0.069	0.009
-393.106	162.942	-0.111	-0.154
-392.092	706.391	-0.091	-0.238
-391.077	-105.972	0.315	-0.070
-390.063	20.546	-0.220	-0.177
-389.048	218.921	-0.132	0.209
-388.033	-200.000	0.025	0.196
-387.019	693.292	0.072	0.187
-386.004	-40.114	0.090	0.046
-384.990	-187.087	-0.304	0.004
-383.975	112.159	0.133	0.160
-382.960	31.511	-0.080	0.068
-381.946	10.179	0.215	0.162
-380.931	800.000	0.027	-0.082
-379.917	-84.176	-0.170	0.053
-378.902	-131.152	-0.082	0.011
-377.888	-51.063	-0.223	-0.104
-376.873	-85.163	0.298	-0.092
-375.858	-149.168	-0.080	-0.006
-374.844	-8.160	-0.102	-0.068
-373.829	-200.000	-0.063	-0.353
-372.815	137.186	0.124	0.160
-371.800	-79.206	-0.319	0.107
-370.785	496.266	-0.083	0.190
-369.771	65.454	0.188	-0.188
-368.756	155.744	0.241	0.329
-367.742	-101.125	0.075	0.018
-366.727	-143.906	0.583	-0.054
-365.712	26.379	-0.221	-0.183
-364.698	-48.993	-0.115	-0.054
-363.683	68.961	-0.137	-0.139
-362.669	178.330	0.181	0.262
-361.654	800.000	-0.021	-0.087
-360.639	-88.150	-0.322	0.096
-359.625	-176.767	-0.080	-0.002
-358.610	-73.067	-0.070	-0.026
-357.596	-33.573	-0.232	0.127
-356.581	360.464	-0.082	0.163
-355.566	-9.448	-0.276	-0.183
-354.552	-99.459	-0.310	-0.077
-353.537	15.468	-0.136	-0.106
-352.523	800.000	0.097	0.374
-351.508	190.454	-0.096	-0.143
-350.493	649.392	-0.039	-0.099
-349.479	93.838	-0.227	-0.255
-348.464	-19.975	0.138	0.085
-347.450	-200.000	-0.015	-0.115
-346.435	180.775	0.097	0.141
-345.420	-200.000	0.015	0.216
-344.406	-19.143	0.300	-0.185
-343.391	-1.521	0.132	0.092
-342.377	33.484	0.140	-0.120
-341.362	263.127	-0.126	0.217
-340.348	-200.000	-0.025	0.332
-339.333	-46.196	-0.284	-0.139
-338.318	158.093	0.223	-0.306
-337.304	-200.000	-0.014	0.147
-336.289	-139.999	-0.065	0.007
-335.275	106.882	-0.197	0.232
-334.260	800.000	0.044	-0.122
-333.245	5.419	0.301	0.220
-332.231	185.776	-0.179	0.263
-331.216	800.000	-0.064	0.208
-330.202	630.235	-0.094	-0.236
-329.187	-64.902	-0.168	-0.067
-328.172	440.988	-0.067	-0.145
-327.158	157.162	-0.070	-0.095
-326.143	-148.716	0.127	0.010
-325.129	-11.977	0.353	0.229
-324.114	-57.222	0.216	-0.094
-323.099	517.638	-0.101	0.233
-322.085	800.000	-0.060	-0.170
-321.070	-10.002	-0.142	0.093
-320.056	-95.301	0.063	0.017
-319.041	-91.216	-0.302	0.086
-318.026	688.720	0.093	-0.241
-317.012	-70.216	0.085	0.032
-315.997	-200.000	-0.022	0.355
-314.983	800.000	-0.048	-0.137
-313.968	13.387	0.137	-0.105
-312.953	110.825	0.239	0.285
-311.939	-184.927	0.143	-0.002
-310.924	101.275	-0.084	0.096
-309.910	-59.315	0.485	0.206
-308.895	394.398	-0.044	0.090
-307.880	6.045	-0.236	0.173
-306.866	664.523	0.090	0.230
-305.851	338.234	0.129	0.248
-304.837	-25.493	0.242	-0.141
-303.822	108.314	-0.207	0.244
-302.807	800.000	0.044	0.181
-301.793	219.442	-0.112	0.178
-300.778	-200.000	-0.076	0.430
-299.764	800.000	0.114	0.319
-298.749	-117.269	-0.109	0.019
-297.735	199.969	-0.108	0.163
-296.720	-31.541	0.164	-0.091
-295.705	-146.261	0.245	-0.021
-294.691	0.446	0.285	0.202
-293.676	-175.323	0.234	0.006
-292.662	127.330	0.088	-0.111
-291.647	30.006	-0.055	-0.046
-290.632	53.166	-0.097	-0.092
-289.618	-200.000	-0.008	0.198
-288.603	317.977	0.092	-0.172
-287.589	-0.725	-0.046	-0.032
-286.574	800.000	-0.051	-0.154
-285.559	131.704	0.183	0.232
-284.545	-200.000	0.006	0.208
-283.530	132.970	-0.156	-0.199
-282.516	-32.119	-0.195	0.108
-281.501	-4.816	0.170	-0.116
-280.486	-163.454	0.232	0.011
-279.472	466.376	-0.039	-0.085
-278.457	-66.487	-0.113	-0.044
-277.443	-200.000	-0.027	0.250
-276.428	-117.673	0.237	0.042
-275.413	546.976	-0.116	-0.275
-274.399	4.660	0.200	-0.145
-273.384	50.717	-0.083	-0.077
-272.370	-51.213	-0.204	0.095
-271.355	-62.144	-0.315	0.130
-270.340	-77.014	-0.057	-0.020
-269.326	1.691	-0.241	-0.171
-268.311	-200.000	0.081	-0.370
-267.297	101.505	-0.192	0.221
-266.282	-200.000	0.013	0.259
-265.267	-161.559	0.147	-0.007
-264.253	-107.897	0.116	-0.025
-263.238	113.213	-0.096	0.116
-262.224	800.000	0.032	-0.127
-261.209	-200.000	0.009	-0.070
-260.195	102.275	0.137	0.158
-259.180	-104.146	-0.279	0.064
-258.165	219.577	0.136	-0.214
-257.151	24.700	0.197	0.161
-256.136	27.322	-0.133	0.111
-255.122	65.917	0.035	0.035
-254.107	-200.000	0.036	0.272
-253.092	800.000	-0.024	0.100
-252.078	800.000	0.085	0.245
-251.063	-200.000	0.039	0.182
-250.049	112.757	0.123	-0.147
-249.034	109.903	-0.089	-0.105
-248.019	800.000	-0.001	-0.003
-247.005	517.530	0.052	-0.120
-245.990	206.092	0.155	-0.238
-244.976	25.820	-0.380	-0.312
-243.961	-8.699	-0.130	0.086
-242.946	131.831	-0.146	0.186
-241.932	-187.404	0.295	0.004
-240.917	54.184	-0.106	-0.100
-239.903	77.383	-0.060	-0.063
-238.888	170.750	-0.088	-0.124
-237.873	-79.386	0.198	0.066
-236.859	56.432	0.140	0.134
-235.844	35.540	-0.092	0.080
-234.830	617.302	0.038	0.093
-233.815	-160.676	0.140	-0.007
-232.800	-144.512	0.153	0.014
-231.786	800.000	0.048	-0.169
-230.771	800.000	0.044	0.186
-229.757	-131.485	-0.059	-0.008
-228.742	-29.556	0.181	0.102
-227.727	-200.000	-0.041	-0.331
-226.713	-200.000	-0.059	0.255
-225.698	157.308	-0.155	0.212
-224.684	-84.583	-0.079	-0.025
-223.669	105.557	0.064	0.074
-222.655	40.278	-0.200	0.177
-221.640	296.679	0.125	0.227
-220.625	-200.000	0.012	0.353
-219.611	166.011	-0.030	-0.041
-218.596	-41.816	0.114	-0.058
-217.582	-200.000	-0.044	-0.258
-216.567	800.000	-0.093	-0.301
-215.552	84.392	0.105	0.113
-214.538	-48.457	0.174	0.082
-213.523	346.588	0.117	0.227
-212.509	-162.361	0.190	0.009
-211.494	-84.773	0.277	-0.086
-210.479	75.029	0.177	-0.183
-209.465	274.132	0.130	-0.227
-208.450	-149.037	0.352	-0.028
-207.436	-94.968	-0.271	-0.072
-206.421	-92.984	-0.231	-0.063
-205.406	49.289	0.140	-0.130
-204.392	8.621	0.174	-0.129
-203.377	800.000	-0.049	-0.172
-202.363	-38.511	-0.314	-0.164
-201.348	354.288	-0.103	0.203
-200.333	-198.388	-0.521	0.003
-199.319	800.000	0.014	0.057
-198.304	-200.000	-0.012	-0.246
-197.290	140.262	0.083	-0.108
-196.275	-200.000	0.059	0.423
-195.260	-4.949	-0.256	-0.174
-194.246	-56.888	0.229	-0.099
-193.231	-186.928	-0.159	-0.002
-192.217	-200.000	0.041	0.337
-191.202	241.319	-0.166	-0.272
-190.187	-200.000	0.002	-0.085
-189.173	192.018	-0.035	0.052
-188.158	204.894	-0.241	0.367
-187.144	-169.164	0.144	0.005
-186.129	800.000	0.072	-0.266
-185.114	-54.520	0.144	-0.064
-184.100	691.311	-0.029	0.074
-183.085	-86.248	-0.265	-0.080
-182.071	565.208	-0.201	-0.479
-181.056	-86.763	0.342	0.103
-180.042	29.341	0.154	-0.129
-179.027	-14.186	-0.161	-0.102
-178.012	-87.555	-0.240	0.071
-176.998	-98.591	-0.176	0.044
-175.983	-26.814	-0.084	0.048
-174.969	-81.690	0.081	0.026
-173.954	164.384	-0.111	0.154
-172.939	-200.000	0.054	-0.506
-171.925	-200.000	0.060	-0.337
-170.910	-59.303	-0.069	-0.029
-169.896	-200.000	-0.052	-0.368
-168.881	-105.795	-0.266	0.059
-167.866	216.422	0.077	0.121
-166.852	-200.000	0.004	-0.204
-165.837	176.459	0.165	-0.235
-164.823	-126.536	0.250	-0.037
-163.808	-63.784	-0.168	-0.068
-162.793	-158.086	0.240	0.014
-161.779	32.777	0.059	0.050
-160.764	-56.896	0.192	-0.083
-159.750	-200.000	0.023	-0.300
-158.735	800.000	0.064	0.274
-157.720	-200.000	-0.056	-0.328
-156.706	-38.258	-0.115	-0.060
-155.691	-35.443	-0.077	0.041
-154.677	365.539	-0.076	-0.150
-153.662	621.582	-0.060	0.147
-152.647	10.471	-0.277	0.207
-151.633	24.522	-0.183	0.149
-150.618	41.249	0.085	0.076
-149.604	800.000	0.103	-0.287
-148.589	282.300	0.083	0.146
-147.574	800.000	0.047	-0.186
-146.560	800.000	0.047	-0.135
-145.545	800.000	0.054	-0.189
-144.531	107.038	0.092	0.108
-143.516	-162.725	-0.166	0.008
-142.502	-125.348	-0.169	-0.025
-141.487	-200.000	-0.025	0.295
-140.472	-79.530	0.188	-0.062
-139.458	-7.386	0.273	0.182
-138.443	-161.602	-0.313	0.016
-137.429	800.000	0.005	0.018
-136.414	-62.675	-0.190	-0.078
-135.399	-200.000	0.401	0.002
-134.385	187.575	-0.072	-0.105
-133.370	441.174	0.169	0.363
-132.356	800.000	0.097	-0.302
-131.341	287.650	0.121	-0.215
-130.326	78.735	0.074	-0.078
-129.312	-12.659	-0.189	0.121
-128.297	14.188	-0.072	0.055
-127.283	229.045	-0.011	0.017
-126.268	111.382	-0.085	-0.101
-125.253	55.968	0.121	-0.115
-124.239	38.377	0.098	-0.086
-123.224	248.479	-0.134	0.223
-122.210	-200.000	-0.004	-0.138
-121.195	79.464	-0.119	-0.126
-120.180	-39.421	0.102	0.053
-119.166	-26.323	-0.194	-0.112
-118.151	13.731	0.221	0.168
-117.137	115.621	0.136	-0.163
-116.122	276.810	0.084	0.146
-115.107	800.000	0.076	-0.219
-114.093	-179.753	-0.179	-0.004
-113.078	658.774	0.076	-0.192
-112.064	-51.728	0.251	0.115
-111.049	-111.827	-0.091	-0.018
-110.034	-83.890	-0.298	0.093
-109.020	-200.000	-0.027	-0.144
-108.005	105.260	-0.053	-0.062
-106.991	21.524	0.071	0.057
-105.976	-200.000	-0.032	0.142
-104.962	-89.964	-0.156	-0.045
-103.947	-87.746	-0.229	0.068
-102.932	-200.000	-0.003	-0.108
-101.918	-148.231	0.129	-0.010
-100.903	521.519	0.190	-0.438
-99.889	145.950	0.067	0.088
-98.874	175.575	0.203	-0.288
-97.859	-75.522	-0.313	-0.109
-96.845	302.081	0.088	-0.159
-95.830	735.992	0.060	0.158
-94.816	-161.549	0.112	-0.006
-93.801	260.675	0.122	0.207
-92.786	-131.321	-0.232	0.030
-91.772	349.010	0.009	-0.018
-90.757	-145.738	-0.229	0.020
-89.743	800.000	-0.093	-0.290
-88.728	-200.000	0.010	-0.067
-87.713	-200.000	0.028	-0.488
-86.699	642.758	-0.047	-0.118
-85.684	158.748	0.191	0.260
-84.670	-140.543	0.407	-0.041
-83.655	-59.815	0.062	0.026
-82.640	128.932	0.095	0.119
-81.626	-11.897	-0.128	-0.082
-80.611	-50.504	0.191	-0.088
-79.597	43.172	-0.174	0.156
-78.582	-134.908	-0.508	0.060
-77.567	314.778	-0.067	-0.123
-76.553	-96.832	0.263	0.068
-75.538	-90.745	0.159	0.045
-74.524	-200.000	0.049	-0.397
-73.509	-26.139	-0.242	-0.140
-72.494	117.953	-0.190	0.229
-71.480	0.481	0.250	-0.175
-70.465	800.000	-0.055	-0.213
-69.451	-99.701	-0.302	-0.074
-68.436	-86.343	0.148	-0.045
-67.422	-113.996	0.232	0.044
-66.407	277.067	-0.137	0.238
-65.392	-200.000	-0.071	-0.314
-64.378	800.000	-0.048	-0.160
-63.363	553.860	0.037	-0.086
-62.349	-164.690	-0.171	0.008
-61.334	47.445	-1.010	-0.922
-60.319	149.888	0.628	0.834
-59.305	281.437	-0.598	-1.050
-58.290	756.939	0.481	1.275
-57.276	800.000	0.378	1.353
-56.261	-200.000	115.525	665.803
-55.246	541.360	1527.699	3564.796
-54.232	177.499	2694.203	3843.987
-53.217	110.187	2152.032	2530.534
-52.203	39.014	1595.653	1396.715
-51.188	30.576	1342.500	1124.312
-50.173	27.729	1304.250	1075.480
-49.159	56.100	1361.781	1294.343
-48.144	54.117	1376.099	1296.012
-47.130	30.908	1330.819	1116.343
-46.115	27.400	1313.349	1080.855
-45.100	27.232	1308.241	1075.616
-44.086	27.041	1306.380	1072.915
-43.071	27.053	1303.940	1070.941
-42.057	27.184	1301.067	1069.310
-41.042	27.060	1300.311	1067.918
-40.027	27.066	1298.719	1066.598
-39.013	27.131	1296.475	1065.099
-37.998	27.193	1294.476	1063.773
-36.984	27.255	1292.761	1062.685
-35.969	27.312	1290.863	1061.419
-34.954	27.381	1289.118	1060.343
-33.940	27.337	1287.974	1059.104
-32.925	27.341	1286.391	1057.785
-31.911	27.341	1285.551	1057.048
-30.896	27.374	1283.824	1055.781
-29.881	27.405	1282.265	1054.634
-28.867	27.385	1281.072	1053.497
-27.852	27.374	1279.604	1052.180
-26.838	27.310	1278.532	1050.888
-25.823	27.452	1276.712	1050.172
-24.809	27.352	1275.686	1048.708
-23.794	27.369	1274.130	1047.486
-22.779	27.411	1272.669	1046.487
-21.765	27.342	1271.957	1045.464
-20.750	27.370	1270.892	1044.703
-19.736	27.236	1269.576	1042.812
-18.721	27.159	1268.333	1041.310
-17.706	27.231	1267.354	1040.877
-16.692	27.251	1265.915	1039.767
-15.677	27.267	1265.111	1039.160
-14.663	27.253	1263.494	1037.712
-13.648	27.181	1262.764	1036.657
-12.633	27.285	1261.560	1036.223
-11.619	27.264	1260.587	1035.261
-10.604	27.244	1259.900	1034.540
-9.590	27.259	1259.061	1033.898
-8.575	27.285	1257.607	1032.810
-7.560	27.122	1257.226	1031.531
-6.546	27.076	1256.483	1030.619
-5.531	27.237	1255.435	1030.630
-4.517	27.269	1254.309	1029.845
-3.502	27.293	1253.540	1029.311
-2.487	27.305	1252.525	1028.502
-1.473	27.208	1248.376	1024.510
-0.458	25.719	1233.039	1003.587
0.556	23.667	1216.410	964.693
1.571	19.920	1221.812	948.401
2.586	18.869	1236.340	953.764
3.600	18.610	1224.556	943.166
4.615	14.393	1153.869	866.750
5.629	7.450	1081.950	778.685
6.644	4.409	1063.980	750.992
7.659	4.176	1061.734	748.217
8.673	3.845	1060.661	745.799
9.688	3.792	1059.202	744.453
10.702	4.074	1057.313	744.413
11.717	8.801	1063.569	771.562
12.731	16.874	1074.267	818.380
13.746	21.580	1080.762	846.056
14.761	22.581	1081.077	851.063
15.775	21.903	1079.555	846.520
16.790	21.043	1077.754	840.889
17.804	20.326	1076.555	836.423
18.819	20.087	1075.802	834.613
19.834	20.122	1075.144	834.200
20.848	20.144	1074.706	833.892
21.863	20.046	1073.443	832.368
22.877	19.772	1072.991	830.625
23.892	19.752	1071.974	829.667
24.907	19.623	1071.074	828.283
25.921	19.571	1070.599	827.592
26.936	19.620	1068.842	826.394
27.950	19.656	1067.723	825.630
28.965	19.824	1065.927	824.968
29.980	19.898	1065.109	824.612
30.994	20.047	1063.905	824.319
32.009	20.034	1063.064	823.531
33.023	20.029	1061.889	822.523
34.038	19.817	1061.052	820.800
35.053	19.754	1059.967	819.586
36.067	19.681	1059.115	818.509
37.082	19.816	1057.963	818.186
38.096	20.057	1056.948	818.467
39.111	19.958	1056.957	817.935
40.126	19.693	1055.829	815.739
41.140	19.355	1054.091	812.729
42.155	19.266	1052.382	810.921
43.169	19.208	1051.693	810.045
44.184	19.107	1051.051	809.007
45.199	19.327	1049.861	809.052
46.213	19.379	1049.491	808.938
47.228	19.803	1048.391	810.003
48.242	19.738	1047.395	808.860
49.257	19.632	1046.850	807.870
50.271	19.856	1045.884	808.100
51.286	19.912	1045.218	807.774
52.301	19.830	1044.061	806.429
53.315	19.767	1042.599	804.936
54.330	19.479	1041.825	802.924
55.344	19.482	1040.879	802.141
56.359	19.419	1040.183	801.240
57.374	19.522	1039.269	800.944
58.388	19.279	1038.591	799.223
59.403	19.033	1037.672	797.304
60.417	19.201	1036.924	797.437
61.432	19.167	1036.043	796.534
62.447	19.027	1035.404	795.321
63.461	18.947	1034.318	794.048
64.476	19.054	1033.218	793.630
65.490	19.002	1032.516	792.777
66.505	19.076	1032.030	792.675
67.520	19.119	1031.722	792.566
68.534	19.049	1030.551	791.276
69.549	18.855	1030.146	790.004
70.563	18.733	1029.130	788.594
71.578	18.717	1027.851	787.470
72.593	18.689	1027.328	786.872
73.607	18.521	1026.788	785.617
74.622	18.686	1026.556	786.126
75.636	18.864	1025.251	785.871
76.651	18.845	1024.755	785.335
77.666	18.968	1023.904	785.176
78.680	18.892	1023.219	784.233
79.695	18.923	1022.673	783.887
80.709	19.172	1022.247	784.628
81.724	19.344	1021.548	784.807
82.739	19.320	1021.376	784.492
83.753	19.568	1020.812	785.116
84.768	19.980	1020.206	786.454
85.782	20.260	1019.399	787.033
86.797	20.120	1018.149	785.366
87.812	19.901	1017.362	783.696
88.826	19.826	1016.671	782.757
89.841	20.010	1015.471	782.593
90.855	20.112	1014.927	782.567
91.870	20.099	1014.193	781.872
92.884	20.059	1013.457	781.055
93.899	20.048	1012.664	780.324
94.914	20.185	1011.361	779.868
95.928	20.162	1010.720	779.203
96.943	19.983	1009.594	777.459
97.957	19.884	1009.227	776.666
98.972	19.928	1007.874	775.751
99.987	19.979	1007.399	775.545
101.001	19.898	1006.473	774.401
102.016	19.976	1005.444	773.890
103.030	19.938	1005.099	773.386
104.045	19.946	1004.181	772.646
105.060	19.893	1003.133	771.536
106.074	19.492	1001.567	768.478
107.089	19.194	1000.589	766.337
108.103	19.132	999.471	765.138
109.118	19.223	998.015	764.356
110.133	18.956	997.319	762.571
111.147	18.845	996.560	761.433
112.162	19.102	996.072	762.131
113.176	19.251	995.732	762.462
114.191	19.424	994.696	762.366
115.206	19.347	993.998	761.424
116.220	19.266	993.000	760.235
117.235	19.130	992.383	759.096
118.249	19.134	991.295	758.216
119.264	18.967	990.644	756.913
120.279	19.012	989.499	756.170
121.293	18.800	989.054	754.833
122.308	18.785	988.128	753.993
123.322	18.778	986.529	752.675
124.337	18.695	986.021	751.858
125.352	18.917	984.618	751.693
126.366	18.705	983.878	750.134
127.381	18.754	983.323	749.859
128.395	18.677	982.613	748.917
129.410	19.035	981.128	749.275
130.424	19.067	980.929	749.197
131.439	19.226	980.117	749.201
132.454	19.160	979.900	748.683
133.468	19.310	978.811	748.438
134.483	19.269	977.916	747.508
135.497	19.351	976.821	746.959
136.512	19.224	976.318	745.961
137.527	19.458	975.184	746.039
138.541	19.318	974.831	745.099
139.556	19.521	973.956	745.240
140.570	19.715	973.354	745.548
141.585	19.975	972.960	746.303
142.600	19.833	972.433	745.219
143.614	19.975	971.310	744.903
144.629	20.191	970.842	745.407
145.643	19.936	969.713	743.382
146.658	19.725	968.132	741.199
147.673	19.663	967.424	740.327
148.687	19.401	966.328	738.298
149.702	19.357	965.423	737.353
150.716	19.280	964.580	736.317
151.731	19.472	963.885	736.542
152.746	19.402	963.353	735.771
153.760	19.469	963.289	735.942
154.775	19.663	962.509	736.108
155.789	19.768	961.614	735.803
156.804	19.769	960.812	735.132
157.819	19.809	960.751	735.187
158.833	19.948	959.446	734.716
159.848	20.176	959.315	735.516
160.862	20.027	957.983	733.801
161.877	19.600	956.176	730.544
162.892	19.438	954.809	728.750
163.906	19.422	953.992	727.996
164.921	19.391	953.384	727.335
165.935	19.511	952.426	727.048
166.950	19.621	951.920	727.061
167.964	19.507	951.068	725.867
168.979	19.444	949.967	724.696
169.994	19.527	948.837	724.116
171.008	19.574	948.675	724.130
172.023	19.787	948.141	724.549
173.037	20.068	947.287	725.007
174.052	19.816	946.414	723.222
175.067	19.422	945.538	720.843
176.081	19.290	944.547	719.472
177.096	19.254	944.450	719.184
178.110	19.328	943.908	719.015
179.125	19.394	943.053	718.577
180.140	19.480	942.971	718.810
181.154	19.810	942.350	719.646
182.169	19.898	942.103	719.759
183.183	19.839	941.435	718.940
184.198	19.910	940.540	718.489
185.213	19.908	939.885	717.915
186.227	19.966	939.684	717.940
187.242	20.079	938.832	717.692
188.256	20.235	938.652	718.136
189.271	20.185	937.625	717.081
190.286	19.697	936.332	714.013
191.300	19.242	935.495	711.434
192.315	19.050	934.883	710.113
193.329	19.265	934.194	710.411
194.344	19.367	933.669	710.369
195.359	19.563	932.884	710.515
196.373	19.818	932.488	711.201
197.388	20.008	932.330	711.800
198.402	20.143	932.412	712.352
199.417	20.346	931.439	712.379
200.432	20.505	931.111	712.716
201.446	20.513	930.984	712.592
202.461	20.682	930.172	712.600
203.475	20.372	929.629	710.849
204.490	19.971	928.570	708.339
205.504	20.044	927.584	707.822
206.519	19.986	926.306	706.549
207.534	19.901	925.938	705.858
208.548	19.999	925.450	705.820
209.563	20.028	924.520	705.166
210.577	20.109	924.213	705.201
211.592	20.212	924.101	705.472
212.607	20.469	922.846	705.497
213.621	20.312	921.984	704.138
214.636	20.202	921.729	703.433
215.650	20.281	920.927	703.080
216.665	20.420	920.297	703.098
217.680	20.493	919.808	702.961
218.694	20.452	919.315	702.354
219.709	20.615	917.855	701.836
220.723	20.395	917.653	700.731
221.738	20.270	916.960	699.634
222.753	20.323	916.414	699.371
223.767	20.524	915.859	699.696
224.782	20.563	915.558	699.559
225.796	20.629	915.161	699.460
226.811	20.453	914.378	698.093
227.826	20.219	913.368	696.319
228.840	20.174	912.711	695.578
229.855	20.234	911.833	695.088
230.869	20.369	910.700	694.701
231.884	20.096	910.429	693.343
232.899	20.046	909.778	692.583
233.913	19.923	909.137	691.544
234.928	19.831	908.201	690.402
235.942	19.674	907.487	689.171
236.957	19.967	906.555	689.571
237.972	19.926	906.282	689.138
238.986	19.792	906.013	688.339
240.001	19.847	905.466	688.085
241.015	20.093	904.281	688.098
242.030	20.248	904.000	688.437
243.045	20.245	903.903	688.291
244.059	20.202	903.301	687.604
245.074	20.313	902.314	687.231
246.088	20.440	902.328	687.683
247.103	20.608	902.034	688.064
248.117	20.761	901.663	688.322
249.132	21.207	900.939	689.471
250.147	21.431	900.443	689.917
251.161	21.307	900.243	689.212
252.176	21.385	899.609	688.974
253.190	21.455	898.905	688.646
254.205	21.494	898.310	688.285
255.220	21.307	897.754	687.062
256.234	21.332	896.949	686.483
257.249	21.299	896.356	685.841
258.263	21.316	895.394	685.108
259.278	21.309	894.865	684.618
260.293	21.338	894.463	684.364
261.307	21.552	894.028	684.807
262.322	21.509	893.394	684.091
263.336	21.534	892.349	683.331
264.351	21.590	891.786	683.057
265.366	21.559	891.213	682.436
266.380	21.431	890.526	681.350
267.395	21.313	890.107	680.508
268.409	21.284	888.670	679.238
269.424	21.374	887.837	678.889
270.439	21.294	887.303	678.114
271.453	21.161	886.351	676.809
272.468	20.982	886.319	676.031
273.482	21.157	885.582	676.085
274.497	21.006	885.183	675.138
275.512	21.154	884.519	675.146
276.526	21.055	884.188	674.450
277.541	21.229	883.769	674.743
278.555	21.408	883.259	674.983
279.570	21.635	883.060	675.649
280.585	21.552	881.893	674.375
281.599	21.228	880.811	672.241
282.614	21.101	880.217	671.241
283.628	21.159	879.707	671.013
284.643	21.100	879.041	670.221
285.657	20.972	878.413	669.191
286.672	21.282	877.521	669.642
287.687	21.327	877.202	669.511
288.701	21.303	876.953	669.169
289.716	21.286	876.087	668.383
290.730	21.318	875.781	668.213
291.745	21.350	874.810	667.537
292.760	21.455	874.341	667.520
293.774	21.699	874.196	668.282
294.789	21.523	873.654	667.137
295.803	21.403	872.173	665.492
296.818	21.242	871.402	664.232
297.833	21.280	871.001	664.010
298.847	21.429	870.446	664.094
299.862	21.375	869.794	663.335
300.876	21.476	869.732	663.612
301.891	21.805	868.815	664.098
302.906	21.794	868.526	663.777
303.920	21.952	868.429	664.245
304.935	21.961	868.120	663.984
305.949	21.877	866.988	662.740
306.964	21.719	866.363	661.606
307.979	21.710	865.704	661.013
308.993	21.810	865.404	661.103
310.008	21.857	864.779	660.742
311.022	21.764	864.261	659.936
312.037	21.501	863.458	658.278
313.052	21.340	862.657	657.003
314.066	21.217	861.813	655.840
315.081	21.302	861.335	655.735
316.095	21.331	860.433	655.099
317.110	21.278	859.820	654.378
318.125	21.340	859.608	654.392
319.139	21.137	858.937	653.061
320.154	21.200	858.738	653.088
321.168	21.286	858.211	652.951
322.183	21.321	857.647	652.596
323.197	21.307	857.022	652.011
324.212	21.323	856.826	651.865
325.227	21.348	856.153	651.388
326.241	21.399	855.205	650.797
327.256	21.284	854.788	649.996
328.270	21.400	853.780	649.600
329.285	21.267	853.488	648.829
330.300	21.300	852.765	648.343
331.314	21.368	852.429	648.281
332.329	21.677	852.260	649.242
333.343	21.660	851.853	648.813
334.358	21.699	851.367	648.530
335.373	21.809	850.822	648.463
336.387	21.731	851.073	648.309
337.402	21.812	851.078	648.553
338.416	21.982	850.715	648.851
339.431	22.302	850.216	649.593
340.446	22.380	849.787	649.496
341.460	22.396	849.119	648.987
342.475	22.483	849.044	649.190
343.489	22.430	848.935	648.857
344.504	22.624	848.143	648.906
345.519	22.512	848.001	648.330
346.533	22.495	846.751	647.255
347.548	22.117	846.169	645.362
348.562	21.879	845.431	643.872
349.577	21.711	844.596	642.561
350.592	21.695	844.015	642.002
351.606	21.634	843.293	641.174
352.621	21.781	842.755	641.245
353.635	21.999	842.381	641.703
354.650	21.875	841.782	640.737
355.665	21.906	841.318	640.439
356.679	21.988	840.756	640.256
357.694	21.965	840.015	639.550
358.708	21.937	839.537	639.027
359.723	22.089	838.652	638.850
360.738	22.167	837.788	638.418
361.752	22.036	837.786	637.884
362.767	22.247	837.333	638.250
363.781	22.545	836.998	639.017
364.796	22.624	836.436	638.819
365.810	22.682	836.515	639.031
366.825	22.743	836.067	638.856
367.840	22.650	835.083	637.711
368.854	22.503	834.848	636.942
369.869	22.431	834.178	636.116
370.883	22.444	833.758	635.786
371.898	22.693	833.398	636.352
372.913	22.790	832.881	636.250
373.927	22.677	831.868	635.015
374.942	22.627	831.750	634.689
375.956	22.688	831.477	634.643
376.971	22.884	830.874	634.833
377.986	22.877	830.986	634.835
379.000	23.094	829.991	634.798
380.015	22.921	829.610	633.830
381.029	22.836	829.327	633.252
382.044	22.863	828.794	632.886
383.059	22.972	828.090	632.684
384.073	22.788	826.879	631.044
385.088	22.723	825.685	629.845
386.102	22.238	826.208	628.455
387.117	22.385	824.955	627.971
388.132	22.472	824.264	627.700
389.146	22.514	824.072	627.646
390.161	22.707	824.278	628.436
391.175	22.847	823.202	628.058
392.190	22.579	822.853	626.782
393.205	22.498	821.934	625.741
394.219	22.481	821.335	625.168
395.234	22.352	820.992	624.395
396.248	22.315	820.366	623.732
397.263	22.269	819.674	622.990
398.278	22.189	819.559	622.564
399.292	22.169	819.068	622.065
400.307	22.141	818.536	621.504
401.321	22.132	818.135	621.113
402.336	22.208	818.077	621.284
403.350	22.699	817.400	622.447
404.365	22.813	817.421	622.811
405.380	22.831	817.029	622.521
406.394	23.156	816.437	623.159
407.409	23.257	815.913	623.059
408.423	23.145	816.005	622.680
409.438	23.185	815.727	622.553
410.453	23.288	814.979	622.289
411.467	23.367	814.643	622.257
412.482	23.323	814.148	621.669
413.496	23.393	814.242	621.930
414.511	23.332	813.582	621.156
415.526	23.296	812.519	620.165
416.540	23.236	812.358	619.777
417.555	23.335	811.807	619.647
418.569	23.310	811.567	619.323
419.584	23.441	810.970	619.269
420.599	23.180	810.465	617.917
421.613	164.479	1373.241	1797.690
422.628	143.225	1455.237	1797.737
