DTS Sentinel unit serial number:	SN413079Multiplexer serial number:	ORYXHardware model number:	OX4-SRSoftware version number:	ORYX F/W v4.00 Oryx Data Collector v3.7.2.0data status	okinstallation	princeton_trtdifferential loss correction	single-endedforward channel	channel 1reverse channel	N/Adate	2019/09/18time	07:18:35forward acquisition time	60.00reverse acquisition time	0.00gamma	496.2192k internal	0.2340k external	0.2340temperature offset calibration	0.9982default loss term (dB/km)	0.3790temperature slope calibration	1.0000multiplexer offset coefficient	1.0000multiplexer slope coefficient	1.0000fibre end	0.00T internal ref (°C)	23.19T ext. ref 1 (°C)	0.20T ext. ref 2 (°C)	17.49length (m)	temperature (°C)	Stokes	anti-Stokes-747.200	50.614	0.191	-0.181
-746.185	-161.128	0.112	-0.006
-745.171	-111.508	0.149	-0.030
-744.156	675.873	0.153	0.399
-743.142	-10.916	0.220	0.146
-742.127	800.000	0.020	0.073
-741.112	-157.144	0.234	-0.014
-740.098	119.221	-0.254	-0.315
-739.083	310.862	0.039	0.074
-738.069	-200.000	-0.090	0.485
-737.054	800.000	-0.101	-0.328
-736.039	-148.805	-0.272	-0.022
-735.025	339.437	0.100	0.195
-734.010	-21.030	-0.307	-0.188
-732.996	-33.500	-0.081	0.045
-731.981	-200.000	-0.010	-0.236
-730.966	75.031	0.062	0.066
-729.952	57.482	-0.079	-0.077
-728.937	-8.594	0.347	-0.234
-727.923	226.096	-0.272	0.441
-726.908	-64.323	0.344	0.140
-725.894	102.605	-0.208	-0.244
-724.879	79.128	0.215	-0.231
-723.864	301.070	0.102	0.188
-722.850	-141.321	-0.283	-0.029
-721.835	54.152	-0.079	-0.076
-720.821	419.086	-0.076	0.163
-719.806	82.695	-0.018	0.019
-718.791	-101.422	-0.128	-0.031
-717.777	92.848	-0.152	0.172
-716.762	224.709	0.159	0.258
-715.748	-9.827	0.208	0.139
-714.733	-104.036	-0.121	-0.028
-713.718	70.293	0.414	-0.429
-712.704	-2.086	0.199	-0.140
-711.689	458.913	0.120	-0.268
-710.675	-129.444	-0.163	-0.023
-709.660	-200.000	0.042	-0.201
-708.645	451.763	-0.072	0.158
-707.631	-107.793	-0.109	0.024
-706.616	120.378	0.168	0.208
-705.602	21.219	0.277	0.226
-704.587	-37.824	0.140	-0.074
-703.572	800.000	0.116	-0.437
-702.558	-91.392	0.294	0.084
-701.543	-200.000	0.037	-0.177
-700.529	-8.402	0.147	0.099
-699.514	800.000	0.091	0.263
-698.499	-200.000	-0.002	-0.155
-697.485	726.475	-0.097	-0.260
-696.470	-7.501	-0.297	-0.201
-695.456	96.079	0.210	0.240
-694.441	-200.000	0.005	0.297
-693.426	-100.986	-0.061	-0.015
-692.412	-200.000	0.044	0.260
-691.397	518.576	0.135	-0.317
-690.383	780.827	0.048	-0.132
-689.368	-200.000	0.031	0.137
-688.354	4.180	0.164	0.120
-687.339	-41.218	-0.206	-0.107
-686.324	-200.000	0.002	0.025
-685.310	350.918	-0.198	-0.392
-684.295	-26.204	0.298	-0.175
-683.281	26.161	-0.164	-0.137
-682.266	800.000	-0.069	-0.208
-681.251	-62.416	-0.089	0.037
-680.237	-200.000	-0.029	-0.194
-679.222	197.705	0.012	0.018
-678.208	1.897	0.187	0.135
-677.193	-200.000	0.025	0.200
-676.178	-134.083	-0.219	0.027
-675.164	-37.239	0.189	-0.101
-674.149	-200.000	-0.045	-0.253
-673.135	292.708	0.220	-0.401
-672.120	-165.154	0.325	-0.014
-671.105	178.257	-0.102	0.148
-670.091	223.147	0.116	0.187
-669.076	800.000	0.040	-0.147
-668.062	-119.980	-0.192	-0.033
-667.047	-200.000	-0.045	-0.208
-666.032	298.580	-0.057	-0.104
-665.018	-66.533	-0.288	-0.114
-664.003	-106.231	-0.142	-0.032
-662.989	-122.857	0.278	0.045
-661.974	-200.000	0.020	-0.096
-660.959	-31.447	-0.076	0.043
-659.945	17.594	0.290	0.231
-658.930	-52.653	-0.110	0.051
-657.916	-200.000	-0.036	-0.167
-656.901	-78.425	0.119	-0.041
-655.886	-66.193	0.381	-0.152
-654.872	800.000	-0.011	0.030
-653.857	-64.380	0.180	0.073
-652.843	-200.000	0.006	-0.028
-651.828	-107.432	0.424	0.093
-650.814	64.289	-0.114	0.115
-649.799	105.945	0.135	0.159
-648.784	162.016	0.097	0.136
-647.770	-200.000	-0.007	-0.134
-646.755	331.373	-0.087	0.167
-645.741	605.404	0.038	0.095
-644.726	772.501	0.038	0.104
-643.711	-200.000	0.044	0.251
-642.697	65.882	-0.247	-0.250
-641.682	-200.000	0.015	0.236
-640.668	62.869	-0.096	0.095
-639.653	800.000	-0.054	0.217
-638.638	-200.000	-0.058	-0.000
-637.624	-115.629	-0.092	0.017
-636.609	-165.303	-0.207	0.009
-635.595	-18.144	-0.027	-0.017
-634.580	-191.742	-0.341	-0.003
-633.565	-200.000	-0.008	-0.279
-632.551	800.000	-0.112	-0.415
-631.536	57.705	-0.288	-0.281
-630.522	-166.184	0.468	0.020
-629.507	441.121	0.057	0.125
-628.492	-69.250	0.161	-0.062
-627.478	476.192	0.114	0.257
-626.463	-200.000	0.009	0.048
-625.449	130.305	-0.190	-0.243
-624.434	6.523	0.159	0.118
-623.419	86.601	0.189	0.208
-622.405	-25.912	-0.262	0.154
-621.390	-62.818	-0.145	-0.060
-620.376	-128.341	0.175	-0.025
-619.361	-181.099	-0.060	0.001
-618.346	-200.000	0.010	0.058
-617.332	29.551	0.083	-0.070
-616.317	-99.218	-0.172	-0.043
-615.303	-5.391	0.142	0.097
-614.288	-18.865	-0.089	0.056
-613.273	-31.644	-0.248	0.139
-612.259	-144.647	0.342	-0.031
-611.244	-91.040	0.324	-0.093
-610.230	-100.567	-0.469	0.116
-609.215	192.544	0.063	-0.095
-608.201	-200.000	0.021	0.353
-607.186	-200.000	-0.065	0.375
-606.171	190.358	0.039	-0.059
-605.157	-113.017	-0.121	0.024
-604.142	330.008	-0.046	-0.088
-603.128	-15.379	0.267	-0.170
-602.113	260.538	0.087	0.149
-601.098	347.149	-0.159	-0.312
-600.084	34.414	0.050	-0.043
-599.069	-95.610	0.045	0.012
-598.055	36.005	0.168	0.147
-597.040	-33.058	-0.112	0.062
-596.025	69.369	0.250	-0.257
-595.011	796.767	-0.040	-0.111
-593.996	-22.567	-0.049	-0.029
-592.982	-200.000	-0.021	0.116
-591.967	526.779	-0.082	-0.192
-590.952	68.648	0.042	0.043
-589.938	10.754	0.114	-0.087
-588.923	452.122	0.051	-0.112
-587.909	-91.071	0.122	-0.035
-586.894	-122.088	0.103	-0.017
-585.879	41.749	-0.057	-0.051
-584.865	-88.226	-0.289	-0.086
-583.850	-94.023	0.187	-0.051
-582.836	399.878	0.110	0.230
-581.821	148.106	-0.155	0.208
-580.806	-200.000	-0.013	-0.064
-579.792	-0.730	-0.221	-0.156
-578.777	-130.411	0.207	0.028
-577.763	-200.000	-0.005	0.024
-576.748	232.701	0.066	0.108
-575.733	-172.963	0.201	-0.006
-574.719	-68.457	-0.514	0.199
-573.704	-90.974	0.172	-0.049
-572.690	-19.755	-0.158	-0.097
-571.675	-12.345	0.406	0.264
-570.661	49.948	0.088	-0.082
-569.646	-83.387	-0.361	0.115
-568.631	-138.588	-0.139	-0.015
-567.617	-155.516	0.258	-0.017
-566.602	-51.488	0.367	-0.171
-565.588	-111.003	0.349	0.071
-564.573	-69.047	0.159	-0.061
-563.558	638.475	-0.134	-0.339
-562.544	-82.793	0.058	0.019
-561.529	-200.000	-0.003	0.266
-560.515	-200.000	0.016	0.292
-559.500	-200.000	-0.020	-0.262
-558.485	-118.620	0.084	-0.015
-557.471	-18.165	0.149	0.093
-556.456	739.259	-0.112	-0.300
-555.442	-15.761	0.129	-0.082
-554.427	-200.000	0.023	0.305
-553.412	86.934	0.133	-0.146
-552.398	-72.447	-0.258	-0.095
-551.383	146.144	0.181	0.242
-550.369	595.006	0.104	-0.256
-549.354	-66.635	0.106	-0.042
-548.339	682.360	-0.061	-0.159
-547.325	58.008	0.083	-0.081
-546.310	81.030	-0.156	0.168
-545.296	27.092	0.023	0.019
-544.281	504.306	-0.071	-0.163
-543.266	15.380	-0.076	0.059
-542.252	51.410	-0.057	-0.054
-541.237	97.758	0.116	0.133
-540.223	87.611	-0.199	0.219
-539.208	543.297	-0.157	0.372
-538.193	27.483	0.136	0.114
-537.179	63.863	-0.156	0.156
-536.164	417.737	0.035	-0.075
-535.150	16.746	-0.288	0.226
-534.135	-168.360	0.073	-0.003
-533.121	-18.380	-0.256	-0.159
-532.106	59.686	0.185	0.181
-531.091	-139.568	0.129	0.014
-530.077	167.643	-0.030	0.042
-529.062	291.691	-0.093	0.168
-528.048	-200.000	0.073	-0.479
-527.033	-200.000	0.010	-0.242
-526.018	139.044	0.179	0.233
-525.004	16.533	0.132	0.104
-523.989	-79.554	0.119	0.040
-522.975	-200.000	0.014	0.235
-521.960	321.573	0.034	0.065
-520.945	528.858	-0.100	-0.235
-519.931	454.514	-0.128	0.281
-518.916	33.655	0.298	-0.258
-517.902	70.960	-0.234	-0.241
-516.887	-200.000	-0.005	0.123
-515.872	-200.000	-0.065	-0.371
-514.858	-10.751	0.165	0.109
-513.843	-5.282	0.343	-0.234
-512.829	372.713	0.109	0.221
-511.814	-27.572	-0.321	-0.185
-510.799	217.848	0.104	0.165
-509.785	-158.675	-0.322	-0.018
-508.770	-54.065	0.151	0.068
-507.756	-119.648	-0.182	-0.031
-506.741	202.467	-0.026	-0.040
-505.726	-65.399	-0.394	0.157
-504.712	-57.406	0.222	0.097
-503.697	-200.000	0.069	0.311
-502.683	-75.420	-0.312	-0.110
-501.668	800.000	-0.046	-0.175
-500.653	185.778	0.122	0.180
-499.639	326.447	-0.151	-0.287
-498.624	208.564	-0.085	-0.132
-497.610	491.210	0.142	-0.322
-496.595	800.000	-0.046	0.199
-495.581	-124.570	-0.297	0.046
-494.566	183.470	0.221	-0.325
-493.551	154.489	-0.053	0.072
-492.537	217.078	0.056	0.089
-491.522	264.549	0.145	0.250
-490.508	-29.782	-0.326	-0.184
-489.493	453.042	-0.047	0.102
-488.478	16.181	-0.065	0.051
-487.464	103.755	-0.131	-0.153
-486.449	5.904	0.182	-0.133
-485.435	70.539	-0.267	-0.274
-484.420	58.568	0.055	-0.053
-483.405	-54.567	0.069	0.031
-482.391	303.814	0.040	0.073
-481.376	-134.369	0.428	0.052
-480.362	800.000	-0.144	0.407
-479.347	124.826	-0.276	0.345
-478.332	91.640	0.304	-0.339
-477.318	303.705	-0.126	-0.232
-476.303	800.000	-0.068	-0.293
-475.289	658.502	-0.123	-0.314
-474.274	-200.000	0.043	-0.242
-473.259	90.524	-0.159	0.177
-472.245	-200.000	-0.002	-0.326
-471.230	-200.000	-0.001	-0.237
-470.216	588.307	-0.039	-0.096
-469.201	-200.000	-0.012	-0.149
-468.186	-200.000	0.021	-0.237
-467.172	-68.831	0.237	-0.091
-466.157	-113.612	0.196	0.038
-465.143	800.000	-0.082	0.250
-464.128	-109.851	-0.109	0.023
-463.113	-7.816	0.161	-0.108
-462.099	-126.373	-0.413	0.061
-461.084	62.505	-0.130	0.129
-460.070	-200.000	0.019	0.207
-459.055	-200.000	0.017	-0.254
-458.040	626.102	-0.082	-0.205
-457.026	-95.294	-0.135	0.036
-456.011	63.704	-0.086	0.085
-454.997	-44.608	0.168	0.083
-453.982	73.022	0.126	-0.131
-452.968	-200.000	-0.017	-0.073
-451.953	-55.875	-0.045	0.020
-450.938	637.849	-0.132	0.332
-449.924	-6.047	0.040	0.027
-448.909	192.371	-0.119	-0.178
-447.895	758.882	-0.044	-0.117
-446.880	480.979	0.078	-0.176
-445.865	-97.813	0.127	0.033
-444.851	-41.804	-0.328	0.167
-443.836	-121.965	0.487	0.079
-442.822	800.000	-0.080	0.229
-441.807	155.986	0.116	-0.158
-440.792	-10.793	-0.121	-0.080
-439.778	-108.874	0.397	0.084
-438.763	137.707	-0.281	-0.364
-437.749	-200.000	0.017	0.123
-436.734	-57.316	0.319	-0.139
-435.719	437.636	-0.055	0.118
-434.705	318.100	0.044	0.083
-433.690	-75.148	-0.053	0.019
-432.676	-87.943	0.129	0.038
-431.661	-82.585	-0.306	-0.098
-430.646	-97.091	0.179	0.046
-429.632	-161.642	0.450	-0.023
-428.617	800.000	0.048	0.166
-427.603	-60.113	0.073	-0.031
-426.588	170.143	-0.096	0.136
-425.573	114.740	0.056	-0.067
-424.559	190.930	-0.129	0.192
-423.544	-200.000	-0.011	0.158
-422.530	-169.700	-0.655	0.023
-421.515	-200.000	0.013	-0.334
-420.500	593.231	0.020	0.049
-419.486	560.234	0.086	0.206
-418.471	800.000	0.023	0.067
-417.457	-52.953	-0.404	0.184
-416.442	-200.000	-0.001	0.282
-415.428	70.627	-0.158	0.161
-414.413	-165.032	-0.283	-0.012
-413.398	-120.449	-0.225	-0.038
-412.384	52.420	0.119	0.113
-411.369	-200.000	-0.020	-0.088
-410.355	-191.503	0.270	0.003
-409.340	-155.223	0.163	-0.010
-408.325	-53.383	-0.130	-0.059
-407.311	418.355	0.074	-0.156
-406.296	-200.000	-0.010	0.206
-405.282	-56.609	-0.143	0.063
-404.267	15.025	0.389	-0.302
-403.252	549.965	-0.141	-0.335
-402.238	173.480	0.160	0.228
-401.223	151.285	0.202	0.272
-400.209	251.470	0.115	-0.193
-399.194	77.419	0.169	-0.177
-398.179	103.962	-0.167	-0.194
-397.165	-200.000	-0.003	-0.037
-396.150	-200.000	0.029	0.186
-395.136	136.435	0.113	-0.146
-394.121	-200.000	0.004	0.156
-393.106	339.118	-0.122	-0.234
-392.092	-168.727	-0.170	-0.006
-391.077	378.633	-0.201	-0.406
-390.063	-176.003	0.312	0.008
-389.048	-35.323	0.119	0.064
-388.033	205.031	-0.037	0.057
-387.019	-50.758	-0.050	-0.023
-386.004	451.161	0.058	0.127
-384.990	499.370	0.136	-0.310
-383.975	369.507	0.177	-0.354
-382.960	-200.000	-0.004	0.129
-381.946	259.682	0.022	0.037
-380.931	164.288	-0.334	0.465
-379.917	-101.495	0.091	0.022
-378.902	348.972	-0.144	-0.281
-377.888	47.517	0.225	-0.207
-376.873	-133.430	0.438	-0.054
-375.858	254.701	0.113	-0.191
-374.844	-109.823	0.327	0.068
-373.829	-32.532	0.306	0.168
-372.815	-31.092	0.149	0.083
-371.800	226.476	0.123	-0.197
-370.785	179.798	-0.024	-0.035
-369.771	258.670	0.028	-0.047
-368.756	-200.000	-0.008	0.302
-367.742	749.692	-0.114	0.304
-366.727	-200.000	0.023	0.165
-365.712	-61.829	-0.061	-0.025
-364.698	800.000	-0.064	-0.275
-363.683	82.596	0.090	0.097
-362.669	81.249	0.110	-0.117
-361.654	-68.471	-0.222	0.085
-360.639	-200.000	-0.020	-0.262
-359.625	46.087	-0.259	-0.237
-358.610	-121.712	-0.200	0.033
-357.596	-50.172	0.394	-0.184
-356.581	-147.940	-0.427	-0.035
-355.566	-14.251	0.433	0.275
-354.552	237.423	-0.052	-0.086
-353.537	-185.776	0.342	0.005
-352.523	-38.833	-0.366	0.190
-351.508	53.710	0.185	-0.175
-350.493	0.624	-0.232	0.164
-349.479	214.826	0.088	0.138
-348.464	800.000	0.040	-0.161
-347.450	-83.805	-0.240	-0.076
-346.435	-200.000	-0.038	0.194
-345.420	134.772	0.053	0.068
-344.406	265.930	-0.107	-0.184
-343.391	-159.863	-0.098	-0.005
-342.377	800.000	-0.018	-0.066
-341.362	-200.000	0.024	-0.116
-340.348	348.824	0.305	-0.595
-339.333	-35.789	-0.157	0.084
-338.318	-200.000	-0.028	0.147
-337.304	-122.884	0.138	-0.022
-336.289	33.119	-0.256	-0.219
-335.275	208.684	-0.136	-0.210
-334.260	162.174	0.037	0.051
-333.245	-39.591	0.068	-0.035
-332.231	387.043	-0.056	0.115
-331.216	-149.028	-0.178	0.014
-330.202	229.992	-0.091	-0.147
-329.187	-200.000	0.032	-0.362
-328.172	800.000	-0.090	-0.307
-327.158	-76.034	-0.129	0.045
-326.143	-76.203	-0.112	-0.039
-325.129	-145.785	-0.250	-0.022
-324.114	622.632	0.058	0.144
-323.099	45.143	0.181	-0.164
-322.085	26.126	0.102	-0.084
-321.070	-81.997	-0.344	0.111
-320.056	133.486	-0.037	0.047
-319.041	478.284	0.165	0.369
-318.026	-200.000	0.058	0.538
-317.012	-13.937	0.132	0.084
-315.997	-98.103	0.372	0.094
-314.983	-48.729	0.117	-0.055
-313.968	-33.453	-0.234	0.128
-312.953	153.938	0.172	0.232
-311.939	-50.846	-0.115	-0.053
-310.924	-167.027	0.180	-0.007
-309.910	-15.858	-0.239	0.150
-308.895	135.569	0.136	-0.174
-307.880	-10.307	0.293	0.192
-306.866	-141.664	0.087	0.009
-305.851	125.209	0.102	0.126
-304.837	621.684	0.058	-0.145
-303.822	800.000	-0.054	0.231
-302.807	138.423	0.055	0.071
-301.793	66.734	0.174	0.174
-300.778	-11.987	0.198	-0.128
-299.764	-200.000	0.001	-0.110
-298.749	188.755	0.227	-0.335
-297.735	239.037	-0.154	0.253
-296.720	-75.151	-0.331	0.117
-295.705	665.621	-0.153	0.389
-294.691	-58.813	0.124	0.053
-293.676	-125.966	0.286	0.042
-292.662	418.818	0.063	-0.133
-291.647	-44.673	0.318	-0.156
-290.632	576.271	-0.047	-0.114
-289.618	80.886	-0.091	0.097
-288.603	575.031	-0.138	0.332
-287.589	324.234	-0.075	0.141
-286.574	-120.545	0.319	0.053
-285.559	41.302	0.120	-0.107
-284.545	-200.000	-0.037	-0.474
-283.530	102.192	-0.114	0.131
-282.516	345.613	0.149	0.288
-281.501	800.000	0.138	-0.384
-280.486	-124.465	-0.192	0.029
-279.472	-108.692	0.121	-0.025
-278.457	126.477	-0.047	-0.058
-277.443	-144.976	0.243	0.022
-276.428	38.725	-0.235	-0.207
-275.413	-189.803	-0.150	0.002
-274.399	-71.824	0.196	0.072
-273.384	-200.000	-0.021	0.278
-272.370	-188.902	0.111	-0.001
-271.355	-123.858	0.329	0.051
-270.340	-123.739	-0.332	-0.052
-269.326	-30.480	0.210	-0.117
-268.311	-18.172	-0.109	0.067
-267.297	769.757	-0.083	0.222
-266.282	-75.471	-0.268	0.094
-265.267	-152.407	-0.268	-0.019
-264.253	-55.367	-0.235	-0.104
-263.238	11.151	0.099	0.075
-262.224	83.933	0.359	-0.385
-261.209	140.498	-0.141	0.184
-260.195	35.429	0.091	0.078
-259.180	-108.651	0.045	0.009
-258.165	-200.000	-0.063	0.304
-257.151	-101.838	-0.103	0.025
-256.136	161.409	-0.148	0.204
-255.122	-130.260	0.181	-0.024
-254.107	-54.365	0.319	0.142
-253.092	-200.000	-0.007	0.120
-252.078	-21.402	0.229	0.137
-251.063	-54.017	-0.163	0.073
-250.049	800.000	0.062	0.232
-249.034	-200.000	0.006	-0.097
-248.019	352.958	-0.029	-0.057
-247.005	22.772	-0.344	-0.277
-245.990	-1.986	-0.074	0.051
-244.976	-81.836	-0.221	0.071
-243.961	-146.972	0.387	0.033
-242.946	-84.764	-0.295	-0.091
-241.932	-74.009	0.089	0.032
-240.917	-149.191	-0.235	-0.019
-239.903	204.035	0.175	0.266
-238.888	371.975	0.129	-0.258
-237.873	334.769	-0.241	-0.458
-236.859	-200.000	0.027	-0.118
-235.844	-126.996	-0.111	-0.016
-234.830	-86.884	0.116	-0.035
-233.815	-94.456	-0.372	0.100
-232.800	252.248	0.140	0.235
-231.786	195.341	-0.040	0.059
-230.771	-137.266	-0.341	0.038
-229.757	25.280	-0.191	-0.156
-228.742	696.886	-0.064	0.166
-227.727	189.242	-0.109	-0.160
-226.713	-138.139	0.149	-0.016
-225.698	16.287	-0.243	-0.188
-224.684	-125.992	0.228	-0.034
-223.669	-200.000	0.011	0.170
-222.655	800.000	0.098	0.323
-221.640	-200.000	0.005	-0.072
-220.625	208.326	-0.079	-0.121
-219.611	-90.219	-0.448	-0.128
-218.596	800.000	0.047	-0.137
-217.582	-40.374	-0.074	-0.038
-216.567	-27.279	0.189	-0.108
-215.552	11.960	-0.036	-0.027
-214.538	-176.304	-0.102	-0.003
-213.523	800.000	0.151	0.450
-212.509	354.330	0.151	-0.294
-211.494	800.000	-0.080	0.308
-210.479	-84.108	0.389	-0.121
-209.465	1.146	0.142	0.100
-208.450	488.345	-0.132	-0.297
-207.436	-68.555	0.202	0.077
-206.421	-200.000	0.016	0.073
-205.406	33.390	0.103	0.088
-204.392	-132.089	-0.352	-0.045
-203.377	-17.419	0.235	0.145
-202.363	-200.000	0.004	0.047
-201.348	-200.000	-0.019	0.090
-200.333	-46.808	-0.221	0.106
-199.319	60.541	0.210	0.204
-198.304	-68.021	-0.236	0.090
-197.290	192.040	-0.096	-0.142
-196.275	-200.000	0.032	0.266
-195.260	468.859	-0.052	0.114
-194.246	24.409	-0.172	0.139
-193.231	800.000	0.088	-0.240
-192.217	-151.748	-0.192	0.014
-191.202	64.802	0.175	0.173
-190.187	-200.000	-0.002	-0.400
-189.173	-152.806	0.218	0.015
-188.158	95.701	-0.265	-0.297
-187.144	-5.422	0.060	-0.041
-186.129	-88.610	-0.423	-0.124
-185.114	7.074	0.091	-0.067
-184.100	19.319	0.157	0.124
-183.085	800.000	0.019	-0.052
-182.071	-139.900	-0.384	-0.040
-181.056	-200.000	0.098	0.000
-180.042	-15.818	-0.193	0.121
-179.027	-159.179	-0.309	-0.017
-178.012	-200.000	-0.020	0.403
-176.998	-88.571	0.067	0.019
-175.983	728.309	0.119	0.312
-174.969	-61.906	-0.228	0.094
-173.954	345.378	0.172	-0.331
-172.939	-97.886	0.256	-0.065
-171.925	800.000	0.051	-0.145
-170.910	92.629	0.046	-0.051
-169.896	45.035	0.206	0.186
-168.881	143.144	0.124	-0.161
-167.866	-74.854	0.183	0.064
-166.852	459.157	-0.163	-0.355
-165.837	800.000	0.054	0.183
-164.823	80.178	0.061	0.064
-163.808	800.000	-0.114	-0.336
-162.793	-158.317	0.216	-0.012
-161.779	800.000	-0.066	0.186
-160.764	800.000	-0.052	0.190
-159.750	250.814	0.026	0.043
-158.735	800.000	-0.045	0.172
-157.720	800.000	0.085	-0.314
-156.706	364.220	-0.177	-0.348
-155.691	-200.000	-0.043	0.209
-154.677	-59.216	-0.152	0.064
-153.662	158.210	-0.145	-0.197
-152.647	182.098	0.059	0.085
-151.633	94.102	-0.109	-0.121
-150.618	463.188	-0.140	-0.307
-149.604	60.233	0.350	-0.339
-148.589	-137.422	0.072	0.008
-147.574	800.000	0.111	-0.347
-146.560	800.000	-0.060	-0.254
-145.545	-148.768	0.275	0.022
-144.531	-57.313	-0.274	0.118
-143.516	-200.000	-0.051	0.606
-142.502	79.051	-0.149	0.156
-141.487	-36.795	0.064	-0.034
-140.472	383.830	0.099	0.200
-139.458	33.927	-0.350	0.298
-138.443	-12.093	0.108	-0.069
-137.429	-1.392	0.140	0.097
-136.414	20.803	0.039	-0.031
-135.399	-66.476	0.156	-0.061
-134.385	-63.155	0.315	-0.127
-133.370	-200.000	-0.006	-0.166
-132.356	-200.000	0.005	-0.209
-131.341	-23.369	0.196	0.116
-130.326	99.740	-0.067	-0.076
-129.312	-200.000	0.006	0.036
-128.297	-125.164	0.235	0.035
-127.283	-122.418	0.035	-0.006
-126.268	-52.423	0.159	-0.072
-125.253	-200.000	-0.010	-0.145
-124.239	437.608	-0.098	-0.210
-123.224	131.529	-0.159	-0.200
-122.210	-200.000	0.009	0.096
-121.195	800.000	-0.019	0.070
-120.180	107.036	-0.179	0.208
-119.166	314.323	-0.101	0.186
-118.151	800.000	0.054	-0.197
-117.137	-47.255	0.306	-0.146
-116.122	-38.512	0.191	-0.099
-115.107	337.247	-0.066	-0.126
-114.093	800.000	-0.033	-0.130
-113.078	-7.175	-0.208	0.138
-112.064	-63.432	-0.122	-0.049
-111.049	-68.329	0.685	0.260
-110.034	-19.820	0.281	0.170
-109.020	800.000	0.049	-0.206
-108.005	-105.089	-0.248	0.056
-106.991	-168.845	0.039	-0.001
-105.976	442.279	-0.143	-0.306
-104.962	-90.737	-0.174	-0.049
-103.947	262.203	0.029	-0.050
-102.932	48.370	0.098	0.090
-101.918	800.000	-0.094	0.272
-100.903	-7.432	0.086	0.057
-99.889	358.064	0.164	-0.320
-98.874	712.752	-0.065	-0.168
-97.859	-200.000	-0.050	0.232
-96.845	192.376	0.045	-0.067
-95.830	213.637	0.129	-0.199
-94.816	63.734	0.208	-0.204
-93.801	800.000	-0.051	0.191
-92.786	95.720	0.071	0.079
-91.772	-200.000	-0.007	0.171
-90.757	-63.590	0.313	-0.126
-89.743	-92.287	0.155	0.043
-88.728	247.669	-0.063	-0.103
-87.713	-143.017	0.157	0.015
-86.699	-21.091	-0.137	0.082
-85.684	35.347	-0.059	0.051
-84.670	-115.191	0.435	0.080
-83.655	-123.716	-0.117	-0.018
-82.640	28.259	-0.179	0.147
-81.626	384.044	-0.144	0.290
-80.611	-0.288	0.115	0.080
-79.597	178.381	0.168	-0.240
-78.582	-200.000	-0.104	0.485
-77.567	128.074	0.203	-0.253
-76.553	-199.062	-0.412	-0.002
-75.538	-86.213	0.208	-0.063
-74.524	197.954	0.101	-0.151
-73.509	-21.940	0.119	0.071
-72.494	525.327	0.098	0.225
-71.480	-200.000	0.012	0.304
-70.465	-200.000	0.002	-0.178
-69.451	800.000	0.079	0.261
-68.436	150.105	0.198	0.262
-67.422	-19.570	-0.235	-0.142
-66.407	-71.349	0.068	0.025
-65.392	96.532	0.215	-0.240
-64.378	-200.000	0.007	0.180
-63.363	77.668	-0.145	0.151
-62.349	800.000	-0.035	-0.119
-61.334	101.161	-0.848	-0.963
-60.319	43.258	0.950	0.847
-59.305	-200.000	-0.356	-1.575
-58.290	431.251	0.791	1.672
-57.276	684.751	0.500	1.273
-56.261	-200.000	125.020	648.076
-55.246	402.248	1582.098	3244.957
-54.232	140.425	2744.784	3535.628
-53.217	95.094	2169.948	2411.265
-52.203	34.771	1598.192	1363.827
-51.188	26.329	1341.120	1093.582
-50.173	23.955	1302.993	1048.480
-49.159	52.133	1372.878	1276.635
-48.144	48.674	1384.542	1266.490
-47.130	26.497	1332.152	1087.108
-46.115	23.358	1313.227	1052.999
-45.100	23.066	1308.088	1047.105
-44.086	23.189	1305.148	1045.438
-43.071	23.123	1302.797	1043.123
-42.057	23.081	1300.892	1041.310
-41.042	23.108	1299.454	1040.280
-40.027	23.147	1297.979	1039.286
-39.013	23.173	1295.736	1037.600
-37.998	23.147	1294.164	1036.147
-36.984	23.100	1292.819	1034.755
-35.969	23.264	1290.542	1033.848
-34.954	23.175	1288.943	1032.009
-33.940	23.103	1288.052	1030.835
-32.925	23.221	1286.450	1030.197
-31.911	23.233	1285.039	1029.096
-30.896	23.314	1283.910	1028.625
-29.881	23.201	1282.845	1027.073
-28.867	23.262	1281.363	1026.198
-27.852	23.381	1279.236	1025.145
-26.838	23.268	1278.341	1023.735
-25.823	23.335	1276.664	1022.738
-24.809	23.287	1275.568	1021.542
-23.794	23.316	1273.997	1020.410
-22.779	23.252	1272.752	1019.001
-21.765	23.288	1271.862	1018.458
-20.750	23.370	1269.798	1017.234
-19.736	23.243	1268.659	1015.551
-18.721	23.172	1267.574	1014.237
-17.706	23.160	1266.988	1013.658
-16.692	23.125	1265.565	1012.283
-15.677	23.184	1264.269	1011.538
-14.663	23.097	1263.478	1010.371
-13.648	23.110	1262.193	1009.375
-12.633	23.100	1261.325	1008.587
-11.619	23.158	1260.393	1008.131
-10.604	23.114	1260.245	1007.721
-9.590	22.986	1259.028	1005.983
-8.575	23.108	1257.677	1005.554
-7.560	23.102	1256.974	1004.918
-6.546	23.130	1255.924	1004.198
-5.531	23.104	1255.563	1003.721
-4.517	23.027	1254.853	1002.680
-3.502	23.178	1253.883	1002.717
-2.487	23.059	1252.936	1001.247
-1.473	23.032	1248.643	997.626
-0.458	21.539	1234.029	977.578
0.556	16.792	1217.906	941.711
1.571	13.216	1226.161	927.964
2.586	12.614	1241.422	936.004
3.600	12.565	1229.608	926.739
4.615	9.302	1158.042	855.388
5.629	3.193	1087.468	772.595
6.644	0.287	1070.542	746.124
7.659	0.182	1068.483	744.107
8.673	0.231	1067.770	743.782
9.688	0.110	1066.724	742.396
10.702	0.322	1063.933	741.428
11.717	4.195	1067.670	763.057
12.731	10.964	1077.258	803.367
13.746	15.477	1083.195	830.087
14.761	16.792	1084.117	837.222
15.775	16.068	1082.379	832.236
16.790	15.111	1080.558	826.041
17.804	14.312	1079.356	821.114
18.819	14.075	1077.760	818.655
19.834	13.940	1077.171	817.476
20.848	13.555	1076.651	815.111
21.863	13.436	1075.576	813.640
22.877	13.290	1074.390	811.955
23.892	13.279	1074.071	811.587
24.907	13.336	1072.631	810.709
25.921	13.263	1072.631	810.277
26.936	13.363	1071.488	809.831
27.950	13.301	1070.655	808.830
28.965	13.311	1069.260	807.751
29.980	13.382	1068.057	807.118
30.994	13.510	1066.885	806.786
32.009	13.481	1065.802	805.751
33.023	13.328	1065.096	804.402
34.038	13.319	1064.328	803.711
35.053	13.210	1063.379	802.393
36.067	13.426	1062.286	802.544
37.082	13.373	1061.737	801.800
38.096	13.371	1060.723	800.953
39.111	13.508	1059.673	800.754
40.126	13.244	1058.968	798.873
41.140	13.289	1057.518	797.925
42.155	13.227	1056.383	796.702
43.169	13.170	1055.475	795.672
44.184	13.181	1054.599	794.994
45.199	13.138	1053.318	793.752
46.213	13.250	1052.296	793.447
47.228	13.312	1051.223	792.869
48.242	13.328	1050.011	791.958
49.257	13.427	1048.779	791.432
50.271	13.276	1048.129	790.152
51.286	13.349	1047.094	789.648
52.301	13.303	1046.167	788.664
53.315	13.162	1045.638	787.520
54.330	13.257	1044.199	786.816
55.344	13.303	1043.501	786.441
56.359	13.232	1042.726	785.453
57.374	13.244	1041.513	784.526
58.388	13.222	1040.912	783.898
59.403	13.269	1040.019	783.379
60.417	13.154	1039.570	782.427
61.432	13.053	1038.782	781.288
62.447	13.157	1037.845	781.006
63.461	13.128	1036.478	779.769
64.476	13.115	1036.090	779.349
65.490	13.173	1035.461	779.079
66.505	13.060	1034.804	777.982
67.520	13.213	1033.469	777.633
68.534	13.159	1033.164	777.076
69.549	13.114	1032.657	776.418
70.563	13.188	1031.574	775.880
71.578	13.185	1031.035	775.395
72.593	13.188	1030.357	774.830
73.607	13.202	1029.212	773.963
74.622	13.062	1028.696	772.852
75.636	13.186	1027.752	772.656
76.651	13.102	1027.503	772.009
77.666	13.123	1026.698	771.433
78.680	13.170	1026.272	771.261
79.695	13.170	1025.203	770.393
80.709	13.176	1025.145	770.309
81.724	13.180	1024.231	769.569
82.739	13.206	1023.734	769.250
83.753	13.344	1022.733	769.072
84.768	13.373	1021.852	768.475
85.782	13.482	1020.951	768.237
86.797	13.405	1020.143	767.205
87.812	13.294	1019.006	765.767
88.826	13.370	1018.093	765.367
89.841	13.428	1016.895	764.664
90.855	13.459	1016.070	764.122
91.870	13.436	1015.182	763.277
92.884	13.434	1014.592	762.759
93.899	13.573	1013.439	762.462
94.914	13.498	1013.119	761.812
95.928	13.511	1011.795	760.807
96.943	13.511	1011.305	760.372
97.957	13.393	1010.710	759.313
98.972	13.300	1009.781	758.125
99.987	13.500	1008.486	757.998
101.001	13.463	1007.571	757.075
102.016	13.440	1006.996	756.473
103.030	13.500	1006.364	756.203
104.045	13.466	1005.239	755.137
105.060	13.498	1004.275	754.489
106.074	13.437	1003.642	753.669
107.089	13.366	1002.375	752.328
108.103	13.333	1001.692	751.602
109.118	13.401	1000.297	750.797
110.133	13.327	999.602	749.875
111.147	13.287	998.908	749.106
112.162	13.326	998.499	748.910
113.176	13.391	997.285	748.227
114.191	13.330	996.861	747.565
115.206	13.409	995.976	747.194
116.220	13.348	995.222	746.284
117.235	13.342	994.577	745.708
118.249	13.372	993.373	744.876
119.264	13.381	992.684	744.332
120.279	13.256	992.443	743.523
121.293	13.270	991.321	742.680
122.308	13.341	990.141	742.049
123.322	13.355	989.104	741.269
124.337	13.460	987.984	740.835
125.352	13.408	987.065	739.846
126.366	13.438	985.961	739.087
127.381	13.328	985.163	737.936
128.395	13.345	983.881	736.982
129.410	13.414	983.200	736.717
130.424	13.311	982.194	735.441
131.439	13.392	981.235	735.016
132.454	13.315	980.930	734.379
133.468	13.394	979.951	733.933
134.483	13.433	979.025	733.346
135.497	13.361	978.426	732.512
136.512	13.430	977.084	731.751
137.527	13.395	976.647	731.205
138.541	13.412	975.720	730.519
139.556	13.343	975.168	729.737
140.570	13.446	974.417	729.567
141.585	13.450	973.815	729.066
142.600	13.545	972.581	728.498
143.614	13.619	971.564	727.998
144.629	13.509	971.270	727.228
145.643	13.705	969.788	726.912
146.658	13.545	968.794	725.402
147.673	13.487	968.213	724.652
148.687	13.465	967.400	723.883
149.702	13.477	966.635	723.298
150.716	13.509	965.294	722.370
151.731	13.435	965.086	721.827
152.746	13.445	964.675	721.500
153.760	13.469	963.955	721.000
154.775	13.665	963.346	721.337
155.789	13.760	962.416	720.989
156.804	13.873	961.363	720.627
157.819	13.635	961.215	719.416
158.833	13.645	960.906	719.166
159.848	13.852	959.699	719.099
160.862	13.618	958.816	717.359
161.877	13.564	957.740	716.257
162.892	13.768	956.906	716.451
163.906	13.650	955.735	715.001
164.921	13.607	955.211	714.362
165.935	13.797	953.873	714.117
166.950	13.777	953.220	713.475
167.964	13.682	952.523	712.482
168.979	13.774	951.225	711.843
169.994	13.731	950.728	711.225
171.008	13.689	950.402	710.739
172.023	13.858	949.606	710.804
173.037	13.877	948.628	710.090
174.052	13.767	947.972	709.065
175.067	13.826	946.902	708.454
176.081	13.754	946.693	707.931
177.096	13.696	946.404	707.404
178.110	13.778	945.755	707.204
179.125	13.820	944.905	706.684
180.140	13.790	944.466	706.167
181.154	13.937	944.061	706.428
182.169	13.957	943.391	705.950
183.183	13.910	942.795	705.238
184.198	14.062	941.786	705.069
185.213	13.976	941.139	704.155
186.227	14.086	940.311	703.940
187.242	14.062	940.177	703.676
188.256	14.059	939.767	703.295
189.271	14.025	938.062	701.812
190.286	13.831	937.713	700.671
191.300	14.022	936.576	700.565
192.315	13.878	936.210	699.623
193.329	13.841	935.991	699.238
194.344	13.807	935.363	698.564
195.359	13.881	934.623	698.263
196.373	13.937	934.217	698.134
197.388	14.036	933.625	698.045
198.402	14.075	933.140	697.785
199.417	14.107	932.122	697.097
200.432	14.260	931.818	697.447
201.446	14.165	931.565	696.797
202.461	14.251	930.968	696.649
203.475	14.244	930.385	696.121
204.490	14.205	929.208	695.018
205.504	14.190	928.341	694.243
206.519	14.314	927.715	694.234
207.534	14.319	926.844	693.540
208.548	14.165	926.606	692.661
209.563	14.281	926.009	692.633
210.577	14.294	925.365	692.146
211.592	14.357	924.192	691.470
212.607	14.436	923.650	691.328
213.621	14.316	923.307	690.514
214.636	14.427	922.355	690.202
215.650	14.356	921.920	689.519
216.665	14.468	920.697	689.008
217.680	14.563	920.239	688.997
218.694	14.479	919.529	688.057
219.709	14.378	918.823	687.053
220.723	14.388	918.106	686.494
221.738	14.453	917.709	686.403
222.753	14.467	917.006	685.876
223.767	14.551	916.213	685.566
224.782	14.544	915.525	684.963
225.796	14.629	915.000	684.861
226.811	14.423	914.597	683.652
227.826	14.567	913.776	683.569
228.840	14.589	912.932	682.968
229.855	14.493	912.356	682.081
230.869	14.625	911.171	681.675
231.884	14.535	911.090	681.186
232.899	14.621	909.886	680.577
233.913	14.652	909.275	680.186
234.928	14.553	909.139	679.619
235.942	14.505	908.182	678.650
236.957	14.672	907.607	678.840
237.972	14.679	907.038	678.383
238.986	14.509	906.759	677.424
240.001	14.660	905.748	677.222
241.015	14.697	905.059	676.796
242.030	14.678	904.573	676.296
243.045	14.665	904.288	675.970
244.059	14.749	903.097	675.358
245.074	14.714	902.705	674.863
246.088	14.769	902.342	674.756
247.103	14.787	901.271	673.969
248.117	14.842	900.833	673.802
249.132	14.793	900.205	673.075
250.147	14.927	899.432	672.978
251.161	14.876	899.149	672.499
252.176	14.901	898.778	672.264
253.190	14.899	897.607	671.320
254.205	14.999	896.646	670.944
255.220	14.974	896.522	670.691
256.234	15.092	895.570	670.391
257.249	15.095	895.100	669.995
258.263	15.047	894.378	669.201
259.278	15.081	893.877	668.902
260.293	15.165	893.007	668.527
261.307	15.121	892.788	668.129
262.322	15.214	891.607	667.557
263.336	15.178	890.886	666.814
264.351	15.195	890.406	666.464
265.366	15.272	889.702	666.184
266.380	15.301	889.119	665.804
267.395	15.213	888.540	664.962
268.409	15.300	887.605	664.548
269.424	15.311	886.763	663.903
270.439	15.372	885.887	663.429
271.453	15.296	885.403	662.709
272.468	15.288	884.773	662.147
273.482	15.391	884.219	662.080
274.497	15.408	883.530	661.574
275.512	15.284	883.355	660.893
276.526	15.398	882.616	660.731
277.541	15.371	882.195	660.253
278.555	15.468	881.644	660.164
279.570	15.470	880.838	659.507
280.585	15.525	880.085	659.101
281.599	15.432	879.134	657.969
282.614	15.462	878.455	657.516
283.628	15.588	877.920	657.554
284.643	15.536	877.695	657.122
285.657	15.595	877.060	656.820
286.672	15.582	876.311	656.151
287.687	15.747	875.192	655.896
288.701	15.605	875.371	655.418
289.716	15.573	874.480	654.569
290.730	15.735	873.495	654.404
291.745	15.669	873.367	653.994
292.760	15.784	872.615	653.820
293.774	15.676	871.941	652.840
294.789	15.826	871.248	652.842
295.803	15.799	870.355	652.013
296.818	15.556	870.071	650.802
297.833	15.837	869.093	651.099
298.847	15.760	868.460	650.268
299.862	15.793	868.038	650.023
300.876	15.833	867.469	649.695
301.891	15.743	867.221	649.105
302.906	15.702	866.745	648.530
303.920	16.018	865.625	648.854
304.935	15.846	865.103	647.741
305.949	15.756	864.792	647.105
306.964	15.904	863.982	647.010
307.979	15.842	863.608	646.435
308.993	15.986	862.967	646.453
310.008	15.942	862.326	645.745
311.022	15.899	861.962	645.251
312.037	16.013	860.927	644.857
313.052	15.842	860.649	643.935
314.066	15.898	859.858	643.499
315.081	15.989	859.143	643.258
316.095	16.069	858.869	643.299
317.110	15.905	858.443	642.298
318.125	15.974	857.671	641.926
319.139	16.022	857.301	641.777
320.154	16.038	856.977	641.539
321.168	16.003	856.311	640.850
322.183	16.030	855.515	640.298
323.197	16.082	854.985	640.045
324.212	16.109	854.796	639.948
325.227	16.018	854.173	639.078
326.241	16.041	853.368	638.509
327.256	16.083	852.954	638.302
328.270	16.170	852.256	638.050
329.285	16.023	851.710	637.032
330.300	16.111	851.375	637.056
331.314	16.006	850.640	636.052
332.329	16.046	850.449	636.004
333.343	16.241	849.682	636.111
334.358	16.234	849.301	635.741
335.373	16.336	848.485	635.457
336.387	16.243	848.580	635.124
337.402	16.257	848.284	634.899
338.416	16.250	848.323	634.846
339.431	16.248	847.455	634.134
340.446	16.251	847.185	633.885
341.460	16.328	846.945	633.940
342.475	16.335	846.536	633.602
343.489	16.445	845.857	633.450
344.504	16.460	845.311	633.043
345.519	16.592	844.281	632.709
346.533	16.542	843.865	632.154
347.548	16.394	843.724	631.438
348.562	16.345	843.449	630.994
349.577	16.501	842.506	630.815
350.592	16.532	841.893	630.416
351.606	16.484	841.195	629.659
352.621	16.504	840.486	629.148
353.635	16.591	840.137	629.153
354.650	16.516	839.280	628.178
355.665	16.626	838.596	628.019
356.679	16.555	838.153	627.366
357.694	16.604	837.595	627.074
358.708	16.407	836.960	625.814
359.723	16.632	836.285	626.088
360.738	16.624	835.330	625.287
361.752	16.641	835.085	625.113
362.767	16.661	834.456	624.658
363.781	16.713	834.129	624.553
364.796	16.756	833.532	624.206
365.810	16.790	832.908	623.809
366.825	16.805	832.792	623.724
367.840	16.585	833.066	623.062
368.854	16.759	831.888	622.766
369.869	16.844	831.584	622.794
370.883	16.867	831.032	622.411
371.898	16.849	830.820	622.131
372.913	16.955	830.391	622.145
373.927	16.998	829.576	621.637
374.942	16.820	829.445	620.832
375.956	16.938	828.906	620.805
376.971	16.947	828.521	620.494
377.986	17.031	827.820	620.220
379.000	17.027	827.816	620.150
380.015	17.074	826.813	619.515
381.029	17.197	825.970	619.277
382.044	17.210	825.548	618.952
383.059	17.131	825.289	618.417
384.073	17.139	824.604	617.877
385.088	17.026	824.220	617.122
386.102	17.090	823.358	616.654
387.117	17.047	822.931	616.125
388.132	17.132	822.283	615.894
389.146	17.243	821.526	615.675
390.161	17.179	821.620	615.458
391.175	17.242	821.145	615.277
392.190	17.195	820.213	614.356
393.205	17.140	820.056	613.982
394.219	17.271	819.637	614.090
395.234	17.136	819.407	613.376
396.248	17.043	818.897	612.601
397.263	17.233	818.436	612.889
398.278	17.212	817.833	612.308
399.292	17.201	817.461	611.937
400.307	17.196	817.015	611.528
401.321	17.168	816.517	611.001
402.336	17.154	815.891	610.430
403.350	17.163	815.597	610.188
404.365	17.262	815.188	610.181
405.380	17.372	814.512	610.016
406.394	17.462	814.191	610.046
407.409	17.283	813.948	609.168
408.423	17.270	813.394	608.653
409.438	17.498	813.312	609.352
410.453	17.472	812.468	608.574
411.467	17.682	811.894	608.842
412.482	17.588	811.807	608.385
413.496	17.585	811.385	608.004
414.511	17.591	811.414	607.995
415.526	17.673	810.584	607.611
416.540	17.735	809.859	607.236
417.555	17.517	809.820	606.376
418.569	17.567	809.289	606.103
419.584	17.556	808.785	605.630
420.599	17.570	808.382	605.328
421.613	113.962	1299.717	1488.551
422.628	98.470	1371.254	1488.633
