DTS Sentinel unit serial number:	SN413079Multiplexer serial number:	ORYXHardware model number:	OX4-SRSoftware version number:	ORYX F/W v4.00 Oryx Data Collector v3.7.2.0data status	okinstallation	princeton_trtdifferential loss correction	single-endedforward channel	channel 1reverse channel	N/Adate	2019/09/12time	11:00:11forward acquisition time	60.00reverse acquisition time	0.00gamma	496.2192k internal	0.2296k external	0.2296temperature offset calibration	1.0047default loss term (dB/km)	0.3790temperature slope calibration	1.0000multiplexer offset coefficient	1.0000multiplexer slope coefficient	1.0000fibre end	0.00T internal ref (°C)	38.42T ext. ref 1 (°C)	1.94T ext. ref 2 (°C)	36.26length (m)	temperature (°C)	Stokes	anti-Stokes-747.200	-200.000	0.049	-0.235
-746.185	-30.932	-0.278	0.160
-745.171	5.626	-0.189	-0.142
-744.156	-20.328	-0.199	0.125
-743.142	-105.357	0.271	-0.063
-742.127	19.968	-0.155	-0.128
-741.112	-35.580	0.116	0.064
-740.098	313.724	0.191	0.367
-739.083	-117.864	-0.190	0.035
-738.069	206.428	-0.137	0.218
-737.054	-200.000	0.052	-0.406
-736.039	-155.493	-0.424	0.028
-735.025	33.272	-0.206	-0.183
-734.010	800.000	0.027	-0.111
-732.996	-48.856	-0.392	-0.192
-731.981	-103.674	-0.551	0.132
-730.966	-46.620	-0.136	-0.068
-729.952	800.000	0.022	-0.077
-728.937	33.713	0.087	0.078
-727.923	-200.000	-0.007	0.082
-726.908	-129.235	-0.333	0.047
-725.894	-169.223	0.085	0.003
-724.879	330.229	0.183	-0.360
-723.864	-116.792	0.100	0.019
-722.850	109.035	0.255	-0.311
-721.835	-41.052	-0.008	0.004
-720.821	14.440	0.015	0.012
-719.806	245.188	-0.059	0.101
-718.791	-150.249	-0.257	0.020
-717.777	-46.449	0.193	-0.097
-716.762	-179.741	-0.066	0.001
-715.748	-27.850	0.329	-0.195
-714.733	-14.354	0.111	-0.073
-713.718	-200.000	0.016	-0.145
-712.704	-34.552	-0.290	0.162
-711.689	-11.443	-0.251	-0.169
-710.675	-200.000	0.004	0.098
-709.660	-13.603	-0.271	-0.179
-708.645	21.520	0.099	0.083
-707.631	98.469	-0.216	-0.254
-706.616	52.868	-0.064	0.062
-705.602	800.000	0.089	0.293
-704.587	-131.780	0.232	0.031
-703.572	-47.268	0.026	-0.013
-702.558	-22.207	0.170	-0.105
-701.543	121.629	-0.172	0.219
-700.529	-50.480	-0.131	-0.063
-699.514	-90.812	0.246	0.072
-698.499	800.000	-0.100	0.323
-697.485	800.000	-0.047	0.172
-696.470	269.528	0.057	0.101
-695.456	-79.037	-0.102	0.035
-694.441	800.000	-0.095	-0.292
-693.426	100.525	-0.226	-0.268
-692.412	-200.000	0.007	-0.379
-691.397	-12.631	-0.281	-0.187
-690.383	4.347	0.258	0.193
-689.368	129.105	-0.248	-0.322
-688.354	139.043	-0.156	-0.209
-687.339	-200.000	-0.001	-0.210
-686.324	82.156	-0.204	0.225
-685.310	-98.861	-0.188	0.049
-684.295	-163.488	-0.340	0.016
-683.281	57.844	0.139	0.139
-682.266	421.473	0.082	0.178
-681.251	208.865	0.231	-0.369
-680.237	333.668	-0.122	-0.240
-679.222	-74.911	-0.240	0.088
-678.208	800.000	0.057	-0.192
-677.193	-121.795	0.072	-0.012
-676.178	96.604	-0.236	-0.275
-675.164	-200.000	-0.008	0.081
-674.149	-200.000	-0.008	0.294
-673.135	486.928	-0.044	-0.101
-672.120	-200.000	0.014	-0.105
-671.105	-26.539	0.188	-0.112
-670.091	-167.836	-0.129	0.005
-669.076	-118.175	-0.196	0.036
-668.062	-92.425	-0.224	0.064
-667.047	30.871	0.328	0.286
-666.032	109.615	0.111	0.136
-665.018	-200.000	0.042	-0.339
-664.003	243.303	-0.055	-0.093
-662.989	-77.683	0.187	-0.066
-661.974	-66.613	-0.315	0.127
-660.959	42.317	0.083	0.077
-659.945	77.424	0.289	-0.313
-658.930	57.868	0.066	-0.066
-657.916	149.794	-0.022	0.031
-656.901	25.671	-0.398	0.337
-655.886	-36.048	0.182	-0.100
-654.872	120.719	-0.113	0.143
-653.857	-139.445	-0.200	-0.022
-652.843	-86.911	0.208	0.065
-651.828	800.000	0.037	0.119
-650.814	-91.024	-0.168	0.049
-649.799	429.890	0.064	-0.142
-648.784	757.552	-0.164	-0.451
-647.770	54.086	0.063	0.062
-646.755	-200.000	-0.035	0.339
-645.741	800.000	-0.159	-0.448
-644.726	-148.000	-0.154	0.013
-643.711	-162.625	-0.195	0.010
-642.697	129.774	0.122	-0.159
-641.682	-102.301	0.366	0.089
-640.668	209.553	-0.142	-0.226
-639.653	-7.098	0.257	0.177
-638.638	170.999	-0.213	-0.311
-637.624	-96.375	-0.091	0.024
-636.609	-90.258	-0.133	0.039
-635.595	-200.000	0.008	-0.161
-634.580	271.676	0.130	-0.233
-633.565	-127.416	-0.192	-0.028
-632.551	18.993	-0.425	0.347
-631.536	89.977	-0.219	-0.249
-630.522	33.721	-0.292	-0.258
-629.507	-138.329	0.249	0.028
-628.492	800.000	0.124	0.362
-627.478	133.393	-0.064	-0.084
-626.463	-200.000	-0.008	-0.106
-625.449	-20.601	-0.261	-0.163
-624.434	100.116	0.094	-0.111
-623.419	-99.030	-0.057	0.015
-622.405	-152.918	0.150	-0.011
-621.390	-144.775	-0.046	-0.004
-620.376	-71.428	0.299	0.114
-619.361	8.005	-0.252	-0.192
-618.346	-22.616	-0.101	-0.062
-617.332	240.393	-0.075	-0.127
-616.317	-88.504	0.338	-0.102
-615.303	32.525	-0.223	0.196
-614.288	-50.930	0.277	0.132
-613.273	-200.000	-0.071	0.456
-612.259	97.259	-0.125	-0.146
-611.244	-76.924	-0.195	-0.069
-610.230	481.910	-0.032	-0.074
-609.215	-200.000	-0.015	-0.105
-608.201	-200.000	-0.041	-0.245
-607.186	-61.258	0.384	-0.164
-606.171	18.112	-0.102	-0.082
-605.157	198.172	0.101	0.157
-604.142	-59.091	0.199	-0.087
-603.128	-67.849	0.191	-0.076
-602.113	800.000	-0.063	0.217
-601.098	153.647	-0.074	0.103
-600.084	-94.126	0.275	-0.077
-599.069	106.608	-0.054	0.065
-598.055	180.209	0.183	0.272
-597.040	-124.328	0.175	0.028
-596.025	-200.000	0.030	-0.249
-595.011	-123.072	0.382	0.062
-593.996	186.397	-0.086	-0.130
-592.982	-76.196	-0.107	-0.038
-591.967	380.003	0.092	0.191
-590.952	-114.570	0.133	0.026
-589.938	-200.000	0.001	-0.059
-588.923	-34.241	-0.209	0.117
-587.909	-51.343	0.402	-0.191
-586.894	266.823	-0.095	-0.169
-585.879	146.135	0.215	0.293
-584.865	800.000	-0.128	0.380
-583.850	288.233	-0.090	0.165
-582.836	176.321	0.138	0.204
-581.821	-14.506	-0.179	-0.117
-580.806	800.000	0.031	-0.125
-579.792	0.573	0.110	-0.080
-578.777	-77.775	0.191	0.067
-577.763	203.337	-0.053	-0.083
-576.748	-150.001	-0.296	0.023
-575.733	-0.923	0.245	-0.176
-574.719	176.532	0.236	0.348
-573.704	52.263	0.192	-0.186
-572.690	800.000	-0.079	-0.304
-571.675	800.000	-0.084	-0.294
-570.661	-3.231	-0.007	-0.005
-569.646	-90.048	-0.228	0.067
-568.631	56.974	0.229	0.227
-567.617	-20.797	-0.235	-0.146
-566.602	-49.308	-0.224	-0.109
-565.588	-157.490	-0.152	-0.009
-564.573	-200.000	-0.078	-0.399
-563.558	320.108	-0.176	0.339
-562.544	63.606	0.145	0.148
-561.529	101.407	0.228	0.270
-560.515	-200.000	-0.029	-0.329
-559.500	-68.363	0.105	0.041
-558.485	43.377	-0.068	0.063
-557.471	86.910	0.109	0.123
-556.456	-93.214	0.181	-0.051
-555.442	-72.309	-0.379	-0.142
-554.427	800.000	-0.038	0.123
-553.412	102.967	-0.126	-0.150
-552.398	84.748	-0.101	0.112
-551.383	257.220	-0.114	0.198
-550.369	-134.194	-0.454	0.057
-549.354	260.113	0.113	0.199
-548.339	-200.000	-0.041	0.271
-547.325	-104.261	-0.107	-0.025
-546.310	800.000	-0.084	0.353
-545.296	69.730	0.141	0.147
-544.281	-36.645	-0.152	-0.083
-543.266	-200.000	0.084	0.382
-542.252	20.244	0.081	-0.067
-541.237	130.559	0.126	-0.164
-540.223	-19.948	0.111	-0.070
-539.208	-137.927	-0.134	0.015
-538.193	-103.020	0.031	-0.007
-537.179	6.849	0.123	-0.093
-536.164	-51.998	-0.074	-0.035
-535.150	-124.548	0.061	0.010
-534.135	-80.507	0.118	0.040
-533.121	33.153	0.322	0.283
-532.106	800.000	0.055	-0.215
-531.091	275.590	-0.062	-0.112
-530.077	800.000	0.054	-0.214
-529.062	721.574	0.128	-0.345
-528.048	-100.010	0.145	0.037
-527.033	800.000	-0.077	0.251
-526.018	329.304	-0.004	-0.008
-525.004	-200.000	-0.016	0.242
-523.989	217.345	0.049	-0.079
-522.975	32.287	0.205	-0.179
-521.960	-126.313	0.414	0.063
-520.945	669.828	0.023	0.061
-519.931	-143.037	-0.171	0.017
-518.916	636.588	0.085	0.218
-517.902	-17.178	-0.099	-0.063
-516.887	236.040	0.049	0.083
-515.872	-200.000	-0.004	0.250
-514.858	800.000	0.036	0.152
-513.843	-51.529	-0.095	-0.045
-512.829	327.343	-0.157	0.305
-511.814	-29.421	0.214	0.124
-510.799	-73.274	-0.040	-0.015
-509.785	-72.789	-0.084	0.031
-508.770	37.977	-0.257	-0.231
-507.756	800.000	0.047	-0.154
-506.741	331.883	0.059	-0.115
-505.726	399.913	-0.185	-0.394
-504.712	-200.000	0.014	0.153
-503.697	373.122	0.050	-0.104
-502.683	149.080	-0.085	-0.117
-501.668	-61.116	0.218	0.093
-500.653	-103.526	-0.071	-0.017
-499.639	268.101	0.088	0.156
-498.624	-44.277	-0.062	0.031
-497.610	-32.395	-0.136	-0.077
-496.595	-122.504	0.236	-0.039
-495.581	120.241	-0.207	-0.260
-494.566	-200.000	-0.017	0.148
-493.551	-200.000	-0.017	-0.141
-492.537	166.902	0.148	-0.213
-491.522	-68.768	0.219	-0.086
-490.508	-200.000	0.031	-0.140
-489.493	800.000	-0.045	0.184
-488.478	361.584	-0.002	0.005
-487.464	254.342	-0.168	0.291
-486.449	54.718	-0.125	0.122
-485.435	61.781	-0.159	-0.160
-484.420	-16.829	0.281	-0.180
-483.405	-195.266	-0.369	0.003
-482.391	383.249	0.126	0.262
-481.376	31.391	-0.106	-0.093
-480.362	-105.278	-0.477	0.110
-479.347	-200.000	-0.003	0.250
-478.332	157.564	0.075	0.105
-477.318	-90.488	-0.336	0.098
-476.303	-3.434	-0.102	-0.071
-475.289	153.047	0.080	0.110
-474.274	-66.660	-0.325	-0.130
-473.259	-192.084	-0.079	-0.001
-472.245	46.377	-0.241	-0.226
-471.230	800.000	-0.031	-0.106
-470.216	117.836	0.104	-0.129
-469.201	-59.930	0.143	-0.062
-468.186	-123.716	-0.203	-0.032
-467.172	-200.000	-0.040	0.243
-466.157	-26.799	0.324	-0.192
-465.143	-143.366	-0.239	0.023
-464.128	-109.561	-0.267	-0.057
-463.113	-0.762	-0.113	0.081
-462.099	18.532	0.170	-0.137
-461.084	800.000	-0.079	0.288
-460.070	56.972	0.053	0.052
-459.055	67.552	-0.120	-0.124
-458.040	161.772	0.115	-0.162
-457.026	-164.040	0.292	-0.014
-456.011	-1.136	-0.275	0.196
-454.997	-73.617	-0.249	-0.092
-453.982	231.813	-0.150	0.249
-452.968	58.395	-0.172	0.170
-451.953	-28.420	0.269	-0.157
-450.938	-18.673	0.071	0.045
-449.924	-7.688	-0.177	-0.121
-448.909	175.796	0.043	-0.062
-447.895	74.347	0.081	0.086
-446.880	-126.275	0.273	-0.041
-445.865	225.816	0.154	-0.252
-444.851	-139.130	0.084	0.009
-443.836	136.253	-0.088	0.116
-442.822	149.750	-0.292	0.399
-441.807	-113.642	-0.211	0.042
-440.792	-23.738	0.264	0.160
-439.778	17.228	-0.244	-0.195
-438.763	202.304	0.017	-0.026
-437.749	-88.421	0.297	0.089
-436.734	508.992	0.047	0.109
-435.719	-25.879	-0.259	-0.154
-434.705	-30.284	0.192	-0.110
-433.690	98.052	0.194	0.225
-432.676	-71.565	-0.158	-0.060
-431.661	-40.197	0.227	0.119
-430.646	-141.265	-0.115	0.012
-429.632	-93.965	0.085	-0.024
-428.617	-10.591	0.173	0.115
-427.603	-125.833	0.166	-0.025
-426.588	-122.768	0.131	0.021
-425.573	445.328	-0.083	-0.183
-424.559	-35.892	0.223	-0.122
-423.544	-200.000	-0.037	0.427
-422.530	-28.963	-0.190	0.110
-421.515	-73.896	-0.047	-0.017
-420.500	-59.452	-0.128	-0.056
-419.486	441.271	-0.106	-0.233
-418.471	185.956	-0.218	0.328
-417.457	-104.359	-0.277	-0.065
-416.442	52.379	0.030	-0.029
-415.428	445.054	-0.068	0.151
-414.413	-200.000	0.037	0.204
-413.398	800.000	0.099	-0.380
-412.384	144.602	0.087	-0.117
-411.369	-200.000	-0.022	-0.231
-410.355	203.884	0.056	-0.087
-409.340	710.402	-0.042	0.112
-408.325	-166.044	0.336	-0.014
-407.311	89.950	-0.058	0.065
-406.296	537.183	0.113	-0.272
-405.282	742.751	-0.107	-0.291
-404.267	-200.000	-0.046	-0.279
-403.252	-27.896	-0.198	-0.116
-402.238	-58.437	0.129	0.057
-401.223	481.696	0.077	0.177
-400.209	-173.489	0.323	-0.010
-399.194	585.990	-0.090	0.222
-398.179	-65.176	0.473	-0.192
-397.165	139.294	0.107	-0.142
-396.150	-200.000	-0.039	0.327
-395.136	69.015	0.181	-0.187
-394.121	-135.955	0.203	-0.024
-393.106	800.000	0.064	0.228
-392.092	596.536	0.070	0.176
-391.077	213.191	0.075	0.120
-390.063	-134.839	0.130	0.016
-389.048	-144.389	0.312	0.029
-388.033	-200.000	-0.013	-0.190
-387.019	750.027	-0.066	0.180
-386.004	-200.000	0.036	0.217
-384.990	64.914	0.435	0.442
-383.975	115.185	0.179	0.221
-382.960	298.363	0.205	0.380
-381.946	-108.281	-0.266	0.058
-380.931	13.469	0.230	0.180
-379.917	91.699	-0.137	-0.156
-378.902	9.324	0.197	-0.150
-377.888	-200.000	0.034	-0.262
-376.873	-23.528	-0.290	0.176
-375.858	493.171	0.107	0.247
-374.844	391.413	0.009	0.019
-373.829	-158.668	-0.367	0.021
-372.815	-44.914	-0.121	-0.060
-371.800	-132.107	-0.008	0.001
-370.785	245.741	-0.149	0.253
-369.771	-52.098	-0.220	0.103
-368.756	800.000	-0.113	0.356
-367.742	73.088	0.398	-0.418
-366.727	40.871	-0.128	-0.116
-365.712	-164.026	0.245	-0.011
-364.698	-82.156	0.153	-0.050
-363.683	-200.000	0.007	-0.314
-362.669	285.583	0.039	0.070
-361.654	-67.066	0.531	-0.211
-360.639	-200.000	-0.043	-0.385
-359.625	241.769	-0.078	-0.132
-358.610	-64.518	-0.191	0.078
-357.596	-73.771	0.066	-0.024
-356.581	800.000	0.058	-0.194
-355.566	800.000	-0.030	0.123
-354.552	-150.924	-0.399	0.030
-353.537	173.263	-0.213	0.309
-352.523	-159.635	0.220	-0.012
-351.508	800.000	-0.100	-0.283
-350.493	-158.903	-0.139	0.008
-349.479	68.820	0.186	-0.192
-348.464	513.594	0.100	0.235
-347.450	-69.211	0.155	-0.060
-346.435	-153.295	0.185	-0.013
-345.420	-165.064	-0.252	0.011
-344.406	143.333	0.101	-0.135
-343.391	455.165	0.170	-0.380
-342.377	-131.587	-0.079	-0.010
-341.362	577.610	-0.082	0.202
-340.348	570.679	0.066	-0.163
-339.333	-200.000	0.007	0.092
-338.318	51.200	-0.129	-0.123
-337.304	800.000	0.123	-0.439
-336.289	-200.000	-0.024	-0.280
-335.275	-129.042	-0.188	-0.026
-334.260	800.000	-0.035	-0.106
-333.245	-88.750	0.152	-0.045
-332.231	-81.130	-0.020	0.007
-331.216	87.595	-0.385	-0.429
-330.202	-116.778	-0.190	-0.035
-329.187	-64.551	-0.215	-0.088
-328.172	-65.732	0.192	-0.077
-327.158	-37.519	0.137	-0.073
-326.143	-97.223	-0.110	-0.029
-325.129	-195.761	0.126	-0.001
-324.114	-200.000	0.005	-0.032
-323.099	69.910	-0.208	0.216
-322.085	800.000	0.023	0.088
-321.070	-81.758	-0.036	0.012
-320.056	-65.506	-0.270	0.109
-319.041	106.081	-0.062	-0.073
-318.026	66.373	-0.244	0.249
-317.012	-75.517	-0.199	0.071
-315.997	-124.948	0.350	0.054
-314.983	-200.000	-0.021	-0.192
-313.968	85.007	-0.049	0.054
-312.953	800.000	-0.042	0.127
-311.939	-200.000	0.002	-0.350
-310.924	-200.000	-0.035	-0.277
-309.910	-69.548	0.367	-0.141
-308.895	114.467	-0.039	-0.048
-307.880	208.962	0.072	-0.113
-306.866	-29.561	-0.050	-0.029
-305.851	247.206	-0.134	-0.227
-304.837	-125.618	0.034	0.005
-303.822	-146.740	-0.389	-0.034
-302.807	233.297	0.235	0.388
-301.793	-41.610	0.213	0.110
-300.778	800.000	-0.046	-0.199
-299.764	-200.000	-0.036	0.302
-298.749	249.630	-0.038	-0.065
-297.735	-116.760	-0.161	0.030
-296.720	-200.000	0.004	-0.045
-295.705	-122.384	0.185	-0.030
-294.691	-101.665	0.303	0.074
-293.676	800.000	0.054	0.220
-292.662	-200.000	0.024	0.325
-291.647	-117.187	0.173	0.032
-290.632	-106.417	-0.112	0.025
-289.618	597.122	0.077	0.192
-288.603	-69.338	-0.303	0.117
-287.589	348.042	-0.163	-0.323
-286.574	800.000	-0.076	-0.285
-285.559	314.517	-0.090	-0.170
-284.545	422.666	0.138	-0.298
-283.530	-78.162	0.486	0.168
-282.516	800.000	0.054	-0.181
-281.501	18.013	0.266	-0.213
-280.486	133.602	-0.080	-0.103
-279.472	216.891	-0.158	-0.252
-278.457	-59.917	0.051	-0.022
-277.443	-200.000	-0.004	0.081
-276.428	134.789	0.126	-0.164
-275.413	354.829	-0.019	-0.037
-274.399	-178.191	0.265	-0.006
-273.384	-42.509	-0.165	0.085
-272.370	-200.000	-0.002	0.078
-271.355	-41.760	0.252	0.130
-270.340	285.274	0.054	-0.098
-269.326	-200.000	-0.045	-0.219
-268.311	-200.000	-0.015	0.157
-267.297	800.000	-0.026	0.071
-266.282	-2.777	0.069	0.048
-265.267	360.864	0.059	-0.118
-264.253	-80.463	0.238	-0.080
-263.238	353.822	0.107	0.213
-262.224	371.769	0.104	-0.211
-261.209	14.416	-0.281	0.220
-260.195	-51.832	0.136	0.064
-259.180	210.066	-0.101	-0.159
-258.165	123.055	-0.082	-0.103
-257.151	-49.038	-0.086	-0.041
-256.136	-200.000	-0.044	0.446
-255.122	-15.715	-0.292	-0.187
-254.107	800.000	-0.046	0.171
-253.092	-200.000	0.007	0.226
-252.078	-51.642	-0.203	-0.095
-251.063	28.827	-0.136	0.116
-250.049	-67.154	-0.259	-0.102
-249.034	800.000	0.047	-0.137
-248.019	227.900	-0.044	-0.072
-247.005	64.553	0.080	-0.081
-245.990	-118.452	0.333	-0.059
-244.976	9.357	-0.079	0.060
-243.961	-115.151	-0.010	-0.002
-242.946	-129.347	-0.095	0.013
-241.932	-99.376	-0.268	-0.068
-240.917	-200.000	-0.003	0.174
-239.903	-129.403	-0.198	0.028
-238.888	-38.118	0.217	0.115
-237.873	-200.000	-0.021	0.157
-236.859	14.206	0.184	0.143
-235.844	273.671	0.010	-0.018
-234.830	-65.528	0.212	-0.085
-233.815	535.444	0.093	0.220
-232.800	50.125	0.170	0.161
-231.786	-7.727	-0.208	0.141
-230.771	198.055	0.005	0.008
-229.757	-200.000	0.023	-0.275
-228.742	62.909	0.230	-0.231
-227.727	6.295	-0.379	0.281
-226.713	177.155	0.040	0.058
-225.698	142.801	-0.128	-0.170
-224.684	752.860	-0.181	-0.491
-223.669	-200.000	0.042	0.368
-222.655	315.770	-0.078	0.148
-221.640	45.682	-0.070	-0.064
-220.625	-48.929	0.381	-0.183
-219.611	-200.000	0.024	0.216
-218.596	-59.630	-0.197	-0.084
-217.582	-70.753	-0.140	-0.053
-216.567	-6.530	0.200	0.136
-215.552	228.784	-0.094	-0.153
-214.538	-200.000	0.017	0.163
-213.523	-172.168	0.230	0.007
-212.509	-110.391	0.363	0.075
-211.494	-200.000	0.035	0.296
-210.479	-200.000	-0.035	-0.298
-209.465	-200.000	0.016	-0.166
-208.450	364.551	-0.158	0.319
-207.436	130.584	-0.356	-0.457
-206.421	-47.245	-0.143	-0.070
-205.406	-200.000	-0.068	0.374
-204.392	537.380	-0.053	-0.125
-203.377	-87.099	-0.226	0.069
-202.363	-200.000	0.023	0.121
-201.348	-36.642	0.210	-0.113
-200.333	-20.103	-0.281	-0.174
-199.319	-32.861	0.069	-0.038
-198.304	267.415	-0.128	-0.224
-197.290	-200.000	0.046	0.316
-196.275	-143.665	-0.177	-0.017
-195.260	-116.635	0.260	0.048
-194.246	-200.000	0.024	0.218
-193.231	-200.000	0.001	-0.019
-192.217	16.992	-0.067	0.053
-191.202	-103.892	-0.144	0.034
-190.187	94.753	-0.207	0.236
-189.173	94.043	-0.174	0.198
-188.158	800.000	0.039	-0.120
-187.144	800.000	-0.128	0.449
-186.129	800.000	0.084	0.247
-185.114	-42.919	0.246	0.125
-184.100	-50.450	-0.182	0.086
-183.085	-88.839	-0.249	0.074
-182.071	800.000	0.042	0.150
-181.056	-200.000	0.025	0.197
-180.042	-122.647	-0.103	-0.017
-179.027	-1.663	-0.401	-0.282
-178.012	800.000	-0.041	-0.127
-176.998	-174.777	0.174	-0.005
-175.983	662.759	-0.082	0.211
-174.969	-32.614	0.328	0.182
-173.954	-40.985	-0.221	0.114
-172.939	-49.724	0.066	0.031
-171.925	-104.326	-0.123	0.028
-170.910	-146.217	0.217	-0.019
-169.896	-66.197	-0.074	-0.030
-168.881	387.937	-0.114	0.236
-167.866	704.280	0.068	0.179
-166.852	120.481	0.126	0.157
-165.837	274.489	-0.058	-0.103
-164.823	125.523	0.010	0.012
-163.808	-126.451	0.125	-0.019
-162.793	-200.000	0.019	0.138
-161.779	210.025	0.114	-0.179
-160.764	82.545	0.233	-0.252
-159.750	-200.000	-0.048	0.258
-158.735	-107.986	0.055	0.012
-157.720	-200.000	0.058	-0.274
-156.706	29.362	0.326	-0.276
-155.691	-174.581	-0.086	-0.002
-154.677	-6.782	-0.079	0.054
-153.662	800.000	0.086	0.292
-152.647	544.381	-0.090	-0.214
-151.633	800.000	0.033	-0.142
-150.618	-95.552	0.432	-0.116
-149.604	395.442	-0.015	-0.031
-148.589	800.000	-0.076	-0.306
-147.574	-84.347	0.174	-0.055
-146.560	94.062	-0.188	-0.213
-145.545	-200.000	0.008	-0.178
-144.531	384.595	-0.255	-0.525
-143.516	-90.642	0.315	0.091
-142.502	112.096	0.257	0.310
-141.487	223.850	-0.197	0.317
-140.472	183.156	-0.180	0.265
-139.458	-75.624	0.165	0.058
-138.443	700.050	-0.151	-0.398
-137.429	102.716	-0.233	0.272
-136.414	-27.407	0.497	0.288
-135.399	-66.158	-0.094	0.037
-134.385	-75.352	0.236	-0.084
-133.370	270.312	0.062	-0.110
-132.356	800.000	-0.101	-0.384
-131.341	-60.372	0.090	-0.038
-130.326	38.837	0.122	0.109
-129.312	-200.000	0.018	0.103
-128.297	-81.141	0.210	-0.069
-127.283	138.198	0.114	-0.150
-126.268	-141.331	0.121	0.012
-125.253	415.982	-0.162	0.344
-124.239	-75.708	-0.125	-0.044
-123.224	-73.527	0.167	0.061
-122.210	-156.635	0.337	-0.021
-121.195	153.289	-0.134	0.184
-120.180	800.000	0.075	0.217
-119.166	-157.489	0.081	0.005
-118.151	-200.000	0.023	0.258
-117.137	-200.000	-0.059	-0.325
-116.122	-130.454	0.355	0.048
-115.107	-21.806	-0.144	-0.087
-114.093	122.117	0.207	0.258
-113.078	388.612	-0.118	0.243
-112.064	-200.000	0.005	-0.031
-111.049	-83.380	-0.211	0.067
-110.034	467.531	0.109	0.243
-109.020	91.687	-0.124	0.138
-108.005	-51.609	0.108	0.050
-106.991	-0.661	0.104	-0.074
-105.976	-200.000	0.025	0.277
-104.962	142.907	-0.190	0.252
-103.947	254.348	-0.102	-0.174
-102.932	-61.111	0.378	0.159
-101.918	-152.143	0.115	-0.008
-100.903	89.677	-0.117	0.130
-99.889	-88.255	0.171	0.051
-98.874	800.000	-0.139	-0.400
-97.859	285.354	-0.063	-0.114
-96.845	-200.000	0.033	-0.162
-95.830	671.926	-0.093	0.241
-94.816	496.324	-0.069	0.157
-93.801	-137.753	-0.257	-0.029
-92.786	82.196	0.364	0.393
-91.772	280.389	0.067	-0.120
-90.757	-82.776	-0.051	-0.017
-89.743	106.875	-0.244	0.288
-88.728	-123.265	-0.182	0.029
-87.713	-200.000	-0.035	0.182
-86.699	-94.707	-0.462	0.125
-85.684	-42.277	0.138	0.070
-84.670	-32.200	-0.280	-0.156
-83.655	-144.275	-0.128	0.012
-82.640	-200.000	-0.002	0.390
-81.626	-200.000	-0.047	0.306
-80.611	-113.370	-0.287	0.056
-79.597	496.156	-0.109	0.250
-78.582	800.000	-0.166	-0.469
-77.567	-200.000	0.058	-0.287
-76.553	800.000	0.121	0.374
-75.538	45.973	0.069	-0.063
-74.524	732.788	0.055	0.146
-73.509	190.521	-0.089	0.132
-72.494	83.131	-0.049	-0.053
-71.480	-192.927	0.184	-0.002
-70.465	-200.000	0.020	0.218
-69.451	-200.000	0.022	-0.356
-68.436	-38.847	0.139	-0.073
-67.422	-5.233	0.114	0.078
-66.407	-38.387	-0.066	-0.035
-65.392	-200.000	0.010	-0.266
-64.378	-200.000	0.003	-0.274
-63.363	-200.000	-0.026	0.137
-62.349	-200.000	0.044	0.302
-61.334	202.640	-0.593	-0.910
-60.319	209.252	0.196	0.306
-59.305	-200.000	-0.013	-0.912
-58.290	73.546	0.671	0.699
-57.276	679.728	0.563	1.458
-56.261	-200.000	81.694	490.652
-55.246	463.781	1379.289	3065.633
-54.232	143.640	2606.048	3453.080
-53.217	110.623	2243.793	2683.523
-52.203	49.130	1691.204	1580.359
-51.188	41.745	1422.229	1281.830
-50.173	38.451	1378.169	1221.551
-49.159	56.457	1417.170	1370.232
-48.144	61.287	1435.899	1418.805
-47.130	42.272	1396.519	1261.772
-46.115	38.506	1379.719	1223.072
-45.100	38.336	1374.682	1217.502
-44.086	38.269	1372.345	1214.963
-43.071	38.296	1370.001	1213.012
-42.057	38.295	1368.136	1211.305
-41.042	38.311	1365.988	1209.454
-40.027	38.291	1364.328	1207.809
-39.013	38.324	1363.413	1207.155
-37.998	38.374	1361.074	1205.350
-36.984	38.285	1359.723	1203.555
-35.969	38.449	1357.181	1202.261
-34.954	38.471	1355.660	1201.002
-33.940	38.618	1353.726	1200.144
-32.925	38.559	1352.740	1198.862
-31.911	38.541	1351.396	1197.510
-30.896	38.526	1350.178	1196.295
-29.881	38.469	1348.711	1194.600
-28.867	38.554	1346.781	1193.361
-27.852	38.606	1345.128	1192.167
-26.838	38.545	1344.239	1190.956
-25.823	38.574	1342.741	1189.757
-24.809	38.563	1341.243	1188.321
-23.794	38.580	1339.780	1187.076
-22.779	38.485	1338.622	1185.427
-21.765	38.546	1337.197	1184.487
-20.750	38.470	1336.014	1182.937
-19.736	38.346	1334.759	1181.029
-18.721	38.230	1333.368	1179.053
-17.706	38.416	1331.611	1178.569
-16.692	38.362	1330.873	1177.544
-15.677	38.440	1329.648	1176.888
-14.663	38.334	1329.127	1175.741
-13.648	38.398	1327.545	1174.678
-12.633	38.242	1327.320	1173.497
-11.619	38.201	1326.128	1172.147
-10.604	38.284	1325.139	1171.728
-9.590	38.424	1323.601	1171.159
-8.575	38.347	1322.588	1169.753
-7.560	38.231	1322.140	1168.620
-6.546	38.381	1320.846	1168.325
-5.531	38.402	1319.733	1167.421
-4.517	38.337	1319.344	1166.637
-3.502	38.300	1318.589	1165.708
-2.487	38.421	1317.186	1165.140
-1.473	38.400	1313.782	1161.955
-0.458	37.587	1298.962	1144.027
0.556	34.315	1279.854	1104.702
1.571	30.489	1283.962	1085.842
2.586	29.329	1299.426	1091.959
3.600	27.884	1287.195	1073.103
4.615	19.721	1207.313	961.223
5.629	7.580	1122.720	830.644
6.644	2.400	1098.841	786.337
7.659	1.885	1096.101	781.663
8.673	1.766	1094.507	779.848
9.688	1.701	1092.802	778.236
10.702	1.961	1091.828	778.796
11.717	8.705	1102.331	820.894
12.731	19.771	1118.362	890.030
13.746	24.851	1124.595	921.132
14.761	25.315	1124.821	923.625
15.775	25.227	1124.597	922.906
16.790	24.993	1123.467	920.691
17.804	24.967	1123.231	920.285
18.819	25.060	1122.498	920.077
19.834	25.045	1122.533	919.949
20.848	25.224	1121.716	920.117
21.863	25.223	1121.250	919.650
22.877	25.156	1120.332	918.470
23.892	25.102	1119.705	917.598
24.907	25.240	1118.881	917.547
25.921	25.169	1117.593	916.047
26.936	25.159	1116.194	914.771
27.950	25.013	1114.868	912.860
28.965	24.934	1112.936	910.792
29.980	25.008	1111.713	910.088
30.994	25.313	1110.660	910.693
32.009	25.272	1109.466	909.428
33.023	25.030	1108.036	906.948
34.038	24.975	1107.845	906.431
35.053	25.142	1106.852	906.385
36.067	25.200	1106.224	906.086
37.082	25.337	1105.246	905.894
38.096	25.299	1104.545	905.049
39.111	25.523	1103.815	905.496
40.126	25.302	1102.396	903.142
41.140	24.944	1100.409	899.636
42.155	24.761	1099.121	897.588
43.169	24.729	1098.360	896.725
44.184	24.856	1097.332	896.441
45.199	24.743	1096.593	895.192
46.213	24.734	1095.641	894.291
47.228	24.887	1094.936	894.400
48.242	24.999	1093.799	893.952
49.257	25.050	1093.368	893.777
50.271	25.185	1092.196	893.410
51.286	25.163	1091.792	892.893
52.301	25.219	1090.559	892.085
53.315	25.165	1089.548	890.910
54.330	25.031	1088.803	889.553
55.344	25.113	1088.091	889.304
56.359	25.116	1086.972	888.326
57.374	24.832	1086.276	886.270
58.388	24.875	1085.319	885.621
59.403	24.870	1084.566	884.908
60.417	24.697	1083.549	883.143
61.432	24.806	1082.780	882.974
62.447	24.839	1082.306	882.674
63.461	24.956	1081.172	882.247
64.476	24.897	1080.353	881.213
65.490	24.872	1078.930	879.847
66.505	24.875	1078.210	879.201
67.520	24.778	1077.854	878.354
68.534	24.658	1077.376	877.298
69.549	24.491	1075.206	874.637
70.563	24.422	1074.895	873.967
71.578	24.328	1073.941	872.652
72.593	24.188	1073.306	871.375
73.607	24.414	1072.320	871.605
74.622	24.662	1072.165	872.611
75.636	24.779	1071.440	872.517
76.651	24.569	1070.702	870.811
77.666	24.552	1069.264	869.483
78.680	24.652	1068.943	869.630
79.695	24.741	1068.468	869.603
80.709	24.698	1067.464	868.496
81.724	24.708	1067.070	868.148
82.739	24.851	1066.174	868.037
83.753	25.089	1065.791	868.802
84.768	25.374	1064.862	869.347
85.782	25.680	1063.727	869.825
86.797	25.464	1062.776	867.928
87.812	25.326	1061.957	866.513
88.826	25.322	1061.330	865.909
89.841	25.411	1060.334	865.447
90.855	25.368	1059.394	864.396
91.870	25.397	1058.240	863.518
92.884	25.255	1057.073	861.808
93.899	25.297	1055.882	860.961
94.914	25.297	1055.793	860.813
95.928	25.286	1054.130	859.327
96.943	25.005	1052.870	856.881
97.957	24.791	1051.656	854.797
98.972	24.695	1050.494	853.317
99.987	24.906	1050.153	853.973
101.001	25.180	1049.004	854.268
102.016	25.018	1048.501	853.011
103.030	24.886	1047.606	851.580
104.045	24.780	1046.470	850.073
105.060	24.755	1045.681	849.241
106.074	24.881	1044.922	849.145
107.089	25.261	1044.278	850.352
108.103	25.080	1043.131	848.485
109.118	24.801	1042.314	846.426
110.133	24.850	1041.298	845.757
111.147	24.721	1039.315	843.461
112.162	24.543	1038.681	842.036
113.176	24.884	1038.053	843.056
114.191	24.782	1037.103	841.731
115.206	24.419	1036.129	839.161
116.220	24.354	1035.403	838.192
117.235	24.582	1034.427	838.395
118.249	24.444	1033.906	837.252
119.264	24.458	1032.915	836.441
120.279	24.474	1032.137	835.812
121.293	24.635	1031.268	835.790
122.308	24.676	1029.722	834.651
123.322	24.462	1029.226	833.178
124.337	24.391	1027.798	831.619
125.352	23.897	1026.264	828.001
126.366	23.717	1025.271	826.291
127.381	24.551	1025.599	830.360
128.395	24.871	1025.519	831.712
129.410	25.115	1023.718	831.307
130.424	25.112	1023.104	830.722
131.439	25.137	1022.541	830.306
132.454	24.993	1021.661	828.853
133.468	24.938	1020.681	827.732
134.483	25.132	1019.516	827.608
135.497	25.384	1018.787	828.107
136.512	25.409	1018.150	827.629
137.527	25.359	1017.206	826.558
138.541	25.290	1016.773	825.815
139.556	25.285	1015.869	824.984
140.570	25.435	1015.121	824.995
141.585	25.576	1013.909	824.585
142.600	25.403	1012.870	822.871
143.614	25.498	1012.742	823.131
144.629	25.609	1011.617	822.653
145.643	25.472	1010.154	820.764
146.658	25.453	1008.764	819.472
147.673	25.206	1008.022	817.672
148.687	25.217	1006.753	816.621
149.702	25.203	1005.743	815.665
150.716	25.155	1004.542	814.402
151.731	25.257	1004.268	814.570
152.746	25.401	1003.666	814.662
153.760	25.607	1002.785	814.809
154.775	25.540	1002.578	814.266
155.789	25.516	1001.466	813.185
156.804	25.428	1000.522	811.945
157.819	25.528	999.855	811.786
158.833	25.670	999.060	811.707
159.848	25.549	998.377	810.538
160.862	25.497	996.981	809.098
161.877	25.474	995.866	808.015
162.892	25.463	994.993	807.188
163.906	25.402	993.741	805.827
164.921	25.431	992.870	805.178
165.935	25.488	991.698	804.413
166.950	25.480	990.734	803.526
167.964	25.469	989.881	802.711
168.979	25.294	988.622	800.840
169.994	25.297	987.758	800.082
171.008	25.633	987.313	801.147
172.023	25.593	986.614	800.330
173.037	25.286	985.229	797.772
174.052	25.297	984.283	796.985
175.067	25.137	984.029	795.999
176.081	25.265	983.165	795.798
177.096	25.221	982.728	795.177
178.110	24.975	981.539	793.057
179.125	24.762	980.834	791.477
180.140	24.841	980.835	791.752
181.154	25.024	980.232	792.009
182.169	25.332	980.014	793.123
183.183	25.464	979.615	793.312
184.198	25.359	978.459	791.841
185.213	25.418	977.771	791.474
186.227	25.483	977.320	791.325
187.242	25.433	976.651	790.495
188.256	25.551	975.947	790.374
189.271	25.569	975.006	789.622
190.286	25.271	973.998	787.428
191.300	24.691	972.334	783.470
192.315	23.838	970.856	778.477
193.329	23.731	970.177	777.396
194.344	24.780	970.696	782.333
195.359	25.326	970.472	784.469
196.373	25.506	970.047	784.841
197.388	25.221	969.772	783.308
198.402	25.337	969.119	783.215
199.417	25.402	968.336	782.799
200.432	25.151	967.400	780.879
201.446	24.990	966.712	779.553
202.461	25.080	965.838	779.168
203.475	24.239	964.392	774.284
204.490	23.443	962.847	769.522
205.504	24.124	963.492	772.924
206.519	24.920	963.051	775.953
207.534	24.892	962.816	775.572
208.548	25.361	962.596	777.359
209.563	25.229	961.284	775.660
210.577	25.138	960.701	774.731
211.592	25.532	960.224	775.976
212.607	25.441	959.478	774.910
213.621	25.507	959.344	775.018
214.636	25.521	958.488	774.321
215.650	25.397	957.643	773.033
216.665	25.560	957.062	773.201
217.680	25.590	956.194	772.560
218.694	25.070	955.208	769.460
219.709	24.935	954.181	767.987
220.723	25.309	953.849	769.257
221.738	25.308	953.112	768.586
222.753	25.173	952.526	767.469
223.767	25.411	952.645	768.518
224.782	25.684	952.100	769.178
225.796	25.575	951.316	768.009
226.811	24.935	949.968	764.124
227.826	24.233	948.443	759.838
228.840	24.494	947.882	760.430
229.855	24.654	947.378	760.642
230.869	24.295	945.797	757.777
231.884	24.728	945.815	759.565
232.899	25.317	946.133	762.254
233.913	25.284	945.123	761.236
234.928	25.194	944.840	760.556
235.942	25.237	943.918	759.931
236.957	24.989	943.078	758.139
237.972	24.859	943.038	757.487
238.986	25.079	942.251	757.720
240.001	25.037	941.609	756.957
241.015	25.120	941.056	756.796
242.030	25.428	940.296	757.419
243.045	25.340	940.254	756.946
244.059	25.510	939.841	757.262
245.074	25.301	938.571	755.295
246.088	25.014	937.393	753.073
247.103	25.273	937.458	754.147
248.117	25.805	937.623	756.448
249.132	26.036	936.903	756.769
250.147	26.158	936.703	757.053
251.161	26.295	936.220	757.167
252.176	26.230	935.062	755.893
253.190	26.333	934.896	756.122
254.205	26.484	934.246	756.163
255.220	26.345	933.708	755.078
256.234	26.322	932.759	754.147
257.249	26.087	932.358	752.777
258.263	26.325	931.155	752.730
259.278	26.221	931.011	752.114
260.293	26.090	930.558	751.137
261.307	26.225	929.462	750.749
262.322	26.041	928.420	749.076
263.336	25.341	926.444	744.514
264.351	24.209	924.815	738.452
265.366	24.427	924.411	738.965
266.380	25.473	924.922	743.636
267.395	26.043	924.581	745.657
268.409	25.707	924.406	744.061
269.424	25.908	923.940	744.451
270.439	26.023	923.046	744.136
271.453	26.075	922.501	743.847
272.468	26.336	921.936	744.402
273.482	26.454	921.641	744.583
274.497	25.956	920.459	741.512
275.512	25.419	919.681	738.614
276.526	25.824	919.600	740.149
277.541	26.147	918.924	740.866
278.555	25.895	918.394	739.336
279.570	25.680	917.700	737.831
280.585	25.874	917.234	738.186
281.599	26.062	915.617	737.588
282.614	25.339	914.596	733.747
283.628	25.266	914.512	733.317
284.643	25.581	913.999	734.126
285.657	25.256	912.623	731.632
286.672	24.980	912.001	729.944
287.687	25.683	912.005	732.745
288.701	25.689	911.281	732.126
289.716	25.360	910.268	729.907
290.730	25.335	909.752	729.327
291.745	24.959	908.927	727.078
292.760	25.278	908.458	727.931
293.774	26.270	909.113	732.416
294.789	26.638	908.767	733.561
295.803	26.503	908.541	732.770
296.818	26.745	907.107	732.524
297.833	26.251	905.990	729.563
298.847	26.081	905.580	728.484
299.862	26.370	905.465	729.492
300.876	26.523	905.382	729.979
301.891	26.462	904.493	728.950
302.906	26.194	903.050	726.645
303.920	26.148	902.837	726.224
304.935	26.712	902.780	728.381
305.949	26.408	902.285	726.698
306.964	26.223	901.457	725.223
307.979	26.363	900.661	725.079
308.993	26.726	900.691	726.495
310.008	26.747	900.055	726.003
311.022	26.369	899.251	723.777
312.037	26.298	898.221	722.600
313.052	26.025	897.565	720.917
314.066	25.125	896.067	716.056
315.081	24.849	894.949	713.998
316.095	25.696	895.404	717.679
317.110	26.269	895.136	719.683
318.125	25.318	893.776	714.744
319.139	24.311	892.128	709.357
320.154	24.252	891.659	708.688
321.168	25.110	892.367	712.600
322.183	25.993	892.410	716.080
323.197	26.121	891.793	716.029
324.212	26.373	891.548	716.765
325.227	26.394	890.936	716.296
326.241	26.130	890.406	714.761
327.256	26.075	889.950	714.114
328.270	25.975	889.152	713.014
329.285	25.832	888.297	711.700
330.300	25.651	887.187	710.032
331.314	25.988	886.870	711.045
332.329	26.332	887.062	712.495
333.343	26.512	886.615	712.782
334.358	26.522	885.816	712.115
335.373	26.500	885.838	711.983
336.387	26.695	885.938	712.768
337.402	26.852	885.683	713.117
338.416	26.899	884.858	712.573
339.431	26.918	884.816	712.552
340.446	27.090	884.612	713.000
341.460	26.912	884.018	711.759
342.475	26.655	883.587	710.343
343.489	26.927	882.667	710.603
344.504	27.205	882.379	711.398
345.519	27.300	882.104	711.484
346.533	27.249	881.784	710.963
347.548	27.317	880.950	710.493
348.562	27.182	880.748	709.741
349.577	27.160	879.985	708.977
350.592	27.159	879.282	708.347
351.606	27.134	878.240	707.345
352.621	26.980	877.466	706.060
353.635	26.860	876.909	705.083
354.650	26.171	875.538	701.245
355.665	25.384	873.805	696.742
356.679	25.675	873.796	697.803
357.694	26.255	873.019	699.367
358.708	26.219	872.589	698.822
359.723	26.553	872.225	699.759
360.738	27.006	871.940	701.219
361.752	27.110	871.420	701.139
362.767	27.279	871.229	701.574
363.781	27.602	870.858	702.457
364.796	27.530	870.858	702.120
365.810	27.656	870.217	702.025
366.825	27.620	869.650	701.368
367.840	27.304	868.931	699.512
368.854	26.865	868.113	697.104
369.869	26.870	867.445	696.523
370.883	26.924	866.937	696.263
371.898	26.874	866.634	695.766
372.913	27.009	866.290	695.947
373.927	27.051	865.744	695.606
374.942	27.125	865.486	695.620
375.956	27.155	865.073	695.343
376.971	27.382	864.667	695.823
377.986	27.638	864.124	696.303
379.000	27.541	863.673	695.506
380.015	27.457	862.896	694.498
381.029	27.447	862.360	693.969
382.044	27.546	862.239	694.185
383.059	27.469	861.568	693.293
384.073	27.639	860.925	693.358
385.088	27.498	860.163	692.150
386.102	27.238	859.468	690.541
387.117	27.232	858.310	689.526
388.132	27.009	856.970	687.546
389.146	26.494	856.225	684.936
390.161	26.911	856.110	686.364
391.175	27.344	856.081	687.917
392.190	26.958	855.239	685.721
393.205	25.557	853.081	678.646
394.219	24.195	851.079	671.860
395.234	23.947	850.928	670.748
396.248	25.530	852.308	677.749
397.263	27.070	853.297	684.283
398.278	26.973	852.969	683.595
399.292	26.741	852.159	682.010
400.307	26.887	851.576	682.034
401.321	26.951	851.212	681.921
402.336	27.318	851.230	683.253
403.350	27.754	850.893	684.561
404.365	28.021	850.633	685.289
405.380	28.299	850.320	686.020
406.394	28.319	850.013	685.785
407.409	28.259	849.626	685.190
408.423	28.163	849.430	684.609
409.438	28.145	848.902	684.058
410.453	28.449	848.113	684.494
411.467	28.176	847.697	683.083
412.482	28.345	847.002	683.092
413.496	28.370	846.762	682.930
414.511	28.403	846.285	682.608
415.526	28.167	846.167	681.572
416.540	28.118	845.269	680.608
417.555	28.016	844.529	679.573
418.569	27.922	844.310	678.988
419.584	27.947	843.612	678.459
420.599	27.887	842.760	677.488
421.613	99.022	1275.589	1405.076
422.628	86.066	1338.664	1405.200
