DTS Sentinel unit serial number:	SN413079Multiplexer serial number:	ORYXHardware model number:	OX4-SRSoftware version number:	ORYX F/W v4.00 Oryx Data Collector v3.7.2.0data status	okinstallation	princeton_trtdifferential loss correction	single-endedforward channel	channel 1reverse channel	N/Adate	2019/09/16time	17:18:35forward acquisition time	60.00reverse acquisition time	0.00gamma	496.2192k internal	0.2297k external	0.2297temperature offset calibration	0.9963default loss term (dB/km)	0.3790temperature slope calibration	1.0000multiplexer offset coefficient	1.0000multiplexer slope coefficient	1.0000fibre end	0.00T internal ref (°C)	38.81T ext. ref 1 (°C)	15.40T ext. ref 2 (°C)	32.86length (m)	temperature (°C)	Stokes	anti-Stokes-747.200	9.169	0.106	-0.082
-746.185	-163.899	-0.266	-0.013
-745.171	-128.226	-0.184	-0.027
-744.156	236.377	0.085	0.144
-743.142	107.667	-0.093	-0.113
-742.127	-34.315	-0.217	-0.122
-741.112	-104.734	0.155	0.036
-740.098	-38.291	-0.422	0.229
-739.083	20.761	0.075	-0.062
-738.069	800.000	-0.097	0.387
-737.054	-73.621	-0.393	0.146
-736.039	-200.000	0.006	-0.050
-735.025	51.510	0.092	-0.090
-734.010	-112.084	0.421	-0.086
-732.996	-200.000	0.001	-0.236
-731.981	-50.067	-0.167	0.081
-730.966	336.713	0.081	0.161
-729.952	797.165	-0.054	-0.153
-728.937	137.501	-0.053	-0.071
-727.923	800.000	0.036	-0.138
-726.908	58.606	-0.307	-0.308
-725.894	-54.012	-0.391	-0.182
-724.879	12.722	-0.134	0.105
-723.864	-81.411	-0.243	-0.082
-722.850	800.000	-0.056	0.168
-721.835	-2.930	-0.094	0.067
-720.821	-200.000	-0.007	0.310
-719.806	321.949	-0.153	-0.297
-718.791	-165.038	0.190	-0.009
-717.777	136.649	0.103	0.137
-716.762	800.000	-0.127	-0.425
-715.748	-53.575	0.310	0.145
-714.733	141.913	0.110	0.149
-713.718	-141.522	-0.112	0.012
-712.704	237.417	-0.125	-0.211
-711.689	-7.738	0.295	-0.203
-710.675	-31.634	0.197	-0.113
-709.660	-200.000	-0.031	0.287
-708.645	311.731	0.047	0.090
-707.631	-200.000	0.041	-0.278
-706.616	133.682	0.217	0.286
-705.602	-44.914	-0.295	0.150
-704.587	-25.009	0.222	-0.134
-703.572	-200.000	-0.007	0.419
-702.558	-83.143	-0.198	0.065
-701.543	498.792	0.198	-0.465
-700.529	2.542	-0.077	-0.057
-699.514	800.000	-0.019	0.074
-698.499	-43.501	-0.344	-0.177
-697.485	383.461	0.109	-0.228
-696.470	139.151	-0.092	-0.123
-695.456	6.204	0.215	-0.163
-694.441	800.000	0.101	-0.288
-693.426	-200.000	0.077	-0.442
-692.412	800.000	-0.097	-0.333
-691.397	-200.000	-0.005	0.110
-690.383	275.724	-0.198	-0.358
-689.368	9.851	0.037	0.029
-688.354	-15.323	-0.406	0.265
-687.339	305.315	0.125	-0.236
-686.324	466.403	-0.122	0.279
-685.310	72.696	-0.189	0.201
-684.295	-49.895	0.060	-0.029
-683.281	-19.023	-0.250	-0.158
-682.266	550.762	0.048	-0.117
-681.251	-66.861	-0.133	0.054
-680.237	126.800	0.071	0.092
-679.222	-27.502	-0.375	-0.222
-678.208	120.140	-0.198	-0.251
-677.193	193.597	-0.037	0.057
-676.178	21.903	0.164	-0.136
-675.164	-200.000	0.057	-0.299
-674.149	-72.889	0.157	0.059
-673.135	-38.647	0.081	-0.044
-672.120	-46.915	-0.104	-0.052
-671.105	673.511	-0.065	-0.173
-670.091	-102.465	-0.183	-0.045
-669.076	-200.000	0.006	0.156
-668.062	-200.000	0.008	0.051
-667.047	-78.985	-0.320	-0.111
-666.032	-200.000	-0.012	-0.151
-665.018	30.856	-0.126	0.110
-664.003	215.460	-0.147	-0.238
-662.989	-82.563	0.303	-0.100
-661.974	368.097	0.108	-0.222
-660.959	100.429	0.091	0.108
-659.945	-143.027	0.179	0.018
-658.930	226.744	-0.074	0.123
-657.916	24.530	-0.234	0.197
-656.901	180.081	-0.050	-0.074
-655.886	800.000	-0.063	0.220
-654.872	-12.116	0.099	-0.066
-653.857	-200.000	0.087	-0.418
-652.843	-161.781	-0.117	0.006
-651.828	-46.832	0.214	-0.107
-650.814	-50.682	0.253	-0.121
-649.799	-169.397	0.492	0.018
-648.784	-142.616	-0.108	0.011
-647.770	-16.829	0.270	0.173
-646.755	378.950	-0.077	0.160
-645.741	-41.214	-0.343	-0.180
-644.726	-159.704	0.205	0.012
-643.711	16.263	-0.038	0.031
-642.697	559.711	-0.133	0.326
-641.682	-200.000	-0.041	0.218
-640.668	-200.000	-0.093	0.553
-639.653	-200.000	-0.046	-0.389
-638.638	-200.000	0.090	0.426
-637.624	-90.296	-0.053	-0.016
-636.609	382.749	-0.095	-0.198
-635.595	6.477	-0.130	0.099
-634.580	478.558	-0.033	0.076
-633.565	25.342	0.348	0.294
-632.551	-182.760	0.304	0.006
-631.536	2.957	-0.208	-0.154
-630.522	-140.448	0.230	-0.024
-629.507	-92.145	-0.159	0.046
-628.492	36.398	0.162	0.145
-627.478	-91.034	0.183	-0.053
-626.463	548.428	-0.091	-0.220
-625.449	245.495	-0.008	0.014
-624.434	-200.000	-0.006	-0.045
-623.419	800.000	0.121	-0.496
-622.405	317.587	0.106	-0.204
-621.390	-88.226	0.224	0.068
-620.376	-200.000	0.001	-0.061
-619.361	-90.903	0.266	0.078
-618.346	-104.313	0.187	0.044
-617.332	-109.477	-0.348	0.075
-616.317	-200.000	0.017	-0.156
-615.303	-100.873	0.324	-0.081
-614.288	800.000	0.037	-0.153
-613.273	-165.954	-0.175	-0.008
-612.259	26.505	-0.259	-0.220
-611.244	-195.781	-0.167	-0.001
-610.230	-2.239	0.097	-0.069
-609.215	-148.834	-0.069	-0.006
-608.201	388.190	-0.123	0.259
-607.186	7.181	-0.030	-0.022
-606.171	24.667	-0.020	-0.017
-605.157	97.181	0.115	0.134
-604.142	12.370	-0.405	-0.317
-603.128	-200.000	-0.016	0.175
-602.113	-9.179	0.112	-0.076
-601.098	-46.646	-0.092	0.046
-600.084	223.482	-0.138	0.227
-599.069	1.454	-0.108	-0.079
-598.055	-25.783	-0.094	-0.056
-597.040	-120.969	-0.218	-0.037
-596.025	-70.713	-0.332	0.127
-595.011	-100.698	-0.156	0.039
-593.996	-92.576	0.284	-0.081
-592.982	-15.627	0.128	-0.083
-591.967	-200.000	-0.043	-0.215
-590.952	800.000	-0.052	0.193
-589.938	-113.359	0.163	0.032
-588.923	10.314	-0.062	-0.048
-587.909	-56.255	-0.152	0.069
-586.894	-200.000	-0.019	-0.283
-585.879	416.967	-0.020	-0.043
-584.865	-161.896	0.257	-0.013
-583.850	800.000	-0.051	-0.146
-582.836	-146.160	-0.204	0.018
-581.821	39.380	0.432	-0.393
-580.806	6.911	-0.103	0.078
-579.792	150.212	-0.038	-0.052
-578.777	51.718	0.109	-0.105
-577.763	-116.967	0.191	0.035
-576.748	585.038	0.145	0.361
-575.733	800.000	0.057	0.207
-574.719	800.000	-0.036	-0.105
-573.704	49.282	-0.130	0.124
-572.690	5.251	-0.109	0.082
-571.675	800.000	-0.075	0.278
-570.661	-11.815	0.087	-0.058
-569.646	488.508	-0.065	0.150
-568.631	-200.000	0.019	-0.195
-567.617	-61.682	-0.218	0.093
-566.602	-198.804	-0.402	-0.002
-565.588	325.182	-0.048	-0.092
-564.573	107.312	-0.100	0.120
-563.558	-185.836	-0.023	-0.000
-562.544	97.867	-0.380	0.443
-561.529	-200.000	0.015	0.207
-560.515	103.211	-0.092	0.110
-559.500	610.092	0.068	0.172
-558.485	-117.831	0.092	0.017
-557.471	429.955	-0.005	-0.011
-556.456	-200.000	-0.043	0.418
-555.442	-86.012	-0.195	0.061
-554.427	-169.027	0.262	0.010
-553.412	718.565	0.088	-0.236
-552.398	119.049	-0.143	-0.180
-551.383	509.671	-0.076	0.179
-550.369	800.000	-0.031	0.098
-549.354	-76.100	-0.341	0.122
-548.339	-63.831	0.331	-0.137
-547.325	-200.000	-0.003	0.216
-546.310	125.095	-0.224	0.286
-545.296	-11.855	-0.212	0.141
-544.281	37.467	-0.071	0.064
-543.266	264.879	0.144	-0.255
-542.252	71.684	0.052	-0.055
-541.237	-126.652	0.111	-0.017
-540.223	29.312	-0.195	-0.168
-539.208	-82.617	-0.206	0.068
-538.193	313.775	0.127	-0.242
-537.179	669.656	0.130	-0.342
-536.164	-200.000	0.012	0.111
-535.150	-200.000	0.000	0.479
-534.135	-58.908	0.183	0.080
-533.121	-56.264	0.109	0.049
-532.106	-200.000	-0.007	0.187
-531.091	-200.000	0.004	0.219
-530.077	-200.000	0.008	0.039
-529.062	-146.437	0.213	0.019
-528.048	-200.000	-0.030	-0.244
-527.033	-49.430	0.242	-0.117
-526.018	-62.044	-0.178	-0.075
-525.004	-200.000	0.003	-0.088
-523.989	-83.643	-0.172	0.056
-522.975	-200.000	-0.004	0.572
-521.960	-102.615	0.225	-0.054
-520.945	-63.740	-0.335	0.139
-519.931	-200.000	-0.024	0.137
-518.916	39.946	0.306	-0.278
-517.902	800.000	0.028	0.100
-516.887	-55.497	0.139	-0.063
-515.872	37.797	-0.040	-0.036
-514.858	310.942	0.111	-0.210
-513.843	668.151	0.031	-0.081
-512.829	22.254	-0.336	0.278
-511.814	350.423	-0.145	-0.291
-510.799	41.480	0.120	-0.110
-509.785	190.182	0.127	0.193
-508.770	-200.000	0.295	0.000
-507.756	373.451	-0.031	-0.065
-506.741	218.077	-0.169	-0.272
-505.726	-200.000	-0.014	-0.077
-504.712	78.767	-0.090	0.097
-503.697	800.000	-0.037	0.123
-502.683	227.309	0.139	-0.228
-501.668	800.000	0.078	-0.249
-500.653	120.884	0.148	-0.186
-499.639	192.012	-0.251	0.382
-498.624	-134.886	0.173	0.021
-497.610	69.155	0.279	-0.290
-496.595	-10.212	0.047	-0.032
-495.581	194.502	0.182	-0.280
-494.566	-200.000	-0.107	-0.516
-493.551	800.000	0.136	-0.567
-492.537	614.949	0.062	-0.156
-491.522	-55.525	0.302	0.137
-490.508	800.000	0.043	0.127
-489.493	-200.000	0.050	-0.377
-488.478	-200.000	-0.041	-0.625
-487.464	-200.000	-0.008	-0.320
-486.449	687.898	0.083	-0.221
-485.435	-31.216	-0.291	-0.166
-484.420	40.279	-0.234	-0.213
-483.405	19.027	0.295	-0.239
-482.391	219.197	0.062	-0.100
-481.376	-200.000	-0.045	0.220
-480.362	132.242	-0.050	0.066
-479.347	800.000	0.055	-0.178
-478.332	48.933	-0.220	-0.209
-477.318	46.605	-0.136	0.128
-476.303	-61.748	0.265	0.112
-475.289	-81.054	-0.083	0.028
-474.274	-24.938	-0.029	-0.017
-473.259	51.912	-0.223	0.214
-472.245	-20.031	0.090	0.056
-471.230	-150.523	-0.094	-0.007
-470.216	-200.000	0.040	-0.382
-469.201	38.586	-0.122	-0.110
-468.186	-122.625	0.406	0.067
-467.172	198.201	0.093	-0.144
-466.157	-200.000	0.041	-0.206
-465.143	800.000	-0.081	0.234
-464.128	-57.867	-0.260	-0.115
-463.113	-200.000	0.010	0.110
-462.099	-200.000	-0.018	-0.121
-461.084	50.751	0.276	0.264
-460.070	800.000	-0.058	0.220
-459.055	29.998	-0.252	0.217
-458.040	800.000	0.045	-0.170
-457.026	55.536	-0.123	-0.120
-456.011	-76.278	0.042	0.015
-454.997	151.870	-0.152	0.209
-453.982	-25.949	0.119	-0.071
-452.968	124.334	0.054	-0.068
-451.953	83.485	-0.152	0.167
-450.938	-103.041	-0.253	-0.061
-449.924	-100.493	-0.196	-0.049
-448.909	-102.881	-0.101	0.024
-447.895	-117.476	-0.361	0.066
-446.880	-52.792	0.234	-0.109
-445.865	-104.915	0.268	0.062
-444.851	-200.000	0.043	0.329
-443.836	-200.000	0.032	-0.185
-442.822	-43.420	-0.141	0.072
-441.807	-67.932	-0.707	0.279
-440.792	-122.735	-0.097	-0.016
-439.778	-56.432	0.445	0.199
-438.763	-44.112	0.075	-0.038
-437.749	-200.000	0.019	0.178
-436.734	110.749	0.168	0.204
-435.719	179.845	0.027	-0.040
-434.705	81.943	-0.230	-0.252
-433.690	-42.136	0.255	-0.132
-432.676	27.516	-0.039	-0.033
-431.661	-33.559	0.140	-0.078
-430.646	83.650	0.079	-0.087
-429.632	760.949	-0.053	0.145
-428.617	800.000	0.077	0.284
-427.603	-138.549	0.235	0.026
-426.588	158.823	-0.102	0.143
-425.573	461.437	0.035	0.078
-424.559	255.193	-0.089	0.154
-423.544	-0.697	-0.057	0.041
-422.530	54.754	0.265	0.257
-421.515	-18.539	-0.190	-0.120
-420.500	84.359	-0.076	-0.084
-419.486	-200.000	-0.059	-0.315
-418.471	-9.762	-0.147	-0.098
-417.457	-12.475	-0.175	0.115
-416.442	-25.254	-0.032	-0.019
-415.428	-19.442	0.152	0.095
-414.413	-200.000	-0.251	-0.000
-413.398	-56.673	0.131	0.059
-412.384	-189.909	0.263	-0.003
-411.369	800.000	0.028	-0.094
-410.355	-200.000	0.002	-0.082
-409.340	3.086	0.342	0.251
-408.325	25.234	0.127	0.106
-407.311	-40.484	-0.153	0.080
-406.296	110.680	-0.104	0.126
-405.282	52.195	-0.033	-0.031
-404.267	-119.291	0.140	-0.025
-403.252	53.320	-0.053	0.051
-402.238	638.003	-0.034	0.088
-401.223	76.523	-0.198	-0.212
-400.209	-136.051	0.226	-0.027
-399.194	-71.099	-0.135	-0.051
-398.179	330.481	0.029	0.055
-397.165	130.339	0.134	0.174
-396.150	-200.000	-0.013	-0.074
-395.136	-79.489	-0.187	0.064
-394.121	-109.481	0.180	-0.038
-393.106	12.534	-0.282	0.219
-392.092	41.675	0.054	0.049
-391.077	-200.000	0.003	-0.143
-390.063	-75.437	0.048	-0.017
-389.048	626.841	-0.100	-0.254
-388.033	157.225	0.196	0.273
-387.019	-200.000	0.001	0.177
-386.004	359.905	-0.033	-0.066
-384.990	-76.940	0.221	0.078
-383.975	-159.974	-0.202	0.011
-382.960	-32.231	-0.223	0.126
-381.946	-200.000	0.032	0.141
-380.931	-200.000	0.004	-0.121
-379.917	-200.000	0.023	0.236
-378.902	-200.000	-0.021	-0.122
-377.888	-137.258	0.361	-0.041
-376.873	-200.000	0.027	-0.293
-375.858	68.564	-0.106	0.110
-374.844	226.310	-0.062	0.101
-373.829	122.027	-0.076	-0.095
-372.815	133.260	0.018	0.023
-371.800	-105.838	-0.444	0.101
-370.785	-34.503	0.335	0.185
-369.771	-52.775	0.213	0.099
-368.756	-114.761	-0.078	-0.015
-367.742	-6.959	0.195	0.133
-366.727	-30.910	-0.292	-0.166
-365.712	-200.000	0.058	0.288
-364.698	475.522	0.093	0.212
-363.683	-75.472	-0.312	-0.112
-362.669	-200.000	-0.021	-0.243
-361.654	-192.949	0.527	-0.005
-360.639	-102.031	-0.147	0.036
-359.625	4.626	-0.144	-0.106
-358.610	232.444	-0.063	0.104
-357.596	-128.940	0.160	-0.023
-356.581	-200.000	0.002	-0.308
-355.566	-93.128	-0.235	0.066
-354.552	-98.400	0.233	-0.060
-353.537	44.105	0.191	0.176
-352.523	-200.000	0.030	0.147
-351.508	-117.212	0.161	-0.029
-350.493	-200.000	0.011	-0.393
-349.479	-24.277	-0.180	0.108
-348.464	22.248	0.130	-0.106
-347.450	-200.000	0.286	0.000
-346.435	209.426	0.123	0.194
-345.420	-88.915	-0.111	0.033
-344.406	-200.000	0.014	0.000
-343.391	340.939	0.120	-0.235
-342.377	497.845	-0.016	0.037
-341.362	135.911	-0.160	-0.209
-340.348	-14.211	-0.211	0.137
-339.333	283.408	0.097	-0.174
-338.318	-166.992	-0.255	0.010
-337.304	-76.961	-0.200	0.070
-336.289	211.859	-0.141	0.223
-335.275	161.606	-0.144	-0.203
-334.260	-1.023	-0.037	0.026
-333.245	-67.034	0.238	-0.094
-332.231	-10.438	-0.081	-0.054
-331.216	-137.329	-0.414	-0.047
-330.202	-20.313	0.122	-0.076
-329.187	316.996	-0.131	-0.249
-328.172	-9.255	-0.102	0.068
-327.158	800.000	-0.037	0.129
-326.143	88.715	-0.336	0.375
-325.129	-183.051	0.076	-0.001
-324.114	1.245	-0.079	-0.057
-323.099	407.544	-0.055	0.117
-322.085	39.688	0.165	-0.149
-321.070	11.323	0.041	0.032
-320.056	103.227	-0.203	0.240
-319.041	-18.581	0.225	-0.141
-318.026	800.000	-0.026	-0.112
-317.012	-67.619	-0.177	-0.069
-315.997	-200.000	-0.032	0.227
-314.983	510.034	-0.075	0.175
-313.968	-118.408	0.104	-0.019
-312.953	28.917	0.203	-0.173
-311.939	-200.000	0.007	-0.487
-310.924	-47.641	0.177	0.086
-309.910	57.125	-0.156	-0.153
-308.895	-200.000	0.001	-0.114
-307.880	652.197	0.148	-0.380
-306.866	224.970	-0.085	-0.137
-305.851	156.226	0.114	-0.158
-304.837	-15.280	0.212	0.136
-303.822	88.569	0.325	0.362
-302.807	41.046	-0.214	0.194
-301.793	425.291	0.084	0.181
-300.778	-51.064	-0.155	0.073
-299.764	171.691	0.169	-0.244
-298.749	-84.271	-0.308	0.098
-297.735	43.660	-0.048	0.044
-296.720	-84.752	-0.457	0.144
-295.705	6.416	0.237	-0.177
-294.691	-200.000	0.056	-0.247
-293.676	-13.974	0.116	0.075
-292.662	36.010	0.040	0.036
-291.647	-136.041	-0.201	0.024
-290.632	64.996	-0.103	0.104
-289.618	-200.000	-0.085	0.000
-288.603	-200.000	-0.005	0.346
-287.589	11.134	-0.154	-0.118
-286.574	-200.000	0.039	0.197
-285.559	-200.000	0.001	0.027
-284.545	-10.312	0.119	0.079
-283.530	-129.761	-0.398	-0.055
-282.516	75.251	-0.189	-0.200
-281.501	471.622	-0.150	0.338
-280.486	23.424	-0.035	0.029
-279.472	-105.997	-0.118	0.027
-278.457	264.497	0.133	0.232
-277.443	142.383	0.070	-0.093
-276.428	72.221	-0.075	0.078
-275.413	-200.000	0.033	-0.227
-274.399	-200.000	-0.005	0.030
-273.384	679.665	-0.069	0.181
-272.370	-200.000	-0.001	0.051
-271.355	121.492	0.137	-0.171
-270.340	-200.000	0.052	-0.426
-269.326	-200.000	0.024	0.187
-268.311	64.771	-0.137	-0.138
-267.297	-67.187	-0.158	-0.062
-266.282	607.392	-0.100	0.250
-265.267	800.000	0.055	0.204
-264.253	60.264	0.085	0.085
-263.238	-20.883	-0.179	0.110
-262.224	-62.184	-0.281	-0.117
-261.209	-200.000	0.006	0.099
-260.195	-171.294	0.244	-0.008
-259.180	96.085	-0.074	-0.085
-258.165	-200.000	0.027	0.188
-257.151	129.073	-0.151	0.193
-256.136	329.976	0.124	0.239
-255.122	97.876	-0.043	-0.050
-254.107	191.902	-0.045	0.068
-253.092	-72.580	0.153	-0.056
-252.078	-103.957	0.360	0.084
-251.063	384.081	0.058	-0.121
-250.049	-200.000	-0.043	-0.224
-249.034	21.248	0.024	-0.019
-248.019	-27.087	-0.224	-0.131
-247.005	168.227	0.038	-0.054
-245.990	-28.183	-0.153	-0.089
-244.976	161.649	0.242	0.340
-243.961	800.000	-0.023	-0.091
-242.946	47.420	0.294	-0.275
-241.932	-200.000	0.088	-0.436
-240.917	179.528	0.148	0.217
-239.903	-200.000	0.031	-0.162
-238.888	800.000	0.080	0.238
-237.873	-128.879	0.043	-0.006
-236.859	-21.885	0.160	0.097
-235.844	800.000	0.049	-0.197
-234.830	-128.640	-0.146	0.021
-233.815	-200.000	-0.021	-0.147
-232.800	-130.375	0.257	-0.035
-231.786	173.634	0.057	0.082
-230.771	800.000	-0.026	-0.107
-229.757	787.410	-0.077	0.212
-228.742	674.924	-0.181	0.469
-227.727	482.936	0.208	-0.474
-226.713	131.692	-0.152	-0.196
-225.698	-200.000	-0.005	-0.303
-224.684	-24.089	-0.159	-0.095
-223.669	-200.000	0.002	0.158
-222.655	366.325	0.140	0.283
-221.640	-158.851	0.150	0.009
-220.625	85.683	0.152	0.167
-219.611	-154.093	0.219	-0.015
-218.596	631.313	-0.065	0.164
-217.582	-200.000	-0.030	-0.181
-216.567	-49.633	0.211	0.100
-215.552	-129.694	0.310	0.043
-214.538	-86.112	0.178	-0.055
-213.523	42.339	-0.151	-0.137
-212.509	-65.707	-0.272	0.109
-211.494	-42.138	-0.040	0.020
-210.479	-157.340	-0.302	0.018
-209.465	-68.172	0.318	-0.124
-208.450	-200.000	-0.058	0.265
-207.436	22.626	-0.197	0.161
-206.421	-79.490	-0.190	-0.064
-205.406	800.000	-0.096	0.299
-204.392	412.959	0.061	-0.130
-203.377	34.729	0.253	0.221
-202.363	781.986	0.030	0.082
-201.348	-200.000	0.008	-0.146
-200.333	31.698	0.280	-0.240
-199.319	-200.000	-0.041	-0.191
-198.304	137.478	-0.069	-0.090
-197.290	-61.926	0.220	-0.092
-196.275	-81.523	-0.239	0.078
-195.260	41.476	-0.077	-0.069
-194.246	-200.000	-0.064	-0.338
-193.231	-64.937	-0.334	-0.135
-192.217	-56.745	-0.061	0.027
-191.202	731.271	-0.070	-0.188
-190.187	16.350	0.116	-0.091
-189.173	800.000	0.060	-0.191
-188.158	-200.000	-0.014	0.097
-187.144	-27.634	-0.167	0.097
-186.129	-200.000	0.050	0.347
-185.114	-200.000	-0.036	0.309
-184.100	-200.000	-0.014	-0.098
-183.085	-103.733	0.194	0.045
-182.071	-41.648	-0.126	-0.065
-181.056	592.022	-0.083	0.204
-180.042	545.748	-0.067	-0.160
-179.027	-76.312	0.093	0.033
-178.012	-200.000	0.043	-0.333
-176.998	61.250	0.331	-0.328
-175.983	-200.000	0.042	-0.258
-174.969	78.725	-0.091	-0.097
-173.954	-158.711	0.239	-0.014
-172.939	-165.752	-0.171	0.007
-171.925	-7.517	0.288	-0.195
-170.910	-71.054	0.245	0.092
-169.896	-124.583	0.183	0.028
-168.881	178.896	0.241	-0.351
-167.866	290.007	-0.115	0.209
-166.852	239.282	-0.190	0.316
-165.837	-13.039	-0.177	0.115
-164.823	-130.735	-0.179	-0.024
-163.808	-122.465	0.014	-0.002
-162.793	-200.000	0.064	0.326
-161.779	56.427	-0.074	-0.072
-160.764	800.000	-0.020	-0.063
-159.750	647.731	0.078	-0.199
-158.735	-26.962	0.024	-0.014
-157.720	-111.423	0.073	0.015
-156.706	-200.000	0.001	-0.018
-155.691	251.105	0.180	0.306
-154.677	-54.557	0.235	-0.106
-153.662	161.264	-0.159	0.222
-152.647	800.000	-0.035	-0.133
-151.633	-149.077	0.294	0.024
-150.618	-162.825	0.446	-0.022
-149.604	216.924	0.064	0.102
-148.589	212.391	0.082	-0.129
-147.574	153.187	0.093	-0.127
-146.560	-86.951	-0.051	0.016
-145.545	-62.701	0.226	0.093
-144.531	-14.602	0.264	-0.170
-143.516	-91.203	-0.126	0.036
-142.502	800.000	-0.043	-0.183
-141.487	-177.284	0.185	0.005
-140.472	151.144	0.158	0.215
-139.458	-115.286	0.194	-0.037
-138.443	800.000	-0.061	-0.206
-137.429	-15.266	-0.163	-0.104
-136.414	800.000	-0.154	-0.430
-135.399	507.029	0.116	0.268
-134.385	800.000	-0.044	-0.150
-133.370	188.872	-0.045	0.066
-132.356	800.000	0.023	0.076
-131.341	20.997	0.122	-0.098
-130.326	-34.661	0.049	0.027
-129.312	140.008	0.246	0.323
-128.297	-29.120	-0.268	-0.153
-127.283	-46.339	0.109	-0.053
-126.268	800.000	-0.069	-0.263
-125.253	250.547	-0.109	0.185
-124.239	144.522	-0.207	0.276
-123.224	-8.597	0.404	0.270
-122.210	110.948	-0.279	0.335
-121.195	-52.096	0.129	0.060
-120.180	200.655	-0.128	0.197
-119.166	40.674	0.107	-0.096
-118.151	59.877	-0.257	-0.253
-117.137	-90.623	0.334	0.096
-116.122	198.310	-0.128	-0.195
-115.107	-27.817	-0.211	0.122
-114.093	78.368	0.038	-0.041
-113.078	-200.000	0.073	0.333
-112.064	-105.394	0.337	0.076
-111.049	-200.000	0.007	0.199
-110.034	-26.053	0.271	-0.159
-109.020	245.205	0.011	-0.019
-108.005	-200.000	-0.039	0.192
-106.991	-171.285	-0.132	0.004
-105.976	-200.000	0.029	-0.137
-104.962	-12.585	0.153	-0.099
-103.947	123.495	-0.183	-0.228
-102.932	-78.554	-0.126	-0.043
-101.918	800.000	0.131	0.391
-100.903	23.446	-0.078	-0.064
-99.889	16.387	-0.064	0.051
-98.874	-179.504	0.284	0.006
-97.859	-73.287	0.175	0.064
-96.845	800.000	0.111	0.380
-95.830	351.480	-0.135	-0.265
-94.816	24.868	-0.499	0.412
-93.801	85.447	0.038	0.042
-92.786	-139.766	0.179	-0.019
-91.772	-91.251	0.358	-0.102
-90.757	-200.000	0.023	0.360
-89.743	308.195	-0.081	0.150
-88.728	-111.189	0.507	0.103
-87.713	-155.347	0.041	0.003
-86.699	-200.000	0.014	0.107
-85.684	263.223	-0.126	0.217
-84.670	22.510	0.052	-0.042
-83.655	800.000	0.029	-0.094
-82.640	223.461	-0.085	-0.136
-81.626	-23.277	-0.288	-0.172
-80.611	-200.000	-0.021	-0.124
-79.597	39.505	0.162	0.144
-78.582	-200.000	0.083	0.382
-77.567	75.298	-0.034	0.036
-76.553	-147.296	0.225	-0.019
-75.538	-200.000	0.035	-0.379
-74.524	727.398	0.113	0.300
-73.509	45.759	-0.044	0.040
-72.494	-103.415	0.130	-0.030
-71.480	-135.150	-0.221	0.026
-70.465	-74.725	-0.196	-0.070
-69.451	-72.843	0.075	0.028
-68.436	230.968	-0.033	-0.054
-67.422	-200.000	-0.057	0.370
-66.407	92.203	0.251	0.282
-65.392	19.468	-0.197	-0.158
-64.378	-139.789	0.265	0.028
-63.363	-200.000	-0.052	-0.315
-62.349	-10.044	0.194	0.128
-61.334	10.410	-1.052	-0.797
-60.319	223.089	0.172	0.276
-59.305	465.886	-0.399	-0.889
-58.290	79.206	0.822	0.876
-57.276	296.586	0.793	1.447
-56.261	-200.000	83.669	523.347
-55.246	515.856	1347.800	3130.871
-54.232	150.423	2558.334	3454.103
-53.217	114.775	2214.329	2684.415
-52.203	49.888	1668.381	1564.220
-51.188	42.287	1400.673	1265.454
-50.173	38.850	1357.052	1204.935
-49.159	57.388	1399.183	1358.194
-48.144	62.644	1418.482	1409.612
-47.130	42.743	1376.399	1246.154
-46.115	38.966	1358.989	1207.175
-45.100	38.789	1354.125	1201.724
-44.086	38.760	1351.559	1199.219
-43.071	38.655	1349.061	1196.311
-42.057	38.601	1347.246	1194.327
-41.042	38.571	1345.786	1192.806
-40.027	38.723	1344.164	1192.247
-39.013	38.640	1342.075	1189.842
-37.998	38.728	1340.385	1188.827
-36.984	38.838	1338.562	1187.832
-35.969	38.805	1336.609	1185.852
-34.954	38.890	1334.929	1184.828
-33.940	38.847	1333.725	1183.454
-32.925	38.905	1332.256	1182.451
-31.911	38.996	1330.931	1181.776
-30.896	38.944	1329.042	1179.737
-29.881	38.886	1328.284	1178.668
-28.867	38.964	1326.403	1177.421
-27.852	38.889	1325.184	1175.847
-26.838	39.008	1323.587	1175.091
-25.823	38.845	1322.743	1173.320
-24.809	38.841	1321.235	1171.912
-23.794	38.847	1319.547	1170.405
-22.779	38.978	1317.468	1169.293
-21.765	39.030	1316.534	1168.727
-20.750	38.816	1315.543	1166.531
-19.736	38.820	1314.106	1165.232
-18.721	38.793	1312.651	1163.738
-17.706	38.796	1311.893	1163.038
-16.692	38.845	1310.863	1162.369
-15.677	38.892	1309.547	1161.434
-14.663	38.731	1308.762	1159.738
-13.648	38.763	1307.646	1158.895
-12.633	38.750	1306.315	1157.593
-11.619	38.701	1305.687	1156.698
-10.604	38.683	1304.717	1155.685
-9.590	38.600	1303.917	1154.446
-8.575	38.676	1302.688	1153.755
-7.560	38.694	1301.700	1152.942
-6.546	38.654	1301.185	1152.204
-5.531	38.761	1300.152	1151.873
-4.517	38.738	1299.098	1150.758
-3.502	38.740	1298.349	1150.062
-2.487	38.810	1297.030	1149.258
-1.473	38.775	1293.018	1145.453
-0.458	37.299	1276.866	1122.579
0.556	31.356	1257.565	1077.213
1.571	26.724	1261.461	1053.603
2.586	25.311	1276.325	1057.603
3.600	24.691	1266.751	1045.953
4.615	22.366	1199.184	977.180
5.629	18.056	1127.031	895.763
6.644	15.549	1106.146	866.171
7.659	15.459	1103.182	863.312
8.673	15.371	1102.204	862.018
9.688	15.202	1100.988	860.124
10.702	15.514	1099.458	860.452
11.717	18.264	1102.593	876.939
12.731	20.917	1105.836	893.053
13.746	19.701	1102.937	884.417
14.761	17.642	1099.847	871.341
15.775	16.453	1097.519	863.350
16.790	15.409	1095.400	856.286
17.804	14.520	1093.833	850.454
18.819	14.135	1092.037	847.019
19.834	13.819	1090.865	844.428
20.848	13.698	1089.952	843.030
21.863	13.226	1089.429	840.154
22.877	13.184	1088.448	839.111
23.892	13.137	1088.123	838.548
24.907	13.101	1087.329	837.680
25.921	13.161	1086.391	837.187
26.936	13.408	1084.271	836.726
27.950	13.287	1083.222	835.234
28.965	13.282	1081.899	834.111
29.980	13.340	1080.106	832.951
30.994	13.549	1078.412	832.621
32.009	13.586	1077.290	831.866
33.023	13.512	1076.249	830.618
34.038	13.416	1075.442	829.440
35.053	13.284	1074.662	828.103
36.067	13.313	1073.772	827.491
37.082	13.351	1072.757	826.824
38.096	13.259	1072.252	825.900
39.111	13.357	1071.143	825.463
40.126	13.283	1070.114	824.229
41.140	13.188	1068.969	822.799
42.155	13.120	1067.820	821.508
43.169	13.067	1066.823	820.401
44.184	13.028	1066.059	819.547
45.199	13.080	1064.754	818.733
46.213	13.117	1063.498	817.876
47.228	13.106	1062.671	817.111
48.242	13.181	1061.467	816.485
49.257	13.288	1059.900	815.736
50.271	13.277	1059.309	815.156
51.286	13.273	1058.510	814.447
52.301	13.242	1057.413	813.381
53.315	13.334	1055.865	812.567
54.330	13.138	1055.579	811.314
55.344	13.097	1054.712	810.377
56.359	13.189	1053.346	809.707
57.374	13.176	1052.652	809.034
58.388	13.099	1051.916	808.024
59.403	13.092	1050.962	807.184
60.417	13.090	1049.982	806.348
61.432	13.021	1049.377	805.476
62.447	13.021	1048.185	804.492
63.461	12.984	1047.401	803.637
64.476	13.077	1046.271	803.152
65.490	13.044	1046.093	802.784
66.505	13.103	1045.419	802.484
67.520	13.055	1044.367	801.373
68.534	13.039	1043.783	800.773
69.549	13.024	1042.986	800.018
70.563	12.952	1042.220	799.010
71.578	13.078	1041.352	798.883
72.593	12.930	1040.652	797.561
73.607	13.043	1039.676	797.288
74.622	13.067	1039.369	797.100
75.636	13.095	1038.534	796.523
76.651	13.026	1037.837	795.585
77.666	12.963	1037.593	795.023
78.680	12.946	1036.699	794.190
79.695	13.142	1035.745	794.331
80.709	13.012	1035.604	793.523
81.724	13.153	1034.786	793.504
82.739	13.179	1034.039	792.985
83.753	13.296	1032.905	792.608
84.768	13.229	1032.157	791.643
85.782	13.353	1031.343	791.544
86.797	13.324	1030.334	790.562
87.812	13.395	1029.281	790.021
88.826	13.291	1028.340	788.732
89.841	13.354	1027.144	788.045
90.855	13.316	1026.451	787.265
91.870	13.435	1025.396	786.950
92.884	13.312	1024.654	785.725
93.899	13.474	1023.836	785.798
94.914	13.550	1022.721	785.235
95.928	13.563	1022.100	784.751
96.943	13.412	1021.498	783.504
97.957	13.386	1020.524	782.564
98.972	13.349	1019.527	781.555
99.987	13.305	1018.682	780.631
101.001	13.321	1017.404	779.658
102.016	13.311	1016.770	779.054
103.030	13.361	1016.065	778.684
104.045	13.468	1014.995	778.299
105.060	13.322	1014.420	777.099
106.074	13.198	1013.550	775.782
107.089	13.262	1011.927	774.771
108.103	13.170	1011.396	773.867
109.118	13.214	1010.704	773.476
110.133	13.078	1009.654	771.966
111.147	13.191	1008.512	771.554
112.162	13.309	1007.334	771.131
113.176	13.284	1006.901	770.616
114.191	13.411	1006.015	770.462
115.206	13.228	1005.621	769.239
116.220	13.346	1004.881	769.156
117.235	13.283	1003.745	767.924
118.249	13.196	1002.839	766.759
119.264	13.277	1001.968	766.400
120.279	13.157	1001.301	765.267
121.293	13.249	1000.368	764.914
122.308	13.124	999.942	763.943
123.322	13.132	998.986	763.182
124.337	13.143	997.592	762.097
125.352	13.275	996.166	761.550
126.366	13.179	995.652	760.649
127.381	13.219	994.046	759.536
128.395	13.305	993.813	759.688
129.410	13.327	992.835	758.972
130.424	13.111	992.407	757.590
131.439	13.373	991.147	757.760
132.454	13.436	990.149	757.219
133.468	13.469	989.308	756.660
134.483	13.334	988.866	755.635
135.497	13.365	987.637	754.774
136.512	13.294	987.184	754.037
137.527	13.316	986.329	753.416
138.541	13.426	985.432	753.167
139.556	13.471	984.361	752.483
140.570	13.474	983.719	751.942
141.585	13.591	982.687	751.616
142.600	13.651	981.470	750.890
143.614	13.545	981.294	750.211
144.629	13.535	980.414	749.424
145.643	13.582	979.739	749.057
146.658	13.467	978.739	747.704
147.673	13.465	977.580	746.745
148.687	13.450	976.956	746.136
149.702	13.427	975.765	745.054
150.716	13.338	975.653	744.505
151.731	13.433	974.706	744.139
152.746	13.481	973.463	743.342
153.760	13.445	972.748	742.571
154.775	13.523	972.449	742.626
155.789	13.573	971.674	742.190
156.804	13.489	971.417	741.551
157.819	13.529	970.816	741.206
158.833	13.591	970.086	740.864
159.848	13.632	968.976	740.132
160.862	13.540	967.810	738.767
161.877	13.553	966.737	737.938
162.892	13.421	966.090	736.792
163.906	13.424	965.100	735.987
164.921	13.588	964.311	736.049
165.935	13.581	962.872	734.851
166.950	13.486	962.405	734.008
167.964	13.468	961.747	733.363
168.979	13.619	960.709	733.177
169.994	13.411	959.853	731.539
171.008	13.616	959.192	731.877
172.023	13.656	957.919	731.013
173.037	13.629	957.529	730.534
174.052	13.735	956.743	730.337
175.067	13.559	956.218	729.095
176.081	13.550	955.597	728.516
177.096	13.569	955.295	728.308
178.110	13.587	954.274	727.546
179.125	13.581	953.944	727.201
180.140	13.653	953.495	727.112
181.154	13.640	953.374	726.895
182.169	13.696	952.867	726.691
183.183	13.763	951.790	726.100
184.198	13.881	950.675	725.702
185.213	13.784	950.193	724.846
186.227	13.799	949.549	724.352
187.242	13.911	948.721	724.145
188.256	14.057	948.104	724.247
189.271	13.953	947.228	723.061
190.286	13.753	946.523	721.590
191.300	13.635	945.874	720.516
192.315	13.556	945.527	719.848
193.329	13.688	944.501	719.574
194.344	13.788	943.791	719.404
195.359	13.749	943.246	718.757
196.373	13.916	942.431	718.792
197.388	13.943	942.531	718.923
198.402	13.940	941.517	718.074
199.417	14.119	941.271	718.597
200.432	14.007	940.407	717.388
201.446	14.195	939.811	717.682
202.461	14.176	939.957	717.651
203.475	14.186	939.043	716.931
204.490	14.156	938.026	715.962
205.504	14.038	936.990	714.598
206.519	14.152	936.101	714.347
207.534	14.149	935.661	713.936
208.548	13.960	935.360	712.833
209.563	13.961	934.537	712.145
210.577	14.077	933.937	712.125
211.592	14.116	933.096	711.584
212.607	14.206	932.297	711.298
213.621	14.196	931.579	710.647
214.636	14.177	931.042	710.090
215.650	14.200	930.268	709.535
216.665	14.227	929.563	709.050
217.680	14.409	928.897	709.256
218.694	14.349	928.121	708.346
219.709	14.472	927.162	708.072
220.723	14.296	926.750	706.946
221.738	14.410	926.280	707.009
222.753	14.329	925.376	705.913
223.767	14.317	924.839	705.392
224.782	14.424	924.130	705.241
225.796	14.382	923.532	704.547
226.811	14.446	922.656	704.086
227.826	14.417	922.188	703.542
228.840	14.511	921.335	703.227
229.855	14.379	920.553	702.011
230.869	14.397	919.578	701.280
231.884	14.414	919.322	701.096
232.899	14.407	918.323	700.241
233.913	14.327	917.875	699.503
234.928	14.311	917.133	698.807
235.942	14.186	916.683	697.880
236.957	14.270	916.233	697.825
237.972	14.269	915.289	697.042
238.986	14.376	914.706	696.982
240.001	14.372	914.352	696.634
241.015	14.459	913.219	696.075
242.030	14.495	912.551	695.654
243.045	14.653	911.802	695.680
244.059	14.463	911.641	694.704
245.074	14.474	911.067	694.252
246.088	14.582	910.230	694.000
247.103	14.626	909.453	693.527
248.117	14.624	909.340	693.372
249.132	14.841	908.694	693.721
250.147	14.803	908.048	693.008
251.161	14.859	907.061	692.425
252.176	14.737	906.565	691.481
253.190	14.945	905.907	691.777
254.205	14.856	905.072	690.710
255.220	14.979	904.013	690.348
256.234	14.917	903.649	689.756
257.249	14.908	903.236	689.339
258.263	14.874	902.640	688.685
259.278	14.952	901.765	688.278
260.293	15.070	901.164	688.245
261.307	15.060	900.661	687.756
262.322	15.091	900.074	687.374
263.336	15.126	899.280	686.850
264.351	14.950	898.681	685.612
265.366	15.083	897.963	685.550
266.380	15.065	897.072	684.735
267.395	15.196	896.626	684.870
268.409	15.160	895.760	684.001
269.424	15.142	894.723	683.074
270.439	15.094	894.115	682.352
271.453	15.089	893.756	682.000
272.468	15.110	892.954	681.413
273.482	15.108	892.433	680.948
274.497	15.148	892.377	681.007
275.512	15.162	891.637	680.438
276.526	15.099	891.043	679.669
277.541	15.137	890.256	679.163
278.555	15.110	889.979	678.779
279.570	15.257	888.860	678.461
280.585	15.368	888.281	678.409
281.599	15.290	887.162	677.179
282.614	15.301	886.696	676.808
283.628	15.297	886.167	676.329
284.643	15.221	885.847	675.719
285.657	15.350	885.071	675.586
286.672	15.349	884.569	675.139
287.687	15.329	883.931	674.513
288.701	15.345	883.424	674.131
289.716	15.407	882.468	673.588
290.730	15.389	882.047	673.138
291.745	15.509	881.094	672.829
292.760	15.518	880.634	672.457
293.774	15.579	880.174	672.290
294.789	15.525	879.701	671.651
295.803	15.423	878.676	670.405
296.818	15.413	878.160	669.909
297.833	15.528	877.333	669.678
298.847	15.440	876.457	668.599
299.862	15.586	876.114	668.858
300.876	15.529	875.651	668.219
301.891	15.590	875.127	668.004
302.906	15.636	874.770	667.858
303.920	15.690	873.770	667.248
304.935	15.666	873.891	667.186
305.949	15.693	872.906	666.481
306.964	15.760	872.088	666.065
307.979	15.599	871.859	665.192
308.993	15.753	871.156	665.205
310.008	15.720	870.585	664.580
311.022	15.731	869.606	663.820
312.037	15.916	869.070	664.078
313.052	15.769	868.430	662.954
314.066	15.830	867.747	662.615
315.081	15.775	867.525	662.169
316.095	15.683	866.821	661.209
317.110	15.805	866.110	661.091
318.125	15.631	865.987	660.252
319.139	15.660	865.629	660.035
320.154	15.750	864.991	659.843
321.168	15.766	864.273	659.300
322.183	15.770	863.674	658.799
323.197	15.967	863.342	659.259
324.212	15.937	862.435	658.393
325.227	15.823	861.840	657.436
326.241	15.933	861.326	657.412
327.256	15.942	860.623	656.854
328.270	15.813	860.305	656.049
329.285	15.812	860.061	655.802
330.300	15.834	859.091	655.090
331.314	15.862	858.721	654.860
332.329	15.907	858.283	654.643
333.343	15.898	858.027	654.354
334.358	16.020	856.810	653.840
335.373	16.125	856.732	654.131
336.387	16.058	856.278	653.467
337.402	16.034	856.250	653.295
338.416	16.113	855.853	653.242
339.431	16.106	855.235	652.684
340.446	16.107	854.976	652.433
341.460	16.174	854.685	652.411
342.475	16.240	854.062	652.132
343.489	16.171	853.976	651.744
344.504	16.361	853.101	651.751
345.519	16.421	852.490	651.458
346.533	16.236	851.824	650.180
347.548	16.220	851.589	649.878
348.562	16.244	850.876	649.368
349.577	16.109	850.630	648.606
350.592	16.151	849.947	648.190
351.606	16.207	848.804	647.473
352.621	16.168	848.364	646.932
353.635	16.279	847.793	646.866
354.650	16.333	847.406	646.721
355.665	16.369	846.500	646.108
356.679	16.341	845.967	645.536
357.694	16.408	845.151	645.114
358.708	16.497	844.634	645.001
359.723	16.299	844.000	643.705
360.738	16.523	843.347	644.003
361.752	16.508	842.932	643.572
362.767	16.495	842.125	642.848
363.781	16.467	841.861	642.484
364.796	16.529	841.469	642.365
365.810	16.495	841.101	641.896
366.825	16.655	840.474	641.968
367.840	16.690	840.017	641.697
368.854	16.609	839.648	641.051
369.869	16.692	839.064	640.863
370.883	16.632	838.632	640.248
371.898	16.639	838.574	640.174
372.913	16.715	837.923	639.907
373.927	16.785	837.273	639.619
374.942	16.624	836.744	638.550
375.956	16.701	836.408	638.527
376.971	16.944	835.953	639.039
377.986	16.921	835.510	638.558
379.000	16.869	835.015	637.928
380.015	16.916	834.406	637.584
381.029	16.881	833.952	637.048
382.044	17.003	833.049	636.761
383.059	17.008	832.378	636.210
384.073	16.784	832.402	635.332
385.088	16.869	831.504	634.908
386.102	16.823	831.128	634.395
387.117	16.813	830.594	633.891
388.132	16.938	829.999	633.850
389.146	16.770	829.635	632.885
390.161	16.805	829.212	632.641
391.175	17.053	828.372	632.868
392.190	17.100	827.714	632.481
393.205	17.041	827.181	631.800
394.219	16.859	826.928	630.874
395.234	16.894	826.567	630.673
396.248	16.897	826.431	630.526
397.263	16.935	825.783	630.115
398.278	16.848	825.394	629.439
399.292	17.038	824.739	629.591
400.307	16.935	824.425	628.910
401.321	17.005	823.839	628.669
402.336	17.014	823.106	628.089
403.350	17.083	822.766	628.028
404.365	17.075	822.569	627.793
405.380	17.138	821.977	627.517
406.394	17.146	821.421	627.068
407.409	17.311	820.558	626.963
408.423	17.281	820.847	627.014
409.438	17.426	820.080	626.909
410.453	17.278	819.715	626.030
411.467	17.344	819.215	625.835
412.482	17.248	819.298	625.491
413.496	17.505	818.502	625.772
414.511	17.532	818.209	625.589
415.526	17.464	817.930	625.073
416.540	17.415	817.056	624.168
417.555	17.470	816.652	624.009
418.569	17.511	816.627	624.085
419.584	17.382	816.271	623.286
420.599	17.419	815.393	622.692
421.613	96.885	1276.023	1406.052
422.628	83.299	1343.196	1406.200
