DTS Sentinel unit serial number:	SN413079Multiplexer serial number:	ORYXHardware model number:	OX4-SRSoftware version number:	ORYX F/W v4.00 Oryx Data Collector v3.7.2.0data status	okinstallation	princeton_trtdifferential loss correction	single-endedforward channel	channel 1reverse channel	N/Adate	2019/09/16time	07:14:35forward acquisition time	60.00reverse acquisition time	0.00gamma	496.2192k internal	0.2331k external	0.2331temperature offset calibration	0.9988default loss term (dB/km)	0.3790temperature slope calibration	1.0000multiplexer offset coefficient	1.0000multiplexer slope coefficient	1.0000fibre end	0.00T internal ref (°C)	27.37T ext. ref 1 (°C)	11.56T ext. ref 2 (°C)	22.18length (m)	temperature (°C)	Stokes	anti-Stokes-747.200	166.622	-0.037	0.053
-746.185	35.659	-0.084	0.074
-745.171	-148.618	-0.392	0.032
-744.156	537.053	0.049	0.118
-743.142	-50.606	0.086	-0.041
-742.127	-38.064	0.171	-0.092
-741.112	59.226	0.182	-0.180
-740.098	-52.550	0.180	-0.084
-739.083	92.748	0.277	0.315
-738.069	-124.012	-0.410	0.065
-737.054	-76.736	-0.052	-0.018
-736.039	-25.772	-0.385	0.228
-735.025	-7.387	0.151	-0.103
-734.010	283.859	-0.105	0.190
-732.996	-116.713	-0.375	-0.069
-731.981	238.964	0.096	0.161
-730.966	-112.805	-0.092	-0.018
-729.952	-24.009	0.045	-0.027
-728.937	-200.000	0.014	-0.341
-727.923	210.181	0.079	-0.125
-726.908	-200.000	-0.009	-0.138
-725.894	238.587	0.207	-0.346
-724.879	-179.667	0.295	-0.006
-723.864	333.068	-0.172	-0.334
-722.850	-82.536	0.171	-0.056
-721.835	83.287	-0.139	0.152
-720.821	-200.000	-0.012	-0.076
-719.806	-75.771	-0.250	0.089
-718.791	-85.225	0.323	0.101
-717.777	-153.377	0.204	0.014
-716.762	40.115	-0.292	-0.264
-715.748	270.937	0.070	-0.124
-714.733	-153.642	0.185	-0.013
-713.718	29.336	0.130	-0.111
-712.704	683.135	0.059	0.156
-711.689	54.499	-0.072	0.069
-710.675	-1.523	-0.190	-0.135
-709.660	800.000	0.045	-0.150
-708.645	236.777	0.150	0.249
-707.631	-165.324	0.128	-0.006
-706.616	226.038	0.203	-0.330
-705.602	-118.627	0.166	0.030
-704.587	-40.387	0.113	0.059
-703.572	-23.700	0.091	-0.055
-702.558	1.865	0.039	0.028
-701.543	800.000	-0.084	0.368
-700.529	-78.355	0.111	-0.038
-699.514	-140.445	0.346	0.036
-698.499	-200.000	0.026	0.265
-697.485	800.000	-0.031	0.124
-696.470	24.759	-0.128	-0.106
-695.456	107.505	-0.048	0.057
-694.441	-32.938	0.141	0.079
-693.426	-126.508	0.267	0.040
-692.412	370.402	-0.114	0.232
-691.397	-194.658	0.414	-0.003
-690.383	-11.159	-0.169	0.112
-689.368	457.608	-0.074	0.166
-688.354	-114.762	0.356	0.068
-687.339	800.000	0.038	-0.108
-686.324	73.003	0.141	-0.148
-685.310	-7.640	-0.080	0.054
-684.295	-200.000	0.026	-0.166
-683.281	-200.000	0.016	-0.232
-682.266	-78.437	0.279	-0.096
-681.251	107.766	-0.109	0.131
-680.237	10.514	-0.268	-0.205
-679.222	-80.242	-0.131	0.044
-678.208	334.224	0.050	0.097
-677.193	-200.000	-0.015	-0.367
-676.178	197.850	-0.100	-0.154
-675.164	98.754	0.083	0.097
-674.149	-200.000	-0.109	0.000
-673.135	-200.000	-0.018	0.082
-672.120	377.159	-0.179	-0.368
-671.105	800.000	0.067	-0.274
-670.091	-128.224	0.328	-0.047
-669.076	15.295	0.193	0.152
-668.062	177.582	0.088	-0.129
-667.047	43.608	0.047	0.043
-666.032	45.892	0.229	0.213
-665.018	40.144	-0.058	0.052
-664.003	244.546	0.110	-0.186
-662.989	-145.295	0.219	-0.020
-661.974	-186.457	0.152	0.002
-660.959	204.593	-0.231	-0.359
-659.945	643.087	-0.050	-0.127
-658.930	334.638	-0.115	-0.223
-657.916	-82.185	0.212	0.069
-656.901	-131.760	-0.088	0.012
-655.886	-28.975	-0.087	-0.050
-654.872	-81.780	0.130	0.043
-653.857	78.762	-0.196	0.210
-652.843	-78.875	0.626	0.214
-651.828	800.000	0.073	-0.206
-650.814	18.913	-0.230	0.185
-649.799	59.724	0.038	0.038
-648.784	800.000	-0.071	-0.248
-647.770	463.722	0.142	0.319
-646.755	-96.080	0.114	0.030
-645.741	-200.000	-0.260	0.000
-644.726	-200.000	-0.030	0.216
-643.711	300.955	0.158	0.293
-642.697	-200.000	0.014	-0.310
-641.682	-159.486	0.260	0.015
-640.668	800.000	0.018	0.054
-639.653	-54.874	0.191	0.087
-638.638	800.000	0.053	0.206
-637.624	-97.410	-0.347	-0.091
-636.609	318.913	0.037	-0.070
-635.595	-154.554	0.127	-0.009
-634.580	-33.570	-0.276	0.153
-633.565	78.014	-0.025	-0.027
-632.551	11.340	-0.295	-0.226
-631.536	-200.000	0.009	-0.556
-630.522	30.162	0.065	0.055
-629.507	413.406	-0.041	-0.087
-628.492	288.315	0.115	0.209
-627.478	-200.000	0.403	0.001
-626.463	358.597	0.101	0.203
-625.449	-182.795	-0.314	-0.006
-624.434	20.458	-0.167	-0.135
-623.419	-200.000	-0.018	0.120
-622.405	269.022	0.059	0.103
-621.390	800.000	-0.088	-0.385
-620.376	-158.361	-0.204	-0.012
-619.361	-51.868	0.037	0.017
-618.346	598.914	0.109	0.271
-617.332	-137.518	-0.167	-0.019
-616.317	-136.883	0.258	-0.030
-615.303	10.936	-0.113	0.087
-614.288	-140.590	-0.197	0.020
-613.273	11.785	-0.167	-0.128
-612.259	800.000	0.044	-0.169
-611.244	205.388	-0.057	-0.089
-610.230	-73.343	0.435	-0.159
-609.215	-22.196	0.292	-0.177
-608.201	-123.602	-0.087	0.014
-607.186	93.242	-0.159	0.181
-606.171	61.099	-0.174	-0.173
-605.157	242.524	-0.103	0.173
-604.142	-69.113	-0.049	-0.019
-603.128	-95.517	0.248	0.067
-602.113	-200.000	0.002	-0.010
-601.098	-38.883	-0.198	-0.104
-600.084	-55.936	0.184	0.082
-599.069	167.072	-0.065	0.092
-598.055	-87.518	0.345	0.104
-597.040	-51.038	0.037	0.017
-596.025	-198.780	-0.188	-0.001
-595.011	53.515	0.123	-0.118
-593.996	323.215	-0.061	0.117
-592.982	13.308	-0.271	-0.210
-591.967	-24.321	0.108	-0.065
-590.952	77.473	-0.265	-0.282
-589.938	-28.779	0.100	0.058
-588.923	398.170	0.037	-0.078
-587.909	-200.000	-0.004	0.150
-586.894	-90.077	-0.493	-0.144
-585.879	-68.240	0.207	-0.080
-584.865	800.000	0.060	-0.239
-583.850	-97.088	-0.226	-0.059
-582.836	-17.193	-0.366	-0.231
-581.821	99.998	-0.178	-0.206
-580.806	17.403	0.204	-0.162
-579.792	-90.695	-0.321	-0.093
-578.777	88.284	-0.087	-0.097
-577.763	-130.988	-0.379	-0.051
-576.748	-200.000	-0.021	-0.233
-575.733	-143.017	0.094	-0.009
-574.719	-143.875	0.103	-0.010
-573.704	763.788	-0.018	-0.050
-572.690	800.000	-0.023	-0.075
-571.675	332.424	0.162	-0.313
-570.661	48.937	-0.089	0.084
-569.646	235.389	0.041	0.067
-568.631	57.107	0.111	0.108
-567.617	-34.744	0.134	0.073
-566.602	19.439	0.246	0.198
-565.588	-122.281	-0.213	-0.035
-564.573	-117.561	0.158	0.028
-563.558	54.057	-0.271	-0.261
-562.544	-7.073	-0.211	0.143
-561.529	-98.797	0.260	-0.066
-560.515	4.782	-0.257	-0.189
-559.500	342.299	0.146	0.285
-558.485	-125.152	-0.379	0.058
-557.471	-200.000	0.005	-0.096
-556.456	47.950	-0.239	0.223
-555.442	485.635	-0.128	0.292
-554.427	-200.000	0.041	-0.186
-553.412	-200.000	-0.074	-0.333
-552.398	800.000	0.052	0.200
-551.383	211.289	-0.034	0.053
-550.369	81.770	0.093	-0.100
-549.354	17.493	0.143	0.114
-548.339	29.662	0.101	0.086
-547.325	268.220	0.134	-0.234
-546.310	500.403	-0.076	-0.174
-545.296	800.000	0.124	-0.340
-544.281	800.000	-0.090	-0.310
-543.266	409.415	-0.076	-0.161
-542.252	800.000	-0.078	0.290
-541.237	254.861	-0.145	-0.248
-540.223	319.257	-0.076	0.144
-539.208	-49.944	-0.181	-0.086
-538.193	510.056	0.012	-0.027
-537.179	-174.714	0.126	0.004
-536.164	-28.670	0.216	-0.124
-535.150	-200.000	-0.001	0.087
-534.135	54.293	-0.057	0.055
-533.121	-161.660	-0.279	0.014
-532.106	19.959	0.113	-0.091
-531.091	-182.482	0.251	-0.005
-530.077	-109.268	-0.265	0.056
-529.062	-200.000	-0.003	-0.189
-528.048	-149.893	0.230	0.018
-527.033	-200.000	0.032	0.335
-526.018	800.000	0.089	0.284
-525.004	137.823	0.119	-0.156
-523.989	-200.000	0.022	-0.225
-522.975	-200.000	0.006	-0.142
-521.960	-113.893	-0.141	-0.027
-520.945	96.670	0.118	-0.134
-519.931	137.569	-0.202	0.264
-518.916	-200.000	0.008	-0.108
-517.902	307.334	-0.082	-0.153
-516.887	-97.489	-0.112	-0.029
-515.872	800.000	0.092	-0.256
-514.858	-107.426	-0.216	-0.047
-513.843	191.455	0.009	0.013
-512.829	62.822	-0.365	-0.364
-511.814	800.000	0.027	-0.085
-510.799	-48.773	-0.185	-0.088
-509.785	353.757	-0.173	-0.343
-508.770	192.436	-0.042	-0.063
-507.756	-101.526	-0.308	0.075
-506.741	138.530	-0.154	0.201
-505.726	-121.242	0.158	0.026
-504.712	-164.460	0.160	0.007
-503.697	-6.574	-0.273	0.185
-502.683	-114.528	0.307	-0.059
-501.668	193.816	-0.037	-0.055
-500.653	721.039	-0.072	-0.190
-499.639	290.801	0.137	-0.248
-498.624	27.476	-0.239	-0.200
-497.610	593.229	0.152	0.373
-496.595	800.000	0.051	-0.169
-495.581	24.247	-0.048	-0.040
-494.566	167.708	0.080	-0.114
-493.551	800.000	0.013	0.041
-492.537	800.000	-0.039	-0.113
-491.522	-200.000	-0.004	0.215
-490.508	49.520	-0.067	-0.063
-489.493	106.410	0.065	0.077
-488.478	165.317	0.140	-0.198
-487.464	-139.767	0.238	-0.025
-486.449	189.711	-0.082	-0.123
-485.435	-49.166	-0.302	0.144
-484.420	68.663	0.146	0.150
-483.405	31.817	0.056	-0.048
-482.391	800.000	-0.070	0.278
-481.376	-200.000	-0.071	-0.000
-480.362	-38.954	-0.072	0.038
-479.347	-27.503	0.069	-0.040
-478.332	-139.513	-0.149	-0.016
-477.318	65.317	-0.113	-0.113
-476.303	-16.717	0.140	0.088
-475.289	-39.905	-0.096	0.050
-474.274	11.658	-0.128	-0.098
-473.259	-118.323	0.062	0.011
-472.245	131.005	0.190	-0.244
-471.230	-134.631	-0.296	0.036
-470.216	252.974	0.112	0.189
-469.201	-118.382	0.208	0.037
-468.186	-11.827	-0.267	-0.174
-467.172	62.594	0.083	0.082
-466.157	-151.710	-0.138	-0.010
-465.143	-144.731	0.278	-0.025
-464.128	-200.000	-0.057	-0.355
-463.113	472.474	-0.047	0.105
-462.099	800.000	0.051	-0.186
-461.084	217.986	-0.211	-0.335
-460.070	305.395	0.064	0.119
-459.055	11.116	-0.136	-0.104
-458.040	329.243	-0.160	-0.306
-457.026	90.708	-0.087	0.096
-456.011	800.000	0.009	0.038
-454.997	54.881	0.294	0.282
-453.982	-91.456	0.238	0.068
-452.968	27.601	0.216	0.181
-451.953	173.198	-0.227	0.325
-450.938	152.812	-0.275	0.374
-449.924	-125.686	0.085	-0.013
-448.909	-133.515	0.243	-0.030
-447.895	-141.492	0.357	-0.036
-446.880	-200.000	0.047	-0.476
-445.865	-200.000	-0.015	0.103
-444.851	-39.743	-0.180	0.094
-443.836	170.801	0.224	0.319
-442.822	-144.668	-0.200	-0.018
-441.807	70.639	0.132	0.136
-440.792	752.122	0.036	0.096
-439.778	559.012	-0.057	0.137
-438.763	-53.014	0.092	0.042
-437.749	82.969	-0.149	-0.161
-436.734	-96.997	-0.184	0.048
-435.719	106.127	0.198	-0.233
-434.705	31.202	-0.095	0.081
-433.690	-34.233	-0.053	-0.029
-432.676	-11.392	0.040	-0.026
-431.661	6.136	0.060	-0.044
-430.646	257.431	0.126	0.215
-429.632	38.117	0.146	0.129
-428.617	-99.802	-0.187	0.047
-427.603	800.000	-0.071	0.220
-426.588	-103.683	0.160	-0.037
-425.573	16.506	-0.203	0.160
-424.559	373.834	-0.107	0.216
-423.544	-200.000	0.021	-0.218
-422.530	-108.844	0.038	0.008
-421.515	-200.000	-0.075	-0.471
-420.500	800.000	0.076	0.242
-419.486	-200.000	-0.036	-0.237
-418.471	-95.605	0.371	0.099
-417.457	-200.000	-0.007	-0.063
-416.442	1.817	0.231	-0.165
-415.428	-165.010	0.158	0.007
-414.413	95.944	0.130	-0.147
-413.398	8.222	0.161	-0.120
-412.384	-104.988	0.465	0.106
-411.369	67.327	-0.163	-0.166
-410.355	-68.775	-0.325	0.125
-409.340	800.000	-0.013	0.050
-408.325	-143.851	0.118	-0.011
-407.311	-82.509	-0.181	0.058
-406.296	-200.000	-0.059	0.349
-405.282	-168.962	-0.307	0.011
-404.267	132.126	0.005	0.006
-403.252	109.611	0.083	0.098
-402.238	558.964	0.083	0.198
-401.223	-11.833	0.351	0.229
-400.209	197.526	-0.121	0.184
-399.194	64.286	-0.138	0.138
-398.179	-49.981	0.347	-0.163
-397.165	-59.349	-0.280	0.120
-396.150	-142.168	-0.160	-0.016
-395.136	-36.716	0.096	-0.051
-394.121	240.873	-0.096	0.159
-393.106	-197.288	-0.141	0.001
-392.092	-95.121	0.262	0.070
-391.077	94.170	0.249	0.280
-390.063	326.442	0.172	0.326
-389.048	-200.000	-0.001	0.054
-388.033	-136.667	0.477	0.055
-387.019	61.885	0.081	0.080
-386.004	252.372	0.095	0.161
-384.990	-18.683	0.133	0.082
-383.975	26.036	0.134	0.111
-382.960	329.344	0.178	-0.340
-381.946	-110.679	-0.116	0.024
-380.931	-200.000	0.022	0.361
-379.917	42.070	0.122	0.110
-378.902	800.000	-0.059	-0.194
-377.888	17.887	0.125	-0.099
-376.873	54.948	0.219	-0.210
-375.858	-20.504	0.109	0.067
-374.844	159.139	0.100	-0.138
-373.829	-179.945	0.257	0.005
-372.815	789.616	-0.030	-0.083
-371.800	-200.000	0.052	-0.270
-370.785	267.931	0.019	-0.033
-369.771	-85.872	-0.031	0.010
-368.756	116.888	0.151	-0.184
-367.742	134.423	-0.162	0.209
-366.727	23.295	-0.205	0.167
-365.712	84.841	-0.062	0.067
-364.698	-200.000	-0.240	0.001
-363.683	621.155	0.090	-0.226
-362.669	141.144	-0.071	0.094
-361.654	32.749	0.040	0.035
-360.639	-200.000	0.008	-0.132
-359.625	193.941	-0.257	-0.385
-358.610	-200.000	-0.021	-0.243
-357.596	-200.000	-0.016	-0.322
-356.581	49.331	-0.178	-0.166
-355.566	-131.615	0.156	0.020
-354.552	23.660	-0.317	0.259
-353.537	-200.000	0.002	0.309
-352.523	183.193	-0.056	-0.082
-351.508	-131.293	-0.086	-0.011
-350.493	40.530	-0.213	-0.191
-349.479	147.735	-0.307	-0.410
-348.464	800.000	0.102	-0.292
-347.450	118.723	-0.022	0.027
-346.435	516.024	-0.112	-0.258
-345.420	-0.358	0.082	0.058
-344.406	-120.858	0.323	0.054
-343.391	800.000	-0.069	0.229
-342.377	112.540	-0.054	0.065
-341.362	552.880	0.058	0.137
-340.348	154.959	0.266	0.362
-339.333	-44.514	0.424	-0.210
-338.318	25.989	-0.342	0.283
-337.304	32.596	0.037	-0.032
-336.289	-25.894	-0.449	0.262
-335.275	360.920	-0.047	-0.094
-334.260	-134.401	0.133	-0.016
-333.245	-155.583	-0.180	-0.011
-332.231	-80.492	-0.084	0.028
-331.216	60.724	0.071	0.069
-330.202	-200.000	-0.014	-0.086
-329.187	800.000	-0.035	0.149
-328.172	2.386	-0.078	0.056
-327.158	-46.411	0.352	-0.171
-326.143	-108.945	-0.487	0.103
-325.129	164.180	0.210	-0.294
-324.114	800.000	0.026	0.086
-323.099	436.433	0.041	-0.089
-322.085	413.010	0.028	0.060
-321.070	-118.635	-0.342	0.060
-320.056	449.959	-0.148	0.322
-319.041	-200.000	-0.020	0.114
-318.026	103.547	0.087	0.101
-317.012	38.299	-0.062	-0.055
-315.997	-78.494	0.409	-0.139
-314.983	-200.000	0.075	-0.399
-313.968	224.147	0.131	0.210
-312.953	-68.552	0.129	0.049
-311.939	-189.209	-0.329	-0.004
-310.924	-78.182	0.277	0.094
-309.910	96.811	0.193	0.219
-308.895	172.958	0.279	-0.398
-307.880	-200.000	0.006	-0.077
-306.866	-196.217	0.232	0.002
-305.851	41.570	0.144	-0.129
-304.837	-200.000	0.076	-0.336
-303.822	-10.798	0.070	0.046
-302.807	800.000	-0.123	0.344
-301.793	800.000	-0.049	0.184
-300.778	-132.367	0.050	0.006
-299.764	-96.117	0.203	0.053
-298.749	5.853	0.240	0.175
-297.735	-200.000	-0.071	0.359
-296.720	-40.356	-0.042	-0.021
-295.705	-60.435	-0.186	-0.078
-294.691	126.796	-0.177	-0.222
-293.676	-145.085	-0.333	0.030
-292.662	101.247	0.090	-0.104
-291.647	-175.956	0.220	0.006
-290.632	-93.247	0.106	0.029
-289.618	-200.000	-0.034	0.258
-288.603	800.000	-0.155	0.510
-287.589	-163.818	-0.157	-0.007
-286.574	-74.362	0.171	0.061
-285.559	-6.059	0.103	0.069
-284.545	-200.000	0.011	-0.234
-283.530	89.826	-0.129	-0.142
-282.516	68.292	-0.399	0.404
-281.501	-200.000	0.083	0.413
-280.486	-85.301	-0.097	0.030
-279.472	730.295	0.029	-0.075
-278.457	24.963	-0.105	0.086
-277.443	800.000	0.065	-0.212
-276.428	-8.955	0.133	0.088
-275.413	-76.389	0.214	-0.074
-274.399	-25.269	-0.141	-0.082
-273.384	-69.742	0.416	0.157
-272.370	-91.782	0.236	-0.066
-271.355	499.682	-0.107	0.244
-270.340	117.670	-0.135	-0.164
-269.326	489.873	0.112	0.254
-268.311	-71.430	-0.168	-0.062
-267.297	-200.000	0.045	-0.232
-266.282	465.154	0.010	-0.021
-265.267	-20.208	0.124	0.075
-264.253	-200.000	-0.021	0.113
-263.238	113.148	0.144	0.173
-262.224	-133.683	-0.236	-0.029
-261.209	-8.869	0.285	0.188
-260.195	121.211	-0.095	-0.117
-259.180	425.173	-0.105	-0.222
-258.165	-25.831	0.211	0.123
-257.151	-149.129	-0.186	0.015
-256.136	-142.296	-0.387	-0.038
-255.122	479.240	0.108	-0.241
-254.107	-148.139	0.417	-0.034
-253.092	-20.001	0.119	-0.072
-252.078	-9.746	-0.268	0.177
-251.063	388.417	0.093	0.189
-250.049	-67.442	-0.153	0.059
-249.034	-200.000	0.049	0.216
-248.019	94.842	0.207	-0.233
-247.005	-66.593	-0.233	-0.091
-245.990	800.000	-0.119	-0.372
-244.976	73.272	0.164	0.170
-243.961	-17.129	0.342	-0.213
-242.946	-200.000	0.005	-0.186
-241.932	-200.000	-0.019	0.091
-240.917	-99.518	0.247	0.061
-239.903	-74.251	0.312	0.111
-238.888	-200.000	-0.011	0.103
-237.873	800.000	0.094	0.386
-236.859	-200.000	0.007	-0.165
-235.844	800.000	-0.220	-0.620
-234.830	-200.000	0.033	0.152
-233.815	-200.000	-0.021	0.189
-232.800	-200.000	-0.012	-0.178
-231.786	-104.312	0.126	-0.029
-230.771	-200.000	0.055	0.269
-229.757	800.000	-0.113	0.358
-228.742	-200.000	-0.047	-0.370
-227.727	-54.189	0.285	-0.128
-226.713	-148.223	0.022	0.002
-225.698	-4.061	0.200	0.137
-224.684	667.120	0.045	0.115
-223.669	382.680	-0.136	0.275
-222.655	73.469	-0.041	-0.042
-221.640	-164.400	-0.143	-0.006
-220.625	-34.287	0.078	-0.042
-219.611	531.287	-0.074	-0.173
-218.596	168.077	-0.073	-0.102
-217.582	-53.211	-0.122	-0.055
-216.567	272.356	-0.034	0.059
-215.552	99.431	0.126	0.144
-214.538	3.527	-0.107	0.077
-213.523	-85.641	0.416	0.128
-212.509	562.457	-0.087	-0.209
-211.494	800.000	-0.030	-0.106
-210.479	-200.000	0.002	-0.025
-209.465	-162.336	0.410	-0.020
-208.450	-200.000	-0.009	0.066
-207.436	163.996	-0.135	-0.188
-206.421	264.466	0.095	0.162
-205.406	546.110	0.005	-0.011
-204.392	800.000	0.051	0.168
-203.377	-34.689	0.124	0.067
-202.363	800.000	-0.080	-0.318
-201.348	-68.118	-0.334	0.128
-200.333	95.131	0.126	0.142
-199.319	-200.000	-0.007	0.344
-198.304	41.525	0.219	0.195
-197.290	-200.000	-0.017	-0.199
-196.275	244.869	-0.053	-0.088
-195.260	-81.536	-0.345	0.112
-194.246	42.544	0.063	-0.056
-193.231	-38.290	-0.111	0.058
-192.217	667.906	-0.058	-0.147
-191.202	-85.592	-0.148	-0.045
-190.187	-200.000	0.004	-0.064
-189.173	-101.335	-0.093	-0.022
-188.158	-187.041	-0.175	0.002
-187.144	800.000	-0.021	-0.061
-186.129	-200.000	0.002	-0.125
-185.114	86.454	0.078	-0.085
-184.100	197.760	-0.049	0.073
-183.085	37.203	-0.158	0.138
-182.071	55.330	-0.256	-0.244
-181.056	-9.113	0.037	-0.024
-180.042	-90.910	-0.320	0.091
-179.027	80.846	0.060	-0.063
-178.012	-32.495	-0.113	0.062
-176.998	722.373	-0.047	-0.124
-175.983	19.296	0.154	0.122
-174.969	800.000	-0.054	0.185
-173.954	140.953	0.184	0.239
-172.939	21.138	-0.053	-0.042
-171.925	-36.481	-0.298	0.158
-170.910	-96.137	-0.141	0.037
-169.896	-200.000	0.005	-0.052
-168.881	-127.568	-0.195	-0.028
-167.866	800.000	0.015	0.054
-166.852	312.284	-0.083	-0.153
-165.837	646.010	0.080	0.202
-164.823	641.759	0.028	0.070
-163.808	60.875	0.223	0.217
-162.793	166.414	0.119	-0.166
-161.779	179.979	0.251	0.362
-160.764	-77.198	-0.146	-0.050
-159.750	263.620	0.232	0.396
-158.735	-200.000	0.020	-0.108
-157.720	-200.000	0.007	-0.150
-156.706	-200.000	0.011	0.265
-155.691	435.058	-0.042	0.089
-154.677	92.374	-0.174	-0.193
-153.662	800.000	0.083	-0.253
-152.647	182.478	0.029	0.043
-151.633	-200.000	0.038	0.278
-150.618	362.034	-0.085	0.168
-149.604	800.000	-0.102	0.309
-148.589	-120.255	0.273	0.046
-147.574	450.567	-0.130	0.281
-146.560	348.294	0.126	0.245
-145.545	30.288	-0.281	0.236
-144.531	114.476	-0.167	-0.200
-143.516	-85.213	0.375	0.115
-142.502	-33.603	-0.224	-0.122
-141.487	317.803	0.112	0.207
-140.472	800.000	0.084	-0.331
-139.458	800.000	-0.045	-0.124
-138.443	-57.105	-0.041	0.018
-137.429	199.911	0.078	-0.118
-136.414	189.878	0.108	-0.159
-135.399	359.883	-0.258	0.507
-134.385	456.003	0.141	0.308
-133.370	141.368	0.114	0.148
-132.356	-143.248	0.065	-0.006
-131.341	491.887	-0.105	-0.236
-130.326	-84.783	-0.142	-0.044
-129.312	-65.130	0.082	0.032
-128.297	252.610	-0.101	-0.169
-127.283	-200.000	-0.021	0.240
-126.268	800.000	0.063	-0.174
-125.253	800.000	0.095	0.298
-124.239	-54.763	-0.234	-0.104
-123.224	-49.893	-0.070	-0.033
-122.210	254.605	0.169	-0.284
-121.195	800.000	0.014	0.057
-120.180	-43.279	-0.100	-0.050
-119.166	800.000	0.117	0.409
-118.151	538.918	0.024	-0.055
-117.137	-200.000	-0.011	0.238
-116.122	152.356	-0.131	0.176
-115.107	-83.223	-0.136	-0.043
-114.093	-200.000	0.054	-0.391
-113.078	800.000	-0.019	0.068
-112.064	-29.794	-0.195	-0.109
-111.049	53.618	-0.271	0.255
-110.034	-44.278	0.102	-0.050
-109.020	-200.000	0.001	-0.233
-108.005	-78.022	0.229	0.077
-106.991	-69.846	0.341	0.128
-105.976	165.279	-0.163	0.226
-104.962	-67.209	0.207	0.080
-103.947	-39.996	0.296	0.152
-102.932	-200.000	-0.030	-0.213
-101.918	-73.031	0.021	-0.008
-100.903	-21.549	0.191	0.114
-99.889	78.329	-0.116	-0.122
-98.874	445.691	-0.057	0.123
-97.859	4.697	0.176	0.127
-96.845	-200.000	0.012	-0.065
-95.830	800.000	0.074	0.228
-94.816	-0.943	0.230	-0.160
-93.801	192.984	-0.170	-0.252
-92.786	247.664	0.116	0.192
-91.772	-200.000	0.024	-0.315
-90.757	-200.000	-0.015	-0.221
-89.743	-19.470	-0.156	-0.095
-88.728	-200.000	-0.052	-0.438
-87.713	46.015	0.274	0.249
-86.699	168.821	0.108	0.152
-85.684	190.509	-0.249	-0.367
-84.670	-200.000	-0.071	-0.471
-83.655	-51.670	-0.254	0.116
-82.640	171.210	0.135	-0.191
-81.626	431.970	0.129	-0.274
-80.611	54.919	-0.375	0.355
-79.597	-82.520	0.266	0.085
-78.582	36.372	-0.245	0.212
-77.567	137.569	0.088	0.113
-76.553	800.000	0.036	0.116
-75.538	-128.482	0.259	-0.036
-74.524	711.310	0.117	-0.304
-73.509	110.421	0.231	-0.272
-72.494	23.086	-0.204	0.164
-71.480	-200.000	-0.001	-0.204
-70.465	-53.452	-0.203	0.091
-69.451	102.792	0.297	0.341
-68.436	341.394	0.072	-0.138
-67.422	18.269	-0.344	-0.269
-66.407	-94.817	0.094	0.025
-65.392	-72.231	-0.292	0.106
-64.378	-60.464	-0.418	-0.174
-63.363	-78.841	0.104	-0.035
-62.349	-103.429	0.174	0.040
-61.334	101.217	-0.936	-1.068
-60.319	96.973	0.618	0.694
-59.305	-200.000	-0.004	-1.122
-58.290	180.254	0.899	1.292
-57.276	-200.000	0.132	1.253
-56.261	-200.000	114.003	643.639
-55.246	462.507	1513.141	3309.111
-54.232	146.141	2681.277	3524.714
-53.217	103.511	2157.937	2481.030
-52.203	38.799	1604.272	1403.352
-51.188	30.507	1350.908	1131.441
-50.173	27.694	1312.016	1082.163
-49.159	55.658	1367.451	1297.684
-48.144	53.938	1382.443	1301.491
-47.130	30.778	1338.364	1122.388
-46.115	27.481	1320.193	1087.457
-45.100	27.211	1315.739	1082.141
-44.086	27.205	1312.745	1079.601
-43.071	27.134	1310.697	1077.451
-42.057	27.198	1308.566	1076.037
-41.042	27.168	1307.200	1074.693
-40.027	27.297	1305.132	1073.714
-39.013	27.246	1303.393	1071.937
-37.998	27.149	1301.591	1069.846
-36.984	27.281	1299.915	1069.197
-35.969	27.389	1297.700	1067.971
-34.954	27.409	1296.210	1066.816
-33.940	27.328	1295.356	1065.597
-32.925	27.366	1293.994	1064.654
-31.911	27.527	1292.204	1064.085
-30.896	27.421	1290.409	1061.947
-29.881	27.531	1288.883	1061.287
-28.867	27.511	1287.714	1060.167
-27.852	27.597	1286.157	1059.343
-26.838	27.563	1285.209	1058.320
-25.823	27.382	1283.781	1056.055
-24.809	27.433	1282.247	1055.044
-23.794	27.425	1281.025	1053.951
-22.779	27.400	1279.766	1052.731
-21.765	27.549	1278.419	1052.442
-20.750	27.475	1276.837	1050.667
-19.736	27.444	1275.814	1049.610
-18.721	27.418	1274.429	1048.278
-17.706	27.248	1273.966	1046.873
-16.692	27.292	1272.905	1046.217
-15.677	27.334	1271.990	1045.662
-14.663	27.329	1270.501	1044.369
-13.648	27.358	1269.360	1043.557
-12.633	27.326	1267.887	1042.120
-11.619	27.291	1267.638	1041.675
-10.604	27.329	1266.572	1040.973
-9.590	27.267	1265.798	1039.939
-8.575	27.354	1264.384	1039.237
-7.560	27.208	1264.047	1038.081
-6.546	27.400	1262.369	1037.758
-5.531	27.406	1261.827	1037.308
-4.517	27.379	1260.859	1036.314
-3.502	27.449	1259.904	1035.887
-2.487	27.204	1259.461	1034.090
-1.473	27.277	1255.109	1030.888
-0.458	26.006	1239.779	1011.136
0.556	21.317	1223.794	974.683
1.571	17.855	1230.503	960.489
2.586	17.007	1245.284	967.107
3.600	17.095	1234.690	959.294
4.615	15.893	1168.370	901.252
5.629	13.143	1101.925	836.026
6.644	11.578	1086.136	816.162
7.659	11.582	1083.664	814.248
8.673	11.517	1082.287	812.820
9.688	11.543	1081.047	811.946
10.702	11.630	1079.062	810.817
11.717	13.300	1080.250	819.922
12.731	16.201	1083.567	836.777
13.746	17.827	1085.216	846.045
14.761	17.759	1084.928	845.409
15.775	16.793	1082.731	838.841
16.790	15.778	1080.415	831.955
17.804	15.014	1078.737	826.814
18.819	14.575	1077.928	823.953
19.834	14.309	1076.645	821.586
20.848	13.969	1076.081	819.409
21.863	13.865	1074.865	817.897
22.877	13.790	1074.115	816.886
23.892	13.611	1073.766	815.667
24.907	13.596	1072.613	814.643
25.921	13.667	1072.037	814.487
26.936	13.746	1070.617	813.723
27.950	13.785	1069.117	812.702
28.965	13.797	1067.998	811.835
29.980	13.846	1065.933	810.435
30.994	13.874	1065.036	809.817
32.009	13.934	1064.085	809.314
33.023	13.967	1062.799	808.424
34.038	13.769	1061.869	806.684
35.053	13.841	1061.232	806.478
36.067	13.747	1060.401	805.318
37.082	13.983	1059.069	805.381
38.096	13.856	1058.504	804.264
39.111	13.785	1058.215	803.632
40.126	13.785	1056.575	802.311
41.140	13.611	1055.168	800.333
42.155	13.653	1054.008	799.588
43.169	13.561	1053.558	798.731
44.184	13.568	1051.855	797.403
45.199	13.531	1051.133	796.606
46.213	13.616	1050.041	796.119
47.228	13.748	1049.092	795.960
48.242	13.747	1048.203	795.212
49.257	13.688	1047.223	794.112
50.271	13.680	1046.150	793.191
51.286	13.678	1045.625	792.714
52.301	13.770	1044.505	792.235
53.315	13.741	1043.169	791.012
54.330	13.613	1042.495	789.821
55.344	13.699	1041.136	789.132
56.359	13.714	1040.293	788.492
57.374	13.704	1039.426	787.719
58.388	13.589	1038.677	786.535
59.403	13.741	1037.179	786.052
60.417	13.661	1036.773	785.295
61.432	13.556	1036.268	784.345
62.447	13.607	1034.696	783.327
63.461	13.548	1034.316	782.694
64.476	13.559	1033.218	781.846
65.490	13.485	1032.579	780.942
66.505	13.534	1031.899	780.592
67.520	13.566	1031.388	780.285
68.534	13.693	1030.205	779.918
69.549	13.585	1029.827	779.059
70.563	13.607	1028.941	778.422
71.578	13.624	1027.902	777.647
72.593	13.499	1027.454	776.650
73.607	13.413	1027.151	775.952
74.622	13.437	1026.375	775.409
75.636	13.502	1025.427	774.928
76.651	13.523	1024.708	774.413
77.666	13.509	1023.851	773.634
78.680	13.557	1023.353	773.412
79.695	13.596	1022.577	772.941
80.709	13.730	1022.104	773.135
81.724	13.634	1021.489	772.159
82.739	13.807	1020.152	771.882
83.753	13.829	1019.875	771.705
84.768	13.914	1019.257	771.565
85.782	13.916	1017.982	770.542
86.797	13.863	1017.057	769.530
87.812	13.738	1016.439	768.415
88.826	13.673	1015.374	767.238
89.841	13.792	1014.359	766.955
90.855	13.859	1013.348	766.430
91.870	13.772	1013.041	765.732
92.884	13.894	1011.690	765.203
93.899	13.831	1011.114	764.410
94.914	14.063	1009.840	764.445
95.928	14.020	1009.405	763.852
96.943	13.918	1008.922	762.949
97.957	13.829	1007.697	761.547
98.972	13.836	1006.979	760.972
99.987	13.886	1005.982	760.377
101.001	13.961	1004.639	759.640
102.016	13.887	1004.252	758.943
103.030	14.006	1003.207	758.629
104.045	13.853	1002.665	757.454
105.060	13.822	1001.776	756.572
106.074	13.744	1000.749	755.373
107.089	13.691	999.826	754.371
108.103	13.737	998.801	753.740
109.118	13.577	997.589	752.029
110.133	13.672	996.477	751.558
111.147	13.686	995.852	751.080
112.162	13.663	995.326	750.515
113.176	13.753	994.305	750.084
114.191	13.805	993.457	749.616
115.206	13.806	992.717	748.995
116.220	13.783	991.800	748.132
117.235	13.781	990.553	747.116
118.249	13.745	989.904	746.398
119.264	13.701	989.558	745.876
120.279	13.871	988.629	745.874
121.293	13.755	987.388	744.350
122.308	13.644	986.729	743.290
123.322	13.681	985.507	742.467
124.337	13.502	985.141	741.326
125.352	13.705	983.249	740.742
126.366	13.599	982.087	739.329
127.381	13.637	980.886	738.529
128.395	13.672	980.866	738.602
129.410	13.705	979.748	737.842
130.424	13.728	978.926	737.260
131.439	13.920	977.702	737.126
132.454	13.790	977.531	736.358
133.468	13.789	976.474	735.489
134.483	13.762	975.675	734.704
135.497	13.802	974.645	734.042
136.512	13.870	973.971	733.770
137.527	13.818	973.131	732.841
138.541	13.809	972.803	732.488
139.556	13.905	971.597	731.941
140.570	13.887	970.639	731.076
141.585	13.873	970.408	730.776
142.600	13.971	969.461	730.429
143.614	14.018	968.617	729.933
144.629	14.044	968.137	729.623
145.643	13.902	967.111	728.160
146.658	13.823	966.050	726.949
147.673	13.863	965.053	726.314
148.687	13.994	964.044	726.058
149.702	13.906	963.037	724.854
150.716	13.986	962.034	724.381
151.731	13.932	961.788	723.900
152.746	13.788	961.413	722.925
153.760	14.030	960.010	722.859
154.775	14.023	959.792	722.599
155.789	14.063	959.292	722.334
156.804	14.105	958.299	721.705
157.819	13.974	957.987	720.839
158.833	14.151	957.313	721.034
159.848	14.111	956.306	720.039
160.862	14.049	955.431	719.046
161.877	14.044	954.193	718.032
162.892	13.898	953.530	716.838
163.906	13.995	952.497	716.417
164.921	14.028	951.431	715.695
165.935	14.070	950.722	715.276
166.950	14.030	949.623	714.216
167.964	14.021	948.744	713.452
168.979	14.005	948.056	712.804
169.994	14.022	947.089	712.084
171.008	14.198	946.550	712.373
172.023	14.126	946.066	711.635
173.037	14.208	944.820	710.987
174.052	14.204	944.247	710.474
175.067	14.084	943.274	709.167
176.081	14.074	943.080	708.917
177.096	14.184	942.413	708.823
178.110	14.153	941.651	708.055
179.125	14.152	940.940	707.451
180.140	14.135	940.558	707.028
181.154	14.235	940.028	706.992
182.169	14.392	939.404	707.128
183.183	14.432	938.533	706.578
184.198	14.295	937.898	705.458
185.213	14.277	937.271	704.849
186.227	14.446	936.543	704.953
187.242	14.447	936.067	704.539
188.256	14.409	935.651	704.000
189.271	14.408	935.142	703.550
190.286	14.300	933.740	701.980
191.300	14.113	933.409	700.880
192.315	14.237	932.525	700.678
193.329	14.121	932.192	699.874
194.344	14.275	931.418	699.880
195.359	14.302	931.400	699.920
196.373	14.392	930.476	699.542
197.388	14.406	930.115	699.264
198.402	14.479	929.178	698.806
199.417	14.414	929.202	698.488
200.432	14.539	928.677	698.554
201.446	14.578	927.843	698.030
202.461	14.671	927.581	698.161
203.475	14.735	926.769	697.756
204.490	14.686	925.560	696.579
205.504	14.644	925.126	696.015
206.519	14.609	924.194	695.108
207.534	14.562	923.681	694.462
208.548	14.550	923.118	693.929
209.563	14.580	922.389	693.444
210.577	14.680	921.433	693.078
211.592	14.748	920.724	692.766
212.607	14.879	919.720	692.492
213.621	14.767	919.195	691.573
214.636	14.689	918.976	691.025
215.650	14.808	917.691	690.486
216.665	14.958	916.884	690.439
217.680	14.834	916.283	689.414
218.694	14.839	916.021	689.178
219.709	14.836	915.270	688.538
220.723	14.886	914.751	688.293
221.738	14.786	913.986	687.244
222.753	14.881	912.957	686.802
223.767	14.926	912.708	686.736
224.782	15.071	912.032	686.762
225.796	14.888	911.908	685.856
226.811	14.976	910.790	685.318
227.826	14.907	910.071	684.432
228.840	14.865	909.566	683.818
229.855	14.998	908.478	683.486
230.869	14.895	907.497	682.264
231.884	14.978	906.998	682.169
232.899	14.898	906.546	681.441
233.913	14.958	905.581	680.901
234.928	14.916	905.116	680.319
235.942	14.899	904.899	680.028
236.957	14.949	904.100	679.572
237.972	14.850	903.944	678.994
238.986	14.952	902.775	678.467
240.001	14.916	902.143	677.786
241.015	15.012	901.419	677.573
242.030	15.035	901.047	677.324
243.045	15.160	900.178	677.115
244.059	15.014	899.845	676.216
245.074	15.045	899.241	675.828
246.088	15.136	898.443	675.533
247.103	15.063	897.775	674.678
248.117	15.379	896.862	675.204
249.132	15.349	896.508	674.757
250.147	15.381	895.896	674.367
251.161	15.429	895.432	674.153
252.176	15.462	894.906	673.826
253.190	15.393	894.146	672.918
254.205	15.532	893.370	672.834
255.220	15.434	892.928	672.048
256.234	15.459	892.257	671.584
257.249	15.537	891.347	671.151
258.263	15.484	890.724	670.411
259.278	15.542	889.889	669.953
260.293	15.559	889.881	669.957
261.307	15.643	888.836	669.443
262.322	15.681	888.262	669.104
263.336	15.687	887.507	668.500
264.351	15.638	886.929	667.809
265.366	15.657	886.282	667.341
266.380	15.632	886.036	666.997
267.395	15.727	884.849	666.420
268.409	15.752	884.161	665.943
269.424	15.631	883.474	664.886
270.439	15.697	882.614	664.444
271.453	15.677	882.178	663.978
272.468	15.821	880.956	663.566
273.482	15.755	880.614	662.988
274.497	15.651	880.105	662.139
275.512	15.593	880.061	661.816
276.526	15.718	879.267	661.654
277.541	15.663	878.871	661.082
278.555	15.720	878.479	660.953
279.570	15.876	877.511	660.776
280.585	15.723	877.017	659.747
281.599	15.933	875.789	659.588
282.614	15.827	875.307	658.749
283.628	15.809	874.876	658.298
284.643	15.851	874.355	658.013
285.657	15.816	873.390	657.089
286.672	16.013	872.814	657.368
287.687	15.988	872.013	656.610
288.701	15.915	871.788	656.095
289.716	15.931	871.104	655.588
290.730	15.953	870.570	655.210
291.745	15.978	869.834	654.697
292.760	16.061	869.267	654.535
293.774	15.998	868.542	653.688
294.789	16.034	868.248	653.547
295.803	15.935	867.460	652.513
296.818	16.008	866.554	652.054
297.833	16.076	866.209	652.000
298.847	16.094	865.530	651.504
299.862	16.024	864.787	650.616
300.876	16.120	864.448	650.673
301.891	16.231	863.488	650.320
302.906	16.102	863.656	649.892
303.920	16.303	862.760	649.935
304.935	16.447	862.201	650.008
305.949	16.277	861.496	648.769
306.964	16.204	861.029	648.079
307.979	16.242	860.985	648.132
308.993	16.383	860.127	647.973
310.008	16.368	859.204	647.161
311.022	16.357	858.672	646.659
312.037	16.293	858.310	646.085
313.052	16.276	857.235	645.156
314.066	16.161	857.035	644.508
315.081	16.218	856.591	644.336
316.095	16.164	855.664	643.376
317.110	16.225	855.660	643.545
318.125	16.228	854.918	642.942
319.139	16.243	854.538	642.656
320.154	16.197	853.691	641.791
321.168	16.431	852.964	642.075
322.183	16.420	852.345	641.510
323.197	16.313	851.934	640.739
324.212	16.386	851.542	640.662
325.227	16.392	850.909	640.154
326.241	16.431	850.359	639.831
327.256	16.400	849.848	639.273
328.270	16.391	849.269	638.746
329.285	16.256	848.619	637.689
330.300	16.276	848.284	637.456
331.314	16.518	847.782	637.937
332.329	16.488	847.220	637.345
333.343	16.524	846.766	637.082
334.358	16.567	846.267	636.812
335.373	16.508	846.314	636.568
336.387	16.514	846.179	636.436
337.402	16.668	845.227	636.243
338.416	16.617	845.114	635.906
339.431	16.763	844.208	635.718
340.446	16.689	844.343	635.486
341.460	16.744	843.671	635.131
342.475	16.839	843.080	634.984
343.489	16.849	842.925	634.848
344.504	16.891	842.292	634.474
345.519	16.782	841.784	633.626
346.533	16.833	841.155	633.289
347.548	16.846	840.499	632.785
348.562	16.646	840.081	631.668
349.577	16.637	839.814	631.378
350.592	16.769	838.804	631.055
351.606	16.886	837.749	630.643
352.621	16.801	837.447	630.043
353.635	16.684	837.264	629.412
354.650	16.762	836.698	629.221
355.665	16.873	835.791	628.896
356.679	16.813	835.298	628.247
357.694	17.025	834.342	628.259
358.708	17.054	833.663	627.798
359.723	17.045	833.188	627.353
360.738	16.909	832.688	626.417
361.752	17.030	831.717	626.076
362.767	17.136	831.198	626.021
363.781	17.189	831.204	626.166
364.796	17.161	830.598	625.551
365.810	17.215	830.024	625.263
366.825	17.260	829.644	625.088
367.840	17.058	829.518	624.193
368.854	17.276	828.599	624.247
369.869	17.135	828.292	623.443
370.883	17.172	827.621	623.020
371.898	17.145	827.881	623.061
372.913	17.406	826.944	623.256
373.927	17.465	826.266	622.908
374.942	17.312	825.993	622.088
375.956	17.308	825.886	621.937
376.971	17.616	824.953	622.304
377.986	17.301	825.239	621.313
379.000	17.292	824.443	620.625
380.015	17.406	823.991	620.647
381.029	17.388	823.404	620.083
382.044	17.559	822.618	620.060
383.059	17.396	822.261	619.142
384.073	17.425	821.700	618.773
385.088	17.317	821.124	617.891
386.102	17.524	820.435	618.070
387.117	17.508	819.636	617.352
388.132	17.376	819.408	616.648
389.146	17.519	818.432	616.377
390.161	17.582	818.165	616.350
391.175	17.649	817.526	616.056
392.190	17.369	817.583	615.033
393.205	17.392	816.993	614.618
394.219	17.582	816.420	614.817
395.234	17.507	815.755	613.992
396.248	17.423	815.348	613.327
397.263	17.551	814.864	613.370
398.278	17.357	814.768	612.545
399.292	17.343	814.426	612.185
400.307	17.512	814.006	612.422
401.321	17.443	813.500	611.740
402.336	17.549	812.890	611.607
403.350	17.528	812.410	611.115
404.365	17.655	812.057	611.252
405.380	17.594	811.676	610.692
406.394	17.600	811.178	610.287
407.409	17.878	810.347	610.600
408.423	17.842	810.083	610.219
409.438	17.790	810.207	610.074
410.453	17.754	809.795	609.578
411.467	17.911	808.965	609.462
412.482	17.910	808.717	609.217
413.496	18.075	808.083	609.276
414.511	17.826	808.000	608.271
415.526	17.985	807.307	608.262
416.540	18.007	806.620	607.769
417.555	17.995	806.045	607.236
418.569	17.922	806.236	607.070
419.584	18.010	805.799	607.000
420.599	18.019	805.018	606.387
421.613	111.761	1294.817	1476.963
422.628	96.429	1366.167	1477.068
