DTS Sentinel unit serial number:	SN413079Multiplexer serial number:	ORYXHardware model number:	OX4-SRSoftware version number:	ORYX F/W v4.00 Oryx Data Collector v3.7.2.0data status	okinstallation	princeton_trtdifferential loss correction	single-endedforward channel	channel 1reverse channel	N/Adate	2019/09/19time	12:42:35forward acquisition time	60.00reverse acquisition time	0.00gamma	496.2192k internal	0.2330k external	0.2330temperature offset calibration	1.0013default loss term (dB/km)	0.3790temperature slope calibration	1.0000multiplexer offset coefficient	1.0000multiplexer slope coefficient	1.0000fibre end	0.00T internal ref (°C)	27.64T ext. ref 1 (°C)	0.89T ext. ref 2 (°C)	25.73length (m)	temperature (°C)	Stokes	anti-Stokes-747.200	-95.830	-0.203	0.055
-746.185	6.589	-0.046	-0.034
-745.171	190.423	0.237	0.359
-744.156	42.349	-0.199	0.182
-743.142	-7.206	-0.266	0.181
-742.127	11.075	-0.060	0.046
-741.112	-200.000	-0.003	-0.505
-740.098	-134.649	-0.489	-0.060
-739.083	-13.437	0.135	-0.088
-738.069	-81.754	-0.304	-0.100
-737.054	30.939	0.139	0.120
-736.039	-195.667	0.296	-0.002
-735.025	127.995	0.276	-0.354
-734.010	-63.388	-0.109	0.045
-732.996	100.768	-0.125	-0.146
-731.981	46.398	-0.326	-0.304
-730.966	325.987	0.161	-0.310
-729.952	15.870	-0.149	-0.118
-728.937	-43.798	-0.193	0.098
-727.923	-200.000	0.003	0.147
-726.908	-182.501	-0.366	0.007
-725.894	-139.612	-0.207	-0.022
-724.879	50.553	-0.217	-0.206
-723.864	711.005	-0.072	0.191
-722.850	57.495	-0.209	0.206
-721.835	800.000	-0.079	-0.248
-720.821	58.103	-0.095	-0.094
-719.806	77.406	0.429	0.459
-718.791	-114.908	-0.239	0.046
-717.777	-178.464	-0.468	-0.011
-716.762	-28.911	-0.309	-0.179
-715.748	-107.296	0.348	0.077
-714.733	622.517	0.201	0.508
-713.718	21.343	-0.422	0.345
-712.704	304.122	-0.081	-0.150
-711.689	-200.000	-0.021	0.203
-710.675	156.884	-0.108	0.150
-709.660	97.978	-0.158	0.183
-708.645	-200.000	-0.003	0.027
-707.631	-22.674	-0.035	-0.021
-706.616	-45.805	-0.125	0.062
-705.602	328.243	-0.039	-0.075
-704.587	-36.016	-0.043	0.024
-703.572	-200.000	0.020	0.125
-702.558	586.279	-0.081	-0.200
-701.543	35.150	0.155	0.137
-700.529	67.198	0.151	0.155
-699.514	-200.000	-0.057	-0.283
-698.499	-21.610	-0.221	-0.136
-697.485	151.133	0.181	-0.247
-696.470	27.928	0.319	0.270
-695.456	103.027	-0.261	0.307
-694.441	18.621	0.135	-0.109
-693.426	-69.380	0.340	-0.131
-692.412	185.552	-0.103	-0.154
-691.397	335.553	0.094	-0.183
-690.383	-200.000	0.026	0.124
-689.368	125.441	0.176	-0.223
-688.354	134.478	-0.031	-0.040
-687.339	-73.249	0.354	-0.130
-686.324	131.305	-0.178	0.229
-685.310	-96.592	-0.162	0.043
-684.295	-114.071	-0.275	0.053
-683.281	-200.000	0.011	0.286
-682.266	523.104	-0.059	-0.140
-681.251	-200.000	-0.023	0.278
-680.237	690.072	0.116	0.304
-679.222	-200.000	0.034	0.175
-678.208	-132.659	-0.271	-0.035
-677.193	-18.113	0.283	-0.178
-676.178	-82.329	0.234	0.076
-675.164	-200.000	-0.050	0.228
-674.149	50.075	-0.191	-0.181
-673.135	40.310	0.118	0.106
-672.120	418.497	-0.174	-0.373
-671.105	-57.870	-0.089	-0.039
-670.091	-200.000	-0.030	0.262
-669.076	72.355	-0.198	-0.207
-668.062	-200.000	0.062	-0.297
-667.047	54.026	-0.407	0.393
-666.032	800.000	0.059	-0.218
-665.018	-133.108	-0.318	-0.040
-664.003	146.977	-0.038	0.051
-662.989	800.000	0.047	-0.201
-661.974	-82.523	-0.341	0.111
-660.959	-11.508	-0.261	-0.172
-659.945	-80.016	-0.037	-0.012
-658.930	86.954	-0.249	-0.276
-657.916	-200.000	0.023	-0.116
-656.901	643.505	0.091	-0.232
-655.886	181.493	-0.053	0.079
-654.872	-124.302	0.078	0.012
-653.857	-29.217	-0.140	-0.080
-652.843	-116.016	-0.246	0.046
-651.828	-154.430	-0.257	0.017
-650.814	-200.000	-0.107	0.472
-649.799	-200.000	-0.018	-0.104
-648.784	144.340	0.072	-0.097
-647.770	-141.187	0.156	-0.016
-646.755	29.149	-0.169	-0.144
-645.741	-68.140	0.137	-0.053
-644.726	-155.387	-0.202	-0.013
-643.711	-61.012	-0.253	0.107
-642.697	-119.396	0.208	-0.036
-641.682	-80.160	-0.250	0.084
-640.668	103.484	0.200	-0.235
-639.653	38.602	-0.097	0.087
-638.638	-200.000	0.027	-0.186
-637.624	-156.935	0.195	0.012
-636.609	-29.436	-0.078	0.045
-635.595	-200.000	0.007	-0.289
-634.580	-200.000	0.056	-0.600
-633.565	23.618	-0.099	0.081
-632.551	467.938	0.176	0.395
-631.536	566.831	-0.033	0.080
-630.522	349.604	0.108	0.213
-629.507	-128.714	0.156	0.022
-628.492	420.700	0.214	0.460
-627.478	255.000	0.109	0.188
-626.463	-94.507	0.323	0.088
-625.449	74.752	-0.108	-0.114
-624.434	164.911	-0.190	-0.269
-623.419	-95.321	0.362	0.098
-622.405	-131.339	0.237	-0.031
-621.390	-65.219	-0.225	0.091
-620.376	-200.000	-0.055	0.405
-619.361	260.590	0.099	0.172
-618.346	-200.000	0.081	0.380
-617.332	-200.000	0.039	-0.309
-616.317	-46.259	0.277	0.137
-615.303	-200.000	0.043	0.243
-614.288	273.286	0.058	0.103
-613.273	-82.527	0.092	0.030
-612.259	16.235	-0.237	0.188
-611.244	-6.530	-0.261	0.178
-610.230	800.000	0.084	0.366
-609.215	479.453	0.066	-0.149
-608.201	-200.000	0.026	0.209
-607.186	420.320	-0.110	0.237
-606.171	-24.939	0.161	0.096
-605.157	-17.701	0.190	0.119
-604.142	162.866	0.041	-0.058
-603.128	245.374	-0.150	-0.253
-602.113	257.380	-0.109	-0.187
-601.098	40.555	-0.167	-0.151
-600.084	-200.000	-0.009	-0.171
-599.069	800.000	-0.090	0.327
-598.055	-37.614	-0.321	0.171
-597.040	16.735	0.166	0.132
-596.025	-200.000	0.141	0.000
-595.011	515.332	-0.023	-0.053
-593.996	-200.000	-0.022	-0.188
-592.982	44.708	-0.068	0.062
-591.967	-141.894	0.097	-0.010
-590.952	-28.425	0.279	0.161
-589.938	-98.435	0.139	-0.036
-588.923	496.833	0.081	-0.186
-587.909	782.157	0.101	-0.278
-586.894	224.143	0.093	-0.150
-585.879	-100.018	0.015	0.004
-584.865	186.664	0.154	0.230
-583.850	-75.318	-0.310	0.111
-582.836	-133.217	-0.088	0.011
-581.821	7.540	-0.042	0.032
-580.806	-159.808	0.277	-0.015
-579.792	800.000	0.039	-0.151
-578.777	-133.042	0.240	-0.031
-577.763	-48.593	-0.370	-0.178
-576.748	218.118	-0.120	0.192
-575.733	-105.510	0.144	-0.033
-574.719	464.767	0.044	-0.098
-573.704	-12.614	0.117	0.077
-572.690	800.000	-0.030	0.122
-571.675	-12.283	-0.014	0.009
-570.661	225.971	-0.331	0.537
-569.646	208.978	0.016	0.024
-568.631	800.000	-0.070	-0.280
-567.617	144.693	0.056	0.075
-566.602	-87.615	0.210	-0.063
-565.588	-94.703	-0.212	-0.058
-564.573	-200.000	-0.021	0.183
-563.558	800.000	-0.120	-0.456
-562.544	-102.066	0.198	-0.048
-561.529	32.401	-0.244	0.211
-560.515	-63.063	0.255	0.105
-559.500	-63.776	-0.118	0.048
-558.485	-71.520	0.218	-0.081
-557.471	65.581	-0.154	0.156
-556.456	800.000	-0.086	0.286
-555.442	-200.000	0.023	0.176
-554.427	-118.845	-0.122	0.021
-553.412	50.885	-0.348	-0.329
-552.398	-200.000	-0.072	0.420
-551.383	-152.764	0.060	0.004
-550.369	-200.000	-0.032	0.206
-549.354	3.478	-0.238	-0.173
-548.339	-29.368	0.274	-0.156
-547.325	800.000	-0.082	0.353
-546.310	324.796	0.057	-0.109
-545.296	-118.163	0.099	0.018
-544.281	-188.762	-0.382	-0.005
-543.266	-25.561	0.207	-0.122
-542.252	-88.743	0.251	-0.074
-541.237	-138.484	0.117	0.013
-540.223	255.533	-0.049	-0.083
-539.208	16.106	-0.100	-0.079
-538.193	96.836	0.089	0.102
-537.179	190.353	-0.060	0.090
-536.164	-200.000	0.050	-0.534
-535.150	-85.868	0.256	-0.079
-534.135	49.798	0.280	-0.264
-533.121	114.501	0.013	0.015
-532.106	358.156	-0.026	-0.051
-531.091	64.258	-0.043	0.044
-530.077	-25.038	-0.047	0.028
-529.062	-34.652	-0.183	-0.100
-528.048	12.355	-0.190	0.146
-527.033	-20.264	0.264	-0.162
-526.018	165.800	0.152	0.215
-525.004	197.558	-0.258	0.393
-523.989	26.406	0.052	-0.043
-522.975	800.000	-0.070	-0.208
-521.960	23.988	-0.161	-0.132
-520.945	800.000	-0.026	0.076
-519.931	800.000	-0.045	-0.149
-518.916	-200.000	-0.029	0.206
-517.902	297.178	0.218	-0.400
-516.887	299.383	-0.056	0.103
-515.872	-57.010	0.268	0.118
-514.858	-155.232	-0.193	0.013
-513.843	376.195	-0.156	0.318
-512.829	357.085	0.023	0.046
-511.814	-37.415	-0.135	0.072
-510.799	7.932	-0.148	-0.110
-509.785	-161.616	0.350	0.018
-508.770	-196.967	-0.150	-0.001
-507.756	58.704	0.139	-0.136
-506.741	-200.000	-0.040	0.210
-505.726	-74.555	0.360	0.129
-504.712	213.374	-0.023	0.036
-503.697	800.000	0.071	-0.261
-502.683	-7.943	-0.263	-0.177
-501.668	141.936	-0.128	-0.169
-500.653	118.102	0.200	0.246
-499.639	800.000	-0.020	0.084
-498.624	-200.000	0.014	0.087
-497.610	277.519	0.142	-0.251
-496.595	-55.015	0.085	-0.038
-495.581	96.910	0.018	0.021
-494.566	-56.906	-0.052	-0.023
-493.551	112.722	-0.081	0.098
-492.537	331.601	-0.176	-0.339
-491.522	3.149	0.309	-0.224
-490.508	-40.157	-0.182	-0.095
-489.493	-53.616	0.343	0.156
-488.478	-200.000	0.060	-0.527
-487.464	253.858	-0.285	0.486
-486.449	105.433	0.240	0.282
-485.435	392.929	-0.087	0.181
-484.420	135.860	-0.267	-0.346
-483.405	15.251	-0.127	-0.099
-482.391	-200.000	-0.045	0.312
-481.376	90.508	-0.084	0.094
-480.362	-113.754	-0.195	0.038
-479.347	-45.218	0.080	-0.039
-478.332	102.822	-0.066	-0.077
-477.318	800.000	-0.050	-0.200
-476.303	197.625	-0.056	-0.085
-475.289	146.455	0.062	0.083
-474.274	157.112	-0.253	0.349
-473.259	-200.000	-0.015	0.177
-472.245	800.000	-0.045	-0.132
-471.230	38.233	0.048	0.043
-470.216	-39.123	-0.460	0.241
-469.201	-200.000	-0.015	-0.096
-468.186	-85.293	-0.136	-0.042
-467.172	800.000	-0.073	0.203
-466.157	-24.385	-0.124	-0.073
-465.143	51.749	0.197	-0.187
-464.128	-200.000	-0.102	-0.501
-463.113	-81.268	0.195	0.064
-462.099	45.051	-0.105	-0.096
-461.084	800.000	-0.021	0.082
-460.070	104.952	0.114	0.133
-459.055	-184.228	0.529	0.009
-458.040	-116.958	-0.177	-0.032
-457.026	-84.219	0.325	-0.103
-456.011	-115.660	0.152	-0.028
-454.997	-95.558	-0.507	0.135
-453.982	45.184	0.109	0.100
-452.968	342.486	-0.080	0.156
-451.953	112.955	-0.101	0.122
-450.938	29.539	-0.125	-0.106
-449.924	243.940	-0.090	-0.150
-448.909	96.373	-0.077	0.088
-447.895	14.185	0.256	0.199
-446.880	-143.564	-0.215	-0.020
-445.865	62.735	0.142	-0.141
-444.851	-23.319	0.095	-0.057
-443.836	195.999	0.073	0.110
-442.822	65.447	-0.208	0.210
-441.807	-200.000	0.007	0.076
-440.792	-106.594	0.299	0.066
-439.778	-33.855	-0.150	-0.082
-438.763	-140.316	-0.192	0.020
-437.749	800.000	0.133	0.365
-436.734	102.056	-0.258	0.300
-435.719	-200.000	0.004	-0.198
-434.705	-200.000	-0.037	0.164
-433.690	-200.000	-0.010	-0.097
-432.676	-200.000	-0.288	0.001
-431.661	-13.990	-0.287	-0.184
-430.646	38.266	0.146	-0.130
-429.632	81.555	0.301	-0.324
-428.617	-18.434	-0.011	-0.007
-427.603	123.641	0.179	-0.223
-426.588	-200.000	0.013	-0.248
-425.573	31.553	-0.353	-0.301
-424.559	79.342	-0.271	-0.289
-423.544	-25.148	0.267	0.157
-422.530	-141.714	-0.045	-0.005
-421.515	60.504	0.198	0.194
-420.500	105.968	-0.043	-0.050
-419.486	219.281	-0.199	-0.317
-418.471	-111.584	-0.292	0.059
-417.457	-133.315	-0.183	0.023
-416.442	297.945	-0.023	0.042
-415.428	103.125	0.128	-0.149
-414.413	800.000	0.157	-0.444
-413.398	-107.862	0.258	0.056
-412.384	-80.182	0.355	-0.118
-411.369	800.000	-0.040	-0.167
-410.355	-27.542	0.138	0.080
-409.340	800.000	0.132	0.377
-408.325	800.000	-0.061	0.211
-407.311	-149.527	0.180	0.014
-406.296	708.665	0.048	0.126
-405.282	-51.717	0.317	-0.147
-404.267	57.894	-0.147	-0.143
-403.252	6.676	0.235	0.174
-402.238	-200.000	-0.038	0.249
-401.223	-18.581	-0.197	-0.122
-400.209	-87.167	-0.319	0.096
-399.194	48.580	0.122	0.113
-398.179	285.243	-0.167	-0.298
-397.165	-90.134	0.284	-0.082
-396.150	143.916	-0.080	-0.107
-395.136	-19.831	0.044	-0.027
-394.121	-188.847	-0.276	-0.003
-393.106	268.178	-0.175	-0.304
-392.092	-68.276	0.076	0.029
-391.077	325.747	-0.133	-0.252
-390.063	-41.055	0.137	0.070
-389.048	104.577	-0.106	-0.125
-388.033	-200.000	0.034	-0.222
-387.019	-200.000	-0.006	-0.129
-386.004	-58.294	-0.246	-0.106
-384.990	-200.000	0.002	0.111
-383.975	-128.829	0.049	0.007
-382.960	131.482	-0.106	0.135
-381.946	95.995	-0.175	-0.198
-380.931	800.000	-0.086	0.331
-379.917	-147.440	0.275	-0.023
-378.902	5.564	-0.257	0.189
-377.888	7.727	0.030	0.022
-376.873	-200.000	-0.001	-0.214
-375.858	-116.379	0.338	0.062
-374.844	86.560	-0.043	-0.047
-373.829	-200.000	0.035	-0.164
-372.815	13.854	-0.287	-0.222
-371.800	410.237	0.121	0.254
-370.785	188.359	0.118	0.176
-369.771	-118.278	0.267	0.047
-368.756	800.000	0.055	-0.164
-367.742	800.000	-0.072	0.280
-366.727	800.000	-0.074	-0.206
-365.712	-74.344	-0.236	-0.084
-364.698	53.973	-0.200	-0.190
-363.683	-200.000	0.002	-0.022
-362.669	10.927	-0.098	-0.074
-361.654	-200.000	0.028	0.327
-360.639	163.555	-0.090	-0.126
-359.625	75.244	0.065	-0.068
-358.610	-200.000	-0.045	0.270
-357.596	-200.000	0.144	0.000
-356.581	123.680	-0.315	0.392
-355.566	-27.271	0.096	-0.055
-354.552	-200.000	0.057	0.248
-353.537	-137.551	-0.137	0.015
-352.523	-29.257	0.135	0.077
-351.508	27.689	-0.228	0.190
-350.493	-63.224	0.132	-0.054
-349.479	-94.997	-0.317	-0.085
-348.464	-200.000	-0.037	-0.375
-347.450	232.456	-0.105	0.171
-346.435	51.436	0.190	-0.179
-345.420	-14.297	-0.255	0.163
-344.406	116.250	0.089	-0.108
-343.391	280.866	0.055	0.098
-342.377	-131.487	0.190	-0.025
-341.362	-78.399	0.419	0.142
-340.348	112.507	0.076	-0.092
-339.333	141.150	0.032	-0.042
-338.318	-30.512	0.303	-0.170
-337.304	170.799	0.106	0.151
-336.289	-85.348	-0.161	0.050
-335.275	-140.216	0.062	-0.006
-334.260	4.958	-0.152	0.111
-333.245	-152.269	-0.271	0.019
-332.231	-169.456	-0.236	-0.009
-331.216	396.809	-0.085	0.176
-330.202	-33.546	0.236	-0.129
-329.187	-67.554	-0.184	-0.071
-328.172	-200.000	-0.034	-0.231
-327.158	-200.000	0.006	-0.063
-326.143	124.480	0.218	0.272
-325.129	-142.635	-0.097	-0.009
-324.114	-200.000	-0.003	-0.092
-323.099	55.409	-0.279	-0.268
-322.085	142.378	0.150	0.198
-321.070	-52.179	-0.211	0.097
-320.056	-11.711	-0.179	-0.116
-319.041	82.120	0.260	0.279
-318.026	38.736	0.157	-0.139
-317.012	-59.711	-0.283	-0.120
-315.997	406.832	-0.055	-0.115
-314.983	-200.000	0.044	0.233
-313.968	181.107	0.192	0.279
-312.953	9.868	0.229	-0.172
-311.939	-15.740	-0.174	-0.110
-310.924	800.000	0.143	0.399
-309.910	-200.000	0.005	-0.188
-308.895	-71.743	-0.301	0.111
-307.880	-108.943	0.128	-0.027
-306.866	-82.714	-0.146	-0.047
-305.851	220.900	-0.107	-0.170
-304.837	439.592	0.047	0.102
-303.822	360.627	0.063	0.125
-302.807	-126.188	0.188	-0.028
-301.793	-177.280	-0.155	-0.004
-300.778	16.307	-0.220	0.172
-299.764	-200.000	0.063	0.274
-298.749	156.227	-0.093	-0.126
-297.735	-166.388	0.134	0.006
-296.720	-82.795	0.022	-0.007
-295.705	475.498	-0.109	-0.243
-294.691	536.392	-0.067	0.157
-293.676	-42.269	0.197	-0.099
-292.662	230.273	-0.115	-0.187
-291.647	-88.838	0.323	0.095
-290.632	-105.619	0.245	-0.055
-289.618	86.631	-0.161	0.175
-288.603	313.829	0.075	-0.139
-287.589	140.170	0.264	0.344
-286.574	263.079	0.267	-0.459
-285.559	-115.374	-0.179	0.033
-284.545	17.783	-0.161	-0.127
-283.530	-200.000	-0.013	0.437
-282.516	800.000	-0.025	0.106
-281.501	800.000	-0.088	-0.301
-280.486	90.279	-0.092	0.102
-279.472	104.244	0.163	0.190
-278.457	33.502	-0.179	-0.154
-277.443	98.688	-0.075	0.085
-276.428	-135.703	-0.140	-0.016
-275.413	800.000	0.064	0.230
-274.399	450.136	0.080	-0.175
-273.384	-200.000	0.007	0.055
-272.370	-116.776	0.097	-0.018
-271.355	57.701	0.308	0.298
-270.340	-129.802	-0.249	-0.034
-269.326	-156.918	-0.188	-0.011
-268.311	-81.921	-0.125	-0.040
-267.297	-0.732	0.125	0.087
-266.282	800.000	0.092	0.293
-265.267	-133.197	0.065	0.008
-264.253	334.423	0.077	-0.147
-263.238	-200.000	0.016	0.140
-262.224	-200.000	0.009	-0.177
-261.209	800.000	0.033	-0.141
-260.195	548.912	-0.019	0.046
-259.180	-200.000	0.039	-0.385
-258.165	-95.672	-0.439	-0.116
-257.151	353.051	-0.233	-0.457
-256.136	-155.711	0.379	-0.024
-255.122	286.221	-0.036	0.064
-254.107	-200.000	-0.012	-0.198
-253.092	800.000	-0.038	-0.106
-252.078	783.454	0.092	0.250
-251.063	-130.768	0.114	0.015
-250.049	-41.994	0.271	0.137
-249.034	13.945	-0.171	-0.131
-248.019	98.942	0.170	0.194
-247.005	-200.000	0.012	-0.098
-245.990	118.120	0.211	-0.257
-244.976	800.000	-0.104	0.375
-243.961	194.920	-0.130	-0.194
-242.946	-85.299	0.056	-0.017
-241.932	0.489	-0.067	-0.047
-240.917	-27.091	0.104	0.060
-239.903	-200.000	-0.028	0.238
-238.888	111.392	0.111	-0.132
-237.873	141.492	0.048	-0.063
-236.859	-200.000	0.093	0.415
-235.844	-157.859	-0.281	-0.016
-234.830	800.000	0.101	-0.314
-233.815	-52.249	-0.176	-0.081
-232.800	638.237	0.083	-0.208
-231.786	651.137	-0.067	-0.169
-230.771	445.752	-0.078	-0.170
-229.757	65.908	-0.195	0.195
-228.742	800.000	-0.003	0.011
-227.727	-200.000	-0.014	-0.094
-226.713	772.191	-0.080	0.216
-225.698	-141.826	0.504	0.050
-224.684	-175.445	0.251	0.007
-223.669	-200.000	0.034	0.149
-222.655	7.217	0.110	0.081
-221.640	-90.322	-0.346	0.099
-220.625	64.154	0.255	0.253
-219.611	-153.631	-0.036	-0.002
-218.596	92.246	-0.043	0.048
-217.582	294.250	-0.142	-0.256
-216.567	-200.000	0.001	-0.268
-215.552	7.029	0.142	0.105
-214.538	800.000	-0.042	-0.158
-213.523	800.000	-0.012	-0.047
-212.509	256.731	0.081	-0.137
-211.494	-200.000	0.051	0.299
-210.479	800.000	-0.113	0.394
-209.465	-200.000	-0.030	0.213
-208.450	-68.476	-0.389	0.149
-207.436	-31.445	-0.149	0.083
-206.421	800.000	0.043	0.149
-205.406	-39.450	0.366	-0.189
-204.392	-37.897	-0.136	0.071
-203.377	103.169	0.211	-0.244
-202.363	-46.014	0.042	-0.021
-201.348	-200.000	0.027	0.240
-200.333	-200.000	-0.035	0.314
-199.319	800.000	0.031	-0.132
-198.304	-123.215	-0.225	0.036
-197.290	-200.000	0.004	-0.294
-196.275	-107.375	0.354	-0.077
-195.260	-20.455	0.182	-0.110
-194.246	-200.000	-0.013	0.162
-193.231	800.000	-0.047	0.184
-192.217	-88.089	0.333	0.098
-191.202	60.642	-0.221	-0.216
-190.187	162.863	-0.256	-0.355
-189.173	-200.000	-0.031	-0.192
-188.158	800.000	-0.061	0.250
-187.144	800.000	0.069	0.254
-186.129	-90.736	-0.134	-0.038
-185.114	800.000	-0.152	-0.443
-184.100	-200.000	0.064	-0.283
-183.085	-200.000	0.075	-0.436
-182.071	-43.684	0.108	0.053
-181.056	-200.000	-0.019	-0.394
-180.042	-200.000	-0.018	0.289
-179.027	800.000	0.113	0.378
-178.012	-190.530	0.091	-0.001
-176.998	-40.917	-0.136	-0.069
-175.983	386.024	-0.127	-0.257
-174.969	800.000	-0.016	0.051
-173.954	0.103	0.259	0.182
-172.939	467.384	0.095	-0.210
-171.925	90.646	-0.116	-0.128
-170.910	-143.128	-0.235	-0.022
-169.896	-83.364	0.365	0.115
-168.881	711.884	0.075	-0.196
-167.866	-200.000	-0.033	-0.232
-166.852	-141.344	-0.099	-0.010
-165.837	505.018	-0.171	-0.390
-164.823	800.000	-0.042	-0.162
-163.808	-200.000	-0.038	0.207
-162.793	209.660	-0.117	-0.180
-161.779	800.000	-0.109	0.367
-160.764	-97.027	0.051	-0.013
-159.750	-69.017	0.337	0.128
-158.735	-200.000	0.020	0.167
-157.720	-115.786	0.021	-0.004
-156.706	490.321	-0.079	-0.178
-155.691	800.000	0.031	0.113
-154.677	-76.453	0.036	-0.012
-153.662	-200.000	-0.013	-0.163
-152.647	1.918	-0.194	-0.138
-151.633	800.000	0.052	0.202
-150.618	-146.836	-0.232	-0.020
-149.604	555.708	-0.111	0.262
-148.589	-51.247	0.247	-0.114
-147.574	115.887	0.123	-0.148
-146.560	-200.000	-0.004	-0.204
-145.545	169.490	0.108	0.152
-144.531	173.677	-0.140	-0.199
-143.516	-200.000	0.011	-0.159
-142.502	78.922	0.066	-0.069
-141.487	-93.564	0.318	-0.086
-140.472	-179.294	-0.242	-0.005
-139.458	-41.507	0.318	0.161
-138.443	-0.239	-0.038	0.027
-137.429	-29.296	0.359	0.202
-136.414	-46.706	-0.240	-0.116
-135.399	-47.663	0.107	0.051
-134.385	-62.054	0.200	-0.082
-133.370	-200.000	0.019	0.195
-132.356	55.157	0.181	-0.172
-131.341	-107.666	-0.158	0.034
-130.326	30.367	-0.181	-0.152
-129.312	13.301	-0.048	-0.037
-128.297	427.333	0.132	0.279
-127.283	8.680	-0.289	0.214
-126.268	-47.830	-0.216	0.103
-125.253	-16.849	-0.197	0.122
-124.239	-131.809	0.211	0.027
-123.224	-21.399	-0.077	0.046
-122.210	-39.355	0.076	0.039
-121.195	-138.878	0.274	0.029
-120.180	157.140	0.149	0.203
-119.166	335.449	-0.099	0.189
-118.151	351.583	-0.174	-0.339
-117.137	-164.226	0.264	0.012
-116.122	-200.000	0.005	-0.032
-115.107	-133.502	-0.201	0.025
-114.093	433.420	0.044	-0.093
-113.078	19.303	-0.161	0.127
-112.064	112.207	-0.195	-0.232
-111.049	-69.951	0.126	0.047
-110.034	-132.487	0.202	0.025
-109.020	-200.000	-0.138	0.782
-108.005	-200.000	-0.010	-0.207
-106.991	205.177	-0.126	0.192
-105.976	-25.797	0.087	0.050
-104.962	718.956	-0.021	-0.054
-103.947	-94.883	-0.422	0.112
-102.932	152.787	-0.095	0.128
-101.918	-0.056	-0.189	-0.132
-100.903	532.903	0.122	0.283
-99.889	800.000	-0.071	0.213
-98.874	623.145	-0.111	0.275
-97.859	71.856	-0.225	-0.230
-96.845	-200.000	-0.039	-0.169
-95.830	800.000	0.067	0.259
-94.816	-39.911	-0.265	-0.136
-93.801	-200.000	-0.026	-0.236
-92.786	800.000	0.082	0.233
-91.772	466.349	0.084	0.185
-90.757	-200.000	-0.049	-0.374
-89.743	129.952	-0.164	-0.206
-88.728	55.409	-0.028	0.027
-87.713	272.955	0.064	0.112
-86.699	800.000	0.030	0.082
-85.684	162.169	0.100	0.138
-84.670	-46.641	0.217	-0.104
-83.655	35.822	0.221	0.191
-82.640	800.000	-0.042	0.166
-81.626	218.754	0.148	0.231
-80.611	-129.527	-0.336	-0.046
-79.597	1.147	0.169	-0.119
-78.582	-35.131	0.198	0.106
-77.567	-200.000	-0.031	-0.323
-76.553	532.265	-0.185	-0.430
-75.538	319.486	-0.099	-0.184
-74.524	-94.365	-0.098	0.026
-73.509	800.000	0.041	0.172
-72.494	-20.601	0.419	-0.252
-71.480	-50.004	-0.178	-0.083
-70.465	-105.387	0.337	-0.075
-69.451	-24.952	-0.241	0.140
-68.436	-124.631	0.222	-0.034
-67.422	212.594	0.250	0.386
-66.407	-78.909	-0.130	0.043
-65.392	-200.000	-0.000	0.229
-64.378	-71.802	0.175	-0.064
-63.363	-50.270	-0.034	-0.016
-62.349	-2.764	-0.018	-0.012
-61.334	196.200	-0.732	-1.092
-60.319	-29.180	0.578	0.325
-59.305	-200.000	-0.251	-1.084
-58.290	606.784	0.563	1.376
-57.276	293.051	0.807	1.442
-56.261	-200.000	110.779	603.422
-55.246	414.610	1535.509	3204.805
-54.232	139.512	2731.310	3523.825
-53.217	101.762	2199.619	2514.144
-52.203	39.362	1634.804	1434.555
-51.188	30.945	1375.720	1155.249
-50.173	28.013	1336.463	1104.553
-49.159	52.952	1392.239	1305.119
-48.144	52.564	1407.052	1316.568
-47.130	31.233	1362.109	1145.407
-46.115	27.903	1343.715	1109.699
-45.100	27.609	1338.691	1103.730
-44.086	27.542	1336.903	1101.808
-43.071	27.437	1334.474	1099.126
-42.057	27.494	1332.058	1097.434
-41.042	27.534	1329.915	1095.868
-40.027	27.605	1328.910	1095.424
-39.013	27.549	1326.790	1093.294
-37.998	27.591	1324.751	1091.823
-36.984	27.588	1323.309	1090.574
-35.969	27.626	1321.448	1089.228
-34.954	27.684	1319.951	1088.293
-33.940	27.681	1318.075	1086.685
-32.925	27.539	1317.601	1085.406
-31.911	27.754	1315.596	1084.989
-30.896	27.712	1314.473	1083.770
-29.881	27.684	1312.953	1082.307
-28.867	27.847	1310.812	1081.469
-27.852	27.817	1309.759	1080.379
-26.838	27.700	1308.589	1078.680
-25.823	27.763	1306.746	1077.489
-24.809	27.738	1306.267	1076.900
-23.794	27.659	1304.674	1075.083
-22.779	27.713	1303.315	1074.234
-21.765	27.722	1301.851	1073.040
-20.750	27.664	1300.774	1071.770
-19.736	27.728	1299.048	1070.682
-18.721	27.576	1297.988	1068.871
-17.706	27.615	1296.654	1067.959
-16.692	27.716	1295.578	1067.623
-15.677	27.610	1294.452	1066.031
-14.663	27.677	1292.938	1065.133
-13.648	27.586	1292.387	1064.108
-12.633	27.556	1291.660	1063.292
-11.619	27.546	1290.321	1062.087
-10.604	27.568	1289.864	1061.799
-9.590	27.523	1288.753	1060.582
-8.575	27.591	1287.588	1059.976
-7.560	27.550	1287.133	1059.322
-6.546	27.527	1286.292	1058.448
-5.531	27.610	1284.838	1057.691
-4.517	27.491	1284.646	1056.805
-3.502	27.520	1283.173	1055.716
-2.487	27.608	1282.295	1055.461
-1.473	27.705	1278.377	1052.759
-0.458	26.891	1263.716	1035.997
0.556	23.353	1248.079	1003.395
1.571	19.632	1255.037	987.669
2.586	18.334	1268.808	990.908
3.600	17.272	1255.921	974.670
4.615	12.585	1181.280	891.330
5.629	4.766	1105.195	794.082
6.644	1.176	1085.838	762.091
7.659	0.840	1084.068	759.096
8.673	0.807	1082.866	758.022
9.688	0.747	1082.040	757.076
10.702	1.013	1079.144	756.308
11.717	5.283	1085.024	781.766
12.731	12.549	1094.672	825.213
13.746	16.511	1099.044	848.351
14.761	17.386	1099.836	853.280
15.775	16.717	1097.841	848.305
16.790	15.598	1096.019	841.223
17.804	14.858	1094.526	836.304
18.819	14.551	1093.600	833.987
19.834	14.378	1092.033	831.856
20.848	14.112	1091.469	830.023
21.863	13.927	1090.508	828.296
22.877	13.631	1089.835	826.237
23.892	13.585	1089.241	825.487
24.907	13.625	1088.048	824.707
25.921	13.734	1087.243	824.568
26.936	13.748	1086.485	823.989
27.950	13.606	1086.094	822.911
28.965	13.794	1084.370	822.467
29.980	13.766	1082.988	821.207
30.994	13.798	1081.794	820.386
32.009	13.877	1080.941	820.057
33.023	13.871	1079.628	818.959
34.038	13.827	1078.325	817.682
35.053	13.764	1077.559	816.716
36.067	13.821	1076.846	816.385
37.082	13.751	1076.625	815.799
38.096	13.807	1075.653	815.266
39.111	13.818	1074.656	814.496
40.126	13.752	1073.283	813.060
41.140	13.646	1072.042	811.529
42.155	13.617	1070.967	810.502
43.169	13.788	1069.601	810.231
44.184	13.746	1068.424	809.062
45.199	13.612	1067.662	807.761
46.213	13.694	1066.627	807.302
47.228	13.692	1065.806	806.602
48.242	13.640	1064.119	805.003
49.257	13.820	1063.061	805.002
50.271	13.730	1062.750	804.260
51.286	13.711	1061.909	803.458
52.301	13.814	1060.277	802.650
53.315	13.775	1059.814	802.042
54.330	13.784	1058.180	800.779
55.344	13.723	1057.603	799.976
56.359	13.738	1056.523	799.162
57.374	13.667	1055.561	798.020
58.388	13.628	1055.284	797.554
59.403	13.559	1054.165	796.308
60.417	13.630	1053.452	796.037
61.432	13.635	1052.548	795.306
62.447	13.567	1051.609	794.201
63.461	13.570	1051.035	793.714
64.476	13.499	1050.237	792.698
65.490	13.544	1049.237	792.089
66.505	13.671	1048.449	792.030
67.520	13.616	1047.853	791.247
68.534	13.658	1047.263	790.933
69.549	13.673	1046.378	790.269
70.563	13.544	1045.523	788.938
71.578	13.541	1044.797	788.303
72.593	13.557	1043.785	787.549
73.607	13.530	1043.056	786.802
74.622	13.543	1042.565	786.420
75.636	13.450	1041.972	785.464
76.651	13.521	1040.902	784.922
77.666	13.524	1040.336	784.442
78.680	13.477	1039.910	783.828
79.695	13.514	1039.003	783.252
80.709	13.591	1037.859	782.684
81.724	13.687	1037.238	782.598
82.739	13.700	1036.671	782.162
83.753	13.756	1035.618	781.561
84.768	13.704	1035.049	780.821
85.782	13.814	1033.378	780.007
86.797	13.783	1033.025	779.525
87.812	13.699	1031.698	778.059
88.826	13.806	1030.670	777.719
89.841	13.755	1030.185	777.046
90.855	13.764	1029.223	776.294
91.870	13.839	1028.686	776.169
92.884	13.813	1027.691	775.228
93.899	13.869	1026.758	774.716
94.914	13.941	1025.526	774.053
95.928	13.929	1024.961	773.505
96.943	13.824	1024.419	772.537
97.957	13.728	1023.637	771.434
98.972	13.815	1022.394	770.833
99.987	13.818	1021.479	770.087
101.001	13.944	1020.583	769.928
102.016	13.926	1019.533	768.987
103.030	13.754	1019.079	767.781
104.045	13.878	1018.095	767.542
105.060	13.773	1017.569	766.594
106.074	13.800	1016.695	765.990
107.089	13.717	1015.786	764.859
108.103	13.768	1014.554	764.098
109.118	13.739	1013.807	763.333
110.133	13.716	1012.762	762.373
111.147	13.601	1011.861	761.101
112.162	13.713	1010.855	760.788
113.176	13.862	1010.096	760.832
114.191	13.589	1010.073	759.496
115.206	13.821	1008.588	759.374
116.220	13.790	1007.832	758.597
117.235	13.806	1007.046	758.009
118.249	13.778	1006.143	757.137
119.264	13.800	1005.534	756.713
120.279	13.563	1004.907	755.092
121.293	13.586	1003.746	754.258
122.308	13.720	1002.867	754.140
123.322	13.682	1001.804	753.102
124.337	13.808	1000.697	752.773
125.352	13.800	999.614	751.857
126.366	13.731	998.693	750.786
127.381	13.791	997.425	750.039
128.395	13.731	996.688	749.145
129.410	13.723	995.516	748.161
130.424	13.732	995.007	747.755
131.439	13.758	994.418	747.363
132.454	13.876	993.418	747.077
133.468	13.799	992.673	746.102
134.483	13.820	991.423	745.191
135.497	13.805	990.865	744.637
136.512	13.783	990.221	743.989
137.527	13.805	989.335	743.359
138.541	13.792	988.414	742.543
139.556	13.902	987.323	742.147
140.570	13.882	986.981	741.735
141.585	13.975	985.906	741.276
142.600	13.985	985.083	740.639
143.614	14.045	984.021	740.043
144.629	14.007	983.356	739.305
145.643	14.072	982.467	738.862
146.658	13.836	981.859	737.291
147.673	13.841	980.925	736.548
148.687	13.916	979.999	736.118
149.702	13.923	978.819	735.197
150.716	13.781	978.477	734.249
151.731	13.905	977.562	734.042
152.746	14.046	976.449	733.767
153.760	13.904	976.304	732.965
154.775	13.920	975.826	732.610
155.789	14.038	974.751	732.258
156.804	14.015	973.916	731.468
157.819	14.122	972.932	731.135
158.833	14.033	972.709	730.512
159.848	14.051	972.058	730.037
160.862	14.173	971.107	729.793
161.877	14.058	969.866	728.291
162.892	14.086	969.147	727.811
163.906	14.069	967.849	726.695
164.921	14.003	967.348	725.967
165.935	14.014	966.464	725.286
166.950	14.123	965.422	724.916
167.964	14.012	964.472	723.656
168.979	14.199	963.660	723.795
169.994	14.049	962.943	722.541
171.008	14.096	962.095	722.047
172.023	14.058	961.966	721.719
173.037	14.087	961.087	721.123
174.052	14.095	960.204	720.429
175.067	14.100	959.804	720.087
176.081	14.052	959.069	719.267
177.096	14.060	958.591	718.878
178.110	14.172	957.612	718.564
179.125	14.203	957.030	718.196
180.140	14.100	956.920	717.606
181.154	14.008	956.592	716.901
182.169	14.146	955.774	716.818
183.183	14.305	955.239	717.037
184.198	14.317	954.020	716.109
185.213	14.394	953.296	715.835
186.227	14.461	952.533	715.488
187.242	14.423	952.226	715.029
188.256	14.309	951.825	714.177
189.271	14.282	951.217	713.542
190.286	14.350	949.572	712.536
191.300	14.287	949.160	711.895
192.315	14.209	948.755	711.193
193.329	14.313	948.376	711.291
194.344	14.352	947.682	710.875
195.359	14.316	946.852	710.034
196.373	14.368	946.173	709.683
197.388	14.425	945.700	709.511
198.402	14.461	945.076	709.132
199.417	14.582	944.510	709.158
200.432	14.686	943.485	708.767
201.446	14.651	943.424	708.510
202.461	14.607	942.807	707.800
203.475	14.614	942.392	707.451
204.490	14.559	941.633	706.589
205.504	14.516	941.033	705.896
206.519	14.573	939.793	705.142
207.534	14.492	939.032	704.167
208.548	14.640	938.405	704.258
209.563	14.471	937.893	703.099
210.577	14.645	937.139	703.205
211.592	14.886	936.113	703.386
212.607	14.790	935.360	702.355
213.621	14.675	935.232	701.716
214.636	14.708	934.420	701.182
215.650	14.832	933.670	701.075
216.665	14.874	932.739	700.493
217.680	14.858	932.487	700.173
218.694	14.884	931.392	699.398
219.709	14.935	930.982	699.242
220.723	14.835	930.269	698.226
221.738	14.833	929.421	697.519
222.753	14.826	929.146	697.223
223.767	15.006	928.387	697.338
224.782	14.908	927.958	696.549
225.796	14.978	927.205	696.215
226.811	14.896	926.459	695.250
227.826	14.964	925.805	694.983
228.840	14.974	924.776	694.189
229.855	14.861	924.144	693.182
230.869	14.892	923.401	692.695
231.884	14.872	923.033	692.275
232.899	14.951	921.989	691.758
233.913	14.893	921.392	691.006
234.928	14.947	920.507	690.505
235.942	14.883	920.183	689.937
236.957	14.948	919.818	689.873
237.972	15.026	918.933	689.468
238.986	14.853	918.521	688.384
240.001	14.995	917.566	688.191
241.015	15.023	916.763	687.645
242.030	15.033	916.195	687.196
243.045	14.995	915.957	686.801
244.059	14.960	915.082	685.942
245.074	15.114	914.210	685.859
246.088	15.184	913.607	685.631
247.103	15.155	913.280	685.205
248.117	15.181	912.690	684.810
249.132	15.381	911.849	684.936
250.147	15.290	910.915	683.804
251.161	15.237	910.862	683.487
252.176	15.262	910.230	683.054
253.190	15.355	909.221	682.614
254.205	15.318	908.795	682.084
255.220	15.324	907.902	681.377
256.234	15.439	907.319	681.346
257.249	15.470	906.798	681.021
258.263	15.493	905.909	680.386
259.278	15.461	905.195	679.659
260.293	15.458	904.852	679.329
261.307	15.555	903.884	678.936
262.322	15.550	903.112	678.275
263.336	15.552	902.703	677.915
264.351	15.625	901.814	677.483
265.366	15.522	901.376	676.677
266.380	15.675	900.875	676.860
267.395	15.585	899.946	675.740
268.409	15.704	899.235	675.623
269.424	15.629	898.193	674.480
270.439	15.651	897.524	674.007
271.453	15.726	896.656	673.595
272.468	15.622	896.888	673.293
273.482	15.633	896.545	673.020
274.497	15.659	895.659	672.397
275.512	15.635	894.927	671.695
276.526	15.845	894.060	671.823
277.541	15.822	893.808	671.483
278.555	15.874	893.132	671.123
279.570	15.806	892.083	670.002
280.585	15.748	891.674	669.406
281.599	15.877	890.513	668.988
282.614	15.754	890.230	668.226
283.628	15.841	889.789	668.183
284.643	15.741	889.279	667.344
285.657	15.978	888.582	667.699
286.672	15.896	887.707	666.661
287.687	15.930	886.983	666.192
288.701	16.014	886.491	666.095
289.716	15.969	885.945	665.447
290.730	15.922	885.890	665.164
291.745	15.877	885.140	664.365
292.760	16.007	884.196	664.108
293.774	16.091	883.521	663.874
294.789	15.961	882.882	662.824
295.803	16.010	882.085	662.358
296.818	15.941	881.524	661.609
297.833	15.994	880.963	661.334
298.847	16.061	880.668	661.319
299.862	16.202	879.331	660.810
300.876	16.090	879.254	660.254
301.891	16.211	878.715	660.264
302.906	16.219	878.173	659.830
303.920	16.155	877.503	659.019
304.935	16.221	877.177	658.973
305.949	16.260	876.056	658.223
306.964	16.140	875.816	657.517
307.979	16.142	875.089	656.921
308.993	16.317	874.193	656.870
310.008	16.529	873.325	656.986
311.022	16.244	873.273	655.781
312.037	16.450	872.584	656.005
313.052	16.392	871.683	655.043
314.066	16.160	871.513	653.961
315.081	16.251	871.010	653.878
316.095	16.208	870.526	653.290
317.110	16.279	869.865	653.011
318.125	16.214	869.585	652.489
319.139	16.359	868.848	652.440
320.154	16.261	868.681	651.879
321.168	16.227	867.873	651.081
322.183	16.305	867.690	651.188
323.197	16.539	866.408	651.070
324.212	16.504	865.864	650.469
325.227	16.421	865.418	649.757
326.241	16.463	864.408	649.102
327.256	16.373	864.158	648.513
328.270	16.543	863.276	648.444
329.285	16.488	862.852	647.858
330.300	16.477	862.500	647.496
331.314	16.512	861.898	647.121
332.329	16.458	861.620	646.646
333.343	16.491	860.992	646.243
334.358	16.408	860.470	645.476
335.373	16.610	859.865	645.739
336.387	16.591	859.939	645.664
337.402	16.584	859.677	645.383
338.416	16.618	858.969	644.924
339.431	16.585	858.559	644.435
340.446	16.705	857.903	644.339
341.460	16.760	857.782	644.402
342.475	16.744	857.395	643.994
343.489	16.812	856.793	643.743
344.504	16.911	855.926	643.409
345.519	16.778	856.086	642.969
346.533	16.801	855.381	642.469
347.548	16.765	855.022	642.008
348.562	16.695	854.020	640.934
349.577	16.792	853.831	641.102
350.592	16.757	853.153	640.404
351.606	16.889	852.122	640.069
352.621	16.767	851.481	639.071
353.635	16.805	851.107	638.878
354.650	16.846	850.172	638.276
355.665	17.004	849.643	638.416
356.679	17.045	848.853	637.918
357.694	16.948	848.340	637.113
358.708	16.940	847.617	636.485
359.723	16.911	847.220	636.021
360.738	17.018	846.730	635.999
361.752	17.086	845.921	635.589
362.767	17.078	845.261	635.007
363.781	17.049	845.077	634.702
364.796	17.193	844.112	634.459
365.810	17.162	844.307	634.436
366.825	17.174	843.858	634.085
367.840	17.117	843.092	633.242
368.854	17.332	842.459	633.511
369.869	17.152	842.154	632.558
370.883	17.374	841.569	632.885
371.898	17.218	841.623	632.291
372.913	17.337	841.150	632.321
373.927	17.238	840.650	631.521
374.942	17.323	839.980	631.279
375.956	17.450	839.797	631.557
376.971	17.269	839.275	630.438
377.986	17.369	838.849	630.431
379.000	17.505	838.034	630.267
380.015	17.449	837.419	629.541
381.029	17.513	837.020	629.421
382.044	17.426	836.345	628.536
383.059	17.514	835.808	628.404
384.073	17.385	835.452	627.606
385.088	17.578	834.738	627.722
386.102	17.470	834.043	626.748
387.117	17.477	833.639	626.414
388.132	17.459	833.154	625.930
389.146	17.570	832.520	625.806
390.161	17.577	831.641	625.116
391.175	17.644	831.383	625.111
392.190	17.629	830.678	624.471
393.205	17.452	830.528	623.653
394.219	17.504	830.118	623.480
395.234	17.516	829.755	623.197
396.248	17.497	829.365	622.779
397.263	17.563	829.064	622.739
398.278	17.665	828.422	622.575
399.292	17.576	828.402	622.178
400.307	17.599	827.636	621.632
401.321	17.519	827.258	621.003
402.336	17.679	826.506	620.966
403.350	17.615	825.913	620.231
404.365	17.536	825.995	619.950
405.380	17.748	825.389	620.214
406.394	17.754	824.629	619.610
407.409	17.780	824.447	619.513
408.423	17.758	823.637	618.769
409.438	17.847	823.344	618.818
410.453	17.809	823.121	618.456
411.467	17.958	822.325	618.341
412.482	17.908	822.044	617.894
413.496	17.831	821.873	617.434
414.511	17.978	821.646	617.742
415.526	17.920	820.852	616.880
416.540	18.071	820.408	617.036
417.555	17.940	819.959	616.172
418.569	17.882	819.671	615.694
419.584	18.124	819.021	616.022
420.599	17.994	818.633	615.208
421.613	111.962	1295.951	1476.019
422.628	97.000	1365.466	1476.138
