DTS Sentinel unit serial number:	SN413079Multiplexer serial number:	ORYXHardware model number:	OX4-SRSoftware version number:	ORYX F/W v4.00 Oryx Data Collector v3.7.2.0data status	okinstallation	princeton_trtdifferential loss correction	single-endedforward channel	channel 1reverse channel	N/Adate	2019/09/13time	10:22:35forward acquisition time	60.00reverse acquisition time	0.00gamma	496.2192k internal	0.2323k external	0.2323temperature offset calibration	1.0156default loss term (dB/km)	0.3790temperature slope calibration	1.0000multiplexer offset coefficient	1.0000multiplexer slope coefficient	1.0000fibre end	0.00T internal ref (°C)	30.94T ext. ref 1 (°C)	4.52T ext. ref 2 (°C)	28.24length (m)	temperature (°C)	Stokes	anti-Stokes-747.200	-48.442	0.383	-0.186
-746.185	-26.161	-0.391	-0.232
-745.171	286.930	0.056	0.103
-744.156	503.620	-0.149	0.349
-743.142	151.953	0.181	-0.249
-742.127	217.080	-0.103	0.165
-741.112	71.664	-0.129	-0.135
-740.098	95.835	-0.298	-0.344
-739.083	728.254	0.214	-0.577
-738.069	37.055	-0.100	0.090
-737.054	-68.031	0.211	-0.083
-736.039	107.345	-0.244	0.293
-735.025	34.620	0.107	0.094
-734.010	-11.963	-0.137	0.090
-732.996	106.093	-0.258	0.309
-731.981	-200.000	0.033	0.328
-730.966	-200.000	-0.036	-0.252
-729.952	-183.421	-0.116	-0.002
-728.937	-92.259	0.170	-0.048
-727.923	253.766	-0.077	0.133
-726.908	-113.821	-0.293	-0.058
-725.894	-65.412	0.126	0.051
-724.879	241.618	0.061	0.103
-723.864	-29.180	-0.070	-0.041
-722.850	-171.937	0.194	0.006
-721.835	800.000	0.028	0.095
-720.821	-68.336	-0.192	0.075
-719.806	1.822	-0.092	0.067
-718.791	-69.293	-0.545	0.211
-717.777	-90.993	-0.093	-0.027
-716.762	-200.000	-0.017	-0.229
-715.748	290.360	-0.165	-0.302
-714.733	213.546	0.075	0.120
-713.718	43.580	0.093	0.086
-712.704	-90.719	-0.286	0.083
-711.689	394.305	0.013	0.028
-710.675	105.448	-0.114	0.136
-709.660	-109.189	0.182	-0.039
-708.645	-46.656	-0.084	0.042
-707.631	-23.111	0.273	0.166
-706.616	-141.188	0.071	-0.007
-705.602	243.266	0.135	-0.228
-704.587	332.831	-0.028	-0.054
-703.572	800.000	0.050	-0.185
-702.558	271.346	-0.041	0.073
-701.543	57.012	0.235	-0.231
-700.529	3.631	-0.225	0.166
-699.514	-200.000	-0.028	0.205
-698.499	759.096	-0.146	0.400
-697.485	156.920	0.117	0.162
-696.470	34.584	0.170	0.150
-695.456	-79.449	0.028	-0.010
-694.441	60.608	-0.167	0.167
-693.426	103.230	0.102	-0.121
-692.412	-200.000	0.001	0.132
-691.397	-200.000	0.056	-0.274
-690.383	308.773	-0.159	0.299
-689.368	-92.831	-0.351	0.099
-688.354	27.531	-0.144	-0.122
-687.339	226.367	0.184	0.302
-686.324	-69.054	-0.310	-0.121
-685.310	-3.014	-0.115	0.081
-684.295	7.536	-0.423	0.319
-683.281	800.000	0.035	0.114
-682.266	-139.825	0.259	0.028
-681.251	-200.000	0.029	-0.201
-680.237	-200.000	0.027	-0.223
-679.222	150.129	-0.144	-0.197
-678.208	509.599	-0.034	-0.080
-677.193	750.991	-0.061	0.166
-676.178	-200.000	-0.007	-0.153
-675.164	-116.540	-0.371	-0.069
-674.149	-77.082	0.195	-0.069
-673.135	758.486	-0.059	-0.161
-672.120	-200.000	-0.009	-0.134
-671.105	-200.000	0.012	-0.100
-670.091	789.182	0.132	-0.366
-669.076	800.000	-0.076	-0.288
-668.062	-95.001	0.183	-0.050
-667.047	41.835	0.153	0.139
-666.032	-108.084	-0.370	0.081
-665.018	-62.907	-0.089	0.037
-664.003	790.732	0.043	0.118
-662.989	-6.708	-0.420	0.288
-661.974	-66.807	-0.041	0.016
-660.959	-108.193	-0.258	-0.056
-659.945	-63.565	0.157	-0.065
-658.930	-21.057	-0.111	-0.069
-657.916	-99.022	-0.430	0.110
-656.901	-70.825	-0.028	0.010
-655.886	-69.795	0.219	-0.084
-654.872	-65.334	-0.188	-0.076
-653.857	630.047	-0.074	-0.187
-652.843	128.140	0.108	-0.138
-651.828	-73.641	0.190	-0.070
-650.814	-108.075	-0.184	-0.040
-649.799	103.192	0.183	-0.216
-648.784	-35.448	0.076	0.042
-647.770	-40.378	-0.250	0.131
-646.755	-152.715	-0.221	0.016
-645.741	199.326	-0.089	0.137
-644.726	232.730	0.124	-0.206
-643.711	-200.000	-0.016	-0.217
-642.697	451.451	-0.240	-0.533
-641.682	-69.001	-0.219	-0.085
-640.668	77.508	-0.101	0.108
-639.653	-177.549	0.193	0.005
-638.638	-87.461	-0.322	-0.098
-637.624	51.389	0.178	0.170
-636.609	-106.355	0.160	-0.036
-635.595	219.629	-0.107	0.172
-634.580	305.927	-0.112	-0.210
-633.565	130.742	0.113	0.146
-632.551	120.039	0.297	-0.370
-631.536	-200.000	-0.004	-0.062
-630.522	800.000	0.094	0.287
-629.507	-107.691	-0.245	-0.054
-628.492	-10.276	-0.280	0.187
-627.478	483.143	-0.016	0.036
-626.463	-13.956	0.084	0.055
-625.449	-92.450	-0.140	-0.040
-624.434	78.915	0.278	-0.299
-623.419	-154.914	-0.128	0.008
-622.405	-91.845	0.085	-0.024
-621.390	-86.922	-0.367	0.113
-620.376	-147.310	-0.096	0.008
-619.361	-28.478	-0.413	0.239
-618.346	-64.961	-0.308	-0.125
-617.332	-200.000	-0.023	0.144
-616.317	-64.177	-0.249	-0.102
-615.303	17.081	0.199	-0.159
-614.288	95.082	-0.140	-0.161
-613.273	566.064	0.233	-0.567
-612.259	-200.000	0.013	-0.316
-611.244	-200.000	0.001	-0.171
-610.230	-159.071	-0.449	-0.026
-609.215	-200.000	-0.003	-0.142
-608.201	40.862	-0.119	-0.108
-607.186	-200.000	0.286	-0.001
-606.171	-114.021	0.067	0.013
-605.157	-138.082	-0.181	0.020
-604.142	-161.952	0.227	-0.012
-603.128	188.002	-0.088	0.132
-602.113	-200.000	-0.036	-0.202
-601.098	-114.453	-0.229	0.044
-600.084	570.340	0.101	0.246
-599.069	68.455	-0.108	0.111
-598.055	-158.184	-0.261	0.015
-597.040	-87.048	-0.147	0.045
-596.025	-12.708	0.313	0.205
-595.011	-63.336	-0.191	0.079
-593.996	-75.767	0.364	-0.130
-592.982	-77.060	-0.296	-0.104
-591.967	800.000	0.023	-0.070
-590.952	-85.370	-0.122	0.038
-589.938	-53.117	0.236	0.109
-588.923	-200.000	-0.015	-0.113
-587.909	800.000	-0.109	-0.313
-586.894	-200.000	0.021	0.186
-585.879	-200.000	0.015	0.382
-584.865	-169.122	0.470	0.018
-583.850	647.513	0.080	0.205
-582.836	-113.228	0.072	-0.014
-581.821	201.067	-0.108	0.167
-580.806	-31.601	-0.143	-0.081
-579.792	-200.000	0.001	0.110
-578.777	-37.926	-0.406	-0.216
-577.763	215.266	0.097	0.154
-576.748	800.000	-0.046	-0.149
-575.733	98.588	-0.083	0.096
-574.719	-92.917	-0.152	-0.043
-573.704	-107.980	-0.234	-0.051
-572.690	-200.000	-0.013	-0.070
-571.675	60.965	-0.130	0.129
-570.661	-19.094	-0.045	0.028
-569.646	-200.000	-0.036	-0.170
-568.631	-96.516	0.261	0.069
-567.617	98.382	0.059	0.068
-566.602	-40.404	-0.119	-0.062
-565.588	268.067	0.054	-0.094
-564.573	95.292	-0.231	0.264
-563.558	184.769	0.075	0.112
-562.544	-107.309	0.087	-0.019
-561.529	-67.274	-0.192	-0.076
-560.515	139.799	-0.103	-0.136
-559.500	-173.379	-0.202	0.006
-558.485	-122.519	-0.055	0.009
-557.471	61.635	0.092	0.092
-556.456	9.201	-0.069	0.052
-555.442	-200.000	0.044	-0.216
-554.427	-200.000	0.013	0.111
-553.412	442.684	0.120	0.265
-552.398	-18.200	-0.236	0.148
-551.383	-157.805	-0.223	0.013
-550.369	249.351	-0.036	-0.061
-549.354	29.953	-0.087	-0.075
-548.339	-200.000	0.044	0.273
-547.325	58.551	0.315	0.310
-546.310	-138.487	-0.269	0.030
-545.296	-200.000	0.006	0.056
-544.281	-65.413	0.333	0.134
-543.266	93.996	-0.184	0.209
-542.252	66.257	-0.048	-0.049
-541.237	20.708	0.076	-0.061
-540.223	10.528	0.247	0.188
-539.208	270.088	-0.092	-0.162
-538.193	-200.000	0.059	0.339
-537.179	-200.000	0.081	0.392
-536.164	298.364	-0.132	-0.244
-535.150	216.606	0.096	0.153
-534.135	59.522	0.141	0.139
-533.121	800.000	0.065	0.233
-532.106	25.125	0.344	0.286
-531.091	800.000	-0.045	-0.186
-530.077	-2.865	-0.035	-0.025
-529.062	-200.000	0.477	-0.001
-528.048	-69.586	-0.106	0.041
-527.033	-45.392	-0.214	0.106
-526.018	-77.196	-0.291	0.101
-525.004	171.318	0.270	0.388
-523.989	509.827	0.043	0.101
-522.975	-48.186	0.196	0.095
-521.960	-200.000	0.018	0.297
-520.945	51.279	-0.111	0.105
-519.931	517.174	-0.103	-0.242
-518.916	417.573	0.063	-0.134
-517.902	-29.028	-0.409	-0.235
-516.887	-26.985	0.298	0.174
-515.872	-95.494	-0.329	0.088
-514.858	51.601	-0.166	0.158
-513.843	-200.000	-0.008	0.127
-512.829	-107.748	-0.016	-0.004
-511.814	-200.000	-0.010	-0.158
-510.799	-44.861	-0.239	0.119
-509.785	96.199	-0.128	0.147
-508.770	-20.718	-0.188	-0.116
-507.756	-200.000	0.036	0.166
-506.741	-200.000	-0.014	0.262
-505.726	-104.393	0.160	-0.037
-504.712	-107.814	-0.089	-0.019
-503.697	-32.019	0.078	0.044
-502.683	88.638	0.157	0.175
-501.668	-200.000	0.001	0.079
-500.653	-72.737	0.147	-0.054
-499.639	49.909	0.299	0.282
-498.624	-95.417	-0.205	0.055
-497.610	-200.000	0.015	-0.105
-496.595	-60.555	0.292	0.124
-495.581	-183.663	0.218	-0.004
-494.566	135.413	-0.138	-0.179
-493.551	470.058	0.017	-0.038
-492.537	128.196	0.219	0.279
-491.522	-26.340	0.278	0.163
-490.508	387.270	-0.060	-0.124
-489.493	-200.000	0.039	-0.173
-488.478	-133.000	-0.327	-0.042
-487.464	109.597	0.191	0.229
-486.449	-43.722	-0.234	-0.118
-485.435	800.000	0.007	0.027
-484.420	-101.064	-0.088	-0.021
-483.405	55.451	0.259	-0.251
-482.391	-46.277	-0.239	-0.117
-481.376	301.797	-0.167	-0.308
-480.362	762.831	-0.060	-0.163
-479.347	-122.118	-0.100	0.016
-478.332	-86.036	-0.326	-0.101
-477.318	215.373	0.180	-0.286
-476.303	187.360	-0.059	0.088
-475.289	-146.321	0.362	-0.032
-474.274	-7.913	0.263	0.178
-473.259	-71.088	-0.187	-0.070
-472.245	-200.000	-0.023	0.151
-471.230	203.278	0.057	-0.087
-470.216	-68.712	0.386	-0.149
-469.201	-66.347	-0.285	-0.113
-468.186	-38.251	-0.003	0.002
-467.172	800.000	-0.017	0.051
-466.157	651.053	-0.043	0.110
-465.143	11.759	0.117	-0.090
-464.128	38.606	0.146	0.131
-463.113	-200.000	-0.015	0.147
-462.099	-99.407	-0.160	0.040
-461.084	-95.986	0.138	-0.037
-460.070	-71.057	0.229	0.086
-459.055	-200.000	0.326	0.001
-458.040	-54.410	-0.158	0.072
-457.026	611.742	-0.133	0.333
-456.011	-200.000	-0.023	-0.318
-454.997	-200.000	0.032	0.143
-453.982	-160.769	0.319	-0.017
-452.968	18.596	0.103	-0.082
-451.953	706.977	0.032	-0.086
-450.938	453.598	0.089	0.196
-449.924	-158.999	0.051	0.003
-448.909	17.562	-0.263	0.209
-447.895	-118.292	0.229	0.041
-446.880	-200.000	-0.275	0.001
-445.865	212.707	-0.227	-0.357
-444.851	-40.771	0.256	-0.133
-443.836	-175.820	0.085	0.002
-442.822	-127.566	-0.153	-0.022
-441.807	61.872	0.345	-0.343
-440.792	-154.091	0.098	0.007
-439.778	-102.147	-0.091	0.022
-438.763	523.729	-0.058	0.137
-437.749	92.568	-0.115	-0.129
-436.734	80.982	0.148	-0.159
-435.719	-116.287	0.521	-0.096
-434.705	-105.810	0.225	0.051
-433.690	73.646	0.235	0.246
-432.676	800.000	-0.032	0.108
-431.661	-119.974	-0.176	0.030
-430.646	79.406	0.100	0.107
-429.632	-51.750	0.260	-0.121
-428.617	-25.692	0.143	0.084
-427.603	173.702	-0.085	0.123
-426.588	-189.564	-0.233	-0.003
-425.573	-10.525	0.076	0.050
-424.559	-81.625	-0.161	0.053
-423.544	-184.291	-0.151	-0.002
-422.530	-200.000	0.038	-0.189
-421.515	-43.406	0.362	-0.183
-420.500	-122.534	-0.467	0.076
-419.486	-12.852	-0.292	0.189
-418.471	-164.530	0.046	-0.002
-417.457	-25.940	0.185	-0.109
-416.442	619.912	0.087	0.218
-415.428	-83.633	-0.247	-0.079
-414.413	-75.772	-0.167	0.059
-413.398	800.000	-0.025	-0.075
-412.384	71.225	-0.165	-0.170
-411.369	25.194	-0.079	0.066
-410.355	-129.429	-0.184	-0.025
-409.340	800.000	-0.127	-0.394
-408.325	110.260	-0.252	-0.302
-407.311	-141.771	0.112	-0.011
-406.296	474.340	0.080	0.180
-405.282	268.329	0.090	-0.156
-404.267	-163.478	-0.125	0.006
-403.252	330.116	-0.166	0.319
-402.238	53.774	0.185	-0.177
-401.223	-200.000	0.009	0.074
-400.209	130.401	-0.286	-0.365
-399.194	800.000	-0.102	0.344
-398.179	-75.684	-0.378	-0.134
-397.165	-70.565	-0.117	-0.044
-396.150	-91.450	0.369	0.105
-395.136	53.746	-0.212	-0.202
-394.121	-79.019	-0.130	0.044
-393.106	-145.717	-0.378	0.034
-392.092	738.063	0.070	0.186
-391.077	325.712	0.042	-0.080
-390.063	-6.335	0.209	0.142
-389.048	800.000	-0.077	0.289
-388.033	71.254	0.155	-0.160
-387.019	-52.630	-0.167	-0.077
-386.004	175.941	0.085	-0.123
-384.990	28.163	0.259	0.217
-383.975	-50.666	0.012	0.005
-382.960	-84.721	0.094	0.029
-381.946	-200.000	-0.085	-0.375
-380.931	-134.625	-0.344	0.042
-379.917	-153.028	-0.193	0.014
-378.902	528.844	-0.095	0.224
-377.888	-131.663	-0.322	0.042
-376.873	115.096	0.136	0.166
-375.858	611.799	0.050	-0.125
-374.844	-200.000	0.038	-0.269
-373.829	-51.260	-0.074	0.034
-372.815	-46.113	0.255	-0.125
-371.800	-55.393	-0.160	0.071
-370.785	-46.544	0.101	0.049
-369.771	289.984	-0.023	-0.041
-368.756	-38.014	-0.341	-0.180
-367.742	-1.298	0.207	-0.146
-366.727	138.545	-0.045	0.058
-365.712	49.331	0.324	-0.303
-364.698	267.476	0.091	-0.158
-363.683	-16.905	0.188	-0.118
-362.669	-200.000	0.023	-0.141
-361.654	-200.000	-0.017	0.293
-360.639	246.026	-0.059	0.099
-359.625	-32.572	0.335	0.186
-358.610	-140.164	-0.278	0.029
-357.596	322.460	0.191	0.362
-356.581	321.228	-0.170	-0.321
-355.566	-133.510	-0.106	0.013
-354.552	-3.971	0.044	-0.030
-353.537	73.266	0.083	-0.086
-352.523	-140.396	-0.159	0.017
-351.508	233.648	0.068	-0.111
-350.493	800.000	0.116	-0.432
-349.479	-94.883	-0.203	0.055
-348.464	704.500	-0.145	-0.380
-347.450	245.503	-0.144	0.241
-346.435	-72.672	0.339	-0.124
-345.420	79.710	0.170	0.181
-344.406	-159.331	0.189	-0.010
-343.391	164.458	-0.062	0.086
-342.377	800.000	-0.044	0.128
-341.362	-200.000	0.068	0.333
-340.348	21.113	-0.209	0.169
-339.333	-157.766	0.126	-0.007
-338.318	-200.000	-0.185	-0.001
-337.304	183.664	0.143	0.211
-336.289	-200.000	0.031	-0.157
-335.275	432.979	-0.096	-0.207
-334.260	-54.151	-0.381	-0.172
-333.245	-73.154	0.062	-0.023
-332.231	224.322	0.164	0.264
-331.216	285.039	0.081	0.145
-330.202	-200.000	-0.053	0.247
-329.187	-200.000	-0.038	0.199
-328.172	-200.000	0.025	0.138
-327.158	91.734	0.128	0.143
-326.143	-15.367	0.205	0.130
-325.129	-32.784	-0.331	0.183
-324.114	-28.884	-0.229	-0.131
-323.099	-47.846	0.321	-0.154
-322.085	800.000	-0.007	-0.021
-321.070	-70.870	0.228	0.085
-320.056	800.000	0.036	-0.149
-319.041	-200.000	-0.043	-0.265
-318.026	-17.385	0.152	-0.095
-317.012	800.000	0.056	0.179
-315.997	-126.936	-0.169	-0.025
-314.983	579.423	-0.151	-0.366
-313.968	800.000	0.077	-0.242
-312.953	122.127	-0.165	-0.205
-311.939	-13.149	-0.027	-0.017
-310.924	220.142	-0.269	0.427
-309.910	-95.636	-0.132	-0.035
-308.895	106.289	0.142	-0.167
-307.880	-129.001	0.185	0.026
-306.866	-65.853	-0.138	0.055
-305.851	-93.515	0.234	0.064
-304.837	-72.615	0.401	0.147
-303.822	-137.733	-0.126	-0.014
-302.807	-92.383	-0.131	-0.037
-301.793	-143.233	-0.142	0.014
-300.778	113.769	-0.239	-0.288
-299.764	82.245	0.108	0.116
-298.749	163.660	-0.144	0.202
-297.735	257.418	-0.052	-0.089
-296.720	132.536	-0.224	-0.287
-295.705	11.994	-0.212	-0.162
-294.691	-200.000	0.053	-0.230
-293.676	-119.230	0.292	-0.050
-292.662	294.014	-0.061	0.111
-291.647	800.000	0.020	0.057
-290.632	-80.293	-0.063	-0.021
-289.618	800.000	-0.068	0.192
-288.603	443.039	0.125	0.272
-287.589	-147.762	0.120	0.010
-286.574	-115.177	-0.106	0.020
-285.559	86.247	-0.045	-0.050
-284.545	-26.794	0.167	0.097
-283.530	-28.339	0.162	0.093
-282.516	-142.797	0.186	0.018
-281.501	231.228	0.089	-0.145
-280.486	24.191	0.125	-0.103
-279.472	-121.635	0.104	-0.017
-278.457	310.198	0.125	0.233
-277.443	-30.890	0.209	0.117
-276.428	263.109	-0.082	0.142
-275.413	-46.374	0.243	0.118
-274.399	-200.000	-0.040	-0.273
-273.384	-13.255	-0.329	-0.212
-272.370	-78.421	-0.099	-0.034
-271.355	209.538	-0.240	-0.373
-270.340	800.000	0.066	0.221
-269.326	15.256	0.178	-0.139
-268.311	-21.489	-0.041	-0.025
-267.297	-55.271	-0.276	0.123
-266.282	800.000	-0.046	-0.131
-265.267	32.198	-0.102	0.087
-264.253	-121.228	0.047	-0.008
-263.238	-200.000	0.011	-0.279
-262.224	-200.000	-0.014	0.198
-261.209	-119.526	-0.236	-0.041
-260.195	-200.000	-0.019	-0.101
-259.180	178.330	0.074	-0.106
-258.165	-104.283	0.277	0.064
-257.151	-63.900	-0.155	-0.063
-256.136	6.905	0.117	-0.086
-255.122	-26.048	0.089	-0.052
-254.107	-59.073	0.120	-0.051
-253.092	35.313	0.053	-0.046
-252.078	46.039	-0.146	-0.134
-251.063	800.000	0.004	0.016
-250.049	719.560	-0.053	-0.139
-249.034	-77.046	0.086	0.030
-248.019	406.504	-0.069	-0.144
-247.005	-200.000	-0.037	-0.219
-245.990	100.364	0.201	0.231
-244.976	-43.689	-0.250	0.125
-243.961	-200.000	-0.062	-0.358
-242.946	-200.000	-0.001	0.309
-241.932	474.218	-0.219	0.490
-240.917	-200.000	0.034	0.255
-239.903	-55.805	-0.194	0.086
-238.888	124.849	0.061	-0.076
-237.873	-163.318	-0.170	-0.008
-236.859	-138.570	-0.177	-0.019
-235.844	-160.639	-0.099	-0.005
-234.830	233.213	-0.216	-0.351
-233.815	-173.361	0.109	-0.003
-232.800	-2.862	0.033	-0.023
-231.786	-169.247	0.154	0.006
-230.771	-200.000	-0.002	0.074
-229.757	-166.987	0.176	0.007
-228.742	-200.000	-0.023	0.239
-227.727	361.917	-0.199	-0.395
-226.713	-200.000	-0.045	-0.276
-225.698	129.375	0.096	0.122
-224.684	31.040	0.053	-0.045
-223.669	638.552	0.121	-0.303
-222.655	200.612	0.107	0.163
-221.640	-200.000	-0.011	0.087
-220.625	-143.949	-0.326	0.030
-219.611	26.640	0.250	0.207
-218.596	-26.244	-0.341	-0.198
-217.582	30.721	0.294	-0.249
-216.567	156.654	0.222	0.303
-215.552	68.498	0.264	-0.268
-214.538	746.459	0.052	-0.140
-213.523	36.256	0.217	-0.189
-212.509	122.597	0.097	0.120
-211.494	-179.237	0.242	0.005
-210.479	111.146	-0.102	0.122
-209.465	-65.601	-0.102	-0.041
-208.450	16.201	0.194	0.151
-207.436	-200.000	-0.039	-0.221
-206.421	177.188	-0.109	-0.157
-205.406	117.237	-0.040	0.049
-204.392	-200.000	0.002	-0.022
-203.377	-72.343	0.239	0.087
-202.363	22.363	0.137	-0.111
-201.348	-64.617	0.082	0.033
-200.333	120.895	-0.073	-0.090
-199.319	671.954	-0.076	-0.196
-198.304	-54.034	0.130	-0.058
-197.290	-20.816	-0.223	-0.135
-196.275	567.335	-0.181	0.434
-195.260	7.868	0.124	0.092
-194.246	-11.290	0.106	0.069
-193.231	-200.000	0.030	-0.249
-192.217	800.000	-0.080	0.346
-191.202	50.928	-0.073	-0.069
-190.187	-174.443	-0.195	0.006
-189.173	-17.943	0.322	-0.199
-188.158	567.459	-0.083	0.199
-187.144	-139.198	0.144	-0.015
-186.129	-200.000	-0.012	-0.330
-185.114	151.013	0.182	-0.244
-184.100	-98.226	0.332	0.084
-183.085	168.409	-0.028	0.039
-182.071	62.358	0.296	-0.292
-181.056	12.520	0.183	0.140
-180.042	-85.694	-0.092	-0.028
-179.027	-101.716	0.068	0.016
-178.012	91.795	0.152	0.169
-176.998	800.000	-0.052	-0.187
-175.983	532.133	-0.074	-0.173
-174.969	-90.136	-0.219	-0.063
-173.954	201.621	0.079	-0.121
-172.939	2.437	-0.032	-0.023
-171.925	86.862	0.398	0.435
-170.910	-50.975	0.184	0.085
-169.896	-14.436	0.215	-0.136
-168.881	-48.856	-0.116	-0.055
-167.866	800.000	0.078	0.291
-166.852	173.212	-0.073	0.104
-165.837	-0.457	0.121	0.085
-164.823	146.412	-0.171	-0.227
-163.808	300.253	-0.019	-0.035
-162.793	71.215	0.177	-0.181
-161.779	-72.952	0.235	-0.085
-160.764	-200.000	-0.036	-0.162
-159.750	-48.179	0.237	0.113
-158.735	-200.000	-0.026	0.257
-157.720	-27.718	0.115	-0.066
-156.706	-125.353	0.190	0.029
-155.691	-42.046	0.201	0.102
-154.677	-200.000	0.022	0.210
-153.662	352.699	-0.115	0.225
-152.647	-178.028	-0.088	0.002
-151.633	206.087	0.043	0.067
-150.618	41.749	-0.018	0.016
-149.604	-200.000	0.031	-0.196
-148.589	172.379	0.031	-0.044
-147.574	73.679	-0.149	0.154
-146.560	216.215	0.152	0.239
-145.545	475.895	0.082	0.182
-144.531	302.180	0.105	0.191
-143.516	145.237	-0.172	-0.227
-142.502	147.029	-0.117	-0.155
-141.487	-182.773	-0.186	0.003
-140.472	-89.454	-0.360	-0.104
-139.458	50.822	0.066	-0.061
-138.443	288.447	-0.110	0.196
-137.429	6.173	-0.068	-0.050
-136.414	-128.511	-0.101	0.014
-135.399	-145.758	0.163	-0.014
-134.385	-27.146	-0.274	-0.157
-133.370	-123.441	0.295	0.046
-132.356	-159.291	-0.123	0.007
-131.341	54.948	0.087	-0.083
-130.326	800.000	-0.047	0.175
-129.312	-200.000	0.001	0.485
-128.297	-38.123	-0.317	0.166
-127.283	106.204	-0.182	-0.212
-126.268	-55.102	-0.130	0.058
-125.253	800.000	-0.033	-0.118
-124.239	-100.109	-0.377	-0.093
-123.224	-16.342	0.031	-0.019
-122.210	24.075	-0.059	0.048
-121.195	800.000	-0.041	-0.147
-120.180	800.000	0.056	0.220
-119.166	-200.000	0.012	-0.085
-118.151	-103.822	0.158	-0.036
-117.137	64.503	0.249	0.247
-116.122	-200.000	0.070	0.332
-115.107	181.784	-0.125	0.182
-114.093	-135.120	0.218	-0.026
-113.078	-30.490	-0.126	0.070
-112.064	118.349	0.127	-0.154
-111.049	-200.000	-0.035	0.188
-110.034	17.990	0.216	-0.170
-109.020	300.860	-0.130	0.236
-108.005	-200.000	-0.003	0.115
-106.991	88.593	-0.138	0.151
-105.976	120.461	0.197	0.241
-104.962	403.245	-0.049	-0.102
-103.947	-200.000	-0.031	-0.258
-102.932	-5.893	-0.270	-0.182
-101.918	-64.238	0.321	0.129
-100.903	-64.416	0.025	0.010
-99.889	-77.045	-0.077	-0.026
-98.874	29.991	0.120	-0.101
-97.859	800.000	-0.020	0.056
-96.845	-20.880	-0.129	-0.078
-95.830	-180.266	0.483	-0.010
-94.816	-200.000	0.019	0.255
-93.801	-136.898	0.270	-0.030
-92.786	-154.793	-0.140	0.009
-91.772	340.943	0.073	-0.141
-90.757	-147.597	-0.218	0.018
-89.743	728.340	-0.053	0.140
-88.728	370.801	0.074	0.147
-87.713	-200.000	-0.007	-0.107
-86.699	-200.000	0.021	0.187
-85.684	42.161	0.152	-0.136
-84.670	-70.518	0.152	-0.057
-83.655	-3.729	-0.265	0.181
-82.640	-4.624	0.134	-0.091
-81.626	-200.000	-0.015	0.185
-80.611	-185.984	-0.372	0.005
-79.597	39.840	0.095	0.084
-78.582	415.298	-0.163	0.343
-77.567	-49.362	0.153	0.072
-76.553	-133.315	0.122	-0.015
-75.538	249.926	-0.129	-0.216
-74.524	-200.000	-0.048	-0.239
-73.509	-118.494	-0.132	-0.023
-72.494	-116.746	-0.204	0.037
-71.480	10.335	-0.135	-0.101
-70.465	539.316	-0.091	-0.214
-69.451	-200.000	0.032	0.227
-68.436	-131.015	0.381	0.050
-67.422	800.000	0.061	0.172
-66.407	99.202	0.180	-0.205
-65.392	-60.569	-0.083	-0.035
-64.378	176.033	-0.208	0.297
-63.363	47.757	-0.163	-0.150
-62.349	-176.808	0.242	-0.006
-61.334	14.267	-1.017	-0.779
-60.319	-33.129	0.639	0.348
-59.305	-200.000	0.056	-0.910
-58.290	800.000	0.428	1.230
-57.276	332.086	0.839	1.593
-56.261	-200.000	97.403	585.350
-55.246	590.638	1407.402	3413.297
-54.232	189.532	2607.084	3842.449
-53.217	118.387	2165.310	2626.167
-52.203	43.318	1611.306	1446.771
-51.188	34.522	1344.060	1153.870
-50.173	31.328	1301.681	1098.696
-49.159	54.368	1350.650	1278.467
-48.144	55.860	1366.779	1302.600
-47.130	34.734	1324.716	1138.343
-46.115	31.047	1307.642	1101.891
-45.100	30.928	1302.319	1096.662
-44.086	30.924	1299.790	1094.463
-43.071	30.907	1297.458	1092.357
-42.057	30.870	1295.501	1090.451
-41.042	30.950	1293.793	1089.438
-40.027	30.813	1292.835	1087.786
-39.013	30.803	1291.057	1086.189
-37.998	30.856	1289.221	1084.910
-36.984	31.003	1287.335	1084.137
-35.969	31.037	1285.123	1082.428
-34.954	30.994	1283.507	1080.772
-33.940	30.983	1282.588	1079.893
-32.925	31.067	1281.217	1079.184
-31.911	30.994	1279.791	1077.514
-30.896	31.098	1278.646	1077.110
-29.881	31.059	1276.850	1075.332
-28.867	31.014	1275.785	1074.131
-27.852	31.156	1274.189	1073.563
-26.838	31.151	1272.401	1071.981
-25.823	31.000	1271.583	1070.384
-24.809	30.968	1270.447	1069.202
-23.794	31.055	1268.725	1068.209
-22.779	31.012	1267.376	1066.784
-21.765	31.171	1265.852	1066.369
-20.750	31.067	1264.796	1064.841
-19.736	30.982	1263.533	1063.253
-18.721	30.969	1262.186	1062.004
-17.706	30.853	1261.298	1060.553
-16.692	30.884	1259.928	1059.536
-15.677	30.905	1258.579	1058.480
-14.663	30.773	1258.041	1057.231
-13.648	30.760	1257.106	1056.332
-12.633	30.771	1255.914	1055.352
-11.619	30.840	1255.102	1055.020
-10.604	30.857	1254.132	1054.255
-9.590	30.874	1253.050	1053.403
-8.575	30.823	1252.053	1052.234
-7.560	30.782	1251.161	1051.210
-6.546	30.752	1250.237	1050.225
-5.531	30.773	1249.582	1049.748
-4.517	30.780	1248.791	1049.084
-3.502	30.824	1247.928	1048.565
-2.487	30.830	1246.589	1047.432
-1.473	30.872	1242.978	1044.590
-0.458	29.869	1227.852	1026.281
0.556	28.188	1210.936	989.016
1.571	24.497	1215.619	972.687
2.586	23.438	1229.927	978.206
3.600	22.317	1217.665	962.242
4.615	17.014	1145.201	877.547
5.629	8.622	1071.666	780.349
6.644	4.866	1051.993	747.949
7.659	4.552	1049.228	744.413
8.673	4.348	1048.397	742.780
9.688	4.325	1047.064	741.660
10.702	4.916	1045.178	743.079
11.717	10.420	1052.686	774.723
12.731	18.555	1063.765	821.959
13.746	22.029	1067.380	841.355
14.761	21.950	1067.343	840.871
15.775	21.066	1066.211	835.675
16.790	20.073	1063.803	828.964
17.804	19.531	1062.039	824.926
18.819	19.227	1061.192	822.744
19.834	19.044	1060.847	821.529
20.848	19.080	1059.585	820.653
21.863	18.855	1059.181	819.194
22.877	18.818	1058.463	818.392
23.892	18.738	1057.474	817.171
24.907	18.643	1056.910	816.210
25.921	18.672	1055.697	815.339
26.936	18.554	1054.587	813.852
27.950	18.754	1052.994	813.500
28.965	18.688	1052.228	812.521
29.980	18.937	1050.830	812.548
30.994	18.994	1049.568	811.767
32.009	19.035	1048.896	811.370
33.023	19.005	1047.662	810.203
34.038	18.884	1046.962	809.022
35.053	18.843	1045.686	807.772
36.067	18.664	1045.154	806.448
37.082	18.846	1043.879	806.244
38.096	18.977	1043.281	806.329
39.111	18.905	1042.588	805.384
40.126	18.733	1041.322	803.529
41.140	18.440	1039.773	800.893
42.155	18.294	1038.409	799.091
43.169	18.295	1037.159	798.061
44.184	18.308	1036.671	797.674
45.199	18.381	1035.540	797.076
46.213	18.564	1034.753	797.248
47.228	18.696	1033.883	797.121
48.242	18.780	1033.415	797.081
49.257	18.668	1031.975	795.378
50.271	18.675	1031.652	795.095
51.286	18.864	1030.924	795.337
52.301	18.763	1029.536	793.728
53.315	18.664	1028.482	792.388
54.330	18.411	1027.639	790.504
55.344	18.469	1026.786	790.045
56.359	18.383	1025.811	788.829
57.374	18.413	1024.780	788.103
58.388	18.527	1023.137	787.292
59.403	18.240	1022.962	785.770
60.417	18.257	1022.077	785.099
61.432	18.261	1021.656	784.726
62.447	18.184	1020.569	783.469
63.461	18.146	1019.925	782.729
64.476	18.086	1018.925	781.618
65.490	18.058	1018.349	780.979
66.505	18.147	1017.492	780.660
67.520	18.221	1016.892	780.470
68.534	18.352	1015.714	780.092
69.549	18.097	1015.450	778.659
70.563	18.059	1014.719	777.857
71.578	18.019	1013.662	776.794
72.593	17.818	1013.081	775.367
73.607	17.901	1012.209	775.010
74.622	17.853	1011.766	774.385
75.636	18.063	1010.792	774.520
76.651	18.058	1010.109	773.907
77.666	17.993	1009.698	773.229
78.680	18.063	1009.328	773.194
79.695	18.087	1008.565	772.650
80.709	18.273	1007.914	772.923
81.724	18.408	1007.477	773.128
82.739	18.336	1007.043	772.401
83.753	18.650	1006.550	773.373
84.768	19.006	1005.671	774.231
85.782	19.180	1005.025	774.447
86.797	19.038	1004.192	773.100
87.812	18.883	1003.162	771.542
88.826	18.781	1002.579	770.569
89.841	18.980	1000.846	770.059
90.855	19.024	1000.403	769.845
91.870	19.002	999.649	769.098
92.884	19.022	998.613	768.322
93.899	19.018	997.772	767.592
94.914	19.107	996.861	767.217
95.928	19.033	996.483	766.532
96.943	19.070	994.858	765.377
97.957	18.768	994.491	763.685
98.972	18.912	993.159	763.234
99.987	18.965	992.698	763.046
101.001	18.758	991.606	761.223
102.016	18.877	990.958	761.183
103.030	18.991	989.988	760.874
104.045	18.924	989.218	759.921
105.060	18.779	988.783	758.879
106.074	18.571	987.405	756.836
107.089	18.291	985.842	754.337
108.103	18.167	985.263	753.282
109.118	18.247	983.988	752.593
110.133	18.104	983.089	751.212
111.147	18.191	982.383	750.984
112.162	18.223	981.699	750.538
113.176	18.384	981.442	750.978
114.191	18.429	980.139	750.112
115.206	18.446	979.387	749.546
116.220	18.329	978.653	748.409
117.235	18.382	978.028	748.093
118.249	18.221	976.952	746.501
119.264	18.134	976.243	745.514
120.279	18.153	975.191	744.727
121.293	18.074	974.754	743.984
122.308	17.850	973.762	742.188
123.322	17.976	972.489	741.698
124.337	17.894	971.477	740.508
125.352	17.968	970.297	739.862
126.366	17.895	969.373	738.777
127.381	17.997	968.492	738.480
128.395	18.028	967.458	737.762
129.410	18.033	966.791	737.209
130.424	18.317	965.799	737.610
131.439	18.392	965.392	737.557
132.454	18.361	964.834	736.932
133.468	18.442	963.702	736.349
134.483	18.336	963.174	735.426
135.497	18.455	962.252	735.168
136.512	18.439	961.561	734.506
137.527	18.481	960.382	733.722
138.541	18.465	959.913	733.228
139.556	18.419	959.324	732.517
140.570	18.668	958.827	733.139
141.585	18.759	958.315	733.071
142.600	18.872	957.267	732.686
143.614	18.957	956.555	732.437
144.629	18.988	955.951	732.041
145.643	18.877	954.755	730.588
146.658	18.696	953.250	728.604
147.673	18.524	952.638	727.343
148.687	18.470	951.675	726.314
149.702	18.379	950.896	725.272
150.716	18.414	950.204	724.825
151.731	18.552	948.942	724.381
152.746	18.514	948.324	723.687
153.760	18.597	947.753	723.536
154.775	18.588	947.339	723.121
155.789	18.684	946.688	722.963
156.804	18.637	946.270	722.382
157.819	18.760	945.344	722.128
158.833	18.983	944.854	722.625
159.848	18.989	944.084	721.996
160.862	18.947	942.895	720.848
161.877	18.527	941.903	718.269
162.892	18.355	941.052	716.834
163.906	18.394	939.837	716.010
164.921	18.532	938.891	715.802
165.935	18.587	937.854	715.178
166.950	18.668	937.492	715.175
167.964	18.588	936.717	714.189
168.979	18.460	935.708	712.825
169.994	18.520	934.452	712.055
171.008	18.716	934.062	712.507
172.023	18.834	933.521	712.518
173.037	18.978	933.066	712.705
174.052	18.781	931.925	710.956
175.067	18.456	931.115	708.931
176.081	18.461	930.591	708.491
177.096	18.366	930.130	707.685
178.110	18.407	929.468	707.285
179.125	18.584	928.790	707.440
180.140	18.613	928.474	707.254
181.154	18.643	928.645	707.446
182.169	18.813	928.365	707.870
183.183	19.015	927.592	708.051
184.198	18.985	925.925	706.590
185.213	18.863	925.545	705.739
186.227	19.024	925.218	706.087
187.242	19.005	924.704	705.554
188.256	19.092	924.122	705.407
189.271	19.251	922.890	705.052
190.286	18.840	922.239	702.813
191.300	18.392	921.351	700.242
192.315	18.337	920.378	699.215
193.329	18.439	920.298	699.509
194.344	18.607	919.495	699.524
195.359	18.657	919.293	699.509
196.373	18.864	918.728	699.862
197.388	18.969	918.267	699.875
198.402	19.159	918.119	700.474
199.417	19.297	917.465	700.473
200.432	19.583	916.584	700.899
201.446	19.436	916.610	700.262
202.461	19.568	915.575	699.945
203.475	19.308	915.696	698.923
204.490	19.098	914.581	697.158
205.504	19.003	913.175	695.642
206.519	18.946	912.494	694.827
207.534	19.081	911.651	694.669
208.548	19.011	911.083	693.893
209.563	19.147	910.317	693.797
210.577	19.166	910.001	693.574
211.592	19.261	909.621	693.602
212.607	19.440	908.706	693.565
213.621	19.312	907.794	692.295
214.636	19.283	907.199	691.662
215.650	19.307	906.592	691.233
216.665	19.462	905.634	691.063
217.680	19.527	905.137	690.880
218.694	19.462	904.573	690.130
219.709	19.402	904.461	689.745
220.723	19.475	903.403	689.168
221.738	19.382	902.838	688.303
222.753	19.522	902.061	688.210
223.767	19.429	901.905	687.659
224.782	19.671	901.321	688.118
225.796	19.634	900.379	687.190
226.811	19.601	899.509	686.332
227.826	19.266	899.417	684.874
228.840	19.220	898.689	684.073
229.855	19.344	897.726	683.773
230.869	19.270	896.856	682.756
231.884	19.210	896.058	681.850
232.899	19.300	895.158	681.463
233.913	19.162	894.656	680.474
234.928	19.105	894.050	679.727
235.942	19.145	893.576	679.462
236.957	19.162	893.154	679.151
237.972	19.206	892.325	678.635
238.986	19.134	891.827	677.912
240.001	18.967	891.424	676.888
241.015	19.192	890.577	677.068
242.030	19.203	889.914	676.550
243.045	19.383	889.576	676.937
244.059	19.335	888.940	676.206
245.074	19.359	888.341	675.783
246.088	19.562	887.692	676.027
247.103	19.687	887.203	676.082
248.117	19.788	886.857	676.153
249.132	20.231	886.506	677.557
250.147	20.291	886.386	677.640
251.161	20.397	885.619	677.407
252.176	20.251	884.707	676.083
253.190	20.566	883.951	676.669
254.205	20.452	883.477	675.804
255.220	20.371	882.719	674.850
256.234	20.250	882.334	674.026
257.249	20.376	881.655	673.935
258.263	20.266	880.961	672.918
259.278	20.271	880.120	672.236
260.293	20.370	879.697	672.239
261.307	20.532	879.415	672.589
262.322	20.354	879.038	671.553
263.336	20.517	877.916	671.266
264.351	20.506	877.423	670.788
265.366	20.596	876.267	670.190
266.380	20.464	875.987	669.407
267.395	20.397	875.362	668.612
268.409	20.281	874.127	667.167
269.424	20.311	873.445	666.700
270.439	20.320	872.878	666.242
271.453	20.110	872.012	664.720
272.468	20.196	871.668	664.727
273.482	20.233	870.975	664.282
274.497	20.173	870.546	663.667
275.512	20.120	870.172	663.119
276.526	20.087	869.880	662.712
277.541	20.189	869.407	662.684
278.555	20.430	868.742	663.038
279.570	20.710	868.050	663.518
280.585	20.606	867.449	662.606
281.599	20.378	866.345	660.836
282.614	20.280	865.633	659.859
283.628	20.364	864.765	659.461
284.643	20.136	864.883	658.625
285.657	20.338	864.266	658.863
286.672	20.441	863.238	658.414
287.687	20.504	862.460	658.000
288.701	20.434	862.088	657.390
289.716	20.265	861.988	656.619
290.730	20.469	861.084	656.643
291.745	20.385	860.521	655.839
292.760	20.510	860.156	655.975
293.774	20.823	859.346	656.477
294.789	20.613	858.680	655.120
295.803	20.315	858.150	653.537
296.818	20.437	857.216	653.227
297.833	20.360	856.535	652.358
298.847	20.402	856.069	652.104
299.862	20.522	855.719	652.229
300.876	20.707	855.059	652.362
301.891	20.684	854.801	652.021
302.906	21.008	854.080	652.628
303.920	20.941	853.954	652.222
304.935	20.984	853.297	651.823
305.949	21.033	852.161	651.080
306.964	20.855	851.462	649.825
307.979	20.725	851.295	649.155
308.993	20.832	850.944	649.231
310.008	20.820	850.391	648.707
311.022	20.859	849.640	648.222
312.037	20.755	848.952	647.252
313.052	20.457	847.861	645.255
314.066	20.311	847.729	644.557
315.081	20.306	847.229	644.101
316.095	20.473	846.329	643.977
317.110	20.422	845.891	643.401
318.125	20.510	845.173	643.123
319.139	20.598	844.595	642.951
320.154	20.368	844.518	641.984
321.168	20.644	843.636	642.276
322.183	20.668	843.119	641.914
323.197	20.654	842.813	641.572
324.212	20.518	842.297	640.623
325.227	20.607	841.679	640.424
326.241	20.510	840.705	639.269
327.256	20.492	840.380	638.898
328.270	20.423	840.078	638.361
329.285	20.489	839.261	637.924
330.300	20.502	838.569	637.388
331.314	20.587	838.352	637.482
332.329	20.921	837.937	638.332
333.343	20.889	837.655	637.944
334.358	20.708	837.461	637.077
335.373	20.936	836.857	637.396
336.387	21.081	836.254	637.407
337.402	20.952	836.632	637.169
338.416	21.058	836.232	637.195
339.431	21.274	835.407	637.300
340.446	21.428	835.153	637.609
341.460	21.328	834.706	636.847
342.475	21.409	834.750	637.118
343.489	21.459	833.882	636.583
344.504	21.691	833.422	637.018
345.519	21.666	833.357	636.821
346.533	21.363	832.900	635.314
347.548	21.365	831.689	634.343
348.562	21.072	830.922	632.641
349.577	20.900	830.469	631.613
350.592	20.931	829.677	631.070
351.606	20.918	829.055	630.494
352.621	20.995	828.280	630.126
353.635	21.182	827.887	630.447
354.650	21.108	827.277	629.658
355.665	21.219	826.960	629.762
356.679	21.183	826.579	629.288
357.694	21.298	825.449	628.783
358.708	21.256	824.785	628.073
359.723	21.281	824.438	627.845
360.738	21.226	824.205	627.412
361.752	21.304	823.383	627.013
362.767	21.477	822.901	627.209
363.781	21.688	822.493	627.598
364.796	21.840	822.216	627.874
365.810	21.754	821.808	627.201
366.825	21.827	821.500	627.171
367.840	21.726	821.052	626.414
368.854	21.698	819.905	625.383
369.869	21.679	819.593	625.021
370.883	21.629	819.469	624.692
371.898	21.728	819.313	624.870
372.913	21.904	818.767	625.028
373.927	21.717	818.294	623.943
374.942	21.799	817.775	623.787
375.956	21.761	817.518	623.400
376.971	22.032	817.303	624.144
377.986	22.016	816.876	623.707
379.000	22.142	816.070	623.483
380.015	21.920	815.868	622.486
381.029	21.996	814.867	621.936
382.044	21.942	814.390	621.326
383.059	22.171	813.509	621.408
384.073	22.004	812.674	620.127
385.088	21.757	812.381	618.972
386.102	21.737	811.618	618.270
387.117	21.654	811.132	617.549
388.132	21.542	810.699	616.773
389.146	21.635	810.379	616.801
390.161	21.826	809.972	617.108
391.175	21.889	809.463	616.886
392.190	21.974	808.909	616.710
393.205	21.757	808.271	615.405
394.219	21.731	807.777	614.885
395.234	21.645	807.232	614.114
396.248	21.586	806.648	613.407
397.263	21.415	806.650	612.757
398.278	21.444	805.810	612.167
399.292	21.489	805.743	612.219
400.307	21.357	805.564	611.565
401.321	21.506	804.594	611.295
402.336	21.605	804.418	611.455
403.350	21.695	803.994	611.391
404.365	21.747	803.650	611.259
405.380	22.149	803.199	612.260
406.394	22.043	802.776	611.517
407.409	22.098	802.476	611.425
408.423	22.150	802.477	611.551
409.438	22.328	801.743	611.557
410.453	22.380	801.387	611.414
411.467	22.371	801.002	611.033
412.482	22.538	800.513	611.186
413.496	22.537	800.427	611.061
414.511	22.556	799.955	610.714
415.526	22.485	799.133	609.788
416.540	22.522	798.300	609.226
417.555	22.466	797.963	608.720
418.569	22.494	797.761	608.609
419.584	22.508	797.388	608.319
420.599	22.391	796.953	607.530
421.613	163.428	1369.205	1795.270
422.628	141.892	1452.588	1795.361
