DTS Sentinel unit serial number:	SN413079Multiplexer serial number:	ORYXHardware model number:	OX4-SRSoftware version number:	ORYX F/W v4.00 Oryx Data Collector v3.7.2.0data status	okinstallation	princeton_trtdifferential loss correction	single-endedforward channel	channel 1reverse channel	N/Adate	2019/09/13time	13:22:35forward acquisition time	60.00reverse acquisition time	0.00gamma	496.2192k internal	0.2304k external	0.2304temperature offset calibration	1.0166default loss term (dB/km)	0.3790temperature slope calibration	1.0000multiplexer offset coefficient	1.0000multiplexer slope coefficient	1.0000fibre end	0.00T internal ref (°C)	35.00T ext. ref 1 (°C)	4.56T ext. ref 2 (°C)	31.18length (m)	temperature (°C)	Stokes	anti-Stokes-747.200	7.655	-0.051	0.039
-746.185	800.000	-0.037	0.125
-745.171	35.693	0.211	0.189
-744.156	800.000	0.115	0.371
-743.142	-200.000	-0.003	0.220
-742.127	-31.249	-0.273	0.157
-741.112	-200.000	0.031	0.161
-740.098	800.000	0.099	0.351
-739.083	550.183	-0.068	0.165
-738.069	156.438	0.294	0.413
-737.054	-80.747	-0.274	-0.093
-736.039	348.764	-0.019	0.039
-735.025	-53.546	0.362	-0.169
-734.010	-163.002	-0.164	-0.008
-732.996	-200.000	-0.117	-0.528
-731.981	-146.897	-0.143	0.013
-730.966	-153.283	-0.367	-0.026
-729.952	315.566	-0.024	-0.047
-728.937	800.000	-0.048	-0.203
-727.923	-100.713	0.120	-0.030
-726.908	-27.758	-0.057	-0.033
-725.894	23.633	-0.205	0.172
-724.879	-35.009	-0.268	0.149
-723.864	-200.000	-0.030	-0.187
-722.850	-130.126	-0.128	0.018
-721.835	63.617	-0.091	-0.093
-720.821	-200.000	0.003	-0.274
-719.806	30.800	-0.141	0.123
-718.791	323.238	0.035	0.068
-717.777	-109.734	-0.247	0.053
-716.762	-124.876	-0.114	0.018
-715.748	800.000	-0.063	-0.182
-714.733	23.361	-0.186	0.155
-713.718	-40.350	0.212	-0.112
-712.704	-200.000	-0.053	-0.350
-711.689	-36.775	0.137	-0.075
-710.675	323.820	-0.054	0.105
-709.660	66.027	0.173	0.179
-708.645	-108.581	0.339	-0.074
-707.631	-106.914	-0.174	0.039
-706.616	-32.338	0.262	0.149
-705.602	-200.000	0.008	-0.230
-704.587	16.474	0.077	-0.062
-703.572	-117.127	-0.170	0.032
-702.558	4.715	0.124	0.093
-701.543	704.515	-0.067	0.180
-700.529	-40.716	0.125	-0.066
-699.514	112.987	-0.043	0.053
-698.499	209.175	0.116	-0.184
-697.485	-76.054	-0.338	0.122
-696.470	800.000	-0.045	-0.136
-695.456	-200.000	-0.001	0.029
-694.441	-163.820	-0.114	0.005
-693.426	-66.857	0.194	-0.078
-692.412	-113.770	-0.306	-0.060
-691.397	800.000	0.070	0.242
-690.383	-124.430	0.130	0.021
-689.368	480.420	-0.039	-0.090
-688.354	-53.424	0.233	-0.108
-687.339	-117.203	0.169	-0.031
-686.324	800.000	-0.017	-0.071
-685.310	-95.309	0.057	0.016
-684.295	9.504	0.157	-0.121
-683.281	169.247	-0.344	0.499
-682.266	-48.639	-0.445	-0.217
-681.251	23.182	-0.050	0.042
-680.237	-51.189	0.144	-0.069
-679.222	-68.680	0.108	0.042
-678.208	-52.887	-0.425	0.199
-677.193	254.195	0.092	-0.161
-676.178	800.000	0.029	-0.108
-675.164	123.690	0.187	-0.238
-674.149	-200.000	-0.018	0.186
-673.135	-157.621	0.280	-0.017
-672.120	800.000	-0.052	0.159
-671.105	800.000	0.018	-0.060
-670.091	29.857	-0.149	-0.129
-669.076	796.338	-0.057	0.160
-668.062	-103.047	-0.060	-0.014
-667.047	369.166	-0.153	-0.314
-666.032	-97.928	-0.152	-0.040
-665.018	501.226	0.097	0.228
-664.003	-64.504	0.124	-0.051
-662.989	800.000	-0.115	-0.390
-661.974	-165.440	-0.152	0.007
-660.959	-33.872	0.214	0.120
-659.945	9.572	-0.205	0.158
-658.930	-200.000	0.006	-0.101
-657.916	41.446	0.104	-0.096
-656.901	-200.000	0.046	0.317
-655.886	800.000	-0.050	-0.179
-654.872	-51.719	0.312	-0.147
-653.857	-200.000	-0.047	-0.311
-652.843	-9.425	0.185	-0.125
-651.828	49.354	-0.106	-0.101
-650.814	588.265	-0.007	0.016
-649.799	800.000	0.028	-0.086
-648.784	-200.000	0.007	0.063
-647.770	-128.148	-0.109	0.016
-646.755	36.935	0.192	-0.173
-645.741	12.374	0.169	-0.132
-644.726	603.827	-0.033	-0.082
-643.711	325.202	-0.087	-0.169
-642.697	800.000	-0.022	0.067
-641.682	512.985	-0.127	-0.299
-640.668	20.040	0.145	-0.118
-639.653	98.334	0.254	-0.297
-638.638	-3.060	-0.119	-0.084
-637.624	4.840	-0.101	0.075
-636.609	-68.174	-0.234	-0.092
-635.595	55.746	0.175	0.172
-634.580	573.575	-0.114	-0.282
-633.565	-67.805	-0.137	0.054
-632.551	-78.791	-0.226	-0.078
-631.536	-200.000	0.018	-0.317
-630.522	76.224	-0.043	0.046
-629.507	-76.830	0.373	0.132
-628.492	-1.559	0.317	0.226
-627.478	-87.195	-0.212	0.065
-626.463	-112.410	0.126	0.026
-625.449	800.000	0.046	0.137
-624.434	372.513	-0.073	0.150
-623.419	273.094	0.205	0.368
-622.405	-200.000	-0.013	0.084
-621.390	167.210	-0.225	0.323
-620.376	800.000	-0.087	0.364
-619.361	-200.000	0.005	-0.213
-618.346	234.834	-0.152	-0.254
-617.332	-200.000	0.013	0.071
-616.317	-56.189	0.167	0.075
-615.303	800.000	-0.120	0.349
-614.288	-32.087	0.338	0.192
-613.273	-159.786	-0.294	0.016
-612.259	270.680	-0.190	-0.338
-611.244	-114.979	0.183	0.035
-610.230	-54.913	-0.254	0.116
-609.215	-31.808	-0.076	-0.043
-608.201	38.615	0.117	0.106
-607.186	-61.114	0.232	-0.099
-606.171	800.000	0.139	-0.477
-605.157	-45.384	-0.258	0.130
-604.142	-33.113	0.126	-0.071
-603.128	18.298	0.309	0.250
-602.113	-30.768	-0.238	-0.136
-601.098	-151.376	-0.147	-0.011
-600.084	91.877	-0.075	-0.085
-599.069	-5.247	0.153	-0.106
-598.055	180.390	0.322	-0.478
-597.040	21.861	-0.306	-0.252
-596.025	91.723	0.137	-0.156
-595.011	-200.000	0.011	-0.125
-593.996	-106.778	0.213	-0.048
-592.982	38.213	-0.124	-0.112
-591.967	56.786	0.128	-0.126
-590.952	-15.065	0.169	-0.110
-589.938	-121.118	-0.154	-0.026
-588.923	46.402	-0.062	0.058
-587.909	64.376	0.114	0.116
-586.894	-2.756	0.169	0.119
-585.879	-42.103	-0.176	0.091
-584.865	800.000	0.040	-0.162
-583.850	-89.673	-0.039	-0.012
-582.836	-200.000	0.037	-0.253
-581.821	800.000	-0.073	-0.214
-580.806	-125.236	0.189	-0.029
-579.792	222.661	-0.111	0.181
-578.777	800.000	0.098	-0.316
-577.763	-122.132	0.100	-0.017
-576.748	-8.250	0.044	-0.030
-575.733	55.097	0.126	0.123
-574.719	800.000	0.030	0.090
-573.704	482.060	0.059	0.137
-572.690	-98.320	-0.372	0.097
-571.675	-75.109	-0.388	0.140
-570.661	800.000	-0.034	-0.103
-569.646	-111.032	-0.249	-0.052
-568.631	-68.969	0.445	-0.174
-567.617	399.853	-0.099	0.211
-566.602	-40.595	0.179	-0.094
-565.588	-73.820	0.048	0.018
-564.573	49.251	-0.350	-0.333
-563.558	107.533	0.158	-0.190
-562.544	4.022	0.314	0.232
-561.529	-200.000	-0.008	-0.090
-560.515	800.000	-0.048	-0.181
-559.500	-51.012	-0.190	-0.090
-558.485	-139.123	0.278	-0.030
-557.471	-46.513	0.192	0.095
-556.456	800.000	0.080	-0.315
-555.442	-9.940	-0.282	-0.189
-554.427	-105.929	-0.167	-0.038
-553.412	-89.578	-0.062	-0.018
-552.398	-35.141	-0.144	-0.079
-551.383	69.763	-0.075	-0.078
-550.369	-147.937	0.061	-0.005
-549.354	-16.634	-0.108	-0.069
-548.339	-200.000	-0.043	0.207
-547.325	295.752	0.156	-0.289
-546.310	-29.209	-0.062	-0.036
-545.296	116.323	0.113	0.140
-544.281	-21.602	0.119	0.073
-543.266	-85.075	0.378	-0.120
-542.252	201.856	-0.090	-0.141
-541.237	-22.679	0.204	-0.125
-540.223	80.874	-0.080	-0.087
-539.208	445.388	0.041	-0.092
-538.193	-89.480	0.236	-0.070
-537.179	-126.654	0.251	0.037
-536.164	-152.074	-0.209	0.015
-535.150	-159.731	-0.273	0.015
-534.135	-85.565	-0.166	0.052
-533.121	-99.065	0.234	-0.060
-532.106	164.142	-0.092	0.131
-531.091	355.287	0.104	0.209
-530.077	-7.479	-0.300	0.205
-529.062	-200.000	-0.038	0.206
-528.048	-105.906	0.103	0.023
-527.033	-0.199	-0.167	0.120
-526.018	143.999	-0.244	0.329
-525.004	-141.331	-0.173	-0.018
-523.989	-73.538	0.161	-0.059
-522.975	-169.116	0.101	0.004
-521.960	-200.000	0.014	0.384
-520.945	-200.000	0.033	-0.218
-519.931	-11.564	-0.134	0.089
-518.916	-25.174	-0.371	-0.222
-517.902	7.783	-0.283	0.214
-516.887	201.018	-0.074	-0.116
-515.872	2.782	0.161	-0.118
-514.858	-200.000	-0.030	-0.228
-513.843	-200.000	0.015	-0.285
-512.829	-46.523	0.238	-0.118
-511.814	-165.578	-0.137	-0.006
-510.799	181.449	-0.131	-0.194
-509.785	-62.041	-0.070	0.029
-508.770	96.423	-0.082	-0.094
-507.756	-52.751	-0.124	0.058
-506.741	-73.167	-0.247	0.091
-505.726	478.113	0.045	0.104
-504.712	68.082	-0.185	0.191
-503.697	-19.806	0.200	0.125
-502.683	-200.000	-0.001	-0.230
-501.668	-200.000	0.233	0.001
-500.653	-135.307	0.126	0.015
-499.639	193.259	0.197	-0.300
-498.624	-138.026	0.188	-0.021
-497.610	-33.587	-0.434	0.241
-496.595	800.000	0.036	-0.120
-495.581	-57.688	-0.233	0.103
-494.566	112.963	-0.154	0.188
-493.551	168.705	-0.049	-0.070
-492.537	-200.000	0.000	-0.001
-491.522	94.025	-0.117	0.134
-490.508	-77.330	-0.303	-0.106
-489.493	55.782	0.191	0.187
-488.478	65.464	0.131	0.134
-487.464	-137.532	-0.281	0.032
-486.449	-58.034	-0.295	-0.130
-485.435	-121.086	0.096	-0.016
-484.420	-15.731	0.259	-0.166
-483.405	800.000	-0.029	0.087
-482.391	110.685	0.208	0.253
-481.376	283.552	0.080	0.144
-480.362	-108.973	-0.170	0.037
-479.347	-68.170	-0.153	0.060
-478.332	-44.320	0.137	-0.069
-477.318	-200.000	-0.012	0.217
-476.303	-95.756	0.264	-0.071
-475.289	75.561	-0.082	-0.087
-474.274	94.167	-0.208	0.238
-473.259	77.405	-0.212	-0.227
-472.245	508.595	-0.083	0.195
-471.230	800.000	0.038	-0.156
-470.216	-42.427	-0.137	-0.071
-469.201	88.833	0.179	-0.201
-468.186	309.651	-0.026	-0.048
-467.172	217.863	-0.123	0.198
-466.157	795.700	-0.114	0.318
-465.143	-200.000	0.035	0.374
-464.128	36.364	-0.256	-0.227
-463.113	800.000	-0.063	-0.208
-462.099	191.002	0.197	-0.299
-461.084	800.000	0.088	-0.301
-460.070	-85.595	0.419	0.131
-459.055	22.374	-0.279	-0.230
-458.040	-200.000	-0.071	0.379
-457.026	235.313	0.096	-0.160
-456.011	-200.000	0.035	0.182
-454.997	-17.419	0.155	-0.098
-453.982	434.217	-0.037	-0.081
-452.968	-200.000	-0.007	-0.067
-451.953	183.907	-0.063	-0.094
-450.938	116.641	0.222	-0.274
-449.924	-200.000	-0.011	0.185
-448.909	109.360	0.251	-0.302
-447.895	196.947	-0.034	-0.052
-446.880	642.959	0.029	0.074
-445.865	-4.145	-0.097	-0.068
-444.851	707.701	0.049	0.130
-443.836	316.924	0.151	-0.288
-442.822	-200.000	0.005	-0.060
-441.807	-63.444	0.326	0.135
-440.792	-6.242	0.241	0.166
-439.778	-138.588	-0.104	-0.011
-438.763	97.279	-0.143	0.165
-437.749	-121.373	0.125	0.021
-436.734	-100.772	0.366	-0.091
-435.719	96.965	-0.267	-0.308
-434.705	-167.192	-0.166	0.007
-433.690	-103.215	0.118	-0.028
-432.676	-0.014	0.167	0.119
-431.661	13.137	-0.193	-0.150
-430.646	-200.000	-0.035	0.207
-429.632	-69.785	0.124	0.048
-428.617	29.305	-0.199	0.170
-427.603	800.000	0.127	0.386
-426.588	-65.086	-0.166	0.067
-425.573	-200.000	0.015	0.249
-424.559	-84.478	0.274	0.087
-423.544	150.500	0.125	0.171
-422.530	-54.502	-0.048	-0.022
-421.515	-18.875	0.076	-0.047
-420.500	-105.599	-0.123	0.028
-419.486	-89.718	-0.181	-0.053
-418.471	-200.000	0.010	-0.235
-417.457	23.944	0.074	0.061
-416.442	220.173	-0.087	0.140
-415.428	800.000	0.111	0.358
-414.413	562.231	0.061	-0.149
-413.398	266.116	0.165	-0.290
-412.384	142.597	-0.242	0.323
-411.369	-83.212	-0.116	-0.037
-410.355	800.000	-0.108	-0.455
-409.340	9.731	-0.101	0.077
-408.325	-200.000	-0.013	0.265
-407.311	16.610	-0.047	0.038
-406.296	714.749	0.060	0.159
-405.282	-91.251	0.330	-0.095
-404.267	-78.057	-0.248	-0.086
-403.252	105.371	0.211	-0.251
-402.238	605.570	-0.069	-0.173
-401.223	368.744	-0.014	0.029
-400.209	800.000	0.010	-0.040
-399.194	800.000	-0.074	-0.220
-398.179	-122.839	-0.371	0.060
-397.165	-200.000	-0.014	0.202
-396.150	-70.930	-0.121	0.046
-395.136	-200.000	-0.033	-0.146
-394.121	56.426	0.078	-0.076
-393.106	105.128	0.335	0.397
-392.092	-33.282	0.037	0.021
-391.077	-200.000	0.014	0.108
-390.063	-200.000	0.005	-0.351
-389.048	-114.077	-0.155	0.030
-388.033	800.000	0.054	0.194
-387.019	473.794	-0.026	0.060
-386.004	242.129	-0.105	-0.176
-384.990	-191.760	-0.159	0.002
-383.975	90.640	0.010	-0.012
-382.960	-128.093	-0.287	-0.041
-381.946	-0.545	0.179	-0.127
-380.931	311.552	0.142	-0.266
-379.917	215.977	-0.063	0.101
-378.902	99.321	-0.132	0.153
-377.888	-102.460	-0.199	0.048
-376.873	-27.250	-0.373	0.218
-375.858	-83.849	-0.097	-0.031
-374.844	-90.233	0.067	-0.020
-373.829	554.170	-0.156	0.377
-372.815	111.339	-0.097	0.117
-371.800	-103.600	0.095	0.022
-370.785	315.788	0.079	-0.150
-369.771	-146.221	-0.302	0.027
-368.756	-91.446	0.249	0.071
-367.742	69.809	-0.191	-0.198
-366.727	-132.612	0.256	0.033
-365.712	259.606	-0.049	-0.084
-364.698	185.969	0.030	-0.045
-363.683	-61.721	0.409	0.172
-362.669	188.535	-0.074	0.111
-361.654	-43.221	-0.341	0.173
-360.639	485.581	0.042	-0.096
-359.625	-78.600	-0.074	0.025
-358.610	28.006	0.101	-0.086
-357.596	55.726	0.066	0.064
-356.581	-183.468	-0.142	0.002
-355.566	-14.594	0.044	-0.028
-354.552	-8.344	-0.077	0.052
-353.537	800.000	0.097	-0.410
-352.523	17.551	-0.182	0.145
-351.508	-50.737	0.153	0.072
-350.493	-77.115	-0.171	-0.060
-349.479	142.261	0.157	-0.208
-348.464	-97.609	-0.270	0.070
-347.450	-200.000	0.027	-0.285
-346.435	-41.798	-0.247	-0.127
-345.420	-23.171	0.338	0.204
-344.406	-62.999	0.235	-0.097
-343.391	-74.686	-0.300	0.108
-342.377	-14.524	-0.137	0.088
-341.362	-111.222	-0.163	-0.033
-340.348	166.454	-0.114	0.162
-339.333	381.264	0.020	-0.041
-338.318	-91.450	0.098	0.028
-337.304	237.162	-0.130	-0.215
-336.289	800.000	0.085	-0.245
-335.275	-120.512	-0.151	-0.026
-334.260	126.097	-0.200	0.254
-333.245	-200.000	0.016	0.072
-332.231	-200.000	-0.012	-0.349
-331.216	46.828	-0.238	0.222
-330.202	-84.444	0.097	0.031
-329.187	42.958	0.150	-0.137
-328.172	-132.620	-0.179	-0.023
-327.158	800.000	0.064	0.190
-326.143	-200.000	0.009	-0.085
-325.129	9.421	0.347	-0.263
-324.114	17.156	-0.408	0.324
-323.099	-129.839	-0.220	-0.030
-322.085	191.372	-0.178	-0.268
-321.070	6.899	-0.218	-0.162
-320.056	234.118	-0.244	-0.403
-319.041	-163.789	0.207	-0.010
-318.026	343.268	0.074	-0.145
-317.012	-9.899	0.134	-0.090
-315.997	88.706	0.146	-0.163
-314.983	281.758	-0.219	0.393
-313.968	-104.202	0.130	-0.030
-312.953	800.000	-0.024	-0.094
-311.939	45.196	-0.294	0.271
-310.924	-200.000	-0.027	-0.484
-309.910	34.099	0.149	0.130
-308.895	19.079	0.072	0.058
-307.880	18.064	0.152	0.121
-306.866	477.133	0.108	-0.244
-305.851	-35.345	-0.150	-0.082
-304.837	373.268	0.167	-0.340
-303.822	159.667	0.063	0.088
-302.807	-84.954	-0.119	0.037
-301.793	52.019	0.388	0.370
-300.778	176.669	-0.106	0.154
-299.764	-85.448	-0.203	0.063
-298.749	11.185	0.251	-0.192
-297.735	-52.671	-0.018	-0.009
-296.720	-111.783	-0.161	0.033
-295.705	69.474	0.133	0.137
-294.691	-22.348	-0.161	0.097
-293.676	635.397	0.069	-0.175
-292.662	-145.001	0.111	0.010
-291.647	-200.000	0.025	0.165
-290.632	-55.835	-0.191	-0.085
-289.618	364.281	0.087	0.175
-288.603	144.147	0.169	-0.225
-287.589	-110.517	-0.040	0.008
-286.574	-200.000	0.012	-0.301
-285.559	-164.922	-0.025	0.001
-284.545	181.991	0.040	0.059
-283.530	-137.262	-0.429	-0.049
-282.516	6.890	0.107	-0.079
-281.501	-31.959	0.269	-0.151
-280.486	234.594	0.061	0.101
-279.472	649.445	0.092	0.235
-278.457	163.948	0.138	-0.195
-277.443	-23.700	-0.193	0.116
-276.428	-100.950	-0.206	0.051
-275.413	129.674	-0.239	0.305
-274.399	-200.000	0.012	0.182
-273.384	-200.000	-0.009	-0.058
-272.370	176.298	0.054	0.078
-271.355	-119.233	0.131	-0.023
-270.340	155.445	0.075	-0.104
-269.326	-200.000	0.016	0.111
-268.311	-56.541	0.195	0.087
-267.297	-48.914	0.210	0.101
-266.282	-140.902	-0.080	-0.008
-265.267	53.445	0.356	0.341
-264.253	-200.000	0.011	-0.236
-263.238	-200.000	0.051	-0.356
-262.224	-14.562	0.042	-0.027
-261.209	-57.124	-0.331	-0.146
-260.195	62.345	0.201	0.200
-259.180	26.590	-0.116	-0.097
-258.165	-162.368	0.190	-0.009
-257.151	-200.000	-0.116	0.000
-256.136	-121.579	0.284	0.047
-255.122	-102.258	0.208	0.050
-254.107	-85.963	-0.030	0.009
-253.092	408.814	-0.030	-0.063
-252.078	-152.601	-0.161	-0.012
-251.063	427.337	0.084	0.182
-250.049	150.492	-0.106	0.143
-249.034	-160.037	0.350	-0.019
-248.019	62.586	0.184	0.184
-247.005	-200.000	-0.007	-0.163
-245.990	-156.862	0.217	0.013
-244.976	706.179	-0.085	-0.225
-243.961	-91.971	-0.159	-0.045
-242.946	800.000	-0.102	-0.308
-241.932	14.627	0.098	-0.077
-240.917	-29.466	-0.055	-0.031
-239.903	-33.276	0.290	0.160
-238.888	513.367	0.130	0.302
-237.873	345.136	0.016	0.032
-236.859	-134.230	-0.384	0.047
-235.844	99.644	0.069	0.080
-234.830	-123.668	-0.125	-0.020
-233.815	-123.063	0.038	0.006
-232.800	-63.805	0.064	0.026
-231.786	238.778	0.102	-0.168
-230.771	-122.106	-0.096	0.016
-229.757	-172.083	-0.214	-0.007
-228.742	-13.128	0.397	0.257
-227.727	-98.871	-0.144	0.036
-226.713	-200.000	-0.022	0.139
-225.698	-88.181	-0.324	-0.097
-224.684	-200.000	0.063	-0.289
-223.669	59.408	0.144	-0.142
-222.655	453.914	0.016	0.036
-221.640	-112.107	0.073	-0.015
-220.625	74.118	0.119	-0.124
-219.611	76.719	-0.291	0.308
-218.596	-45.687	-0.194	-0.096
-217.582	800.000	-0.103	0.407
-216.567	603.022	0.032	0.080
-215.552	-200.000	0.011	-0.271
-214.538	6.518	-0.097	-0.072
-213.523	800.000	0.019	0.080
-212.509	-9.523	-0.082	-0.055
-211.494	661.340	-0.069	0.178
-210.479	-140.924	0.271	-0.028
-209.465	-66.748	0.154	-0.061
-208.450	50.479	-0.288	0.271
-207.436	-72.636	-0.245	0.090
-206.421	3.697	0.318	-0.231
-205.406	293.094	0.008	0.015
-204.392	-200.000	0.078	0.369
-203.377	30.033	-0.030	-0.026
-202.363	-120.449	0.059	-0.010
-201.348	800.000	0.136	0.397
-200.333	464.380	-0.227	0.507
-199.319	-200.000	0.056	-0.318
-198.304	49.646	0.326	-0.306
-197.290	800.000	0.014	-0.040
-196.275	-200.000	0.017	-0.142
-195.260	-180.961	-0.181	0.004
-194.246	-26.709	0.135	0.078
-193.231	-171.884	0.167	0.005
-192.217	800.000	-0.020	-0.081
-191.202	800.000	-0.018	-0.068
-190.187	-72.608	0.266	-0.098
-189.173	45.480	0.264	-0.242
-188.158	-184.289	0.356	-0.006
-187.144	-200.000	-0.034	0.221
-186.129	-200.000	0.033	0.293
-185.114	338.227	-0.132	0.256
-184.100	-22.396	0.197	0.119
-183.085	-200.000	-0.017	0.081
-182.071	-200.000	-0.045	0.252
-181.056	-70.601	0.374	0.141
-180.042	232.233	-0.101	-0.166
-179.027	-110.249	-0.352	0.073
-178.012	70.323	0.039	-0.040
-176.998	104.180	-0.023	-0.027
-175.983	98.074	-0.032	0.036
-174.969	775.523	0.059	0.159
-173.954	-110.865	-0.133	-0.027
-172.939	-170.169	0.272	-0.010
-171.925	88.813	0.130	0.143
-170.910	296.520	0.211	0.386
-169.896	63.708	0.218	0.218
-168.881	-19.833	0.168	0.104
-167.866	605.257	0.059	0.147
-166.852	-97.520	-0.108	0.028
-165.837	-94.024	0.170	0.047
-164.823	-72.111	-0.055	0.020
-163.808	-56.843	-0.449	-0.197
-162.793	57.113	0.038	-0.036
-161.779	-200.000	-0.057	-0.277
-160.764	173.707	0.071	0.102
-159.750	15.035	0.398	0.310
-158.735	101.715	-0.222	0.258
-157.720	-200.000	-0.014	-0.332
-156.706	74.774	0.039	0.041
-155.691	177.619	-0.141	0.204
-154.677	63.567	0.278	-0.278
-153.662	-141.057	-0.215	0.022
-152.647	-200.000	0.005	0.367
-151.633	-123.593	-0.225	0.036
-150.618	94.914	-0.189	0.214
-149.604	77.713	-0.232	0.246
-148.589	800.000	0.076	0.270
-147.574	258.245	-0.054	0.092
-146.560	718.685	-0.118	-0.311
-145.545	87.588	0.058	0.064
-144.531	-200.000	0.020	0.257
-143.516	800.000	-0.021	0.083
-142.502	-83.364	0.057	-0.018
-141.487	-188.969	-0.539	0.006
-140.472	-141.901	0.186	0.018
-139.458	-200.000	-0.039	-0.172
-138.443	-129.706	-0.159	-0.022
-137.429	-200.000	-0.017	0.281
-136.414	2.498	-0.100	0.072
-135.399	11.638	0.096	0.074
-134.385	66.452	0.037	0.037
-133.370	113.985	-0.193	0.233
-132.356	-44.750	0.356	0.177
-131.341	30.653	0.145	0.123
-130.326	-200.000	-0.030	0.306
-129.312	442.804	0.067	0.146
-128.297	-81.716	-0.099	-0.032
-127.283	276.806	-0.104	0.184
-126.268	-200.000	-0.020	0.436
-125.253	-200.000	-0.011	-0.361
-124.239	630.773	-0.152	-0.382
-123.224	646.741	-0.077	-0.196
-122.210	-200.000	-0.004	-0.331
-121.195	800.000	0.053	-0.156
-120.180	238.826	-0.146	0.241
-119.166	-200.000	-0.015	0.532
-118.151	-171.275	0.336	-0.011
-117.137	-82.240	-0.259	-0.084
-116.122	238.485	-0.164	0.271
-115.107	-200.000	-0.040	-0.173
-114.093	35.304	-0.100	0.087
-113.078	46.354	0.184	0.170
-112.064	-200.000	-0.059	0.257
-111.049	-109.366	0.196	-0.041
-110.034	-136.224	0.187	0.022
-109.020	223.071	0.062	-0.100
-108.005	-200.000	0.033	0.416
-106.991	-35.702	0.111	0.060
-105.976	139.849	0.034	-0.045
-104.962	-104.843	0.243	0.055
-103.947	-52.673	-0.130	0.060
-102.932	219.559	-0.089	0.141
-101.918	-200.000	0.089	0.538
-100.903	-89.359	0.139	0.041
-99.889	-101.438	-0.268	0.065
-98.874	765.304	0.161	0.435
-97.859	-200.000	-0.035	-0.303
-96.845	-200.000	0.055	0.451
-95.830	304.352	0.120	-0.220
-94.816	515.470	-0.043	0.100
-93.801	443.354	-0.112	0.243
-92.786	-72.787	0.210	-0.077
-91.772	-200.000	-0.010	-0.070
-90.757	-95.128	0.133	0.036
-89.743	-121.947	0.126	-0.021
-88.728	-200.000	-0.004	0.098
-87.713	-69.002	0.249	0.095
-86.699	-35.061	0.050	0.027
-85.684	282.169	-0.037	-0.067
-84.670	103.448	0.098	-0.114
-83.655	-200.000	-0.017	0.333
-82.640	-200.000	-0.051	-0.232
-81.626	377.073	-0.080	-0.162
-80.611	259.865	0.122	0.208
-79.597	-98.171	0.245	0.062
-78.582	-200.000	-0.015	-0.086
-77.567	373.537	-0.028	0.056
-76.553	-57.157	-0.213	-0.093
-75.538	169.498	-0.205	-0.290
-74.524	-200.000	-0.016	-0.142
-73.509	-111.628	0.171	-0.035
-72.494	-69.073	0.081	0.031
-71.480	-2.373	-0.229	0.159
-70.465	-193.580	-0.181	-0.002
-69.451	-200.000	-0.006	0.113
-68.436	-2.454	0.106	0.074
-67.422	-35.712	0.295	0.159
-66.407	9.292	0.321	-0.241
-65.392	-92.954	0.118	-0.033
-64.378	-105.422	-0.040	-0.009
-63.363	-152.413	0.284	0.020
-62.349	114.335	0.209	0.253
-61.334	35.718	-0.974	-0.848
-60.319	159.737	0.415	0.572
-59.305	421.251	-0.449	-0.955
-58.290	350.519	0.583	1.143
-57.276	349.749	0.734	1.437
-56.261	-200.000	94.962	559.490
-55.246	633.942	1383.282	3476.165
-54.232	185.466	2606.619	3836.407
-53.217	123.051	2198.383	2728.399
-52.203	46.969	1648.101	1518.787
-51.188	38.595	1381.543	1221.171
-50.173	35.168	1338.873	1162.654
-49.159	55.450	1387.007	1330.191
-48.144	59.853	1404.835	1374.405
-47.130	38.787	1359.887	1203.015
-46.115	35.214	1341.767	1165.260
-45.100	35.015	1336.756	1159.657
-44.086	34.861	1334.448	1156.678
-43.071	34.854	1332.266	1154.700
-42.057	34.754	1330.360	1152.400
-41.042	34.946	1328.172	1151.610
-40.027	34.808	1327.043	1149.758
-39.013	34.903	1324.638	1148.199
-37.998	34.854	1322.786	1146.252
-36.984	34.963	1320.930	1145.254
-35.969	35.031	1319.114	1144.038
-34.954	35.071	1317.406	1142.752
-33.940	35.047	1316.561	1141.829
-32.925	35.065	1314.832	1140.393
-31.911	35.081	1313.160	1138.994
-30.896	35.221	1311.841	1138.637
-29.881	35.112	1310.623	1136.883
-28.867	35.179	1308.702	1135.571
-27.852	35.122	1307.373	1134.036
-26.838	35.169	1305.899	1132.991
-25.823	35.123	1304.570	1131.518
-24.809	35.109	1303.568	1130.521
-23.794	34.975	1302.174	1128.480
-22.779	35.064	1300.666	1127.652
-21.765	35.133	1299.461	1126.969
-20.750	35.075	1298.227	1125.515
-19.736	34.920	1296.958	1123.459
-18.721	34.892	1295.635	1122.105
-17.706	34.955	1294.197	1121.181
-16.692	35.038	1292.948	1120.545
-15.677	34.955	1292.399	1119.537
-14.663	34.974	1290.696	1118.126
-13.648	34.986	1289.649	1117.247
-12.633	34.912	1288.922	1116.142
-11.619	34.929	1288.018	1115.413
-10.604	34.948	1287.252	1114.818
-9.590	34.987	1285.973	1113.888
-8.575	34.821	1285.664	1112.615
-7.560	34.889	1284.260	1111.746
-6.546	34.939	1283.260	1111.126
-5.531	34.799	1282.769	1109.844
-4.517	35.028	1281.197	1109.773
-3.502	34.898	1280.941	1108.752
-2.487	34.879	1279.837	1107.641
-1.473	34.891	1275.910	1104.266
-0.458	33.567	1260.450	1083.286
0.556	31.733	1241.012	1040.519
1.571	27.356	1244.593	1018.985
2.586	25.810	1258.102	1021.193
3.600	23.974	1245.892	1000.878
4.615	18.065	1172.352	910.341
5.629	9.258	1095.071	806.251
6.644	5.020	1073.718	769.583
7.659	4.509	1071.349	765.297
8.673	4.389	1069.765	763.512
9.688	4.334	1068.783	762.470
10.702	4.991	1067.645	764.816
11.717	10.738	1075.532	798.728
12.731	19.094	1087.263	848.748
13.746	22.307	1090.808	867.306
14.761	22.067	1090.014	865.416
15.775	21.171	1087.719	859.110
16.790	20.169	1086.012	852.758
17.804	19.231	1084.958	847.248
18.819	19.059	1083.528	845.211
19.834	19.016	1082.614	844.213
20.848	18.902	1081.945	843.057
21.863	18.629	1081.572	841.352
22.877	18.538	1080.573	840.056
23.892	18.531	1079.637	839.217
24.907	18.477	1078.835	838.257
25.921	18.499	1077.756	837.450
26.936	18.546	1076.246	836.434
27.950	18.620	1074.713	835.526
28.965	18.561	1074.041	834.646
29.980	18.845	1072.095	834.438
30.994	18.840	1071.779	834.094
32.009	18.981	1070.334	833.579
33.023	18.825	1069.055	831.755
34.038	18.740	1067.894	830.368
35.053	18.632	1067.175	829.210
36.067	18.673	1066.231	828.603
37.082	18.675	1065.309	827.820
38.096	18.784	1064.663	827.771
39.111	18.920	1063.966	827.814
40.126	18.705	1062.668	825.693
41.140	18.379	1060.866	822.659
42.155	18.026	1060.459	820.572
43.169	18.167	1058.662	819.785
44.184	18.091	1058.004	818.842
45.199	18.263	1056.594	818.500
46.213	18.306	1055.681	817.927
47.228	18.571	1055.173	818.724
48.242	18.559	1054.291	817.909
49.257	18.524	1053.366	816.953
50.271	18.719	1052.416	817.072
51.286	18.714	1051.694	816.415
52.301	18.670	1050.788	815.430
53.315	18.590	1049.590	814.049
54.330	18.416	1048.371	812.207
55.344	18.354	1047.235	810.963
56.359	18.478	1046.758	811.107
57.374	18.437	1045.927	810.198
58.388	18.228	1045.001	808.420
59.403	18.115	1044.556	807.474
60.417	18.160	1043.717	806.963
61.432	18.072	1042.895	805.843
62.447	17.980	1041.995	804.641
63.461	18.056	1040.639	803.881
64.476	18.119	1039.693	803.375
65.490	17.999	1039.100	802.283
66.505	18.052	1038.413	801.932
67.520	18.042	1037.998	801.494
68.534	18.098	1037.005	800.915
69.549	18.165	1035.829	800.250
70.563	18.003	1035.214	798.950
71.578	17.878	1034.639	797.851
72.593	17.619	1033.822	795.940
73.607	17.866	1032.910	796.320
74.622	17.938	1032.292	796.106
75.636	17.946	1031.687	795.608
76.651	17.936	1030.487	794.564
77.666	17.869	1030.386	794.106
78.680	17.839	1030.297	793.828
79.695	18.013	1029.442	793.906
80.709	18.102	1028.447	793.482
81.724	18.163	1028.220	793.519
82.739	18.322	1027.281	793.464
83.753	18.600	1026.192	793.839
84.768	18.757	1026.185	794.490
85.782	18.977	1025.304	794.752
86.797	18.911	1024.175	793.503
87.812	18.591	1023.332	791.303
88.826	18.830	1022.060	791.352
89.841	18.842	1021.380	790.811
90.855	18.943	1020.634	790.625
91.870	18.881	1019.945	789.737
92.884	18.843	1018.816	788.618
93.899	18.926	1017.760	788.113
94.914	18.884	1017.559	787.692
95.928	18.965	1016.240	786.974
96.943	18.873	1015.245	785.716
97.957	18.660	1014.462	784.066
98.972	18.726	1013.933	783.889
99.987	18.733	1012.905	783.056
101.001	18.669	1012.138	782.102
102.016	18.744	1010.856	781.382
103.030	18.683	1010.370	780.661
104.045	18.833	1009.482	780.587
105.060	18.606	1008.499	778.726
106.074	18.376	1007.417	776.780
107.089	18.232	1005.941	774.922
108.103	18.233	1005.397	774.442
109.118	18.202	1004.268	773.362
110.133	18.016	1003.297	771.703
111.147	18.119	1002.165	771.229
112.162	18.183	1001.457	770.904
113.176	18.306	1001.100	771.117
114.191	18.415	1000.098	770.769
115.206	18.363	999.561	770.052
116.220	18.084	999.285	768.515
117.235	18.354	997.408	768.214
118.249	18.071	996.857	766.455
119.264	18.081	995.916	765.708
120.279	18.184	994.676	765.150
121.293	18.115	993.770	764.075
122.308	17.930	993.148	762.703
123.322	18.050	991.976	762.271
124.337	17.881	990.826	760.567
125.352	17.913	990.046	760.042
126.366	17.853	989.351	759.176
127.381	17.954	987.662	758.259
128.395	17.914	987.265	757.711
129.410	18.004	986.615	757.546
130.424	18.151	985.356	757.163
131.439	18.296	984.893	757.382
132.454	18.234	984.360	756.632
133.468	18.370	983.430	756.451
134.483	18.404	982.571	755.871
135.497	18.386	981.930	755.230
136.512	18.373	980.820	754.254
137.527	18.427	980.058	753.840
138.541	18.418	979.543	753.334
139.556	18.404	978.948	752.750
140.570	18.682	978.335	753.433
141.585	18.829	977.248	753.175
142.600	18.819	976.626	752.582
143.614	18.901	976.049	752.431
144.629	18.958	975.226	751.979
145.643	18.907	974.025	750.763
146.658	18.681	972.841	748.798
147.673	18.397	972.288	747.070
148.687	18.439	970.850	746.083
149.702	18.377	970.069	745.147
150.716	18.361	968.911	744.120
151.731	18.291	968.403	743.362
152.746	18.349	967.704	743.010
153.760	18.513	966.800	742.962
154.775	18.583	966.768	743.174
155.789	18.532	965.877	742.204
156.804	18.641	965.165	742.060
157.819	18.660	964.610	741.652
158.833	18.717	964.341	741.624
159.848	18.994	962.884	741.633
160.862	18.953	961.804	740.557
161.877	18.625	960.605	738.162
162.892	18.400	959.674	736.414
163.906	18.401	958.411	735.381
164.921	18.332	957.965	734.680
165.935	18.620	956.822	734.970
166.950	18.655	956.443	734.764
167.964	18.569	955.347	733.488
168.979	18.399	954.897	732.353
169.994	18.399	953.878	731.505
171.008	18.594	952.994	731.596
172.023	18.772	952.667	732.039
173.037	18.888	951.922	731.895
174.052	18.655	951.062	730.178
175.067	18.546	949.892	728.751
176.081	18.452	949.356	727.878
177.096	18.425	948.474	727.022
178.110	18.540	947.969	727.058
179.125	18.466	947.814	726.563
180.140	18.544	947.285	726.421
181.154	18.685	946.721	726.522
182.169	18.801	946.607	726.861
183.183	18.840	945.971	726.475
184.198	19.044	944.672	726.273
185.213	18.942	943.940	725.213
186.227	18.997	943.522	725.062
187.242	18.963	943.180	724.590
188.256	19.111	942.964	724.984
189.271	19.199	941.505	724.170
190.286	18.920	940.640	722.269
191.300	18.373	939.783	719.248
192.315	18.305	938.665	718.046
193.329	18.473	938.437	718.510
194.344	18.591	938.096	718.683
195.359	18.811	937.349	718.967
196.373	18.589	937.336	717.963
197.388	19.027	936.681	719.229
198.402	19.031	936.552	719.082
199.417	19.097	936.118	718.962
200.432	19.397	935.095	719.365
201.446	19.453	934.757	719.274
202.461	19.462	934.029	718.687
203.475	19.248	933.687	717.471
204.490	19.077	932.679	715.921
205.504	18.892	931.979	714.550
206.519	18.839	931.522	713.916
207.534	18.903	930.562	713.384
208.548	19.075	929.351	713.107
209.563	19.131	928.858	712.897
210.577	19.039	928.280	712.009
211.592	19.220	927.950	712.443
212.607	19.365	926.927	712.191
213.621	19.374	926.054	711.496
214.636	19.265	925.518	710.571
215.650	19.233	924.886	709.892
216.665	19.293	924.113	709.482
217.680	19.468	923.308	709.521
218.694	19.583	922.625	709.406
219.709	19.258	922.230	707.702
220.723	19.373	921.776	707.765
221.738	19.420	920.608	706.999
222.753	19.438	920.105	706.623
223.767	19.529	919.487	706.460
224.782	19.649	919.305	706.745
225.796	19.534	918.886	705.892
226.811	19.523	917.817	704.964
227.826	19.275	917.155	703.380
228.840	19.311	916.137	702.684
229.855	19.338	915.409	702.175
230.869	19.351	914.481	701.455
231.884	19.294	913.597	700.483
232.899	19.221	913.133	699.765
233.913	19.022	912.758	698.609
234.928	19.082	911.826	698.079
235.942	19.166	910.892	697.643
236.957	19.062	910.554	696.901
237.972	19.249	910.039	697.201
238.986	19.138	909.615	696.364
240.001	19.164	908.863	695.831
241.015	19.283	908.303	695.825
242.030	19.262	908.225	695.615
243.045	19.408	907.160	695.330
244.059	19.325	906.395	694.345
245.074	19.513	906.501	695.123
246.088	19.579	905.137	694.282
247.103	19.617	904.880	694.174
248.117	19.774	904.892	694.754
249.132	20.028	904.438	695.364
250.147	20.167	904.114	695.610
251.161	20.212	903.333	695.128
252.176	20.154	902.554	694.237
253.190	20.320	901.747	694.217
254.205	20.341	901.272	693.874
255.220	20.231	900.726	692.951
256.234	20.221	900.353	692.563
257.249	20.216	899.484	691.816
258.263	20.180	898.556	690.899
259.278	20.118	897.832	690.033
260.293	20.378	896.975	690.346
261.307	20.439	896.766	690.368
262.322	20.336	896.310	689.544
263.336	20.538	895.033	689.302
264.351	20.566	894.293	688.781
265.366	20.436	894.115	688.070
266.380	20.411	893.250	687.244
267.395	20.390	892.290	686.361
268.409	20.201	891.567	684.999
269.424	20.211	890.830	684.410
270.439	20.200	889.926	683.613
271.453	20.010	889.712	682.639
272.468	20.175	889.012	682.692
273.482	20.207	888.256	682.175
274.497	20.133	887.745	681.435
275.512	20.149	887.106	680.944
276.526	20.253	886.737	681.010
277.541	20.288	886.152	680.637
278.555	20.277	885.963	680.390
279.570	20.506	885.141	680.595
280.585	20.475	884.231	679.714
281.599	20.536	883.381	679.238
282.614	20.259	882.704	677.576
283.628	20.284	882.164	677.198
284.643	20.389	881.407	676.969
285.657	20.301	880.926	676.195
286.672	20.296	880.593	675.859
287.687	20.296	879.954	675.309
288.701	20.383	879.116	674.945
289.716	20.374	878.769	674.583
290.730	20.387	878.331	674.239
291.745	20.382	877.506	673.526
292.760	20.598	876.862	673.808
293.774	20.630	876.624	673.693
294.789	20.564	875.737	672.695
295.803	20.320	874.991	671.117
296.818	20.346	874.253	670.593
297.833	20.332	873.756	670.097
298.847	20.570	872.636	670.096
299.862	20.575	872.521	669.968
300.876	20.555	872.124	669.528
301.891	20.706	871.389	669.484
302.906	20.668	871.241	669.165
303.920	20.977	870.545	669.762
304.935	21.036	869.959	669.475
305.949	20.816	869.540	668.249
306.964	20.666	868.744	667.005
307.979	20.718	868.459	666.925
308.993	20.735	867.739	666.379
310.008	20.815	867.102	666.138
311.022	20.739	866.661	665.447
312.037	20.660	865.781	664.411
313.052	20.486	864.977	663.071
314.066	20.489	864.097	662.352
315.081	20.453	863.643	661.809
316.095	20.474	863.261	661.537
317.110	20.553	862.471	661.174
318.125	20.500	861.933	660.502
319.139	20.500	861.719	660.278
320.154	20.396	861.119	659.366
321.168	20.534	860.773	659.567
322.183	20.595	860.132	659.247
323.197	20.635	859.648	658.968
324.212	20.695	858.843	658.519
325.227	20.766	858.059	658.131
326.241	20.658	857.624	657.332
327.256	20.581	856.870	656.405
328.270	20.520	856.628	655.928
329.285	20.503	856.250	655.518
330.300	20.615	855.371	655.210
331.314	20.611	854.938	654.803
332.329	20.842	854.797	655.507
333.343	20.927	854.290	655.379
334.358	20.954	853.914	655.137
335.373	20.922	853.179	654.394
336.387	20.916	853.422	654.498
337.402	20.969	853.052	654.356
338.416	21.114	852.693	654.566
339.431	21.266	852.337	654.805
340.446	21.291	852.040	654.614
341.460	21.399	851.682	654.687
342.475	21.352	851.514	654.322
343.489	21.531	850.853	654.424
344.504	21.480	850.264	653.725
345.519	21.662	849.980	654.128
346.533	21.504	848.803	652.577
347.548	21.113	848.520	650.842
348.562	21.281	847.683	650.768
349.577	20.959	847.407	649.299
350.592	20.847	846.819	648.374
351.606	20.911	845.631	647.644
352.621	20.938	845.000	647.204
353.635	20.930	844.704	646.892
354.650	21.209	843.649	647.060
355.665	21.153	843.277	646.511
356.679	21.339	842.508	646.553
357.694	21.344	841.910	646.054
358.708	21.356	841.385	645.640
359.723	21.091	841.252	644.499
360.738	21.263	840.165	644.247
361.752	21.278	839.865	644.014
362.767	21.537	839.153	644.363
363.781	21.643	838.840	644.457
364.796	21.774	838.312	644.477
365.810	21.713	838.430	644.285
366.825	21.790	837.944	644.138
367.840	21.883	837.467	644.056
368.854	21.583	836.862	642.432
369.869	21.635	836.129	642.003
370.883	21.585	835.800	641.512
371.898	21.735	835.507	641.778
372.913	21.739	835.154	641.466
373.927	21.750	834.636	641.052
374.942	21.777	833.954	640.567
375.956	21.812	833.888	640.591
376.971	21.941	833.285	640.542
377.986	21.960	832.957	640.301
379.000	22.155	832.127	640.318
380.015	22.037	831.454	639.312
381.029	21.893	830.950	638.343
382.044	22.155	830.217	638.678
383.059	22.055	829.630	637.807
384.073	21.798	829.222	636.503
385.088	21.748	828.318	635.570
386.102	21.540	827.897	634.438
387.117	21.647	827.228	634.257
388.132	21.634	826.868	633.878
389.146	21.705	826.539	633.825
390.161	21.841	826.079	633.908
391.175	22.081	825.193	634.041
392.190	21.745	824.699	632.392
393.205	21.727	824.417	632.056
394.219	21.709	824.121	631.708
395.234	21.638	823.523	630.936
396.248	21.463	823.009	629.856
397.263	21.463	822.328	629.282
398.278	21.699	821.844	629.703
399.292	21.464	821.637	628.643
400.307	21.418	820.817	627.797
401.321	21.559	820.642	628.112
402.336	21.755	820.371	628.553
403.350	21.776	820.035	628.313
404.365	21.839	819.550	628.114
405.380	22.140	819.037	628.740
406.394	22.216	818.620	628.637
407.409	22.287	818.017	628.372
408.423	22.484	817.762	628.824
409.438	22.359	817.470	628.097
410.453	22.493	816.966	628.133
411.467	22.405	816.671	627.539
412.482	22.475	816.419	627.536
413.496	22.704	815.702	627.745
414.511	22.498	815.576	626.859
415.526	22.499	815.214	626.530
416.540	22.346	814.379	625.291
417.555	22.284	814.213	624.886
418.569	22.427	813.486	624.782
419.584	22.313	813.217	624.114
420.599	22.448	812.387	623.901
421.613	159.177	1369.790	1788.706
422.628	138.560	1451.047	1788.817
