DTS Sentinel unit serial number:	SN413079Multiplexer serial number:	ORYXHardware model number:	OX4-SRSoftware version number:	ORYX F/W v4.00 Oryx Data Collector v3.7.2.0data status	okinstallation	princeton_trtdifferential loss correction	single-endedforward channel	channel 1reverse channel	N/Adate	2019/09/18time	17:38:35forward acquisition time	60.00reverse acquisition time	0.00gamma	496.2192k internal	0.2291k external	0.2291temperature offset calibration	1.0002default loss term (dB/km)	0.3790temperature slope calibration	1.0000multiplexer offset coefficient	1.0000multiplexer slope coefficient	1.0000fibre end	0.00T internal ref (°C)	40.25T ext. ref 1 (°C)	0.90T ext. ref 2 (°C)	35.18length (m)	temperature (°C)	Stokes	anti-Stokes-747.200	-77.225	-0.265	-0.095
-746.185	-200.000	0.057	0.277
-745.171	116.866	-0.199	-0.250
-744.156	308.059	-0.218	0.416
-743.142	43.281	0.045	0.042
-742.127	-90.716	0.074	0.022
-741.112	146.514	-0.129	-0.178
-740.098	-200.000	-0.001	-0.053
-739.083	-200.000	-0.054	0.410
-738.069	-200.000	-0.339	-0.001
-737.054	82.024	0.013	0.014
-736.039	-200.000	-0.001	0.018
-735.025	-200.000	0.009	0.180
-734.010	249.357	0.134	-0.232
-732.996	-102.776	-0.345	-0.084
-731.981	-7.155	-0.179	-0.125
-730.966	-200.000	-0.016	0.096
-729.952	-16.975	-0.154	0.100
-728.937	-108.665	-0.313	-0.069
-727.923	3.097	0.336	0.250
-726.908	-187.813	0.289	-0.004
-725.894	141.188	0.077	-0.105
-724.879	112.593	0.128	-0.159
-723.864	-79.220	-0.265	-0.092
-722.850	-180.453	-0.161	-0.003
-721.835	-148.515	0.232	0.019
-720.821	55.611	-0.190	-0.189
-719.806	-37.016	0.211	-0.115
-718.791	-69.376	-0.155	0.061
-717.777	-94.587	-0.159	-0.044
-716.762	-5.974	-0.282	0.197
-715.748	-200.000	-0.007	0.130
-714.733	103.512	-0.094	0.113
-713.718	27.465	-0.309	0.266
-712.704	-200.000	0.016	-0.422
-711.689	-4.568	-0.073	-0.052
-710.675	-25.838	0.120	-0.072
-709.660	-200.000	0.037	0.276
-708.645	-95.381	-0.159	-0.044
-707.631	-148.031	-0.262	-0.022
-706.616	-130.723	-0.372	0.051
-705.602	673.081	-0.032	0.085
-704.587	800.000	-0.080	0.312
-703.572	-1.816	0.074	-0.053
-702.558	529.236	0.028	0.066
-701.543	97.860	-0.174	-0.204
-700.529	-200.000	0.014	-0.315
-699.514	-67.433	0.135	0.054
-698.499	-39.774	0.267	-0.143
-697.485	18.751	-0.064	0.052
-696.470	66.151	-0.227	-0.235
-695.456	-200.000	-0.038	-0.273
-694.441	312.844	-0.185	-0.355
-693.426	800.000	-0.018	0.059
-692.412	-150.242	-0.285	-0.023
-691.397	-51.830	0.267	-0.127
-690.383	236.521	0.108	-0.183
-689.368	-78.991	0.112	0.039
-688.354	-200.000	-0.007	-0.226
-687.339	-81.038	-0.305	-0.103
-686.324	-91.910	0.255	0.074
-685.310	800.000	-0.083	0.295
-684.295	-27.614	-0.148	-0.088
-683.281	412.582	0.091	-0.198
-682.266	-177.734	-0.312	0.008
-681.251	7.723	-0.153	0.117
-680.237	118.962	0.013	-0.017
-679.222	-200.000	-0.074	0.383
-678.208	800.000	-0.075	0.258
-677.193	-173.713	-0.219	0.007
-676.178	-200.000	0.002	-0.149
-675.164	-99.366	0.460	-0.119
-674.149	-111.384	-0.269	-0.056
-673.135	212.031	-0.031	-0.049
-672.120	443.280	-0.104	0.232
-671.105	36.533	-0.016	-0.014
-670.091	-200.000	-0.007	0.079
-669.076	-124.455	-0.097	-0.015
-668.062	22.432	-0.080	0.067
-667.047	-200.000	-0.021	0.108
-666.032	64.824	0.109	-0.113
-665.018	-200.000	0.035	-0.502
-664.003	800.000	-0.068	-0.245
-662.989	174.568	-0.101	0.148
-661.974	-200.000	0.012	-0.126
-660.959	800.000	0.066	0.192
-659.945	20.944	-0.116	0.096
-658.930	102.185	0.195	-0.232
-657.916	-149.108	0.081	0.007
-656.901	-200.000	0.041	0.201
-655.886	615.069	-0.074	-0.189
-654.872	-83.633	-0.305	-0.099
-653.857	-173.338	0.149	-0.005
-652.843	-152.312	-0.091	-0.007
-651.828	-122.119	-0.524	-0.088
-650.814	-200.000	0.012	0.200
-649.799	-8.294	-0.200	0.137
-648.784	-200.000	0.007	0.143
-647.770	-200.000	-0.007	-0.098
-646.755	331.037	-0.232	-0.456
-645.741	-26.908	0.191	-0.114
-644.726	-95.718	-0.238	0.065
-643.711	-57.246	0.177	0.079
-642.697	-200.000	0.026	-0.290
-641.682	234.164	-0.032	-0.053
-640.668	58.602	0.153	0.154
-639.653	-200.000	-0.011	-0.290
-638.638	800.000	-0.091	-0.339
-637.624	105.002	0.384	0.461
-636.609	-79.684	-0.192	-0.066
-635.595	-12.615	-0.189	0.125
-634.580	179.550	-0.181	0.270
-633.565	-87.766	-0.142	0.044
-632.551	-185.980	0.139	-0.002
-631.536	-200.000	0.059	-0.273
-630.522	-144.626	0.148	0.014
-629.507	9.803	0.066	-0.051
-628.492	-167.929	0.129	0.005
-627.478	-200.000	0.003	-0.403
-626.463	142.600	0.132	0.178
-625.449	-46.429	0.284	0.142
-624.434	48.605	-0.236	0.226
-623.419	-36.463	-0.123	0.068
-622.405	-200.000	0.007	-0.197
-621.390	104.393	-0.088	-0.106
-620.376	-134.154	-0.204	-0.026
-619.361	-85.547	0.235	-0.075
-618.346	-115.965	-0.075	-0.014
-617.332	-35.438	-0.403	-0.223
-616.317	-51.129	0.467	-0.223
-615.303	17.310	0.250	-0.202
-614.288	-177.871	0.128	-0.003
-613.273	272.691	-0.013	0.024
-612.259	-74.639	-0.334	-0.122
-611.244	436.084	-0.014	0.032
-610.230	167.776	-0.081	-0.117
-609.215	-121.722	-0.136	-0.023
-608.201	250.954	-0.127	-0.220
-607.186	-122.931	0.318	-0.052
-606.171	-40.290	0.146	-0.077
-605.157	-114.353	0.324	-0.063
-604.142	167.791	0.015	-0.022
-603.128	543.082	-0.138	0.336
-602.113	95.704	0.199	-0.231
-601.098	135.862	0.145	-0.192
-600.084	-170.432	-0.354	0.013
-599.069	71.549	0.107	-0.113
-598.055	790.866	0.070	0.196
-597.040	-200.000	0.012	-0.289
-596.025	26.941	0.112	0.096
-595.011	119.199	0.122	-0.154
-593.996	-55.823	0.108	0.049
-592.982	-110.787	-0.259	-0.054
-591.967	-200.000	-0.017	-0.122
-590.952	3.532	-0.191	-0.142
-589.938	-177.244	0.194	-0.005
-588.923	-43.796	-0.143	0.074
-587.909	7.350	-0.107	-0.081
-586.894	-9.471	-0.109	0.074
-585.879	800.000	0.103	0.312
-584.865	374.731	-0.117	0.243
-583.850	-200.000	-0.039	0.386
-582.836	350.478	0.129	0.259
-581.821	-10.942	0.210	-0.141
-580.806	-123.736	-0.127	-0.020
-579.792	34.599	-0.370	-0.329
-578.777	-81.859	0.218	0.073
-577.763	161.719	-0.268	0.382
-576.748	475.170	-0.052	-0.119
-575.733	13.400	-0.109	-0.086
-574.719	-67.778	-0.065	-0.026
-573.704	111.953	-0.254	-0.312
-572.690	-43.343	-0.022	0.012
-571.675	-104.709	0.084	-0.020
-570.661	107.159	0.093	0.113
-569.646	48.766	-0.109	-0.104
-568.631	-87.824	0.298	0.091
-567.617	-200.000	0.034	-0.426
-566.602	-107.370	0.248	-0.055
-565.588	-127.641	-0.477	-0.070
-564.573	418.641	-0.191	0.415
-563.558	180.603	0.058	-0.086
-562.544	-74.934	0.361	-0.132
-561.529	221.813	-0.105	-0.172
-560.515	75.247	-0.157	-0.168
-559.500	-200.000	-0.027	0.176
-558.485	118.321	-0.114	-0.143
-557.471	-200.000	0.041	0.222
-556.456	-36.913	0.151	0.082
-555.442	8.447	0.210	0.161
-554.427	176.674	-0.120	-0.177
-553.412	84.576	-0.091	-0.102
-552.398	-67.012	-0.088	-0.035
-551.383	800.000	-0.106	-0.343
-550.369	-173.025	0.288	0.009
-549.354	185.785	-0.032	0.048
-548.339	207.365	-0.033	0.053
-547.325	-142.598	-0.125	0.012
-546.310	156.641	0.112	0.158
-545.296	-200.000	-0.034	-0.166
-544.281	-104.353	-0.181	-0.043
-543.266	800.000	-0.090	0.340
-542.252	197.493	0.205	0.319
-541.237	15.018	-0.161	-0.128
-540.223	-200.000	-0.005	-0.089
-539.208	800.000	-0.041	-0.167
-538.193	-75.539	-0.216	-0.078
-537.179	-158.114	-0.209	0.012
-536.164	38.918	0.110	-0.100
-535.150	-154.706	-0.251	-0.017
-534.135	250.679	0.106	0.182
-533.121	265.365	-0.072	-0.128
-532.106	222.878	-0.153	0.250
-531.091	-200.000	-0.040	-0.191
-530.077	38.336	-0.086	-0.078
-529.062	-200.000	0.024	-0.344
-528.048	160.397	-0.039	-0.056
-527.033	-86.411	-0.255	-0.080
-526.018	-200.000	0.027	-0.259
-525.004	438.773	-0.035	0.078
-523.989	-120.516	-0.205	-0.035
-522.975	-200.000	0.031	0.190
-521.960	-143.916	0.615	0.059
-520.945	307.255	0.054	0.103
-519.931	-200.000	0.051	0.300
-518.916	259.721	-0.139	0.244
-517.902	167.338	-0.242	0.349
-516.887	800.000	-0.103	0.324
-515.872	800.000	0.064	0.256
-514.858	133.468	0.100	-0.131
-513.843	-19.098	-0.252	0.159
-512.829	99.044	0.152	0.178
-511.814	-122.136	0.242	-0.040
-510.799	-200.000	0.056	-0.647
-509.785	-38.250	0.118	0.064
-508.770	-107.543	0.348	0.077
-507.756	101.503	0.093	-0.110
-506.741	385.677	-0.110	-0.231
-505.726	177.971	0.107	0.158
-504.712	169.798	-0.268	0.388
-503.697	54.864	0.227	0.223
-502.683	800.000	0.049	-0.149
-501.668	-200.000	0.037	-0.355
-500.653	-135.844	0.363	0.043
-499.639	800.000	0.065	-0.275
-498.624	-200.000	-0.024	0.206
-497.610	228.681	-0.113	-0.187
-496.595	-75.939	-0.108	0.039
-495.581	11.173	-0.087	-0.068
-494.566	-114.296	0.243	0.048
-493.551	5.810	-0.227	-0.170
-492.537	-127.542	-0.180	0.027
-491.522	-165.548	0.319	-0.014
-490.508	-53.121	0.231	-0.107
-489.493	102.927	-0.173	0.205
-488.478	238.161	-0.152	-0.255
-487.464	-200.000	0.009	0.135
-486.449	27.701	0.199	-0.170
-485.435	-36.449	-0.432	-0.236
-484.420	-200.000	-0.054	0.318
-483.405	-73.040	-0.274	-0.102
-482.391	41.594	-0.315	0.289
-481.376	-99.147	-0.188	-0.048
-480.362	800.000	0.049	-0.200
-479.347	-25.318	-0.240	-0.144
-478.332	789.529	-0.089	-0.247
-477.318	386.555	-0.188	-0.393
-476.303	107.476	-0.121	0.146
-475.289	-92.939	-0.033	-0.009
-474.274	14.076	0.209	0.165
-473.259	16.022	-0.043	-0.034
-472.245	-96.112	0.330	-0.089
-471.230	-91.356	-0.130	0.038
-470.216	221.769	0.311	0.507
-469.201	-41.538	0.115	-0.060
-468.186	262.274	-0.072	0.127
-467.172	260.066	0.131	0.230
-466.157	26.094	0.122	-0.103
-465.143	-91.405	-0.158	-0.046
-464.128	124.061	-0.143	-0.182
-463.113	800.000	0.066	0.199
-462.099	-200.000	0.007	-0.284
-461.084	800.000	-0.086	0.270
-460.070	-139.855	-0.153	0.016
-459.055	-123.385	0.366	-0.059
-458.040	116.775	0.074	-0.092
-457.026	232.399	0.046	-0.077
-456.011	83.189	-0.090	-0.100
-454.997	-178.859	-0.065	-0.001
-453.982	492.767	0.104	0.240
-452.968	-200.000	-0.004	-0.026
-451.953	-75.286	-0.441	0.159
-450.938	258.936	0.188	-0.328
-449.924	-131.668	-0.534	0.071
-448.909	-200.000	0.015	-0.134
-447.895	76.079	-0.044	-0.048
-446.880	-200.000	0.021	-0.098
-445.865	-200.000	-0.001	-0.262
-444.851	-30.476	0.086	-0.049
-443.836	-200.000	-0.006	-0.216
-442.822	152.543	0.113	-0.156
-441.807	800.000	0.069	0.260
-440.792	800.000	0.012	0.043
-439.778	-3.493	0.128	0.090
-438.763	-140.279	0.319	-0.034
-437.749	-50.955	0.054	-0.026
-436.734	800.000	0.059	0.193
-435.719	800.000	-0.076	0.223
-434.705	-70.022	0.082	0.032
-433.690	-200.000	0.023	-0.299
-432.676	800.000	0.089	0.371
-431.661	-81.832	-0.261	-0.086
-430.646	450.040	-0.040	0.090
-429.632	-200.000	-0.408	-0.000
-428.617	-200.000	0.009	-0.090
-427.603	96.188	0.133	0.154
-426.588	-2.166	0.327	0.232
-425.573	-13.050	-0.190	-0.125
-424.559	-200.000	-0.011	-0.179
-423.544	-102.128	0.278	0.068
-422.530	-134.948	-0.026	-0.003
-421.515	-123.799	0.161	-0.026
-420.500	-157.674	0.224	-0.014
-419.486	389.171	-0.113	0.237
-418.471	237.609	-0.038	-0.063
-417.457	-200.000	-0.101	0.494
-416.442	800.000	0.074	0.292
-415.428	-65.355	-0.189	-0.077
-414.413	-88.167	0.214	-0.065
-413.398	-83.429	-0.185	0.060
-412.384	313.321	-0.095	-0.181
-411.369	243.391	-0.094	-0.159
-410.355	800.000	-0.037	0.117
-409.340	43.858	0.039	0.036
-408.325	-51.620	-0.145	0.068
-407.311	-154.159	0.284	-0.019
-406.296	800.000	0.102	0.439
-405.282	-136.845	0.293	0.034
-404.267	78.534	-0.116	-0.125
-403.252	-10.732	-0.142	-0.095
-402.238	-133.260	-0.348	0.044
-401.223	-20.491	0.149	0.093
-400.209	-37.505	-0.105	0.057
-399.194	186.740	-0.051	0.077
-398.179	761.722	-0.117	0.321
-397.165	-200.000	-0.012	0.221
-396.150	-117.453	0.164	0.030
-395.136	-106.829	-0.253	0.057
-394.121	800.000	-0.012	-0.043
-393.106	70.261	0.159	-0.166
-392.092	33.753	0.042	0.037
-391.077	107.518	0.263	0.316
-390.063	-42.410	0.176	0.091
-389.048	-200.000	0.045	0.324
-388.033	23.156	0.219	0.181
-387.019	-200.000	-0.010	-0.216
-386.004	340.825	0.092	0.181
-384.990	-164.591	0.227	-0.010
-383.975	-113.829	-0.051	-0.010
-382.960	137.783	0.333	0.440
-381.946	800.000	0.025	-0.094
-380.931	25.223	-0.151	0.126
-379.917	143.303	-0.091	-0.122
-378.902	-37.564	0.239	0.129
-377.888	186.848	-0.084	-0.126
-376.873	31.634	0.148	0.129
-375.858	428.028	-0.082	0.178
-374.844	-113.922	0.147	-0.029
-373.829	-111.708	-0.447	-0.091
-372.815	197.505	-0.156	0.240
-371.800	-112.744	-0.325	-0.065
-370.785	-200.000	-0.010	0.154
-369.771	96.599	-0.089	-0.103
-368.756	-101.996	0.296	-0.072
-367.742	438.647	0.059	0.131
-366.727	190.593	0.144	-0.218
-365.712	277.960	-0.149	-0.268
-364.698	-153.549	-0.257	-0.018
-363.683	18.169	-0.357	-0.287
-362.669	-5.585	-0.087	-0.061
-361.654	-200.000	0.007	-0.036
-360.639	-179.404	-0.348	-0.008
-359.625	70.466	-0.139	0.145
-358.610	-38.496	0.239	-0.128
-357.596	221.019	-0.021	-0.034
-356.581	-46.916	0.048	0.024
-355.566	-200.000	-0.009	0.208
-354.552	-11.835	0.414	0.274
-353.537	800.000	0.054	0.171
-352.523	800.000	-0.013	-0.054
-351.508	-48.026	0.074	-0.036
-350.493	-81.522	0.261	0.086
-349.479	331.419	-0.091	0.178
-348.464	274.171	0.095	0.169
-347.450	29.937	0.154	-0.132
-346.435	-200.000	-0.025	0.394
-345.420	-200.000	0.018	0.083
-344.406	-51.644	0.263	0.124
-343.391	-70.718	-0.033	-0.013
-342.377	656.964	-0.139	-0.361
-341.362	-126.722	-0.357	0.053
-340.348	30.710	0.127	-0.109
-339.333	800.000	-0.147	-0.510
-338.318	109.263	0.040	-0.048
-337.304	-187.431	0.339	0.005
-336.289	-0.254	-0.034	-0.025
-335.275	-32.354	0.343	0.193
-334.260	-40.174	-0.273	-0.143
-333.245	409.220	0.073	0.155
-332.231	-53.605	-0.152	-0.070
-331.216	44.996	-0.050	-0.047
-330.202	-114.544	0.186	0.036
-329.187	680.940	0.117	-0.308
-328.172	133.747	0.353	0.461
-327.158	190.835	-0.091	-0.139
-326.143	74.461	0.082	-0.087
-325.129	-28.190	-0.428	-0.249
-324.114	-22.995	-0.289	0.175
-323.099	800.000	-0.012	0.052
-322.085	-200.000	0.001	0.094
-321.070	702.055	-0.099	0.263
-320.056	17.068	-0.125	-0.100
-319.041	-82.938	0.034	0.011
-318.026	-200.000	-0.018	-0.172
-317.012	160.308	0.291	-0.409
-315.997	149.082	0.118	0.160
-314.983	-103.613	0.285	0.067
-313.968	28.202	-0.036	-0.031
-312.953	-88.677	0.117	0.035
-311.939	-200.000	-0.023	0.190
-310.924	-90.540	0.180	-0.052
-309.910	-200.000	-0.003	-0.151
-308.895	37.783	0.069	-0.062
-307.880	210.204	-0.252	-0.398
-306.866	-66.280	-0.348	0.139
-305.851	51.638	0.109	0.104
-304.837	-128.133	-0.234	-0.034
-303.822	-99.507	0.199	-0.050
-302.807	56.519	0.287	-0.281
-301.793	67.947	-0.187	-0.192
-300.778	-162.971	-0.294	0.014
-299.764	88.566	0.165	-0.184
-298.749	800.000	0.084	0.275
-297.735	355.781	-0.068	-0.137
-296.720	-200.000	-0.079	0.383
-295.705	-0.384	0.134	0.096
-294.691	-158.552	-0.263	-0.015
-293.676	84.569	-0.082	0.090
-292.662	203.000	0.127	0.197
-291.647	21.377	0.106	-0.087
-290.632	-71.426	-0.227	0.086
-289.618	46.534	0.065	-0.061
-288.603	-147.199	0.252	0.022
-287.589	-200.000	0.029	0.373
-286.574	800.000	-0.029	0.088
-285.559	-141.801	0.308	-0.031
-284.545	-200.000	0.054	0.266
-283.530	46.306	0.036	0.034
-282.516	-87.202	0.281	-0.086
-281.501	-200.000	-0.016	-0.130
-280.486	69.123	0.076	-0.079
-279.472	-200.000	0.029	0.164
-278.457	-38.270	-0.204	0.109
-277.443	-188.756	-0.471	-0.006
-276.428	800.000	-0.120	-0.347
-275.413	51.764	-0.164	0.157
-274.399	-153.120	-0.301	-0.021
-273.384	800.000	-0.041	-0.157
-272.370	127.916	0.133	0.170
-271.355	-108.520	-0.228	-0.049
-270.340	-200.000	0.001	0.026
-269.326	-95.887	-0.283	-0.076
-268.311	275.569	0.194	-0.345
-267.297	-200.000	-0.087	0.479
-266.282	-54.452	0.295	0.134
-265.267	-69.093	-0.273	-0.106
-264.253	1.114	-0.230	-0.166
-263.238	141.920	0.196	0.261
-262.224	-31.043	-0.162	0.092
-261.209	-200.000	-0.005	-0.302
-260.195	-104.595	0.179	-0.041
-259.180	800.000	-0.028	0.082
-258.165	-58.894	0.046	0.020
-257.151	800.000	0.048	-0.179
-256.136	800.000	-0.043	0.155
-255.122	-200.000	-0.015	0.122
-254.107	-200.000	0.007	0.072
-253.092	-15.800	-0.149	-0.096
-252.078	5.745	-0.146	0.108
-251.063	-200.000	0.013	-0.059
-250.049	-191.016	-0.084	0.001
-249.034	-200.000	-0.025	-0.202
-248.019	800.000	-0.010	-0.044
-247.005	-36.026	0.297	-0.161
-245.990	15.817	-0.026	-0.020
-244.976	-0.119	0.134	0.096
-243.961	744.869	-0.119	0.321
-242.946	-178.767	-0.130	-0.003
-241.932	229.686	-0.109	-0.178
-240.917	698.987	-0.108	-0.285
-239.903	438.497	-0.038	-0.084
-238.888	-123.259	0.264	0.042
-237.873	366.079	0.078	0.158
-236.859	318.666	0.124	0.236
-235.844	800.000	-0.029	0.101
-234.830	800.000	0.054	0.174
-233.815	621.743	-0.060	0.152
-232.800	710.268	0.145	-0.385
-231.786	202.591	-0.136	-0.211
-230.771	-25.067	0.014	0.009
-229.757	-200.000	-0.073	-0.436
-228.742	-10.044	-0.018	0.012
-227.727	89.101	-0.258	-0.288
-226.713	579.058	0.102	0.251
-225.698	201.715	0.128	-0.198
-224.684	800.000	0.134	0.437
-223.669	266.863	0.076	0.133
-222.655	800.000	0.052	-0.190
-221.640	-200.000	-0.033	-0.263
-220.625	-200.000	0.011	0.143
-219.611	-40.959	-0.038	-0.020
-218.596	-200.000	-0.005	0.191
-217.582	-200.000	-0.013	0.219
-216.567	244.809	0.050	-0.084
-215.552	497.978	0.051	0.117
-214.538	-78.772	0.407	0.139
-213.523	-200.000	0.040	-0.179
-212.509	367.880	-0.142	-0.287
-211.494	-200.000	0.004	0.044
-210.479	-103.558	0.410	-0.097
-209.465	-126.619	0.241	-0.036
-208.450	229.429	0.100	0.164
-207.436	-67.301	-0.153	-0.060
-206.421	-1.643	0.238	-0.168
-205.406	54.186	0.053	0.052
-204.392	-200.000	0.010	-0.330
-203.377	-20.801	-0.127	0.078
-202.363	-121.027	-0.245	0.041
-201.348	130.637	0.054	-0.069
-200.333	337.568	0.064	0.124
-199.319	508.274	-0.046	-0.108
-198.304	-200.000	-0.015	-0.222
-197.290	-67.691	-0.199	0.078
-196.275	52.780	-0.262	-0.251
-195.260	-200.000	-0.044	-0.383
-194.246	-77.231	-0.263	0.092
-193.231	37.025	-0.041	-0.037
-192.217	-200.000	0.033	-0.321
-191.202	-200.000	0.038	0.202
-190.187	-98.175	0.429	-0.111
-189.173	-113.432	-0.125	0.025
-188.158	-118.291	-0.113	-0.020
-187.144	-200.000	-0.015	-0.125
-186.129	16.595	0.290	-0.230
-185.114	20.636	0.207	-0.168
-184.100	13.696	0.203	0.158
-183.085	760.110	0.064	-0.174
-182.071	-34.421	0.129	0.071
-181.056	-71.393	0.295	-0.111
-180.042	-18.329	0.313	0.196
-179.027	-99.209	-0.241	-0.061
-178.012	-15.385	-0.156	-0.100
-176.998	303.855	0.108	0.201
-175.983	-108.197	-0.092	0.020
-174.969	-200.000	-0.008	-0.486
-173.954	-113.988	-0.192	0.037
-172.939	800.000	0.056	0.235
-171.925	800.000	0.181	0.500
-170.910	192.834	-0.232	0.351
-169.896	-200.000	-0.026	0.234
-168.881	-200.000	0.014	0.125
-167.866	139.337	-0.071	-0.094
-166.852	48.477	0.157	0.147
-165.837	800.000	0.058	-0.223
-164.823	-138.609	0.270	0.030
-163.808	-168.002	0.291	0.011
-162.793	-34.276	-0.273	0.150
-161.779	-200.000	0.013	-0.175
-160.764	-181.720	-0.199	0.004
-159.750	-180.008	-0.516	-0.011
-158.735	14.178	0.218	0.170
-157.720	243.744	-0.152	0.255
-156.706	-0.466	-0.084	0.060
-155.691	800.000	-0.115	-0.343
-154.677	-200.000	0.032	0.226
-153.662	-173.319	0.235	-0.007
-152.647	-65.973	0.080	-0.032
-151.633	157.185	0.100	0.138
-150.618	800.000	0.028	-0.096
-149.604	115.250	-0.180	0.221
-148.589	156.020	-0.081	0.112
-147.574	226.577	0.056	0.090
-146.560	-75.038	-0.068	0.024
-145.545	11.535	0.168	-0.129
-144.531	512.911	0.065	0.152
-143.516	-3.500	-0.076	0.053
-142.502	800.000	-0.074	0.279
-141.487	-96.626	0.137	-0.036
-140.472	148.405	-0.098	-0.132
-139.458	-40.197	0.180	0.094
-138.443	-19.929	-0.237	0.146
-137.429	-56.889	0.199	0.088
-136.414	-54.172	-0.179	0.081
-135.399	-71.792	0.181	-0.067
-134.385	-189.418	0.253	0.003
-133.370	800.000	-0.104	0.378
-132.356	-200.000	0.002	0.271
-131.341	44.181	0.153	-0.140
-130.326	-200.000	0.016	0.256
-129.312	-154.761	-0.233	0.015
-128.297	-49.166	0.336	0.161
-127.283	253.431	0.176	-0.300
-126.268	-142.627	0.377	0.037
-125.253	372.601	-0.073	0.148
-124.239	-98.190	0.139	-0.036
-123.224	340.133	-0.210	0.410
-122.210	-144.311	-0.440	-0.041
-121.195	101.142	0.204	-0.238
-120.180	-77.497	0.187	-0.065
-119.166	-200.000	0.040	0.194
-118.151	-200.000	0.085	-0.000
-117.137	-200.000	0.069	-0.341
-116.122	-80.605	0.152	0.050
-115.107	-63.367	0.283	0.116
-114.093	77.098	0.102	-0.108
-113.078	393.291	-0.080	-0.166
-112.064	46.596	-0.201	-0.187
-111.049	-200.000	0.028	0.152
-110.034	800.000	0.018	0.048
-109.020	75.084	-0.096	-0.101
-108.005	-115.252	0.105	-0.020
-106.991	426.845	0.097	0.210
-105.976	-72.123	0.058	-0.021
-104.962	451.364	0.084	0.184
-103.947	345.352	0.091	0.178
-102.932	-175.319	-0.264	0.007
-101.918	-200.000	-0.038	0.278
-100.903	-80.585	-0.149	0.050
-99.889	-200.000	-0.010	0.389
-98.874	-146.094	0.382	-0.034
-97.859	673.764	0.107	0.277
-96.845	-87.576	0.199	-0.060
-95.830	81.353	0.081	0.088
-94.816	-57.386	-0.314	-0.138
-93.801	-118.364	-0.161	0.028
-92.786	800.000	0.095	-0.291
-91.772	-185.214	-0.229	0.004
-90.757	-73.166	0.143	0.052
-89.743	800.000	-0.075	0.244
-88.728	-200.000	0.003	-0.159
-87.713	-32.936	-0.170	0.094
-86.699	658.288	-0.048	0.124
-85.684	20.518	0.271	-0.219
-84.670	18.119	0.253	0.201
-83.655	-24.431	-0.136	-0.081
-82.640	-112.370	-0.227	-0.045
-81.626	65.728	0.058	0.059
-80.611	800.000	-0.087	0.343
-79.597	9.416	-0.088	0.066
-78.582	325.027	-0.123	0.234
-77.567	-46.446	0.211	0.103
-76.553	-124.109	0.146	-0.023
-75.538	-29.404	0.173	-0.099
-74.524	-102.995	0.216	-0.051
-73.509	246.354	0.062	0.104
-72.494	800.000	-0.062	-0.266
-71.480	-43.080	-0.070	0.035
-70.465	157.001	-0.072	-0.099
-69.451	-44.974	-0.351	0.175
-68.436	-31.711	-0.191	0.107
-67.422	378.877	-0.025	-0.052
-66.407	-200.000	-0.023	-0.396
-65.392	20.800	0.193	0.156
-64.378	-14.176	0.299	0.192
-63.363	800.000	0.073	-0.317
-62.349	79.899	-0.189	0.202
-61.334	-70.223	-0.809	-0.307
-60.319	757.501	0.260	0.701
-59.305	-200.000	-0.124	-1.082
-58.290	358.804	0.438	0.874
-57.276	-200.000	0.184	1.337
-56.261	-200.000	77.348	520.581
-55.246	511.517	1337.851	3105.198
-54.232	143.133	2585.602	3429.115
-53.217	115.209	2255.956	2746.064
-52.203	51.959	1698.513	1612.400
-51.188	43.876	1420.961	1297.382
-50.173	40.424	1375.028	1233.948
-49.159	58.676	1410.867	1381.201
-48.144	64.722	1430.326	1438.169
-47.130	44.242	1392.702	1273.677
-46.115	40.389	1375.303	1233.782
-45.100	40.119	1370.823	1228.036
-44.086	40.037	1368.183	1225.118
-43.071	40.016	1366.229	1223.187
-42.057	40.076	1363.615	1221.170
-41.042	40.071	1361.962	1219.613
-40.027	40.155	1360.327	1218.612
-39.013	40.075	1358.973	1216.860
-37.998	40.170	1356.396	1215.087
-36.984	40.230	1354.681	1213.870
-35.969	40.345	1352.923	1212.954
-34.954	40.272	1351.389	1211.086
-33.940	40.283	1350.046	1209.898
-32.925	40.399	1348.671	1209.325
-31.911	40.316	1347.389	1207.624
-30.896	40.366	1345.907	1206.552
-29.881	40.288	1343.941	1204.266
-28.867	40.240	1342.783	1202.888
-27.852	40.393	1341.174	1202.327
-26.838	40.372	1339.903	1201.017
-25.823	40.356	1338.138	1199.287
-24.809	40.322	1337.059	1198.066
-23.794	40.398	1335.188	1196.802
-22.779	40.417	1333.985	1195.791
-21.765	40.378	1332.734	1194.386
-20.750	40.217	1331.508	1192.271
-19.736	40.250	1329.567	1190.687
-18.721	40.123	1328.685	1189.083
-17.706	40.214	1327.165	1188.224
-16.692	40.209	1325.955	1187.061
-15.677	40.186	1325.000	1186.025
-14.663	40.200	1324.320	1185.452
-13.648	40.117	1323.320	1184.014
-12.633	40.239	1321.994	1183.508
-11.619	40.205	1320.998	1182.365
-10.604	40.182	1320.118	1181.394
-9.590	40.191	1319.156	1180.538
-8.575	40.251	1318.123	1179.927
-7.560	40.244	1317.135	1178.956
-6.546	40.156	1316.729	1178.022
-5.531	40.154	1315.846	1177.169
-4.517	40.251	1314.626	1176.608
-3.502	40.194	1313.863	1175.543
-2.487	40.167	1312.755	1174.341
-1.473	40.334	1309.201	1172.106
-0.458	39.058	1293.955	1150.939
0.556	33.940	1273.083	1104.170
1.571	28.053	1274.063	1070.573
2.586	25.187	1287.266	1064.587
3.600	23.002	1275.002	1041.491
4.615	16.519	1197.263	941.912
5.629	6.354	1114.534	823.793
6.644	1.361	1089.990	779.984
7.659	0.775	1087.740	775.302
8.673	0.708	1086.682	774.132
9.688	0.748	1085.083	773.131
10.702	1.021	1083.547	773.365
11.717	5.988	1090.718	803.886
12.731	14.281	1101.865	854.770
13.746	17.758	1105.650	875.508
14.761	17.539	1104.326	873.257
15.775	16.694	1102.834	867.675
16.790	15.612	1100.627	860.325
17.804	14.890	1099.090	855.354
18.819	14.638	1097.759	852.955
19.834	14.241	1096.987	850.250
20.848	14.038	1096.082	848.441
21.863	13.900	1094.293	846.275
22.877	13.605	1094.088	844.538
23.892	13.505	1093.634	843.607
24.907	13.542	1093.104	843.310
25.921	13.653	1091.696	842.714
26.936	13.640	1090.968	842.011
27.950	13.698	1090.398	841.789
28.965	13.775	1088.770	840.852
29.980	13.825	1087.545	840.082
30.994	13.888	1086.331	839.391
32.009	13.821	1085.751	838.530
33.023	13.808	1084.605	837.502
34.038	13.789	1083.073	836.150
35.053	13.666	1082.931	835.350
36.067	13.752	1081.757	834.800
37.082	13.701	1080.870	833.784
38.096	13.742	1080.516	833.647
39.111	13.664	1079.598	832.474
40.126	13.628	1078.493	831.363
41.140	13.579	1077.050	829.935
42.155	13.504	1076.013	828.684
43.169	13.615	1075.028	828.406
44.184	13.545	1073.971	827.171
45.199	13.593	1072.528	826.224
46.213	13.525	1071.596	825.097
47.228	13.613	1070.274	824.446
48.242	13.695	1069.177	823.935
49.257	13.682	1068.251	823.084
50.271	13.653	1067.975	822.653
51.286	13.770	1066.255	821.832
52.301	13.711	1065.142	820.612
53.315	13.682	1064.656	820.024
54.330	13.701	1063.482	819.138
55.344	13.634	1063.068	818.415
56.359	13.636	1062.004	817.533
57.374	13.629	1061.062	816.701
58.388	13.604	1060.200	815.843
59.403	13.599	1059.321	815.073
60.417	13.465	1058.712	813.870
61.432	13.452	1058.186	813.332
62.447	13.548	1056.864	812.713
63.461	13.476	1056.269	811.834
64.476	13.450	1055.520	811.059
65.490	13.554	1054.334	810.581
66.505	13.586	1053.682	810.164
67.520	13.467	1053.047	809.026
68.534	13.558	1052.278	808.804
69.549	13.530	1051.780	808.218
70.563	13.655	1050.400	807.691
71.578	13.485	1049.997	806.484
72.593	13.506	1049.200	805.900
73.607	13.435	1048.445	804.906
74.622	13.404	1047.907	804.269
75.636	13.473	1047.390	804.137
76.651	13.567	1046.375	803.745
77.666	13.511	1045.926	803.057
78.680	13.462	1044.928	801.983
79.695	13.554	1044.248	801.836
80.709	13.478	1044.173	801.337
81.724	13.433	1043.362	800.426
82.739	13.630	1042.226	800.434
83.753	13.640	1041.889	800.154
84.768	13.655	1040.654	799.207
85.782	13.889	1039.374	799.279
86.797	13.773	1038.592	798.051
87.812	13.693	1037.601	796.836
88.826	13.664	1037.027	796.185
89.841	13.702	1036.012	795.517
90.855	13.753	1034.744	794.715
91.870	13.710	1034.315	794.109
92.884	13.828	1033.013	793.603
93.899	13.736	1032.374	792.607
94.914	13.900	1031.193	792.411
95.928	13.789	1030.467	791.254
96.943	13.817	1029.979	790.941
97.957	13.742	1028.763	789.580
98.972	13.728	1027.980	788.845
99.987	13.871	1026.650	788.431
101.001	13.803	1025.939	787.493
102.016	13.784	1025.035	786.639
103.030	13.732	1024.600	785.992
104.045	13.816	1023.588	785.543
105.060	13.768	1022.788	784.634
106.074	13.733	1022.003	783.794
107.089	13.659	1020.609	782.305
108.103	13.593	1020.070	781.514
109.118	13.708	1018.734	780.964
110.133	13.711	1017.801	780.195
111.147	13.596	1017.337	779.226
112.162	13.590	1016.758	778.686
113.176	13.544	1016.083	777.883
114.191	13.714	1014.982	777.771
115.206	13.721	1014.374	777.266
116.220	13.686	1013.345	776.248
117.235	13.791	1012.513	776.032
118.249	13.679	1011.537	774.693
119.264	13.677	1011.202	774.358
120.279	13.702	1010.247	773.676
121.293	13.732	1009.186	772.934
122.308	13.557	1008.494	771.520
123.322	13.755	1007.230	771.405
124.337	13.808	1005.765	770.463
125.352	13.816	1004.857	769.733
126.366	13.769	1004.085	768.858
127.381	13.718	1002.787	767.559
128.395	13.739	1001.948	766.946
129.410	13.799	1001.226	766.604
130.424	13.698	1000.229	765.304
131.439	13.832	999.202	765.069
132.454	13.873	998.716	764.820
133.468	13.782	998.106	763.866
134.483	13.762	996.868	762.759
135.497	13.788	996.504	762.530
136.512	13.711	995.467	761.317
137.527	13.724	994.589	760.640
138.541	13.951	993.584	760.841
139.556	13.890	992.869	759.947
140.570	14.035	992.394	760.181
141.585	13.996	990.947	758.827
142.600	14.043	990.455	758.599
143.614	14.044	989.658	757.926
144.629	14.055	988.556	757.062
145.643	13.991	987.549	755.935
146.658	13.812	986.673	754.385
147.673	13.898	985.859	754.084
148.687	13.889	984.931	753.266
149.702	13.834	984.105	752.321
150.716	13.929	983.066	751.888
151.731	13.930	982.429	751.338
152.746	13.844	981.866	750.453
153.760	13.875	981.109	749.948
154.775	13.869	980.779	749.605
155.789	13.913	980.327	749.389
156.804	14.011	978.922	748.694
157.819	14.011	978.168	748.047
158.833	14.058	977.695	747.834
159.848	14.186	976.451	747.390
160.862	14.044	976.096	746.414
161.877	13.954	974.882	745.016
162.892	13.974	973.995	744.361
163.906	13.939	973.198	743.529
164.921	14.028	972.223	743.119
165.935	14.000	971.163	742.116
166.950	14.010	970.668	741.717
167.964	13.915	970.053	740.755
168.979	13.857	969.211	739.791
169.994	13.885	968.156	739.043
171.008	14.100	967.167	739.182
172.023	14.010	966.768	738.408
173.037	14.113	965.775	738.042
174.052	14.055	965.288	737.350
175.067	14.136	964.594	737.110
176.081	14.071	964.238	736.488
177.096	14.291	963.097	736.525
178.110	14.138	962.929	735.655
179.125	14.149	962.122	735.019
180.140	14.192	961.599	734.745
181.154	14.191	961.266	734.422
182.169	14.255	960.453	734.016
183.183	14.266	960.070	733.710
184.198	14.373	958.928	733.240
185.213	14.288	958.299	732.323
186.227	14.304	957.492	731.711
187.242	14.341	956.974	731.412
188.256	14.456	955.902	731.032
189.271	14.314	955.476	730.020
190.286	14.285	954.698	729.233
191.300	14.301	954.015	728.719
192.315	14.162	953.520	727.667
193.329	14.188	953.222	727.488
194.344	14.192	952.621	726.983
195.359	14.311	951.519	726.596
196.373	14.343	950.987	726.266
197.388	14.349	950.735	726.037
198.402	14.508	949.858	725.995
199.417	14.409	949.352	725.111
200.432	14.543	948.496	724.977
201.446	14.511	948.075	724.451
202.461	14.607	947.654	724.483
203.475	14.717	946.926	724.342
204.490	14.573	946.363	723.219
205.504	14.512	945.408	722.161
206.519	14.475	944.951	721.591
207.534	14.568	943.590	720.891
208.548	14.599	942.929	720.453
209.563	14.559	942.602	719.965
210.577	14.482	942.362	719.390
211.592	14.672	941.067	719.157
212.607	14.730	940.344	718.789
213.621	14.680	939.597	717.937
214.636	14.702	938.965	717.486
215.650	14.824	938.218	717.375
216.665	14.752	937.281	716.289
217.680	14.683	936.927	715.657
218.694	14.797	935.890	715.291
219.709	14.765	935.559	714.837
220.723	14.716	934.923	714.079
221.738	14.753	933.805	713.318
222.753	14.791	933.229	712.977
223.767	14.931	932.795	713.182
224.782	14.836	932.508	712.493
225.796	14.992	931.443	712.283
226.811	14.900	931.185	711.629
227.826	14.926	929.951	710.732
228.840	14.856	929.445	709.985
229.855	15.019	928.246	709.701
230.869	14.866	927.759	708.616
231.884	14.841	927.412	708.182
232.899	14.813	926.503	707.308
233.913	14.997	925.813	707.495
234.928	14.906	924.846	706.311
235.942	14.846	924.731	705.905
236.957	15.002	924.434	706.274
237.972	14.986	923.223	705.218
238.986	15.123	922.235	704.978
240.001	14.950	922.010	704.017
241.015	14.951	921.520	703.584
242.030	15.043	920.807	703.364
243.045	15.147	920.027	703.142
244.059	15.025	919.478	702.151
245.074	15.096	918.844	701.899
246.088	15.016	918.106	700.939
247.103	15.163	917.436	700.983
248.117	15.195	916.712	700.500
249.132	15.161	916.614	700.221
250.147	15.487	914.884	700.196
251.161	15.372	914.759	699.559
252.176	15.388	914.436	699.316
253.190	15.374	913.639	698.587
254.205	15.365	912.923	697.942
255.220	15.308	912.436	697.271
256.234	15.395	911.778	697.068
257.249	15.443	910.830	696.479
258.263	15.447	910.678	696.318
259.278	15.429	909.397	695.203
260.293	15.510	909.043	695.205
261.307	15.459	908.745	694.708
262.322	15.493	908.072	694.271
263.336	15.546	907.110	693.694
264.351	15.549	906.092	692.864
265.366	15.593	905.682	692.671
266.380	15.601	904.996	692.118
267.395	15.683	904.108	691.715
268.409	15.602	903.441	690.812
269.424	15.590	902.613	690.069
270.439	15.538	902.266	689.527
271.453	15.627	901.351	689.134
272.468	15.678	901.143	689.122
273.482	15.687	900.271	688.432
274.497	15.631	899.569	687.606
275.512	15.536	899.152	686.837
276.526	15.654	898.780	686.973
277.541	15.809	897.798	686.794
278.555	15.765	897.615	686.416
279.570	15.748	896.985	685.803
280.585	15.703	896.093	684.877
281.599	15.768	895.444	684.584
282.614	15.804	894.488	683.939
283.628	15.887	894.067	683.892
284.643	15.910	893.120	683.204
285.657	15.920	892.674	682.842
286.672	15.870	892.212	682.225
287.687	15.793	891.603	681.387
288.701	15.857	890.982	681.113
289.716	15.872	890.452	680.708
290.730	15.838	890.148	680.277
291.745	15.984	888.813	679.784
292.760	15.918	888.505	679.224
293.774	16.197	887.364	679.413
294.789	16.103	887.186	678.838
295.803	15.981	886.228	677.555
296.818	16.078	885.361	677.223
297.833	16.051	885.384	677.071
298.847	16.015	884.701	676.346
299.862	16.058	883.835	675.798
300.876	16.056	883.404	675.399
301.891	16.149	882.570	675.076
302.906	16.141	882.239	674.729
303.920	16.156	881.989	674.539
304.935	16.325	880.774	674.225
305.949	16.209	880.433	673.440
306.964	16.154	879.834	672.705
307.979	16.287	879.008	672.541
308.993	16.198	878.795	671.963
310.008	16.138	878.134	671.161
311.022	16.224	877.187	670.721
312.037	16.240	876.633	670.300
313.052	16.397	876.051	670.417
314.066	16.217	875.911	669.539
315.081	16.349	874.795	669.150
316.095	16.174	874.618	668.260
317.110	16.465	873.664	668.623
318.125	16.307	873.419	667.753
319.139	16.226	872.972	667.033
320.154	16.325	872.289	666.842
321.168	16.303	871.995	666.471
322.183	16.353	871.136	665.953
323.197	16.464	870.277	665.673
324.212	16.367	869.783	664.857
325.227	16.356	869.793	664.764
326.241	16.420	869.094	664.421
327.256	16.446	868.443	663.968
328.270	16.297	868.050	663.020
329.285	16.489	866.922	662.853
330.300	16.424	866.726	662.391
331.314	16.429	866.172	661.929
332.329	16.546	865.374	661.718
333.343	16.513	865.019	661.258
334.358	16.436	864.752	660.694
335.373	16.602	864.183	660.851
336.387	16.457	863.808	659.939
337.402	16.628	863.418	660.250
338.416	16.695	863.088	660.203
339.431	16.659	862.784	659.770
340.446	16.640	862.523	659.438
341.460	16.693	862.150	659.301
342.475	16.742	861.711	659.096
343.489	16.681	861.287	658.477
344.504	16.708	860.543	657.957
345.519	16.687	860.382	657.693
346.533	16.831	859.388	657.434
347.548	16.794	858.871	656.834
348.562	16.732	858.588	656.320
349.577	16.833	857.974	656.186
350.592	16.844	857.441	655.760
351.606	16.679	856.684	654.488
352.621	16.698	855.898	653.900
353.635	16.845	855.123	653.819
354.650	16.818	854.700	653.332
355.665	16.814	854.042	652.757
356.679	16.950	853.099	652.503
357.694	16.862	853.088	652.096
358.708	16.955	851.982	651.552
359.723	17.000	851.533	651.324
360.738	16.965	851.096	650.798
361.752	16.943	850.131	649.916
362.767	17.082	849.708	650.069
363.781	17.163	848.974	649.761
364.796	17.153	848.520	649.315
365.810	17.209	848.106	649.155
366.825	17.249	847.419	648.727
367.840	17.188	847.570	648.551
368.854	17.168	846.751	647.788
369.869	17.165	846.705	647.688
370.883	17.197	845.873	647.114
371.898	17.263	845.569	647.074
372.913	17.212	845.415	646.706
373.927	17.344	844.704	646.607
374.942	17.292	844.525	646.216
375.956	17.296	844.182	645.910
376.971	17.219	843.434	644.990
377.986	17.392	842.951	645.219
379.000	17.378	842.560	644.810
380.015	17.442	841.855	644.456
381.029	17.497	841.045	643.988
382.044	17.370	840.845	643.297
383.059	17.518	839.875	643.058
384.073	17.430	839.676	642.514
385.088	17.475	838.647	641.841
386.102	17.506	838.172	641.536
387.117	17.445	837.540	640.765
388.132	17.430	836.853	640.129
389.146	17.492	836.606	640.115
390.161	17.523	836.271	639.920
391.175	17.527	835.542	639.318
392.190	17.610	834.891	639.076
393.205	17.580	834.311	638.464
394.219	17.606	834.300	638.496
395.234	17.451	834.168	637.757
396.248	17.527	833.425	637.416
397.263	17.389	833.085	636.585
398.278	17.547	832.447	636.630
399.292	17.697	832.046	636.828
400.307	17.517	831.943	636.022
401.321	17.540	831.208	635.489
402.336	17.602	830.739	635.305
403.350	17.733	830.035	635.200
404.365	17.529	830.320	634.600
405.380	17.546	829.396	633.900
406.394	17.874	828.892	634.679
407.409	17.758	828.366	633.791
408.423	17.805	827.885	633.541
409.438	17.774	827.719	633.241
410.453	17.816	827.306	633.025
411.467	17.922	826.695	632.895
412.482	17.826	826.538	632.362
413.496	17.883	826.139	632.212
414.511	17.999	825.295	631.940
415.526	17.932	825.260	631.612
416.540	17.773	824.861	630.661
417.555	18.060	823.834	630.878
418.569	17.956	823.719	630.352
419.584	17.908	823.613	630.037
420.599	17.926	822.865	629.476
421.613	93.703	1269.589	1381.042
422.628	80.669	1334.693	1381.165
