DTS Sentinel unit serial number:	SN413079Multiplexer serial number:	ORYXHardware model number:	OX4-SRSoftware version number:	ORYX F/W v4.00 Oryx Data Collector v3.7.2.0data status	okinstallation	princeton_trtdifferential loss correction	single-endedforward channel	channel 1reverse channel	N/Adate	2019/09/15time	03:06:35forward acquisition time	60.00reverse acquisition time	0.00gamma	496.2192k internal	0.2324k external	0.2324temperature offset calibration	0.9989default loss term (dB/km)	0.3790temperature slope calibration	1.0000multiplexer offset coefficient	1.0000multiplexer slope coefficient	1.0000fibre end	0.00T internal ref (°C)	31.17T ext. ref 1 (°C)	4.59T ext. ref 2 (°C)	25.77length (m)	temperature (°C)	Stokes	anti-Stokes-747.200	-200.000	0.044	0.205
-746.185	101.736	0.175	0.206
-745.171	-178.196	0.193	-0.005
-744.156	179.103	-0.226	0.334
-743.142	-28.428	-0.306	0.178
-742.127	-39.316	-0.141	0.075
-741.112	156.147	-0.123	-0.171
-740.098	114.045	-0.098	0.121
-739.083	64.412	-0.033	-0.034
-738.069	800.000	-0.067	-0.233
-737.054	219.402	0.222	-0.359
-736.039	-125.657	-0.383	-0.059
-735.025	467.994	0.060	0.137
-734.010	-50.162	-0.459	-0.219
-732.996	162.433	-0.158	-0.224
-731.981	739.997	0.124	0.336
-730.966	36.816	0.078	0.070
-729.952	367.685	-0.050	-0.103
-728.937	61.838	0.059	-0.059
-727.923	-68.163	0.179	0.070
-726.908	358.050	0.089	0.179
-725.894	420.452	-0.061	0.133
-724.879	360.354	0.077	-0.155
-723.864	314.340	0.065	0.123
-722.850	-95.751	0.155	-0.042
-721.835	-49.206	-0.061	-0.030
-720.821	154.551	-0.244	0.338
-719.806	372.944	0.119	-0.245
-718.791	-140.212	-0.292	-0.031
-717.777	21.439	-0.196	0.160
-716.762	-164.533	-0.273	0.012
-715.748	-95.611	0.494	-0.133
-714.733	800.000	-0.084	0.247
-713.718	-97.785	0.208	-0.054
-712.704	112.085	0.144	0.175
-711.689	-82.475	-0.086	0.028
-710.675	800.000	-0.080	-0.267
-709.660	-99.665	0.059	0.015
-708.645	47.938	-0.084	0.079
-707.631	-21.174	-0.163	0.101
-706.616	-53.901	-0.059	-0.027
-705.602	-78.412	0.186	0.064
-704.587	800.000	-0.045	-0.140
-703.572	800.000	-0.100	0.400
-702.558	69.052	-0.116	0.120
-701.543	-200.000	0.038	-0.301
-700.529	-200.000	0.029	-0.141
-699.514	-194.619	-0.152	-0.001
-698.499	279.018	-0.165	-0.296
-697.485	1.489	0.161	0.117
-696.470	50.932	0.063	-0.060
-695.456	292.828	0.092	0.169
-694.441	316.129	0.051	-0.098
-693.426	-200.000	0.002	0.213
-692.412	-34.396	-0.055	-0.030
-691.397	149.975	-0.158	-0.216
-690.383	-111.511	0.179	0.037
-689.368	-200.000	-0.009	0.118
-688.354	-65.231	0.168	0.068
-687.339	-118.987	0.136	0.024
-686.324	131.190	0.094	0.121
-685.310	-200.000	0.012	0.069
-684.295	198.737	0.059	-0.090
-683.281	-80.593	-0.351	0.118
-682.266	-33.670	0.229	-0.127
-681.251	154.031	-0.160	0.221
-680.237	-115.033	-0.405	-0.078
-679.222	415.855	-0.052	0.112
-678.208	-200.000	0.051	-0.252
-677.193	-144.149	-0.113	0.011
-676.178	334.873	-0.091	-0.178
-675.164	13.807	0.060	-0.047
-674.149	259.371	0.122	-0.212
-673.135	754.479	0.042	-0.116
-672.120	-26.158	-0.256	0.152
-671.105	135.858	0.189	-0.248
-670.091	-99.654	-0.341	-0.086
-669.076	800.000	-0.070	-0.264
-668.062	-2.972	0.131	-0.092
-667.047	-12.146	0.072	-0.048
-666.032	-200.000	-0.021	-0.126
-665.018	-200.000	-0.003	0.385
-664.003	156.707	-0.154	0.213
-662.989	-24.846	-0.216	0.129
-661.974	30.724	-0.181	-0.156
-660.959	800.000	0.035	-0.114
-659.945	-76.813	0.366	-0.129
-658.930	59.434	-0.282	-0.280
-657.916	-200.000	-0.007	-0.184
-656.901	-99.154	0.294	0.075
-655.886	-131.877	-0.172	0.023
-654.872	38.431	0.017	-0.015
-653.857	-48.029	0.053	0.026
-652.843	-200.000	0.188	0.001
-651.828	-102.589	0.226	-0.054
-650.814	-200.000	0.008	-0.102
-649.799	-200.000	-0.033	0.335
-648.784	-200.000	-0.011	-0.207
-647.770	10.729	0.146	-0.112
-646.755	-122.528	-0.110	-0.018
-645.741	128.327	0.190	-0.244
-644.726	800.000	0.009	-0.027
-643.711	-86.053	0.168	-0.052
-642.697	170.690	0.133	0.192
-641.682	-54.767	0.059	-0.027
-640.668	-186.358	0.288	-0.004
-639.653	306.779	-0.058	0.109
-638.638	193.840	-0.107	-0.162
-637.624	307.889	0.153	-0.288
-636.609	-94.039	-0.120	-0.033
-635.595	146.561	0.157	-0.212
-634.580	4.226	0.343	0.252
-633.565	-200.000	-0.034	-0.232
-632.551	6.268	-0.312	0.233
-631.536	24.528	0.370	0.308
-630.522	380.166	0.079	-0.164
-629.507	-200.000	0.009	0.219
-628.492	-138.514	-0.128	0.014
-627.478	-200.000	-0.021	-0.167
-626.463	-37.437	0.093	-0.050
-625.449	51.360	0.344	-0.328
-624.434	21.316	-0.213	0.174
-623.419	-85.550	-0.305	0.095
-622.405	800.000	-0.047	-0.190
-621.390	800.000	0.013	-0.042
-620.376	-20.941	0.358	0.220
-619.361	-49.592	-0.225	0.108
-618.346	800.000	0.046	-0.146
-617.332	-76.587	-0.125	-0.044
-616.317	-200.000	0.014	-0.159
-615.303	-147.426	-0.085	-0.007
-614.288	96.258	0.037	0.042
-613.273	-200.000	-0.030	-0.158
-612.259	268.551	0.119	0.210
-611.244	-75.394	-0.160	0.057
-610.230	-50.771	-0.190	0.090
-609.215	-90.969	-0.063	-0.018
-608.201	800.000	0.025	0.073
-607.186	-200.000	-0.035	-0.328
-606.171	800.000	-0.068	-0.232
-605.157	-138.306	0.218	0.024
-604.142	72.575	-0.113	0.118
-603.128	-87.858	-0.121	0.036
-602.113	-96.886	0.280	-0.074
-601.098	329.307	-0.062	-0.120
-600.084	-200.000	-0.016	0.101
-599.069	168.073	-0.174	0.249
-598.055	58.365	0.132	-0.130
-597.040	-200.000	-0.020	0.269
-596.025	96.468	-0.119	0.136
-595.011	26.971	0.063	0.053
-593.996	-200.000	0.020	0.225
-592.982	95.806	-0.231	-0.265
-591.967	-82.645	-0.345	-0.112
-590.952	800.000	-0.066	-0.205
-589.938	-13.397	0.305	-0.199
-588.923	-200.000	-0.006	-0.178
-587.909	412.777	0.182	-0.388
-586.894	239.302	0.109	0.181
-585.879	292.422	0.150	-0.275
-584.865	800.000	0.058	-0.195
-583.850	101.169	0.167	-0.195
-582.836	420.895	0.090	-0.194
-581.821	-14.607	-0.147	0.094
-580.806	23.436	0.124	0.103
-579.792	-42.792	-0.262	0.133
-578.777	-158.052	-0.305	0.018
-577.763	-182.879	-0.042	-0.001
-576.748	137.032	-0.059	0.078
-575.733	23.982	0.077	0.064
-574.719	348.781	-0.021	0.042
-573.704	273.906	0.086	0.153
-572.690	718.516	-0.062	0.165
-571.675	-82.426	-0.194	-0.063
-570.661	130.410	-0.156	-0.201
-569.646	-4.769	-0.194	-0.134
-568.631	-190.950	-0.171	0.002
-567.617	20.726	0.086	-0.070
-566.602	-134.215	0.282	0.035
-565.588	142.407	-0.173	0.231
-564.573	-131.736	-0.129	0.017
-563.558	-137.578	0.395	-0.045
-562.544	-200.000	0.026	0.203
-561.529	70.517	-0.341	0.353
-560.515	-15.579	-0.111	-0.071
-559.500	3.570	0.140	-0.102
-558.485	-44.305	-0.172	0.086
-557.471	-38.347	-0.295	0.157
-556.456	-200.000	0.016	0.274
-555.442	20.830	-0.196	-0.159
-554.427	40.550	0.044	0.040
-553.412	-62.177	0.093	-0.039
-552.398	-200.000	-0.010	-0.055
-551.383	229.988	-0.190	-0.311
-550.369	377.800	0.172	-0.353
-549.354	-200.000	-0.023	-0.108
-548.339	191.484	-0.038	-0.058
-547.325	112.048	-0.130	0.158
-546.310	15.446	-0.190	0.149
-545.296	-50.680	-0.134	-0.063
-544.281	-180.173	0.330	-0.007
-543.266	-139.766	0.300	0.032
-542.252	-200.000	-0.001	0.023
-541.237	-200.000	0.022	-0.189
-540.223	16.275	-0.132	0.104
-539.208	-200.000	0.024	-0.377
-538.193	16.675	-0.169	0.133
-537.179	365.080	-0.072	-0.145
-536.164	-26.376	0.238	0.140
-535.150	-194.889	-0.137	-0.001
-534.135	800.000	-0.011	-0.043
-533.121	-10.537	0.399	0.265
-532.106	-26.539	-0.117	-0.068
-531.091	44.951	-0.283	-0.261
-530.077	-200.000	-0.004	-0.132
-529.062	10.638	-0.274	-0.209
-528.048	-58.630	-0.219	-0.095
-527.033	38.575	0.281	0.251
-526.018	-1.044	0.033	0.023
-525.004	265.965	-0.088	0.154
-523.989	-82.520	0.099	-0.032
-522.975	-200.000	0.019	0.088
-521.960	238.257	0.019	-0.031
-520.945	-12.680	-0.187	0.122
-519.931	800.000	0.052	0.221
-518.916	165.134	0.185	-0.261
-517.902	292.637	-0.062	0.112
-516.887	739.393	-0.043	-0.116
-515.872	486.067	0.130	-0.296
-514.858	-120.251	0.099	0.017
-513.843	-32.486	-0.222	-0.124
-512.829	-200.000	-0.027	-0.197
-511.814	159.895	0.200	-0.279
-510.799	132.616	-0.191	-0.246
-509.785	-40.051	0.273	-0.142
-508.770	32.585	-0.371	0.321
-507.756	-157.040	0.283	0.017
-506.741	-114.118	0.180	0.035
-505.726	-92.969	-0.505	-0.141
-504.712	-53.690	0.429	-0.196
-503.697	-113.271	-0.201	0.040
-502.683	331.507	0.100	0.192
-501.668	800.000	0.111	0.447
-500.653	74.453	0.183	0.193
-499.639	315.607	0.108	0.203
-498.624	330.766	-0.101	0.196
-497.610	-200.000	-0.014	0.357
-496.595	-115.853	0.308	0.058
-495.581	-94.157	0.149	0.041
-494.566	161.310	0.112	0.157
-493.551	-49.231	-0.213	-0.102
-492.537	612.547	-0.134	0.335
-491.522	600.064	-0.029	0.071
-490.508	215.546	0.127	-0.202
-489.493	-200.000	-0.016	0.144
-488.478	-200.000	0.063	0.289
-487.464	35.650	0.133	0.116
-486.449	-200.000	0.052	-0.263
-485.435	2.720	-0.164	-0.119
-484.420	800.000	0.039	0.161
-483.405	-173.763	-0.026	0.001
-482.391	-5.950	0.324	-0.222
-481.376	-200.000	0.028	-0.211
-480.362	-200.000	-0.064	-0.365
-479.347	208.143	0.021	0.033
-478.332	-26.962	-0.053	-0.031
-477.318	329.615	-0.067	0.128
-476.303	285.732	-0.081	-0.146
-475.289	349.561	0.005	-0.010
-474.274	800.000	0.050	-0.162
-473.259	-200.000	0.016	0.143
-472.245	-146.716	0.098	-0.008
-471.230	-3.863	-0.142	0.099
-470.216	-64.799	0.442	-0.179
-469.201	7.141	-0.067	0.050
-468.186	572.517	-0.113	-0.275
-467.172	800.000	0.088	-0.329
-466.157	-141.384	-0.346	0.035
-465.143	73.823	-0.127	0.133
-464.128	13.142	-0.116	0.090
-463.113	572.791	-0.020	-0.048
-462.099	-166.237	0.214	0.009
-461.084	-200.000	0.077	0.475
-460.070	-200.000	-0.030	0.194
-459.055	34.125	-0.055	-0.048
-458.040	-26.986	0.246	-0.143
-457.026	541.473	0.056	-0.134
-456.011	-191.971	-0.125	-0.001
-454.997	-200.000	-0.021	-0.102
-453.982	27.053	-0.140	-0.117
-452.968	-200.000	-0.050	-0.291
-451.953	-200.000	-0.011	-0.055
-450.938	-70.344	0.032	0.012
-449.924	-200.000	0.003	-0.123
-448.909	-105.148	-0.432	-0.098
-447.895	800.000	-0.096	0.292
-446.880	124.286	-0.034	-0.042
-445.865	-116.225	-0.190	-0.035
-444.851	197.169	-0.151	0.230
-443.836	-200.000	-0.022	0.219
-442.822	5.449	-0.375	-0.276
-441.807	-200.000	0.014	-0.228
-440.792	-13.198	0.252	-0.164
-439.778	486.563	-0.100	0.229
-438.763	-200.000	-0.071	-0.404
-437.749	98.684	0.069	-0.080
-436.734	800.000	0.026	0.107
-435.719	800.000	-0.080	0.251
-434.705	-176.991	0.167	0.004
-433.690	-200.000	-0.019	0.108
-432.676	-200.000	0.012	0.297
-431.661	25.866	0.163	-0.135
-430.646	-98.766	0.188	-0.048
-429.632	468.356	0.061	0.137
-428.617	-84.732	0.201	-0.063
-427.603	-68.717	0.218	-0.084
-426.588	-120.042	-0.844	-0.144
-425.573	-200.000	-0.311	0.000
-424.559	-157.680	0.275	0.016
-423.544	275.275	0.162	0.287
-422.530	65.437	0.173	0.174
-421.515	-200.000	-0.014	0.178
-420.500	800.000	0.057	-0.244
-419.486	-200.000	-0.071	-0.336
-418.471	-200.000	0.054	-0.321
-417.457	-200.000	-0.062	-0.313
-416.442	63.296	-0.222	-0.221
-415.428	15.804	0.023	0.018
-414.413	800.000	0.048	-0.208
-413.398	23.756	-0.071	-0.059
-412.384	-41.686	0.249	0.127
-411.369	-39.636	0.353	0.184
-410.355	-200.000	0.006	-0.163
-409.340	800.000	0.046	-0.133
-408.325	679.446	0.022	0.057
-407.311	-89.172	-0.226	-0.067
-406.296	173.169	0.131	0.188
-405.282	87.414	0.135	0.149
-404.267	-200.000	-0.002	0.194
-403.252	-147.591	-0.150	0.013
-402.238	423.164	-0.112	-0.240
-401.223	-92.032	-0.412	-0.116
-400.209	274.701	0.163	-0.288
-399.194	-48.751	0.128	-0.061
-398.179	800.000	0.021	0.090
-397.165	742.900	0.146	0.392
-396.150	-200.000	0.002	0.173
-395.136	-200.000	-0.029	0.192
-394.121	762.397	0.083	-0.225
-393.106	-200.000	-0.009	0.190
-392.092	737.075	0.087	0.232
-391.077	15.439	0.369	-0.288
-390.063	800.000	0.096	0.303
-389.048	-184.514	-0.385	0.006
-388.033	800.000	-0.026	0.074
-387.019	252.637	0.107	-0.182
-386.004	-42.395	0.103	-0.052
-384.990	-200.000	-0.004	0.128
-383.975	-66.441	-0.018	-0.007
-382.960	632.405	0.086	-0.217
-381.946	190.201	-0.061	-0.091
-380.931	800.000	0.039	-0.126
-379.917	93.103	-0.127	0.143
-378.902	196.124	-0.126	-0.192
-377.888	-122.718	-0.293	0.047
-376.873	131.126	-0.051	-0.065
-375.858	-60.589	-0.114	0.048
-374.844	-50.243	-0.040	-0.019
-373.829	-155.926	-0.237	-0.015
-372.815	-171.313	0.258	0.009
-371.800	-141.860	-0.158	0.016
-370.785	189.083	-0.126	-0.188
-369.771	33.575	-0.191	-0.165
-368.756	-107.536	0.172	0.038
-367.742	-200.000	0.057	0.466
-366.727	45.950	-0.183	0.169
-365.712	-106.145	0.109	-0.024
-364.698	184.061	0.053	0.078
-363.683	-200.000	0.005	0.069
-362.669	8.810	-0.358	0.268
-361.654	-136.133	0.278	-0.032
-360.639	-42.829	0.348	0.176
-359.625	-56.866	0.099	-0.044
-358.610	-134.551	-0.094	-0.011
-357.596	-200.000	-0.032	0.285
-356.581	-200.000	0.007	0.190
-355.566	-120.769	0.304	-0.051
-354.552	244.906	0.101	0.169
-353.537	-20.636	0.090	0.055
-352.523	39.922	0.272	0.242
-351.508	-200.000	-0.053	-0.317
-350.493	-49.147	0.127	0.060
-349.479	64.084	-0.245	0.245
-348.464	-200.000	-0.159	0.000
-347.450	-108.883	0.372	0.079
-346.435	-112.062	-0.133	0.027
-345.420	-137.628	-0.167	-0.019
-344.406	800.000	-0.039	0.153
-343.391	-12.097	-0.182	-0.119
-342.377	524.777	-0.145	-0.340
-341.362	800.000	-0.021	0.066
-340.348	26.124	0.167	0.139
-339.333	457.629	0.120	0.264
-338.318	-30.222	-0.319	-0.180
-337.304	800.000	0.104	0.296
-336.289	-90.838	0.711	-0.203
-335.275	800.000	-0.060	0.221
-334.260	-16.347	-0.074	0.047
-333.245	-200.000	-0.032	0.212
-332.231	-67.890	-0.192	-0.075
-331.216	-31.583	0.269	-0.150
-330.202	-200.000	0.091	0.638
-329.187	-200.000	-0.006	-0.471
-328.172	3.812	-0.054	-0.039
-327.158	386.576	-0.048	-0.099
-326.143	326.683	0.015	0.029
-325.129	800.000	0.077	-0.291
-324.114	-51.857	0.080	-0.037
-323.099	-13.930	0.208	0.133
-322.085	-74.339	0.264	-0.095
-321.070	74.965	-0.181	-0.189
-320.056	234.446	-0.052	-0.084
-319.041	-95.704	-0.090	0.024
-318.026	447.985	-0.140	0.307
-317.012	774.492	0.037	0.099
-315.997	-200.000	0.017	-0.081
-314.983	-111.143	-0.110	-0.022
-313.968	-200.000	-0.001	-0.241
-312.953	800.000	0.026	0.082
-311.939	-200.000	0.031	-0.403
-310.924	-3.573	-0.099	0.069
-309.910	-142.774	-0.234	-0.023
-308.895	-51.733	0.332	0.153
-307.880	-105.617	-0.097	0.022
-306.866	-121.291	-0.084	0.014
-305.851	-29.388	-0.216	-0.123
-304.837	83.554	0.274	-0.297
-303.822	693.701	-0.016	-0.041
-302.807	-106.081	0.276	0.062
-301.793	800.000	0.029	0.108
-300.778	-200.000	0.041	0.188
-299.764	-77.861	0.085	0.029
-298.749	112.799	0.175	0.211
-297.735	101.036	-0.099	0.114
-296.720	-190.757	0.281	-0.003
-295.705	24.800	-0.210	-0.173
-294.691	-52.220	0.272	0.125
-293.676	635.316	0.089	0.224
-292.662	-129.742	-0.175	-0.024
-291.647	557.477	0.102	0.244
-290.632	800.000	-0.043	0.141
-289.618	-89.873	0.274	0.079
-288.603	-15.222	-0.162	0.103
-287.589	-12.536	0.315	-0.204
-286.574	-15.150	-0.090	-0.057
-285.559	-200.000	0.031	0.187
-284.545	214.748	-0.089	-0.140
-283.530	-122.915	-0.132	0.021
-282.516	6.343	0.083	0.061
-281.501	-33.973	0.097	-0.053
-280.486	-27.613	-0.259	-0.149
-279.472	8.767	-0.116	-0.087
-278.457	104.293	0.081	0.094
-277.443	2.987	0.119	0.086
-276.428	-90.748	-0.168	-0.048
-275.413	-29.181	-0.363	0.206
-274.399	-76.083	-0.379	0.133
-273.384	-16.084	0.089	-0.056
-272.370	-154.941	0.159	-0.010
-271.355	-29.284	-0.237	0.135
-270.340	-81.733	0.055	-0.018
-269.326	145.130	0.198	-0.262
-268.311	-184.633	-0.029	0.000
-267.297	254.644	-0.094	-0.159
-266.282	6.154	0.128	-0.094
-265.267	759.449	-0.062	0.168
-264.253	58.991	0.278	0.271
-263.238	-102.689	0.004	-0.001
-262.224	195.046	0.155	0.233
-261.209	800.000	-0.035	0.118
-260.195	-82.713	-0.168	-0.054
-259.180	-123.849	0.085	0.013
-258.165	-107.248	0.227	0.049
-257.151	-200.000	-0.060	-0.301
-256.136	261.057	0.144	0.247
-255.122	-200.000	-0.012	0.146
-254.107	223.108	-0.052	0.084
-253.092	-114.316	0.270	-0.051
-252.078	2.453	0.145	-0.104
-251.063	-134.386	-0.277	-0.034
-250.049	-200.000	0.016	-0.428
-249.034	-98.788	-0.139	0.035
-248.019	-200.000	-0.049	0.222
-247.005	-76.783	-0.379	0.131
-245.990	186.415	-0.080	-0.118
-244.976	364.729	0.139	0.276
-243.961	53.832	-0.240	-0.228
-242.946	-37.825	0.258	-0.136
-241.932	640.122	-0.157	-0.395
-240.917	136.361	-0.112	0.145
-239.903	-68.249	0.224	0.086
-238.888	-10.164	0.317	-0.208
-237.873	-141.043	-0.107	-0.011
-236.859	-87.231	-0.235	0.071
-235.844	-200.000	-0.018	-0.220
-234.830	-15.129	-0.050	0.032
-233.815	68.230	0.290	0.294
-232.800	91.192	-0.207	0.229
-231.786	-108.887	0.195	0.041
-230.771	166.239	0.131	0.184
-229.757	-115.306	0.064	0.012
-228.742	-200.000	0.008	-0.084
-227.727	-200.000	0.025	-0.137
-226.713	51.195	0.262	0.246
-225.698	76.861	0.185	0.194
-224.684	107.634	0.025	0.030
-223.669	-138.941	-0.207	-0.022
-222.655	-11.461	0.073	-0.047
-221.640	340.805	0.131	0.254
-220.625	-110.070	-0.205	0.042
-219.611	-190.891	0.087	0.001
-218.596	-115.684	0.240	-0.044
-217.582	71.684	0.076	0.078
-216.567	2.214	-0.074	0.053
-215.552	-87.855	-0.117	-0.035
-214.538	249.256	0.120	0.201
-213.523	502.632	-0.117	-0.266
-212.509	800.000	0.065	-0.187
-211.494	549.017	0.139	0.328
-210.479	-134.599	0.210	-0.025
-209.465	203.230	-0.221	0.338
-208.450	-130.432	0.122	0.016
-207.436	-88.101	0.144	-0.043
-206.421	62.840	-0.152	0.150
-205.406	7.810	-0.093	-0.069
-204.392	800.000	0.057	-0.203
-203.377	-97.226	-0.216	-0.056
-202.363	23.905	-0.154	0.126
-201.348	-200.000	0.001	-0.006
-200.333	101.792	0.209	-0.241
-199.319	5.315	-0.022	0.016
-198.304	-200.000	-0.023	0.293
-197.290	-154.461	-0.315	0.021
-196.275	-200.000	-0.001	-0.101
-195.260	-40.962	0.171	-0.087
-194.246	90.058	0.147	0.162
-193.231	-28.555	0.126	0.072
-192.217	-197.960	-0.174	0.001
-191.202	-200.000	-0.033	-0.202
-190.187	-200.000	-0.036	-0.253
-189.173	470.522	-0.050	-0.112
-188.158	41.182	0.155	0.138
-187.144	-165.467	0.321	0.014
-186.129	98.122	-0.174	-0.198
-185.114	-183.056	0.314	0.006
-184.100	-111.867	-0.371	0.074
-183.085	-200.000	0.019	0.262
-182.071	87.519	0.130	-0.142
-181.056	-80.764	-0.222	-0.073
-180.042	-182.218	-0.297	0.005
-179.027	53.065	0.315	-0.297
-178.012	129.340	-0.142	-0.180
-176.998	-125.697	-0.316	0.047
-175.983	42.795	-0.061	0.055
-174.969	-87.693	0.231	-0.069
-173.954	-91.384	-0.233	-0.066
-172.939	-37.399	-0.030	0.016
-171.925	1.252	0.223	0.158
-170.910	-77.720	-0.289	0.099
-169.896	800.000	-0.044	0.150
-168.881	58.376	-0.169	-0.163
-167.866	-136.293	0.192	0.022
-166.852	33.283	-0.374	-0.320
-165.837	572.961	-0.007	-0.018
-164.823	374.484	-0.136	0.273
-163.808	-42.735	0.251	-0.126
-162.793	-194.163	-0.554	0.004
-161.779	-98.827	-0.400	-0.100
-160.764	-26.821	0.099	-0.057
-159.750	41.578	-0.173	0.155
-158.735	329.698	0.212	0.403
-157.720	399.350	-0.022	-0.045
-156.706	64.471	-0.158	-0.157
-155.691	-100.281	0.232	0.057
-154.677	-27.270	0.085	0.049
-153.662	43.329	-0.099	-0.089
-152.647	-1.243	0.274	-0.191
-151.633	367.553	-0.172	-0.343
-150.618	-200.000	0.032	-0.223
-149.604	-200.000	-0.102	-0.534
-148.589	-50.198	-0.257	-0.120
-147.574	189.116	0.050	-0.074
-146.560	800.000	0.074	-0.251
-145.545	-200.000	-0.012	0.297
-144.531	111.295	0.150	-0.178
-143.516	-177.084	0.349	0.009
-142.502	98.779	-0.165	-0.187
-141.487	-163.523	-0.432	0.020
-140.472	31.368	-0.193	0.163
-139.458	-21.999	0.147	-0.088
-138.443	-200.000	0.019	-0.449
-137.429	-27.284	0.339	-0.194
-136.414	142.781	-0.153	0.201
-135.399	76.776	-0.132	-0.138
-134.385	-59.351	-0.356	-0.151
-133.370	-71.820	0.107	-0.039
-132.356	77.958	0.231	0.243
-131.341	-15.507	0.190	-0.120
-130.326	-29.367	0.018	-0.010
-129.312	15.071	-0.124	-0.096
-128.297	-126.297	0.199	-0.029
-127.283	-200.000	-0.008	-0.321
-126.268	800.000	0.093	-0.290
-125.253	99.902	0.037	0.042
-124.239	-200.000	0.014	0.157
-123.224	293.755	0.055	0.098
-122.210	332.553	-0.034	0.064
-121.195	-89.066	0.299	-0.087
-120.180	-200.000	-0.017	-0.278
-119.166	88.198	0.153	0.167
-118.151	37.829	0.312	-0.273
-117.137	125.043	-0.111	-0.138
-116.122	26.877	0.022	0.018
-115.107	-127.066	-0.144	0.021
-114.093	800.000	0.025	-0.089
-113.078	14.210	-0.102	0.079
-112.064	167.940	0.038	0.053
-111.049	-103.164	-0.506	0.118
-110.034	-200.000	0.037	-0.355
-109.020	-200.000	0.031	-0.204
-108.005	-15.275	-0.227	0.143
-106.991	800.000	0.063	-0.210
-105.976	221.353	0.071	0.112
-104.962	-132.303	0.357	0.045
-103.947	-39.341	-0.101	-0.052
-102.932	285.852	0.144	0.256
-101.918	538.739	0.052	0.122
-100.903	-200.000	0.029	0.128
-99.889	166.526	-0.177	-0.247
-98.874	161.031	0.098	0.134
-97.859	-200.000	0.005	0.155
-96.845	107.524	-0.140	0.163
-95.830	456.401	-0.215	-0.469
-94.816	800.000	-0.104	0.378
-93.801	-9.154	-0.097	-0.064
-92.786	-127.695	0.133	0.019
-91.772	-83.879	-0.153	0.048
-90.757	-133.618	0.326	0.040
-89.743	485.572	-0.119	0.267
-88.728	-117.859	0.386	-0.068
-87.713	800.000	0.086	-0.268
-86.699	284.038	-0.030	-0.054
-85.684	-200.000	-0.037	0.234
-84.670	76.583	-0.116	0.121
-83.655	374.381	0.062	0.124
-82.640	-41.616	0.281	0.142
-81.626	47.086	-0.107	-0.098
-80.611	-200.000	0.027	0.241
-79.597	152.535	-0.108	0.145
-78.582	800.000	-0.026	-0.097
-77.567	-98.186	0.209	0.053
-76.553	-98.994	-0.310	-0.077
-75.538	-106.657	0.219	0.048
-74.524	352.672	-0.122	-0.238
-73.509	132.465	0.054	-0.069
-72.494	-200.000	0.035	-0.356
-71.480	54.424	0.270	-0.256
-70.465	116.344	0.166	-0.200
-69.451	-39.161	-0.218	0.113
-68.436	-70.310	0.153	0.057
-67.422	-92.611	0.130	0.036
-66.407	722.857	-0.117	-0.306
-65.392	4.665	0.138	-0.100
-64.378	-200.000	0.044	0.331
-63.363	646.006	-0.085	0.213
-62.349	215.808	-0.125	0.195
-61.334	117.255	-0.793	-0.958
-60.319	21.860	0.417	0.334
-59.305	-200.000	-0.226	-1.051
-58.290	183.146	0.569	0.826
-57.276	800.000	0.555	1.540
-56.261	-200.000	100.653	600.780
-55.246	586.497	1408.389	3404.654
-54.232	192.882	2589.070	3843.625
-53.217	118.788	2139.941	2597.542
-52.203	43.352	1593.518	1430.369
-51.188	34.808	1329.581	1142.615
-50.173	31.556	1287.804	1087.797
-49.159	54.176	1337.769	1264.551
-48.144	56.221	1354.428	1292.357
-47.130	34.812	1311.426	1126.854
-46.115	31.329	1293.919	1091.463
-45.100	31.204	1288.415	1086.046
-44.086	31.083	1286.480	1083.671
-43.071	31.057	1284.085	1081.463
-42.057	31.019	1282.161	1079.577
-41.042	31.094	1280.163	1078.286
-40.027	31.126	1278.995	1077.445
-39.013	31.137	1276.615	1075.463
-37.998	31.124	1275.199	1074.150
-36.984	31.223	1273.570	1073.302
-35.969	31.206	1271.709	1071.596
-34.954	31.168	1270.212	1070.075
-33.940	31.209	1269.181	1069.396
-32.925	31.139	1267.659	1067.673
-31.911	31.306	1266.271	1067.415
-30.896	31.394	1264.685	1066.539
-29.881	31.284	1263.529	1064.892
-28.867	31.392	1261.817	1064.022
-27.852	31.251	1260.821	1062.337
-26.838	31.317	1259.365	1061.449
-25.823	31.395	1257.339	1060.139
-24.809	31.241	1256.622	1058.621
-23.794	31.194	1255.590	1057.443
-22.779	31.165	1254.323	1056.170
-21.765	31.346	1252.487	1055.605
-20.750	31.070	1251.632	1053.280
-19.736	31.116	1250.305	1052.385
-18.721	31.167	1249.030	1051.556
-17.706	31.105	1248.322	1050.567
-16.692	31.050	1246.803	1048.940
-15.677	31.071	1245.460	1047.887
-14.663	31.102	1244.491	1047.203
-13.648	31.166	1242.923	1046.204
-12.633	31.045	1242.245	1044.913
-11.619	31.132	1241.518	1044.744
-10.604	31.160	1240.527	1044.028
-9.590	31.009	1239.833	1042.555
-8.575	31.057	1239.021	1042.100
-7.560	30.996	1237.981	1040.845
-6.546	31.160	1237.028	1040.917
-5.531	31.165	1235.862	1039.922
-4.517	31.059	1235.419	1038.915
-3.502	31.190	1234.154	1038.541
-2.487	31.193	1233.467	1037.939
-1.473	31.110	1229.363	1033.983
-0.458	29.618	1214.446	1013.223
0.556	24.807	1197.693	975.691
1.571	21.226	1202.511	959.884
2.586	20.293	1217.049	966.212
3.600	19.869	1205.818	954.871
4.615	15.173	1136.422	875.359
5.629	7.809	1064.569	783.773
6.644	4.842	1045.499	755.292
7.659	4.453	1042.985	751.527
8.673	4.560	1041.961	751.243
9.688	4.486	1040.521	749.777
10.702	4.674	1038.340	749.045
11.717	8.716	1044.104	772.676
12.731	15.629	1053.895	813.420
13.746	18.551	1056.400	829.435
14.761	18.035	1055.291	826.002
15.775	16.864	1053.319	818.732
16.790	15.862	1051.000	812.026
17.804	15.102	1049.534	807.157
18.819	14.829	1048.507	804.982
19.834	14.598	1047.776	803.236
20.848	14.358	1046.671	801.166
21.863	14.146	1045.870	799.461
22.877	14.024	1045.257	798.335
23.892	13.938	1044.890	797.574
24.907	14.074	1043.949	797.436
25.921	14.048	1043.036	796.544
26.936	14.169	1041.368	795.777
27.950	13.980	1040.418	794.078
28.965	14.154	1038.658	793.495
29.980	14.331	1037.067	793.053
30.994	14.322	1036.135	792.227
32.009	14.257	1035.194	791.127
33.023	14.239	1034.043	790.092
34.038	14.233	1032.949	789.157
35.053	14.130	1031.789	787.716
36.067	13.984	1031.701	786.886
37.082	14.171	1030.593	786.857
38.096	14.236	1029.862	786.536
39.111	14.304	1028.867	786.030
40.126	14.108	1027.816	784.230
41.140	13.885	1026.501	782.109
42.155	13.910	1025.149	781.129
43.169	13.828	1024.678	780.314
44.184	13.932	1023.377	779.741
45.199	13.810	1022.639	778.540
46.213	14.077	1021.193	778.620
47.228	14.031	1020.574	777.863
48.242	14.120	1019.163	777.134
49.257	14.099	1018.232	776.256
50.271	14.051	1017.708	775.565
51.286	14.200	1016.506	775.275
52.301	14.169	1015.762	774.495
53.315	14.022	1014.996	773.159
54.330	14.055	1013.443	772.060
55.344	14.031	1012.609	771.247
56.359	14.045	1012.253	770.972
57.374	14.066	1010.612	769.749
58.388	14.024	1009.786	768.859
59.403	13.848	1009.408	767.690
60.417	13.973	1008.441	767.462
61.432	13.893	1007.851	766.577
62.447	13.828	1007.392	765.860
63.461	13.730	1006.184	764.424
64.476	13.761	1005.566	764.029
65.490	13.844	1004.331	763.401
66.505	13.778	1003.977	762.763
67.520	13.750	1003.472	762.184
68.534	13.900	1002.329	761.937
69.549	13.938	1001.781	761.629
70.563	13.889	1001.050	760.779
71.578	13.839	1000.110	759.768
72.593	13.611	999.735	758.373
73.607	13.587	999.243	757.821
74.622	13.654	998.579	757.556
75.636	13.663	998.003	757.094
76.651	13.708	997.209	756.633
77.666	13.836	996.449	756.572
78.680	13.760	995.921	755.757
79.695	13.788	995.060	755.164
80.709	13.720	994.859	754.635
81.724	13.926	993.884	754.765
82.739	14.000	993.157	754.483
83.753	14.137	992.392	754.455
84.768	14.356	991.245	754.511
85.782	14.212	990.928	753.548
86.797	14.240	989.869	752.803
87.812	13.986	989.367	751.209
88.826	14.048	988.413	750.695
89.841	14.207	987.208	750.433
90.855	14.279	986.178	749.906
91.870	14.311	985.656	749.587
92.884	14.163	985.271	748.563
93.899	14.210	984.196	747.890
94.914	14.411	982.927	747.761
95.928	14.391	982.184	747.041
96.943	14.303	981.266	745.884
97.957	14.122	981.009	744.811
98.972	14.203	979.884	744.253
99.987	14.203	979.055	743.557
101.001	14.190	978.387	742.928
102.016	14.127	977.597	741.982
103.030	14.220	976.304	741.347
104.045	14.297	975.861	741.291
105.060	14.155	974.957	739.907
106.074	14.027	973.731	738.339
107.089	13.919	972.846	737.123
108.103	13.874	972.101	736.298
109.118	13.959	970.771	735.600
110.133	13.934	970.531	735.240
111.147	13.714	969.920	733.742
112.162	13.944	968.697	733.769
113.176	14.051	968.082	733.709
114.191	13.990	967.223	732.723
115.206	13.957	966.770	732.172
116.220	13.950	965.747	731.299
117.235	14.087	964.702	731.046
118.249	13.990	963.952	729.988
119.264	13.901	963.589	729.255
120.279	14.045	962.540	729.030
121.293	13.950	961.371	727.662
122.308	13.842	960.574	726.523
123.322	13.842	959.968	726.002
124.337	13.840	959.205	725.351
125.352	13.866	958.033	724.515
126.366	13.860	956.995	723.637
127.381	14.073	955.645	723.483
128.395	13.937	954.800	722.188
129.410	13.862	954.128	721.290
130.424	13.967	953.214	720.988
131.439	13.946	952.959	720.643
132.454	14.103	951.724	720.325
133.468	14.081	951.087	719.684
134.483	13.987	950.461	718.738
135.497	14.160	949.360	718.589
136.512	14.037	948.807	717.578
137.527	14.211	947.780	717.487
138.541	14.132	947.387	716.784
139.556	14.179	946.541	716.285
140.570	14.155	946.028	715.728
141.585	14.312	945.225	715.732
142.600	14.253	944.418	714.805
143.614	14.328	943.754	714.561
144.629	14.413	942.450	713.874
145.643	14.427	941.657	713.273
146.658	14.313	940.371	711.747
147.673	14.203	939.873	710.837
148.687	14.124	938.957	709.742
149.702	14.092	938.159	708.943
150.716	14.004	937.403	707.933
151.731	14.229	936.415	708.082
152.746	14.156	935.829	707.266
153.760	14.250	935.322	707.219
154.775	14.226	935.381	707.101
155.789	14.322	934.515	706.787
156.804	14.224	933.986	705.912
157.819	14.501	932.397	705.820
158.833	14.322	932.326	704.946
159.848	14.363	931.785	704.647
160.862	14.343	930.968	703.883
161.877	14.276	929.283	702.267
162.892	14.180	928.626	701.301
163.906	14.237	927.249	700.440
164.921	14.210	927.044	700.108
165.935	14.220	926.371	699.583
166.950	14.315	925.285	699.100
167.964	14.329	924.692	698.645
168.979	14.271	923.445	697.402
169.994	14.266	922.784	696.816
171.008	14.304	922.462	696.672
172.023	14.465	921.787	696.773
173.037	14.317	921.118	695.588
174.052	14.362	920.112	694.953
175.067	14.294	919.647	694.257
176.081	14.304	919.167	693.878
177.096	14.291	918.651	693.373
178.110	14.337	917.949	692.973
179.125	14.244	917.182	691.946
180.140	14.374	916.446	691.870
181.154	14.533	916.400	692.432
182.169	14.393	916.013	691.496
183.183	14.640	915.260	691.890
184.198	14.682	914.260	691.250
185.213	14.557	913.752	690.287
186.227	14.583	913.401	690.066
187.242	14.704	912.457	689.793
188.256	14.788	911.738	689.534
189.271	14.725	910.613	688.363
190.286	14.529	910.020	687.046
191.300	14.399	909.328	685.931
192.315	14.320	908.754	685.109
193.329	14.334	908.667	685.040
194.344	14.378	907.849	684.545
195.359	14.419	907.295	684.234
196.373	14.672	906.652	684.727
197.388	14.832	905.955	684.797
198.402	14.882	905.404	684.523
199.417	14.914	905.146	684.398
200.432	14.914	904.423	683.791
201.446	14.895	904.377	683.620
202.461	14.863	903.955	683.107
203.475	15.077	902.600	682.899
204.490	14.953	902.059	681.920
205.504	14.686	901.775	680.560
206.519	14.745	900.714	679.938
207.534	14.831	899.518	679.327
208.548	14.953	899.059	679.411
209.563	14.688	898.966	678.207
210.577	14.729	898.364	677.857
211.592	14.870	897.409	677.648
212.607	14.977	896.449	677.298
213.621	15.037	895.967	677.118
214.636	14.989	895.362	676.408
215.650	15.003	894.518	675.767
216.665	15.054	893.794	675.365
217.680	15.149	892.978	675.072
218.694	15.112	892.620	674.594
219.709	15.057	892.290	674.062
220.723	15.111	891.114	673.330
221.738	15.068	890.478	672.616
222.753	15.196	889.560	672.378
223.767	15.165	889.433	672.096
224.782	15.370	888.729	672.327
225.796	15.267	888.164	671.430
226.811	15.206	887.753	670.814
227.826	15.085	887.022	669.719
228.840	15.146	886.065	669.182
229.855	15.175	885.364	668.706
230.869	15.043	884.751	667.661
231.884	15.144	883.846	667.320
232.899	15.293	882.868	667.117
233.913	15.110	882.701	666.202
234.928	14.970	882.093	665.129
235.942	15.012	881.520	664.802
236.957	15.128	880.647	664.546
237.972	15.085	880.539	664.237
238.986	15.122	880.101	663.991
240.001	15.020	879.154	662.816
241.015	15.183	878.421	662.849
242.030	15.238	877.744	662.497
243.045	15.219	877.806	662.408
244.059	15.293	876.833	661.908
245.074	15.233	876.386	661.278
246.088	15.466	875.359	661.361
247.103	15.430	874.672	660.641
248.117	15.443	874.614	660.591
249.132	15.585	874.392	660.924
250.147	15.805	873.409	660.987
251.161	15.658	872.872	659.943
252.176	15.788	872.431	660.063
253.190	15.679	871.520	658.886
254.205	15.836	870.734	658.849
255.220	15.814	869.911	658.083
256.234	15.796	869.416	657.580
257.249	15.856	868.850	657.328
258.263	15.839	868.158	656.679
259.278	15.865	867.440	656.180
260.293	15.829	867.196	655.796
261.307	15.903	866.562	655.548
262.322	15.904	865.861	654.963
263.336	15.889	865.153	654.313
264.351	15.966	864.560	654.103
265.366	15.867	863.945	653.195
266.380	15.889	863.141	652.615
267.395	15.771	862.685	651.757
268.409	15.889	862.191	651.782
269.424	15.802	861.277	650.698
270.439	15.829	860.572	650.212
271.453	15.825	859.847	649.592
272.468	15.925	859.060	649.325
273.482	15.830	859.129	648.953
274.497	15.876	858.242	648.401
275.512	16.041	857.555	648.460
276.526	15.908	857.291	647.693
277.541	15.896	856.761	647.188
278.555	15.960	856.332	647.055
279.570	16.009	855.650	646.669
280.585	16.161	854.554	646.366
281.599	16.219	853.639	645.837
282.614	15.944	853.456	644.592
283.628	16.196	852.441	644.731
284.643	16.043	852.299	643.983
285.657	16.118	851.455	643.574
286.672	16.109	851.119	643.227
287.687	16.122	850.570	642.807
288.701	16.149	850.233	642.595
289.716	16.087	849.335	641.623
290.730	16.056	848.915	641.134
291.745	16.266	848.248	641.372
292.760	16.271	847.504	640.771
293.774	16.271	847.221	640.500
294.789	16.333	846.404	640.060
295.803	16.127	845.796	638.764
296.818	16.094	845.070	638.033
297.833	16.385	844.250	638.457
298.847	16.423	843.478	637.962
299.862	16.260	843.005	636.934
300.876	16.326	842.549	636.779
301.891	16.429	842.421	637.014
302.906	16.267	841.835	635.905
303.920	16.375	841.439	635.958
304.935	16.556	840.286	635.711
305.949	16.559	839.481	635.057
306.964	16.452	839.051	634.272
307.979	16.521	839.028	634.458
308.993	16.570	838.215	633.972
310.008	16.589	837.804	633.677
311.022	16.474	837.385	632.870
312.037	16.436	836.763	632.203
313.052	16.508	835.760	631.657
314.066	16.434	835.613	631.217
315.081	16.505	834.749	630.773
316.095	16.412	834.360	630.075
317.110	16.460	833.483	629.536
318.125	16.376	833.621	629.270
319.139	16.372	833.044	628.766
320.154	16.386	832.347	628.237
321.168	16.517	831.849	628.292
322.183	16.547	831.090	627.774
323.197	16.412	831.048	627.186
324.212	16.553	830.328	627.110
325.227	16.423	829.941	626.280
326.241	16.493	829.042	625.806
327.256	16.442	828.820	625.394
328.270	16.525	828.186	625.166
329.285	16.568	827.368	624.652
330.300	16.599	826.598	624.129
331.314	16.545	826.610	623.884
332.329	16.587	826.136	623.627
333.343	16.511	826.124	623.284
334.358	16.706	825.331	623.347
335.373	16.683	824.522	622.597
336.387	16.713	824.326	622.502
337.402	16.777	824.094	622.509
338.416	16.821	823.891	622.460
339.431	16.904	823.333	622.291
340.446	16.855	823.262	622.001
341.460	17.047	822.614	622.160
342.475	17.091	821.886	621.715
343.489	17.075	821.676	621.445
344.504	17.239	821.201	621.631
345.519	17.182	820.900	621.137
346.533	17.036	820.465	620.221
347.548	17.047	819.736	619.656
348.562	16.892	819.664	618.978
349.577	17.034	818.518	618.575
350.592	16.863	818.021	617.522
351.606	16.941	817.385	617.271
352.621	16.903	816.561	616.456
353.635	16.983	815.968	616.246
354.650	17.134	815.326	616.256
355.665	17.065	814.654	615.440
356.679	17.085	814.472	615.323
357.694	17.119	813.982	615.020
358.708	17.084	812.812	613.957
359.723	17.139	812.177	613.622
360.738	17.116	812.228	613.521
361.752	17.256	811.230	613.219
362.767	17.328	810.838	613.129
363.781	17.194	810.338	612.213
364.796	17.444	809.823	612.671
365.810	17.441	809.529	612.382
366.825	17.385	809.398	612.028
367.840	17.522	808.313	611.644
368.854	17.425	808.364	611.283
369.869	17.496	807.533	610.855
370.883	17.364	807.386	610.216
371.898	17.494	807.175	610.468
372.913	17.528	806.952	610.365
373.927	17.476	805.738	609.208
374.942	17.502	805.603	609.144
375.956	17.529	805.327	608.980
376.971	17.525	805.019	608.678
377.986	17.678	804.490	608.772
379.000	17.677	803.631	608.062
380.015	17.533	803.436	607.348
381.029	17.596	802.407	606.740
382.044	17.716	801.932	606.756
383.059	17.627	801.532	606.082
384.073	17.636	801.225	605.828
385.088	17.496	800.602	604.805
386.102	17.515	799.668	604.114
387.117	17.609	799.623	604.361
388.132	17.634	798.661	603.671
389.146	17.623	798.419	603.393
390.161	17.728	797.844	603.278
391.175	17.648	797.655	602.796
392.190	17.578	797.313	602.238
393.205	17.746	796.202	601.939
394.219	17.522	796.090	601.012
395.234	17.647	795.545	600.986
396.248	17.588	794.962	600.286
397.263	17.613	794.912	600.284
398.278	17.517	794.676	599.715
399.292	17.599	794.113	599.523
400.307	17.733	793.134	599.204
401.321	17.676	792.968	598.823
402.336	17.688	792.508	598.466
403.350	17.737	792.019	598.216
404.365	17.772	791.577	597.951
405.380	17.907	790.862	597.831
406.394	17.945	790.632	597.739
407.409	17.977	790.142	597.427
408.423	18.064	790.195	597.717
409.438	18.130	789.597	597.444
410.453	18.132	789.315	597.185
411.467	18.165	788.811	596.865
412.482	18.055	788.394	596.112
413.496	18.167	788.259	596.350
414.511	18.236	787.527	595.980
415.526	18.079	787.393	595.282
416.540	18.160	786.628	594.931
417.555	18.324	786.109	595.057
418.569	18.179	786.010	594.425
419.584	18.210	785.703	594.248
420.599	18.282	785.115	593.999
421.613	157.188	1370.619	1796.472
422.628	135.820	1455.930	1796.555
