DTS Sentinel unit serial number:	SN413079Multiplexer serial number:	ORYXHardware model number:	OX4-SRSoftware version number:	ORYX F/W v4.00 Oryx Data Collector v3.7.2.0data status	okinstallation	princeton_trtdifferential loss correction	single-endedforward channel	channel 1reverse channel	N/Adate	2019/09/14time	11:22:35forward acquisition time	60.00reverse acquisition time	0.00gamma	496.2192k internal	0.2297k external	0.2297temperature offset calibration	1.0086default loss term (dB/km)	0.3790temperature slope calibration	1.0000multiplexer offset coefficient	1.0000multiplexer slope coefficient	1.0000fibre end	0.00T internal ref (°C)	36.69T ext. ref 1 (°C)	4.52T ext. ref 2 (°C)	32.79length (m)	temperature (°C)	Stokes	anti-Stokes-747.200	315.866	-0.034	0.066
-746.185	-200.000	0.030	0.674
-745.171	51.833	-0.248	-0.241
-744.156	131.468	0.121	-0.159
-743.142	800.000	0.034	0.124
-742.127	-101.197	0.163	0.041
-741.112	-102.431	0.108	0.026
-740.098	-27.651	-0.153	0.091
-739.083	520.437	-0.036	-0.085
-738.069	-49.701	-0.422	-0.205
-737.054	-200.000	0.020	0.169
-736.039	-110.820	-0.275	-0.058
-735.025	-172.778	0.520	-0.017
-734.010	-21.852	-0.295	0.183
-732.996	-127.485	0.071	0.011
-731.981	90.439	0.170	-0.194
-730.966	-92.819	-0.108	0.031
-729.952	42.378	0.104	-0.097
-728.937	95.241	-0.076	0.089
-727.923	738.352	-0.100	-0.274
-726.908	30.332	-0.101	0.088
-725.894	452.492	0.147	-0.331
-724.879	-110.493	0.145	0.031
-723.864	-55.309	0.265	-0.121
-722.850	-10.553	-0.247	-0.167
-721.835	-83.013	0.054	-0.018
-720.821	79.061	-0.258	0.282
-719.806	-79.017	-0.069	0.024
-718.791	25.253	-0.018	0.015
-717.777	183.488	0.097	0.146
-716.762	-67.370	-0.131	-0.053
-715.748	-122.261	-0.073	0.012
-714.733	-42.229	-0.244	-0.127
-713.718	181.513	-0.192	0.287
-712.704	198.914	-0.051	-0.079
-711.689	-33.296	0.176	-0.099
-710.675	-17.394	0.233	-0.149
-709.660	554.228	-0.137	-0.335
-708.645	-73.721	0.158	0.059
-707.631	66.414	-0.215	-0.223
-706.616	182.177	0.157	-0.236
-705.602	-200.000	0.023	0.318
-704.587	-81.562	-0.069	0.023
-703.572	75.216	0.220	-0.237
-702.558	-177.251	0.102	0.003
-701.543	80.337	0.136	-0.149
-700.529	55.097	-0.060	-0.059
-699.514	-133.927	0.070	-0.009
-698.499	76.872	-0.007	-0.008
-697.485	14.422	0.292	-0.232
-696.470	-101.475	0.095	-0.024
-695.456	421.566	0.071	-0.154
-694.441	196.211	-0.081	-0.126
-693.426	-183.865	-0.215	-0.004
-692.412	778.041	-0.056	0.155
-691.397	169.977	-0.009	-0.013
-690.383	87.039	0.299	0.337
-689.368	-47.306	-0.238	-0.118
-688.354	-29.685	0.200	-0.116
-687.339	-180.133	0.503	-0.011
-686.324	312.790	0.080	0.153
-685.310	-20.342	-0.313	0.196
-684.295	183.169	-0.014	0.021
-683.281	-131.098	-0.400	-0.054
-682.266	-108.865	-0.128	0.028
-681.251	490.830	-0.071	0.166
-680.237	-184.932	-0.236	-0.004
-679.222	-95.325	-0.418	0.114
-678.208	-200.000	-0.002	0.082
-677.193	1.969	-0.072	-0.053
-676.178	20.211	-0.093	0.076
-675.164	183.707	-0.096	-0.144
-674.149	77.513	0.064	0.069
-673.135	800.000	-0.073	0.255
-672.120	236.997	0.121	0.204
-671.105	-200.000	0.004	-0.225
-670.091	126.367	0.128	0.165
-669.076	-81.938	-0.282	0.094
-668.062	244.399	-0.125	-0.213
-667.047	800.000	0.053	0.196
-666.032	54.461	-0.072	0.070
-665.018	12.521	-0.287	-0.225
-664.003	-115.991	0.079	-0.015
-662.989	-116.662	-0.263	0.049
-661.974	43.659	-0.221	0.206
-660.959	-36.832	-0.104	-0.057
-659.945	239.756	0.232	0.394
-658.930	-130.216	-0.180	0.025
-657.916	-16.942	0.174	-0.112
-656.901	-106.857	-0.278	-0.063
-655.886	-132.039	-0.188	-0.025
-654.872	168.599	0.040	-0.058
-653.857	-88.490	0.151	0.046
-652.843	170.550	0.152	0.221
-651.828	800.000	0.064	0.195
-650.814	54.396	0.176	-0.172
-649.799	73.893	0.114	-0.121
-648.784	280.823	-0.073	0.133
-647.770	109.947	-0.035	0.043
-646.755	-2.962	0.085	-0.061
-645.741	350.334	0.079	-0.160
-644.726	51.256	-0.151	0.146
-643.711	208.194	-0.089	-0.141
-642.697	-59.763	-0.029	0.013
-641.682	11.490	-0.174	-0.135
-640.668	-43.053	-0.245	0.126
-639.653	40.510	-0.189	-0.173
-638.638	800.000	0.072	0.226
-637.624	-48.925	0.241	-0.117
-636.609	15.618	-0.093	-0.074
-635.595	91.935	-0.044	-0.051
-634.580	36.757	0.105	0.094
-633.565	-119.500	-0.180	-0.032
-632.551	680.848	0.046	0.121
-631.536	-69.071	0.323	-0.127
-630.522	-200.000	-0.036	0.267
-629.507	-200.000	0.004	-0.319
-628.492	166.219	0.160	0.230
-627.478	-45.133	-0.167	0.085
-626.463	19.748	0.323	0.264
-625.449	4.114	-0.349	-0.260
-624.434	-53.351	0.082	-0.038
-623.419	-66.476	-0.121	0.049
-622.405	-24.446	-0.239	-0.145
-621.390	330.579	-0.031	0.061
-620.376	-35.768	-0.042	0.023
-619.361	-200.000	0.001	0.167
-618.346	740.515	-0.106	0.290
-617.332	440.876	0.082	-0.183
-616.317	337.053	-0.049	0.097
-615.303	231.134	0.053	0.089
-614.288	-200.000	-0.013	-0.193
-613.273	214.860	0.096	-0.154
-612.259	-68.429	0.145	0.057
-611.244	-176.099	0.257	0.007
-610.230	-200.000	0.006	-0.046
-609.215	-200.000	0.017	-0.187
-608.201	-70.454	-0.356	0.137
-607.186	451.956	0.115	-0.258
-606.171	-163.271	0.079	-0.004
-605.157	86.244	-0.195	0.218
-604.142	800.000	-0.098	-0.369
-603.128	367.827	-0.029	0.060
-602.113	21.180	-0.081	0.066
-601.098	-200.000	0.014	0.066
-600.084	-118.414	-0.354	-0.064
-599.069	-162.845	0.380	-0.019
-598.055	172.048	0.289	-0.422
-597.040	-98.771	-0.223	-0.058
-596.025	-200.000	-0.005	0.258
-595.011	-81.811	-0.295	0.098
-593.996	-53.662	-0.127	0.059
-592.982	659.551	0.029	-0.075
-591.967	800.000	-0.044	-0.140
-590.952	153.268	-0.124	-0.172
-589.938	295.906	0.051	-0.095
-588.923	50.928	0.331	0.318
-587.909	18.875	-0.369	0.300
-586.894	-40.985	-0.065	-0.034
-585.879	23.752	0.086	-0.072
-584.865	59.723	-0.184	0.185
-583.850	598.718	0.047	-0.118
-582.836	800.000	0.034	0.125
-581.821	34.917	0.156	-0.139
-580.806	-200.000	-0.031	-0.167
-579.792	-43.146	-0.428	0.220
-578.777	152.183	-0.101	0.140
-577.763	-83.417	0.262	0.085
-576.748	-105.648	-0.331	-0.076
-575.733	800.000	0.095	0.281
-574.719	-53.953	0.259	0.120
-573.704	-200.000	0.004	-0.050
-572.690	-40.181	0.118	-0.062
-571.675	21.450	-0.060	-0.050
-570.661	101.763	0.196	0.231
-569.646	-60.967	-0.156	0.067
-568.631	153.598	0.172	0.238
-567.617	31.647	0.139	0.121
-566.602	52.188	-0.174	-0.168
-565.588	15.177	-0.147	-0.117
-564.573	-100.366	-0.333	-0.084
-563.558	-132.437	-0.288	-0.038
-562.544	1.461	0.158	0.116
-561.529	147.647	0.207	-0.283
-560.515	-200.000	-0.019	0.117
-559.500	20.864	-0.252	-0.207
-558.485	800.000	-0.043	0.161
-557.471	233.002	0.117	-0.195
-556.456	-200.000	0.039	-0.261
-555.442	144.216	0.129	-0.174
-554.427	-200.000	-0.009	0.283
-553.412	-200.000	0.008	0.087
-552.398	-47.609	0.098	0.048
-551.383	-88.878	0.364	-0.109
-550.369	-185.376	-0.073	-0.001
-549.354	-89.475	0.243	-0.072
-548.339	-200.000	0.044	0.198
-547.325	-130.101	-0.242	0.033
-546.310	800.000	0.062	-0.221
-545.296	-90.605	-0.143	0.042
-544.281	22.873	-0.186	-0.154
-543.266	38.148	0.146	-0.132
-542.252	-46.814	-0.269	0.133
-541.237	-200.000	0.006	-0.066
-540.223	319.864	0.021	-0.041
-539.208	-29.427	-0.260	0.150
-538.193	800.000	-0.074	0.213
-537.179	-200.000	0.076	-0.431
-536.164	59.651	-0.227	0.227
-535.150	-39.636	0.177	0.094
-534.135	-200.000	0.013	-0.163
-533.121	83.533	0.063	-0.070
-532.106	281.679	-0.144	0.261
-531.091	3.626	0.367	0.271
-530.077	-200.000	-0.010	0.162
-529.062	-16.150	-0.151	-0.097
-528.048	-48.840	0.106	0.052
-527.033	-63.503	-0.031	-0.013
-526.018	216.323	0.046	0.074
-525.004	800.000	-0.089	0.308
-523.989	645.129	-0.153	0.396
-522.975	12.531	-0.162	-0.126
-521.960	-84.933	-0.088	-0.028
-520.945	-40.796	-0.046	0.024
-519.931	800.000	-0.062	-0.261
-518.916	-0.196	-0.083	-0.060
-517.902	92.929	0.066	0.076
-516.887	-200.000	-0.129	-0.000
-515.872	-139.032	0.181	0.020
-514.858	-6.958	-0.233	-0.160
-513.843	-92.618	0.035	0.010
-512.829	19.201	0.058	-0.047
-511.814	-200.000	0.060	0.339
-510.799	-36.332	0.319	0.174
-509.785	656.146	0.111	0.290
-508.770	800.000	0.021	-0.092
-507.756	-71.199	0.088	-0.033
-506.741	-128.434	0.169	0.024
-505.726	140.562	0.124	-0.165
-504.712	-126.400	0.583	0.088
-503.697	390.390	-0.120	-0.252
-502.683	800.000	0.139	0.456
-501.668	54.172	-0.157	0.153
-500.653	-144.292	0.168	-0.016
-499.639	-72.898	0.155	0.058
-498.624	-169.819	-0.518	0.019
-497.610	-115.651	-0.188	0.036
-496.595	39.950	0.333	0.302
-495.581	-158.714	0.071	-0.004
-494.566	214.101	-0.181	0.290
-493.551	-103.473	0.134	0.032
-492.537	89.497	0.112	-0.126
-491.522	-45.973	-0.216	0.108
-490.508	-9.880	-0.103	0.069
-489.493	-88.481	-0.152	-0.046
-488.478	8.830	0.218	0.166
-487.464	112.934	-0.196	-0.241
-486.449	281.371	0.066	-0.119
-485.435	213.061	-0.048	0.077
-484.420	-113.544	0.237	-0.047
-483.405	-146.352	0.244	-0.022
-482.391	-89.360	-0.172	0.051
-481.376	800.000	0.035	-0.145
-480.362	-137.299	0.262	-0.030
-479.347	8.888	0.125	0.095
-478.332	800.000	0.036	-0.147
-477.318	-137.822	0.088	0.010
-476.303	-75.863	-0.210	-0.075
-475.289	-96.446	0.155	-0.041
-474.274	-34.831	-0.416	0.230
-473.259	103.621	0.132	0.156
-472.245	321.066	-0.111	0.214
-471.230	93.041	0.210	-0.239
-470.216	472.588	-0.060	-0.138
-469.201	354.144	0.036	0.072
-468.186	-17.404	0.193	0.123
-467.172	-66.900	-0.217	-0.087
-466.157	-37.089	-0.109	0.059
-465.143	13.892	0.139	-0.109
-464.128	181.371	0.224	-0.333
-463.113	45.448	-0.185	0.172
-462.099	-124.369	-0.062	-0.010
-461.084	-15.691	0.146	-0.094
-460.070	-200.000	-0.013	-0.129
-459.055	-22.495	-0.115	0.070
-458.040	-196.936	0.295	0.002
-457.026	800.000	0.101	-0.377
-456.011	59.188	0.142	-0.141
-454.997	283.047	-0.084	0.152
-453.982	800.000	0.013	-0.047
-452.968	145.244	-0.029	-0.039
-451.953	242.001	-0.135	0.227
-450.938	800.000	-0.013	-0.038
-449.924	800.000	0.050	0.215
-448.909	-158.568	0.223	0.013
-447.895	65.120	-0.271	-0.277
-446.880	2.874	0.194	0.142
-445.865	800.000	-0.082	0.249
-444.851	208.779	0.143	-0.226
-443.836	194.541	-0.133	-0.204
-442.822	800.000	-0.054	-0.229
-441.807	23.029	-0.196	-0.162
-440.792	-60.955	-0.027	-0.011
-439.778	-44.038	-0.273	-0.138
-438.763	-163.338	0.325	-0.016
-437.749	800.000	-0.120	-0.425
-436.734	137.567	-0.041	0.054
-435.719	-200.000	-0.042	-0.247
-434.705	-83.001	-0.228	0.074
-433.690	-135.450	0.072	0.009
-432.676	55.148	-0.245	0.239
-431.661	800.000	-0.028	-0.090
-430.646	98.432	0.182	-0.211
-429.632	442.899	-0.067	0.147
-428.617	800.000	-0.032	-0.092
-427.603	-19.432	0.161	-0.101
-426.588	232.344	-0.065	-0.108
-425.573	800.000	-0.040	0.146
-424.559	83.647	-0.070	0.077
-423.544	-200.000	0.019	-0.202
-422.530	346.101	0.115	0.227
-421.515	-182.837	0.434	0.008
-420.500	-116.086	0.144	0.027
-419.486	800.000	-0.044	0.132
-418.471	-49.848	-0.176	-0.084
-417.457	32.320	0.223	0.194
-416.442	275.349	-0.078	0.140
-415.428	-31.795	0.238	-0.134
-414.413	129.903	-0.081	-0.104
-413.398	-200.000	0.006	0.056
-412.384	-200.000	0.010	-0.245
-411.369	-94.887	-0.350	0.096
-410.355	-0.221	-0.124	-0.089
-409.340	-185.078	0.432	-0.007
-408.325	38.622	-0.087	-0.078
-407.311	-129.900	-0.261	-0.036
-406.296	159.711	0.114	0.160
-405.282	135.249	0.184	0.241
-404.267	114.768	-0.152	-0.187
-403.252	-38.849	-0.219	-0.116
-402.238	625.743	-0.050	-0.126
-401.223	417.608	0.220	0.473
-400.209	239.659	-0.155	-0.261
-399.194	-65.564	-0.254	-0.103
-398.179	-33.202	-0.132	-0.074
-397.165	755.124	0.068	0.185
-396.150	-200.000	0.029	0.178
-395.136	8.449	-0.314	0.238
-394.121	-113.162	-0.427	-0.085
-393.106	335.210	0.240	0.468
-392.092	-7.120	0.025	0.017
-391.077	174.395	0.088	0.128
-390.063	172.019	-0.035	-0.050
-389.048	-88.698	-0.142	0.042
-388.033	-53.673	0.106	-0.049
-387.019	-200.000	0.031	-0.252
-386.004	-200.000	0.006	-0.140
-384.990	57.266	-0.166	-0.163
-383.975	-83.974	-0.100	0.032
-382.960	231.283	-0.021	0.035
-381.946	-105.658	-0.250	-0.057
-380.931	-74.884	0.098	-0.035
-379.917	-58.233	-0.286	0.125
-378.902	65.729	0.137	0.140
-377.888	-200.000	-0.008	0.063
-376.873	-200.000	0.014	0.090
-375.858	-92.084	0.157	0.045
-374.844	800.000	0.100	0.296
-373.829	-16.950	0.080	-0.051
-372.815	503.613	-0.088	-0.206
-371.800	800.000	0.108	0.353
-370.785	-31.866	0.108	-0.061
-369.771	-87.956	-0.233	0.071
-368.756	-107.068	0.163	-0.036
-367.742	-200.000	-0.009	0.283
-366.727	47.591	0.187	0.176
-365.712	8.346	0.142	-0.108
-364.698	129.304	-0.117	-0.150
-363.683	357.266	-0.194	-0.390
-362.669	-181.940	-0.179	0.003
-361.654	-200.000	-0.046	-0.226
-360.639	-92.628	0.252	0.071
-359.625	-200.000	-0.011	-0.099
-358.610	60.266	0.082	-0.081
-357.596	30.361	0.133	-0.114
-356.581	-103.777	-0.022	-0.005
-355.566	425.777	0.064	-0.139
-354.552	0.815	0.316	-0.228
-353.537	-130.800	0.040	-0.005
-352.523	-33.927	0.078	-0.043
-351.508	-31.121	-0.108	-0.061
-350.493	-200.000	-0.015	-0.155
-349.479	-200.000	-0.002	-0.272
-348.464	-116.925	-0.230	0.042
-347.450	-200.000	-0.001	0.226
-346.435	-131.157	0.059	-0.008
-345.420	219.577	-0.183	-0.295
-344.406	-120.249	-0.237	0.041
-343.391	101.124	0.201	0.235
-342.377	-49.949	0.243	-0.116
-341.362	-172.110	0.199	0.006
-340.348	205.196	0.173	-0.270
-339.333	143.419	-0.098	0.131
-338.318	336.435	0.177	0.346
-337.304	-200.000	-0.036	0.170
-336.289	-200.000	0.047	0.314
-335.275	296.226	0.131	-0.241
-334.260	42.180	-0.193	-0.176
-333.245	-178.579	-0.119	-0.003
-332.231	41.920	0.053	0.048
-331.216	-170.459	0.260	0.009
-330.202	54.809	0.057	0.055
-329.187	-34.152	0.227	-0.125
-328.172	149.054	-0.070	-0.095
-327.158	-136.641	0.250	0.029
-326.143	47.193	-0.138	0.129
-325.129	-90.730	-0.071	-0.021
-324.114	200.706	0.136	-0.211
-323.099	632.054	-0.110	-0.280
-322.085	53.649	-0.262	-0.253
-321.070	-200.000	-0.046	-0.365
-320.056	46.284	0.038	-0.035
-319.041	800.000	-0.071	0.265
-318.026	22.046	0.120	0.098
-317.012	8.368	-0.167	0.126
-315.997	-61.548	0.316	0.133
-314.983	-200.000	-0.037	-0.234
-313.968	-120.729	0.123	0.021
-312.953	-72.052	0.247	-0.092
-311.939	231.473	0.084	-0.137
-310.924	120.414	0.039	0.048
-309.910	241.819	0.142	-0.239
-308.895	165.418	-0.111	0.157
-307.880	440.099	-0.048	0.105
-306.866	-182.109	-0.058	0.001
-305.851	38.420	0.153	0.137
-304.837	-60.033	0.171	-0.073
-303.822	-155.771	0.067	-0.004
-302.807	93.303	-0.090	-0.102
-301.793	-111.325	0.280	-0.057
-300.778	-8.302	-0.137	0.092
-299.764	800.000	0.081	0.295
-298.749	87.536	-0.052	-0.058
-297.735	-200.000	0.033	0.224
-296.720	-200.000	0.046	-0.319
-295.705	40.031	0.066	0.059
-294.691	-96.015	0.326	0.087
-293.676	-200.000	0.028	0.336
-292.662	121.079	0.162	-0.202
-291.647	44.142	0.265	-0.244
-290.632	-138.584	0.089	-0.010
-289.618	-139.942	0.034	-0.004
-288.603	-200.000	-0.030	-0.264
-287.589	31.187	-0.236	0.203
-286.574	-200.000	0.024	-0.123
-285.559	-200.000	0.016	0.159
-284.545	35.089	-0.186	0.163
-283.530	-62.419	-0.094	-0.039
-282.516	71.728	-0.234	0.244
-281.501	-96.563	0.275	0.073
-280.486	46.274	0.149	-0.138
-279.472	-130.529	-0.177	-0.024
-278.457	256.025	-0.181	0.312
-277.443	79.230	0.156	-0.167
-276.428	-200.000	0.020	0.309
-275.413	-200.000	0.022	-0.568
-274.399	397.362	-0.113	0.238
-273.384	-157.545	0.480	0.029
-272.370	324.759	-0.124	0.238
-271.355	-120.709	0.070	-0.012
-270.340	244.883	0.062	0.104
-269.326	800.000	-0.086	-0.300
-268.311	76.580	0.095	-0.101
-267.297	-131.181	0.182	-0.024
-266.282	-160.011	0.124	-0.007
-265.267	219.899	-0.227	-0.364
-264.253	-148.056	0.124	-0.010
-263.238	182.356	-0.131	-0.193
-262.224	97.512	0.213	-0.246
-261.209	375.611	-0.028	-0.058
-260.195	273.379	0.163	0.290
-259.180	-200.000	-0.199	0.001
-258.165	-79.045	0.101	0.034
-257.151	115.047	0.016	0.020
-256.136	188.200	0.093	0.139
-255.122	-188.614	-0.336	0.004
-254.107	800.000	0.104	0.313
-253.092	-200.000	0.043	0.211
-252.078	156.223	-0.046	-0.064
-251.063	-140.937	-0.352	0.036
-250.049	24.734	0.114	-0.095
-249.034	-200.000	-0.079	0.000
-248.019	26.879	-0.284	-0.238
-247.005	-178.468	0.063	-0.001
-245.990	800.000	-0.055	-0.209
-244.976	800.000	-0.085	0.280
-243.961	230.008	-0.248	0.406
-242.946	-200.000	0.058	0.822
-241.932	5.728	-0.163	-0.121
-240.917	-200.000	-0.028	-0.242
-239.903	-189.960	0.061	-0.001
-238.888	72.400	0.039	0.041
-237.873	-200.000	-0.010	-0.293
-236.859	-200.000	0.002	-0.063
-235.844	-200.000	-0.048	0.230
-234.830	-93.026	-0.178	0.050
-233.815	671.932	0.129	-0.336
-232.800	-73.596	0.027	-0.010
-231.786	111.616	0.160	-0.193
-230.771	-91.471	-0.072	-0.021
-229.757	800.000	0.058	0.206
-228.742	-23.061	-0.261	-0.157
-227.727	125.036	0.251	0.316
-226.713	-42.359	-0.212	-0.108
-225.698	-160.893	0.057	0.003
-224.684	78.083	-0.045	-0.048
-223.669	-20.236	0.275	0.169
-222.655	-37.698	0.186	-0.099
-221.640	-87.450	0.378	0.115
-220.625	-176.283	-0.228	0.006
-219.611	800.000	0.030	-0.120
-218.596	800.000	-0.065	-0.224
-217.582	239.033	0.073	0.122
-216.567	303.774	0.143	0.265
-215.552	800.000	-0.050	-0.139
-214.538	-200.000	0.022	-0.455
-213.523	-200.000	0.006	-0.128
-212.509	614.513	0.011	0.028
-211.494	-90.198	-0.246	-0.071
-210.479	800.000	0.093	-0.268
-209.465	-109.684	0.315	0.066
-208.450	-89.654	0.017	-0.005
-207.436	136.964	0.082	-0.108
-206.421	-200.000	0.040	0.297
-205.406	84.864	0.157	0.172
-204.392	175.481	-0.093	-0.134
-203.377	-200.000	0.007	-0.085
-202.363	-132.307	0.136	0.018
-201.348	329.809	0.131	0.251
-200.333	-56.342	-0.203	-0.090
-199.319	21.937	-0.100	0.081
-198.304	-88.521	-0.058	-0.017
-197.290	150.747	0.214	0.291
-196.275	185.211	-0.077	-0.114
-195.260	800.000	0.028	0.111
-194.246	-83.133	-0.063	0.020
-193.231	-100.583	-0.218	0.054
-192.217	-14.340	-0.127	-0.082
-191.202	-45.468	-0.318	-0.157
-190.187	17.594	-0.231	-0.183
-189.173	-155.205	0.047	-0.003
-188.158	246.344	0.093	-0.157
-187.144	-92.389	-0.287	-0.081
-186.129	800.000	-0.042	0.180
-185.114	-125.983	-0.157	0.024
-184.100	800.000	0.076	-0.262
-183.085	-112.327	0.235	0.047
-182.071	334.755	-0.083	0.162
-181.056	-9.682	-0.142	0.095
-180.042	-52.521	0.271	-0.125
-179.027	108.586	0.122	0.145
-178.012	-172.993	0.077	-0.002
-176.998	-200.000	-0.010	0.222
-175.983	-200.000	-0.014	0.181
-174.969	-8.080	0.345	0.232
-173.954	279.121	0.015	-0.027
-172.939	-200.000	0.017	-0.106
-171.925	800.000	0.066	0.252
-170.910	52.661	-0.055	-0.052
-169.896	-47.107	-0.196	0.095
-168.881	740.707	-0.107	0.286
-167.866	-200.000	0.014	-0.117
-166.852	-13.275	-0.211	0.137
-165.837	-3.777	-0.261	-0.181
-164.823	787.328	-0.090	-0.245
-163.808	97.399	-0.086	-0.098
-162.793	-102.061	0.035	-0.008
-161.779	113.107	0.062	0.075
-160.764	-200.000	0.012	-0.251
-159.750	-66.070	-0.200	-0.080
-158.735	-89.528	0.173	0.051
-157.720	-88.165	-0.077	-0.023
-156.706	13.591	-0.121	0.094
-155.691	800.000	0.042	-0.156
-154.677	-200.000	0.013	-0.209
-153.662	102.011	-0.091	-0.107
-152.647	26.298	-0.151	0.126
-151.633	-55.791	-0.164	-0.073
-150.618	-14.906	0.044	0.028
-149.604	-131.366	-0.048	0.006
-148.589	216.379	0.095	-0.150
-147.574	376.977	-0.191	-0.389
-146.560	800.000	-0.018	0.077
-145.545	-200.000	-0.007	-0.095
-144.531	103.766	0.302	-0.354
-143.516	-133.688	0.234	0.029
-142.502	422.151	0.107	0.230
-141.487	-70.256	0.227	0.086
-140.472	-65.988	-0.245	-0.097
-139.458	-146.931	0.178	-0.015
-138.443	-7.800	0.179	0.121
-137.429	34.645	0.184	0.161
-136.414	800.000	0.137	-0.476
-135.399	-200.000	-0.030	0.260
-134.385	-13.176	-0.068	0.044
-133.370	15.577	-0.204	-0.160
-132.356	163.582	-0.058	-0.081
-131.341	-91.105	-0.266	-0.076
-130.326	51.220	-0.078	0.074
-129.312	32.672	-0.221	0.191
-128.297	800.000	-0.033	-0.143
-127.283	168.762	0.100	0.143
-126.268	-121.215	0.211	0.035
-125.253	57.862	-0.176	0.172
-124.239	-20.419	-0.175	0.108
-123.224	800.000	-0.043	0.150
-122.210	-112.401	0.064	0.013
-121.195	-200.000	0.007	0.057
-120.180	-200.000	0.014	-0.213
-119.166	-162.883	0.303	-0.015
-118.151	-85.285	0.190	0.059
-117.137	-200.000	-0.023	0.175
-116.122	-57.587	-0.089	0.039
-115.107	424.270	0.066	0.142
-114.093	137.641	-0.120	0.157
-113.078	-200.000	-0.040	0.312
-112.064	20.270	-0.088	0.071
-111.049	-99.752	0.240	-0.060
-110.034	-98.080	-0.322	0.083
-109.020	-200.000	-0.012	0.273
-108.005	72.894	-0.265	-0.276
-106.991	-200.000	0.016	-0.105
-105.976	-77.947	-0.125	0.043
-104.962	165.591	-0.105	0.148
-103.947	800.000	-0.066	0.236
-102.932	800.000	0.047	-0.141
-101.918	800.000	-0.026	0.075
-100.903	800.000	-0.087	-0.370
-99.889	800.000	-0.066	-0.190
-98.874	-200.000	-0.184	-0.001
-97.859	800.000	-0.052	0.158
-96.845	-119.264	0.278	0.048
-95.830	-200.000	0.003	0.052
-94.816	-54.585	-0.026	0.012
-93.801	-200.000	0.020	-0.362
-92.786	-200.000	0.015	-0.194
-91.772	-171.083	-0.248	0.008
-90.757	-1.846	-0.073	0.051
-89.743	-45.947	-0.288	0.141
-88.728	-30.903	0.082	0.046
-87.713	800.000	0.069	-0.236
-86.699	-6.094	0.127	-0.086
-85.684	-37.246	0.094	-0.050
-84.670	-64.831	0.261	0.105
-83.655	-53.015	-0.035	0.016
-82.640	303.924	0.222	0.409
-81.626	121.338	-0.144	0.179
-80.611	-200.000	-0.024	0.147
-79.597	-200.000	0.005	-0.251
-78.582	-200.000	-0.169	0.000
-77.567	-200.000	-0.040	0.302
-76.553	-200.000	-0.033	-0.295
-75.538	-70.338	0.217	-0.082
-74.524	691.089	-0.041	-0.107
-73.509	53.677	0.201	0.192
-72.494	-200.000	0.013	-0.155
-71.480	-200.000	-0.044	0.327
-70.465	126.235	-0.222	-0.280
-69.451	-86.112	0.037	-0.011
-68.436	-126.081	-0.017	-0.003
-67.422	46.726	-0.224	0.207
-66.407	703.175	0.039	0.103
-65.392	-7.247	-0.339	0.228
-64.378	-200.000	-0.022	-0.109
-63.363	-200.000	-0.035	0.230
-62.349	-57.134	-0.140	0.061
-61.334	128.841	-0.562	-0.712
-60.319	-146.261	0.444	0.039
-59.305	319.245	-0.478	-0.901
-58.290	62.105	0.737	0.731
-57.276	690.527	0.661	1.719
-56.261	-200.000	89.104	493.294
-55.246	496.618	1413.213	3230.456
-54.232	178.904	2635.862	3830.001
-53.217	115.885	2241.323	2726.085
-52.203	47.483	1678.262	1554.897
-51.188	39.930	1406.384	1255.199
-50.173	36.788	1362.206	1196.349
-49.159	55.715	1406.421	1354.343
-48.144	59.954	1425.013	1398.801
-47.130	40.625	1381.873	1237.469
-46.115	36.792	1364.990	1198.629
-45.100	36.585	1360.117	1193.024
-44.086	36.587	1357.324	1190.540
-43.071	36.600	1354.890	1188.436
-42.057	36.454	1352.954	1185.795
-41.042	36.587	1350.779	1184.655
-40.027	36.618	1349.206	1183.421
-39.013	36.568	1347.423	1181.502
-37.998	36.692	1345.148	1180.217
-36.984	36.707	1343.497	1178.813
-35.969	36.741	1341.201	1176.961
-34.954	36.848	1339.466	1176.037
-33.940	36.660	1338.469	1173.978
-32.925	36.655	1337.285	1172.860
-31.911	36.768	1335.495	1171.931
-30.896	36.764	1334.101	1170.632
-29.881	36.865	1332.618	1169.898
-28.867	36.822	1331.095	1168.251
-27.852	36.894	1329.530	1167.271
-26.838	36.735	1328.057	1164.972
-25.823	36.754	1326.552	1163.717
-24.809	36.803	1325.293	1162.861
-23.794	36.772	1323.895	1161.405
-22.779	36.776	1322.376	1160.048
-21.765	36.754	1321.035	1158.696
-20.750	36.701	1319.927	1157.364
-19.736	36.674	1318.381	1155.797
-18.721	36.556	1317.549	1154.315
-17.706	36.617	1316.015	1153.289
-16.692	36.622	1315.213	1152.570
-15.677	36.771	1313.410	1151.831
-14.663	36.660	1312.291	1150.146
-13.648	36.575	1311.494	1148.896
-12.633	36.618	1310.196	1147.973
-11.619	36.564	1309.371	1146.881
-10.604	36.643	1308.301	1146.364
-9.590	36.612	1307.377	1145.331
-8.575	36.596	1306.331	1144.272
-7.560	36.636	1305.906	1144.092
-6.546	36.557	1305.285	1143.032
-5.531	36.624	1303.673	1141.971
-4.517	36.594	1302.828	1141.012
-3.502	36.619	1301.643	1140.072
-2.487	36.581	1301.047	1139.281
-1.473	36.556	1297.241	1135.759
-0.458	35.548	1281.255	1115.865
0.556	32.443	1261.670	1073.445
1.571	28.295	1265.447	1052.778
2.586	26.840	1279.384	1055.815
3.600	25.213	1266.974	1036.094
4.615	18.719	1190.706	938.263
5.629	9.126	1111.256	826.426
6.644	4.732	1088.896	787.525
7.659	4.400	1086.118	783.774
8.673	4.477	1085.281	783.487
9.688	4.482	1083.978	782.501
10.702	4.651	1082.004	781.859
11.717	9.897	1090.339	814.328
12.731	18.378	1102.030	866.052
13.746	21.041	1104.599	881.468
14.761	19.905	1102.447	873.940
15.775	18.940	1100.738	867.642
16.790	17.967	1098.153	860.626
17.804	17.150	1096.856	855.423
18.819	16.850	1095.266	852.599
19.834	16.621	1094.696	850.924
20.848	16.453	1094.003	849.466
21.863	16.127	1093.344	847.243
22.877	15.978	1092.385	845.677
23.892	16.024	1091.430	845.093
24.907	16.044	1090.499	844.399
25.921	15.985	1089.686	843.397
26.936	16.055	1088.147	842.480
27.950	16.053	1086.903	841.436
28.965	16.257	1085.252	841.098
29.980	16.274	1083.874	840.043
30.994	16.539	1082.267	840.037
32.009	16.301	1081.827	838.439
33.023	16.319	1080.580	837.490
34.038	16.151	1079.893	836.048
35.053	15.986	1078.777	834.294
36.067	16.141	1077.970	834.364
37.082	16.104	1077.160	833.483
38.096	16.306	1076.159	833.628
39.111	16.208	1075.671	832.696
40.126	16.098	1074.519	831.185
41.140	15.982	1072.876	829.270
42.155	15.864	1071.490	827.546
43.169	15.830	1070.498	826.539
44.184	15.895	1069.419	825.955
45.199	15.915	1068.176	825.016
46.213	15.995	1067.038	824.456
47.228	16.140	1065.995	824.286
48.242	16.264	1065.061	824.097
49.257	16.243	1063.557	822.760
50.271	16.178	1062.829	821.806
51.286	16.212	1062.108	821.341
52.301	16.170	1061.388	820.508
53.315	16.118	1059.852	818.996
54.330	16.008	1059.406	818.045
55.344	16.021	1058.028	816.973
56.359	16.068	1057.288	816.554
57.374	15.822	1056.572	814.741
58.388	15.932	1055.519	814.388
59.403	15.878	1054.663	813.394
60.417	15.891	1054.117	812.963
61.432	15.881	1053.139	812.086
62.447	15.841	1051.987	810.937
63.461	15.733	1051.192	809.731
64.476	15.780	1050.252	809.163
65.490	15.745	1049.653	808.460
66.505	15.904	1048.860	808.540
67.520	15.794	1048.405	807.591
68.534	15.886	1047.254	807.074
69.549	15.839	1046.440	806.148
70.563	15.778	1045.908	805.378
71.578	15.716	1045.138	804.417
72.593	15.696	1043.898	803.296
73.607	15.661	1043.241	802.549
74.622	15.532	1042.982	801.664
75.636	15.633	1042.234	801.499
76.651	15.764	1041.370	801.390
77.666	15.786	1040.749	800.948
78.680	15.575	1040.096	799.368
79.695	15.708	1039.919	799.795
80.709	15.911	1038.761	799.796
81.724	15.950	1038.319	799.569
82.739	16.003	1037.605	799.203
83.753	16.100	1036.732	798.920
84.768	16.236	1035.846	798.810
85.782	16.284	1034.865	798.210
86.797	16.200	1034.229	797.252
87.812	16.166	1033.245	796.263
88.826	16.215	1032.395	795.768
89.841	16.314	1031.003	795.088
90.855	16.339	1030.141	794.474
91.870	16.355	1029.131	793.698
92.884	16.282	1028.245	792.600
93.899	16.307	1027.618	792.167
94.914	16.452	1026.722	792.086
95.928	16.489	1025.564	791.294
96.943	16.454	1024.466	790.211
97.957	16.336	1023.697	788.999
98.972	16.237	1023.315	788.175
99.987	16.223	1022.232	787.203
101.001	16.273	1021.235	786.601
102.016	16.207	1020.607	785.739
103.030	16.213	1019.611	784.931
104.045	16.203	1019.079	784.404
105.060	16.186	1017.958	783.392
106.074	16.060	1016.823	781.866
107.089	15.889	1015.923	780.312
108.103	15.972	1014.688	779.679
109.118	15.892	1013.950	778.675
110.133	15.881	1013.047	777.862
111.147	15.959	1011.794	777.190
112.162	15.861	1011.281	776.273
113.176	16.048	1010.512	776.476
114.191	15.940	1010.007	775.522
115.206	15.956	1009.371	775.041
116.220	16.010	1008.110	774.250
117.235	15.997	1007.094	773.342
118.249	15.925	1006.274	772.314
119.264	15.935	1005.702	771.851
120.279	15.912	1004.841	771.019
121.293	15.938	1003.859	770.317
122.308	15.826	1003.294	769.302
123.322	15.764	1002.070	768.013
124.337	15.800	1001.375	767.573
125.352	15.824	999.562	766.226
126.366	15.778	998.667	765.263
127.381	15.842	998.011	764.987
128.395	15.866	997.318	764.494
129.410	15.981	996.042	763.971
130.424	15.894	995.488	763.086
131.439	15.856	994.817	762.330
132.454	16.017	994.161	762.490
133.468	16.066	992.933	761.702
134.483	16.068	992.296	761.155
135.497	16.211	991.093	760.809
136.512	16.081	990.314	759.556
137.527	16.161	989.509	759.233
138.541	16.182	988.747	758.677
139.556	16.263	987.885	758.312
140.570	16.292	987.699	758.229
141.585	16.402	986.655	757.855
142.600	16.448	985.111	756.809
143.614	16.421	984.862	756.432
144.629	16.469	984.049	755.954
145.643	16.470	982.624	754.795
146.658	16.226	981.902	753.086
147.673	16.323	980.819	752.623
148.687	16.169	979.981	751.226
149.702	16.230	978.985	750.666
150.716	16.027	978.658	749.448
151.731	16.188	977.929	749.536
152.746	16.124	976.887	748.391
153.760	16.291	976.283	748.599
154.775	16.350	975.814	748.438
155.789	16.373	975.260	748.047
156.804	16.402	974.172	747.276
157.819	16.334	973.934	746.724
158.833	16.370	973.708	746.646
159.848	16.642	972.005	746.471
160.862	16.518	971.161	745.212
161.877	16.204	970.244	743.061
162.892	16.194	968.861	741.891
163.906	16.260	967.748	741.265
164.921	16.229	967.311	740.725
165.935	16.222	966.653	740.127
166.950	16.361	965.323	739.651
167.964	16.443	964.793	739.539
168.979	16.351	963.833	738.335
169.994	16.352	962.704	737.411
171.008	16.361	961.879	736.750
172.023	16.395	961.661	736.668
173.037	16.572	960.584	736.548
174.052	16.373	960.187	735.314
175.067	16.215	959.246	733.838
176.081	16.112	959.187	733.284
177.096	16.275	958.037	733.046
178.110	16.323	957.473	732.759
179.125	16.393	956.939	732.589
180.140	16.310	956.305	731.679
181.154	16.476	955.969	732.076
182.169	16.546	955.407	731.885
183.183	16.491	955.153	731.387
184.198	16.684	953.846	731.153
185.213	16.670	953.084	730.445
186.227	16.676	952.653	730.075
187.242	16.650	952.175	729.533
188.256	16.888	951.227	729.766
189.271	16.716	950.721	728.574
190.286	16.434	949.672	726.491
191.300	16.255	948.655	724.884
192.315	16.283	947.822	724.300
193.329	16.369	947.542	724.391
194.344	16.313	946.859	723.566
195.359	16.590	946.215	724.195
196.373	16.688	945.896	724.306
197.388	16.750	945.527	724.224
198.402	16.721	945.038	723.664
199.417	16.926	944.330	723.934
200.432	16.951	943.583	723.403
201.446	16.945	942.980	722.851
202.461	17.063	942.462	722.890
203.475	16.994	942.189	722.326
204.490	16.953	940.910	721.105
205.504	16.836	940.222	720.017
206.519	16.671	939.965	719.055
207.534	16.702	938.986	718.375
208.548	16.832	938.150	718.222
209.563	16.809	937.540	717.595
210.577	16.808	936.945	717.070
211.592	17.007	935.759	716.942
212.607	17.036	935.525	716.820
213.621	16.871	934.990	715.654
214.636	17.048	933.719	715.362
215.650	16.987	933.106	714.573
216.665	17.142	932.588	714.764
217.680	17.252	931.705	714.488
218.694	17.160	931.283	713.715
219.709	17.111	931.026	713.247
220.723	17.077	930.065	712.304
221.738	17.165	929.219	711.963
222.753	17.053	928.451	710.843
223.767	17.195	928.010	711.039
224.782	17.333	927.835	711.418
225.796	17.293	927.093	710.620
226.811	17.227	926.246	709.630
227.826	17.125	925.607	708.652
228.840	17.219	924.482	708.118
229.855	17.149	923.872	707.297
230.869	17.151	923.329	706.828
231.884	17.205	922.348	706.240
232.899	17.070	921.447	704.928
233.913	17.006	920.770	704.081
234.928	16.987	920.337	703.609
235.942	16.999	920.048	703.374
236.957	16.943	919.551	702.701
237.972	17.024	918.693	702.316
238.986	17.074	917.893	701.852
240.001	17.253	917.008	701.851
241.015	17.064	917.023	701.019
242.030	16.999	916.395	700.212
243.045	17.194	915.466	700.241
244.059	17.221	914.860	699.829
245.074	17.196	914.411	699.320
246.088	17.223	913.981	699.039
247.103	17.274	913.223	698.608
248.117	17.588	912.708	699.441
249.132	17.682	912.244	699.412
250.147	17.646	911.679	698.768
251.161	17.681	910.694	698.094
252.176	17.776	910.280	698.104
253.190	17.635	909.975	697.231
254.205	17.808	909.239	697.314
255.220	17.831	908.263	696.595
256.234	17.749	907.597	695.691
257.249	17.903	906.670	695.544
258.263	17.840	906.399	695.020
259.278	17.786	905.506	694.052
260.293	17.832	904.930	693.738
261.307	17.974	904.193	693.686
262.322	18.131	903.234	693.526
263.336	17.866	902.947	692.170
264.351	17.943	902.111	691.779
265.366	18.116	901.595	692.025
266.380	18.016	901.022	691.117
267.395	18.001	899.969	690.190
268.409	17.867	899.586	689.293
269.424	17.814	898.902	688.496
270.439	17.932	898.030	688.240
271.453	17.862	897.475	687.473
272.468	17.928	896.668	687.061
273.482	17.792	896.327	686.189
274.497	17.820	896.230	686.167
275.512	17.846	895.157	685.390
276.526	17.940	894.672	685.337
277.541	18.015	894.065	685.111
278.555	18.125	893.417	684.996
279.570	18.240	892.720	684.858
280.585	18.135	892.295	684.052
281.599	18.153	891.242	683.259
282.614	18.115	890.569	682.531
283.628	18.088	889.513	681.553
284.643	18.060	889.320	681.233
285.657	18.040	888.601	680.541
286.672	18.105	887.926	680.223
287.687	18.117	887.511	679.893
288.701	18.097	887.049	679.398
289.716	18.214	886.167	679.128
290.730	18.123	885.603	678.276
291.745	18.139	885.141	677.926
292.760	18.252	884.608	677.903
293.774	18.330	884.058	677.732
294.789	18.413	882.878	677.094
295.803	18.161	882.461	675.720
296.818	18.244	881.811	675.490
297.833	18.177	881.071	674.600
298.847	18.293	879.992	674.170
299.862	18.268	880.149	674.130
300.876	18.149	879.772	673.316
301.891	18.439	879.109	673.889
302.906	18.485	878.567	673.594
303.920	18.637	877.975	673.679
304.935	18.603	877.789	673.341
305.949	18.570	876.911	672.477
306.964	18.403	876.229	671.242
307.979	18.389	875.620	670.662
308.993	18.526	874.917	670.599
310.008	18.414	874.917	670.103
311.022	18.578	873.640	669.707
312.037	18.506	873.119	668.967
313.052	18.341	872.578	667.849
314.066	18.312	871.798	667.079
315.081	18.329	871.470	666.836
316.095	18.324	870.665	666.143
317.110	18.417	870.149	666.050
318.125	18.323	869.410	665.058
319.139	18.379	869.303	665.137
320.154	18.511	869.032	665.382
321.168	18.500	867.988	664.482
322.183	18.520	867.591	664.195
323.197	18.520	867.106	663.765
324.212	18.451	866.459	662.945
325.227	18.436	866.021	662.493
326.241	18.521	865.035	662.008
327.256	18.403	864.716	661.250
328.270	18.589	863.954	661.329
329.285	18.523	863.418	660.603
330.300	18.563	862.690	660.142
331.314	18.495	862.365	659.573
332.329	18.609	862.321	659.919
333.343	18.602	861.747	659.397
334.358	18.676	860.735	658.845
335.373	18.800	860.445	659.042
336.387	18.733	860.483	658.758
337.402	18.782	859.977	658.497
338.416	18.800	860.081	658.587
339.431	18.903	859.446	658.438
340.446	18.813	859.321	657.941
341.460	18.872	858.758	657.675
342.475	19.020	858.381	657.895
343.489	18.942	858.374	657.535
344.504	19.154	857.456	657.581
345.519	19.195	856.660	657.072
346.533	19.170	856.433	656.743
347.548	19.120	855.737	655.961
348.562	18.898	855.097	654.567
349.577	18.894	854.258	653.848
350.592	18.881	853.790	653.383
351.606	18.840	853.001	652.567
352.621	18.858	852.475	652.174
353.635	18.865	851.653	651.517
354.650	19.015	850.804	651.375
355.665	18.874	850.554	650.594
356.679	19.017	849.864	650.549
357.694	19.019	849.383	650.131
358.708	19.092	848.694	649.820
359.723	18.946	848.226	648.855
360.738	19.104	847.404	648.764
361.752	19.147	846.819	648.422
362.767	19.310	846.173	648.482
363.781	19.299	845.718	648.034
364.796	19.353	845.524	648.031
365.810	19.481	844.975	648.036
366.825	19.479	844.778	647.819
367.840	19.548	843.925	647.366
368.854	19.475	843.396	646.631
369.869	19.372	843.180	646.020
370.883	19.336	842.693	645.454
371.898	19.402	842.677	645.632
372.913	19.590	841.734	645.556
373.927	19.454	841.107	644.511
374.942	19.568	841.031	644.822
375.956	19.637	840.418	644.552
376.971	19.695	839.697	644.157
377.986	19.613	839.662	643.769
379.000	19.671	839.235	643.599
380.015	19.682	838.635	643.124
381.029	19.669	837.898	642.452
382.044	19.613	837.598	641.959
383.059	19.703	836.774	641.606
384.073	19.786	835.899	641.185
385.088	19.493	835.534	639.763
386.102	19.524	835.201	639.566
387.117	19.484	834.329	638.693
388.132	19.489	833.767	638.222
389.146	19.569	833.127	637.974
390.161	19.711	832.855	638.233
391.175	19.762	832.348	637.978
392.190	19.796	832.014	637.790
393.205	19.496	831.425	636.175
394.219	19.565	831.128	636.144
395.234	19.397	830.822	635.237
396.248	19.575	829.928	635.153
397.263	19.493	829.497	634.464
398.278	19.581	828.712	634.132
399.292	19.623	828.534	634.091
400.307	19.553	828.307	633.607
401.321	19.513	827.499	632.785
402.336	19.614	827.256	632.915
403.350	19.735	826.800	632.951
404.365	19.754	826.637	632.839
405.380	19.871	825.949	632.685
406.394	19.951	825.516	632.592
407.409	20.040	825.032	632.487
408.423	20.180	824.628	632.635
409.438	20.165	823.998	632.042
410.453	20.140	823.574	631.568
411.467	20.115	823.395	631.285
412.482	20.183	823.125	631.269
413.496	20.193	822.885	631.064
414.511	20.091	822.669	630.472
415.526	20.230	821.804	630.259
416.540	20.228	821.281	629.794
417.555	20.233	820.599	629.232
418.569	20.067	820.670	628.628
419.584	20.202	820.223	628.720
420.599	20.169	819.432	627.941
421.613	154.002	1369.495	1782.885
422.628	134.109	1449.672	1782.996
