DTS Sentinel unit serial number:	SN413079Multiplexer serial number:	ORYXHardware model number:	OX4-SRSoftware version number:	ORYX F/W v4.00 Oryx Data Collector v3.7.2.0data status	okinstallation	princeton_trtdifferential loss correction	single-endedforward channel	channel 1reverse channel	N/Adate	2019/09/14time	06:18:35forward acquisition time	60.00reverse acquisition time	0.00gamma	496.2192k internal	0.2335k external	0.2335temperature offset calibration	1.0079default loss term (dB/km)	0.3790temperature slope calibration	1.0000multiplexer offset coefficient	1.0000multiplexer slope coefficient	1.0000fibre end	0.00T internal ref (°C)	26.62T ext. ref 1 (°C)	3.41T ext. ref 2 (°C)	20.62length (m)	temperature (°C)	Stokes	anti-Stokes-747.200	-82.099	-0.148	-0.048
-746.185	-128.556	-0.189	-0.027
-745.171	417.444	-0.087	0.187
-744.156	-200.000	-0.007	0.213
-743.142	800.000	0.035	0.127
-742.127	23.060	0.241	0.198
-741.112	402.697	0.095	-0.200
-740.098	73.196	-0.139	-0.146
-739.083	-38.950	0.227	-0.120
-738.069	-23.998	0.151	0.091
-737.054	-54.505	0.260	0.118
-736.039	-62.123	0.220	-0.092
-735.025	-190.456	0.403	0.004
-734.010	-200.000	-0.020	0.256
-732.996	-81.148	0.220	-0.073
-731.981	-200.000	-0.032	0.166
-730.966	384.258	0.234	-0.484
-729.952	19.684	0.134	-0.108
-728.937	-10.609	0.181	-0.120
-727.923	58.081	-0.214	-0.210
-726.908	-129.650	-0.182	0.025
-725.894	23.064	0.241	0.198
-724.879	-0.554	-0.480	-0.342
-723.864	121.027	-0.253	-0.316
-722.850	800.000	0.022	0.073
-721.835	-109.991	0.029	-0.006
-720.821	-99.108	0.172	-0.044
-719.806	-200.000	0.050	-0.233
-718.791	-47.995	-0.075	-0.036
-717.777	-200.000	0.014	-0.201
-716.762	77.418	0.174	0.185
-715.748	51.254	0.268	-0.255
-714.733	-41.510	-0.139	-0.072
-713.718	-56.819	0.120	0.053
-712.704	369.837	0.082	0.167
-711.689	584.915	-0.041	-0.102
-710.675	-144.989	-0.255	-0.023
-709.660	63.195	0.054	0.055
-708.645	23.543	-0.119	-0.098
-707.631	800.000	0.041	0.164
-706.616	-8.918	-0.185	-0.125
-705.602	5.031	-0.141	0.104
-704.587	-103.306	-0.250	0.059
-703.572	96.698	0.126	-0.144
-702.558	-200.000	0.077	0.413
-701.543	-200.000	-0.013	0.242
-700.529	479.282	-0.111	0.253
-699.514	-27.022	-0.034	-0.020
-698.499	-135.891	-0.171	0.020
-697.485	-200.000	-0.001	0.127
-696.470	36.839	0.191	-0.169
-695.456	1.282	-0.050	0.036
-694.441	800.000	-0.056	-0.233
-693.426	9.871	-0.306	-0.233
-692.412	-75.804	0.250	-0.089
-691.397	330.736	-0.225	-0.435
-690.383	-46.079	0.015	0.007
-689.368	32.842	0.230	0.200
-688.354	59.438	0.197	-0.195
-687.339	800.000	-0.102	0.350
-686.324	-84.318	-0.152	-0.048
-685.310	-21.307	-0.151	0.092
-684.295	-200.000	-0.091	-0.411
-683.281	-95.651	0.131	-0.035
-682.266	-54.765	0.412	0.187
-681.251	-200.000	-0.072	-0.369
-680.237	-200.000	-0.052	-0.353
-679.222	603.095	-0.077	-0.192
-678.208	2.290	0.070	0.051
-677.193	90.634	0.126	-0.142
-676.178	-35.370	0.224	0.122
-675.164	171.687	-0.067	-0.096
-674.149	-137.418	0.215	0.024
-673.135	-90.023	-0.114	0.033
-672.120	-89.389	-0.043	-0.013
-671.105	-200.000	-0.070	0.312
-670.091	84.021	0.359	0.392
-669.076	-7.043	-0.251	0.171
-668.062	-173.850	-0.327	-0.010
-667.047	-154.759	-0.377	0.025
-666.032	-142.314	-0.163	0.016
-665.018	310.439	0.124	-0.233
-664.003	-200.000	-0.008	0.304
-662.989	53.249	-0.138	-0.133
-661.974	-114.179	0.287	0.056
-660.959	-162.016	-0.104	-0.005
-659.945	-107.265	0.214	-0.047
-658.930	116.067	-0.224	-0.274
-657.916	-200.000	-0.026	-0.127
-656.901	-41.542	0.257	0.133
-655.886	101.611	0.143	-0.167
-654.872	-200.000	0.010	-0.128
-653.857	-200.000	-0.030	-0.270
-652.843	157.756	0.056	-0.078
-651.828	-170.417	0.197	0.007
-650.814	356.251	0.106	-0.211
-649.799	-21.432	-0.186	-0.113
-648.784	80.407	-0.142	-0.153
-647.770	323.137	-0.183	0.349
-646.755	-200.000	0.034	-0.160
-645.741	-200.000	0.001	-0.128
-644.726	-56.935	-0.156	-0.069
-643.711	-0.584	0.261	0.185
-642.697	75.712	-0.119	0.126
-641.682	-109.393	-0.113	0.024
-640.668	-4.356	0.235	-0.163
-639.653	720.435	-0.072	0.192
-638.638	358.017	-0.118	0.236
-637.624	-37.144	0.143	-0.077
-636.609	98.142	-0.154	0.178
-635.595	-71.007	0.125	-0.047
-634.580	723.698	0.039	0.104
-633.565	-200.000	0.009	0.148
-632.551	356.461	0.275	-0.547
-631.536	529.960	-0.060	0.142
-630.522	213.805	-0.222	0.351
-629.507	-37.534	-0.171	0.091
-628.492	-86.502	0.056	0.017
-627.478	-200.000	-0.005	-0.230
-626.463	-164.521	-0.236	-0.011
-625.449	-200.000	-0.061	0.388
-624.434	-170.412	-0.612	0.021
-623.419	-58.291	-0.146	0.064
-622.405	-99.892	0.148	-0.037
-621.390	766.891	0.022	-0.060
-620.376	-121.965	-0.375	-0.062
-619.361	747.722	-0.020	-0.054
-618.346	-160.208	-0.147	0.008
-617.332	-200.000	0.014	0.382
-616.317	-69.551	0.089	-0.034
-615.303	-137.393	0.162	-0.018
-614.288	431.172	-0.092	0.200
-613.273	128.344	0.124	0.158
-612.259	181.159	-0.218	0.321
-611.244	-200.000	0.029	-0.147
-610.230	26.662	0.062	-0.052
-609.215	-50.661	-0.074	0.035
-608.201	133.328	-0.125	-0.161
-607.186	-200.000	-0.059	0.266
-606.171	-158.422	0.273	0.016
-605.157	-200.000	-0.027	0.206
-604.142	315.588	0.048	0.091
-603.128	-153.870	0.162	0.011
-602.113	258.835	-0.067	-0.115
-601.098	98.806	-0.206	-0.237
-600.084	16.128	-0.407	-0.321
-599.069	-200.000	0.107	0.488
-598.055	-200.000	-0.001	-0.082
-597.040	173.685	-0.255	-0.367
-596.025	800.000	-0.017	-0.057
-595.011	3.897	-0.186	-0.135
-593.996	-49.657	0.216	-0.103
-592.982	37.114	-0.153	0.136
-591.967	-99.631	-0.091	-0.023
-590.952	-44.964	-0.345	-0.172
-589.938	-44.463	-0.086	0.043
-588.923	23.826	-0.184	-0.152
-587.909	-200.000	-0.017	0.080
-586.894	71.022	0.061	0.063
-585.879	230.819	0.233	-0.381
-584.865	-42.003	0.267	-0.137
-583.850	-134.268	-0.155	0.019
-582.836	-200.000	-0.000	0.057
-581.821	-94.382	-0.106	0.029
-580.806	-131.677	-0.279	-0.037
-579.792	313.135	0.083	0.156
-578.777	-125.242	0.158	-0.024
-577.763	800.000	0.035	0.110
-576.748	114.964	-0.132	0.160
-575.733	-157.553	-0.212	0.013
-574.719	25.079	0.125	-0.104
-573.704	-200.000	0.018	0.167
-572.690	-200.000	-0.054	-0.325
-571.675	-12.866	0.206	-0.134
-570.661	618.656	0.010	0.025
-569.646	-78.474	0.189	0.064
-568.631	-200.000	-0.011	-0.245
-567.617	-16.160	0.190	-0.120
-566.602	-75.529	0.285	0.101
-565.588	39.414	-0.057	-0.051
-564.573	-69.968	0.143	-0.054
-563.558	295.480	0.063	-0.115
-562.544	800.000	-0.031	0.119
-561.529	800.000	-0.069	-0.227
-560.515	-200.000	0.024	0.239
-559.500	81.246	-0.242	0.260
-558.485	800.000	0.043	-0.169
-557.471	175.014	-0.166	-0.240
-556.456	376.315	0.167	0.340
-555.442	-200.000	0.062	-0.426
-554.427	-200.000	0.056	-0.249
-553.412	-172.547	0.106	-0.003
-552.398	-187.973	-0.200	-0.003
-551.383	800.000	0.064	-0.220
-550.369	175.354	0.168	-0.242
-549.354	12.771	0.210	-0.162
-548.339	120.097	-0.324	-0.401
-547.325	41.773	-0.088	0.079
-546.310	-179.325	0.381	0.008
-545.296	-200.000	0.010	0.482
-544.281	192.767	-0.192	-0.290
-543.266	102.855	0.183	0.214
-542.252	20.130	-0.182	-0.146
-541.237	-106.469	0.238	0.053
-540.223	-104.444	0.032	-0.007
-539.208	-200.000	0.025	-0.114
-538.193	-111.898	-0.033	-0.007
-537.179	212.558	0.130	0.205
-536.164	119.799	0.170	-0.210
-535.150	-30.713	0.063	-0.036
-534.135	-200.000	-0.024	0.141
-533.121	-157.383	0.229	-0.014
-532.106	14.502	-0.237	0.184
-531.091	45.354	-0.112	-0.103
-530.077	-200.000	-0.219	-0.001
-529.062	-124.623	0.074	-0.011
-528.048	800.000	-0.030	0.109
-527.033	800.000	0.034	-0.135
-526.018	133.531	0.152	0.196
-525.004	-200.000	-0.083	0.364
-523.989	-200.000	0.056	-0.279
-522.975	800.000	0.060	0.185
-521.960	-74.099	-0.232	0.084
-520.945	80.977	0.131	-0.141
-519.931	-200.000	0.075	-0.373
-518.916	-123.162	-0.089	0.014
-517.902	-200.000	0.008	-0.059
-516.887	-200.000	-0.003	0.370
-515.872	-31.044	0.199	-0.112
-514.858	549.762	0.082	-0.195
-513.843	-45.217	-0.399	0.197
-512.829	-200.000	0.079	0.349
-511.814	-104.539	-0.162	0.037
-510.799	-99.922	0.071	0.018
-509.785	-200.000	-0.022	-0.150
-508.770	-200.000	0.020	0.183
-507.756	-200.000	0.020	0.210
-506.741	86.573	0.079	0.087
-505.726	800.000	-0.047	-0.164
-504.712	354.293	-0.114	0.225
-503.697	25.438	0.100	0.083
-502.683	-200.000	-0.039	-0.213
-501.668	800.000	-0.057	-0.192
-500.653	-8.094	0.210	0.141
-499.639	-200.000	-0.026	-0.150
-498.624	-57.491	0.277	-0.121
-497.610	-98.196	-0.217	-0.055
-496.595	-200.000	0.010	-0.183
-495.581	53.218	-0.186	0.177
-494.566	-175.875	0.640	0.017
-493.551	61.880	-0.081	0.080
-492.537	800.000	0.082	0.268
-491.522	238.894	0.192	0.318
-490.508	-67.184	-0.174	0.068
-489.493	-90.305	-0.226	0.065
-488.478	38.202	-0.037	0.033
-487.464	-200.000	-0.014	-0.090
-486.449	320.713	-0.056	-0.105
-485.435	-48.089	0.210	0.101
-484.420	-13.403	-0.071	-0.046
-483.405	-7.527	0.056	0.038
-482.391	326.874	-0.118	0.225
-481.376	-80.431	-0.308	-0.102
-480.362	103.534	0.145	0.169
-479.347	12.467	-0.089	-0.068
-478.332	-123.621	-0.161	-0.025
-477.318	141.451	0.126	-0.165
-476.303	800.000	-0.060	0.233
-475.289	-38.218	-0.303	0.159
-474.274	-27.113	-0.178	0.103
-473.259	-102.915	0.315	0.074
-472.245	-62.610	0.457	0.189
-471.230	-200.000	-0.053	-0.286
-470.216	-13.953	-0.109	0.070
-469.201	90.347	0.161	0.179
-468.186	6.735	-0.135	0.100
-467.172	13.670	0.268	-0.207
-466.157	40.159	-0.164	-0.147
-465.143	72.781	-0.262	-0.272
-464.128	90.677	0.311	0.346
-463.113	800.000	0.155	-0.659
-462.099	35.244	0.254	-0.221
-461.084	31.381	0.177	0.151
-460.070	341.803	-0.148	0.287
-459.055	80.120	0.312	-0.333
-458.040	-200.000	0.001	-0.138
-457.026	565.058	0.042	-0.100
-456.011	123.192	0.166	0.206
-454.997	224.141	-0.117	-0.188
-453.982	800.000	0.120	-0.479
-452.968	550.472	-0.089	0.212
-451.953	451.705	-0.083	-0.182
-450.938	-45.759	0.058	0.029
-449.924	554.146	0.075	0.179
-448.909	800.000	-0.032	-0.118
-447.895	-200.000	0.000	0.300
-446.880	-146.821	-0.349	-0.030
-445.865	-139.713	-0.228	-0.024
-444.851	753.874	0.077	-0.208
-443.836	-200.000	-0.003	0.058
-442.822	109.882	0.113	0.134
-441.807	-122.779	-0.307	-0.049
-440.792	-114.685	-0.172	-0.033
-439.778	-38.812	0.249	0.130
-438.763	-43.551	0.215	0.107
-437.749	800.000	0.046	-0.141
-436.734	-200.000	-0.030	-0.131
-435.719	-200.000	0.008	0.090
-434.705	46.914	-0.345	-0.319
-433.690	50.997	0.193	0.182
-432.676	58.776	0.190	0.185
-431.661	800.000	0.068	0.199
-430.646	-103.982	0.157	0.036
-429.632	200.830	-0.147	0.224
-428.617	204.330	0.064	0.099
-427.603	191.431	-0.240	0.359
-426.588	-200.000	0.004	0.075
-425.573	-59.358	-0.185	-0.079
-424.559	121.202	-0.045	0.055
-423.544	-32.514	0.280	-0.155
-422.530	-200.000	0.007	0.171
-421.515	-18.581	0.123	-0.076
-420.500	-65.039	0.304	-0.122
-419.486	-40.666	0.211	0.109
-418.471	74.159	-0.212	0.221
-417.457	-200.000	-0.032	-0.264
-416.442	34.644	0.039	-0.034
-415.428	-96.426	-0.328	-0.086
-414.413	606.819	-0.046	0.115
-413.398	800.000	0.038	0.124
-412.384	6.993	0.166	0.123
-411.369	-10.152	-0.177	-0.117
-410.355	-110.659	0.516	-0.106
-409.340	-164.108	0.183	0.008
-408.325	-71.499	-0.445	0.165
-407.311	138.817	-0.085	-0.111
-406.296	-200.000	-0.018	0.117
-405.282	-172.261	-0.320	-0.010
-404.267	-31.652	0.109	0.060
-403.252	-20.465	-0.210	-0.128
-402.238	-125.818	0.256	-0.038
-401.223	800.000	-0.066	0.252
-400.209	86.805	-0.155	0.169
-399.194	-93.484	-0.406	-0.111
-398.179	-75.550	0.030	-0.011
-397.165	800.000	-0.078	-0.255
-396.150	-200.000	0.008	0.084
-395.136	800.000	-0.018	0.076
-394.121	-49.911	-0.258	-0.122
-393.106	147.340	0.188	-0.251
-392.092	800.000	0.058	-0.187
-391.077	-200.000	-0.027	-0.152
-390.063	256.787	-0.005	0.008
-389.048	-200.000	0.005	-0.076
-388.033	208.761	-0.153	0.238
-387.019	-200.000	0.013	-0.093
-386.004	-55.292	0.087	0.039
-384.990	-4.608	-0.085	-0.058
-383.975	-44.875	-0.149	-0.074
-382.960	-20.172	-0.266	-0.163
-381.946	-200.000	-0.065	0.321
-380.931	-51.814	-0.281	0.130
-379.917	56.281	-0.091	-0.087
-378.902	-95.059	0.207	-0.055
-377.888	42.815	0.321	0.290
-376.873	-17.874	-0.319	-0.198
-375.858	-118.522	-0.109	-0.019
-374.844	-32.313	-0.326	0.180
-373.829	389.674	0.104	-0.213
-372.815	151.401	0.122	-0.165
-371.800	-118.739	-0.181	-0.031
-370.785	-19.778	0.305	-0.187
-369.771	17.081	-0.330	0.259
-368.756	-155.974	0.129	0.008
-367.742	22.069	0.148	0.119
-366.727	-200.000	-0.009	0.155
-365.712	-26.179	-0.070	-0.041
-364.698	800.000	-0.117	0.407
-363.683	-55.358	-0.431	-0.191
-362.669	210.279	0.129	-0.201
-361.654	-95.119	-0.211	-0.056
-360.639	181.758	0.138	-0.201
-359.625	-78.305	0.224	-0.076
-358.610	800.000	-0.007	-0.025
-357.596	483.773	-0.094	0.212
-356.581	12.940	0.260	0.199
-355.566	393.609	0.081	0.167
-354.552	800.000	0.069	0.212
-353.537	-200.000	-0.044	-0.223
-352.523	165.461	-0.083	-0.116
-351.508	75.844	0.036	0.038
-350.493	-113.193	-0.108	-0.021
-349.479	-89.989	-0.107	-0.031
-348.464	-149.240	0.202	0.016
-347.450	295.964	0.091	-0.165
-346.435	709.765	-0.015	-0.038
-345.420	-130.895	0.111	-0.015
-344.406	800.000	-0.077	-0.291
-343.391	109.793	0.292	-0.346
-342.377	-128.118	0.113	-0.016
-341.362	20.563	-0.269	0.215
-340.348	548.505	0.132	-0.312
-339.333	-19.510	-0.078	0.048
-338.318	-53.991	-0.045	-0.020
-337.304	211.817	-0.127	-0.199
-336.289	-0.324	-0.054	-0.038
-335.275	75.369	-0.123	-0.129
-334.260	290.914	-0.099	0.178
-333.245	-85.444	0.034	-0.010
-332.231	364.934	0.144	-0.286
-331.216	-200.000	0.003	0.157
-330.202	-149.753	0.093	0.007
-329.187	164.495	0.048	0.066
-328.172	266.399	0.128	-0.221
-327.158	-200.000	0.072	-0.321
-326.143	251.272	0.037	-0.062
-325.129	-136.408	0.283	-0.033
-324.114	-8.884	0.029	0.019
-323.099	-200.000	-0.010	0.250
-322.085	42.374	0.053	-0.047
-321.070	126.690	-0.192	-0.240
-320.056	-200.000	-0.006	0.146
-319.041	-65.037	0.354	-0.141
-318.026	141.540	0.126	-0.164
-317.012	-67.715	-0.029	-0.011
-315.997	-76.799	0.266	0.092
-314.983	-200.000	0.032	0.172
-313.968	462.286	-0.088	-0.193
-312.953	-200.000	-0.009	0.041
-311.939	-16.548	0.101	-0.063
-310.924	-59.130	0.221	-0.094
-309.910	-200.000	-0.030	-0.318
-308.895	-200.000	-0.010	-0.180
-307.880	223.415	-0.143	0.228
-306.866	800.000	0.037	-0.138
-305.851	-200.000	-0.054	-0.297
-304.837	-44.442	0.238	-0.118
-303.822	800.000	-0.075	-0.326
-302.807	-10.606	0.204	0.133
-301.793	520.341	0.089	0.206
-300.778	800.000	0.037	-0.148
-299.764	-28.933	0.018	0.010
-298.749	50.226	0.092	0.086
-297.735	27.811	-0.109	0.091
-296.720	800.000	-0.030	0.101
-295.705	52.389	0.207	0.195
-294.691	-59.661	-0.260	0.110
-293.676	-200.000	-0.045	-0.383
-292.662	-200.000	0.013	-0.245
-291.647	800.000	0.035	0.108
-290.632	-100.142	-0.389	0.096
-289.618	-200.000	0.008	0.158
-288.603	-100.088	-0.151	-0.037
-287.589	-118.646	0.146	-0.025
-286.574	-200.000	-0.009	-0.077
-285.559	110.192	0.197	-0.233
-284.545	-200.000	-0.053	0.290
-283.530	-12.034	0.225	0.146
-282.516	307.991	0.077	0.143
-281.501	-37.294	0.295	-0.156
-280.486	-200.000	0.048	0.219
-279.472	-120.483	0.184	-0.031
-278.457	-13.871	0.289	-0.184
-277.443	-200.000	-0.008	0.183
-276.428	-59.846	-0.152	-0.064
-275.413	-200.000	-0.007	0.062
-274.399	530.571	-0.032	0.075
-273.384	475.627	-0.072	-0.161
-272.370	-63.087	-0.112	-0.046
-271.355	132.432	-0.323	0.410
-270.340	1.489	-0.134	0.095
-269.326	-147.731	0.065	0.005
-268.311	52.586	0.234	0.220
-267.297	-47.114	-0.126	0.061
-266.282	-200.000	-0.010	0.336
-265.267	-117.880	-0.228	0.040
-264.253	34.161	0.242	-0.208
-263.238	800.000	0.045	0.155
-262.224	-200.000	0.022	-0.122
-261.209	25.648	-0.242	0.199
-260.195	-200.000	0.008	-0.134
-259.180	-107.163	0.153	0.033
-258.165	-79.090	-0.216	-0.072
-257.151	181.801	0.024	-0.034
-256.136	25.085	-0.139	0.114
-255.122	1.318	-0.244	-0.173
-254.107	117.502	0.115	-0.140
-253.092	800.000	0.035	0.119
-252.078	800.000	0.044	0.168
-251.063	-99.567	0.055	0.014
-250.049	-22.170	0.058	0.035
-249.034	-26.625	-0.350	0.202
-248.019	229.992	-0.093	-0.150
-247.005	255.784	-0.149	-0.251
-245.990	-84.439	0.414	0.129
-244.976	-131.649	-0.277	0.036
-243.961	-28.257	0.196	0.112
-242.946	7.666	0.028	-0.021
-241.932	-25.953	0.308	-0.178
-240.917	-6.561	-0.286	-0.192
-239.903	-148.689	0.164	-0.013
-238.888	-160.112	-0.193	0.010
-237.873	-200.000	-0.014	0.258
-236.859	311.173	0.143	0.264
-235.844	-150.020	0.212	0.016
-234.830	132.532	0.158	-0.200
-233.815	-157.095	0.315	-0.019
-232.800	800.000	0.005	0.016
-231.786	-6.229	0.052	0.035
-230.771	-93.990	-0.179	-0.048
-229.757	-96.286	-0.174	0.045
-228.742	-55.013	0.353	0.156
-227.727	73.217	0.085	-0.087
-226.713	112.906	-0.167	-0.199
-225.698	800.000	0.048	0.145
-224.684	19.267	-0.166	-0.131
-223.669	0.932	0.284	0.200
-222.655	297.401	0.063	0.114
-221.640	10.360	0.136	0.102
-220.625	-56.282	0.018	0.008
-219.611	-200.000	-0.029	0.130
-218.596	298.179	0.170	0.307
-217.582	34.737	0.074	0.064
-216.567	-84.825	-0.166	-0.051
-215.552	-50.372	0.228	0.106
-214.538	257.351	0.052	0.088
-213.523	800.000	0.075	-0.240
-212.509	-50.756	-0.151	-0.070
-211.494	-26.925	-0.072	-0.041
-210.479	16.048	0.113	-0.087
-209.465	262.600	-0.210	-0.358
-208.450	-200.000	-0.035	0.227
-207.436	7.536	-0.174	0.128
-206.421	120.422	0.040	0.049
-205.406	533.220	0.172	0.401
-204.392	10.550	-0.199	-0.149
-203.377	-146.701	0.261	0.022
-202.363	-200.000	0.003	-0.154
-201.348	800.000	-0.087	-0.299
-200.333	-137.547	-0.101	0.011
-199.319	-200.000	-0.033	-0.233
-198.304	198.118	0.075	0.113
-197.290	800.000	-0.090	0.321
-196.275	800.000	0.039	0.110
-195.260	-31.284	-0.141	0.078
-194.246	93.138	0.122	-0.136
-193.231	99.506	-0.090	0.102
-192.217	800.000	0.087	0.264
-191.202	7.442	-0.127	-0.093
-190.187	-200.000	0.037	-0.180
-189.173	-123.769	-0.081	0.013
-188.158	-160.835	-0.276	-0.014
-187.144	362.158	-0.067	-0.133
-186.129	-200.000	0.023	0.100
-185.114	-141.865	0.265	0.026
-184.100	72.891	0.067	-0.069
-183.085	-200.000	0.015	-0.165
-182.071	-36.880	-0.250	0.132
-181.056	-200.000	-0.042	-0.212
-180.042	-98.772	-0.153	0.038
-179.027	-18.788	0.308	0.188
-178.012	-200.000	0.021	0.202
-176.998	-59.394	0.323	0.136
-175.983	-65.902	0.199	0.078
-174.969	-166.384	-0.264	-0.011
-173.954	-47.817	0.187	0.089
-172.939	-74.542	-0.350	0.124
-171.925	273.186	-0.054	0.094
-170.910	-133.978	0.269	0.033
-169.896	-55.156	-0.305	-0.135
-168.881	39.428	0.137	-0.121
-167.866	-200.000	-0.016	0.141
-166.852	-200.000	-0.021	0.118
-165.837	19.057	0.237	0.187
-164.823	19.701	-0.146	0.115
-163.808	773.998	-0.041	-0.109
-162.793	-157.200	-0.278	0.017
-161.779	-80.295	0.187	-0.061
-160.764	-106.969	-0.251	0.055
-159.750	-200.000	0.072	-0.360
-158.735	9.143	-0.103	-0.077
-157.720	186.835	0.176	-0.257
-156.706	632.887	-0.082	-0.205
-155.691	560.571	0.029	0.068
-154.677	800.000	-0.124	0.366
-153.662	142.407	0.224	-0.291
-152.647	15.813	0.281	-0.217
-151.633	-176.594	0.215	0.005
-150.618	-200.000	0.036	0.268
-149.604	-90.342	0.190	-0.054
-148.589	321.010	-0.191	-0.357
-147.574	-4.764	-0.129	0.087
-146.560	-134.126	0.335	-0.041
-145.545	-138.572	0.206	-0.022
-144.531	178.743	0.027	-0.038
-143.516	-183.181	0.116	-0.002
-142.502	581.036	0.153	-0.367
-141.487	-110.224	0.457	0.093
-140.472	-186.750	0.201	0.003
-139.458	-119.632	0.335	-0.057
-138.443	-137.397	-0.140	0.016
-137.429	45.511	0.255	-0.231
-136.414	-200.000	0.011	0.122
-135.399	31.550	-0.299	-0.252
-134.385	102.988	-0.123	-0.142
-133.370	-95.844	0.315	0.083
-132.356	-200.000	0.023	0.188
-131.341	-49.543	0.080	-0.037
-130.326	250.975	-0.110	0.183
-129.312	541.423	0.068	-0.160
-128.297	-19.116	0.276	-0.168
-127.283	0.894	-0.320	-0.225
-126.268	-168.220	0.307	0.012
-125.253	251.972	-0.171	-0.285
-124.239	-200.000	-0.014	0.221
-123.224	749.314	-0.088	-0.232
-122.210	-85.047	0.016	0.005
-121.195	-129.909	-0.194	-0.026
-120.180	-140.663	-0.308	0.031
-119.166	-21.634	0.218	0.130
-118.151	-79.279	-0.370	0.123
-117.137	-92.244	-0.297	-0.082
-116.122	800.000	0.048	-0.172
-115.107	-150.011	-0.040	0.003
-114.093	267.100	-0.179	0.307
-113.078	800.000	-0.019	-0.069
-112.064	55.632	0.135	-0.128
-111.049	-200.000	-0.009	0.201
-110.034	800.000	0.057	-0.186
-109.020	-111.206	-0.128	-0.026
-108.005	373.111	0.045	0.089
-106.991	-200.000	-0.002	0.254
-105.976	-86.915	-0.398	0.119
-104.962	800.000	0.084	0.227
-103.947	-102.558	0.196	0.046
-102.932	-66.845	0.091	-0.035
-101.918	85.703	-0.149	0.160
-100.903	-17.799	0.281	-0.173
-99.889	800.000	0.068	-0.292
-98.874	154.242	0.103	-0.138
-97.859	-200.000	-0.001	0.311
-96.845	275.180	0.067	0.116
-95.830	-200.000	0.003	0.182
-94.816	13.309	-0.081	0.061
-93.801	-49.473	0.235	0.110
-92.786	-200.000	0.053	-0.492
-91.772	92.298	-0.269	0.297
-90.757	-200.000	0.078	0.387
-89.743	800.000	0.076	0.217
-88.728	85.158	0.336	0.361
-87.713	-99.879	-0.078	-0.019
-86.699	156.100	0.089	0.120
-85.684	-98.250	0.222	-0.056
-84.670	236.952	-0.143	0.232
-83.655	-200.000	0.022	-0.155
-82.640	378.276	0.211	0.423
-81.626	-43.278	0.247	-0.122
-80.611	59.722	0.231	-0.223
-79.597	-59.758	0.226	-0.095
-78.582	-200.000	-0.018	-0.140
-77.567	-68.424	0.189	-0.072
-76.553	-200.000	-0.083	-0.361
-75.538	-54.345	-0.404	0.179
-74.524	-200.000	-0.015	-0.216
-73.509	800.000	0.106	0.297
-72.494	-128.181	0.204	0.029
-71.480	-200.000	0.002	-0.025
-70.465	-173.287	-0.107	0.003
-69.451	171.255	-0.013	0.019
-68.436	46.683	0.224	-0.203
-67.422	571.752	0.066	0.157
-66.407	-81.829	-0.076	-0.024
-65.392	351.451	-0.113	0.219
-64.378	1.648	0.280	0.197
-63.363	-67.510	0.263	-0.101
-62.349	800.000	-0.062	0.169
-61.334	40.154	-1.411	-1.241
-60.319	109.434	0.609	0.714
-59.305	530.880	-0.592	-1.368
-58.290	146.179	0.917	1.204
-57.276	800.000	0.444	1.294
-56.261	-200.000	116.642	648.696
-55.246	504.231	1542.929	3491.610
-54.232	174.871	2715.777	3843.801
-53.217	106.462	2160.004	2503.926
-52.203	38.461	1593.220	1388.482
-51.188	29.985	1335.418	1113.081
-50.173	27.109	1296.837	1064.062
-49.159	53.277	1355.083	1269.312
-48.144	51.591	1368.713	1271.951
-47.130	30.163	1322.454	1103.159
-46.115	26.779	1304.928	1068.586
-45.100	26.550	1299.645	1062.877
-44.086	26.539	1297.049	1060.644
-43.071	26.318	1295.103	1057.720
-42.057	26.471	1292.283	1056.268
-41.042	26.482	1290.763	1055.048
-40.027	26.551	1289.038	1053.999
-39.013	26.492	1287.264	1052.159
-37.998	26.504	1285.700	1050.912
-36.984	26.602	1284.202	1050.210
-35.969	26.536	1282.618	1048.492
-34.954	26.656	1280.513	1047.426
-33.940	26.676	1278.745	1046.055
-32.925	26.659	1278.212	1045.475
-31.911	26.739	1276.437	1044.445
-30.896	26.713	1274.844	1042.953
-29.881	26.722	1273.769	1042.083
-28.867	26.738	1272.313	1040.941
-27.852	26.771	1270.693	1039.765
-26.838	26.760	1269.459	1038.651
-25.823	26.695	1268.071	1037.103
-24.809	26.803	1266.545	1036.428
-23.794	26.665	1265.374	1034.640
-22.779	26.658	1264.285	1033.668
-21.765	26.707	1263.016	1032.871
-20.750	26.747	1260.942	1031.363
-19.736	26.585	1260.603	1030.120
-18.721	26.666	1259.073	1029.289
-17.706	26.621	1257.931	1028.061
-16.692	26.496	1257.349	1026.836
-15.677	26.569	1256.011	1026.115
-14.663	26.568	1254.726	1025.017
-13.648	26.622	1253.956	1024.654
-12.633	26.676	1252.131	1023.429
-11.619	26.577	1252.028	1022.742
-10.604	26.590	1251.076	1021.999
-9.590	26.498	1250.332	1020.832
-8.575	26.611	1249.036	1020.369
-7.560	26.583	1247.929	1019.267
-6.546	26.559	1247.492	1018.738
-5.531	26.419	1246.904	1017.428
-4.517	26.491	1245.688	1016.801
-3.502	26.580	1244.522	1016.307
-2.487	26.493	1244.014	1015.363
-1.473	26.500	1239.475	1011.658
-0.458	24.963	1224.376	990.801
0.556	21.518	1207.972	952.555
1.571	17.764	1213.939	936.597
2.586	16.934	1228.536	943.161
3.600	16.453	1216.585	931.254
4.615	12.305	1146.220	855.743
5.629	6.145	1075.671	772.794
6.644	3.493	1059.013	747.912
7.659	3.373	1056.587	745.555
8.673	3.342	1055.802	744.784
9.688	3.452	1054.149	744.085
10.702	3.503	1052.766	743.289
11.717	7.021	1056.699	762.992
12.731	14.053	1066.416	804.059
13.746	18.625	1072.358	830.655
14.761	19.361	1073.309	834.884
15.775	18.711	1071.473	830.241
16.790	17.676	1069.498	823.637
17.804	17.029	1067.741	819.087
18.819	16.643	1066.778	816.414
19.834	16.552	1066.234	815.488
20.848	16.497	1065.450	814.551
21.863	16.172	1064.549	812.230
22.877	16.065	1063.762	811.041
23.892	16.057	1063.133	810.451
24.907	16.170	1061.869	809.958
25.921	16.010	1061.393	808.753
26.936	16.175	1059.355	807.923
27.950	16.232	1058.178	807.225
28.965	16.214	1056.678	805.923
29.980	16.310	1055.548	805.448
30.994	16.333	1054.806	804.920
32.009	16.439	1053.295	804.201
33.023	16.252	1052.604	802.712
34.038	16.286	1051.727	802.132
35.053	16.141	1050.846	800.703
36.067	16.063	1049.888	799.530
37.082	16.089	1048.970	798.887
38.096	16.298	1048.508	799.452
39.111	16.343	1047.724	798.995
40.126	16.226	1045.793	796.903
41.140	15.864	1045.007	794.521
42.155	16.062	1043.060	793.906
43.169	15.789	1042.545	792.157
44.184	15.884	1041.471	791.717
45.199	15.797	1040.776	790.710
46.213	16.042	1039.353	790.710
47.228	16.058	1038.878	790.354
48.242	16.231	1037.206	789.823
49.257	16.063	1037.111	788.892
50.271	16.186	1035.477	788.153
51.286	16.145	1034.937	787.483
52.301	16.106	1033.577	786.197
53.315	16.089	1032.829	785.478
54.330	16.085	1031.708	784.540
55.344	16.103	1030.827	783.881
56.359	15.992	1030.020	782.682
57.374	15.916	1029.396	781.790
58.388	15.912	1028.325	780.886
59.403	15.799	1027.806	779.898
60.417	15.915	1026.770	779.579
61.432	15.820	1025.779	778.321
62.447	15.759	1024.963	777.353
63.461	15.692	1024.505	776.627
64.476	15.672	1023.420	775.641
65.490	15.657	1023.250	775.375
66.505	15.649	1022.111	774.405
67.520	15.792	1021.201	774.306
68.534	15.837	1020.117	773.626
69.549	15.716	1019.635	772.634
70.563	15.730	1018.684	771.910
71.578	15.554	1018.106	770.594
72.593	15.577	1017.069	769.848
73.607	15.645	1016.194	769.429
74.622	15.622	1015.488	768.719
75.636	15.680	1014.931	768.495
76.651	15.631	1014.388	767.795
77.666	15.692	1013.363	767.226
78.680	15.641	1013.279	766.862
79.695	15.699	1012.433	766.421
80.709	15.864	1011.915	766.710
81.724	15.889	1011.230	766.240
82.739	15.988	1010.696	766.214
83.753	16.038	1010.340	766.107
84.768	16.308	1009.274	766.454
85.782	16.448	1008.044	766.088
86.797	16.335	1007.043	764.748
87.812	16.245	1006.458	763.829
88.826	16.238	1005.578	763.062
89.841	16.317	1004.708	762.690
90.855	16.325	1004.050	762.159
91.870	16.250	1003.137	761.060
92.884	16.283	1002.385	760.573
93.899	16.446	1001.278	760.396
94.914	16.553	1000.042	759.874
95.928	16.422	999.608	758.887
96.943	16.297	998.481	757.405
97.957	16.162	998.279	756.579
98.972	16.195	997.322	755.933
99.987	16.173	996.576	755.203
101.001	16.239	995.564	754.667
102.016	16.208	994.648	753.764
103.030	16.308	993.639	753.382
104.045	16.246	992.882	752.462
105.060	16.076	992.264	751.171
106.074	15.979	991.139	749.819
107.089	15.833	989.877	748.151
108.103	15.817	988.916	747.289
109.118	15.881	988.069	746.866
110.133	15.911	986.822	745.991
111.147	15.864	985.779	744.929
112.162	15.974	985.522	745.153
113.176	16.065	984.493	744.712
114.191	15.939	984.110	743.800
115.206	16.099	982.911	743.535
116.220	15.947	982.060	742.152
117.235	15.999	981.490	741.887
118.249	15.976	980.637	741.074
119.264	15.994	979.283	740.064
120.279	15.840	979.274	739.317
121.293	15.825	978.176	738.354
122.308	15.746	977.296	737.279
123.322	15.774	975.654	736.098
124.337	15.798	975.063	735.691
125.352	15.766	974.146	734.796
126.366	15.724	973.129	733.780
127.381	15.785	972.309	733.361
128.395	15.844	971.016	732.580
129.410	15.813	970.580	732.053
130.424	16.019	969.509	732.073
131.439	15.906	969.232	731.309
132.454	15.941	968.167	730.593
133.468	16.127	966.975	730.435
134.483	16.001	966.292	729.309
135.497	15.917	965.691	728.428
136.512	16.071	964.678	728.265
137.527	15.966	964.064	727.283
138.541	16.072	962.948	726.832
139.556	16.057	962.540	726.395
140.570	16.170	962.005	726.417
141.585	16.271	961.257	726.221
142.600	16.465	959.828	725.908
143.614	16.577	959.490	726.071
144.629	16.358	959.183	724.834
145.643	16.248	958.057	723.449
146.658	16.233	956.769	722.348
147.673	16.255	955.721	721.585
148.687	16.212	954.910	720.728
149.702	16.003	954.543	719.492
150.716	16.153	953.399	719.208
151.731	16.131	952.992	718.743
152.746	16.197	952.278	718.423
153.760	16.182	951.442	717.663
154.775	16.321	951.080	717.916
155.789	16.438	950.303	717.764
156.804	16.282	949.772	716.640
157.819	16.297	949.105	716.136
158.833	16.457	948.490	716.285
159.848	16.572	947.419	715.901
160.862	16.412	946.190	714.233
161.877	16.284	945.050	712.769
162.892	16.191	944.149	711.633
163.906	16.257	943.073	711.039
164.921	16.055	942.776	709.898
165.935	16.282	941.639	709.934
166.950	16.312	940.671	709.267
167.964	16.479	939.304	708.876
168.979	16.166	938.988	707.263
169.994	16.499	937.717	707.636
171.008	16.376	937.537	706.924
172.023	16.446	937.007	706.752
173.037	16.564	936.249	706.611
174.052	16.462	935.555	705.603
175.067	16.206	935.086	704.118
176.081	16.125	934.510	703.281
177.096	16.184	933.879	702.991
178.110	16.099	933.186	702.053
179.125	16.307	932.405	702.269
180.140	16.282	932.210	701.958
181.154	16.342	931.817	701.848
182.169	16.549	931.241	702.210
183.183	16.443	931.020	701.543
184.198	16.568	929.966	701.206
185.213	16.606	929.025	700.588
186.227	16.560	928.799	700.167
187.242	16.657	928.104	699.981
188.256	16.682	927.976	699.929
189.271	16.829	926.516	699.372
190.286	16.573	925.409	697.417
191.300	16.275	924.770	695.645
192.315	16.138	924.379	694.726
193.329	16.186	924.002	694.580
194.344	16.317	923.275	694.512
195.359	16.481	922.460	694.508
196.373	16.555	921.834	694.283
197.388	16.635	921.799	694.521
198.402	16.824	921.287	694.848
199.417	16.811	920.644	694.251
200.432	16.905	920.003	694.089
201.446	16.957	919.561	693.908
202.461	17.140	919.121	694.263
203.475	16.822	918.950	692.773
204.490	16.780	917.604	691.524
205.504	16.784	917.068	691.075
206.519	16.728	916.098	690.054
207.534	16.762	915.504	689.685
208.548	16.795	914.875	689.285
209.563	16.843	913.727	688.553
210.577	16.878	913.317	688.327
211.592	16.912	913.177	688.297
212.607	16.904	912.771	687.898
213.621	16.918	911.596	687.010
214.636	16.908	910.774	686.289
215.650	17.099	909.858	686.308
216.665	16.992	909.545	685.579
217.680	17.066	908.961	685.376
218.694	17.131	908.409	685.162
219.709	17.127	907.674	684.531
220.723	17.222	906.794	684.191
221.738	17.133	905.918	683.111
222.753	17.174	905.316	682.763
223.767	17.220	905.284	682.864
224.782	17.157	904.677	682.089
225.796	17.209	904.125	681.824
226.811	17.135	903.234	680.792
227.826	17.121	902.453	680.088
228.840	17.138	901.636	679.481
229.855	17.083	901.005	678.727
230.869	16.993	900.284	677.762
231.884	17.061	899.471	677.361
232.899	17.040	898.683	676.625
233.913	16.985	897.702	675.609
234.928	16.907	897.333	674.958
235.942	17.016	896.519	674.719
236.957	17.097	895.898	674.516
237.972	16.927	895.795	673.703
238.986	17.114	894.539	673.441
240.001	16.992	894.656	672.983
241.015	17.066	893.827	672.594
242.030	17.399	892.807	673.087
243.045	17.133	893.018	672.134
244.059	17.211	892.108	671.698
245.074	17.172	891.717	671.190
246.088	17.329	890.852	671.096
247.103	17.311	890.274	670.534
248.117	17.478	890.383	671.212
249.132	17.807	889.384	671.696
250.147	17.769	888.771	671.025
251.161	17.850	887.818	670.564
252.176	17.806	887.478	670.077
253.190	17.786	887.080	669.638
254.205	17.899	886.443	669.540
255.220	17.785	885.676	668.457
256.234	17.731	885.209	667.831
257.249	17.790	884.659	667.587
258.263	17.751	883.681	666.640
259.278	17.860	883.085	666.556
260.293	18.032	882.276	666.559
261.307	18.037	881.845	666.194
262.322	17.922	881.693	665.572
263.336	17.931	880.549	664.685
264.351	18.068	879.818	664.604
265.366	18.136	879.114	664.279
266.380	18.129	878.642	663.836
267.395	17.966	877.918	662.599
268.409	17.963	877.269	662.039
269.424	17.949	876.261	661.166
270.439	18.019	875.763	661.000
271.453	17.763	875.159	659.495
272.468	17.864	874.612	659.418
273.482	17.793	873.839	658.501
274.497	17.762	873.785	658.283
275.512	17.858	872.964	657.978
276.526	17.927	872.068	657.509
277.541	17.880	871.958	657.187
278.555	18.052	871.380	657.354
279.570	18.334	870.620	657.805
280.585	18.246	869.828	656.813
281.599	18.095	869.213	655.710
282.614	18.179	868.433	655.386
283.628	18.098	867.964	654.664
284.643	18.098	867.315	654.117
285.657	18.169	866.421	653.656
286.672	18.106	865.962	653.010
287.687	18.223	865.269	652.876
288.701	18.002	865.075	651.828
289.716	18.252	864.106	651.994
290.730	18.055	863.973	651.087
291.745	18.179	863.401	651.068
292.760	18.248	862.493	650.588
293.774	18.404	861.939	650.708
294.789	18.414	861.382	650.265
295.803	18.265	860.385	648.892
296.818	18.122	859.825	647.870
297.833	18.287	859.023	647.834
298.847	18.251	858.569	647.295
299.862	18.300	857.900	646.922
300.876	18.414	857.740	647.174
301.891	18.440	857.495	647.028
302.906	18.491	856.677	646.548
303.920	18.611	856.720	646.974
304.935	18.623	855.326	645.911
305.949	18.646	854.845	645.576
306.964	18.522	854.251	644.603
307.979	18.499	853.873	644.177
308.993	18.686	853.496	644.536
310.008	18.665	852.791	643.869
311.022	18.588	851.928	642.872
312.037	18.542	851.541	642.348
313.052	18.377	850.878	641.176
314.066	18.294	850.047	640.184
315.081	18.570	849.211	640.529
316.095	18.480	848.538	639.626
317.110	18.312	848.641	639.022
318.125	18.517	847.556	638.912
319.139	18.324	847.692	638.239
320.154	18.331	846.895	637.607
321.168	18.407	846.311	637.394
322.183	18.502	845.853	637.344
323.197	18.515	845.444	637.028
324.212	18.407	844.821	636.103
325.227	18.402	844.620	635.877
326.241	18.367	843.867	635.124
327.256	18.369	843.252	634.610
328.270	18.452	842.456	634.266
329.285	18.363	842.300	633.761
330.300	18.318	841.630	633.034
331.314	18.474	841.363	633.354
332.329	18.565	840.471	632.962
333.343	18.651	840.330	633.116
334.358	18.763	839.657	632.966
335.373	18.761	839.243	632.591
336.387	18.777	838.876	632.318
337.402	18.738	838.897	632.136
338.416	18.815	838.834	632.313
339.431	18.966	838.188	632.326
340.446	19.138	837.680	632.519
341.460	19.028	837.482	631.911
342.475	19.149	836.715	631.721
343.489	19.081	836.331	631.124
344.504	19.146	836.061	631.105
345.519	19.208	835.603	630.928
346.533	19.207	834.789	630.254
347.548	18.939	834.509	629.009
348.562	18.801	833.671	627.815
349.577	18.796	832.974	627.217
350.592	18.898	832.408	627.107
351.606	18.728	831.902	626.050
352.621	18.845	831.459	626.089
353.635	18.994	830.531	625.878
354.650	18.782	830.166	624.773
355.665	18.927	829.509	624.753
356.679	19.101	828.458	624.535
357.694	19.048	828.069	623.997
358.708	19.085	827.523	623.664
359.723	18.978	827.006	622.832
360.738	19.072	826.282	622.572
361.752	19.200	825.820	622.631
362.767	19.234	825.655	622.575
363.781	19.200	824.916	621.838
364.796	19.289	824.620	621.880
365.810	19.498	824.049	622.149
366.825	19.534	823.762	622.007
367.840	19.513	823.168	621.429
368.854	19.497	822.855	621.081
369.869	19.374	822.223	620.105
370.883	19.412	821.842	619.900
371.898	19.545	821.158	619.805
372.913	19.591	820.884	619.711
373.927	19.481	820.555	619.010
374.942	19.412	820.287	618.506
375.956	19.592	819.774	618.711
376.971	19.636	819.351	618.495
377.986	19.794	818.886	618.654
379.000	19.846	818.415	618.428
380.015	19.594	817.836	617.038
381.029	19.598	817.224	616.535
382.044	19.686	816.957	616.593
383.059	19.773	815.954	616.092
384.073	19.553	815.543	614.941
385.088	19.578	814.914	614.504
386.102	19.538	813.801	613.467
387.117	19.479	813.610	613.059
388.132	19.441	813.337	612.664
389.146	19.473	812.794	612.314
390.161	19.625	812.264	612.400
391.175	19.722	811.737	612.293
392.190	19.714	811.292	611.876
393.205	19.586	810.571	610.825
394.219	19.542	810.382	610.472
395.234	19.518	809.800	609.896
396.248	19.406	809.328	609.088
397.263	19.404	808.645	608.514
398.278	19.445	808.465	608.469
399.292	19.444	807.991	608.055
400.307	19.535	807.738	608.132
401.321	19.554	806.923	607.532
402.336	19.601	806.486	607.312
403.350	19.561	806.498	607.130
404.365	19.655	806.201	607.181
405.380	19.828	805.768	607.411
406.394	19.890	804.803	606.847
407.409	19.920	804.877	606.954
408.423	19.976	804.488	606.802
409.438	20.198	803.883	607.070
410.453	19.865	803.835	605.814
411.467	20.137	803.284	606.297
412.482	20.110	802.547	605.590
413.496	20.109	802.492	605.492
414.511	20.134	802.013	605.165
415.526	20.113	801.529	604.673
416.540	20.179	800.952	604.414
417.555	20.064	800.815	603.858
418.569	20.234	799.765	603.604
419.584	20.286	799.703	603.684
420.599	20.212	799.077	602.901
421.613	162.486	1372.077	1798.506
422.628	141.058	1455.549	1798.582
