DTS Sentinel unit serial number:	SN413079Multiplexer serial number:	ORYXHardware model number:	OX4-SRSoftware version number:	ORYX F/W v4.00 Oryx Data Collector v3.7.2.0data status	okinstallation	princeton_trtdifferential loss correction	single-endedforward channel	channel 1reverse channel	N/Adate	2019/09/18time	08:34:35forward acquisition time	60.00reverse acquisition time	0.00gamma	496.2192k internal	0.2337k external	0.2337temperature offset calibration	0.9977default loss term (dB/km)	0.3790temperature slope calibration	1.0000multiplexer offset coefficient	1.0000multiplexer slope coefficient	1.0000fibre end	0.00T internal ref (°C)	24.41T ext. ref 1 (°C)	0.22T ext. ref 2 (°C)	20.16length (m)	temperature (°C)	Stokes	anti-Stokes-747.200	-200.000	-0.038	-0.210
-746.185	17.324	-0.098	-0.078
-745.171	-105.391	0.296	0.068
-744.156	800.000	0.052	0.205
-743.142	-90.114	-0.487	-0.142
-742.127	166.095	-0.079	0.113
-741.112	507.168	0.154	0.360
-740.098	46.756	-0.138	0.129
-739.083	-200.000	0.016	-0.195
-738.069	-168.387	0.220	0.008
-737.054	-126.204	0.234	0.035
-736.039	-200.000	-0.351	-0.000
-735.025	-61.688	0.333	-0.140
-734.010	235.251	-0.211	0.350
-732.996	15.595	-0.181	-0.143
-731.981	235.192	-0.106	-0.176
-730.966	106.277	-0.120	0.143
-729.952	186.937	-0.222	-0.331
-728.937	800.000	0.075	-0.313
-727.923	800.000	-0.116	-0.367
-726.908	800.000	0.021	0.065
-725.894	71.119	0.079	0.082
-724.879	-51.863	-0.240	0.112
-723.864	-109.903	-0.266	-0.056
-722.850	96.583	-0.253	-0.291
-721.835	800.000	-0.096	-0.326
-720.821	-34.363	-0.209	-0.115
-719.806	800.000	0.102	-0.301
-718.791	-200.000	-0.014	0.185
-717.777	-200.000	-0.037	-0.197
-716.762	-111.663	0.405	-0.082
-715.748	298.835	-0.085	-0.156
-714.733	31.458	0.172	0.148
-713.718	-28.844	0.134	0.078
-712.704	137.087	0.100	-0.131
-711.689	-70.088	-0.285	-0.109
-710.675	-128.226	0.219	-0.031
-709.660	95.814	-0.278	0.318
-708.645	63.868	-0.286	0.288
-707.631	-50.148	0.130	0.062
-706.616	-22.895	0.365	0.221
-705.602	144.851	0.143	-0.191
-704.587	104.548	-0.102	-0.120
-703.572	73.768	0.253	0.266
-702.558	-95.141	-0.117	-0.032
-701.543	100.914	-0.068	-0.079
-700.529	-100.913	-0.512	-0.126
-699.514	-200.000	-0.044	-0.253
-698.499	75.303	0.133	0.140
-697.485	-153.685	-0.303	-0.021
-696.470	-127.623	-0.287	0.042
-695.456	-200.000	0.014	-0.092
-694.441	-200.000	-0.047	-0.288
-693.426	-148.664	-0.129	0.011
-692.412	-200.000	0.035	0.227
-691.397	-65.479	0.180	-0.072
-690.383	-72.986	-0.220	0.081
-689.368	800.000	-0.138	0.522
-688.354	-95.278	0.090	0.024
-687.339	137.753	-0.089	-0.117
-686.324	86.365	0.032	0.035
-685.310	-151.841	-0.055	0.004
-684.295	-182.368	-0.186	0.003
-683.281	-104.631	-0.293	0.068
-682.266	-36.561	-0.166	-0.089
-681.251	-54.036	-0.243	0.111
-680.237	60.874	-0.142	0.141
-679.222	-44.760	0.393	-0.196
-678.208	-82.681	-0.267	-0.087
-677.193	-182.239	0.168	0.003
-676.178	40.818	-0.245	-0.222
-675.164	-56.623	0.260	-0.115
-674.149	-74.005	-0.371	0.135
-673.135	800.000	0.074	0.217
-672.120	800.000	-0.149	-0.426
-671.105	38.527	0.072	0.064
-670.091	-200.000	-0.035	-0.188
-669.076	-119.846	0.064	-0.011
-668.062	772.538	0.059	-0.160
-667.047	-200.000	0.034	-0.160
-666.032	-200.000	-0.018	0.178
-665.018	-200.000	-0.010	-0.212
-664.003	65.449	-0.018	0.018
-662.989	-156.652	-0.285	-0.018
-661.974	404.783	0.079	-0.168
-660.959	-200.000	-0.014	0.066
-659.945	-200.000	-0.006	0.043
-658.930	301.351	-0.135	0.250
-657.916	158.107	-0.009	0.013
-656.901	438.889	0.069	0.151
-655.886	49.357	-0.103	-0.097
-654.872	800.000	-0.019	0.076
-653.857	-124.868	0.123	0.019
-652.843	-200.000	-0.046	-0.236
-651.828	-121.684	0.110	-0.018
-650.814	-200.000	-0.001	0.130
-649.799	-200.000	0.045	-0.236
-648.784	800.000	-0.027	0.103
-647.770	91.397	-0.069	-0.077
-646.755	598.322	-0.123	-0.304
-645.741	-131.154	0.109	0.014
-644.726	104.435	-0.153	0.180
-643.711	-36.700	-0.191	-0.102
-642.697	-132.430	-0.214	0.028
-641.682	47.596	0.253	0.236
-640.668	-200.000	-0.022	0.171
-639.653	-74.710	-0.197	-0.071
-638.638	-58.401	0.154	0.067
-637.624	800.000	0.011	0.032
-636.609	163.695	0.033	-0.047
-635.595	-142.246	0.289	0.029
-634.580	-65.672	-0.286	-0.114
-633.565	752.879	-0.121	-0.327
-632.551	-200.000	0.014	0.272
-631.536	161.877	0.110	0.154
-630.522	603.512	-0.037	-0.092
-629.507	314.665	-0.113	0.212
-628.492	-200.000	0.006	0.291
-627.478	-77.695	-0.277	-0.096
-626.463	-200.000	-0.055	-0.387
-625.449	-104.274	0.213	0.049
-624.434	153.654	-0.070	-0.096
-623.419	74.781	0.060	0.064
-622.405	-200.000	0.013	-0.098
-621.390	10.075	-0.221	-0.168
-620.376	283.311	-0.073	0.131
-619.361	-36.262	-0.032	-0.017
-618.346	-38.014	-0.227	0.120
-617.332	800.000	0.062	-0.237
-616.317	-12.537	-0.235	0.154
-615.303	-14.297	0.329	0.212
-614.288	81.570	0.253	-0.273
-613.273	441.168	0.060	-0.132
-612.259	-200.000	-0.026	-0.180
-611.244	1.300	-0.212	-0.152
-610.230	38.082	-0.136	-0.121
-609.215	-114.050	0.080	-0.015
-608.201	0.003	-0.059	-0.042
-607.186	58.076	0.196	0.192
-606.171	-123.196	-0.057	-0.009
-605.157	-34.950	-0.030	0.016
-604.142	125.984	0.113	0.143
-603.128	-200.000	-0.030	0.225
-602.113	198.907	-0.043	0.066
-601.098	800.000	0.065	-0.204
-600.084	123.515	0.175	0.219
-599.069	-200.000	0.031	-0.179
-598.055	-200.000	-0.030	-0.329
-597.040	100.188	-0.073	0.085
-596.025	-68.145	0.184	-0.072
-595.011	-200.000	-0.030	-0.409
-593.996	-146.281	0.375	-0.033
-592.982	71.919	-0.093	-0.097
-591.967	106.313	0.183	-0.216
-590.952	3.716	-0.189	0.138
-589.938	800.000	-0.064	0.197
-588.923	-200.000	-0.009	0.101
-587.909	-200.000	0.027	0.141
-586.894	-4.501	0.038	-0.027
-585.879	-38.177	0.344	0.182
-584.865	-102.882	-0.253	-0.060
-583.850	279.007	0.155	-0.277
-582.836	-130.480	-0.240	-0.032
-581.821	58.966	0.219	-0.215
-580.806	127.210	0.160	-0.202
-579.792	-200.000	0.028	0.241
-578.777	-45.132	0.231	-0.115
-577.763	800.000	0.066	0.222
-576.748	800.000	-0.030	-0.116
-575.733	800.000	-0.050	0.191
-574.719	-194.191	-0.497	0.004
-573.704	7.503	0.069	-0.051
-572.690	-130.566	0.177	-0.024
-571.675	-200.000	-0.075	0.439
-570.661	800.000	-0.033	-0.108
-569.646	278.071	0.099	-0.175
-568.631	46.987	0.185	0.172
-567.617	47.477	-0.299	-0.278
-566.602	-174.123	-0.121	-0.004
-565.588	50.783	-0.354	-0.334
-564.573	-128.595	-0.176	0.025
-563.558	-143.566	0.418	-0.040
-562.544	-200.000	0.048	-0.251
-561.529	-113.416	-0.194	0.038
-560.515	168.169	-0.067	-0.096
-559.500	154.655	-0.090	0.123
-558.485	-99.660	-0.189	-0.047
-557.471	-200.000	-0.066	0.372
-556.456	-200.000	-0.018	0.260
-555.442	85.938	0.220	-0.242
-554.427	-73.445	-0.519	-0.189
-553.412	243.029	-0.268	-0.447
-552.398	-110.997	0.130	-0.027
-551.383	536.168	0.075	0.177
-550.369	92.948	0.152	-0.171
-549.354	-200.000	-0.038	-0.228
-548.339	744.782	0.084	-0.226
-547.325	-96.012	-0.330	0.088
-546.310	-106.475	-0.320	0.071
-545.296	229.700	0.133	-0.216
-544.281	-70.906	0.169	0.064
-543.266	-119.606	-0.464	-0.080
-542.252	439.592	-0.085	0.186
-541.237	-200.000	0.008	-0.281
-540.223	-200.000	0.045	-0.414
-539.208	12.593	-0.396	-0.304
-538.193	307.818	0.138	0.255
-537.179	120.312	-0.148	0.183
-536.164	-200.000	-0.044	0.200
-535.150	148.884	-0.118	0.159
-534.135	87.913	-0.167	0.184
-533.121	64.988	0.135	-0.135
-532.106	-83.397	0.119	-0.038
-531.091	3.585	-0.142	-0.103
-530.077	-164.949	-0.183	-0.008
-529.062	25.931	0.021	0.017
-528.048	179.877	0.047	0.068
-527.033	67.965	-0.154	0.157
-526.018	-82.824	0.052	0.017
-525.004	498.135	-0.025	-0.058
-523.989	800.000	-0.070	-0.286
-522.975	800.000	-0.003	-0.013
-521.960	-200.000	-0.019	0.446
-520.945	-70.362	0.397	-0.150
-519.931	-200.000	0.040	-0.256
-518.916	138.313	-0.029	0.037
-517.902	-200.000	-0.027	-0.382
-516.887	30.187	0.127	0.108
-515.872	-200.000	-0.017	-0.193
-514.858	265.774	-0.106	-0.185
-513.843	517.763	0.093	-0.215
-512.829	-200.000	0.003	0.216
-511.814	43.128	-0.048	-0.044
-510.799	-200.000	0.022	-0.220
-509.785	46.651	-0.177	-0.163
-508.770	25.518	0.300	-0.249
-507.756	-200.000	0.048	0.236
-506.741	-200.000	-0.047	-0.290
-505.726	-163.192	0.187	0.009
-504.712	266.747	-0.005	0.008
-503.697	-144.707	0.296	0.027
-502.683	-172.160	-0.154	0.005
-501.668	205.899	0.108	0.168
-500.653	-200.000	0.030	-0.266
-499.639	1.413	-0.410	-0.293
-498.624	395.341	0.055	-0.113
-497.610	147.503	0.087	-0.117
-496.595	-200.000	-0.028	0.131
-495.581	-95.794	-0.325	0.086
-494.566	-53.767	-0.199	-0.090
-493.551	-81.635	0.445	-0.145
-492.537	-200.000	-0.010	-0.349
-491.522	102.108	-0.145	0.168
-490.508	757.375	-0.085	0.228
-489.493	800.000	-0.078	0.231
-488.478	-30.495	0.007	0.004
-487.464	17.215	0.348	0.274
-486.449	-200.000	0.020	-0.234
-485.435	161.823	0.185	-0.257
-484.420	166.882	0.016	-0.023
-483.405	38.940	0.057	0.051
-482.391	93.268	0.270	0.303
-481.376	-200.000	-0.055	0.260
-480.362	-50.575	0.141	-0.066
-479.347	-44.459	-0.264	0.131
-478.332	50.687	-0.189	0.178
-477.318	604.685	0.041	-0.102
-476.303	-120.503	-0.078	-0.013
-475.289	800.000	-0.082	0.340
-474.274	604.865	-0.135	0.333
-473.259	243.674	0.152	0.253
-472.245	163.963	0.073	0.103
-471.230	7.123	0.146	-0.108
-470.216	-31.019	0.130	0.073
-469.201	47.563	0.221	0.205
-468.186	56.916	-0.115	0.111
-467.172	11.127	0.161	-0.122
-466.157	-200.000	-0.007	0.056
-465.143	22.527	0.226	-0.183
-464.128	-178.285	-0.101	-0.002
-463.113	83.462	0.322	0.349
-462.099	127.449	-0.280	0.353
-461.084	-46.523	0.205	-0.100
-460.070	51.627	0.161	0.152
-459.055	-200.000	-0.029	-0.265
-458.040	-132.879	0.493	0.062
-457.026	-105.725	-0.380	-0.085
-456.011	-131.591	0.298	-0.039
-454.997	-187.649	-0.275	0.004
-453.982	-88.061	0.117	0.035
-452.968	212.900	-0.132	0.206
-451.953	-96.229	-0.381	0.100
-450.938	-15.188	-0.295	0.188
-449.924	-85.113	-0.218	0.068
-448.909	-87.598	0.250	0.075
-447.895	-83.120	0.274	0.087
-446.880	800.000	0.032	0.131
-445.865	-130.070	0.416	-0.056
-444.851	-35.159	-0.156	0.084
-443.836	800.000	-0.098	0.292
-442.822	800.000	0.034	0.128
-441.807	114.895	0.127	0.154
-440.792	60.762	-0.180	-0.177
-439.778	60.479	0.073	0.072
-438.763	-200.000	-0.006	0.080
-437.749	-44.714	0.254	0.126
-436.734	-181.905	-0.163	-0.003
-435.719	24.881	-0.158	0.130
-434.705	434.357	0.147	-0.316
-433.690	-200.000	0.014	-0.065
-432.676	799.806	-0.026	-0.070
-431.661	-41.620	0.034	0.017
-430.646	49.928	0.291	0.272
-429.632	-71.144	-0.143	-0.053
-428.617	-200.000	0.041	-0.186
-427.603	-94.713	0.186	0.050
-426.588	-200.000	-0.009	0.081
-425.573	2.299	-0.289	0.207
-424.559	101.551	0.029	0.033
-423.544	800.000	-0.103	0.392
-422.530	509.513	-0.016	0.037
-421.515	132.123	0.156	-0.199
-420.500	-152.498	0.208	-0.015
-419.486	-32.830	0.223	-0.123
-418.471	-200.000	-0.028	0.274
-417.457	-200.000	-0.020	0.133
-416.442	351.052	-0.175	-0.343
-415.428	-34.087	0.228	-0.124
-414.413	172.283	-0.107	0.153
-413.398	-98.027	-0.240	-0.061
-412.384	363.171	-0.124	-0.247
-411.369	-56.338	-0.155	0.068
-410.355	-200.000	0.017	0.354
-409.340	-200.000	0.030	0.139
-408.325	-106.036	0.232	-0.052
-407.311	34.274	0.121	-0.105
-406.296	60.149	0.163	-0.160
-405.282	92.780	0.173	-0.193
-404.267	-45.153	0.163	0.080
-403.252	92.248	0.219	-0.244
-402.238	-79.262	0.258	0.087
-401.223	-200.000	0.011	-0.134
-400.209	-44.900	0.135	-0.067
-399.194	-107.372	0.210	0.046
-398.179	-20.087	0.229	0.140
-397.165	731.281	0.049	0.129
-396.150	5.184	-0.229	-0.167
-395.136	467.958	0.091	-0.201
-394.121	-200.000	-0.002	-0.174
-393.106	124.868	0.038	0.047
-392.092	312.891	0.104	-0.193
-391.077	204.137	-0.207	-0.317
-390.063	800.000	0.057	0.223
-389.048	800.000	0.065	-0.220
-388.033	-200.000	0.026	0.125
-387.019	-200.000	-0.029	-0.142
-386.004	800.000	0.042	0.169
-384.990	43.084	0.130	0.117
-383.975	-180.481	-0.157	-0.003
-382.960	373.336	-0.056	0.112
-381.946	33.587	-0.143	-0.123
-380.931	485.577	-0.182	-0.409
-379.917	-27.932	0.206	-0.118
-378.902	493.746	0.050	0.114
-377.888	-200.000	-0.055	-0.411
-376.873	384.706	0.062	0.126
-375.858	-136.234	-0.142	0.016
-374.844	54.155	-0.307	-0.292
-373.829	46.865	-0.169	0.155
-372.815	-121.068	0.223	-0.037
-371.800	-200.000	-0.010	0.373
-370.785	-74.457	0.238	0.085
-369.771	44.530	0.125	-0.114
-368.756	624.387	0.065	-0.161
-367.742	-120.197	0.351	0.059
-366.727	-1.169	-0.381	0.267
-365.712	-75.750	-0.252	-0.088
-364.698	-200.000	0.023	-0.235
-363.683	-19.289	-0.170	0.104
-362.669	6.021	-0.153	-0.112
-361.654	-83.923	-0.024	0.007
-360.639	143.769	-0.083	-0.109
-359.625	-3.102	0.157	-0.108
-358.610	286.143	-0.118	0.210
-357.596	-200.000	0.077	0.361
-356.581	-41.340	-0.084	-0.043
-355.566	-109.818	0.122	-0.025
-354.552	418.172	0.019	-0.039
-353.537	800.000	0.025	0.091
-352.523	-84.516	-0.262	0.082
-351.508	-53.936	0.211	-0.095
-350.493	-62.284	-0.218	-0.090
-349.479	-135.479	0.231	-0.027
-348.464	-98.173	-0.239	0.061
-347.450	-58.585	-0.097	-0.042
-346.435	-200.000	0.018	-0.193
-345.420	-200.000	0.006	-0.134
-344.406	800.000	0.022	0.062
-343.391	-76.891	-0.212	0.073
-342.377	102.562	-0.250	0.288
-341.362	800.000	0.041	0.116
-340.348	-200.000	0.063	0.472
-339.333	-200.000	-0.035	-0.266
-338.318	567.345	-0.110	0.263
-337.304	-200.000	0.009	-0.127
-336.289	-14.476	-0.269	0.171
-335.275	-200.000	0.008	-0.049
-334.260	-103.097	0.294	-0.069
-333.245	-107.405	0.361	-0.078
-332.231	25.299	-0.264	0.217
-331.216	800.000	0.008	0.022
-330.202	50.576	-0.159	-0.149
-329.187	-122.014	0.157	0.025
-328.172	580.797	-0.134	-0.325
-327.158	-128.662	-0.165	0.023
-326.143	-142.517	-0.136	0.013
-325.129	-95.008	-0.403	0.108
-324.114	168.083	0.036	-0.050
-323.099	105.262	-0.148	0.173
-322.085	-77.107	-0.187	0.064
-321.070	-80.052	0.264	0.087
-320.056	30.245	0.093	0.079
-319.041	-59.364	-0.235	-0.100
-318.026	-18.314	0.138	-0.085
-317.012	191.615	0.158	0.234
-315.997	-68.482	0.120	0.046
-314.983	-200.000	-0.030	-0.524
-313.968	-200.000	-0.043	-0.258
-312.953	201.909	0.262	-0.398
-311.939	24.898	0.115	-0.094
-310.924	-200.000	-0.013	-0.120
-309.910	-87.185	-0.213	0.064
-308.895	800.000	0.045	-0.171
-307.880	-200.000	-0.194	0.001
-306.866	732.236	0.029	-0.076
-305.851	-106.605	-0.411	-0.090
-304.837	14.788	0.220	0.170
-303.822	-100.435	-0.289	0.071
-302.807	-98.047	-0.048	0.012
-301.793	-50.690	0.250	-0.116
-300.778	62.502	-0.067	0.066
-299.764	137.468	0.138	-0.178
-298.749	56.005	0.028	0.026
-297.735	-196.298	0.282	-0.002
-296.720	-56.016	-0.178	-0.078
-295.705	-200.000	0.034	-0.279
-294.691	-191.795	0.164	-0.002
-293.676	18.513	0.177	0.140
-292.662	-118.899	-0.068	0.012
-291.647	-200.000	-0.045	-0.260
-290.632	430.805	0.058	-0.125
-289.618	794.627	0.066	0.179
-288.603	-23.357	0.331	0.196
-287.589	37.178	0.123	-0.107
-286.574	-86.127	-0.211	0.064
-285.559	628.802	-0.094	-0.234
-284.545	-200.000	0.023	-0.103
-283.530	341.448	0.194	-0.375
-282.516	-85.549	-0.457	0.140
-281.501	-164.336	0.411	0.019
-280.486	-200.000	0.044	-0.261
-279.472	-200.000	0.055	0.454
-278.457	-91.103	0.303	-0.086
-277.443	-200.000	0.002	0.084
-276.428	-183.765	0.091	0.002
-275.413	-200.000	0.035	-0.415
-274.399	-40.633	-0.260	0.133
-273.384	-200.000	-0.015	0.338
-272.370	-12.444	-0.333	0.214
-271.355	217.273	0.078	0.123
-270.340	-29.708	-0.232	0.130
-269.326	46.313	0.312	0.285
-268.311	109.794	-0.226	0.267
-267.297	-23.641	0.104	-0.062
-266.282	800.000	-0.153	0.490
-265.267	-120.144	-0.257	0.043
-264.253	709.406	0.049	-0.127
-263.238	-64.698	-0.287	0.115
-262.224	-158.257	0.232	-0.013
-261.209	-89.648	-0.041	-0.012
-260.195	-38.370	-0.335	-0.175
-259.180	-115.519	0.341	0.063
-258.165	162.925	-0.163	-0.226
-257.151	299.393	-0.111	0.201
-256.136	-93.268	-0.305	0.083
-255.122	-200.000	-0.012	0.122
-254.107	428.782	0.091	-0.193
-253.092	-73.294	0.289	0.104
-252.078	-110.690	-0.257	-0.052
-251.063	336.953	0.065	-0.124
-250.049	-96.622	0.355	0.092
-249.034	8.017	0.138	0.102
-248.019	-200.000	0.015	0.094
-247.005	75.767	0.191	-0.199
-245.990	-48.957	-0.123	0.058
-244.976	201.690	0.134	0.203
-243.961	800.000	0.032	0.124
-242.946	69.056	-0.152	0.154
-241.932	-2.022	0.213	-0.147
-240.917	800.000	0.051	0.160
-239.903	123.556	0.144	0.178
-238.888	-200.000	0.018	-0.200
-237.873	476.797	0.055	0.123
-236.859	-200.000	-0.065	0.354
-235.844	763.808	-0.147	-0.393
-234.830	-157.941	-0.064	0.004
-233.815	-200.000	-0.083	-0.383
-232.800	-138.065	-0.414	0.045
-231.786	-72.680	0.153	-0.055
-230.771	91.879	-0.072	-0.079
-229.757	-200.000	-0.023	0.170
-228.742	-127.172	0.283	0.041
-227.727	-15.066	0.072	-0.046
-226.713	-150.591	0.166	-0.012
-225.698	-140.633	-0.201	0.021
-224.684	-200.000	0.117	-0.000
-223.669	68.266	-0.089	0.090
-222.655	90.148	0.115	0.127
-221.640	-200.000	-0.011	0.084
-220.625	-200.000	-0.034	-0.367
-219.611	-200.000	0.016	0.108
-218.596	526.781	-0.087	-0.201
-217.582	800.000	0.071	0.220
-216.567	-200.000	0.042	-0.253
-215.552	361.078	-0.036	0.071
-214.538	414.362	0.075	0.158
-213.523	-50.333	-0.372	-0.173
-212.509	148.078	0.155	-0.206
-211.494	-79.780	0.107	-0.035
-210.479	39.479	-0.169	-0.148
-209.465	-93.921	-0.267	-0.072
-208.450	453.829	0.188	-0.408
-207.436	-124.892	0.175	0.026
-206.421	658.422	0.175	0.442
-205.406	106.806	-0.135	0.157
-204.392	366.353	0.141	-0.279
-203.377	203.589	-0.157	-0.239
-202.363	-1.617	-0.155	0.107
-201.348	74.853	-0.171	-0.177
-200.333	-200.000	-0.002	0.365
-199.319	140.272	-0.073	0.094
-198.304	-200.000	-0.058	0.315
-197.290	-200.000	-0.012	-0.107
-196.275	-29.182	-0.161	-0.090
-195.260	452.798	-0.102	-0.222
-194.246	188.332	-0.129	0.190
-193.231	-200.000	-0.035	0.186
-192.217	-154.922	0.243	-0.016
-191.202	800.000	-0.047	-0.136
-190.187	17.019	0.051	-0.040
-189.173	-200.000	-0.004	0.189
-188.158	-37.165	0.180	-0.094
-187.144	-18.492	-0.233	-0.143
-186.129	-200.000	0.022	0.259
-185.114	-200.000	-0.017	0.258
-184.100	-116.009	-0.311	-0.057
-183.085	-9.178	0.116	-0.076
-182.071	-67.498	-0.293	0.113
-181.056	-200.000	-0.012	-0.097
-180.042	-42.191	0.229	-0.115
-179.027	283.493	-0.205	0.362
-178.012	-12.995	0.171	0.109
-176.998	151.701	-0.066	-0.089
-175.983	-59.390	0.285	0.120
-174.969	-105.018	0.233	0.052
-173.954	-158.798	0.103	0.006
-172.939	-95.902	-0.039	0.010
-171.925	800.000	-0.106	-0.360
-170.910	-70.532	0.359	0.133
-169.896	-14.277	-0.095	-0.060
-168.881	71.843	0.166	0.169
-167.866	-188.835	-0.225	0.003
-166.852	128.987	0.203	0.254
-165.837	-93.829	-0.034	0.009
-164.823	490.181	0.030	-0.067
-163.808	97.938	0.169	0.191
-162.793	-104.630	0.204	-0.046
-161.779	-200.000	0.012	-0.070
-160.764	-200.000	-0.003	0.094
-159.750	98.562	-0.080	0.091
-158.735	366.305	0.071	0.140
-157.720	-43.428	-0.196	-0.097
-156.706	-77.249	0.366	0.125
-155.691	800.000	0.124	0.486
-154.677	-200.000	0.040	0.209
-153.662	800.000	-0.037	-0.103
-152.647	203.742	0.101	0.153
-151.633	187.828	-0.102	-0.150
-150.618	482.375	0.146	-0.326
-149.604	-200.000	-0.066	0.292
-148.589	-200.000	0.019	0.294
-147.574	373.010	0.185	-0.368
-146.560	203.061	0.117	-0.177
-145.545	-1.916	-0.171	-0.118
-144.531	233.178	0.041	0.067
-143.516	-77.767	-0.182	-0.062
-142.502	-36.851	-0.295	0.155
-141.487	-117.564	-0.073	0.013
-140.472	158.868	-0.020	0.028
-139.458	-86.813	-0.222	-0.066
-138.443	-3.370	-0.141	-0.096
-137.429	129.764	-0.145	0.181
-136.414	-38.609	0.156	0.081
-135.399	-131.572	0.265	0.034
-134.385	-76.213	0.034	0.012
-133.370	-147.944	0.177	0.014
-132.356	-200.000	-0.054	-0.265
-131.341	-89.339	0.230	-0.066
-130.326	-97.611	-0.241	0.061
-129.312	-133.655	-0.284	-0.035
-128.297	43.544	-0.088	0.079
-127.283	-146.613	-0.194	0.016
-126.268	-59.740	0.026	-0.011
-125.253	-5.401	-0.064	0.043
-124.239	68.408	0.298	-0.299
-123.224	-45.045	0.159	0.077
-122.210	-200.000	-0.030	0.324
-121.195	151.994	0.069	0.092
-120.180	-87.622	-0.128	0.038
-119.166	-170.167	-0.048	0.002
-118.151	425.151	-0.120	0.252
-117.137	369.625	-0.090	0.179
-116.122	-178.830	-0.055	0.001
-115.107	-92.862	-0.268	-0.073
-114.093	135.163	0.030	-0.038
-113.078	-63.832	0.092	0.037
-112.064	800.000	0.086	0.331
-111.049	800.000	0.020	0.061
-110.034	-200.000	-0.048	0.220
-109.020	25.837	0.063	0.051
-108.005	800.000	0.114	0.378
-106.991	-200.000	0.006	-0.069
-105.976	-63.200	-0.171	-0.069
-104.962	-106.172	-0.231	0.051
-103.947	381.235	0.059	0.118
-102.932	800.000	-0.008	0.027
-101.918	-12.629	-0.265	0.169
-100.903	-110.494	0.265	0.054
-99.889	-1.305	0.082	-0.057
-98.874	800.000	-0.023	-0.075
-97.859	25.581	0.307	0.250
-96.845	-126.359	0.373	-0.054
-95.830	-85.448	0.215	0.066
-94.816	-141.266	0.213	0.021
-93.801	-200.000	0.041	0.454
-92.786	29.971	-0.136	0.114
-91.772	115.637	0.343	0.410
-90.757	667.479	0.149	0.376
-89.743	-200.000	0.006	-0.120
-88.728	184.395	-0.109	0.158
-87.713	123.535	-0.078	-0.095
-86.699	-125.718	0.071	-0.011
-85.684	-200.000	0.049	0.214
-84.670	-200.000	-0.006	-0.116
-83.655	-79.269	0.234	0.078
-82.640	-200.000	0.061	-0.265
-81.626	-69.746	0.051	0.019
-80.611	-93.516	0.482	0.130
-79.597	193.467	-0.138	-0.205
-78.582	-31.609	-0.128	-0.070
-77.567	-86.647	0.332	0.099
-76.553	-101.731	0.133	0.031
-75.538	-200.000	0.046	-0.215
-74.524	-85.160	-0.065	0.020
-73.509	170.486	-0.058	0.081
-72.494	-200.000	0.063	-0.283
-71.480	-200.000	-0.001	0.150
-70.465	-200.000	0.007	-0.031
-69.451	345.539	-0.077	0.149
-68.436	-163.184	0.262	-0.012
-67.422	-200.000	-0.000	0.085
-66.407	-40.872	0.114	-0.057
-65.392	-15.540	-0.109	0.068
-64.378	-200.000	0.045	0.375
-63.363	-200.000	0.006	-0.097
-62.349	800.000	-0.079	0.243
-61.334	47.079	-1.063	-0.967
-60.319	61.708	0.510	0.497
-59.305	387.981	-0.563	-1.139
-58.290	548.574	0.642	1.503
-57.276	525.774	0.587	1.351
-56.261	-200.000	122.452	616.963
-55.246	387.763	1570.481	3173.706
-54.232	141.242	2732.172	3532.200
-53.217	94.822	2170.732	2412.795
-52.203	35.816	1601.796	1376.118
-51.188	27.528	1345.825	1106.097
-50.173	24.992	1307.977	1059.964
-49.159	49.696	1373.778	1264.447
-48.144	48.148	1386.221	1266.439
-47.130	27.661	1335.588	1098.311
-46.115	24.625	1316.555	1064.561
-45.100	24.464	1311.374	1059.377
-44.086	24.347	1309.275	1056.943
-43.071	24.308	1307.023	1054.852
-42.057	24.262	1305.073	1052.965
-41.042	24.331	1303.068	1051.711
-40.027	24.348	1301.614	1050.597
-39.013	24.242	1300.166	1048.766
-37.998	24.307	1297.926	1047.301
-36.984	24.361	1296.425	1046.363
-35.969	24.342	1294.687	1044.808
-34.954	24.390	1292.827	1043.546
-33.940	24.394	1291.893	1042.773
-32.925	24.438	1290.371	1041.762
-31.911	24.427	1289.000	1040.546
-30.896	24.432	1287.699	1039.483
-29.881	24.475	1286.793	1038.960
-28.867	24.546	1284.861	1037.775
-27.852	24.545	1283.412	1036.560
-26.838	24.519	1282.502	1035.628
-25.823	24.534	1280.821	1034.320
-24.809	24.585	1279.179	1033.247
-23.794	24.501	1277.825	1031.626
-22.779	24.605	1276.196	1030.871
-21.765	24.538	1275.387	1029.792
-20.750	24.474	1274.103	1028.342
-19.736	24.340	1273.698	1027.206
-18.721	24.324	1272.286	1025.930
-17.706	24.376	1271.062	1025.203
-16.692	24.411	1269.844	1024.382
-15.677	24.252	1269.368	1023.047
-14.663	24.427	1267.053	1022.141
-13.648	24.353	1266.163	1020.959
-12.633	24.451	1265.049	1020.578
-11.619	24.293	1264.767	1019.411
-10.604	24.444	1263.439	1019.162
-9.590	24.380	1262.335	1017.866
-8.575	24.286	1261.591	1016.687
-7.560	24.370	1261.051	1016.692
-6.546	24.341	1260.158	1015.767
-5.531	24.330	1258.822	1014.584
-4.517	24.238	1258.556	1013.806
-3.502	24.246	1258.005	1013.367
-2.487	24.332	1256.394	1012.521
-1.473	24.336	1252.405	1009.285
-0.458	23.078	1237.666	990.329
0.556	18.557	1222.229	956.557
1.571	15.256	1229.851	943.882
2.586	14.570	1245.401	951.815
3.600	14.393	1232.909	941.185
4.615	10.385	1160.550	864.523
5.629	3.565	1087.773	776.033
6.644	0.402	1070.086	747.679
7.659	0.144	1068.424	745.176
8.673	0.208	1067.638	744.879
9.688	0.146	1066.386	743.634
10.702	0.399	1063.899	743.082
11.717	4.589	1068.674	767.054
12.731	11.639	1078.190	808.810
13.746	15.795	1083.421	833.284
14.761	16.720	1084.270	838.445
15.775	16.175	1082.242	834.112
16.790	15.074	1080.484	827.243
17.804	14.376	1078.886	822.501
18.819	14.046	1078.050	820.164
19.834	13.920	1076.258	818.109
20.848	13.477	1076.578	816.095
21.863	13.345	1075.086	814.242
22.877	13.203	1074.583	813.094
23.892	13.261	1073.543	812.516
24.907	13.106	1072.961	811.243
25.921	13.182	1072.205	810.974
26.936	13.199	1071.555	810.493
27.950	13.257	1070.499	809.907
28.965	13.366	1068.988	809.224
29.980	13.388	1067.813	808.373
30.994	13.377	1066.734	807.431
32.009	13.518	1065.362	807.006
33.023	13.414	1064.960	806.123
34.038	13.326	1063.709	804.679
35.053	13.294	1062.939	803.871
36.067	13.261	1061.828	802.799
37.082	13.253	1061.164	802.184
38.096	13.306	1060.696	802.020
39.111	13.380	1059.916	801.716
40.126	13.309	1058.952	800.571
41.140	13.235	1057.386	798.960
42.155	13.072	1056.212	797.216
43.169	13.062	1055.220	796.349
44.184	13.131	1054.330	795.938
45.199	13.170	1053.190	795.193
46.213	13.262	1052.090	794.734
47.228	13.305	1051.124	794.142
48.242	13.167	1050.321	792.805
49.257	13.268	1048.956	792.186
50.271	13.262	1048.185	791.507
51.286	13.435	1047.372	791.649
52.301	13.331	1046.503	790.426
53.315	13.296	1045.549	789.468
54.330	13.249	1044.142	788.113
55.344	13.248	1043.177	787.311
56.359	13.163	1042.590	786.393
57.374	13.240	1041.263	785.688
58.388	13.130	1040.846	784.779
59.403	13.113	1040.133	784.093
60.417	12.988	1039.351	782.841
61.432	13.067	1038.226	782.297
62.447	13.259	1037.113	782.302
63.461	13.082	1036.757	781.127
64.476	13.145	1035.712	780.567
65.490	13.083	1035.158	779.787
66.505	13.176	1034.232	779.456
67.520	13.062	1033.584	778.363
68.534	13.084	1032.652	777.699
69.549	13.087	1032.383	777.441
70.563	13.063	1031.247	776.403
71.578	13.050	1030.608	775.790
72.593	13.058	1030.058	775.347
73.607	13.069	1029.379	774.819
74.622	13.105	1028.542	774.287
75.636	13.070	1027.788	773.487
76.651	13.104	1027.191	773.132
77.666	13.066	1026.505	772.367
78.680	13.157	1025.710	772.127
79.695	13.169	1025.032	771.604
80.709	13.173	1024.568	771.205
81.724	13.184	1023.762	770.581
82.739	13.186	1023.098	770.022
83.753	13.337	1022.412	770.140
84.768	13.313	1021.158	769.016
85.782	13.318	1020.371	768.382
86.797	13.309	1019.606	767.694
87.812	13.139	1018.842	766.261
88.826	13.409	1017.031	766.083
89.841	13.303	1016.377	765.031
90.855	13.290	1015.808	764.473
91.870	13.463	1014.454	764.187
92.884	13.346	1013.676	762.993
93.899	13.427	1013.397	763.090
94.914	13.386	1012.371	762.063
95.928	13.377	1011.417	761.232
96.943	13.368	1010.626	760.528
97.957	13.397	1009.576	759.807
98.972	13.298	1008.902	758.776
99.987	13.415	1008.005	758.570
101.001	13.435	1006.583	757.525
102.016	13.431	1006.024	757.022
103.030	13.382	1005.339	756.215
104.045	13.414	1004.799	755.885
105.060	13.380	1003.582	754.749
106.074	13.327	1002.698	753.776
107.089	13.403	1001.712	753.316
108.103	13.293	1000.680	751.971
109.118	13.275	999.786	751.149
110.133	13.285	998.752	750.351
111.147	13.234	997.829	749.360
112.162	13.174	997.159	748.523
113.176	13.276	996.280	748.258
114.191	13.245	996.122	747.930
115.206	13.362	994.798	747.400
116.220	13.362	993.958	746.703
117.235	13.363	993.267	746.121
118.249	13.326	992.089	745.004
119.264	13.287	991.406	744.248
120.279	13.322	990.605	743.738
121.293	13.244	989.670	742.622
122.308	13.318	988.711	742.167
123.322	13.235	987.765	741.020
124.337	13.235	986.603	740.082
125.352	13.332	985.569	739.677
126.366	13.300	984.364	738.565
127.381	13.333	983.194	737.768
128.395	13.320	982.493	737.117
129.410	13.137	981.851	735.755
130.424	13.255	981.032	735.602
131.439	13.282	980.110	734.967
132.454	13.349	979.123	734.460
133.468	13.379	978.305	733.914
134.483	13.256	977.382	732.613
135.497	13.339	976.529	732.275
136.512	13.232	976.196	731.485
137.527	13.346	975.073	731.085
138.541	13.463	974.049	730.769
139.556	13.420	973.543	730.133
140.570	13.452	972.949	729.763
141.585	13.401	972.113	728.846
142.600	13.491	970.972	728.326
143.614	13.493	970.149	727.651
144.629	13.508	969.336	727.044
145.643	13.516	968.620	726.477
146.658	13.441	967.598	725.320
147.673	13.495	966.882	724.954
148.687	13.480	966.305	724.392
149.702	13.398	964.844	722.875
150.716	13.352	964.579	722.411
151.731	13.475	963.631	722.171
152.746	13.408	963.113	721.428
153.760	13.517	962.387	721.294
154.775	13.444	962.110	720.706
155.789	13.565	961.235	720.513
156.804	13.637	960.240	720.018
157.819	13.654	959.970	719.826
158.833	13.639	959.339	719.223
159.848	13.627	958.148	718.213
160.862	13.625	957.971	718.007
161.877	13.508	956.811	716.570
162.892	13.604	955.649	716.051
163.906	13.584	954.801	715.268
164.921	13.589	953.974	714.603
165.935	13.618	953.166	714.061
166.950	13.560	952.356	713.142
167.964	13.789	951.064	713.096
168.979	13.719	950.248	712.118
169.994	13.686	949.712	711.512
171.008	13.768	949.051	711.306
172.023	13.701	948.506	710.550
173.037	13.805	947.377	710.087
174.052	13.726	946.983	709.387
175.067	13.718	946.293	708.777
176.081	13.776	945.712	708.525
177.096	13.665	945.409	707.761
178.110	13.701	944.620	707.261
179.125	13.685	944.124	706.761
180.140	13.836	943.319	706.737
181.154	13.727	942.901	705.899
182.169	13.849	942.546	706.088
183.183	13.900	941.749	705.646
184.198	13.889	941.003	704.979
185.213	13.772	940.656	704.159
186.227	13.884	939.746	703.888
187.242	14.036	938.908	703.846
188.256	13.946	938.709	703.250
189.271	13.940	937.768	702.458
190.286	13.864	936.603	701.201
191.300	13.699	936.294	700.213
192.315	13.829	935.346	699.988
193.329	13.846	935.338	699.993
194.344	13.850	934.505	699.324
195.359	13.893	933.585	698.755
196.373	13.929	933.417	698.717
197.388	14.052	932.372	698.393
198.402	14.091	932.239	698.395
199.417	14.073	931.864	697.975
200.432	14.084	930.926	697.256
201.446	14.190	930.275	697.152
202.461	14.102	929.918	696.456
203.475	14.252	929.493	696.701
204.490	14.103	928.693	695.419
205.504	14.081	927.787	694.589
206.519	14.124	927.091	694.185
207.534	14.020	926.427	693.190
208.548	14.302	925.252	693.428
209.563	14.182	925.303	692.903
210.577	14.123	924.524	692.014
211.592	14.250	923.495	691.707
212.607	14.397	922.499	691.511
213.621	14.248	921.899	690.385
214.636	14.288	921.282	690.025
215.650	14.256	920.372	689.150
216.665	14.347	919.806	689.043
217.680	14.421	919.029	688.704
218.694	14.351	918.618	688.048
219.709	14.461	917.872	687.879
220.723	14.370	917.165	686.915
221.738	14.357	916.301	686.153
222.753	14.445	915.896	686.154
223.767	14.440	915.647	685.886
224.782	14.624	914.412	685.655
225.796	14.538	913.907	684.864
226.811	14.504	913.270	684.185
227.826	14.453	912.919	683.653
228.840	14.541	911.812	683.123
229.855	14.465	910.948	682.104
230.869	14.624	909.991	681.979
231.884	14.393	909.806	680.837
232.899	14.472	908.929	680.440
233.913	14.517	908.113	679.954
234.928	14.434	907.690	679.238
235.942	14.474	907.233	679.000
236.957	14.313	907.138	678.210
237.972	14.518	906.041	678.166
238.986	14.665	904.781	677.761
240.001	14.520	905.015	677.286
241.015	14.550	903.781	676.425
242.030	14.535	903.108	675.801
243.045	14.690	902.748	676.097
244.059	14.672	901.892	675.323
245.074	14.655	901.488	674.893
246.088	14.839	900.539	674.865
247.103	14.794	899.855	674.110
248.117	14.635	899.849	673.406
249.132	14.802	899.384	673.672
250.147	14.928	898.564	673.506
251.161	14.733	898.536	672.641
252.176	14.871	897.568	672.412
253.190	15.047	896.346	672.142
254.205	14.900	895.891	671.153
255.220	15.035	895.350	671.230
256.234	15.017	894.440	670.413
257.249	15.083	893.813	670.150
258.263	15.013	893.104	669.282
259.278	14.977	892.660	668.744
260.293	15.157	891.964	668.881
261.307	15.112	891.560	668.339
262.322	15.082	890.899	667.667
263.336	15.345	889.711	667.763
264.351	15.164	889.192	666.593
265.366	15.275	888.584	666.520
266.380	15.069	888.165	665.329
267.395	15.298	887.178	665.442
268.409	15.137	886.864	664.509
269.424	15.176	885.685	663.721
270.439	15.254	885.277	663.664
271.453	15.193	884.182	662.541
272.468	15.280	884.086	662.758
273.482	15.357	882.941	662.142
274.497	15.235	882.707	661.429
275.512	15.224	882.497	661.168
276.526	15.315	881.706	660.876
277.541	15.194	881.556	660.228
278.555	15.292	880.807	659.996
279.570	15.345	879.904	659.469
280.585	15.325	879.003	658.658
281.599	15.329	878.618	658.326
282.614	15.346	877.536	657.524
283.628	15.432	877.257	657.594
284.643	15.394	876.572	656.872
285.657	15.426	875.569	656.188
286.672	15.402	875.392	655.902
287.687	15.476	874.749	655.653
288.701	15.591	874.109	655.564
289.716	15.557	873.697	655.063
290.730	15.538	873.320	654.649
291.745	15.535	872.475	653.947
292.760	15.613	871.710	653.619
293.774	15.566	871.020	652.860
294.789	15.574	870.433	652.394
295.803	15.717	869.600	652.266
296.818	15.579	869.171	651.350
297.833	15.570	868.533	650.781
298.847	15.429	868.048	649.812
299.862	15.591	867.058	649.641
300.876	15.814	866.348	649.915
301.891	15.586	866.097	648.790
302.906	15.795	865.891	649.384
303.920	15.925	864.722	648.951
304.935	15.771	864.251	647.946
305.949	15.885	863.489	647.755
306.964	15.842	862.777	646.998
307.979	15.954	862.266	646.989
308.993	15.883	861.727	646.254
310.008	15.978	861.059	646.060
311.022	15.967	860.566	645.593
312.037	15.841	860.377	644.910
313.052	15.814	859.469	644.069
314.066	15.879	858.799	643.759
315.081	15.790	858.830	643.382
316.095	15.864	858.040	643.018
317.110	15.915	857.187	642.516
318.125	15.964	856.586	642.196
319.139	15.879	856.319	641.615
320.154	15.963	855.819	641.502
321.168	16.042	854.957	641.102
322.183	16.039	854.659	640.809
323.197	15.976	854.155	640.137
324.212	15.999	853.613	639.761
325.227	15.945	853.257	639.232
326.241	15.889	852.922	638.713
327.256	15.950	852.259	638.391
328.270	15.962	851.471	637.790
329.285	15.852	850.710	636.748
330.300	16.049	849.967	636.880
331.314	16.039	849.725	636.601
332.329	16.145	849.570	636.832
333.343	16.095	849.001	636.158
334.358	16.134	848.558	635.918
335.373	16.060	848.216	635.327
336.387	16.249	847.569	635.496
337.402	16.184	847.515	635.154
338.416	16.182	847.008	634.711
339.431	16.162	846.688	634.341
340.446	16.219	846.183	634.120
341.460	16.246	845.870	633.933
342.475	16.299	845.353	633.686
343.489	16.361	845.149	633.711
344.504	16.461	844.189	633.309
345.519	16.509	844.045	633.326
346.533	16.439	843.228	632.394
347.548	16.347	842.914	631.759
348.562	16.349	842.327	631.270
349.577	16.410	841.578	630.881
350.592	16.259	841.629	630.301
351.606	16.319	840.448	629.584
352.621	16.421	839.856	629.463
353.635	16.309	839.252	628.537
354.650	16.443	838.801	628.641
355.665	16.472	837.691	627.863
356.679	16.564	837.168	627.757
357.694	16.486	836.919	627.227
358.708	16.648	835.971	627.062
359.723	16.624	835.585	626.627
360.738	16.538	834.846	625.698
361.752	16.629	834.025	625.364
362.767	16.604	833.673	624.952
363.781	16.719	833.081	624.876
364.796	16.775	832.486	624.581
365.810	16.717	832.631	624.422
366.825	16.719	832.030	623.924
367.840	16.796	831.455	623.721
368.854	16.616	831.202	622.814
369.869	16.701	830.702	622.696
370.883	16.951	830.128	623.129
371.898	16.685	829.941	621.955
372.913	16.868	829.303	622.095
373.927	16.905	828.907	621.878
374.942	16.828	828.601	621.312
375.956	17.017	827.487	621.113
376.971	17.078	827.369	621.194
377.986	16.860	827.348	620.326
379.000	17.016	826.308	620.059
380.015	17.055	826.000	619.915
381.029	17.062	825.026	619.158
382.044	16.909	824.900	618.449
383.059	17.074	824.055	618.361
384.073	17.213	823.187	618.163
385.088	17.010	822.951	617.191
386.102	16.980	822.277	616.522
387.117	17.097	822.000	616.686
388.132	17.226	821.282	616.562
389.146	17.119	820.937	615.857
390.161	16.984	820.680	615.120
391.175	17.122	820.050	615.096
392.190	17.139	819.414	614.624
393.205	17.158	819.017	614.341
394.219	17.044	819.041	613.893
395.234	16.901	818.329	612.789
396.248	17.078	817.747	612.937
397.263	16.962	817.632	612.379
398.278	17.132	816.881	612.375
399.292	17.155	816.180	611.876
400.307	17.264	815.870	611.983
401.321	17.112	815.544	611.140
402.336	17.237	815.145	611.236
403.350	17.194	814.700	610.691
404.365	17.262	814.126	610.452
405.380	17.411	813.404	610.391
406.394	17.414	813.045	610.078
407.409	17.263	812.719	609.239
408.423	17.451	812.209	609.477
409.438	17.444	812.298	609.464
410.453	17.516	811.449	609.031
411.467	17.455	811.356	608.689
412.482	17.458	810.624	608.096
413.496	17.549	810.413	608.210
414.511	17.623	809.693	607.880
415.526	17.573	809.249	607.313
416.540	17.553	809.030	607.025
417.555	17.542	808.501	606.536
418.569	17.667	807.935	606.500
419.584	17.784	807.210	606.319
420.599	17.553	806.918	605.226
421.613	113.207	1297.910	1485.355
422.628	97.763	1369.405	1485.435
