DTS Sentinel unit serial number:	SN413079Multiplexer serial number:	ORYXHardware model number:	OX4-SRSoftware version number:	ORYX F/W v4.00 Oryx Data Collector v3.7.2.0data status	okinstallation	princeton_trtdifferential loss correction	single-endedforward channel	channel 1reverse channel	N/Adate	2019/09/18time	16:06:35forward acquisition time	60.00reverse acquisition time	0.00gamma	496.2192k internal	0.2292k external	0.2292temperature offset calibration	0.9993default loss term (dB/km)	0.3790temperature slope calibration	1.0000multiplexer offset coefficient	1.0000multiplexer slope coefficient	1.0000fibre end	0.00T internal ref (°C)	37.78T ext. ref 1 (°C)	0.83T ext. ref 2 (°C)	37.08length (m)	temperature (°C)	Stokes	anti-Stokes-747.200	437.988	-0.090	0.201
-746.185	19.849	-0.191	0.157
-745.171	189.912	0.170	0.261
-744.156	-56.506	-0.311	0.141
-743.142	385.978	0.061	-0.129
-742.127	254.241	0.192	0.336
-741.112	-11.241	0.203	0.137
-740.098	176.908	0.021	0.031
-739.083	-200.000	-0.001	0.075
-738.069	-200.000	-0.022	0.162
-737.054	635.076	0.060	-0.155
-736.039	-56.581	-0.303	0.137
-735.025	-93.088	-0.094	-0.027
-734.010	-86.092	0.022	0.007
-732.996	-200.000	-0.004	-0.087
-731.981	273.965	0.081	0.147
-730.966	289.778	-0.236	-0.438
-729.952	800.000	-0.102	-0.367
-728.937	316.572	-0.089	-0.173
-727.923	-3.561	-0.205	-0.146
-726.908	800.000	-0.055	-0.232
-725.894	-200.000	0.023	-0.347
-724.879	-77.537	-0.184	-0.065
-723.864	800.000	0.053	0.215
-722.850	60.991	-0.142	0.144
-721.835	211.019	-0.100	0.161
-720.821	93.896	0.063	-0.073
-719.806	-200.000	0.011	-0.283
-718.791	45.817	0.210	-0.199
-717.777	-69.397	0.223	-0.087
-716.762	-115.760	0.068	0.013
-715.748	204.269	-0.259	0.411
-714.733	77.072	-0.043	0.047
-713.718	-81.036	-0.201	0.068
-712.704	104.336	-0.313	-0.376
-711.689	-106.690	0.182	-0.041
-710.675	51.681	0.065	-0.063
-709.660	184.376	-0.062	0.094
-708.645	66.480	0.131	0.136
-707.631	-71.493	-0.337	-0.129
-706.616	95.413	0.143	-0.166
-705.602	6.915	0.232	-0.176
-704.587	117.498	0.107	-0.134
-703.572	-124.755	0.322	0.051
-702.558	210.278	0.040	-0.064
-701.543	404.941	-0.124	-0.266
-700.529	144.321	-0.160	0.219
-699.514	302.330	0.141	0.266
-698.499	-157.908	-0.293	-0.018
-697.485	-25.453	0.091	0.055
-696.470	-25.557	0.122	0.073
-695.456	431.476	-0.051	0.113
-694.441	198.594	0.292	0.456
-693.426	-106.782	0.051	0.012
-692.412	-62.945	0.196	-0.083
-691.397	55.892	-0.198	0.196
-690.383	-200.000	0.018	-0.309
-689.368	-142.041	-0.193	-0.020
-688.354	49.349	-0.205	-0.197
-687.339	-155.820	0.081	0.005
-686.324	239.662	-0.014	0.024
-685.310	271.989	-0.104	-0.188
-684.295	-124.308	0.249	0.040
-683.281	271.539	0.015	-0.027
-682.266	77.781	0.192	-0.209
-681.251	-69.194	-0.181	-0.071
-680.237	171.730	-0.215	-0.315
-679.222	-73.338	0.137	0.051
-678.208	800.000	-0.077	-0.260
-677.193	-47.932	-0.123	0.061
-676.178	-200.000	0.036	-0.216
-675.164	-200.000	0.034	-0.191
-674.149	-157.787	-0.351	-0.021
-673.135	269.158	0.267	0.479
-672.120	111.781	-0.118	-0.146
-671.105	-63.889	-0.332	-0.138
-670.091	105.282	0.141	0.170
-669.076	208.470	-0.164	-0.262
-668.062	470.008	-0.081	-0.185
-667.047	51.227	0.228	-0.221
-666.032	55.986	0.167	-0.165
-665.018	39.847	-0.099	-0.090
-664.003	-32.352	0.231	-0.132
-662.989	179.919	-0.153	-0.228
-661.974	-31.378	-0.186	-0.107
-660.959	130.414	-0.092	-0.120
-659.945	800.000	-0.016	-0.056
-658.930	452.896	-0.082	0.186
-657.916	800.000	0.036	-0.126
-656.901	-200.000	-0.031	0.144
-655.886	800.000	0.039	0.149
-654.872	-10.391	0.178	0.121
-653.857	-71.656	-0.255	0.097
-652.843	60.850	0.162	-0.164
-651.828	45.998	0.300	-0.283
-650.814	-109.847	-0.105	-0.022
-649.799	-161.963	0.237	-0.012
-648.784	-200.000	0.015	-0.113
-647.770	19.370	0.019	0.015
-646.755	145.021	0.366	0.499
-645.741	308.827	-0.091	0.173
-644.726	-150.418	-0.253	0.020
-643.711	-77.161	-0.119	0.042
-642.697	-200.000	-0.058	0.433
-641.682	800.000	0.046	-0.138
-640.668	-200.000	-0.008	0.098
-639.653	-9.361	0.226	0.154
-638.638	-200.000	-0.027	0.171
-637.624	-61.646	0.212	0.091
-636.609	-200.000	-0.028	0.186
-635.595	-4.919	-0.118	-0.083
-634.580	-49.538	-0.137	0.067
-633.565	-114.052	-0.300	-0.059
-632.551	-200.000	0.013	0.316
-631.536	-49.156	0.075	-0.037
-630.522	116.313	-0.071	0.088
-629.507	-200.000	0.051	-0.353
-628.492	-25.316	-0.307	0.185
-627.478	-200.000	-0.032	0.326
-626.463	-101.080	0.239	-0.060
-625.449	-200.000	-0.008	0.143
-624.434	-26.193	0.229	-0.137
-623.419	-74.246	-0.336	-0.124
-622.405	89.353	-0.195	-0.222
-621.390	62.998	0.155	-0.158
-620.376	-3.936	-0.316	-0.223
-619.361	800.000	-0.029	-0.122
-618.346	-37.530	-0.145	-0.079
-617.332	800.000	-0.074	-0.266
-616.317	-123.343	0.118	-0.019
-615.303	114.467	0.276	0.343
-614.288	-200.000	-0.003	-0.243
-613.273	-118.440	-0.110	-0.020
-612.259	-200.000	0.014	0.226
-611.244	-113.656	0.299	0.059
-610.230	-168.888	0.188	-0.007
-609.215	-200.000	0.048	0.222
-608.201	800.000	-0.044	-0.144
-607.186	-50.092	-0.331	-0.160
-606.171	-186.979	-0.310	-0.004
-605.157	-94.232	-0.288	-0.080
-604.142	-200.000	-0.004	-0.092
-603.128	-200.000	-0.020	0.213
-602.113	800.000	-0.031	0.094
-601.098	179.353	0.191	0.284
-600.084	375.964	-0.072	0.151
-599.069	-20.221	-0.144	-0.090
-598.055	82.440	-0.060	-0.066
-597.040	-160.339	0.086	0.005
-596.025	-40.435	-0.064	-0.034
-595.011	-4.822	-0.179	0.126
-593.996	-4.857	-0.058	-0.041
-592.982	800.000	0.058	-0.211
-591.967	179.506	-0.066	0.099
-590.952	-3.532	0.246	-0.174
-589.938	-25.012	0.202	-0.122
-588.923	-200.000	0.007	0.042
-587.909	800.000	0.017	0.065
-586.894	160.159	-0.065	0.093
-585.879	-200.000	-0.042	0.278
-584.865	-94.670	-0.211	-0.058
-583.850	-200.000	0.009	-0.248
-582.836	-97.031	0.274	-0.073
-581.821	-18.653	-0.087	0.055
-580.806	-155.015	-0.232	-0.015
-579.792	103.363	0.094	0.112
-578.777	-200.000	0.013	0.166
-577.763	369.608	0.171	-0.352
-576.748	-68.539	-0.113	0.045
-575.733	8.407	0.063	-0.048
-574.719	140.575	-0.130	-0.174
-573.704	-132.667	0.223	-0.029
-572.690	-60.353	-0.145	0.063
-571.675	-132.306	0.188	0.025
-570.661	-179.130	0.580	0.013
-569.646	-6.088	-0.047	-0.033
-568.631	-62.237	-0.091	0.039
-567.617	-200.000	-0.040	-0.240
-566.602	222.394	-0.109	-0.178
-565.588	-47.726	-0.326	-0.161
-564.573	9.619	0.070	0.054
-563.558	76.828	0.099	-0.107
-562.544	-200.000	-0.028	0.163
-561.529	-200.000	0.009	-0.301
-560.515	-124.096	-0.236	-0.038
-559.500	800.000	0.044	-0.194
-558.485	-137.468	-0.190	-0.022
-557.471	61.857	-0.054	0.055
-556.456	410.973	-0.068	-0.146
-555.442	36.809	0.131	0.118
-554.427	-52.684	0.048	-0.022
-553.412	-38.433	0.142	0.076
-552.398	37.298	0.155	-0.139
-551.383	-200.000	-0.010	0.128
-550.369	-104.070	0.293	-0.069
-549.354	337.772	-0.073	-0.144
-548.339	-75.558	-0.148	-0.053
-547.325	-200.000	-0.021	-0.113
-546.310	-164.509	0.137	0.006
-545.296	41.403	-0.161	-0.148
-544.281	-4.089	0.290	-0.204
-543.266	-22.063	-0.264	-0.163
-542.252	176.215	-0.092	-0.135
-541.237	-200.000	-0.015	0.147
-540.223	800.000	-0.031	-0.095
-539.208	-136.809	-0.160	0.019
-538.193	-93.018	0.257	-0.073
-537.179	190.008	0.079	-0.120
-536.164	15.847	0.099	-0.079
-535.150	-60.274	0.315	-0.136
-534.135	736.384	0.098	-0.266
-533.121	-87.321	-0.496	0.153
-532.106	202.482	0.104	-0.164
-531.091	800.000	0.025	-0.098
-530.077	-200.000	-0.014	0.133
-529.062	-63.008	-0.253	-0.106
-528.048	-200.000	-0.007	-0.047
-527.033	-10.700	-0.219	0.147
-526.018	-130.178	0.308	-0.043
-525.004	800.000	0.041	-0.163
-523.989	800.000	0.030	0.097
-522.975	166.695	0.137	-0.197
-521.960	-200.000	0.023	-0.274
-520.945	-200.000	-0.002	-0.038
-519.931	-34.704	-0.276	-0.153
-518.916	-54.080	-0.361	0.166
-517.902	-95.281	0.236	-0.064
-516.887	15.540	0.146	-0.116
-515.872	53.701	0.144	-0.140
-514.858	207.202	-0.057	-0.090
-513.843	215.798	0.175	0.282
-512.829	-87.816	0.083	0.025
-511.814	800.000	0.096	-0.271
-510.799	-86.911	0.211	0.065
-509.785	-75.123	0.141	-0.051
-508.770	-122.407	-0.347	-0.057
-507.756	72.297	-0.409	-0.432
-506.741	-63.642	-0.206	0.086
-505.726	-101.556	-0.122	-0.030
-504.712	-200.000	0.002	0.250
-503.697	-9.243	-0.213	-0.144
-502.683	-200.000	0.045	0.346
-501.668	112.477	-0.267	-0.327
-500.653	-200.000	0.038	0.303
-499.639	47.406	-0.277	-0.262
-498.624	-77.786	0.129	-0.045
-497.610	183.980	0.107	-0.161
-496.595	-200.000	-0.015	-0.183
-495.581	-83.670	0.495	0.160
-494.566	12.089	0.198	0.155
-493.551	68.167	0.151	0.156
-492.537	-108.901	-0.157	0.034
-491.522	7.544	-0.043	0.033
-490.508	64.593	0.128	0.131
-489.493	-62.168	-0.276	-0.116
-488.478	-200.000	-0.027	-0.124
-487.464	-105.496	-0.276	-0.063
-486.449	-12.859	0.063	0.042
-485.435	-3.276	-0.338	-0.239
-484.420	-83.072	-0.282	0.092
-483.405	-93.542	-0.324	-0.091
-482.391	67.768	0.263	0.272
-481.376	-200.000	-0.030	0.283
-480.362	17.338	-0.260	-0.209
-479.347	456.807	-0.084	-0.188
-478.332	-151.719	0.312	0.023
-477.318	800.000	0.043	-0.152
-476.303	-87.547	-0.071	-0.022
-475.289	-168.347	-0.214	-0.008
-474.274	-80.972	0.073	-0.025
-473.259	-81.138	0.265	0.089
-472.245	800.000	0.063	-0.195
-471.230	-200.000	0.038	0.290
-470.216	-80.977	-0.067	-0.022
-469.201	-200.000	0.018	-0.234
-468.186	243.281	0.204	0.345
-467.172	16.760	0.138	0.110
-466.157	-114.619	0.242	0.047
-465.143	-200.000	-0.018	-0.166
-464.128	-38.421	0.069	-0.037
-463.113	-130.566	0.098	-0.013
-462.099	-99.687	-0.080	-0.020
-461.084	800.000	0.129	0.366
-460.070	373.708	0.047	0.098
-459.055	421.660	0.088	-0.191
-458.040	-99.105	-0.501	-0.128
-457.026	800.000	-0.043	-0.187
-456.011	-53.501	0.096	0.044
-454.997	-102.615	0.016	-0.004
-453.982	58.442	0.134	-0.133
-452.968	-108.457	-0.238	0.052
-451.953	-200.000	-0.009	-0.097
-450.938	97.116	0.132	-0.153
-449.924	-124.393	0.286	-0.045
-448.909	-3.961	-0.068	0.048
-447.895	-200.000	-0.023	-0.276
-446.880	-166.173	0.020	0.001
-445.865	161.730	0.080	0.113
-444.851	-112.425	-0.115	-0.023
-443.836	14.516	-0.179	-0.142
-442.822	-67.218	-0.189	0.075
-441.807	193.004	0.186	0.285
-440.792	-15.664	0.257	-0.166
-439.778	145.768	0.155	0.210
-438.763	-200.000	0.006	0.138
-437.749	38.124	0.153	0.138
-436.734	-125.198	-0.281	0.043
-435.719	800.000	-0.050	0.190
-434.705	14.197	-0.402	0.317
-433.690	28.510	0.091	0.078
-432.676	-102.331	0.303	-0.073
-431.661	0.529	-0.205	-0.148
-430.646	200.647	-0.052	-0.080
-429.632	175.602	0.091	-0.134
-428.617	358.803	0.132	0.267
-427.603	247.901	-0.150	-0.256
-426.588	462.204	-0.046	0.104
-425.573	677.633	-0.104	0.273
-424.559	-200.000	-0.021	0.112
-423.544	-200.000	0.035	-0.278
-422.530	57.615	-0.084	0.083
-421.515	467.950	-0.100	0.226
-420.500	-101.267	0.302	-0.074
-419.486	-200.000	-0.004	0.192
-418.471	-0.939	-0.231	0.165
-417.457	-7.021	0.075	-0.051
-416.442	62.089	-0.206	-0.208
-415.428	-200.000	0.040	0.182
-414.413	-200.000	0.049	0.452
-413.398	-200.000	-0.019	0.116
-412.384	-10.778	-0.204	0.136
-411.369	-118.109	-0.205	-0.037
-410.355	342.240	0.086	-0.170
-409.340	-168.936	0.324	0.012
-408.325	76.292	0.176	-0.188
-407.311	-200.000	0.033	-0.317
-406.296	580.089	-0.078	-0.194
-405.282	800.000	-0.127	-0.408
-404.267	-110.145	-0.147	-0.031
-403.252	147.465	0.144	-0.195
-402.238	203.175	-0.092	0.143
-401.223	-200.000	0.007	-0.077
-400.209	-45.671	-0.149	0.075
-399.194	-200.000	-0.018	-0.173
-398.179	-200.000	0.015	0.271
-397.165	-7.166	0.384	0.263
-396.150	-137.492	0.086	0.010
-395.136	-112.025	0.255	-0.052
-394.121	64.713	0.119	-0.121
-393.106	342.191	-0.024	-0.047
-392.092	-200.000	0.002	-0.094
-391.077	154.927	-0.045	-0.062
-390.063	800.000	0.038	-0.149
-389.048	-200.000	-0.006	-0.404
-388.033	33.882	-0.098	-0.086
-387.019	-125.148	-0.199	-0.031
-386.004	263.928	0.168	-0.295
-384.990	-18.790	0.266	-0.167
-383.975	123.543	-0.170	0.215
-382.960	-179.848	0.121	0.003
-381.946	44.018	0.065	0.060
-380.931	-200.000	-0.062	-0.375
-379.917	-95.398	-0.067	-0.018
-378.902	84.014	-0.110	0.121
-377.888	66.544	0.079	-0.081
-376.873	351.206	0.058	-0.116
-375.858	499.333	0.062	0.143
-374.844	-57.285	0.186	-0.083
-373.829	141.607	0.087	-0.116
-372.815	336.845	-0.270	0.529
-371.800	-33.100	-0.058	0.032
-370.785	-175.865	-0.070	0.002
-369.771	800.000	-0.015	-0.064
-368.756	-200.000	0.023	-0.153
-367.742	-63.670	0.199	-0.082
-366.727	-45.213	-0.039	-0.020
-365.712	511.796	-0.059	-0.138
-364.698	-147.858	-0.179	0.015
-363.683	28.211	-0.228	0.194
-362.669	-38.094	0.225	0.121
-361.654	-160.629	0.219	-0.012
-360.639	-200.000	0.066	-0.312
-359.625	-200.000	-0.023	-0.337
-358.610	104.815	-0.092	-0.109
-357.596	3.883	0.073	0.054
-356.581	-100.747	-0.061	0.015
-355.566	-176.732	-0.368	0.009
-354.552	-81.239	0.248	-0.083
-353.537	220.768	0.053	-0.085
-352.523	-114.937	-0.405	0.078
-351.508	26.220	0.164	-0.138
-350.493	800.000	-0.010	-0.038
-349.479	48.281	-0.174	0.164
-348.464	613.390	-0.070	-0.177
-347.450	122.095	-0.209	0.264
-346.435	-104.147	-0.208	0.049
-345.420	-54.754	0.442	-0.201
-344.406	-44.178	0.328	0.166
-343.391	-200.000	0.014	-0.177
-342.377	-94.701	0.290	0.079
-341.362	-128.960	-0.336	-0.048
-340.348	-176.577	-0.313	0.008
-339.333	-46.447	-0.083	0.041
-338.318	16.163	0.227	0.181
-337.304	-59.855	-0.464	0.200
-336.289	-36.669	-0.299	-0.162
-335.275	-93.996	-0.267	-0.074
-334.260	-200.000	-0.048	-0.245
-333.245	35.054	-0.121	0.106
-332.231	800.000	-0.128	-0.358
-331.216	-138.269	0.142	-0.016
-330.202	-169.764	-0.165	-0.006
-329.187	-200.000	-0.012	0.233
-328.172	-200.000	0.010	0.187
-327.158	-200.000	0.008	-0.280
-326.143	379.456	-0.096	0.197
-325.129	446.384	0.137	0.303
-324.114	-3.263	0.267	-0.187
-323.099	-165.194	-0.139	0.006
-322.085	-200.000	0.010	-0.217
-321.070	800.000	-0.070	0.210
-320.056	-70.128	-0.181	0.069
-319.041	800.000	0.080	0.248
-318.026	-19.941	0.422	0.262
-317.012	-100.316	0.256	0.064
-315.997	-200.000	0.011	0.066
-314.983	167.753	0.163	-0.233
-313.968	-109.394	-0.104	-0.022
-312.953	510.223	0.180	0.422
-311.939	-93.115	-0.209	-0.058
-310.924	-200.000	-0.021	-0.105
-309.910	-191.978	0.268	0.003
-308.895	12.905	0.223	0.173
-307.880	800.000	0.070	0.202
-306.866	-124.873	0.168	0.026
-305.851	-173.903	-0.388	0.012
-304.837	67.706	-0.168	-0.172
-303.822	800.000	0.048	-0.153
-302.807	800.000	0.127	-0.383
-301.793	240.123	-0.067	-0.113
-300.778	20.937	0.133	0.108
-299.764	-140.270	-0.200	0.021
-298.749	93.107	-0.188	-0.214
-297.735	-110.098	0.400	0.084
-296.720	-200.000	0.028	0.203
-295.705	-108.327	0.237	0.051
-294.691	-153.191	-0.365	-0.026
-293.676	-189.878	0.217	0.002
-292.662	119.035	0.111	0.138
-291.647	-31.223	-0.303	0.172
-290.632	800.000	-0.064	-0.236
-289.618	63.314	0.047	-0.047
-288.603	-200.000	-0.023	-0.367
-287.589	-51.826	-0.154	-0.072
-286.574	-41.890	0.238	0.122
-285.559	-200.000	-0.022	-0.140
-284.545	-62.744	-0.077	0.032
-283.530	800.000	0.049	0.198
-282.516	-63.564	0.036	-0.015
-281.501	-200.000	0.027	0.153
-280.486	-200.000	-0.024	0.311
-279.472	-123.950	-0.110	0.017
-278.457	-200.000	-0.028	-0.168
-277.443	67.118	0.096	0.099
-276.428	69.666	-0.227	0.235
-275.413	-53.099	-0.247	0.114
-274.399	208.801	0.104	0.163
-273.384	482.080	0.200	0.456
-272.370	-103.739	0.160	0.038
-271.355	169.493	-0.039	-0.055
-270.340	342.440	-0.129	0.253
-269.326	-83.862	-0.228	0.073
-268.311	-2.468	-0.202	0.143
-267.297	-142.443	0.183	0.018
-266.282	-88.203	-0.215	-0.065
-265.267	-121.629	-0.365	-0.061
-264.253	-200.000	-0.034	0.312
-263.238	433.676	-0.176	-0.385
-262.224	-200.000	0.001	0.168
-261.209	-136.559	-0.058	0.007
-260.195	113.212	-0.198	-0.242
-259.180	-154.740	-0.106	0.007
-258.165	-77.099	0.286	-0.100
-257.151	800.000	0.103	0.317
-256.136	564.383	-0.058	0.141
-255.122	-193.562	0.351	-0.003
-254.107	210.584	0.195	-0.308
-253.092	800.000	0.023	0.063
-252.078	-9.621	0.224	-0.150
-251.063	143.962	-0.184	0.247
-250.049	306.105	0.098	-0.184
-249.034	-200.000	0.027	-0.283
-248.019	687.654	0.109	0.286
-247.005	176.665	0.107	-0.157
-245.990	80.353	0.207	0.224
-244.976	-117.176	0.321	0.059
-243.961	-160.929	-0.157	0.008
-242.946	-107.926	-0.330	-0.072
-241.932	597.863	0.112	-0.280
-240.917	62.190	0.099	0.099
-239.903	-41.059	-0.174	0.090
-238.888	-34.460	-0.394	0.217
-237.873	493.582	0.128	0.295
-236.859	-50.847	-0.135	-0.064
-235.844	87.223	0.023	-0.025
-234.830	132.418	0.284	0.367
-233.815	37.814	0.172	-0.154
-232.800	178.401	-0.194	-0.284
-231.786	95.014	0.083	0.095
-230.771	199.054	0.042	0.065
-229.757	-200.000	0.010	0.140
-228.742	337.087	-0.174	0.340
-227.727	163.203	0.086	0.121
-226.713	16.260	-0.178	0.141
-225.698	32.514	0.108	-0.094
-224.684	-106.370	0.401	-0.090
-223.669	-200.000	-0.083	0.391
-222.655	6.895	0.099	-0.074
-221.640	-63.558	0.260	0.107
-220.625	-78.888	0.055	0.019
-219.611	16.363	0.219	-0.173
-218.596	47.980	0.189	0.177
-217.582	-26.237	0.286	0.168
-216.567	-162.482	0.205	0.010
-215.552	45.342	-0.162	0.150
-214.538	-90.168	-0.074	0.022
-213.523	-140.359	0.295	-0.031
-212.509	127.825	-0.137	0.175
-211.494	-200.000	-0.058	0.269
-210.479	-114.915	0.181	0.035
-209.465	800.000	0.017	-0.052
-208.450	116.847	0.086	0.106
-207.436	201.494	0.104	-0.160
-206.421	800.000	-0.094	0.283
-205.406	-185.936	-0.368	0.005
-204.392	325.072	-0.187	-0.358
-203.377	-152.697	0.165	-0.012
-202.363	-117.552	-0.159	0.029
-201.348	-52.540	0.151	0.070
-200.333	-36.156	-0.169	0.091
-199.319	-200.000	-0.003	-0.313
-198.304	800.000	-0.017	-0.050
-197.290	-21.472	0.102	0.062
-196.275	800.000	0.096	-0.311
-195.260	800.000	0.085	0.306
-194.246	-200.000	0.000	-0.017
-193.231	-65.649	0.369	0.148
-192.217	-200.000	0.091	0.448
-191.202	-68.658	-0.313	-0.122
-190.187	-200.000	-0.019	-0.410
-189.173	-200.000	-0.017	-0.322
-188.158	402.819	0.165	-0.347
-187.144	631.254	0.107	0.270
-186.129	516.812	-0.111	-0.260
-185.114	-200.000	0.003	-0.035
-184.100	-46.960	0.103	-0.051
-183.085	-85.004	0.166	0.052
-182.071	-103.739	0.357	0.084
-181.056	388.913	0.047	-0.098
-180.042	647.183	0.132	-0.337
-179.027	-126.054	-0.212	0.032
-178.012	89.402	0.136	-0.152
-176.998	-105.409	0.235	0.054
-175.983	-200.000	-0.064	0.351
-174.969	-200.000	-0.021	-0.100
-173.954	248.518	0.054	0.091
-172.939	-108.079	-0.349	0.076
-171.925	-110.692	0.408	-0.084
-170.910	21.790	-0.275	0.224
-169.896	-33.631	-0.323	0.179
-168.881	365.791	0.091	-0.184
-167.866	-0.002	-0.121	-0.086
-166.852	-17.010	0.082	0.052
-165.837	-40.464	0.243	0.126
-164.823	63.516	-0.153	0.153
-163.808	-200.000	0.069	-0.591
-162.793	-200.000	-0.005	0.064
-161.779	-42.229	-0.242	-0.124
-160.764	140.257	0.075	0.099
-159.750	-158.096	0.125	-0.007
-158.735	244.056	-0.112	0.188
-157.720	800.000	-0.069	0.279
-156.706	800.000	-0.132	0.383
-155.691	190.904	0.083	0.125
-154.677	800.000	-0.029	-0.125
-153.662	275.879	-0.112	0.199
-152.647	-31.569	-0.218	-0.123
-151.633	-22.250	0.199	0.121
-150.618	100.045	0.291	-0.337
-149.604	79.301	0.077	-0.083
-148.589	-9.832	-0.063	-0.042
-147.574	800.000	-0.086	0.289
-146.560	350.325	-0.101	-0.199
-145.545	107.564	-0.086	-0.103
-144.531	-200.000	-0.035	0.256
-143.516	-200.000	-0.022	0.406
-142.502	800.000	-0.031	0.104
-141.487	-122.492	-0.224	-0.036
-140.472	-61.419	-0.081	0.034
-139.458	-86.191	0.147	0.045
-138.443	378.991	0.086	0.176
-137.429	800.000	0.018	0.057
-136.414	-20.206	0.157	0.097
-135.399	-200.000	0.021	-0.196
-134.385	800.000	0.068	-0.262
-133.370	88.232	-0.207	-0.229
-132.356	13.463	-0.084	0.065
-131.341	-109.360	-0.271	0.057
-130.326	218.290	-0.129	-0.205
-129.312	121.361	-0.127	0.157
-128.297	19.181	0.213	0.171
-127.283	396.153	-0.119	-0.249
-126.268	126.026	-0.159	-0.201
-125.253	-181.579	0.393	-0.008
-124.239	-139.387	-0.149	-0.016
-123.224	-94.942	-0.105	0.028
-122.210	93.868	0.073	0.083
-121.195	-172.482	-0.133	-0.004
-120.180	-200.000	0.443	-0.001
-119.166	60.938	-0.157	0.156
-118.151	11.620	0.256	0.196
-117.137	-63.150	-0.146	0.060
-116.122	-200.000	0.043	-0.298
-115.107	-71.287	-0.019	0.007
-114.093	-38.680	-0.126	-0.066
-113.078	800.000	0.094	0.264
-112.064	108.927	0.150	0.179
-111.049	800.000	-0.097	0.339
-110.034	257.286	0.126	0.216
-109.020	-109.959	0.349	-0.073
-108.005	-127.042	0.270	0.040
-106.991	260.570	0.079	0.136
-105.976	-127.780	0.453	0.065
-104.962	-200.000	-0.047	-0.240
-103.947	-3.628	0.140	-0.097
-102.932	-200.000	0.109	0.000
-101.918	800.000	0.063	0.179
-100.903	229.282	0.103	-0.168
-99.889	-61.651	-0.172	0.072
-98.874	219.508	-0.158	0.252
-97.859	-200.000	-0.025	-0.129
-96.845	800.000	-0.094	-0.313
-95.830	-200.000	0.012	-0.339
-94.816	-162.589	-0.095	-0.005
-93.801	146.466	-0.082	0.110
-92.786	-44.846	0.304	0.151
-91.772	-200.000	0.089	0.406
-90.757	-180.359	-0.183	0.004
-89.743	-77.152	0.209	-0.073
-88.728	-200.000	-0.006	0.092
-87.713	-87.649	0.142	0.043
-86.699	-64.457	0.192	-0.078
-85.684	18.101	-0.183	-0.146
-84.670	139.681	-0.255	0.335
-83.655	-200.000	-0.005	0.139
-82.640	-14.398	-0.249	0.160
-81.626	-200.000	0.054	0.276
-80.611	-73.115	-0.113	0.041
-79.597	800.000	0.128	0.402
-78.582	-118.815	-0.231	0.040
-77.567	-153.070	-0.314	-0.022
-76.553	61.016	0.193	-0.191
-75.538	-109.733	-0.152	-0.032
-74.524	-107.883	0.098	-0.021
-73.509	-200.000	-0.008	-0.050
-72.494	93.093	0.180	0.203
-71.480	58.363	0.135	-0.132
-70.465	-125.898	0.313	-0.047
-69.451	12.720	0.246	-0.189
-68.436	-149.480	0.298	0.024
-67.422	45.854	-0.082	-0.076
-66.407	-54.832	-0.414	-0.186
-65.392	-70.073	0.197	0.075
-64.378	306.437	-0.133	0.247
-63.363	513.196	0.086	-0.200
-62.349	62.215	-0.154	-0.153
-61.334	163.323	-0.575	-0.806
-60.319	-90.452	-0.161	-0.047
-59.305	417.935	0.245	-0.521
-58.290	236.015	0.447	0.737
-57.276	800.000	0.513	1.449
-56.261	-200.000	81.172	490.719
-55.246	451.738	1384.783	3048.707
-54.232	141.032	2625.297	3458.388
-53.217	108.420	2264.633	2692.813
-52.203	48.421	1703.518	1589.127
-51.188	41.117	1429.316	1286.315
-50.173	37.848	1384.816	1225.708
-49.159	55.943	1425.201	1377.069
-48.144	60.483	1444.593	1424.683
-47.130	41.667	1403.472	1266.345
-46.115	37.881	1386.743	1227.428
-45.100	37.692	1381.414	1221.478
-44.086	37.653	1379.139	1219.170
-43.071	37.611	1376.527	1216.552
-42.057	37.534	1374.394	1214.138
-41.042	37.589	1372.776	1212.999
-40.027	37.699	1371.208	1212.252
-39.013	37.688	1368.618	1209.850
-37.998	37.740	1367.015	1208.705
-36.984	37.773	1365.522	1207.544
-35.969	37.777	1363.750	1205.952
-34.954	37.897	1361.373	1204.543
-33.940	37.896	1360.068	1203.334
-32.925	37.817	1359.066	1201.911
-31.911	37.872	1357.459	1200.780
-30.896	37.889	1355.765	1199.340
-29.881	37.845	1354.720	1198.096
-28.867	37.934	1353.172	1197.227
-27.852	37.768	1352.069	1195.184
-26.838	37.960	1350.213	1194.677
-25.823	37.920	1349.115	1193.410
-24.809	37.807	1347.686	1191.408
-23.794	37.843	1345.657	1189.789
-22.779	37.933	1344.289	1189.080
-21.765	37.832	1343.472	1187.694
-20.750	37.877	1342.097	1186.708
-19.736	37.796	1340.231	1184.518
-18.721	37.716	1339.270	1183.131
-17.706	37.746	1338.153	1182.285
-16.692	37.755	1337.029	1181.298
-15.677	37.817	1335.541	1180.310
-14.663	37.650	1334.951	1178.730
-13.648	37.719	1333.430	1177.757
-12.633	37.673	1332.637	1176.733
-11.619	37.766	1331.839	1176.542
-10.604	37.774	1330.868	1175.688
-9.590	37.695	1330.021	1174.418
-8.575	37.623	1328.827	1172.883
-7.560	37.686	1327.613	1172.140
-6.546	37.637	1326.954	1171.223
-5.531	37.680	1325.636	1170.272
-4.517	37.750	1325.034	1170.109
-3.502	37.785	1323.869	1169.243
-2.487	37.773	1323.053	1168.408
-1.473	37.887	1320.061	1166.403
-0.458	37.747	1305.881	1152.998
0.556	34.004	1287.682	1117.470
1.571	29.205	1290.415	1091.395
2.586	26.654	1302.701	1086.413
3.600	24.297	1289.433	1061.243
4.615	17.165	1210.312	956.037
5.629	6.418	1125.905	832.732
6.644	1.195	1102.297	788.113
7.659	0.798	1099.776	784.182
8.673	0.702	1098.738	782.877
9.688	0.616	1097.406	781.412
10.702	0.890	1095.410	781.338
11.717	6.215	1103.131	814.402
12.731	14.836	1114.798	867.884
13.746	18.056	1118.167	887.176
14.761	17.424	1116.784	882.722
15.775	16.487	1114.818	876.238
16.790	15.525	1112.607	869.444
17.804	14.838	1111.085	864.624
18.819	14.457	1109.720	861.516
19.834	14.141	1108.731	859.043
20.848	13.826	1108.015	856.784
21.863	13.708	1106.563	854.978
22.877	13.482	1106.148	853.416
23.892	13.477	1105.097	852.502
24.907	13.402	1104.650	851.700
25.921	13.459	1103.936	851.365
26.936	13.617	1102.852	851.264
27.950	13.489	1102.061	849.925
28.965	13.710	1100.524	849.793
29.980	13.638	1099.332	848.429
30.994	13.754	1097.933	847.869
32.009	13.681	1097.316	846.944
33.023	13.636	1096.214	845.788
34.038	13.690	1095.328	845.304
35.053	13.594	1094.542	844.138
36.067	13.652	1093.477	843.535
37.082	13.650	1092.830	842.949
38.096	13.745	1091.623	842.425
39.111	13.678	1090.692	841.293
40.126	13.567	1089.743	839.923
41.140	13.516	1088.955	838.985
42.155	13.508	1087.716	837.918
43.169	13.450	1086.657	836.732
44.184	13.280	1085.692	835.059
45.199	13.450	1084.187	834.682
46.213	13.539	1083.090	834.213
47.228	13.435	1082.143	832.887
48.242	13.458	1081.152	832.168
49.257	13.479	1079.882	831.220
50.271	13.540	1079.251	830.964
51.286	13.643	1077.918	830.381
52.301	13.578	1077.205	829.434
53.315	13.556	1076.588	828.777
54.330	13.437	1075.213	827.051
55.344	13.508	1073.987	826.387
56.359	13.560	1073.261	826.013
57.374	13.567	1072.266	825.213
58.388	13.447	1071.622	824.043
59.403	13.334	1070.745	822.738
60.417	13.307	1070.334	822.212
61.432	13.391	1069.247	821.725
62.447	13.341	1068.121	820.536
63.461	13.436	1067.300	820.306
64.476	13.351	1066.105	818.891
65.490	13.346	1065.454	818.294
66.505	13.476	1064.525	818.154
67.520	13.374	1064.356	817.446
68.534	13.513	1063.362	817.294
69.549	13.477	1062.778	816.599
70.563	13.427	1061.835	815.554
71.578	13.443	1060.759	814.736
72.593	13.324	1060.037	813.522
73.607	13.390	1059.399	813.284
74.622	13.402	1058.468	812.559
75.636	13.354	1057.717	811.672
76.651	13.275	1057.238	810.848
77.666	13.374	1056.648	810.807
78.680	13.353	1056.002	810.136
79.695	13.418	1055.058	809.661
80.709	13.356	1054.371	808.758
81.724	13.372	1053.918	808.418
82.739	13.470	1052.895	808.037
83.753	13.561	1052.153	807.841
84.768	13.623	1050.798	807.032
85.782	13.621	1050.487	806.711
86.797	13.652	1049.150	805.764
87.812	13.429	1048.874	804.395
88.826	13.506	1047.588	803.713
89.841	13.528	1046.624	803.011
90.855	13.655	1045.319	802.551
91.870	13.645	1044.636	801.910
92.884	13.622	1043.748	801.047
93.899	13.684	1042.988	800.692
94.914	13.659	1041.980	799.723
95.928	13.704	1041.146	799.232
96.943	13.482	1040.879	797.887
97.957	13.583	1039.786	797.463
98.972	13.628	1038.999	797.007
99.987	13.676	1037.929	796.347
101.001	13.572	1036.829	794.932
102.016	13.666	1035.830	794.546
103.030	13.658	1035.144	793.910
104.045	13.612	1034.535	793.153
105.060	13.523	1033.345	791.744
106.074	13.595	1032.469	791.349
107.089	13.581	1031.157	790.204
108.103	13.677	1029.616	789.411
109.118	13.432	1029.755	788.280
110.133	13.565	1028.940	788.221
111.147	13.591	1027.799	787.401
112.162	13.515	1027.585	786.805
113.176	13.467	1026.463	785.648
114.191	13.704	1025.183	785.722
115.206	13.657	1024.467	784.882
116.220	13.617	1024.032	784.289
117.235	13.568	1023.012	783.208
118.249	13.588	1022.259	782.656
119.264	13.626	1021.315	782.045
120.279	13.614	1020.400	781.220
121.293	13.578	1019.408	780.222
122.308	13.554	1018.426	779.286
123.322	13.545	1017.393	778.387
124.337	13.566	1016.530	777.755
125.352	13.433	1015.962	776.628
126.366	13.581	1014.573	776.189
127.381	13.487	1013.488	774.852
128.395	13.520	1012.485	774.170
129.410	13.641	1011.507	773.921
130.424	13.613	1010.308	772.802
131.439	13.701	1009.609	772.612
132.454	13.743	1009.183	772.412
133.468	13.661	1008.305	771.288
134.483	13.666	1007.091	770.315
135.497	13.728	1006.448	770.044
136.512	13.574	1005.644	768.644
137.527	13.653	1004.594	768.142
138.541	13.759	1003.962	768.081
139.556	13.675	1003.198	767.042
140.570	13.905	1002.243	767.302
141.585	13.808	1001.600	766.299
142.600	13.875	1000.725	765.866
143.614	13.939	999.638	765.266
144.629	13.918	998.810	764.465
145.643	13.792	997.921	763.140
146.658	13.755	997.196	762.344
147.673	13.731	996.482	761.620
148.687	13.692	995.473	760.606
149.702	13.715	994.493	759.895
150.716	13.735	993.752	759.352
151.731	13.727	992.944	758.629
152.746	13.673	992.293	757.821
153.760	13.672	991.633	757.245
154.775	13.778	990.675	756.928
155.789	13.841	990.128	756.731
156.804	13.887	989.530	756.417
157.819	13.755	989.028	755.367
158.833	13.937	987.963	755.315
159.848	13.914	987.193	754.552
160.862	13.881	986.110	753.509
161.877	13.818	985.551	752.731
162.892	13.938	984.174	752.155
163.906	13.751	983.463	750.699
164.921	13.747	982.501	749.878
165.935	13.900	981.403	749.666
166.950	13.869	980.748	748.962
167.964	13.990	979.445	748.444
168.979	13.971	978.534	747.595
169.994	13.964	977.757	746.904
171.008	13.843	977.065	745.765
172.023	13.992	976.194	745.703
173.037	14.022	975.579	745.302
174.052	13.929	975.014	744.388
175.067	13.801	974.746	743.543
176.081	13.916	973.630	743.141
177.096	13.935	973.327	742.931
178.110	13.916	972.624	742.242
179.125	13.989	971.921	741.966
180.140	13.940	971.250	741.168
181.154	14.079	970.870	741.436
182.169	14.024	970.486	740.830
183.183	14.207	969.216	740.611
184.198	14.263	968.464	740.217
185.213	14.142	967.743	739.065
186.227	14.102	967.150	738.370
187.242	14.231	966.587	738.444
188.256	14.265	966.004	738.083
189.271	14.209	965.347	737.269
190.286	14.055	964.480	735.859
191.300	14.030	963.782	735.153
192.315	14.033	963.272	734.714
193.329	14.027	962.869	734.312
194.344	14.119	961.727	733.783
195.359	14.092	961.156	733.164
196.373	14.207	960.331	732.977
197.388	14.377	959.920	733.345
198.402	14.284	959.166	732.298
199.417	14.333	958.540	731.969
200.432	14.486	958.178	732.301
201.446	14.407	957.959	731.721
202.461	14.391	957.233	731.031
203.475	14.488	956.560	730.880
204.490	14.300	955.976	729.544
205.504	14.316	955.079	728.863
206.519	14.332	954.420	728.365
207.534	14.349	953.614	727.761
208.548	14.486	952.806	727.680
209.563	14.518	951.996	727.137
210.577	14.453	951.665	726.534
211.592	14.375	950.648	725.353
212.607	14.547	950.030	725.564
213.621	14.585	949.020	724.894
214.636	14.467	948.800	724.150
215.650	14.563	947.947	723.852
216.665	14.609	947.261	723.464
217.680	14.791	946.045	723.261
218.694	14.683	945.479	722.294
219.709	14.633	944.939	721.602
220.723	14.611	944.471	721.087
221.738	14.678	943.226	720.360
222.753	14.756	942.713	720.243
223.767	14.668	942.193	719.401
224.782	14.693	941.922	719.239
225.796	14.763	941.096	718.848
226.811	14.837	940.474	718.624
227.826	14.755	939.465	717.439
228.840	14.652	938.958	716.545
229.855	14.803	937.863	716.294
230.869	14.696	937.530	715.520
231.884	14.744	936.510	714.884
232.899	14.787	935.527	714.252
233.913	14.856	934.906	714.008
234.928	14.623	934.729	712.817
235.942	14.652	934.138	712.426
236.957	14.712	933.278	711.964
237.972	14.731	932.927	711.715
238.986	14.918	931.619	711.450
240.001	14.726	931.251	710.286
241.015	14.791	930.674	710.061
242.030	14.908	929.837	709.855
243.045	14.855	929.607	709.392
244.059	14.878	928.841	708.845
245.074	14.987	928.058	708.646
246.088	14.937	927.527	707.966
247.103	14.956	926.600	707.274
248.117	14.926	926.388	706.925
249.132	15.042	925.497	706.669
250.147	15.117	924.813	706.404
251.161	15.066	924.285	705.721
252.176	15.135	923.598	705.423
253.190	15.108	922.769	704.617
254.205	15.232	922.146	704.600
255.220	15.215	921.135	703.692
256.234	15.241	920.547	703.291
257.249	15.255	920.089	702.935
258.263	15.136	919.353	701.812
259.278	15.241	918.530	701.564
260.293	15.373	917.671	701.396
261.307	15.319	917.389	700.895
262.322	15.350	916.642	700.390
263.336	15.373	916.121	700.027
264.351	15.350	915.175	699.145
265.366	15.478	914.381	699.013
266.380	15.540	913.943	698.871
267.395	15.416	913.093	697.643
268.409	15.458	912.504	697.306
269.424	15.440	911.711	696.565
270.439	15.478	911.108	696.202
271.453	15.469	909.983	695.243
272.468	15.423	909.622	694.716
273.482	15.367	909.291	694.167
274.497	15.445	908.480	693.811
275.512	15.490	907.514	693.198
276.526	15.588	907.419	693.467
277.541	15.715	906.852	693.495
278.555	15.623	906.405	692.715
279.570	15.553	905.886	691.969
280.585	15.562	904.842	691.148
281.599	15.610	903.967	690.613
282.614	15.705	903.314	690.446
283.628	15.596	902.683	689.452
284.643	15.665	902.614	689.625
285.657	15.765	901.495	689.114
286.672	15.744	900.900	688.514
287.687	15.695	900.317	687.806
288.701	15.655	899.975	687.323
289.716	15.674	899.204	686.749
290.730	15.673	898.770	686.353
291.745	15.851	897.789	686.270
292.760	15.895	896.929	685.731
293.774	15.835	896.467	685.070
294.789	15.926	895.434	684.594
295.803	15.843	895.067	683.913
296.818	15.915	894.053	683.369
297.833	15.878	893.574	682.795
298.847	15.863	893.198	682.385
299.862	15.954	892.329	682.029
300.876	16.004	891.755	681.734
301.891	15.951	891.279	681.094
302.906	15.982	890.983	680.932
303.920	15.980	890.066	680.163
304.935	16.104	889.777	680.383
305.949	16.033	889.054	679.484
306.964	16.078	888.280	679.014
307.979	16.026	887.875	678.433
308.993	16.127	886.879	678.020
310.008	16.126	886.281	677.500
311.022	16.134	886.104	677.335
312.037	16.141	885.297	676.685
313.052	16.067	884.999	676.103
314.066	16.116	883.830	675.346
315.081	16.148	883.596	675.236
316.095	16.021	883.143	674.319
317.110	16.131	882.457	674.177
318.125	16.187	881.774	673.821
319.139	16.141	881.817	673.610
320.154	16.139	880.983	672.905
321.168	16.139	880.735	672.655
322.183	16.169	879.877	672.060
323.197	16.249	879.311	671.889
324.212	16.207	878.832	671.296
325.227	16.311	877.708	670.791
326.241	16.252	877.247	670.144
327.256	16.309	876.672	669.873
328.270	16.166	876.298	668.960
329.285	16.388	875.262	668.988
330.300	16.316	874.809	668.298
331.314	16.285	874.551	667.920
332.329	16.255	874.571	667.756
333.343	16.416	873.587	667.582
334.358	16.374	873.253	667.103
335.373	16.404	872.874	666.873
336.387	16.290	872.751	666.270
337.402	16.294	872.316	665.895
338.416	16.542	871.874	666.475
339.431	16.476	871.699	666.023
340.446	16.454	871.112	665.430
341.460	16.539	870.563	665.284
342.475	16.648	870.302	665.454
343.489	16.562	869.418	664.382
344.504	16.605	869.059	664.218
345.519	16.651	868.788	664.131
346.533	16.558	867.917	663.042
347.548	16.704	867.312	663.095
348.562	16.737	866.723	662.714
349.577	16.660	866.044	661.837
350.592	16.631	865.495	661.245
351.606	16.612	864.793	660.574
352.621	16.704	863.956	660.238
353.635	16.568	863.835	659.553
354.650	16.632	863.274	659.316
355.665	16.745	862.115	658.813
356.679	16.657	861.549	657.982
357.694	16.804	860.897	657.994
358.708	16.847	859.901	657.345
359.723	16.767	859.995	657.044
360.738	16.733	859.174	656.230
361.752	16.950	858.221	656.281
362.767	16.863	858.064	655.770
363.781	16.857	857.343	655.136
364.796	16.901	857.040	655.017
365.810	16.895	857.009	654.912
366.825	17.056	855.821	654.565
367.840	16.886	855.607	653.689
368.854	16.946	855.077	653.458
369.869	17.016	854.884	653.521
370.883	16.907	854.510	652.759
371.898	17.084	854.152	653.111
372.913	17.073	853.316	652.371
373.927	17.120	852.670	652.000
374.942	17.083	852.242	651.470
375.956	17.130	851.949	651.370
376.971	17.128	851.793	651.185
377.986	17.238	850.733	650.738
379.000	17.336	850.245	650.682
380.015	17.237	850.041	650.090
381.029	17.477	849.071	650.208
382.044	17.337	848.721	649.347
383.059	17.325	848.063	648.741
384.073	17.168	847.561	647.702
385.088	17.121	847.233	647.214
386.102	17.242	846.612	647.145
387.117	17.301	845.938	646.795
388.132	17.244	845.112	645.890
389.146	17.376	844.667	645.993
390.161	17.461	844.353	646.021
391.175	17.172	843.842	644.474
392.190	17.431	842.767	644.577
393.205	17.240	843.056	644.017
394.219	17.295	842.295	643.589
395.234	17.321	842.121	643.498
396.248	17.348	841.515	643.078
397.263	17.373	840.978	642.708
398.278	17.386	840.650	642.447
399.292	17.409	840.256	642.178
400.307	17.391	839.791	641.698
401.321	17.343	839.440	641.189
402.336	17.338	838.746	640.585
403.350	17.451	838.740	640.950
404.365	17.532	837.699	640.403
405.380	17.575	837.161	640.095
406.394	17.572	836.912	639.835
407.409	17.666	836.166	639.563
408.423	17.722	835.999	639.587
409.438	17.598	836.050	639.105
410.453	17.650	835.097	638.515
411.467	17.672	834.959	638.436
412.482	17.693	834.586	638.171
413.496	17.751	833.954	637.852
414.511	17.829	833.520	637.752
415.526	17.820	833.252	637.456
416.540	17.720	832.471	636.430
417.555	17.785	831.872	636.160
418.569	17.891	831.700	636.365
419.584	17.847	831.128	635.707
420.599	17.844	830.935	635.492
421.613	97.534	1278.223	1410.341
422.628	84.310	1343.382	1410.490
