DTS Sentinel unit serial number:	SN413079Multiplexer serial number:	ORYXHardware model number:	OX4-SRSoftware version number:	ORYX F/W v4.00 Oryx Data Collector v3.7.2.0data status	okinstallation	princeton_trtdifferential loss correction	single-endedforward channel	channel 1reverse channel	N/Adate	2019/09/13time	22:30:35forward acquisition time	60.00reverse acquisition time	0.00gamma	496.2192k internal	0.2332k external	0.2332temperature offset calibration	1.0090default loss term (dB/km)	0.3790temperature slope calibration	1.0000multiplexer offset coefficient	1.0000multiplexer slope coefficient	1.0000fibre end	0.00T internal ref (°C)	27.75T ext. ref 1 (°C)	3.24T ext. ref 2 (°C)	22.18length (m)	temperature (°C)	Stokes	anti-Stokes-747.200	57.001	0.166	-0.163
-746.185	-10.933	-0.465	0.309
-745.171	129.061	-0.127	-0.163
-744.156	-85.084	-0.334	-0.105
-743.142	800.000	0.108	-0.339
-742.127	-119.378	-0.473	-0.083
-741.112	16.203	-0.066	0.053
-740.098	-106.250	0.114	0.026
-739.083	-100.574	0.155	-0.039
-738.069	56.349	-0.123	0.120
-737.054	12.484	0.090	-0.070
-736.039	-38.302	-0.157	0.084
-735.025	63.541	0.251	0.253
-734.010	-200.000	0.024	-0.138
-732.996	-49.935	0.281	-0.134
-731.981	-131.209	0.295	0.039
-730.966	800.000	0.059	-0.200
-729.952	-45.293	-0.167	-0.084
-728.937	-77.726	-0.338	-0.117
-727.923	-200.000	0.019	-0.113
-726.908	800.000	-0.080	-0.270
-725.894	-119.241	0.164	0.029
-724.879	-117.592	-0.050	-0.009
-723.864	-122.029	-0.146	-0.024
-722.850	14.987	-0.375	0.295
-721.835	-183.236	-0.162	-0.003
-720.821	-45.810	0.088	0.044
-719.806	65.019	0.193	-0.196
-718.791	247.844	-0.188	-0.319
-717.777	-200.000	0.023	-0.157
-716.762	-200.000	-0.025	-0.198
-715.748	-172.776	-0.264	0.008
-714.733	62.408	-0.158	0.159
-713.718	-62.496	-0.107	-0.045
-712.704	-176.878	0.299	0.008
-711.689	-127.027	-0.172	0.025
-710.675	-200.000	-0.035	-0.237
-709.660	-28.577	0.257	-0.149
-708.645	-200.000	-0.066	0.397
-707.631	432.430	-0.129	0.280
-706.616	-5.568	-0.152	0.105
-705.602	-169.570	0.174	0.006
-704.587	102.238	-0.163	-0.191
-703.572	-60.093	-0.230	-0.098
-702.558	800.000	0.036	-0.100
-701.543	-172.720	-0.197	0.006
-700.529	6.803	0.140	0.104
-699.514	9.040	-0.238	-0.180
-698.499	-71.098	-0.346	0.131
-697.485	-72.652	0.248	-0.092
-696.470	-200.000	0.012	0.233
-695.456	567.577	0.083	-0.202
-694.441	218.842	-0.139	-0.223
-693.426	-200.000	-0.036	-0.190
-692.412	273.673	0.137	0.244
-691.397	83.418	0.011	0.013
-690.383	-68.051	-0.169	0.066
-689.368	137.596	-0.213	0.280
-688.354	-71.633	0.033	0.012
-687.339	170.606	-0.037	-0.053
-686.324	106.658	-0.080	-0.095
-685.310	-112.005	-0.202	0.041
-684.295	89.627	-0.352	-0.394
-683.281	-200.000	0.024	0.213
-682.266	6.225	-0.295	0.220
-681.251	433.114	-0.100	-0.217
-680.237	104.424	0.122	-0.144
-679.222	-45.146	0.312	-0.156
-678.208	605.033	-0.061	0.152
-677.193	-200.000	-0.019	-0.184
-676.178	41.396	-0.126	0.114
-675.164	-200.000	-0.014	-0.101
-674.149	609.279	-0.063	-0.157
-673.135	-83.763	0.140	-0.045
-672.120	-73.382	-0.250	-0.092
-671.105	143.896	0.307	-0.411
-670.091	64.840	-0.064	-0.065
-669.076	-12.485	0.049	0.032
-668.062	800.000	0.053	0.232
-667.047	60.623	-0.124	-0.123
-666.032	-200.000	-0.019	-0.149
-665.018	10.935	0.091	0.070
-664.003	-155.992	-0.254	-0.016
-662.989	-29.087	0.299	-0.172
-661.974	-8.487	-0.286	0.193
-660.959	-81.841	-0.325	-0.107
-659.945	-84.848	-0.230	0.072
-658.930	-108.379	0.310	0.067
-657.916	-136.430	-0.312	0.036
-656.901	174.578	0.150	-0.218
-655.886	7.886	-0.030	0.023
-654.872	800.000	-0.064	-0.234
-653.857	63.723	-0.231	0.233
-652.843	-154.737	0.045	-0.003
-651.828	-87.532	-0.308	0.093
-650.814	523.292	-0.060	0.141
-649.799	800.000	0.021	-0.062
-648.784	-66.690	-0.305	-0.121
-647.770	9.146	0.322	0.244
-646.755	470.727	-0.099	0.224
-645.741	-200.000	-0.011	0.268
-644.726	276.408	-0.173	-0.308
-643.711	58.097	-0.182	-0.179
-642.697	125.045	-0.113	0.142
-641.682	366.375	-0.071	-0.143
-640.668	196.000	0.219	-0.333
-639.653	181.147	0.086	-0.127
-638.638	101.378	-0.354	0.413
-637.624	-200.000	-0.021	-0.283
-636.609	716.153	-0.048	-0.127
-635.595	-154.854	-0.195	-0.013
-634.580	800.000	0.084	-0.268
-633.565	-18.080	-0.043	-0.027
-632.551	-24.074	0.169	-0.101
-631.536	-1.504	0.026	-0.018
-630.522	421.894	0.109	-0.234
-629.507	800.000	0.043	-0.160
-628.492	-70.474	0.045	-0.017
-627.478	-4.243	0.264	0.183
-626.463	-200.000	-0.266	0.000
-625.449	216.846	-0.045	-0.072
-624.434	-200.000	-0.036	-0.194
-623.419	112.957	0.062	-0.075
-622.405	-159.355	-0.055	0.003
-621.390	-200.000	-0.047	-0.296
-620.376	-93.241	-0.206	0.057
-619.361	-26.329	-0.074	-0.043
-618.346	372.056	-0.101	-0.205
-617.332	-200.000	0.020	-0.198
-616.317	-122.857	-0.334	0.054
-615.303	-4.244	0.279	-0.193
-614.288	-39.196	-0.232	-0.122
-613.273	246.916	0.106	-0.180
-612.259	3.666	-0.198	-0.145
-611.244	13.618	0.260	-0.202
-610.230	-200.000	0.003	-0.048
-609.215	42.680	-0.164	0.150
-608.201	800.000	0.017	0.073
-607.186	-36.584	-0.255	-0.137
-606.171	118.134	0.070	-0.087
-605.157	236.992	-0.101	-0.167
-604.142	800.000	0.085	-0.303
-603.128	67.742	-0.049	-0.050
-602.113	-129.091	0.207	-0.029
-601.098	435.945	0.091	-0.199
-600.084	-169.989	-0.257	0.009
-599.069	800.000	0.026	0.079
-598.055	-155.046	0.379	0.025
-597.040	526.798	0.021	0.049
-596.025	-197.093	0.121	-0.001
-595.011	-89.174	0.099	-0.029
-593.996	-78.997	-0.215	0.073
-592.982	-29.660	0.422	0.241
-591.967	13.287	-0.142	-0.110
-590.952	190.213	0.155	-0.232
-589.938	-68.846	0.275	0.106
-588.923	21.692	0.164	0.133
-587.909	256.737	0.154	0.264
-586.894	-200.000	-0.031	0.142
-585.879	800.000	-0.078	-0.283
-584.865	30.492	-0.210	0.179
-583.850	-27.558	0.070	-0.041
-582.836	144.199	0.230	-0.306
-581.821	-5.010	-0.042	0.029
-580.806	596.164	0.186	0.461
-579.792	398.085	0.008	0.016
-578.777	-2.521	0.039	0.027
-577.763	-109.911	-0.391	0.082
-576.748	-115.524	-0.308	-0.058
-575.733	772.301	0.078	0.212
-574.719	27.868	-0.091	0.076
-573.704	800.000	-0.104	0.289
-572.690	111.802	-0.153	0.184
-571.675	-62.170	0.118	-0.049
-570.661	-82.281	-0.116	-0.038
-569.646	-200.000	-0.014	0.061
-568.631	-104.007	0.299	-0.070
-567.617	2.948	0.156	0.113
-566.602	74.233	-0.324	-0.340
-565.588	9.326	0.177	-0.134
-564.573	-200.000	-0.020	-0.310
-563.558	-76.298	-0.010	0.004
-562.544	72.040	-0.033	0.034
-561.529	168.456	-0.132	-0.187
-560.515	-120.619	0.366	-0.062
-559.500	-200.000	0.032	0.351
-558.485	312.634	-0.024	0.044
-557.471	127.520	-0.174	-0.221
-556.456	332.519	-0.124	0.239
-555.442	383.416	-0.099	0.204
-554.427	-200.000	0.008	0.159
-553.412	-86.713	-0.380	-0.116
-552.398	800.000	0.082	-0.275
-551.383	-22.776	-0.257	-0.155
-550.369	271.270	-0.104	0.183
-549.354	166.916	0.186	-0.263
-548.339	-145.981	-0.380	0.034
-547.325	-200.000	-0.015	0.121
-546.310	11.114	0.194	-0.148
-545.296	-82.072	-0.153	0.050
-544.281	409.784	0.201	0.424
-543.266	-73.485	0.055	-0.020
-542.252	-91.055	0.137	-0.039
-541.237	87.616	0.122	0.135
-540.223	734.978	-0.107	0.287
-539.208	-5.413	0.221	-0.151
-538.193	-27.371	0.262	-0.152
-537.179	132.467	0.065	-0.083
-536.164	133.197	0.213	0.274
-535.150	135.719	-0.312	0.405
-534.135	-103.857	0.287	-0.067
-533.121	65.271	-0.146	-0.147
-532.106	-72.184	0.102	0.038
-531.091	800.000	-0.031	0.086
-530.077	-49.584	0.239	-0.114
-529.062	-56.653	-0.153	0.067
-528.048	-65.583	0.024	-0.010
-527.033	-14.237	0.223	0.143
-526.018	-106.590	-0.337	-0.075
-525.004	-61.349	0.326	0.137
-523.989	800.000	-0.026	-0.097
-522.975	800.000	0.069	0.273
-521.960	-115.444	-0.182	-0.034
-520.945	185.728	-0.049	0.073
-519.931	-84.762	-0.327	-0.103
-518.916	-43.208	0.168	-0.085
-517.902	128.122	0.184	0.233
-516.887	-74.940	0.156	0.056
-515.872	44.388	0.145	-0.133
-514.858	240.194	-0.047	-0.078
-513.843	-200.000	-0.006	-0.092
-512.829	26.221	-0.169	-0.140
-511.814	-37.927	0.344	-0.182
-510.799	173.444	-0.123	-0.177
-509.785	345.626	-0.097	-0.191
-508.770	-23.222	0.289	0.173
-507.756	54.785	0.068	-0.066
-506.741	800.000	0.027	-0.109
-505.726	-90.609	0.089	0.026
-504.712	800.000	0.072	0.288
-503.697	-86.737	0.236	0.072
-502.683	39.332	-0.238	0.212
-501.668	-100.660	0.262	-0.065
-500.653	104.738	0.200	0.235
-499.639	-200.000	0.009	0.116
-498.624	482.456	-0.052	0.118
-497.610	-159.135	-0.154	0.009
-496.595	15.545	-0.241	0.188
-495.581	800.000	0.113	-0.491
-494.566	157.149	-0.147	-0.202
-493.551	639.813	-0.101	-0.257
-492.537	800.000	0.055	-0.154
-491.522	-117.762	-0.021	0.004
-490.508	46.696	-0.112	0.104
-489.493	-200.000	-0.003	0.033
-488.478	-118.749	0.273	-0.048
-487.464	-29.422	-0.136	-0.078
-486.449	-116.047	0.161	-0.030
-485.435	36.808	-0.229	-0.201
-484.420	800.000	0.046	-0.169
-483.405	800.000	-0.015	0.048
-482.391	-76.737	0.223	0.078
-481.376	75.180	-0.222	-0.233
-480.362	-53.097	0.306	-0.140
-479.347	445.017	0.057	0.124
-478.332	127.959	-0.166	0.210
-477.318	221.848	-0.197	0.316
-476.303	-145.018	0.367	-0.033
-475.289	-200.000	-0.060	-0.462
-474.274	46.110	-0.098	0.090
-473.259	-111.853	-0.263	0.053
-472.245	55.349	-0.225	-0.217
-471.230	-130.529	-0.095	-0.013
-470.216	-163.645	0.140	-0.007
-469.201	-200.000	0.011	0.110
-468.186	-188.647	-0.426	-0.005
-467.172	-200.000	0.010	0.208
-466.157	-7.110	0.100	0.067
-465.143	-84.344	-0.056	-0.018
-464.128	-42.347	0.066	-0.034
-463.113	800.000	0.049	-0.161
-462.099	-134.861	0.396	-0.048
-461.084	-150.298	-0.120	-0.009
-460.070	-123.399	-0.242	0.038
-459.055	-165.431	-0.021	0.001
-458.040	-43.968	0.025	0.012
-457.026	28.454	0.088	-0.074
-456.011	-200.000	-0.045	-0.221
-454.997	-134.039	0.094	-0.012
-453.982	-64.654	-0.091	-0.037
-452.968	-27.208	0.172	0.099
-451.953	-87.459	-0.095	0.029
-450.938	800.000	-0.105	0.406
-449.924	684.761	0.065	0.169
-448.909	-200.000	-0.002	-0.257
-447.895	314.287	-0.190	-0.356
-446.880	349.719	0.125	-0.246
-445.865	-200.000	0.040	-0.357
-444.851	27.051	0.185	0.154
-443.836	800.000	0.110	0.403
-442.822	-200.000	-0.039	0.180
-441.807	-121.645	-0.162	0.027
-440.792	800.000	0.066	0.260
-439.778	55.404	-0.205	0.198
-438.763	106.592	-0.131	-0.155
-437.749	-199.056	0.255	-0.001
-436.734	59.179	-0.114	-0.112
-435.719	-200.000	-0.022	-0.394
-434.705	-138.647	-0.108	-0.012
-433.690	-75.527	0.301	-0.107
-432.676	-159.873	-0.231	-0.013
-431.661	-139.758	0.256	0.027
-430.646	514.240	-0.093	0.215
-429.632	-200.000	-0.024	-0.209
-428.617	-108.594	0.291	-0.062
-427.603	57.169	-0.090	0.088
-426.588	146.281	0.085	0.113
-425.573	-200.000	-0.006	-0.264
-424.559	-0.571	-0.281	0.198
-423.544	-200.000	-0.079	0.471
-422.530	-75.494	-0.120	-0.042
-421.515	265.255	0.159	0.275
-420.500	-87.536	0.227	-0.068
-419.486	-43.156	-0.377	0.189
-418.471	800.000	0.094	-0.336
-417.457	98.206	-0.104	-0.119
-416.442	308.910	0.119	0.220
-415.428	-151.335	0.328	0.024
-414.413	-200.000	0.042	-0.348
-413.398	333.347	0.103	-0.198
-412.384	-29.421	0.139	-0.079
-411.369	-57.354	-0.308	-0.134
-410.355	20.342	-0.263	-0.211
-409.340	800.000	0.005	-0.018
-408.325	-200.000	-0.058	-0.273
-407.311	-152.586	-0.297	-0.021
-406.296	30.296	0.129	0.109
-405.282	-71.725	0.199	0.074
-404.267	100.281	-0.292	0.336
-403.252	-200.000	-0.239	-0.000
-402.238	-41.811	0.096	0.049
-401.223	-200.000	0.054	0.274
-400.209	-97.001	0.353	0.092
-399.194	280.873	0.080	0.142
-398.179	800.000	-0.030	0.125
-397.165	-19.019	-0.094	0.058
-396.150	-149.491	0.251	-0.020
-395.136	-149.106	0.301	-0.024
-394.121	238.362	0.127	-0.210
-393.106	-87.695	-0.095	0.028
-392.092	1.835	-0.337	-0.241
-391.077	-111.713	0.206	0.042
-390.063	225.887	0.081	0.131
-389.048	-89.721	-0.278	0.081
-388.033	44.204	-0.116	0.106
-387.019	-20.805	0.216	-0.132
-386.004	-1.165	0.117	-0.082
-384.990	-53.839	0.293	-0.132
-383.975	55.707	0.108	0.104
-382.960	-40.806	-0.412	-0.211
-381.946	-50.557	0.264	0.123
-380.931	302.562	-0.072	0.133
-379.917	-85.390	-0.031	0.010
-378.902	237.973	-0.156	-0.257
-377.888	800.000	0.065	-0.264
-376.873	-200.000	-0.009	0.298
-375.858	-200.000	-0.039	0.398
-374.844	-70.888	0.075	0.028
-373.829	-4.020	-0.181	-0.124
-372.815	800.000	0.064	0.188
-371.800	-200.000	0.035	-0.327
-370.785	304.700	-0.041	0.076
-369.771	800.000	-0.096	-0.291
-368.756	-200.000	0.094	-0.449
-367.742	-139.638	-0.069	0.007
-366.727	-23.400	0.285	0.170
-365.712	33.393	0.242	-0.208
-364.698	300.009	0.176	-0.321
-363.683	58.184	-0.184	-0.179
-362.669	-102.000	-0.185	0.044
-361.654	-37.057	0.298	0.158
-360.639	-130.697	-0.389	0.052
-359.625	53.480	-0.094	0.089
-358.610	-152.620	-0.262	0.019
-357.596	-59.931	-0.282	-0.120
-356.581	105.927	-0.281	-0.329
-355.566	273.291	0.129	-0.226
-354.552	-127.663	0.217	0.031
-353.537	-200.000	0.054	-0.294
-352.523	800.000	-0.033	-0.115
-351.508	350.283	0.117	0.229
-350.493	-107.700	-0.304	-0.066
-349.479	11.980	0.070	-0.053
-348.464	10.469	-0.318	-0.240
-347.450	18.902	0.089	0.070
-346.435	-21.351	-0.138	0.084
-345.420	182.705	0.107	0.157
-344.406	193.993	0.056	-0.084
-343.391	-122.288	-0.301	-0.049
-342.377	-200.000	-0.035	-0.188
-341.362	93.552	-0.260	0.292
-340.348	-132.205	-0.375	-0.048
-339.333	-155.037	-0.124	0.008
-338.318	-200.000	-0.029	-0.321
-337.304	-200.000	0.024	0.296
-336.289	-200.000	-0.025	0.117
-335.275	-119.706	-0.369	-0.063
-334.260	800.000	0.056	0.169
-333.245	-15.136	-0.052	0.033
-332.231	-71.515	0.349	-0.129
-331.216	800.000	-0.098	0.286
-330.202	205.908	-0.104	-0.160
-329.187	-101.677	0.060	-0.015
-328.172	-76.200	-0.217	-0.076
-327.158	145.536	-0.131	0.174
-326.143	73.604	-0.104	-0.108
-325.129	70.252	0.085	0.086
-324.114	259.134	0.101	-0.173
-323.099	-57.026	0.133	-0.058
-322.085	30.400	0.076	0.064
-321.070	-6.735	-0.331	0.223
-320.056	-89.914	0.243	-0.070
-319.041	-80.109	-0.086	0.029
-318.026	-61.013	-0.121	-0.051
-317.012	61.666	0.159	0.156
-315.997	-200.000	-0.007	0.127
-314.983	-1.971	-0.273	0.190
-313.968	127.479	-0.175	-0.220
-312.953	-82.080	0.297	-0.096
-311.939	175.607	0.108	0.155
-310.924	135.330	0.027	0.034
-309.910	-200.000	0.021	0.099
-308.895	-200.000	0.016	-0.276
-307.880	-130.120	0.178	-0.024
-306.866	-132.775	-0.230	0.029
-305.851	428.519	0.086	0.183
-304.837	153.677	-0.071	0.096
-303.822	-42.962	-0.290	0.146
-302.807	-32.491	-0.319	0.176
-301.793	7.634	0.333	0.246
-300.778	800.000	-0.080	-0.323
-299.764	-6.340	0.354	-0.239
-298.749	-38.772	-0.219	-0.114
-297.735	203.463	-0.071	0.109
-296.720	-200.000	-0.007	-0.129
-295.705	-168.840	0.169	-0.006
-294.691	37.897	-0.264	0.232
-293.676	167.473	0.050	0.071
-292.662	75.374	0.206	-0.214
-291.647	-200.000	0.026	0.204
-290.632	-138.081	0.285	-0.031
-289.618	-129.042	0.198	-0.027
-288.603	-31.714	-0.137	0.076
-287.589	-200.000	-0.057	-0.357
-286.574	46.179	-0.306	-0.280
-285.559	-107.623	0.221	0.048
-284.545	-200.000	0.001	-0.069
-283.530	509.494	0.149	0.341
-282.516	-111.897	0.370	-0.074
-281.501	-200.000	0.041	-0.229
-280.486	-48.804	-0.157	0.075
-279.472	-143.285	-0.263	-0.025
-278.457	19.121	0.176	-0.139
-277.443	-200.000	0.010	0.617
-276.428	-104.219	0.111	0.026
-275.413	713.518	-0.028	0.073
-274.399	-138.662	-0.039	0.004
-273.384	-4.688	0.151	0.103
-272.370	-23.346	-0.110	0.065
-271.355	122.893	0.033	-0.041
-270.340	-183.317	-0.371	0.006
-269.326	-168.786	-0.123	0.005
-268.311	-200.000	0.005	0.172
-267.297	-200.000	0.053	-0.380
-266.282	-98.576	-0.367	0.093
-265.267	-200.000	0.003	0.036
-264.253	-62.941	-0.225	-0.092
-263.238	32.475	0.346	0.295
-262.224	120.273	0.205	0.251
-261.209	-81.341	-0.139	0.045
-260.195	-200.000	-0.005	-0.043
-259.180	-200.000	-0.028	0.238
-258.165	249.141	0.068	-0.115
-257.151	221.987	0.159	0.252
-256.136	-200.000	0.016	0.313
-255.122	800.000	0.031	-0.092
-254.107	-79.698	0.068	0.023
-253.092	593.151	-0.049	-0.121
-252.078	-200.000	-0.003	0.324
-251.063	619.134	-0.014	0.036
-250.049	429.324	0.092	-0.197
-249.034	-200.000	-0.037	-0.285
-248.019	127.638	-0.123	0.154
-247.005	-32.244	0.171	0.094
-245.990	-200.000	0.024	0.231
-244.976	-30.751	0.371	0.207
-243.961	87.155	-0.173	0.189
-242.946	-149.014	-0.463	0.037
-241.932	-181.571	0.200	-0.004
-240.917	-70.311	-0.122	-0.046
-239.903	-23.975	0.334	0.197
-238.888	341.666	-0.144	-0.277
-237.873	800.000	-0.013	-0.046
-236.859	-130.895	0.347	0.046
-235.844	800.000	-0.051	0.212
-234.830	-200.000	-0.009	-0.067
-233.815	-59.049	0.076	-0.032
-232.800	552.266	0.112	-0.266
-231.786	-45.668	-0.047	-0.023
-230.771	227.213	-0.056	0.089
-229.757	-116.230	0.479	-0.088
-228.742	-200.000	-0.001	0.135
-227.727	-173.642	-0.101	0.003
-226.713	-125.142	0.126	-0.019
-225.698	338.078	0.121	-0.233
-224.684	-11.107	0.187	0.122
-223.669	-200.000	0.020	0.146
-222.655	-200.000	0.010	-0.069
-221.640	-59.806	0.119	0.050
-220.625	800.000	-0.071	0.305
-219.611	-22.947	-0.293	0.174
-218.596	88.878	-0.312	-0.342
-217.582	141.847	-0.066	0.087
-216.567	55.537	-0.064	0.061
-215.552	-59.073	0.085	-0.036
-214.538	-26.248	0.085	-0.049
-213.523	-200.000	0.029	0.200
-212.509	-200.000	0.024	-0.300
-211.494	-126.944	0.187	-0.027
-210.479	180.878	0.080	-0.116
-209.465	-110.403	0.355	0.073
-208.450	-66.076	0.281	0.110
-207.436	108.081	0.149	0.175
-206.421	-66.472	0.389	-0.152
-205.406	-200.000	-0.023	0.222
-204.392	800.000	-0.078	0.290
-203.377	-0.335	0.219	0.153
-202.363	-200.000	-0.037	0.503
-201.348	800.000	0.032	-0.102
-200.333	800.000	-0.016	-0.047
-199.319	-151.623	-0.200	-0.015
-198.304	800.000	-0.056	-0.177
-197.290	22.070	0.105	-0.085
-196.275	-200.000	-0.056	-0.386
-195.260	-200.000	-0.083	0.000
-194.246	13.960	0.105	0.081
-193.231	800.000	-0.041	-0.134
-192.217	-19.953	0.134	-0.081
-191.202	-200.000	-0.035	-0.327
-190.187	172.944	0.135	0.191
-189.173	-200.000	-0.070	0.488
-188.158	800.000	-0.015	0.056
-187.144	13.381	0.138	0.105
-186.129	255.090	-0.179	0.302
-185.114	190.162	-0.087	0.128
-184.100	44.521	-0.145	-0.131
-183.085	355.220	-0.052	0.102
-182.071	-31.979	0.246	-0.136
-181.056	-37.280	-0.172	-0.090
-180.042	-73.042	0.199	0.072
-179.027	34.184	-0.121	-0.104
-178.012	-76.800	-0.048	0.017
-176.998	-18.692	-0.260	0.159
-175.983	-22.764	-0.170	0.101
-174.969	-200.000	0.026	0.286
-173.954	-36.256	0.319	-0.170
-172.939	-123.405	0.471	0.074
-171.925	-169.151	0.399	-0.015
-170.910	739.283	0.016	-0.042
-169.896	-93.101	-0.228	-0.062
-168.881	-58.368	-0.375	-0.160
-167.866	-110.376	-0.133	-0.027
-166.852	344.356	0.059	0.113
-165.837	76.938	-0.041	0.043
-164.823	-139.767	-0.270	0.028
-163.808	800.000	0.069	0.253
-162.793	-15.896	0.349	-0.219
-161.779	-56.036	-0.190	0.083
-160.764	-23.051	-0.126	-0.075
-159.750	-88.003	0.175	0.052
-158.735	-63.259	-0.294	-0.119
-157.720	33.631	0.200	0.171
-156.706	-200.000	-0.039	0.237
-155.691	52.405	-0.140	-0.131
-154.677	435.071	-0.085	-0.182
-153.662	800.000	-0.133	0.397
-152.647	-200.000	0.013	0.109
-151.633	-200.000	0.006	0.030
-150.618	93.213	-0.201	0.223
-149.604	-179.669	0.151	0.003
-148.589	234.215	0.156	0.252
-147.574	800.000	0.027	0.085
-146.560	-200.000	0.115	-0.630
-145.545	274.245	0.142	0.248
-144.531	65.628	0.412	0.410
-143.516	91.014	0.238	-0.262
-142.502	136.409	0.036	-0.046
-141.487	655.466	-0.064	-0.163
-140.472	-46.046	0.273	0.132
-139.458	-119.279	0.237	-0.041
-138.443	-43.069	0.198	0.099
-137.429	-200.000	0.004	0.105
-136.414	39.114	-0.200	0.175
-135.399	-200.000	-0.006	-0.067
-134.385	151.538	-0.214	-0.286
-133.370	91.157	0.086	0.095
-132.356	559.280	0.093	-0.221
-131.341	283.455	0.083	0.147
-130.326	800.000	0.040	-0.135
-129.312	793.268	-0.041	-0.112
-128.297	0.692	0.174	-0.122
-127.283	175.385	-0.071	0.100
-126.268	800.000	0.014	0.043
-125.253	-168.700	0.356	-0.013
-124.239	-41.709	-0.285	0.144
-123.224	-157.182	-0.236	0.014
-122.210	-60.074	-0.124	-0.052
-121.195	-109.496	0.391	0.081
-120.180	297.651	-0.193	0.348
-119.166	-81.993	0.218	0.070
-118.151	158.746	-0.141	-0.192
-117.137	-121.691	0.158	-0.026
-116.122	534.182	-0.074	0.172
-115.107	-103.761	0.177	0.041
-114.093	252.443	0.196	0.327
-113.078	-148.426	-0.115	-0.009
-112.064	-200.000	0.011	0.150
-111.049	527.274	-0.012	-0.028
-110.034	256.634	0.186	0.314
-109.020	14.203	0.065	0.050
-108.005	-200.000	-0.022	-0.237
-106.991	-190.263	0.368	0.004
-105.976	800.000	-0.088	-0.293
-104.962	-39.589	-0.228	-0.117
-103.947	800.000	0.061	-0.214
-102.932	6.923	-0.195	-0.143
-101.918	-164.954	-0.057	-0.002
-100.903	-76.893	-0.022	-0.007
-99.889	-200.000	0.025	-0.297
-98.874	-134.472	-0.374	0.045
-97.859	-36.925	-0.041	-0.021
-96.845	637.929	0.133	-0.331
-95.830	-200.000	-0.016	0.119
-94.816	153.750	0.184	0.247
-93.801	-43.796	0.333	-0.164
-92.786	630.416	-0.098	0.244
-91.772	-35.509	0.233	0.124
-90.757	-42.211	-0.197	-0.099
-89.743	70.545	0.088	-0.089
-88.728	-31.621	-0.230	-0.127
-87.713	-18.924	-0.064	-0.039
-86.699	16.236	0.146	0.113
-85.684	-50.520	-0.289	0.133
-84.670	293.772	0.047	0.084
-83.655	-102.201	0.166	0.039
-82.640	286.340	0.167	0.295
-81.626	800.000	-0.044	-0.187
-80.611	-114.404	0.372	0.070
-79.597	137.108	0.079	-0.102
-78.582	-200.000	-0.034	-0.218
-77.567	-78.582	0.186	0.063
-76.553	297.635	-0.030	0.054
-75.538	74.896	0.141	-0.145
-74.524	74.671	0.109	-0.112
-73.509	800.000	-0.101	0.369
-72.494	-200.000	0.056	0.298
-71.480	-200.000	0.016	0.170
-70.465	75.246	0.222	-0.229
-69.451	-200.000	0.043	0.325
-68.436	4.223	-0.133	0.095
-67.422	-70.698	0.055	-0.020
-66.407	800.000	-0.125	0.391
-65.392	136.344	0.183	0.233
-64.378	800.000	-0.098	-0.279
-63.363	54.976	-0.021	-0.020
-62.349	-200.000	0.087	0.420
-61.334	21.631	-1.105	-0.881
-60.319	10.487	0.672	0.501
-59.305	738.205	-0.467	-1.226
-58.290	800.000	0.380	1.139
-57.276	412.434	0.659	1.371
-56.261	-200.000	114.296	666.751
-55.246	552.540	1516.789	3568.086
-54.232	179.594	2680.510	3843.378
-53.217	111.339	2147.032	2534.059
-52.203	39.557	1594.929	1399.717
-51.188	31.181	1342.729	1127.981
-50.173	28.223	1305.458	1079.216
-49.159	55.922	1362.044	1293.334
-48.144	54.502	1376.790	1298.766
-47.130	31.459	1331.194	1119.779
-46.115	27.952	1313.519	1084.099
-45.100	27.600	1309.426	1078.600
-44.086	27.605	1306.475	1076.154
-43.071	27.537	1304.429	1074.024
-42.057	27.500	1302.478	1072.160
-41.042	27.592	1300.566	1071.084
-40.027	27.653	1299.185	1070.258
-39.013	27.657	1297.210	1068.615
-37.998	27.636	1295.135	1066.738
-36.984	27.750	1293.390	1065.929
-35.969	27.793	1291.385	1064.480
-34.954	27.808	1289.962	1063.353
-33.940	27.684	1289.207	1061.971
-32.925	27.714	1287.645	1060.816
-31.911	27.858	1285.728	1060.031
-30.896	27.841	1284.866	1059.180
-29.881	27.816	1283.663	1057.997
-28.867	27.811	1282.098	1056.639
-27.852	27.794	1280.835	1055.456
-26.838	27.870	1279.613	1054.849
-25.823	27.848	1277.805	1053.190
-24.809	27.919	1276.247	1052.274
-23.794	27.895	1275.253	1051.269
-22.779	27.928	1273.589	1050.051
-21.765	27.867	1272.061	1048.396
-20.750	27.838	1271.302	1047.561
-19.736	27.699	1269.921	1045.587
-18.721	27.760	1268.927	1045.076
-17.706	27.786	1267.791	1044.246
-16.692	27.629	1266.947	1042.613
-15.677	27.782	1265.637	1042.365
-14.663	27.725	1264.564	1041.120
-13.648	27.758	1263.350	1040.266
-12.633	27.782	1262.255	1039.461
-11.619	27.657	1261.407	1038.009
-10.604	27.664	1261.170	1037.810
-9.590	27.689	1259.716	1036.714
-8.575	27.484	1259.302	1035.170
-7.560	27.715	1258.152	1035.496
-6.546	27.705	1256.955	1034.411
-5.531	27.569	1256.300	1033.062
-4.517	27.721	1255.211	1032.984
-3.502	27.696	1254.817	1032.478
-2.487	27.659	1253.735	1031.334
-1.473	27.676	1249.317	1027.757
-0.458	26.085	1234.304	1006.498
0.556	22.980	1216.626	967.755
1.571	19.171	1222.013	950.962
2.586	18.129	1236.504	956.331
3.600	17.704	1224.641	944.716
4.615	13.314	1154.086	867.240
5.629	6.442	1082.028	779.130
6.644	3.326	1064.112	750.989
7.659	3.159	1062.036	748.642
8.673	3.236	1060.789	748.073
9.688	3.229	1059.494	747.061
10.702	3.420	1057.728	746.673
11.717	7.247	1062.232	768.374
12.731	14.693	1073.569	812.879
13.746	19.216	1078.710	838.773
14.761	19.937	1078.689	842.191
15.775	19.128	1077.449	837.217
16.790	18.071	1075.347	830.378
17.804	17.419	1073.677	825.851
18.819	17.148	1072.678	823.697
19.834	16.969	1072.316	822.477
20.848	16.805	1071.529	821.005
21.863	16.748	1070.375	819.775
22.877	16.556	1069.723	818.271
23.892	16.527	1068.895	817.428
24.907	16.552	1068.033	816.817
25.921	16.507	1067.174	815.869
26.936	16.507	1065.911	814.831
27.950	16.531	1064.618	813.886
28.965	16.641	1062.929	813.053
29.980	16.722	1061.677	812.410
30.994	16.800	1060.122	811.521
32.009	16.778	1059.816	811.110
33.023	16.733	1058.848	810.082
34.038	16.654	1057.406	808.530
35.053	16.567	1056.657	807.471
36.067	16.505	1055.508	806.228
37.082	16.560	1054.905	805.956
38.096	16.699	1054.314	806.096
39.111	16.690	1053.593	805.428
40.126	16.619	1051.952	803.767
41.140	16.366	1050.524	801.404
42.155	16.148	1049.701	799.673
43.169	16.185	1048.528	798.885
44.184	16.175	1047.819	798.223
45.199	16.247	1046.349	797.376
46.213	16.386	1045.779	797.527
47.228	16.617	1044.728	797.745
48.242	16.546	1043.738	796.584
49.257	16.436	1042.848	795.317
50.271	16.651	1041.858	795.502
51.286	16.662	1041.065	794.877
52.301	16.677	1040.037	794.090
53.315	16.413	1038.964	791.966
54.330	16.404	1037.787	790.953
55.344	16.393	1037.034	790.262
56.359	16.434	1036.074	789.652
57.374	16.388	1035.456	788.897
58.388	16.288	1034.448	787.590
59.403	16.255	1033.525	786.667
60.417	16.296	1032.971	786.362
61.432	16.247	1032.200	785.477
62.447	16.138	1030.938	783.942
63.461	16.073	1030.372	783.142
64.476	16.144	1029.028	782.380
65.490	16.063	1028.573	781.588
66.505	16.146	1027.529	781.112
67.520	16.129	1027.229	780.737
68.534	16.222	1026.552	780.580
69.549	16.112	1026.016	779.594
70.563	16.035	1024.918	778.339
71.578	15.996	1024.324	777.639
72.593	15.965	1022.941	776.377
73.607	15.932	1023.005	776.205
74.622	15.946	1022.325	775.684
75.636	16.077	1021.221	775.379
76.651	16.005	1020.696	774.581
77.666	16.093	1019.835	774.264
78.680	16.093	1019.330	773.811
79.695	16.073	1018.768	773.225
80.709	16.239	1018.217	773.498
81.724	16.325	1017.206	773.058
82.739	16.454	1016.825	773.287
83.753	16.594	1016.154	773.351
84.768	16.737	1015.723	773.609
85.782	16.948	1014.554	773.610
86.797	16.806	1013.540	772.124
87.812	16.576	1012.799	770.442
88.826	16.711	1011.585	770.066
89.841	16.845	1010.513	769.790
90.855	16.717	1010.099	768.824
91.870	16.783	1009.975	768.962
92.884	16.920	1008.491	768.386
93.899	16.914	1007.481	767.518
94.914	16.821	1006.789	766.504
95.928	16.939	1006.009	766.376
96.943	16.739	1004.928	764.581
97.957	16.575	1004.975	763.809
98.972	16.718	1003.376	763.170
99.987	16.688	1002.420	762.240
101.001	16.694	1001.346	761.385
102.016	16.578	1000.547	760.187
103.030	16.710	999.880	760.204
104.045	16.791	999.038	759.863
105.060	16.555	998.146	758.058
106.074	16.394	997.093	756.470
107.089	16.225	995.954	754.785
108.103	16.185	994.811	753.672
109.118	16.101	994.232	752.792
110.133	16.156	993.411	752.351
111.147	16.122	992.371	751.344
112.162	16.368	991.509	751.722
113.176	16.306	990.946	750.950
114.191	16.377	990.205	750.639
115.206	16.320	989.672	749.914
116.220	16.213	988.750	748.675
117.235	16.379	987.414	748.334
118.249	16.298	986.503	747.219
119.264	16.281	985.617	746.405
120.279	16.205	985.195	745.685
121.293	16.116	984.561	744.747
122.308	15.906	983.645	743.059
123.322	15.974	982.427	742.373
124.337	16.074	981.182	741.807
125.352	15.957	980.199	740.485
126.366	16.168	978.932	740.388
127.381	16.172	977.984	739.623
128.395	16.160	977.135	738.864
129.410	16.209	976.386	738.444
130.424	16.197	975.570	737.712
131.439	16.334	974.922	737.755
132.454	16.278	974.524	737.141
133.468	16.288	973.693	736.492
134.483	16.386	972.556	735.993
135.497	16.402	971.876	735.483
136.512	16.238	970.981	734.030
137.527	16.378	969.931	733.778
138.541	16.359	969.353	733.192
139.556	16.472	968.618	733.064
140.570	16.577	968.212	733.144
141.585	16.757	967.101	733.018
142.600	16.636	966.618	732.063
143.614	16.782	965.454	731.747
144.629	16.847	964.872	731.524
145.643	16.750	964.183	730.518
146.658	16.707	962.382	728.905
147.673	16.544	961.962	727.818
148.687	16.431	961.097	726.616
149.702	16.505	960.327	726.286
150.716	16.344	959.711	725.064
151.731	16.403	958.575	724.395
152.746	16.448	958.083	724.151
153.760	16.505	957.579	723.951
154.775	16.515	956.937	723.447
155.789	16.666	956.225	723.487
156.804	16.698	955.341	722.894
157.819	16.683	954.511	722.138
158.833	16.823	953.805	722.136
159.848	16.978	953.062	722.170
160.862	16.789	952.071	720.548
161.877	16.616	951.387	719.233
162.892	16.524	949.927	717.674
163.906	16.451	949.116	716.690
164.921	16.512	948.206	716.197
165.935	16.575	947.521	715.884
166.950	16.622	946.705	715.402
167.964	16.608	946.044	714.781
168.979	16.539	944.832	713.509
169.994	16.556	944.299	713.115
171.008	16.637	943.494	712.787
172.023	16.727	943.071	712.784
173.037	16.880	942.535	712.958
174.052	16.931	940.856	711.840
175.067	16.607	940.931	710.474
176.081	16.445	940.209	709.186
177.096	16.539	939.479	708.968
178.110	16.692	938.847	709.068
179.125	16.507	938.668	708.095
180.140	16.721	937.563	708.094
181.154	16.808	937.224	708.135
182.169	16.887	937.235	708.411
183.183	16.952	936.324	707.932
184.198	16.961	935.616	707.373
185.213	16.974	934.890	706.815
186.227	17.085	933.959	706.513
187.242	17.038	933.731	706.082
188.256	17.086	933.319	705.906
189.271	17.042	932.523	705.060
190.286	16.861	931.421	703.412
191.300	16.486	930.583	701.162
192.315	16.444	929.610	700.195
193.329	16.435	929.481	699.996
194.344	16.580	929.013	700.184
195.359	16.906	927.848	700.589
196.373	16.806	927.944	700.189
197.388	16.999	927.658	700.707
198.402	17.131	926.799	700.540
199.417	17.052	926.288	699.765
200.432	17.230	925.922	700.160
201.446	17.443	925.433	700.605
202.461	17.427	925.126	700.246
203.475	17.280	924.151	698.842
204.490	17.262	923.104	697.917
205.504	17.096	922.675	696.846
206.519	17.144	921.399	696.020
207.534	16.998	921.116	695.146
208.548	17.106	920.400	694.984
209.563	17.138	919.569	694.428
210.577	17.200	918.876	694.098
211.592	17.403	918.144	694.310
212.607	17.411	917.644	693.903
213.621	17.391	916.977	693.255
214.636	17.211	916.094	691.793
215.650	17.473	915.321	692.214
216.665	17.493	914.694	691.762
217.680	17.497	914.333	691.442
218.694	17.473	913.748	690.840
219.709	17.373	913.093	689.881
220.723	17.356	912.421	689.240
221.738	17.397	911.671	688.779
222.753	17.440	910.911	688.320
223.767	17.431	910.902	688.215
224.782	17.711	910.034	688.629
225.796	17.762	909.132	688.091
226.811	17.570	908.673	686.911
227.826	17.474	907.662	685.698
228.840	17.387	907.378	685.072
229.855	17.379	906.530	684.339
230.869	17.394	905.617	683.649
231.884	17.449	904.590	683.037
232.899	17.350	904.182	682.271
233.913	17.224	903.403	681.116
234.928	17.249	902.832	680.726
235.942	17.204	902.233	680.031
236.957	17.292	901.294	679.617
237.972	17.386	901.247	679.896
238.986	17.273	900.452	678.786
240.001	17.289	899.630	678.169
241.015	17.266	899.362	677.815
242.030	17.498	898.432	677.981
243.045	17.416	897.604	676.968
244.059	17.534	897.394	677.221
245.074	17.591	896.470	676.689
246.088	17.629	896.152	676.541
247.103	17.566	895.882	676.024
248.117	17.736	895.353	676.241
249.132	17.999	894.670	676.708
250.147	18.220	894.242	677.199
251.161	18.153	893.769	676.516
252.176	18.216	893.075	676.178
253.190	18.252	892.333	675.700
254.205	18.321	891.882	675.572
255.220	18.305	890.950	674.743
256.234	18.316	890.230	674.182
257.249	18.257	889.682	673.472
258.263	18.209	889.005	672.714
259.278	18.265	888.313	672.350
260.293	18.422	887.785	672.507
261.307	18.402	887.307	672.007
262.322	18.279	887.109	671.316
263.336	18.464	885.886	671.054
264.351	18.472	885.369	670.635
265.366	18.370	884.626	669.612
266.380	18.367	884.194	669.216
267.395	18.388	883.178	668.470
268.409	18.311	882.560	667.643
269.424	18.219	882.008	666.810
270.439	18.314	881.059	666.400
271.453	18.293	880.323	665.704
272.468	18.186	880.081	665.045
273.482	18.159	879.597	664.516
274.497	18.159	878.882	663.918
275.512	18.270	878.094	663.693
276.526	18.164	878.035	663.181
277.541	18.224	877.435	662.901
278.555	18.329	877.355	663.189
279.570	18.480	876.263	662.888
280.585	18.495	875.747	662.498
281.599	18.413	874.559	661.222
282.614	18.424	873.900	660.707
283.628	18.450	872.999	660.067
284.643	18.264	873.125	659.389
285.657	18.479	871.791	659.152
286.672	18.471	871.270	658.667
287.687	18.404	870.732	657.945
288.701	18.472	870.356	657.866
289.716	18.459	869.758	657.304
290.730	18.500	868.880	656.740
291.745	18.456	868.783	656.439
292.760	18.656	868.139	656.660
293.774	18.602	867.687	656.052
294.789	18.686	866.629	655.515
295.803	18.460	865.997	654.118
296.818	18.487	864.963	653.383
297.833	18.558	864.484	653.234
298.847	18.500	863.856	652.480
299.862	18.473	863.575	652.108
300.876	18.628	863.180	652.342
301.891	18.643	862.697	651.976
302.906	18.623	862.221	651.481
303.920	18.932	861.660	652.171
304.935	19.021	861.146	652.063
305.949	19.130	859.756	651.363
306.964	18.886	859.267	650.016
307.979	18.807	859.193	649.601
308.993	18.918	858.521	649.455
310.008	18.902	858.103	649.022
311.022	18.780	857.284	647.883
312.037	18.771	856.565	647.248
313.052	18.734	855.854	646.516
314.066	18.697	855.180	645.810
315.081	18.716	854.638	645.415
316.095	18.738	854.152	645.074
317.110	18.614	853.686	644.198
318.125	18.735	852.773	643.909
319.139	18.626	852.671	643.363
320.154	18.710	852.092	643.187
321.168	18.651	852.041	642.869
322.183	18.670	851.125	642.194
323.197	18.615	850.702	641.609
324.212	18.841	850.119	641.958
325.227	18.700	849.993	641.279
326.241	18.755	848.877	640.587
327.256	18.667	848.361	639.811
328.270	18.688	847.896	639.483
329.285	18.713	847.159	638.963
330.300	18.627	846.694	638.236
331.314	18.655	846.403	638.065
332.329	18.843	846.246	638.590
333.343	19.067	845.361	638.696
334.358	18.927	844.921	637.788
335.373	18.959	844.897	637.833
336.387	18.986	844.482	637.563
337.402	18.990	844.519	637.549
338.416	19.093	844.099	637.557
339.431	19.171	843.483	637.322
340.446	19.223	843.228	637.267
341.460	19.368	842.450	637.159
342.475	19.488	842.332	637.457
343.489	19.420	841.664	636.644
344.504	19.516	841.019	636.452
345.519	19.577	840.707	636.384
346.533	19.573	840.114	635.865
347.548	19.312	839.542	634.417
348.562	19.023	839.204	633.041
349.577	19.083	838.567	632.723
350.592	19.102	837.666	632.057
351.606	19.057	837.051	631.372
352.621	19.140	836.666	631.332
353.635	19.137	835.791	630.604
354.650	19.267	834.981	630.414
355.665	19.408	834.488	630.501
356.679	19.348	833.933	629.805
357.694	19.360	833.004	629.094
358.708	19.390	832.627	628.863
359.723	19.456	832.292	628.794
360.738	19.400	831.533	627.959
361.752	19.453	830.938	627.650
362.767	19.547	830.460	627.574
363.781	19.740	829.608	627.575
364.796	19.728	829.906	627.700
365.810	19.876	829.394	627.796
366.825	19.976	828.844	627.688
367.840	19.663	828.716	626.398
368.854	19.704	828.072	626.005
369.869	19.630	827.545	625.283
370.883	19.609	826.956	624.708
371.898	19.704	826.886	624.943
372.913	19.907	826.115	625.040
373.927	19.753	825.837	624.217
374.942	19.900	825.098	624.133
375.956	19.841	825.047	623.827
376.971	20.017	824.302	623.844
377.986	19.976	823.877	623.317
379.000	20.140	823.194	623.335
380.015	20.064	822.764	622.682
381.029	20.152	822.130	622.462
382.044	20.126	821.962	622.186
383.059	19.983	821.236	621.068
384.073	19.947	820.612	620.413
385.088	19.932	819.861	619.739
386.102	19.811	819.183	618.736
387.117	19.734	818.859	618.163
388.132	19.853	817.945	617.842
389.146	19.934	817.890	618.037
390.161	20.037	817.244	617.858
391.175	20.065	816.774	617.551
392.190	19.844	816.116	616.209
393.205	20.084	815.310	616.403
394.219	19.876	815.153	615.490
395.234	19.980	814.359	615.205
396.248	19.677	814.191	613.948
397.263	19.774	813.703	613.869
398.278	19.708	813.733	613.602
399.292	19.682	813.200	613.055
400.307	19.618	812.934	612.573
401.321	19.768	812.388	612.639
402.336	19.618	811.757	611.577
403.350	19.970	811.400	612.499
404.365	20.134	810.813	612.581
405.380	20.153	810.405	612.287
406.394	20.192	809.698	611.835
407.409	20.389	809.327	612.194
408.423	20.320	809.319	611.893
409.438	20.379	809.060	611.849
410.453	20.471	808.439	611.651
411.467	20.559	807.992	611.569
412.482	20.472	807.839	611.093
413.496	20.562	807.242	610.903
414.511	20.592	806.991	610.762
415.526	20.485	806.639	610.069
416.540	20.394	806.185	609.350
417.555	20.480	805.441	609.037
418.569	20.488	805.150	608.789
419.584	20.581	804.537	608.597
420.599	20.461	804.316	607.956
421.613	161.816	1372.719	1796.878
422.628	140.618	1455.533	1796.959
