DTS Sentinel unit serial number:	SN413079Multiplexer serial number:	ORYXHardware model number:	OX4-SRSoftware version number:	ORYX F/W v4.00 Oryx Data Collector v3.7.2.0data status	okinstallation	princeton_trtdifferential loss correction	single-endedforward channel	channel 1reverse channel	N/Adate	2019/09/19time	14:10:35forward acquisition time	60.00reverse acquisition time	0.00gamma	496.2192k internal	0.2323k external	0.2323temperature offset calibration	1.0018default loss term (dB/km)	0.3790temperature slope calibration	1.0000multiplexer offset coefficient	1.0000multiplexer slope coefficient	1.0000fibre end	0.00T internal ref (°C)	31.48T ext. ref 1 (°C)	1.03T ext. ref 2 (°C)	28.78length (m)	temperature (°C)	Stokes	anti-Stokes-747.200	89.195	-0.463	0.521
-746.185	-200.000	-0.047	0.398
-745.171	-76.108	-0.274	-0.098
-744.156	800.000	-0.065	0.259
-743.142	-83.507	0.101	-0.033
-742.127	369.607	-0.103	0.210
-741.112	-42.251	-0.323	0.166
-740.098	151.434	-0.241	0.332
-739.083	-16.529	-0.171	0.109
-738.069	-39.187	-0.218	0.116
-737.054	-200.000	0.031	-0.167
-736.039	110.956	-0.098	0.119
-735.025	613.965	-0.051	-0.129
-734.010	107.127	-0.350	-0.419
-732.996	-200.000	0.025	-0.321
-731.981	51.740	0.183	0.176
-730.966	-200.000	-0.005	0.166
-729.952	-35.221	-0.362	-0.199
-728.937	-73.428	0.109	-0.040
-727.923	112.953	0.044	-0.053
-726.908	-111.399	-0.304	-0.063
-725.894	329.941	-0.169	-0.327
-724.879	-20.666	-0.177	-0.110
-723.864	-200.000	0.017	-0.160
-722.850	-71.858	-0.289	-0.109
-721.835	-200.000	-0.020	-0.261
-720.821	-200.000	-0.016	-0.303
-719.806	-92.156	0.216	-0.062
-718.791	-63.984	-0.456	0.188
-717.777	800.000	0.099	0.343
-716.762	1.970	-0.239	-0.174
-715.748	105.460	0.022	-0.026
-714.733	800.000	0.053	0.158
-713.718	-62.930	-0.041	0.017
-712.704	-30.277	-0.213	-0.122
-711.689	111.972	-0.135	-0.164
-710.675	-141.435	0.092	0.009
-709.660	-182.540	-0.440	-0.008
-708.645	30.101	0.099	0.085
-707.631	800.000	0.068	0.203
-706.616	-122.588	-0.254	-0.042
-705.602	800.000	0.082	0.261
-704.587	87.552	-0.155	-0.173
-703.572	-200.000	-0.038	-0.191
-702.558	130.138	-0.102	-0.132
-701.543	-37.859	0.350	0.187
-700.529	-33.501	-0.097	0.054
-699.514	800.000	0.128	-0.409
-698.499	-200.000	-0.017	0.212
-697.485	800.000	0.090	0.266
-696.470	800.000	-0.058	-0.254
-695.456	-102.511	0.113	0.027
-694.441	-8.941	0.179	-0.121
-693.426	-99.648	0.060	-0.015
-692.412	-200.000	0.003	-0.168
-691.397	-44.419	-0.129	-0.065
-690.383	-21.269	0.184	-0.113
-689.368	-28.770	0.127	-0.074
-688.354	-200.000	-0.003	0.106
-687.339	146.158	-0.128	-0.173
-686.324	-47.510	-0.104	-0.051
-685.310	22.971	0.219	-0.181
-684.295	-108.705	0.253	-0.055
-683.281	-40.375	-0.272	0.142
-682.266	239.991	-0.095	0.159
-681.251	-115.732	-0.066	-0.012
-680.237	112.555	0.109	-0.133
-679.222	-97.406	0.262	-0.069
-678.208	-7.652	0.057	0.039
-677.193	-159.932	0.150	-0.008
-676.178	800.000	0.083	0.307
-675.164	239.881	-0.116	-0.195
-674.149	-130.936	0.251	0.034
-673.135	-101.923	-0.192	0.047
-672.120	161.245	0.070	-0.099
-671.105	460.456	0.049	-0.110
-670.091	276.658	0.074	-0.133
-669.076	-200.000	0.051	0.253
-668.062	800.000	-0.131	-0.398
-667.047	800.000	-0.007	0.024
-666.032	16.247	-0.062	-0.049
-665.018	-172.479	0.332	0.011
-664.003	209.543	0.103	-0.163
-662.989	-178.969	0.309	0.007
-661.974	-40.524	-0.214	0.112
-660.959	-12.324	-0.165	0.108
-659.945	-98.843	0.142	0.036
-658.930	-165.534	-0.165	-0.007
-657.916	-21.075	-0.077	0.047
-656.901	358.933	0.087	0.175
-655.886	-60.026	0.194	0.083
-654.872	-200.000	-0.018	0.246
-653.857	-64.979	-0.038	0.016
-652.843	126.514	0.185	0.236
-651.828	-162.642	0.104	0.005
-650.814	29.793	-0.124	-0.106
-649.799	99.538	-0.259	-0.301
-648.784	800.000	0.051	-0.164
-647.770	300.058	-0.079	0.146
-646.755	-10.405	-0.391	-0.260
-645.741	-93.893	-0.181	-0.050
-644.726	-53.780	0.203	0.093
-643.711	124.355	-0.109	0.138
-642.697	-82.334	0.109	0.036
-641.682	-94.924	-0.214	0.058
-640.668	-200.000	-0.010	0.263
-639.653	59.424	-0.197	0.195
-638.638	118.786	0.337	-0.418
-637.624	800.000	-0.070	-0.284
-636.609	-27.832	0.060	0.035
-635.595	800.000	-0.137	0.438
-634.580	6.343	0.218	0.163
-633.565	263.562	0.236	-0.413
-632.551	-122.475	-0.316	-0.052
-631.536	556.020	0.090	-0.217
-630.522	29.978	-0.218	-0.187
-629.507	-38.252	-0.208	0.111
-628.492	-104.238	-0.440	-0.103
-627.478	-57.855	0.252	-0.111
-626.463	-51.243	-0.122	-0.058
-625.449	339.529	-0.133	-0.260
-624.434	-12.276	-0.301	0.198
-623.419	-26.045	0.028	-0.016
-622.405	-200.000	0.004	-0.039
-621.390	-200.000	-0.015	0.182
-620.376	148.363	0.048	-0.066
-619.361	134.882	0.168	-0.219
-618.346	-89.491	0.255	0.075
-617.332	-90.324	-0.106	-0.031
-616.317	-143.855	0.141	-0.013
-615.303	90.675	0.039	0.044
-614.288	234.904	0.160	0.266
-613.273	-200.000	0.022	-0.168
-612.259	-53.168	-0.216	-0.099
-611.244	-70.533	0.208	0.079
-610.230	-71.575	-0.119	-0.045
-609.215	800.000	0.040	-0.115
-608.201	3.594	-0.182	-0.133
-607.186	24.778	0.051	-0.042
-606.171	-5.739	-0.162	0.112
-605.157	-62.564	0.130	-0.054
-604.142	113.164	0.018	-0.022
-603.128	159.053	0.106	0.148
-602.113	-195.871	0.233	0.002
-601.098	492.760	0.074	-0.171
-600.084	4.153	-0.057	0.042
-599.069	166.157	-0.092	0.131
-598.055	40.174	0.128	-0.115
-597.040	73.118	0.143	-0.150
-596.025	-161.648	-0.312	-0.016
-595.011	62.721	-0.041	-0.041
-593.996	-87.952	0.228	-0.069
-592.982	-102.411	-0.415	0.100
-591.967	114.938	0.140	0.172
-590.952	753.086	0.081	-0.219
-589.938	-200.000	-0.019	-0.108
-588.923	304.937	0.145	-0.271
-587.909	-200.000	0.011	-0.195
-586.894	25.753	0.188	0.157
-585.879	-200.000	0.004	0.179
-584.865	-97.166	-0.286	0.075
-583.850	11.146	-0.206	-0.158
-582.836	-0.187	-0.139	0.100
-581.821	12.139	0.067	-0.052
-580.806	800.000	-0.060	0.203
-579.792	-200.000	-0.050	0.236
-578.777	-185.542	0.169	-0.003
-577.763	97.545	-0.140	0.161
-576.748	-8.055	-0.222	0.150
-575.733	800.000	-0.124	0.405
-574.719	-6.954	-0.116	-0.079
-573.704	586.081	-0.032	-0.079
-572.690	77.613	0.257	-0.274
-571.675	-200.000	-0.016	-0.159
-570.661	-144.497	-0.207	-0.019
-569.646	467.604	0.073	0.163
-568.631	-60.508	0.198	-0.084
-567.617	800.000	0.005	0.014
-566.602	-37.555	0.124	-0.066
-565.588	206.499	-0.174	0.271
-564.573	-39.856	-0.286	-0.150
-563.558	138.368	0.140	-0.185
-562.544	-200.000	-0.010	-0.056
-561.529	-121.606	0.222	0.037
-560.515	-200.000	-0.036	0.164
-559.500	18.276	0.044	-0.035
-558.485	133.165	0.115	-0.150
-557.471	-126.966	-0.359	0.053
-556.456	109.410	0.369	0.443
-555.442	800.000	0.077	0.256
-554.427	14.648	-0.177	0.139
-553.412	-200.000	0.046	-0.215
-552.398	1.405	-0.126	0.091
-551.383	161.932	0.079	0.111
-550.369	-200.000	0.014	-0.065
-549.354	-90.232	0.025	-0.007
-548.339	233.044	0.111	0.183
-547.325	87.322	-0.129	-0.143
-546.310	-24.106	0.191	-0.114
-545.296	-21.118	0.114	-0.070
-544.281	-91.618	0.040	-0.011
-543.266	-67.002	-0.368	0.146
-542.252	256.017	0.143	0.245
-541.237	-200.000	-0.031	-0.257
-540.223	13.686	-0.282	0.219
-539.208	800.000	0.099	0.304
-538.193	607.381	-0.077	-0.193
-537.179	-200.000	0.212	-0.001
-536.164	-6.962	0.149	0.101
-535.150	199.355	-0.107	0.165
-534.135	-16.789	-0.076	0.048
-533.121	-200.000	-0.005	-0.318
-532.106	632.251	0.083	-0.210
-531.091	454.452	0.067	-0.149
-530.077	800.000	-0.133	0.426
-529.062	-200.000	0.017	-0.159
-528.048	495.525	-0.010	-0.024
-527.033	-200.000	0.026	0.397
-526.018	-68.951	-0.034	-0.013
-525.004	-200.000	-0.014	-0.176
-523.989	296.506	0.193	0.354
-522.975	-23.698	0.196	-0.118
-521.960	-37.508	-0.104	-0.055
-520.945	527.678	-0.083	0.196
-519.931	79.339	0.099	0.106
-518.916	656.001	0.069	0.177
-517.902	800.000	0.059	0.231
-516.887	-73.571	-0.054	-0.020
-515.872	-200.000	0.046	0.221
-514.858	-115.661	0.271	-0.051
-513.843	800.000	0.096	-0.315
-512.829	-77.552	-0.235	-0.082
-511.814	-200.000	0.005	-0.097
-510.799	-200.000	-0.006	-0.062
-509.785	-109.191	-0.296	-0.063
-508.770	728.584	-0.064	-0.172
-507.756	-57.000	-0.290	-0.128
-506.741	-32.992	-0.194	-0.108
-505.726	257.466	-0.078	0.134
-504.712	-19.250	0.228	-0.141
-503.697	458.400	-0.127	-0.282
-502.683	180.729	0.175	0.258
-501.668	-90.311	-0.134	-0.039
-500.653	-200.000	0.037	-0.259
-499.639	463.637	-0.111	0.249
-498.624	-200.000	0.019	-0.135
-497.610	3.137	0.160	-0.116
-496.595	256.481	0.090	0.155
-495.581	566.574	-0.025	-0.061
-494.566	-63.222	0.013	-0.005
-493.551	-162.118	-0.067	0.003
-492.537	-200.000	0.055	0.248
-491.522	66.576	-0.179	0.182
-490.508	592.391	-0.125	-0.308
-489.493	-38.450	0.055	0.029
-488.478	-10.935	-0.075	0.049
-487.464	325.518	-0.105	0.201
-486.449	405.006	0.031	-0.065
-485.435	-76.006	0.163	-0.058
-484.420	800.000	-0.061	0.170
-483.405	800.000	-0.054	0.218
-482.391	337.377	-0.093	-0.181
-481.376	800.000	-0.113	0.342
-480.362	-173.931	-0.072	0.002
-479.347	551.409	0.061	-0.146
-478.332	-200.000	-0.027	-0.204
-477.318	-9.268	0.055	0.037
-476.303	-50.566	-0.273	-0.129
-475.289	-200.000	0.036	0.209
-474.274	-16.262	0.074	0.047
-473.259	13.528	-0.228	0.177
-472.245	164.637	0.184	0.259
-471.230	97.771	0.119	-0.137
-470.216	-200.000	0.007	-0.151
-469.201	76.845	0.054	0.057
-468.186	-200.000	-0.021	0.109
-467.172	-99.622	-0.109	-0.027
-466.157	-200.000	-0.063	-0.291
-465.143	-132.594	0.268	-0.034
-464.128	380.623	0.178	0.365
-463.113	-17.197	0.147	-0.092
-462.099	-200.000	-0.018	-0.083
-461.084	-20.296	0.071	0.044
-460.070	800.000	-0.049	0.150
-459.055	-104.450	-0.111	-0.026
-458.040	-200.000	-0.014	0.242
-457.026	71.954	0.106	0.111
-456.011	10.621	0.262	0.199
-454.997	26.926	-0.148	0.124
-453.982	-25.018	0.082	0.049
-452.968	-200.000	0.054	-0.276
-451.953	-106.785	0.183	-0.041
-450.938	-163.040	-0.075	-0.004
-449.924	-200.000	-0.001	-0.079
-448.909	-200.000	-0.038	0.306
-447.895	-23.636	-0.041	0.025
-446.880	-80.016	0.073	-0.025
-445.865	591.107	0.119	0.293
-444.851	107.299	-0.040	-0.047
-443.836	-94.622	-0.158	-0.043
-442.822	609.168	0.097	0.241
-441.807	107.027	0.156	-0.185
-440.792	181.294	-0.162	-0.237
-439.778	-200.000	-0.025	0.456
-438.763	-29.207	-0.173	-0.099
-437.749	-200.000	-0.040	0.236
-436.734	60.063	-0.224	-0.221
-435.719	-144.218	0.258	-0.024
-434.705	-77.715	-0.191	0.066
-433.690	166.918	0.045	-0.064
-432.676	800.000	0.011	-0.037
-431.661	1.552	-0.021	-0.015
-430.646	-200.000	-0.016	-0.073
-429.632	174.875	0.073	-0.106
-428.617	-74.519	0.079	-0.028
-427.603	230.496	-0.159	-0.260
-426.588	18.122	-0.060	0.048
-425.573	-81.018	-0.120	-0.040
-424.559	401.961	-0.042	-0.088
-423.544	106.375	0.078	-0.092
-422.530	-127.526	0.046	-0.007
-421.515	-200.000	0.007	-0.107
-420.500	60.586	0.126	-0.125
-419.486	800.000	0.088	-0.264
-418.471	-138.608	0.194	0.021
-417.457	-33.504	0.299	-0.165
-416.442	4.377	-0.068	-0.050
-415.428	-144.829	-0.394	0.036
-414.413	-200.000	0.335	0.000
-413.398	-146.932	0.247	0.021
-412.384	800.000	0.061	0.232
-411.369	175.213	-0.168	0.243
-410.355	-200.000	0.003	0.286
-409.340	163.362	0.075	0.105
-408.325	21.759	-0.045	-0.036
-407.311	800.000	0.072	0.251
-406.296	279.049	0.123	-0.219
-405.282	-175.003	-0.135	0.004
-404.267	39.667	-0.163	0.146
-403.252	800.000	0.071	0.210
-402.238	331.356	0.115	0.221
-401.223	303.452	0.065	-0.119
-400.209	-57.319	0.110	-0.048
-399.194	81.508	-0.248	0.267
-398.179	-200.000	0.063	0.296
-397.165	-28.946	-0.082	0.047
-396.150	-200.000	0.056	-0.372
-395.136	800.000	0.025	0.092
-394.121	16.165	-0.185	-0.146
-393.106	-73.029	-0.227	0.083
-392.092	-119.870	-0.338	0.058
-391.077	-179.414	-0.429	0.009
-390.063	-200.000	0.007	0.202
-389.048	533.776	-0.127	-0.301
-388.033	33.014	-0.211	0.182
-387.019	-200.000	0.012	-0.222
-386.004	275.298	0.106	-0.187
-384.990	200.798	0.013	-0.020
-383.975	-200.000	0.073	0.569
-382.960	-200.000	-0.017	-0.308
-381.946	-122.322	-0.215	-0.035
-380.931	-89.064	0.241	-0.071
-379.917	-200.000	-0.005	0.072
-378.902	35.635	0.221	-0.193
-377.888	236.253	-0.100	-0.165
-376.873	-83.259	0.193	-0.062
-375.858	-81.437	0.076	-0.025
-374.844	-91.600	-0.231	0.065
-373.829	-177.036	-0.259	0.006
-372.815	42.702	0.065	0.059
-371.800	27.485	-0.068	0.057
-370.785	-200.000	-0.007	0.064
-369.771	-109.512	0.100	-0.021
-368.756	278.328	-0.162	-0.286
-367.742	-50.844	-0.299	-0.140
-366.727	151.902	0.075	0.102
-365.712	-148.539	-0.277	-0.022
-364.698	-117.135	0.169	0.031
-363.683	-153.661	0.059	-0.004
-362.669	-200.000	-0.017	0.077
-361.654	-14.130	0.175	0.112
-360.639	-200.000	0.008	0.105
-359.625	-158.551	-0.224	-0.013
-358.610	-200.000	0.057	-0.329
-357.596	78.963	0.059	0.063
-356.581	361.995	-0.022	-0.044
-355.566	-200.000	0.024	-0.210
-354.552	81.825	-0.144	0.155
-353.537	-66.898	0.223	0.088
-352.523	-200.000	-0.025	-0.165
-351.508	-2.987	0.196	-0.136
-350.493	-17.319	-0.415	-0.260
-349.479	52.512	0.248	-0.235
-348.464	-72.794	0.127	-0.046
-347.450	40.337	0.125	-0.112
-346.435	46.528	-0.175	-0.161
-345.420	-30.783	-0.328	0.184
-344.406	73.679	0.112	-0.117
-343.391	800.000	0.026	0.078
-342.377	-138.913	0.144	-0.016
-341.362	-74.735	-0.148	0.053
-340.348	-200.000	0.013	-0.515
-339.333	109.966	-0.198	-0.236
-338.318	-31.794	-0.136	0.076
-337.304	189.085	-0.078	-0.117
-336.289	432.127	-0.037	0.080
-335.275	386.742	0.106	-0.218
-334.260	-41.333	-0.245	0.126
-333.245	60.833	-0.194	-0.191
-332.231	-150.600	-0.360	0.027
-331.216	-16.787	-0.235	-0.148
-330.202	-200.000	0.028	-0.442
-329.187	21.524	0.318	0.257
-328.172	-200.000	-0.007	-0.266
-327.158	-56.406	0.096	-0.042
-326.143	64.854	0.233	-0.234
-325.129	-200.000	0.036	-0.233
-324.114	-77.470	-0.072	-0.025
-323.099	420.527	-0.054	-0.115
-322.085	-58.792	0.343	0.147
-321.070	-135.236	-0.134	-0.016
-320.056	75.395	-0.028	-0.029
-319.041	13.707	0.253	-0.195
-318.026	71.195	-0.305	0.314
-317.012	251.213	0.073	0.123
-315.997	-68.671	-0.260	0.100
-314.983	-200.000	0.058	-0.335
-313.968	109.701	0.168	-0.200
-312.953	192.818	0.089	0.134
-311.939	-129.947	0.111	0.015
-310.924	10.031	-0.067	-0.051
-309.910	83.450	-0.350	-0.378
-308.895	77.554	-0.165	0.175
-307.880	146.469	-0.137	0.183
-306.866	-44.782	-0.203	0.101
-305.851	214.725	-0.083	-0.130
-304.837	-99.173	0.137	-0.034
-303.822	-77.272	0.250	0.086
-302.807	800.000	0.083	0.276
-301.793	-159.950	0.213	-0.012
-300.778	-180.256	-0.081	-0.002
-299.764	-69.584	-0.371	-0.141
-298.749	159.601	0.188	-0.260
-297.735	-200.000	0.054	0.261
-296.720	-111.543	0.089	-0.018
-295.705	800.000	-0.073	-0.256
-294.691	113.312	0.203	-0.244
-293.676	122.715	0.053	0.066
-292.662	333.564	0.071	0.136
-291.647	91.215	-0.318	0.354
-290.632	-129.289	0.292	0.040
-289.618	-74.035	0.118	-0.043
-288.603	94.867	0.375	0.423
-287.589	-72.540	0.094	-0.035
-286.574	221.183	0.062	-0.099
-285.559	80.850	0.148	-0.158
-284.545	800.000	0.070	0.231
-283.530	800.000	0.049	-0.182
-282.516	55.675	-0.148	-0.142
-281.501	160.865	0.098	0.136
-280.486	37.653	0.055	0.048
-279.472	-200.000	-0.048	-0.379
-278.457	-36.100	0.294	-0.157
-277.443	-136.066	-0.228	-0.027
-276.428	-22.830	-0.193	-0.115
-275.413	249.263	-0.044	0.074
-274.399	-58.994	0.107	0.046
-273.384	38.599	-0.162	0.144
-272.370	-17.709	0.195	0.122
-271.355	134.658	0.177	0.228
-270.340	-84.792	-0.148	0.046
-269.326	153.261	0.078	0.106
-268.311	-200.000	-0.008	0.213
-267.297	-77.318	0.142	0.049
-266.282	-110.884	-0.123	0.025
-265.267	-131.000	0.146	-0.019
-264.253	-200.000	0.040	0.210
-263.238	-132.239	-0.151	-0.019
-262.224	-200.000	0.014	0.113
-261.209	-200.000	0.040	0.195
-260.195	129.724	-0.142	-0.180
-259.180	40.905	-0.034	-0.030
-258.165	182.196	0.029	-0.042
-257.151	105.342	-0.046	0.054
-256.136	271.173	0.109	0.190
-255.122	-187.715	-0.197	0.003
-254.107	81.257	0.110	0.117
-253.092	66.187	-0.207	-0.208
-252.078	-200.000	0.000	-0.208
-251.063	-48.806	0.318	0.151
-250.049	-200.000	0.011	-0.219
-249.034	800.000	-0.029	0.117
-248.019	453.531	0.168	0.369
-247.005	-200.000	-0.005	-0.024
-245.990	471.590	-0.084	0.188
-244.976	-200.000	0.015	0.314
-243.961	313.365	0.152	0.282
-242.946	-5.539	-0.223	0.152
-241.932	6.998	-0.298	-0.220
-240.917	-200.000	0.023	0.312
-239.903	-12.030	0.291	0.189
-238.888	-138.049	0.265	-0.029
-237.873	110.535	0.272	0.324
-236.859	48.159	0.171	0.158
-235.844	800.000	-0.077	-0.257
-234.830	160.645	0.213	0.294
-233.815	-200.000	-0.009	0.087
-232.800	-161.781	0.537	0.027
-231.786	800.000	0.085	-0.298
-230.771	-200.000	-0.017	-0.141
-229.757	781.999	0.113	-0.306
-228.742	-200.000	0.020	-0.175
-227.727	-28.987	-0.253	-0.144
-226.713	-116.740	0.357	0.065
-225.698	-200.000	0.001	0.164
-224.684	-200.000	0.021	-0.141
-223.669	800.000	-0.134	0.449
-222.655	800.000	0.075	0.219
-221.640	-3.362	-0.082	0.057
-220.625	-200.000	0.000	-0.148
-219.611	-200.000	-0.012	0.304
-218.596	-48.075	-0.136	-0.065
-217.582	-69.206	0.102	-0.039
-216.567	240.002	-0.097	-0.160
-215.552	-200.000	-0.059	-0.267
-214.538	123.413	-0.078	0.096
-213.523	53.870	0.136	-0.129
-212.509	-200.000	-0.020	0.093
-211.494	364.687	0.033	-0.065
-210.479	485.553	-0.088	0.198
-209.465	189.606	0.132	-0.196
-208.450	350.208	0.211	0.413
-207.436	-3.962	-0.144	-0.099
-206.421	-24.858	-0.114	0.067
-205.406	408.226	0.109	-0.227
-204.392	-94.165	-0.387	0.105
-203.377	-50.544	-0.429	0.200
-202.363	-13.911	0.074	0.048
-201.348	-25.850	-0.304	0.177
-200.333	-200.000	0.003	-0.120
-199.319	502.950	-0.164	-0.375
-198.304	-34.385	-0.192	-0.104
-197.290	41.957	0.265	-0.238
-196.275	-163.390	-0.442	0.021
-195.260	-200.000	-0.003	-0.177
-194.246	-26.558	0.192	-0.111
-193.231	101.654	0.395	-0.455
-192.217	-25.410	0.099	-0.058
-191.202	260.492	-0.233	-0.397
-190.187	284.191	0.187	-0.332
-189.173	307.099	0.047	0.086
-188.158	-200.000	-0.009	0.074
-187.144	-98.039	0.095	0.024
-186.129	49.458	0.121	0.112
-185.114	-31.668	0.300	0.166
-184.100	76.225	-0.098	0.103
-183.085	470.068	-0.044	-0.097
-182.071	240.892	-0.134	0.221
-181.056	800.000	0.096	-0.273
-180.042	140.390	0.101	0.132
-179.027	-8.150	0.300	0.199
-178.012	800.000	-0.058	0.180
-176.998	481.592	0.115	0.258
-175.983	800.000	0.115	0.439
-174.969	26.049	-0.117	0.096
-173.954	55.762	0.123	-0.118
-172.939	413.757	0.092	-0.194
-171.925	800.000	0.085	-0.262
-170.910	-157.665	-0.051	-0.003
-169.896	800.000	0.011	0.033
-168.881	322.480	-0.248	0.466
-167.866	-42.450	0.111	-0.056
-166.852	95.847	0.307	-0.347
-165.837	228.746	0.047	0.075
-164.823	116.681	0.038	-0.047
-163.808	800.000	-0.044	-0.166
-162.793	-57.457	-0.302	-0.131
-161.779	35.077	0.167	0.144
-160.764	184.827	0.152	-0.223
-159.750	-30.861	0.037	-0.021
-158.735	-68.907	-0.094	0.036
-157.720	-61.637	0.312	0.129
-156.706	800.000	-0.006	0.023
-155.691	654.104	0.164	0.415
-154.677	-127.785	-0.150	-0.021
-153.662	800.000	0.068	-0.230
-152.647	800.000	0.078	0.302
-151.633	-200.000	0.080	-0.511
-150.618	-62.399	-0.316	-0.130
-149.604	-200.000	-0.004	-0.061
-148.589	137.166	-0.131	-0.169
-147.574	-200.000	0.066	-0.357
-146.560	-135.335	0.338	-0.040
-145.545	312.930	0.059	-0.109
-144.531	-120.478	0.129	-0.022
-143.516	-162.595	0.282	0.014
-142.502	-118.536	0.463	0.081
-141.487	123.843	0.157	0.194
-140.472	-17.880	0.223	-0.138
-139.458	246.833	-0.213	0.354
-138.443	253.872	0.181	-0.305
-137.429	-73.186	-0.181	0.065
-136.414	47.373	0.179	0.165
-135.399	-64.143	-0.251	0.101
-134.385	800.000	-0.067	0.205
-133.370	50.327	-0.156	0.145
-132.356	268.849	-0.133	0.230
-131.341	-83.291	0.231	0.073
-130.326	-99.759	0.210	0.052
-129.312	217.464	-0.115	-0.181
-128.297	162.675	-0.191	-0.264
-127.283	131.882	-0.142	0.180
-126.268	68.726	0.085	-0.086
-125.253	319.238	-0.076	0.142
-124.239	-62.056	0.303	-0.125
-123.224	-68.820	-0.135	0.051
-122.210	-54.286	-0.181	-0.081
-121.195	-53.698	-0.191	0.086
-120.180	-38.844	0.357	0.185
-119.166	168.974	-0.131	-0.184
-118.151	144.795	-0.070	-0.093
-117.137	7.498	0.141	-0.104
-116.122	-36.660	0.238	-0.126
-115.107	86.506	0.033	0.035
-114.093	-131.688	-0.251	-0.032
-113.078	-200.000	-0.009	0.093
-112.064	-63.711	-0.174	0.070
-111.049	187.977	-0.141	0.207
-110.034	-49.323	0.102	-0.048
-109.020	-129.612	0.095	0.013
-108.005	498.703	-0.121	0.274
-106.991	154.834	-0.054	-0.073
-105.976	153.934	0.108	-0.146
-104.962	355.932	-0.155	-0.304
-103.947	31.947	-0.015	-0.012
-102.932	195.443	0.097	0.145
-101.918	-200.000	-0.049	-0.408
-100.903	800.000	-0.030	-0.121
-99.889	529.742	0.197	0.457
-98.874	800.000	0.083	0.308
-97.859	123.574	-0.282	0.349
-96.845	-200.000	0.001	0.041
-95.830	-47.521	0.335	0.160
-94.816	770.121	0.032	0.087
-93.801	-96.847	-0.289	-0.075
-92.786	577.897	0.058	-0.140
-91.772	-200.000	0.033	-0.178
-90.757	-46.308	0.332	-0.161
-89.743	800.000	-0.076	-0.258
-88.728	80.291	0.121	-0.128
-87.713	-200.000	-0.016	0.307
-86.699	-200.000	0.007	0.046
-85.684	-159.092	-0.071	0.004
-84.670	-109.825	0.228	0.047
-83.655	-37.109	-0.054	-0.028
-82.640	-56.307	-0.343	-0.150
-81.626	-122.106	-0.084	-0.014
-80.611	-37.698	0.328	0.172
-79.597	66.253	0.259	-0.259
-78.582	-28.154	0.084	0.048
-77.567	-58.228	0.134	0.058
-76.553	-200.000	-0.010	-0.157
-75.538	513.411	0.069	0.159
-74.524	-200.000	0.030	0.214
-73.509	670.129	0.122	0.311
-72.494	70.803	0.092	-0.094
-71.480	-117.766	-0.358	-0.063
-70.465	212.981	0.193	-0.300
-69.451	-200.000	-0.060	0.273
-68.436	-117.358	0.186	-0.033
-67.422	-154.355	0.300	0.020
-66.407	8.611	0.188	0.139
-65.392	67.674	0.151	0.152
-64.378	439.570	0.045	0.096
-63.363	-200.000	-0.019	0.222
-62.349	-124.344	-0.123	-0.019
-61.334	179.782	-0.811	-1.168
-60.319	34.213	0.541	0.464
-59.305	261.764	-0.511	-0.871
-58.290	185.258	0.668	0.975
-57.276	800.000	0.483	1.423
-56.261	-200.000	94.460	569.607
-55.246	507.297	1405.305	3205.157
-54.232	152.681	2614.117	3511.037
-53.217	110.845	2196.436	2598.209
-52.203	43.832	1639.383	1475.611
-51.188	35.017	1370.383	1179.423
-50.173	31.799	1328.219	1123.828
-49.159	54.083	1374.719	1299.426
-48.144	56.000	1390.838	1326.273
-47.130	35.271	1350.561	1163.719
-46.115	31.740	1333.218	1127.521
-45.100	31.660	1327.938	1122.532
-44.086	31.531	1325.539	1119.689
-43.071	31.444	1323.592	1117.481
-42.057	31.349	1321.483	1115.091
-41.042	31.382	1319.462	1113.534
-40.027	31.425	1318.257	1112.732
-39.013	31.447	1315.933	1110.852
-37.998	31.397	1314.653	1109.435
-36.984	31.378	1312.878	1107.780
-35.969	31.531	1310.821	1106.903
-34.954	31.507	1309.013	1105.195
-33.940	31.519	1307.834	1104.227
-32.925	31.489	1306.536	1102.906
-31.911	31.660	1304.690	1102.313
-30.896	31.712	1302.651	1100.853
-29.881	31.582	1301.839	1099.355
-28.867	31.621	1300.543	1098.449
-27.852	31.668	1298.759	1097.175
-26.838	31.566	1297.696	1095.633
-25.823	31.601	1296.223	1094.552
-24.809	31.498	1295.083	1092.946
-23.794	31.607	1293.705	1092.374
-22.779	31.630	1292.069	1091.083
-21.765	31.606	1290.944	1089.950
-20.750	31.563	1289.375	1088.335
-19.736	31.455	1288.384	1086.828
-18.721	31.434	1286.940	1085.444
-17.706	31.486	1285.838	1084.773
-16.692	31.470	1284.602	1083.595
-15.677	31.412	1283.528	1082.308
-14.663	31.320	1282.509	1080.875
-13.648	31.372	1281.338	1080.142
-12.633	31.503	1279.757	1079.524
-11.619	31.477	1279.606	1079.203
-10.604	31.378	1278.931	1078.021
-9.590	31.449	1277.519	1077.196
-8.575	31.386	1276.630	1076.043
-7.560	31.352	1276.174	1075.417
-6.546	31.281	1275.022	1074.000
-5.531	31.341	1274.135	1073.555
-4.517	31.340	1273.898	1073.308
-3.502	31.432	1272.228	1072.385
-2.487	31.425	1271.417	1071.614
-1.473	31.440	1267.731	1068.554
-0.458	30.531	1252.910	1050.882
0.556	26.623	1235.098	1013.834
1.571	22.527	1240.152	994.815
2.586	20.864	1253.585	996.003
3.600	19.249	1241.364	977.056
4.615	14.129	1165.726	890.108
5.629	5.494	1088.795	787.965
6.644	1.318	1068.649	752.644
7.659	0.989	1066.284	749.287
8.673	0.882	1065.170	747.908
9.688	0.931	1064.536	747.636
10.702	1.179	1062.220	747.168
11.717	5.758	1068.237	773.980
12.731	13.327	1077.748	818.378
13.746	16.958	1081.870	839.440
14.761	17.518	1082.078	842.296
15.775	16.876	1080.211	837.598
16.790	15.781	1078.421	830.735
17.804	15.147	1076.819	826.300
18.819	14.746	1075.660	823.362
19.834	14.561	1074.388	821.403
20.848	14.259	1073.283	818.999
21.863	13.898	1072.737	816.735
22.877	13.951	1071.586	816.045
23.892	13.744	1071.178	814.646
24.907	13.699	1070.656	813.959
25.921	13.762	1070.013	813.704
26.936	13.766	1069.042	812.915
27.950	13.729	1068.447	812.211
28.965	13.981	1066.392	811.808
29.980	14.011	1064.863	810.716
30.994	13.976	1064.135	809.920
32.009	13.999	1063.530	809.502
33.023	13.921	1062.390	808.180
34.038	13.912	1061.588	807.457
35.053	13.871	1060.513	806.368
36.067	13.922	1059.569	805.828
37.082	13.893	1059.110	805.264
38.096	13.906	1058.223	804.584
39.111	13.991	1057.168	804.121
40.126	13.925	1056.093	802.913
41.140	13.765	1054.801	801.090
42.155	13.832	1053.757	800.547
43.169	13.741	1053.084	799.526
44.184	13.847	1051.510	798.769
45.199	13.934	1050.222	798.140
46.213	13.881	1049.135	796.989
47.228	13.764	1048.658	795.996
48.242	13.867	1047.370	795.441
49.257	13.789	1046.519	794.352
50.271	13.892	1045.656	794.117
51.286	13.933	1044.249	793.176
52.301	13.866	1044.057	792.638
53.315	13.794	1042.870	791.325
54.330	13.782	1041.788	790.374
55.344	13.785	1041.175	789.853
56.359	13.782	1040.348	789.146
57.374	13.849	1039.207	788.527
58.388	13.777	1038.428	787.524
59.403	13.732	1037.610	786.619
60.417	13.773	1036.875	786.186
61.432	13.746	1035.768	785.152
62.447	13.719	1035.183	784.510
63.461	13.670	1034.232	783.489
64.476	13.675	1033.406	782.816
65.490	13.726	1032.593	782.371
66.505	13.762	1031.788	781.864
67.520	13.741	1031.171	781.229
68.534	13.754	1030.573	780.765
69.549	13.759	1029.812	780.143
70.563	13.756	1028.739	779.250
71.578	13.634	1028.563	778.472
72.593	13.769	1027.097	777.929
73.607	13.659	1026.936	777.220
74.622	13.664	1026.265	776.668
75.636	13.768	1024.862	776.027
76.651	13.740	1024.470	775.529
77.666	13.614	1024.367	774.792
78.680	13.692	1023.572	774.485
79.695	13.714	1022.626	773.803
80.709	13.728	1021.982	773.317
81.724	13.768	1021.324	772.935
82.739	13.652	1020.549	771.739
83.753	13.794	1020.030	771.939
84.768	13.834	1018.943	771.235
85.782	13.969	1017.713	770.860
86.797	13.970	1016.807	770.111
87.812	13.774	1016.262	768.722
88.826	13.860	1014.627	767.818
89.841	13.913	1013.850	767.405
90.855	13.903	1013.167	766.774
91.870	13.945	1012.386	766.310
92.884	13.857	1011.520	765.182
93.899	14.060	1010.368	765.173
94.914	13.994	1009.791	764.367
95.928	14.116	1009.009	764.269
96.943	13.932	1008.208	762.750
97.957	13.888	1007.340	761.824
98.972	13.973	1006.934	761.838
99.987	13.868	1005.943	760.541
101.001	13.931	1004.711	759.828
102.016	13.981	1003.691	759.221
103.030	13.976	1003.062	758.654
104.045	13.879	1002.024	757.357
105.060	13.828	1001.702	756.814
106.074	13.944	1000.384	756.284
107.089	13.927	999.107	755.172
108.103	13.835	998.929	754.551
109.118	13.801	998.038	753.658
110.133	13.750	997.046	752.610
111.147	13.764	996.174	751.949
112.162	13.833	995.427	751.633
113.176	13.852	994.512	750.960
114.191	13.932	993.839	750.746
115.206	13.938	992.847	749.958
116.220	13.861	992.268	749.108
117.235	13.937	991.233	748.604
118.249	13.905	990.503	747.839
119.264	13.858	990.077	747.243
120.279	13.839	989.352	746.541
121.293	13.952	988.197	746.113
122.308	13.900	987.188	745.052
123.322	13.831	986.500	744.157
124.337	13.900	985.521	743.662
125.352	13.971	984.454	743.109
126.366	13.971	983.259	742.140
127.381	13.922	982.019	740.921
128.395	14.010	981.003	740.481
129.410	13.951	980.164	739.521
130.424	13.996	979.494	739.149
131.439	14.073	978.658	738.793
132.454	13.944	978.401	737.960
133.468	14.036	977.106	737.331
134.483	13.996	976.042	736.285
135.497	14.012	975.451	735.843
136.512	14.016	974.365	734.976
137.527	14.063	973.157	734.207
138.541	14.105	972.813	734.069
139.556	14.019	971.907	732.939
140.570	14.063	971.266	732.587
141.585	14.223	970.192	732.416
142.600	14.071	969.752	731.350
143.614	14.187	968.593	730.919
144.629	14.189	967.912	730.350
145.643	14.111	967.200	729.407
146.658	14.040	966.036	728.155
147.673	13.996	965.255	727.308
148.687	14.146	964.577	727.389
149.702	13.955	963.797	725.903
150.716	14.063	962.834	725.582
151.731	14.091	962.346	725.274
152.746	14.045	961.711	724.530
153.760	14.144	960.865	724.262
154.775	14.156	960.229	723.767
155.789	14.244	959.602	723.617
156.804	14.059	959.255	722.483
157.819	14.190	958.354	722.313
158.833	14.247	957.732	722.024
159.848	14.226	956.859	721.211
160.862	14.213	956.012	720.457
161.877	14.125	955.108	719.330
162.892	14.155	954.038	718.589
163.906	14.198	953.067	717.978
164.921	14.273	952.516	717.826
165.935	14.175	951.679	716.709
166.950	14.319	950.653	716.492
167.964	14.169	949.837	715.169
168.979	14.154	949.053	714.451
169.994	14.228	947.951	713.876
171.008	14.252	947.246	713.384
172.023	14.357	946.220	712.997
173.037	14.285	946.228	712.632
174.052	14.374	945.057	712.065
175.067	14.336	944.368	711.324
176.081	14.345	944.065	711.069
177.096	14.314	943.522	710.465
178.110	14.320	942.983	710.021
179.125	14.324	942.176	709.370
180.140	14.370	941.671	709.123
181.154	14.369	941.378	708.833
182.169	14.343	940.932	708.324
183.183	14.441	939.972	707.958
184.198	14.542	939.560	708.011
185.213	14.515	938.656	707.154
186.227	14.557	937.531	706.422
187.242	14.463	937.536	705.967
188.256	14.384	936.743	704.973
189.271	14.474	935.562	704.399
190.286	14.419	934.971	703.661
191.300	14.383	934.561	703.136
192.315	14.396	933.938	702.662
193.329	14.400	933.370	702.190
194.344	14.405	932.917	701.809
195.359	14.490	931.969	701.388
196.373	14.482	931.514	700.953
197.388	14.669	930.875	701.193
198.402	14.735	930.383	701.039
199.417	14.643	929.787	700.143
200.432	14.769	928.775	699.846
201.446	14.767	928.244	699.377
202.461	14.682	928.179	698.910
203.475	14.789	927.455	698.748
204.490	14.707	927.096	698.074
205.504	14.761	925.678	697.169
206.519	14.779	925.103	696.752
207.534	14.722	924.383	695.907
208.548	14.770	923.715	695.545
209.563	14.748	923.227	695.023
210.577	14.800	922.536	694.659
211.592	14.851	921.833	694.278
212.607	14.976	920.543	693.765
213.621	15.004	920.131	693.509
214.636	14.879	919.552	692.495
215.650	14.894	918.729	691.872
216.665	14.979	917.993	691.609
217.680	14.971	917.405	691.073
218.694	14.933	916.879	690.459
219.709	15.006	916.090	690.104
220.723	14.964	915.140	689.154
221.738	14.937	914.730	688.676
222.753	15.052	913.890	688.455
223.767	15.021	913.330	687.844
224.782	15.177	912.653	687.913
225.796	15.185	912.216	687.557
226.811	15.096	911.395	686.512
227.826	15.083	910.872	686.002
228.840	15.215	910.000	685.825
229.855	15.197	909.041	684.971
230.869	15.069	908.715	684.138
231.884	15.021	908.262	683.542
232.899	15.043	907.049	682.660
233.913	14.980	906.631	682.026
234.928	14.978	905.917	681.420
235.942	15.030	905.339	681.139
236.957	15.143	904.593	680.975
237.972	15.189	903.795	680.502
238.986	15.051	903.342	679.539
240.001	15.122	902.396	679.056
241.015	15.039	902.596	678.809
242.030	15.146	901.686	678.499
243.045	15.370	900.525	678.471
244.059	15.257	900.606	678.017
245.074	15.233	900.060	677.447
246.088	15.337	898.975	676.991
247.103	15.304	898.588	676.507
248.117	15.389	898.193	676.491
249.132	15.334	897.354	675.579
250.147	15.428	896.571	675.309
251.161	15.538	896.087	675.326
252.176	15.528	895.178	674.542
253.190	15.553	894.393	673.991
254.205	15.535	893.944	673.518
255.220	15.663	892.847	673.145
256.234	15.598	892.628	672.662
257.249	15.704	892.130	672.649
258.263	15.631	891.278	671.656
259.278	15.462	890.692	670.480
260.293	15.607	889.960	670.449
261.307	15.651	889.494	670.215
262.322	15.745	889.040	670.187
263.336	15.679	887.969	669.059
264.351	15.742	887.296	668.743
265.366	15.807	886.928	668.665
266.380	15.666	886.567	667.771
267.395	15.861	885.535	667.709
268.409	15.878	884.595	667.008
269.424	15.842	883.976	666.338
270.439	15.701	883.563	665.414
271.453	15.821	882.996	665.402
272.468	15.818	882.266	664.780
273.482	15.762	881.853	664.189
274.497	16.023	880.673	664.269
275.512	15.846	880.694	663.528
276.526	15.947	879.827	663.214
277.541	15.857	879.930	662.882
278.555	15.968	878.997	662.555
279.570	16.001	878.134	661.977
280.585	16.086	877.468	661.749
281.599	15.996	876.627	660.703
282.614	16.102	875.550	660.250
283.628	15.995	875.389	659.651
284.643	16.235	874.706	660.017
285.657	16.071	873.890	658.700
286.672	15.927	873.635	657.887
287.687	16.038	872.906	657.713
288.701	16.038	872.644	657.457
289.716	16.004	871.913	656.715
290.730	16.305	870.874	657.047
291.745	16.141	870.676	656.200
292.760	16.145	869.963	655.622
293.774	16.060	869.667	655.011
294.789	16.203	868.685	654.768
295.803	16.249	867.927	654.316
296.818	16.314	867.090	653.878
297.833	16.208	866.714	653.126
298.847	16.214	866.106	652.636
299.862	16.221	865.469	652.125
300.876	16.278	864.937	651.884
301.891	16.363	864.343	651.709
302.906	16.405	863.641	651.283
303.920	16.237	863.420	650.411
304.935	16.483	862.562	650.653
305.949	16.472	861.859	650.026
306.964	16.392	861.240	649.194
307.979	16.385	860.972	648.905
308.993	16.508	860.170	648.718
310.008	16.512	859.563	648.218
311.022	16.514	859.079	647.803
312.037	16.564	858.559	647.543
313.052	16.526	858.034	646.944
314.066	16.407	857.486	646.019
315.081	16.436	857.072	645.762
316.095	16.454	856.022	644.981
317.110	16.569	855.406	644.898
318.125	16.567	855.448	644.865
319.139	16.525	854.917	644.250
320.154	16.441	854.635	643.661
321.168	16.577	853.748	643.452
322.183	16.583	853.222	643.022
323.197	16.565	852.596	642.424
324.212	16.621	852.236	642.307
325.227	16.690	851.559	642.004
326.241	16.569	850.995	641.063
327.256	16.402	850.778	640.212
328.270	16.518	849.875	639.914
329.285	16.664	849.039	639.780
330.300	16.548	848.839	639.134
331.314	16.663	847.908	638.809
332.329	16.674	847.430	638.436
333.343	16.683	847.478	638.446
334.358	16.685	846.910	637.972
335.373	16.760	846.246	637.698
336.387	16.729	845.836	637.213
337.402	16.821	845.906	637.557
338.416	16.810	845.476	637.135
339.431	16.806	844.756	636.521
340.446	16.886	844.181	636.333
341.460	16.967	843.970	636.421
342.475	16.954	843.541	635.993
343.489	16.923	843.271	635.617
344.504	16.863	842.834	635.005
345.519	16.974	842.267	634.940
346.533	17.071	841.549	634.704
347.548	17.111	840.815	634.245
348.562	16.926	840.710	633.416
349.577	16.857	840.216	632.732
350.592	16.866	839.344	632.051
351.606	17.050	838.808	632.278
352.621	17.136	837.885	631.845
353.635	17.120	837.506	631.447
354.650	16.871	836.835	629.957
355.665	16.965	835.941	629.578
356.679	17.061	835.458	629.516
357.694	17.192	834.583	629.285
358.708	17.243	833.607	628.683
359.723	17.312	833.613	628.885
360.738	17.005	833.488	627.602
361.752	17.168	832.268	627.229
362.767	17.175	831.959	626.965
363.781	17.283	831.420	626.902
364.796	17.272	830.993	626.483
365.810	17.261	830.929	626.342
366.825	17.230	830.282	625.684
367.840	17.356	830.098	625.953
368.854	17.197	829.288	624.702
369.869	17.455	828.623	625.095
370.883	17.357	828.416	624.521
371.898	17.438	828.024	624.470
372.913	17.396	827.695	624.011
373.927	17.434	827.243	623.755
374.942	17.408	826.433	622.994
375.956	17.623	826.182	623.536
376.971	17.571	825.659	622.896
377.986	17.571	825.099	622.420
379.000	17.674	824.396	622.209
380.015	17.546	824.293	621.608
381.029	17.635	823.619	621.371
382.044	17.645	823.189	621.028
383.059	17.755	822.542	620.885
384.073	17.658	821.997	620.066
385.088	17.722	821.274	619.700
386.102	17.716	820.919	619.354
387.117	17.616	820.283	618.457
388.132	17.670	819.486	617.995
389.146	17.756	819.170	618.014
390.161	17.731	818.904	617.670
391.175	17.803	818.077	617.252
392.190	17.839	817.545	616.927
393.205	17.509	817.532	615.666
394.219	17.770	816.663	615.901
395.234	17.699	816.499	615.468
396.248	17.615	816.080	614.793
397.263	17.598	815.993	614.612
398.278	17.796	815.194	614.670
399.292	17.760	814.926	614.281
400.307	17.768	814.365	613.833
401.321	17.744	813.787	613.258
402.336	17.706	813.600	612.926
403.350	17.788	813.210	612.874
404.365	17.946	812.431	612.799
405.380	17.829	812.021	612.017
406.394	17.874	811.427	611.676
407.409	17.961	811.140	611.717
408.423	18.020	810.650	611.504
409.438	18.029	810.157	611.109
410.453	18.112	809.785	611.073
411.467	18.126	809.334	610.727
412.482	18.086	809.077	610.335
413.496	18.242	808.522	610.419
414.511	18.151	808.233	609.824
415.526	18.046	808.031	609.245
416.540	18.093	807.453	608.923
417.555	18.228	806.713	608.788
418.569	18.245	806.488	608.626
419.584	18.056	806.034	607.558
420.599	18.302	805.217	607.762
421.613	109.892	1290.233	1463.034
422.628	94.796	1360.881	1463.137
