DTS Sentinel unit serial number:	SN413079Multiplexer serial number:	ORYXHardware model number:	OX4-SRSoftware version number:	ORYX F/W v4.00 Oryx Data Collector v3.7.2.0data status	okinstallation	princeton_trtdifferential loss correction	single-endedforward channel	channel 1reverse channel	N/Adate	2019/09/13time	09:50:35forward acquisition time	60.00reverse acquisition time	0.00gamma	496.2192k internal	0.2325k external	0.2325temperature offset calibration	1.0160default loss term (dB/km)	0.3790temperature slope calibration	1.0000multiplexer offset coefficient	1.0000multiplexer slope coefficient	1.0000fibre end	0.00T internal ref (°C)	29.94T ext. ref 1 (°C)	4.45T ext. ref 2 (°C)	27.07length (m)	temperature (°C)	Stokes	anti-Stokes-747.200	89.720	0.184	-0.208
-746.185	-77.375	0.238	-0.084
-745.171	327.099	0.059	-0.114
-744.156	265.779	-0.215	0.378
-743.142	-200.000	-0.014	0.156
-742.127	-35.152	-0.289	-0.159
-741.112	-200.000	-0.029	-0.152
-740.098	800.000	0.036	0.109
-739.083	-82.948	-0.144	-0.047
-738.069	-200.000	0.002	0.054
-737.054	800.000	-0.084	0.353
-736.039	-200.000	0.007	-0.175
-735.025	27.252	0.159	0.135
-734.010	646.343	0.119	0.307
-732.996	-23.588	0.156	-0.095
-731.981	35.285	0.111	-0.098
-730.966	800.000	0.024	-0.074
-729.952	105.287	0.183	-0.217
-728.937	-55.532	-0.144	-0.065
-727.923	68.811	-0.131	0.135
-726.908	173.384	-0.109	0.159
-725.894	162.339	-0.121	-0.172
-724.879	241.738	0.038	0.065
-723.864	607.399	-0.185	-0.466
-722.850	81.265	0.113	-0.123
-721.835	-28.911	0.017	-0.010
-720.821	774.797	0.018	0.049
-719.806	44.171	-0.240	0.222
-718.791	800.000	-0.099	0.354
-717.777	800.000	-0.052	-0.179
-716.762	101.563	-0.227	-0.267
-715.748	97.960	0.031	0.036
-714.733	-70.710	0.219	-0.083
-713.718	307.252	-0.091	-0.171
-712.704	-200.000	-0.039	-0.211
-711.689	62.990	-0.069	0.069
-710.675	800.000	0.092	0.302
-709.660	-48.329	-0.212	-0.103
-708.645	-97.308	-0.308	-0.081
-707.631	-54.435	0.220	-0.101
-706.616	-26.670	-0.043	0.026
-705.602	40.971	0.126	0.114
-704.587	498.148	0.081	0.188
-703.572	-47.160	0.087	0.043
-702.558	-150.619	0.223	0.017
-701.543	800.000	0.063	-0.212
-700.529	3.485	-0.469	-0.344
-699.514	-69.732	0.281	0.108
-698.499	456.080	-0.032	-0.071
-697.485	-155.276	-0.162	-0.011
-696.470	401.010	-0.258	-0.546
-695.456	11.772	-0.020	-0.015
-694.441	800.000	0.087	-0.244
-693.426	124.327	0.067	-0.085
-692.412	557.499	0.037	-0.090
-691.397	371.702	0.103	0.210
-690.383	28.279	0.164	0.140
-689.368	-61.875	-0.238	-0.100
-688.354	-200.000	-0.005	0.136
-687.339	-72.882	0.303	-0.112
-686.324	317.847	-0.132	-0.252
-685.310	-92.985	0.216	0.061
-684.295	12.909	0.121	0.094
-683.281	-25.759	-0.127	-0.076
-682.266	-168.982	-0.436	0.016
-681.251	-27.282	-0.100	-0.059
-680.237	-0.817	0.046	-0.033
-679.222	77.740	-0.250	-0.268
-678.208	-200.000	-0.003	-0.136
-677.193	-42.610	0.098	-0.050
-676.178	102.432	-0.070	0.082
-675.164	-20.201	-0.178	0.110
-674.149	-132.555	0.100	-0.013
-673.135	-200.000	-0.014	-0.090
-672.120	-101.160	-0.464	0.114
-671.105	-200.000	0.048	0.228
-670.091	625.896	0.061	0.155
-669.076	162.020	0.035	0.049
-668.062	-15.915	0.054	-0.034
-667.047	-114.353	0.186	0.036
-666.032	-112.808	-0.186	0.037
-665.018	4.548	0.072	-0.053
-664.003	-100.330	0.087	-0.022
-662.989	-200.000	0.011	-0.518
-661.974	-85.324	0.281	-0.088
-660.959	306.505	-0.234	0.437
-659.945	-200.000	-0.043	0.253
-658.930	-39.397	0.091	0.048
-657.916	152.901	-0.168	0.231
-656.901	-200.000	0.076	0.341
-655.886	52.607	-0.255	-0.244
-654.872	-100.218	0.057	-0.014
-653.857	-69.041	0.091	0.035
-652.843	745.615	-0.091	0.246
-651.828	-43.449	0.154	-0.078
-650.814	-200.000	-0.040	-0.253
-649.799	-200.000	-0.025	0.161
-648.784	83.283	-0.093	0.101
-647.770	-155.062	-0.056	0.004
-646.755	-97.603	-0.371	0.097
-645.741	-109.310	-0.024	0.005
-644.726	800.000	0.165	-0.471
-643.711	800.000	0.135	-0.440
-642.697	312.076	-0.085	0.160
-641.682	152.700	-0.046	0.064
-640.668	-130.732	0.213	-0.029
-639.653	-144.652	0.103	-0.010
-638.638	-134.213	0.218	-0.027
-637.624	102.477	-0.244	-0.286
-636.609	578.931	-0.033	-0.081
-635.595	710.670	0.145	-0.386
-634.580	-42.574	-0.205	0.105
-633.565	-200.000	-0.007	0.062
-632.551	-200.000	0.010	0.051
-631.536	800.000	-0.047	-0.147
-630.522	800.000	0.012	-0.035
-629.507	394.421	0.126	-0.263
-628.492	224.637	-0.081	-0.132
-627.478	-200.000	-0.022	0.161
-626.463	-200.000	-0.012	0.209
-625.449	123.961	0.067	-0.084
-624.434	-182.174	-0.092	-0.002
-623.419	30.376	0.008	-0.007
-622.405	20.661	-0.219	0.178
-621.390	-154.302	-0.025	-0.002
-620.376	144.482	0.282	0.378
-619.361	-200.000	-0.007	0.165
-618.346	-34.145	-0.236	0.130
-617.332	128.157	0.193	-0.246
-616.317	-70.490	-0.103	0.039
-615.303	236.995	0.126	-0.209
-614.288	5.874	0.240	-0.178
-613.273	103.758	-0.097	0.114
-612.259	507.065	0.103	0.239
-611.244	-42.322	-0.151	0.078
-610.230	-93.385	-0.157	0.044
-609.215	72.322	0.122	0.127
-608.201	-200.000	0.001	-0.074
-607.186	-122.169	-0.209	-0.034
-606.171	474.341	0.081	0.182
-605.157	124.099	0.082	0.103
-604.142	-200.000	-0.014	0.169
-603.128	8.727	-0.239	0.181
-602.113	39.201	-0.163	0.146
-601.098	83.348	-0.132	0.144
-600.084	-118.188	-0.380	0.068
-599.069	800.000	0.052	-0.209
-598.055	463.462	0.132	-0.296
-597.040	156.312	-0.252	-0.349
-596.025	-182.516	0.239	-0.004
-595.011	519.991	-0.075	-0.177
-593.996	800.000	0.067	0.186
-592.982	155.289	-0.200	-0.276
-591.967	-54.033	0.194	0.088
-590.952	-110.727	0.173	-0.036
-589.938	157.301	0.038	0.053
-588.923	-117.096	-0.156	-0.029
-587.909	-72.553	-0.214	-0.079
-586.894	42.660	0.319	-0.291
-585.879	400.906	-0.149	0.314
-584.865	-200.000	-0.011	-0.093
-583.850	-200.000	-0.007	-0.099
-582.836	-169.511	0.330	-0.012
-581.821	243.824	-0.107	0.180
-580.806	-200.000	0.019	0.162
-579.792	-36.519	0.160	-0.086
-578.777	-63.246	0.154	-0.064
-577.763	86.455	-0.138	-0.152
-576.748	559.247	0.022	-0.054
-575.733	-79.478	0.224	0.076
-574.719	-200.000	0.001	-0.150
-573.704	40.485	0.112	0.101
-572.690	-48.817	-0.230	-0.111
-571.675	29.359	-0.223	-0.189
-570.661	76.018	0.152	0.161
-569.646	-200.000	-0.047	-0.292
-568.631	58.010	0.166	-0.163
-567.617	-63.515	0.027	-0.011
-566.602	-200.000	-0.014	0.319
-565.588	55.634	-0.126	0.122
-564.573	323.005	0.093	0.178
-563.558	11.092	-0.197	0.151
-562.544	-200.000	0.001	0.187
-561.529	151.835	-0.255	-0.349
-560.515	-200.000	-0.007	-0.211
-559.500	51.553	-0.262	-0.250
-558.485	-9.534	0.060	0.040
-557.471	82.062	-0.043	-0.046
-556.456	78.440	-0.196	0.210
-555.442	800.000	0.073	0.274
-554.427	-77.601	-0.141	-0.049
-553.412	800.000	-0.050	-0.175
-552.398	800.000	0.061	-0.251
-551.383	-200.000	-0.045	-0.248
-550.369	53.281	0.079	0.076
-549.354	81.634	-0.070	-0.076
-548.339	-54.619	-0.064	-0.029
-547.325	-139.820	0.095	-0.010
-546.310	-90.992	0.068	-0.019
-545.296	800.000	-0.146	0.561
-544.281	-200.000	-0.007	0.085
-543.266	27.404	0.106	-0.089
-542.252	-128.289	-0.141	0.020
-541.237	435.780	0.082	0.178
-540.223	-200.000	-0.004	-0.089
-539.208	-28.934	0.175	-0.100
-538.193	340.881	0.161	-0.315
-537.179	10.959	-0.330	-0.253
-536.164	-132.207	0.425	-0.055
-535.150	-37.644	0.180	0.096
-534.135	264.052	0.093	0.161
-533.121	-74.406	0.214	-0.077
-532.106	-200.000	-0.037	-0.315
-531.091	177.397	0.107	-0.156
-530.077	-5.735	-0.351	0.241
-529.062	322.192	0.094	-0.179
-528.048	-76.562	-0.157	-0.055
-527.033	-190.989	0.260	0.003
-526.018	-89.844	-0.205	-0.060
-525.004	440.717	-0.054	-0.119
-523.989	168.663	-0.231	-0.330
-522.975	95.927	0.139	-0.159
-521.960	-94.424	0.110	0.030
-520.945	800.000	-0.034	0.138
-519.931	-200.000	0.004	0.362
-518.916	-169.228	0.075	-0.003
-517.902	-135.747	-0.271	-0.032
-516.887	9.729	0.365	0.277
-515.872	-154.943	0.164	0.011
-514.858	-200.000	-0.018	0.111
-513.843	-85.597	0.420	-0.131
-512.829	-143.918	0.251	0.024
-511.814	-26.144	0.268	0.157
-510.799	-168.472	-0.138	-0.005
-509.785	-63.133	-0.246	0.101
-508.770	0.733	0.172	-0.123
-507.756	-8.500	0.076	0.051
-506.741	-120.224	0.193	0.033
-505.726	367.899	-0.074	0.149
-504.712	398.885	0.169	0.354
-503.697	-90.966	-0.232	-0.067
-502.683	158.742	-0.036	0.051
-501.668	-98.821	-0.116	-0.029
-500.653	39.826	0.084	-0.075
-499.639	318.518	0.144	-0.273
-498.624	205.888	-0.067	-0.104
-497.610	3.210	-0.234	-0.170
-496.595	160.630	0.211	-0.295
-495.581	-163.266	-0.302	-0.014
-494.566	-185.935	0.394	0.006
-493.551	237.528	-0.224	-0.370
-492.537	-200.000	-0.011	-0.206
-491.522	202.937	0.090	0.138
-490.508	21.308	-0.150	0.121
-489.493	81.640	0.193	0.209
-488.478	800.000	-0.097	-0.292
-487.464	148.976	-0.090	-0.121
-486.449	1.840	0.069	-0.049
-485.435	82.805	0.114	-0.124
-484.420	-200.000	0.010	-0.298
-483.405	333.168	0.079	-0.153
-482.391	-200.000	0.004	0.158
-481.376	-200.000	0.017	-0.131
-480.362	58.962	0.185	-0.182
-479.347	320.012	-0.004	-0.007
-478.332	800.000	0.066	0.233
-477.318	172.968	-0.119	0.171
-476.303	46.866	0.235	0.218
-475.289	24.326	0.353	-0.291
-474.274	5.505	0.055	-0.040
-473.259	-79.783	-0.106	-0.036
-472.245	-200.000	-0.042	-0.246
-471.230	-200.000	-0.035	-0.314
-470.216	-99.886	0.164	-0.041
-469.201	107.851	0.039	-0.047
-468.186	1.564	0.280	0.201
-467.172	64.715	0.288	0.290
-466.157	59.588	-0.160	0.158
-465.143	-200.000	-0.004	-0.109
-464.128	268.371	-0.203	-0.355
-463.113	16.431	0.238	0.187
-462.099	-76.016	0.459	-0.162
-461.084	-120.060	-0.407	-0.070
-460.070	502.577	0.122	0.282
-459.055	138.221	-0.106	0.138
-458.040	-150.299	0.188	-0.015
-457.026	236.582	-0.173	0.285
-456.011	103.757	-0.101	-0.118
-454.997	82.682	-0.054	0.059
-453.982	-183.240	-0.429	-0.008
-452.968	6.007	0.349	0.258
-451.953	629.637	-0.084	0.213
-450.938	800.000	0.031	-0.099
-449.924	221.741	-0.254	0.407
-448.909	-200.000	-0.072	0.343
-447.895	41.419	-0.188	-0.170
-446.880	-200.000	-0.045	0.226
-445.865	77.576	0.066	0.070
-444.851	500.184	0.129	0.297
-443.836	-61.264	-0.071	-0.030
-442.822	-31.561	0.062	0.035
-441.807	-90.849	-0.308	-0.089
-440.792	473.641	0.193	-0.433
-439.778	800.000	0.114	-0.325
-438.763	-200.000	-0.006	-0.082
-437.749	-39.146	-0.482	0.252
-436.734	647.236	-0.020	0.051
-435.719	417.006	-0.099	-0.210
-434.705	-200.000	0.092	-0.461
-433.690	-50.721	0.141	-0.066
-432.676	530.852	-0.150	0.353
-431.661	-200.000	-0.022	0.217
-430.646	-104.814	0.276	0.063
-429.632	464.458	-0.169	0.377
-428.617	-38.786	-0.109	-0.057
-427.603	-146.950	-0.137	0.012
-426.588	-27.995	-0.055	0.032
-425.573	54.445	-0.130	0.124
-424.559	-141.942	-0.335	-0.033
-423.544	405.550	-0.085	0.178
-422.530	249.703	0.144	0.243
-421.515	-15.564	-0.215	0.137
-420.500	-91.202	-0.201	-0.057
-419.486	-126.490	-0.060	-0.009
-418.471	25.231	0.203	0.168
-417.457	-135.475	0.406	-0.048
-416.442	6.356	-0.440	-0.326
-415.428	357.009	0.070	0.139
-414.413	313.971	-0.060	-0.112
-413.398	129.121	0.228	0.290
-412.384	-200.000	-0.030	-0.150
-411.369	-200.000	-0.012	-0.095
-410.355	314.737	-0.069	0.129
-409.340	-48.075	0.371	-0.179
-408.325	-124.367	-0.163	-0.025
-407.311	86.729	0.094	-0.103
-406.296	-66.835	-0.227	-0.090
-405.282	436.003	0.160	-0.348
-404.267	-32.935	-0.095	0.052
-403.252	-200.000	-0.046	-0.255
-402.238	54.561	0.249	0.239
-401.223	-9.794	0.039	0.026
-400.209	-76.539	0.055	0.019
-399.194	-200.000	-0.137	0.000
-398.179	-200.000	-0.010	-0.134
-397.165	-59.061	-0.158	0.068
-396.150	-31.383	0.406	0.228
-395.136	-67.546	-0.030	0.012
-394.121	-105.660	-0.180	0.040
-393.106	-29.729	-0.136	0.077
-392.092	23.361	0.159	0.130
-391.077	-79.096	-0.063	-0.021
-390.063	-16.776	0.233	0.147
-389.048	243.820	0.067	0.112
-388.033	-162.215	-0.192	-0.010
-387.019	-18.009	-0.244	0.152
-386.004	396.817	0.187	0.389
-384.990	-154.629	0.417	0.028
-383.975	-50.219	0.197	0.093
-382.960	-138.536	0.112	-0.012
-381.946	54.313	-0.066	-0.063
-380.931	73.330	-0.262	0.272
-379.917	-8.191	-0.096	0.064
-378.902	-18.063	0.099	0.061
-377.888	-96.052	-0.057	-0.015
-376.873	38.944	0.313	-0.278
-375.858	4.880	0.225	-0.164
-374.844	-200.000	0.011	0.087
-373.829	-200.000	-0.016	-0.248
-372.815	-124.711	-0.131	0.020
-371.800	53.326	0.182	0.173
-370.785	-99.252	-0.087	-0.022
-369.771	521.083	-0.109	0.254
-368.756	-45.141	0.215	0.106
-367.742	800.000	0.080	0.296
-366.727	-39.118	0.467	-0.244
-365.712	-91.033	0.057	-0.016
-364.698	-200.000	-0.012	0.073
-363.683	44.778	0.161	0.147
-362.669	71.857	0.118	-0.122
-361.654	-55.339	-0.233	0.104
-360.639	-200.000	0.001	0.014
-359.625	461.511	-0.102	-0.227
-358.610	10.891	0.098	-0.074
-357.596	-165.076	-0.043	0.002
-356.581	-44.272	-0.189	0.094
-355.566	-200.000	-0.005	0.164
-354.552	-83.045	0.104	-0.033
-353.537	-187.421	-0.153	0.002
-352.523	-200.000	0.034	-0.188
-351.508	59.245	0.072	0.070
-350.493	-122.599	0.369	0.060
-349.479	-45.521	0.214	-0.105
-348.464	303.222	-0.193	0.355
-347.450	-200.000	-0.015	0.104
-346.435	186.723	0.045	-0.067
-345.420	-200.000	-0.022	-0.318
-344.406	-70.940	-0.187	-0.070
-343.391	800.000	-0.050	0.158
-342.377	800.000	-0.089	-0.248
-341.362	-174.132	-0.311	0.009
-340.348	-153.451	0.122	-0.008
-339.333	-112.091	0.282	-0.056
-338.318	-105.164	-0.312	-0.071
-337.304	35.226	0.166	0.144
-336.289	-145.273	0.337	-0.030
-335.275	259.296	0.229	-0.393
-334.260	46.180	-0.233	0.215
-333.245	-25.409	-0.161	0.095
-332.231	15.592	0.056	0.044
-331.216	101.494	-0.090	0.104
-330.202	729.308	-0.100	-0.265
-329.187	397.269	-0.080	-0.166
-328.172	-85.018	-0.119	0.037
-327.158	288.748	-0.060	-0.108
-326.143	174.320	-0.075	0.108
-325.129	72.827	-0.081	0.084
-324.114	83.436	0.178	-0.192
-323.099	71.310	0.204	-0.211
-322.085	-200.000	0.003	-0.014
-321.070	83.855	-0.338	-0.366
-320.056	800.000	-0.058	0.234
-319.041	-47.704	0.086	0.042
-318.026	244.798	0.081	-0.136
-317.012	800.000	-0.057	-0.224
-315.997	-87.447	0.220	0.066
-314.983	58.184	0.128	-0.125
-313.968	13.888	-0.157	0.121
-312.953	-92.220	-0.140	-0.039
-311.939	-44.594	-0.279	-0.139
-310.924	263.813	-0.184	0.318
-309.910	523.171	-0.043	0.099
-308.895	12.212	0.034	-0.026
-307.880	113.221	0.142	-0.171
-306.866	203.507	0.090	-0.139
-305.851	-81.269	0.331	0.108
-304.837	-129.465	-0.130	-0.018
-303.822	-116.143	-0.194	-0.036
-302.807	-200.000	0.041	0.343
-301.793	226.734	-0.237	-0.382
-300.778	800.000	0.050	-0.172
-299.764	15.098	0.074	0.057
-298.749	359.160	-0.102	0.202
-297.735	800.000	0.040	0.113
-296.720	-49.099	0.187	0.089
-295.705	-200.000	0.014	-0.070
-294.691	323.501	-0.071	0.134
-293.676	-200.000	-0.035	0.276
-292.662	-38.041	0.198	0.104
-291.647	80.526	-0.035	0.038
-290.632	161.423	-0.015	-0.021
-289.618	89.759	0.350	-0.388
-288.603	-116.271	-0.088	-0.016
-287.589	620.646	-0.062	0.155
-286.574	-64.949	-0.372	-0.149
-285.559	-91.644	0.035	-0.010
-284.545	-200.000	-0.035	0.213
-283.530	230.744	-0.215	-0.348
-282.516	800.000	-0.051	-0.148
-281.501	7.044	0.313	0.231
-280.486	800.000	0.066	0.181
-279.472	-27.971	-0.253	0.145
-278.457	-59.958	0.255	0.108
-277.443	-21.299	0.302	-0.183
-276.428	-34.112	-0.056	0.030
-275.413	117.047	-0.236	-0.288
-274.399	-93.882	-0.121	-0.033
-273.384	-127.807	-0.137	-0.020
-272.370	758.553	-0.018	0.048
-271.355	-200.000	-0.007	0.094
-270.340	-200.000	0.025	0.109
-269.326	-95.452	0.198	-0.053
-268.311	-91.860	-0.312	0.088
-267.297	119.853	-0.164	0.202
-266.282	85.342	0.210	0.229
-265.267	-200.000	-0.003	0.048
-264.253	172.349	-0.127	-0.181
-263.238	-156.546	0.208	0.013
-262.224	-200.000	-0.023	-0.184
-261.209	-200.000	0.002	-0.211
-260.195	800.000	0.038	-0.105
-259.180	-57.758	0.198	-0.086
-258.165	-135.385	-0.054	-0.006
-257.151	233.580	0.093	-0.152
-256.136	-46.770	-0.155	-0.075
-255.122	28.270	-0.218	0.182
-254.107	-143.811	0.072	-0.007
-253.092	-88.079	-0.242	0.072
-252.078	89.806	0.109	-0.120
-251.063	-84.990	-0.166	-0.051
-250.049	170.720	-0.182	0.258
-249.034	42.145	0.037	-0.033
-248.019	89.716	0.157	0.173
-247.005	-200.000	0.032	0.202
-245.990	800.000	-0.071	-0.293
-244.976	-133.741	-0.452	-0.056
-243.961	-147.823	0.270	-0.022
-242.946	71.237	-0.088	-0.090
-241.932	543.084	0.065	-0.155
-240.917	-66.460	0.205	0.080
-239.903	33.786	0.048	0.042
-238.888	-200.000	-0.052	0.301
-237.873	204.356	-0.084	-0.129
-236.859	68.660	-0.016	-0.016
-235.844	166.615	0.189	0.265
-234.830	-200.000	0.089	0.410
-233.815	-127.076	-0.202	-0.029
-232.800	45.444	0.160	0.146
-231.786	800.000	0.061	0.187
-230.771	-200.000	-0.006	-0.161
-229.757	-200.000	0.061	0.284
-228.742	-84.212	-0.285	0.089
-227.727	125.776	0.314	0.392
-226.713	-165.089	0.042	0.002
-225.698	-200.000	-0.025	-0.237
-224.684	-200.000	0.030	-0.140
-223.669	132.518	-0.142	-0.181
-222.655	-132.322	-0.211	-0.027
-221.640	-79.874	-0.491	-0.163
-220.625	-23.613	0.128	-0.076
-219.611	261.017	0.172	0.294
-218.596	78.176	0.105	-0.111
-217.582	-43.349	0.275	-0.138
-216.567	570.903	-0.056	-0.135
-215.552	-84.841	0.353	-0.110
-214.538	-33.671	0.191	0.104
-213.523	145.324	0.234	-0.310
-212.509	-200.000	-0.004	-0.174
-211.494	81.820	-0.218	0.233
-210.479	-137.587	-0.336	0.037
-209.465	56.063	-0.201	0.192
-208.450	-103.366	0.163	-0.038
-207.436	-7.011	0.110	-0.074
-206.421	42.606	-0.183	-0.165
-205.406	742.513	0.083	0.221
-204.392	-10.153	-0.127	-0.083
-203.377	-81.344	-0.052	-0.017
-202.363	-94.749	0.180	-0.048
-201.348	671.403	0.129	-0.331
-200.333	-158.427	-0.134	-0.008
-199.319	299.949	-0.282	0.513
-198.304	800.000	-0.058	-0.165
-197.290	-19.716	0.115	0.070
-196.275	136.110	0.257	-0.330
-195.260	-79.335	-0.263	-0.088
-194.246	-70.881	-0.320	0.119
-193.231	-147.630	-0.144	0.012
-192.217	127.014	0.114	0.143
-191.202	-93.391	-0.194	-0.053
-190.187	-59.022	0.186	-0.079
-189.173	-146.161	0.098	-0.009
-188.158	-200.000	-0.067	-0.318
-187.144	211.899	-0.218	0.340
-186.129	385.145	-0.010	-0.021
-185.114	44.433	0.157	-0.143
-184.100	79.700	-0.015	0.016
-183.085	63.918	-0.199	0.198
-182.071	-69.008	-0.108	0.041
-181.056	-132.193	-0.071	-0.009
-180.042	2.716	-0.146	0.104
-179.027	800.000	0.025	0.086
-178.012	197.090	-0.191	-0.288
-176.998	33.556	0.058	0.050
-175.983	450.021	0.099	-0.215
-174.969	-200.000	-0.019	-0.130
-173.954	-65.305	0.057	0.023
-172.939	-148.274	0.107	0.009
-171.925	-1.390	-0.181	0.126
-170.910	94.798	0.066	0.074
-169.896	-143.851	-0.219	0.020
-168.881	-200.000	-0.043	0.215
-167.866	27.866	-0.071	-0.059
-166.852	-80.248	-0.208	0.069
-165.837	172.961	0.145	0.207
-164.823	159.351	0.013	-0.018
-163.808	155.376	-0.210	0.285
-162.793	-36.463	0.468	-0.249
-161.779	382.767	-0.155	-0.314
-160.764	-75.032	0.117	-0.041
-159.750	-200.000	0.012	0.200
-158.735	-87.248	0.243	0.073
-157.720	800.000	-0.050	0.147
-156.706	669.035	0.060	0.153
-155.691	-46.925	0.109	-0.052
-154.677	-150.207	0.112	0.009
-153.662	85.361	0.186	0.201
-152.647	-55.271	-0.150	-0.067
-151.633	-200.000	0.028	0.215
-150.618	296.086	-0.155	0.280
-149.604	-55.345	0.138	-0.061
-148.589	-128.576	0.338	0.047
-147.574	628.187	0.064	0.160
-146.560	-46.061	0.217	-0.105
-145.545	149.385	0.093	-0.124
-144.531	-200.000	0.005	0.021
-143.516	800.000	-0.062	0.266
-142.502	-61.273	0.167	-0.069
-141.487	-200.000	-0.022	-0.240
-140.472	-200.000	-0.032	-0.149
-139.458	735.615	-0.156	-0.412
-138.443	54.553	-0.157	0.150
-137.429	284.208	0.026	-0.045
-136.414	281.127	0.100	-0.177
-135.399	95.863	-0.069	-0.078
-134.385	245.353	0.124	-0.206
-133.370	382.912	-0.082	-0.165
-132.356	-96.245	-0.176	-0.046
-131.341	-34.252	-0.233	0.126
-130.326	-200.000	-0.005	0.054
-129.312	-200.000	-0.022	0.470
-128.297	800.000	0.045	0.140
-127.283	800.000	0.045	-0.156
-126.268	-200.000	-0.015	-0.213
-125.253	203.063	-0.180	0.274
-124.239	800.000	0.101	0.367
-123.224	-7.873	0.230	0.153
-122.210	-200.000	-0.024	-0.208
-121.195	60.186	0.097	-0.095
-120.180	-79.257	-0.025	0.008
-119.166	84.834	-0.138	0.149
-118.151	33.051	-0.334	0.285
-117.137	-131.921	0.167	-0.021
-116.122	436.307	0.065	0.138
-115.107	471.462	0.036	-0.079
-114.093	-47.651	-0.014	-0.007
-113.078	-13.850	-0.287	0.183
-112.064	-200.000	0.057	-0.291
-111.049	-99.283	0.143	0.036
-110.034	-124.999	-0.181	0.027
-109.020	-72.743	0.204	0.074
-108.005	151.272	0.050	-0.067
-106.991	-135.979	-0.156	-0.018
-105.976	104.193	-0.138	-0.159
-104.962	-176.692	-0.034	-0.001
-103.947	61.007	-0.125	-0.122
-102.932	-101.149	0.340	0.082
-101.918	-72.419	0.313	-0.114
-100.903	-200.000	-0.001	-0.032
-99.889	78.224	0.136	-0.143
-98.874	-126.374	-0.122	0.018
-97.859	500.569	0.041	-0.092
-96.845	-3.333	0.433	0.297
-95.830	800.000	-0.052	0.143
-94.816	-71.260	-0.046	-0.017
-93.801	19.667	0.182	-0.144
-92.786	742.563	-0.073	-0.193
-91.772	800.000	0.056	0.213
-90.757	23.443	0.110	-0.089
-89.743	-53.396	0.273	0.123
-88.728	204.179	0.142	-0.216
-87.713	800.000	-0.047	-0.198
-86.699	-65.373	-0.158	-0.063
-85.684	-162.823	-0.138	0.007
-84.670	62.933	0.091	0.090
-83.655	-149.755	-0.259	0.020
-82.640	70.064	-0.205	-0.208
-81.626	-34.259	-0.113	0.061
-80.611	-200.000	-0.033	0.341
-79.597	12.834	0.078	-0.060
-78.582	800.000	-0.008	0.031
-77.567	173.590	0.106	-0.151
-76.553	160.888	-0.085	-0.117
-75.538	-200.000	0.008	-0.108
-74.524	-20.802	0.154	0.093
-73.509	-27.161	0.247	0.141
-72.494	-110.036	0.221	0.045
-71.480	-82.397	0.149	0.048
-70.465	499.834	-0.029	-0.066
-69.451	69.095	0.255	0.257
-68.436	247.187	0.139	0.231
-67.422	-200.000	0.050	-0.477
-66.407	356.497	-0.109	0.214
-65.392	-200.000	-0.002	-0.028
-64.378	-6.643	0.131	0.087
-63.363	15.580	-0.080	0.061
-62.349	-100.719	0.266	0.064
-61.334	190.268	-0.800	-1.181
-60.319	13.334	0.536	0.409
-59.305	439.056	-0.447	-0.958
-58.290	256.146	0.449	0.757
-57.276	645.629	0.655	1.642
-56.261	-200.000	103.379	577.079
-55.246	515.778	1462.363	3355.580
-54.232	180.518	2666.401	3843.741
-53.217	114.488	2169.567	2595.783
-52.203	42.047	1605.846	1431.564
-51.188	33.450	1338.040	1141.269
-50.173	30.267	1296.243	1086.960
-49.159	53.456	1348.569	1270.024
-48.144	54.595	1364.478	1291.757
-47.130	33.572	1320.128	1126.534
-46.115	29.972	1303.028	1090.739
-45.100	29.894	1297.787	1085.850
-44.086	29.757	1295.249	1082.882
-43.071	29.908	1292.841	1081.707
-42.057	29.824	1290.740	1079.419
-41.042	29.742	1289.396	1077.772
-40.027	29.880	1287.826	1077.219
-39.013	29.857	1286.016	1075.531
-37.998	29.933	1284.087	1074.315
-36.984	29.859	1282.801	1072.770
-35.969	29.875	1280.692	1071.057
-34.954	29.870	1279.024	1069.588
-33.940	29.978	1277.624	1068.999
-32.925	30.013	1276.427	1068.158
-31.911	29.937	1274.727	1066.255
-30.896	29.992	1273.144	1065.206
-29.881	30.030	1271.990	1064.414
-28.867	30.040	1270.472	1063.158
-27.852	30.142	1269.001	1062.471
-26.838	30.142	1267.539	1061.205
-25.823	30.069	1266.320	1059.726
-24.809	29.990	1265.112	1058.219
-23.794	30.015	1264.075	1057.454
-22.779	30.119	1262.511	1056.695
-21.765	30.018	1261.414	1055.162
-20.750	30.011	1259.633	1053.587
-19.736	29.904	1258.365	1051.881
-18.721	29.821	1257.801	1050.896
-17.706	29.884	1256.868	1050.433
-16.692	29.908	1255.235	1049.159
-15.677	29.917	1254.265	1048.360
-14.663	29.979	1252.753	1047.406
-13.648	29.799	1251.843	1045.582
-12.633	29.797	1251.082	1044.895
-11.619	29.888	1250.084	1044.536
-10.604	29.945	1249.297	1044.159
-9.590	29.880	1248.005	1042.672
-8.575	29.952	1246.921	1042.128
-7.560	29.899	1246.427	1041.374
-6.546	29.905	1245.826	1040.863
-5.531	29.726	1244.958	1039.094
-4.517	29.878	1243.424	1038.627
-3.502	29.851	1243.178	1038.227
-2.487	29.926	1241.885	1037.526
-1.473	29.897	1238.329	1034.354
-0.458	28.733	1223.714	1015.673
0.556	27.090	1206.824	978.478
1.571	23.494	1211.926	963.038
2.586	22.489	1226.094	968.684
3.600	21.505	1213.926	953.626
4.615	16.423	1142.098	870.995
5.629	8.422	1069.249	776.615
6.644	4.775	1049.925	745.080
7.659	4.478	1047.244	741.695
8.673	4.287	1045.986	739.827
9.688	4.251	1044.614	738.617
10.702	4.729	1043.445	740.000
11.717	10.040	1050.743	770.484
12.731	18.232	1061.169	817.352
13.746	21.712	1065.709	837.438
14.761	21.989	1065.077	838.192
15.775	21.189	1063.850	833.337
16.790	20.227	1061.886	827.136
17.804	19.517	1060.264	822.421
18.819	19.265	1059.726	820.731
19.834	19.162	1059.139	819.712
20.848	19.181	1058.101	818.928
21.863	18.855	1057.795	817.066
22.877	18.730	1056.642	815.509
23.892	18.752	1055.973	815.028
24.907	18.788	1054.673	814.121
25.921	18.715	1054.108	813.267
26.936	18.643	1052.796	811.842
27.950	18.644	1051.773	810.987
28.965	18.803	1049.922	810.239
29.980	19.047	1048.795	810.445
30.994	19.218	1047.267	809.998
32.009	19.026	1047.094	808.890
33.023	19.006	1045.514	807.503
34.038	18.928	1044.408	806.212
35.053	18.794	1043.709	804.975
36.067	18.885	1042.507	804.400
37.082	18.886	1042.068	803.995
38.096	19.122	1040.926	804.147
39.111	19.002	1040.674	803.322
40.126	18.866	1038.763	801.140
41.140	18.565	1037.643	798.802
42.155	18.408	1036.598	797.199
43.169	18.339	1035.625	796.061
44.184	18.401	1034.591	795.482
45.199	18.412	1033.663	794.748
46.213	18.669	1032.646	795.087
47.228	18.846	1031.879	795.247
48.242	18.892	1031.072	794.767
49.257	18.772	1030.486	793.690
50.271	18.904	1029.439	793.421
51.286	18.911	1028.992	793.039
52.301	18.961	1027.331	791.917
53.315	18.679	1026.647	790.025
54.330	18.651	1025.489	788.934
55.344	18.572	1024.402	787.666
56.359	18.587	1023.898	787.279
57.374	18.427	1023.390	786.083
58.388	18.316	1022.338	784.697
59.403	18.402	1021.193	784.143
60.417	18.324	1020.754	783.378
61.432	18.213	1019.884	782.135
62.447	18.323	1018.873	781.790
63.461	18.171	1018.163	780.485
64.476	18.183	1016.946	779.537
65.490	18.040	1016.610	778.558
66.505	18.137	1015.823	778.328
67.520	18.291	1015.229	778.507
68.534	18.279	1014.369	777.724
69.549	18.110	1013.909	776.532
70.563	18.154	1012.673	775.720
71.578	17.895	1011.986	773.948
72.593	17.945	1011.025	773.371
73.607	18.009	1010.353	773.080
74.622	17.957	1009.897	772.425
75.636	17.928	1009.877	772.213
76.651	18.027	1008.801	771.769
77.666	18.005	1008.421	771.311
78.680	18.102	1007.773	771.184
79.695	18.228	1006.802	770.941
80.709	18.250	1006.133	770.457
81.724	18.432	1005.800	770.953
82.739	18.503	1004.905	770.517
83.753	18.849	1004.382	771.602
84.768	19.048	1003.953	772.100
85.782	19.258	1003.028	772.263
86.797	19.227	1002.245	771.451
87.812	18.936	1000.701	768.893
88.826	18.849	1000.119	767.988
89.841	18.991	999.107	767.779
90.855	19.123	998.007	767.455
91.870	19.024	997.970	766.915
92.884	19.068	996.970	766.273
93.899	19.038	995.940	765.282
94.914	19.174	995.290	765.318
95.928	19.191	993.936	764.284
96.943	18.988	993.211	762.763
97.957	18.918	992.976	762.204
98.972	18.900	991.860	761.197
99.987	18.988	990.664	760.601
101.001	18.924	989.900	759.664
102.016	18.946	989.129	759.107
103.030	18.924	988.775	758.668
104.045	19.031	987.820	758.340
105.060	18.817	986.471	756.295
106.074	18.657	985.461	754.752
107.089	18.291	984.945	752.681
108.103	18.314	983.522	751.629
109.118	18.364	982.104	750.697
110.133	18.224	981.249	749.364
111.147	18.211	980.704	748.823
112.162	18.341	979.713	748.568
113.176	18.409	979.369	748.537
114.191	18.460	978.694	748.179
115.206	18.515	977.682	747.579
116.220	18.451	976.751	746.520
117.235	18.240	975.757	744.778
118.249	18.220	975.349	744.311
119.264	18.184	974.446	743.400
120.279	18.150	973.675	742.597
121.293	18.105	972.685	741.584
122.308	17.924	972.045	740.247
123.322	17.997	970.781	739.532
124.337	18.058	969.645	738.865
125.352	18.215	968.608	738.689
126.366	18.044	968.037	737.452
127.381	18.064	967.110	736.762
128.395	18.071	966.204	736.038
129.410	18.144	965.126	735.466
130.424	18.311	964.202	735.414
131.439	18.382	963.843	735.381
132.454	18.375	963.630	735.123
133.468	18.421	962.635	734.496
134.483	18.518	961.361	733.876
135.497	18.532	960.578	733.272
136.512	18.469	960.418	732.814
137.527	18.445	959.573	732.003
138.541	18.556	958.161	731.335
139.556	18.430	958.253	730.805
140.570	18.618	957.781	731.181
141.585	18.852	956.645	731.243
142.600	19.033	955.545	731.109
143.614	19.089	955.183	731.005
144.629	19.124	954.679	730.702
145.643	19.013	953.338	729.140
146.658	18.778	952.108	727.141
147.673	18.632	951.207	725.770
148.687	18.510	950.042	724.301
149.702	18.485	949.241	723.521
150.716	18.594	948.387	723.264
151.731	18.566	947.670	722.539
152.746	18.498	947.180	721.812
153.760	18.661	946.553	721.959
154.775	18.772	946.121	722.031
155.789	18.884	945.231	721.758
156.804	18.807	944.859	721.086
157.819	18.872	943.971	720.617
158.833	18.978	943.554	720.683
159.848	19.150	942.797	720.759
160.862	18.893	941.785	718.845
161.877	18.603	940.624	716.687
162.892	18.461	939.276	715.002
163.906	18.514	938.111	714.275
164.921	18.516	937.701	713.905
165.935	18.685	936.947	713.971
166.950	18.658	936.210	713.234
167.964	18.813	935.053	712.932
168.979	18.492	934.299	710.964
169.994	18.602	933.419	710.686
171.008	18.723	932.735	710.606
172.023	18.986	932.363	711.345
173.037	19.141	931.442	711.222
174.052	18.858	930.693	709.419
175.067	18.643	929.617	707.648
176.081	18.480	929.512	706.836
177.096	18.577	928.508	706.409
178.110	18.615	928.341	706.375
179.125	18.783	927.112	706.067
180.140	18.617	927.617	705.707
181.154	18.853	927.006	706.150
182.169	18.914	926.677	706.085
183.183	19.005	926.414	706.200
184.198	18.992	925.082	705.066
185.213	19.153	924.236	705.018
186.227	19.072	924.093	704.518
187.242	19.097	923.473	704.083
188.256	19.307	922.826	704.385
189.271	19.405	921.933	704.042
190.286	18.896	920.894	701.111
191.300	18.463	919.837	698.481
192.315	18.437	919.344	697.935
193.329	18.482	918.965	697.770
194.344	18.730	918.230	698.162
195.359	18.840	918.076	698.429
196.373	18.997	917.247	698.374
197.388	19.071	917.143	698.533
198.402	19.390	916.356	699.165
199.417	19.339	916.172	698.756
200.432	19.484	915.863	699.047
201.446	19.549	915.372	698.872
202.461	19.507	915.104	698.435
203.475	19.612	914.064	698.006
204.490	19.264	913.171	695.855
205.504	19.210	912.016	694.696
206.519	19.182	911.241	693.931
207.534	19.179	910.745	693.480
208.548	19.217	910.201	693.157
209.563	19.045	909.835	692.124
210.577	19.201	909.061	692.102
211.592	19.381	908.442	692.294
212.607	19.573	907.547	692.318
213.621	19.416	906.976	691.195
214.636	19.314	906.288	690.198
215.650	19.340	905.406	689.573
216.665	19.452	905.409	689.958
217.680	19.658	904.670	690.158
218.694	19.605	903.610	689.079
219.709	19.533	903.203	688.419
220.723	19.510	902.410	687.662
221.738	19.549	901.478	687.048
222.753	19.592	901.083	686.856
223.767	19.614	900.564	686.485
224.782	19.537	900.523	686.090
225.796	19.714	900.105	686.411
226.811	19.563	899.046	684.944
227.826	19.382	898.145	683.480
228.840	19.533	897.106	683.227
229.855	19.290	896.952	682.087
230.869	19.320	896.012	681.431
231.884	19.199	895.090	680.191
232.899	19.213	894.519	679.752
233.913	19.324	893.233	679.155
234.928	19.137	893.095	678.254
235.942	19.041	892.623	677.454
236.957	19.220	891.985	677.616
237.972	19.345	891.024	677.318
238.986	19.219	890.675	676.495
240.001	19.211	889.883	675.802
241.015	19.415	889.178	676.008
242.030	19.449	889.162	676.070
243.045	19.441	888.496	675.471
244.059	19.469	887.890	675.062
245.074	19.335	887.619	674.271
246.088	19.459	886.676	673.980
247.103	19.789	886.132	674.795
248.117	19.813	886.451	675.071
249.132	20.184	885.719	675.902
250.147	20.384	885.007	676.075
251.161	20.361	884.493	675.534
252.176	20.343	884.002	675.029
253.190	20.449	883.383	674.911
254.205	20.480	882.808	674.532
255.220	20.508	882.023	673.979
256.234	20.309	881.544	672.783
257.249	20.350	880.814	672.324
258.263	20.254	880.066	671.321
259.278	20.460	879.275	671.457
260.293	20.522	879.022	671.444
261.307	20.536	878.786	671.258
262.322	20.459	877.902	670.226
263.336	20.369	877.399	669.435
264.351	20.613	876.330	669.498
265.366	20.695	875.997	669.501
266.380	20.631	875.117	668.524
267.395	20.309	874.372	666.657
268.409	20.230	873.867	665.911
269.424	20.486	872.626	665.889
270.439	20.366	872.150	665.005
271.453	20.159	871.608	663.742
272.468	20.167	871.353	663.519
273.482	20.210	870.755	663.170
274.497	20.110	870.011	662.162
275.512	20.192	869.732	662.206
276.526	20.246	869.337	662.054
277.541	20.269	868.842	661.702
278.555	20.597	868.099	662.327
279.570	20.791	867.424	662.494
280.585	20.611	866.748	661.236
281.599	20.585	865.607	660.207
282.614	20.347	864.961	658.754
283.628	20.327	864.628	658.363
284.643	20.410	863.914	658.077
285.657	20.405	863.562	657.734
286.672	20.426	862.815	657.185
287.687	20.450	862.174	656.728
288.701	20.358	861.801	656.040
289.716	20.463	860.963	655.740
290.730	20.437	860.464	655.204
291.745	20.675	859.523	655.324
292.760	20.672	859.266	655.061
293.774	20.728	859.325	655.258
294.789	20.711	858.034	654.153
295.803	20.465	857.337	652.639
296.818	20.325	856.938	651.751
297.833	20.449	856.085	651.510
298.847	20.655	855.238	651.577
299.862	20.708	854.835	651.414
300.876	20.648	854.768	651.081
301.891	21.007	853.886	651.691
302.906	20.820	853.759	650.840
303.920	21.150	853.137	651.540
304.935	21.206	852.525	651.224
305.949	21.022	851.952	650.044
306.964	20.933	851.008	648.932
307.979	20.877	850.703	648.436
308.993	20.964	850.397	648.468
310.008	21.031	849.588	648.041
311.022	20.809	848.932	646.659
312.037	20.711	848.370	645.812
313.052	20.540	847.946	644.798
314.066	20.520	847.287	644.164
315.081	20.477	846.592	643.419
316.095	20.543	846.137	643.263
317.110	20.577	845.277	642.676
318.125	20.507	844.907	642.078
319.139	20.564	844.315	641.782
320.154	20.425	844.029	640.996
321.168	20.571	843.535	641.101
322.183	20.627	842.909	640.778
323.197	20.723	842.686	640.904
324.212	20.594	842.067	639.902
325.227	20.771	841.232	639.862
326.241	20.772	840.510	639.261
327.256	20.600	840.102	638.261
328.270	20.521	839.593	637.527
329.285	20.661	839.041	637.565
330.300	20.560	838.470	636.704
331.314	20.747	837.665	636.723
332.329	20.929	837.370	637.106
333.343	20.936	837.262	636.994
334.358	20.836	837.233	636.549
335.373	21.012	836.376	636.484
336.387	20.992	836.054	636.111
337.402	21.099	836.221	636.570
338.416	21.290	835.638	636.765
339.431	21.400	835.349	636.890
340.446	21.459	835.266	636.987
341.460	21.499	834.729	636.666
342.475	21.519	834.093	636.198
343.489	21.515	833.851	635.943
344.504	21.568	833.635	635.914
345.519	21.582	833.140	635.532
346.533	21.706	832.010	635.062
347.548	21.306	831.792	633.390
348.562	21.124	831.008	632.077
349.577	21.007	830.357	631.103
350.592	20.963	829.873	630.520
351.606	20.975	828.720	629.632
352.621	21.068	828.155	629.481
353.635	21.010	827.492	628.715
354.650	21.119	827.200	628.829
355.665	21.149	826.756	628.543
356.679	21.323	826.343	628.802
357.694	21.307	825.535	628.073
358.708	21.290	824.850	627.434
359.723	21.273	823.995	626.668
360.738	21.274	823.762	626.440
361.752	21.342	823.242	626.230
362.767	21.560	822.632	626.491
363.781	21.665	822.595	626.786
364.796	21.676	822.426	626.639
365.810	22.136	821.616	627.612
366.825	21.994	821.501	626.959
367.840	21.883	820.789	625.964
368.854	21.778	820.095	625.007
369.869	21.647	819.705	624.188
370.883	21.694	819.214	623.924
371.898	21.808	819.069	624.165
372.913	21.849	818.753	624.014
373.927	21.900	817.825	623.434
374.942	21.857	817.393	622.895
375.956	21.921	817.262	622.969
376.971	21.969	817.206	623.041
377.986	22.211	816.322	623.170
379.000	22.089	816.138	622.541
380.015	22.094	815.081	621.698
381.029	22.003	814.776	621.088
382.044	22.119	813.809	620.705
383.059	22.071	813.508	620.253
384.073	21.971	812.850	619.344
385.088	21.821	811.956	618.078
386.102	21.751	811.336	617.306
387.117	21.737	810.787	616.784
388.132	21.748	810.127	616.266
389.146	21.716	809.707	615.779
390.161	21.918	809.745	616.462
391.175	22.002	809.150	616.251
392.190	21.933	808.343	615.340
393.205	21.818	807.604	614.320
394.219	21.816	807.675	614.312
395.234	21.766	806.939	613.525
396.248	21.574	806.595	612.535
397.263	21.449	805.871	611.494
398.278	21.584	805.882	611.921
399.292	21.459	805.554	611.181
400.307	21.467	804.843	610.616
401.321	21.547	804.448	610.542
402.336	21.708	803.995	610.705
403.350	21.754	803.943	610.771
404.365	21.952	802.956	610.656
405.380	22.177	802.742	611.221
406.394	22.230	802.439	611.120
407.409	22.312	802.038	611.047
408.423	22.387	801.889	611.138
409.438	22.295	801.600	610.546
410.453	22.456	801.098	610.668
411.467	22.455	800.762	610.355
412.482	22.549	800.196	610.195
413.496	22.633	799.902	610.207
414.511	22.522	799.403	609.387
415.526	22.353	798.933	608.393
416.540	22.389	798.400	608.054
417.555	22.533	797.816	608.053
418.569	22.490	797.268	607.435
419.584	22.744	796.911	607.986
420.599	22.625	796.466	607.181
421.613	164.288	1369.050	1796.765
422.628	142.655	1452.474	1796.846
