DTS Sentinel unit serial number:	SN413079Multiplexer serial number:	ORYXHardware model number:	OX4-SRSoftware version number:	ORYX F/W v4.00 Oryx Data Collector v3.7.2.0data status	okinstallation	princeton_trtdifferential loss correction	single-endedforward channel	channel 1reverse channel	N/Adate	2019/09/18time	07:50:35forward acquisition time	60.00reverse acquisition time	0.00gamma	496.2192k internal	0.2339k external	0.2339temperature offset calibration	0.9976default loss term (dB/km)	0.3790temperature slope calibration	1.0000multiplexer offset coefficient	1.0000multiplexer slope coefficient	1.0000fibre end	0.00T internal ref (°C)	23.41T ext. ref 1 (°C)	0.21T ext. ref 2 (°C)	19.12length (m)	temperature (°C)	Stokes	anti-Stokes-747.200	231.352	0.148	-0.243
-746.185	-150.931	-0.293	-0.022
-745.171	-4.801	0.097	0.067
-744.156	-200.000	0.046	0.241
-743.142	-200.000	0.003	-0.036
-742.127	101.047	-0.088	0.103
-741.112	-50.006	0.171	0.081
-740.098	-0.064	0.298	0.213
-739.083	-160.486	-0.267	-0.014
-738.069	183.562	-0.033	0.049
-737.054	740.667	-0.011	0.030
-736.039	175.511	-0.295	0.429
-735.025	-135.399	0.317	-0.038
-734.010	-181.431	-0.300	-0.006
-732.996	93.762	0.181	-0.206
-731.981	381.683	-0.015	0.031
-730.966	-4.565	0.153	0.106
-729.952	-156.733	-0.181	0.011
-728.937	-200.000	-0.011	-0.231
-727.923	778.955	0.063	-0.173
-726.908	-14.259	-0.226	-0.146
-725.894	70.970	0.243	0.252
-724.879	-47.424	0.139	0.068
-723.864	-168.334	-0.230	-0.009
-722.850	-4.519	-0.271	0.188
-721.835	-200.000	-0.002	-0.215
-720.821	-200.000	-0.009	0.249
-719.806	-28.460	0.048	-0.028
-718.791	-200.000	-0.069	-0.325
-717.777	618.691	0.065	-0.164
-716.762	42.079	-0.072	-0.065
-715.748	265.153	-0.010	0.017
-714.733	-133.341	-0.235	0.030
-713.718	-54.052	0.189	-0.086
-712.704	-15.785	0.247	-0.158
-711.689	-97.889	0.382	-0.099
-710.675	-200.000	-0.012	0.353
-709.660	-140.784	-0.154	0.016
-708.645	74.190	0.178	0.187
-707.631	39.430	0.123	-0.110
-706.616	155.675	0.056	0.078
-705.602	800.000	0.022	0.091
-704.587	12.439	0.267	0.206
-703.572	-11.801	-0.111	-0.073
-702.558	-200.000	-0.045	-0.205
-701.543	57.073	0.134	0.130
-700.529	-43.948	-0.106	0.053
-699.514	-0.770	0.238	-0.169
-698.499	336.293	-0.114	-0.222
-697.485	-200.000	-0.016	-0.147
-696.470	62.988	-0.089	0.090
-695.456	800.000	0.055	-0.208
-694.441	800.000	0.032	-0.130
-693.426	-102.648	0.356	0.085
-692.412	31.754	-0.067	-0.058
-691.397	800.000	-0.142	-0.433
-690.383	-97.788	0.135	0.035
-689.368	-54.991	-0.354	-0.160
-688.354	13.194	0.084	0.065
-687.339	-155.436	-0.419	-0.027
-686.324	316.611	0.103	-0.194
-685.310	800.000	0.103	-0.318
-684.295	-76.435	-0.121	-0.043
-683.281	497.944	0.052	-0.120
-682.266	-78.928	0.087	0.029
-681.251	128.084	0.177	-0.225
-680.237	75.856	0.092	-0.098
-679.222	361.968	-0.067	0.134
-678.208	-200.000	-0.083	-0.429
-677.193	-121.304	0.249	0.042
-676.178	109.857	-0.131	0.157
-675.164	388.098	0.124	0.257
-674.149	-111.019	-0.302	0.062
-673.135	222.325	-0.137	0.221
-672.120	-143.513	-0.138	0.013
-671.105	-167.734	0.123	-0.005
-670.091	105.308	0.104	0.123
-669.076	-200.000	-0.020	-0.284
-668.062	112.303	-0.046	0.056
-667.047	80.883	-0.135	-0.146
-666.032	101.022	0.105	0.123
-665.018	800.000	0.039	-0.144
-664.003	229.278	0.183	0.299
-662.989	-85.177	0.162	0.051
-661.974	787.336	-0.077	-0.211
-660.959	-74.505	0.328	0.118
-659.945	-175.590	-0.244	-0.007
-658.930	-34.954	0.195	0.106
-657.916	258.374	0.081	-0.139
-656.901	-71.907	0.125	0.046
-655.886	65.066	-0.158	-0.160
-654.872	-65.180	0.185	-0.075
-653.857	-12.861	0.115	-0.075
-652.843	-43.660	-0.158	-0.079
-651.828	-75.308	0.126	0.045
-650.814	120.035	-0.335	-0.415
-649.799	160.466	0.050	0.070
-648.784	800.000	0.094	0.262
-647.770	-10.695	0.129	0.085
-646.755	194.568	-0.047	-0.071
-645.741	-122.345	-0.190	0.031
-644.726	-200.000	0.006	-0.246
-643.711	800.000	-0.065	-0.220
-642.697	20.034	-0.318	-0.256
-641.682	118.667	0.098	0.121
-640.668	22.446	0.151	0.123
-639.653	-117.033	-0.279	0.051
-638.638	-51.522	-0.150	-0.070
-637.624	290.384	0.277	-0.503
-636.609	737.643	-0.027	0.073
-635.595	800.000	-0.063	-0.226
-634.580	-62.026	0.216	-0.090
-633.565	-98.791	-0.125	0.032
-632.551	-55.844	0.175	-0.078
-631.536	-20.940	0.121	-0.074
-630.522	54.733	0.126	0.122
-629.507	260.461	-0.190	0.328
-628.492	800.000	0.032	-0.088
-627.478	800.000	0.068	0.264
-626.463	-22.538	-0.295	-0.178
-625.449	-109.697	0.309	-0.065
-624.434	-200.000	0.016	0.254
-623.419	125.044	-0.182	-0.229
-622.405	6.942	-0.288	-0.214
-621.390	177.554	0.232	-0.338
-620.376	163.608	-0.081	-0.113
-619.361	61.832	0.107	-0.106
-618.346	-139.149	-0.473	0.051
-617.332	-200.000	-0.000	0.092
-616.317	-57.982	0.166	-0.072
-615.303	-22.176	0.168	-0.102
-614.288	-200.000	0.000	0.013
-613.273	222.804	0.211	0.339
-612.259	-200.000	-0.228	0.001
-611.244	-79.037	-0.164	0.056
-610.230	-68.280	0.065	-0.025
-609.215	193.886	-0.158	-0.238
-608.201	57.877	0.084	0.082
-607.186	-200.000	-0.006	-0.103
-606.171	800.000	0.083	0.245
-605.157	733.067	-0.088	0.234
-604.142	14.467	0.183	0.143
-603.128	800.000	0.046	0.180
-602.113	107.649	-0.234	-0.278
-601.098	800.000	-0.020	-0.058
-600.084	800.000	0.086	0.239
-599.069	-95.769	0.282	0.075
-598.055	118.943	0.146	-0.180
-597.040	-0.807	0.298	-0.210
-596.025	160.954	-0.068	-0.095
-595.011	354.610	-0.096	-0.191
-593.996	-200.000	0.027	0.427
-592.982	-38.977	-0.059	-0.031
-591.967	-10.800	-0.227	-0.150
-590.952	12.474	-0.156	-0.120
-589.938	3.072	0.153	0.111
-588.923	800.000	0.031	-0.087
-587.909	319.925	0.075	-0.142
-586.894	-81.715	-0.114	0.037
-585.879	581.844	-0.071	0.173
-584.865	800.000	0.138	-0.463
-583.850	98.293	0.272	-0.312
-582.836	-200.000	-0.041	-0.184
-581.821	-200.000	0.039	0.480
-580.806	-200.000	0.026	0.245
-579.792	-27.380	0.221	-0.128
-578.777	-200.000	-0.024	-0.127
-577.763	-29.459	0.096	0.055
-576.748	-200.000	-0.066	-0.335
-575.733	800.000	0.108	-0.339
-574.719	-109.371	0.143	-0.030
-573.704	-200.000	0.027	-0.233
-572.690	-127.167	-0.176	0.026
-571.675	800.000	-0.032	0.100
-570.661	-26.490	-0.137	0.080
-569.646	800.000	-0.041	0.145
-568.631	617.664	0.025	-0.063
-567.617	204.498	0.214	-0.330
-566.602	618.996	0.152	-0.379
-565.588	185.168	-0.197	0.291
-564.573	-200.000	0.016	-0.089
-563.558	800.000	0.097	0.365
-562.544	147.477	-0.166	0.222
-561.529	428.023	0.045	0.098
-560.515	-111.159	0.449	-0.092
-559.500	-200.000	-0.043	-0.292
-558.485	-131.469	-0.439	0.058
-557.471	306.966	0.081	0.150
-556.456	-36.301	-0.115	0.062
-555.442	415.206	-0.087	0.184
-554.427	124.470	-0.139	0.174
-553.412	27.650	-0.293	-0.245
-552.398	800.000	-0.030	0.086
-551.383	-200.000	0.004	-0.145
-550.369	-19.315	0.188	-0.116
-549.354	-200.000	-0.006	0.144
-548.339	437.908	0.094	0.205
-547.325	-24.796	0.039	0.023
-546.310	195.192	0.116	-0.175
-545.296	-80.890	0.146	0.048
-544.281	277.081	-0.140	0.247
-543.266	800.000	-0.072	0.249
-542.252	-24.014	-0.117	0.069
-541.237	-20.882	-0.114	-0.070
-540.223	-82.550	-0.379	0.122
-539.208	-84.200	0.165	-0.052
-538.193	114.181	-0.057	-0.069
-537.179	-17.346	0.195	-0.122
-536.164	-94.388	-0.279	0.076
-535.150	341.109	-0.297	-0.576
-534.135	800.000	0.079	-0.250
-533.121	-200.000	-0.032	0.199
-532.106	277.423	-0.095	0.168
-531.091	16.116	0.138	0.109
-530.077	60.150	-0.245	0.241
-529.062	126.158	0.226	-0.284
-528.048	-72.602	-0.325	0.119
-527.033	369.465	0.056	0.112
-526.018	-200.000	0.060	-0.415
-525.004	800.000	0.058	-0.167
-523.989	119.351	-0.057	-0.070
-522.975	273.841	0.076	-0.133
-521.960	-67.796	0.179	-0.070
-520.945	-65.231	-0.025	0.010
-519.931	148.736	0.143	-0.192
-518.916	-29.247	-0.089	0.051
-517.902	-200.000	-0.024	-0.198
-516.887	800.000	0.111	-0.350
-515.872	-77.372	-0.175	-0.060
-514.858	-200.000	-0.024	0.116
-513.843	153.879	0.327	0.445
-512.829	100.821	-0.079	0.091
-511.814	-200.000	-0.009	-0.058
-510.799	-200.000	0.008	-0.059
-509.785	325.099	-0.188	-0.357
-508.770	-39.667	0.165	0.086
-507.756	-100.040	-0.490	0.121
-506.741	-176.811	0.197	0.005
-505.726	-200.000	-0.066	-0.000
-504.712	-3.773	-0.108	-0.074
-503.697	95.922	-0.218	0.247
-502.683	-152.531	-0.269	-0.019
-501.668	92.276	0.128	0.143
-500.653	55.327	0.248	0.238
-499.639	37.057	0.225	-0.198
-498.624	-200.000	-0.016	-0.166
-497.610	800.000	0.059	0.213
-496.595	-4.183	0.022	-0.015
-495.581	98.589	-0.261	0.299
-494.566	-118.418	0.132	0.023
-493.551	328.063	0.165	0.314
-492.537	120.051	-0.040	0.049
-491.522	-200.000	0.011	-0.344
-490.508	-200.000	-0.004	-0.120
-489.493	9.589	-0.142	0.107
-488.478	-199.428	-0.104	-0.001
-487.464	800.000	0.055	0.168
-486.449	-101.440	-0.487	0.118
-485.435	-76.381	-0.137	-0.048
-484.420	800.000	0.053	-0.152
-483.405	-200.000	-0.005	-0.235
-482.391	-55.681	0.189	-0.084
-481.376	-200.000	0.011	0.192
-480.362	-117.477	0.107	0.019
-479.347	-156.265	-0.106	-0.007
-478.332	202.642	-0.127	-0.195
-477.318	3.863	-0.165	0.119
-476.303	37.797	0.362	0.319
-475.289	6.860	0.245	0.181
-474.274	-200.000	-0.007	0.173
-473.259	135.081	0.221	-0.285
-472.245	800.000	0.003	-0.012
-471.230	-136.386	-0.172	-0.020
-470.216	-200.000	0.032	0.139
-469.201	800.000	-0.050	0.168
-468.186	165.648	-0.144	0.202
-467.172	172.033	0.057	-0.082
-466.157	-81.813	0.412	0.134
-465.143	-200.000	-0.008	-0.130
-464.128	-107.013	-0.040	0.009
-463.113	800.000	0.073	0.224
-462.099	-28.360	-0.366	0.209
-461.084	329.251	0.142	-0.271
-460.070	125.610	-0.121	-0.152
-459.055	68.498	-0.082	0.084
-458.040	33.285	-0.122	-0.105
-457.026	-32.480	-0.239	-0.132
-456.011	15.767	0.240	-0.187
-454.997	83.525	0.090	0.097
-453.982	485.326	0.078	-0.175
-452.968	28.609	-0.193	-0.162
-451.953	186.196	0.232	0.342
-450.938	-123.757	0.235	0.037
-449.924	-31.851	0.373	-0.208
-448.909	163.939	0.194	-0.271
-447.895	59.782	0.120	0.117
-446.880	-200.000	-0.039	-0.183
-445.865	-80.338	-0.240	-0.080
-444.851	-121.600	0.189	-0.031
-443.836	604.732	0.040	-0.100
-442.822	109.545	0.157	-0.186
-441.807	43.953	0.322	0.293
-440.792	138.349	-0.318	0.414
-439.778	-110.665	0.210	0.043
-438.763	37.435	0.341	0.299
-437.749	-73.577	-0.039	0.014
-436.734	-193.274	-0.231	-0.002
-435.719	-24.915	-0.072	0.042
-434.705	-200.000	0.058	-0.372
-433.690	611.366	-0.116	-0.288
-432.676	399.280	0.055	-0.114
-431.661	-34.197	-0.143	-0.078
-430.646	-5.098	0.208	0.142
-429.632	-120.553	-0.124	-0.021
-428.617	-52.320	-0.091	0.042
-427.603	-60.338	0.211	-0.089
-426.588	70.188	0.148	-0.151
-425.573	-105.027	-0.304	0.069
-424.559	-54.105	-0.229	0.103
-423.544	-200.000	0.047	-0.364
-422.530	-30.485	0.169	-0.095
-421.515	-200.000	-0.013	0.097
-420.500	675.966	0.035	-0.090
-419.486	-90.954	-0.294	0.084
-418.471	-200.000	0.040	0.195
-417.457	-54.094	0.105	0.047
-416.442	-92.078	-0.218	-0.061
-415.428	-200.000	0.052	0.234
-414.413	16.197	-0.150	0.117
-413.398	-172.648	0.269	0.008
-412.384	-153.551	-0.114	-0.008
-411.369	14.212	0.254	-0.196
-410.355	396.181	0.049	0.101
-409.340	272.897	-0.156	-0.273
-408.325	-200.000	-0.008	-0.136
-407.311	398.218	-0.210	0.434
-406.296	-39.166	0.392	0.204
-405.282	-93.506	0.118	-0.032
-404.267	-35.391	0.100	0.054
-403.252	800.000	0.039	0.140
-402.238	-144.894	-0.311	0.028
-401.223	-87.647	0.184	0.055
-400.209	-66.605	0.093	-0.036
-399.194	-16.180	-0.046	0.029
-398.179	204.688	-0.162	0.249
-397.165	-162.305	0.140	0.007
-396.150	42.259	-0.204	-0.183
-395.136	-70.262	-0.103	-0.039
-394.121	275.503	0.080	-0.141
-393.106	209.079	-0.077	-0.119
-392.092	367.371	0.111	-0.221
-391.077	-110.693	-0.149	0.030
-390.063	-121.114	-0.004	-0.001
-389.048	-19.707	-0.227	0.139
-388.033	-110.440	-0.323	-0.066
-387.019	-61.152	0.076	-0.032
-386.004	800.000	0.116	0.425
-384.990	-132.773	-0.163	-0.021
-383.975	800.000	-0.062	0.216
-382.960	-40.339	-0.095	-0.049
-381.946	313.374	0.037	-0.069
-380.931	50.859	0.092	0.087
-379.917	-79.466	-0.187	0.063
-378.902	-200.000	0.020	-0.266
-377.888	800.000	0.050	-0.209
-376.873	-200.000	0.003	-0.133
-375.858	-200.000	0.001	-0.016
-374.844	800.000	0.062	-0.253
-373.829	422.868	0.051	0.107
-372.815	166.064	-0.027	0.038
-371.800	-200.000	-0.053	-0.312
-370.785	35.647	0.105	0.091
-369.771	800.000	0.058	0.166
-368.756	630.616	-0.172	-0.430
-367.742	-200.000	0.022	0.306
-366.727	273.858	0.260	0.455
-365.712	-200.000	-0.014	-0.157
-364.698	67.563	0.059	0.060
-363.683	130.831	0.200	0.253
-362.669	-0.115	-0.166	-0.117
-361.654	398.463	-0.169	0.350
-360.639	158.667	-0.083	0.114
-359.625	-92.985	-0.052	0.014
-358.610	165.921	0.219	-0.306
-357.596	-24.572	0.101	-0.059
-356.581	-102.102	0.237	0.056
-355.566	23.732	0.181	0.147
-354.552	-153.651	0.027	0.002
-353.537	-126.684	-0.271	0.040
-352.523	34.708	0.181	0.156
-351.508	130.079	-0.101	0.128
-350.493	-15.774	0.052	0.033
-349.479	-200.000	0.051	0.230
-348.464	276.178	-0.104	0.183
-347.450	-200.000	-0.042	-0.331
-346.435	-102.162	0.111	-0.026
-345.420	-200.000	0.039	-0.404
-344.406	800.000	0.079	-0.227
-343.391	-200.000	0.044	-0.241
-342.377	285.177	-0.162	0.288
-341.362	-200.000	-0.078	0.422
-340.348	800.000	-0.096	0.284
-339.333	-67.431	0.250	-0.097
-338.318	99.046	-0.118	0.134
-337.304	174.164	0.241	-0.343
-336.289	800.000	-0.019	-0.064
-335.275	662.854	0.070	0.177
-334.260	800.000	-0.055	-0.228
-333.245	-129.550	-0.126	-0.017
-332.231	800.000	-0.057	0.165
-331.216	168.695	-0.210	0.295
-330.202	-200.000	-0.005	0.112
-329.187	5.467	0.119	-0.087
-328.172	-15.125	-0.227	-0.143
-327.158	-54.352	-0.105	0.047
-326.143	34.092	0.274	-0.236
-325.129	-200.000	0.004	-0.053
-324.114	51.867	-0.135	-0.127
-323.099	-191.806	0.038	-0.000
-322.085	-71.342	-0.229	-0.084
-321.070	-56.118	-0.242	0.106
-320.056	170.837	-0.187	0.264
-319.041	-200.000	-0.016	0.093
-318.026	-200.000	-0.032	-0.426
-317.012	-90.307	-0.193	-0.055
-315.997	20.635	0.295	0.235
-314.983	-143.025	0.108	-0.010
-313.968	-52.119	-0.467	-0.214
-312.953	800.000	-0.030	-0.116
-311.939	175.579	0.067	-0.095
-310.924	4.861	0.152	-0.110
-309.910	-149.398	0.252	-0.020
-308.895	43.087	0.203	-0.183
-307.880	14.379	-0.343	0.264
-306.866	800.000	-0.046	-0.125
-305.851	800.000	0.101	0.325
-304.837	-183.170	-0.141	0.002
-303.822	437.628	-0.059	0.126
-302.807	72.220	-0.220	-0.226
-301.793	451.386	-0.153	0.334
-300.778	96.903	0.221	0.249
-299.764	-200.000	-0.020	0.480
-298.749	-200.000	0.009	-0.084
-297.735	-200.000	-0.007	0.274
-296.720	4.615	0.105	0.076
-295.705	-142.309	-0.329	0.032
-294.691	-26.964	-0.172	-0.099
-293.676	-100.230	0.241	-0.059
-292.662	-35.063	0.125	0.067
-291.647	-181.570	0.129	-0.002
-290.632	75.645	0.262	0.273
-289.618	592.079	0.055	-0.133
-288.603	-22.591	0.117	0.069
-287.589	-200.000	0.013	-0.187
-286.574	9.039	-0.169	0.125
-285.559	-175.337	-0.207	-0.006
-284.545	-164.608	-0.248	0.011
-283.530	-200.000	-0.051	-0.235
-282.516	-200.000	0.025	0.284
-281.501	107.800	0.217	-0.255
-280.486	-39.946	0.060	-0.031
-279.472	-121.767	0.418	-0.068
-278.457	-27.686	0.135	0.077
-277.443	798.739	-0.111	-0.302
-276.428	-31.817	0.165	0.091
-275.413	-200.000	0.023	-0.308
-274.399	-200.000	0.027	-0.204
-273.384	-90.026	0.154	0.044
-272.370	171.035	0.311	0.439
-271.355	-80.184	-0.068	0.022
-270.340	276.524	-0.109	0.190
-269.326	-64.107	0.206	-0.083
-268.311	-142.977	0.231	-0.022
-267.297	36.510	-0.138	0.120
-266.282	-136.035	0.182	0.021
-265.267	-200.000	0.005	0.029
-264.253	-70.386	-0.226	0.084
-263.238	328.330	0.043	0.082
-262.224	4.178	0.130	-0.094
-261.209	157.317	0.144	-0.196
-260.195	-106.139	0.205	-0.045
-259.180	-14.026	-0.190	-0.121
-258.165	-200.000	0.035	0.397
-257.151	-55.515	-0.294	0.129
-256.136	-200.000	0.066	-0.372
-255.122	-34.017	-0.210	0.114
-254.107	100.260	0.175	-0.200
-253.092	716.230	-0.092	0.240
-252.078	49.295	-0.059	0.054
-251.063	37.152	0.129	-0.112
-250.049	198.297	0.062	-0.093
-249.034	-121.123	0.118	-0.019
-248.019	-77.650	-0.307	0.104
-247.005	176.047	0.138	-0.197
-245.990	145.335	-0.122	0.160
-244.976	-200.000	-0.000	-0.282
-243.961	206.454	0.211	-0.324
-242.946	800.000	-0.043	0.119
-241.932	-2.574	0.152	0.105
-240.917	-67.245	-0.318	0.123
-239.903	47.323	0.242	0.222
-238.888	800.000	0.033	0.140
-237.873	-200.000	0.048	0.330
-236.859	-83.604	-0.201	-0.063
-235.844	313.260	-0.057	0.105
-234.830	-97.629	0.194	-0.050
-233.815	-200.000	-0.025	-0.151
-232.800	-200.000	-0.018	0.441
-231.786	-102.393	-0.119	0.028
-230.771	-200.000	0.002	0.244
-229.757	-81.267	0.134	0.043
-228.742	-70.090	-0.329	-0.123
-227.727	-22.044	-0.339	-0.202
-226.713	151.955	0.273	0.366
-225.698	-200.000	0.008	0.257
-224.684	75.302	-0.303	-0.314
-223.669	-151.703	-0.132	0.010
-222.655	324.617	-0.115	-0.215
-221.640	4.667	-0.071	0.051
-220.625	388.184	0.040	0.081
-219.611	26.047	0.169	0.139
-218.596	-91.149	-0.239	0.067
-217.582	800.000	-0.059	-0.235
-216.567	-73.814	-0.056	-0.020
-215.552	-200.000	0.037	0.334
-214.538	-98.924	-0.429	-0.107
-213.523	184.819	0.123	0.180
-212.509	-70.108	0.274	-0.102
-211.494	25.683	-0.080	-0.065
-210.479	-200.000	-0.033	-0.178
-209.465	-41.498	-0.140	-0.071
-208.450	-184.952	0.243	0.004
-207.436	284.078	-0.078	-0.138
-206.421	-166.565	0.373	-0.015
-205.406	800.000	0.096	-0.271
-204.392	-26.296	0.217	-0.125
-203.377	800.000	0.026	-0.080
-202.363	-39.189	-0.091	0.047
-201.348	-200.000	-0.009	-0.327
-200.333	334.310	-0.121	0.230
-199.319	669.119	0.105	0.267
-198.304	134.483	-0.049	-0.062
-197.290	-25.594	0.336	0.195
-196.275	-95.214	0.089	0.024
-195.260	176.437	0.239	-0.341
-194.246	-34.997	-0.208	-0.112
-193.231	-37.380	-0.282	0.148
-192.217	-73.200	-0.435	0.157
-191.202	-10.716	0.130	0.084
-190.187	426.745	-0.093	0.198
-189.173	155.860	0.120	0.163
-188.158	85.208	0.211	-0.227
-187.144	-123.002	0.226	-0.036
-186.129	-69.895	0.194	0.073
-185.114	49.604	0.131	-0.121
-184.100	-2.211	-0.279	-0.192
-183.085	62.426	-0.218	0.214
-182.071	800.000	0.066	-0.199
-181.056	15.031	-0.029	0.023
-180.042	46.119	-0.025	-0.023
-179.027	-85.937	-0.058	-0.017
-178.012	-134.909	-0.200	-0.024
-176.998	-108.015	0.064	-0.014
-175.983	98.749	0.294	0.333
-174.969	56.783	0.080	-0.077
-173.954	130.956	-0.045	0.057
-172.939	-129.739	0.308	0.042
-171.925	602.920	0.064	0.157
-170.910	8.079	-0.175	-0.129
-169.896	239.563	-0.227	0.371
-168.881	-84.694	-0.434	0.134
-167.866	-111.367	-0.157	-0.031
-166.852	-200.000	-0.012	-0.424
-165.837	-59.344	0.399	0.168
-164.823	282.438	-0.161	0.283
-163.808	-116.007	0.205	0.037
-162.793	111.137	-0.272	-0.321
-161.779	-85.333	-0.208	0.063
-160.764	681.373	-0.073	0.187
-159.750	43.225	0.244	0.218
-158.735	217.091	0.117	-0.183
-157.720	31.322	0.153	-0.129
-156.706	-200.000	0.031	-0.252
-155.691	491.258	0.054	-0.122
-154.677	-80.061	-0.071	-0.023
-153.662	-200.000	-0.053	-0.251
-152.647	-132.490	0.155	0.020
-151.633	3.899	-0.138	-0.099
-150.618	353.435	0.159	-0.308
-149.604	-200.000	-0.027	-0.148
-148.589	13.737	0.196	-0.149
-147.574	-98.546	0.215	-0.054
-146.560	549.663	0.114	-0.268
-145.545	800.000	0.083	-0.311
-144.531	-28.089	0.354	-0.201
-143.516	-70.956	-0.047	-0.017
-142.502	-128.810	0.203	0.028
-141.487	-200.000	-0.001	-0.071
-140.472	210.768	0.140	-0.215
-139.458	74.371	0.192	0.198
-138.443	-98.199	-0.086	0.022
-137.429	-13.416	0.142	-0.090
-136.414	511.805	-0.049	-0.113
-135.399	-28.019	-0.192	-0.109
-134.385	-200.000	0.030	0.248
-133.370	258.503	0.144	0.243
-132.356	-200.000	-0.021	-0.258
-131.341	49.279	0.142	-0.131
-130.326	375.194	0.100	-0.199
-129.312	-89.529	-0.206	0.059
-128.297	-136.240	0.145	0.017
-127.283	420.058	0.117	0.245
-126.268	-112.616	0.184	-0.036
-125.253	-135.283	-0.205	-0.024
-124.239	-200.000	-0.003	0.205
-123.224	-6.856	-0.086	0.057
-122.210	207.906	0.181	-0.276
-121.195	632.243	-0.319	-0.790
-120.180	-72.450	0.093	-0.034
-119.166	98.538	0.045	-0.051
-118.151	0.662	-0.070	0.049
-117.137	-94.933	-0.364	-0.096
-116.122	-95.721	0.370	-0.097
-115.107	7.747	-0.052	-0.038
-114.093	-53.543	0.018	-0.008
-113.078	800.000	0.046	0.171
-112.064	-200.000	-0.009	-0.103
-111.049	-200.000	0.014	0.175
-110.034	26.463	0.111	0.090
-109.020	-71.175	0.178	-0.065
-108.005	-200.000	-0.026	0.174
-106.991	30.974	0.188	-0.157
-105.976	46.458	0.157	-0.143
-104.962	-79.832	0.100	0.033
-103.947	-106.360	0.176	0.038
-102.932	485.411	-0.033	0.073
-101.918	195.174	0.097	0.144
-100.903	-111.152	-0.100	-0.020
-99.889	244.771	0.050	-0.083
-98.874	-168.107	-0.163	-0.006
-97.859	375.242	-0.104	-0.207
-96.845	-76.926	-0.307	-0.105
-95.830	-57.827	0.122	-0.052
-94.816	-200.000	0.001	-0.036
-93.801	-200.000	-0.008	-0.278
-92.786	46.064	-0.208	0.188
-91.772	-59.945	-0.304	-0.127
-90.757	32.131	-0.117	-0.099
-89.743	188.141	0.101	-0.147
-88.728	1.928	-0.041	0.029
-87.713	-55.282	0.372	0.163
-86.699	-45.004	-0.118	0.058
-85.684	-200.000	0.016	0.118
-84.670	800.000	-0.036	-0.099
-83.655	-69.753	-0.218	-0.081
-82.640	-200.000	0.002	-0.050
-81.626	93.216	0.113	0.125
-80.611	-48.214	-0.228	0.108
-79.597	-21.905	0.308	-0.183
-78.582	-34.336	-0.422	0.226
-77.567	-200.000	0.044	0.201
-76.553	-32.516	0.296	0.161
-75.538	-88.601	-0.205	-0.060
-74.524	465.817	0.056	-0.122
-73.509	75.851	0.217	-0.224
-72.494	-200.000	-0.000	0.074
-71.480	-148.040	0.202	0.016
-70.465	8.680	0.138	-0.101
-69.451	-36.624	0.148	0.078
-68.436	-114.649	-0.078	-0.015
-67.422	-200.000	-0.003	-0.039
-66.407	-76.228	0.005	-0.002
-65.392	-0.628	-0.143	-0.099
-64.378	472.410	0.048	-0.105
-63.363	-122.082	0.080	0.013
-62.349	32.584	-0.431	0.363
-61.334	39.957	-1.240	-1.087
-60.319	542.993	0.398	0.927
-59.305	734.078	-0.626	-1.636
-58.290	123.218	1.033	1.264
-57.276	-200.000	0.364	1.901
-56.261	-200.000	122.633	621.199
-55.246	396.797	1562.814	3186.991
-54.232	142.598	2726.099	3534.416
-53.217	94.495	2165.935	2402.047
-52.203	35.002	1596.865	1364.641
-51.188	26.700	1339.764	1094.961
-50.173	23.969	1302.297	1048.230
-49.159	50.801	1371.092	1267.276
-48.144	48.479	1382.478	1263.696
-47.130	26.691	1330.963	1087.539
-46.115	23.520	1311.204	1052.567
-45.100	23.363	1306.445	1047.778
-44.086	23.238	1304.030	1045.059
-43.071	23.238	1302.095	1043.468
-42.057	23.265	1299.690	1041.658
-41.042	23.298	1297.663	1040.184
-40.027	23.237	1296.588	1038.924
-39.013	23.291	1295.078	1037.989
-37.998	23.251	1293.038	1036.078
-36.984	23.298	1291.260	1034.889
-35.969	23.420	1289.381	1034.051
-34.954	23.423	1287.513	1032.533
-33.940	23.383	1286.768	1031.660
-32.925	23.502	1285.183	1031.043
-31.911	23.448	1283.846	1029.613
-30.896	23.449	1282.495	1028.497
-29.881	23.503	1281.078	1027.632
-28.867	23.573	1279.528	1026.753
-27.852	23.608	1278.210	1025.858
-26.838	23.471	1276.920	1023.990
-25.823	23.544	1275.453	1023.192
-24.809	23.454	1274.491	1021.862
-23.794	23.510	1273.124	1021.048
-22.779	23.479	1271.729	1019.712
-21.765	23.506	1270.452	1018.800
-20.750	23.476	1269.474	1017.805
-19.736	23.341	1268.517	1016.224
-18.721	23.384	1266.910	1015.140
-17.706	23.322	1265.819	1013.870
-16.692	23.303	1264.796	1012.903
-15.677	23.443	1263.395	1012.539
-14.663	23.354	1262.351	1011.153
-13.648	23.430	1261.031	1010.490
-12.633	23.352	1260.397	1009.497
-11.619	23.413	1259.047	1008.722
-10.604	23.335	1258.835	1008.070
-9.590	23.338	1258.094	1007.456
-8.575	23.302	1257.025	1006.354
-7.560	23.339	1256.235	1005.891
-6.546	23.329	1255.078	1004.871
-5.531	23.459	1254.268	1004.918
-4.517	23.294	1253.810	1003.574
-3.502	23.451	1252.884	1003.683
-2.487	23.354	1252.060	1002.434
-1.473	23.337	1247.580	998.709
-0.458	22.120	1232.993	980.211
0.556	17.475	1218.272	946.555
1.571	14.157	1226.656	934.376
2.586	13.401	1242.366	941.960
3.600	13.510	1229.462	932.705
4.615	9.881	1157.216	858.551
5.629	3.424	1085.889	773.254
6.644	0.489	1068.923	746.598
7.659	0.173	1067.141	743.726
8.673	0.034	1066.224	742.339
9.688	0.135	1064.573	741.617
10.702	0.288	1062.403	740.793
11.717	4.345	1067.141	764.038
12.731	11.381	1076.664	805.636
13.746	15.753	1081.579	830.881
14.761	16.697	1082.792	836.405
15.775	16.018	1081.196	831.751
16.790	15.064	1078.800	825.134
17.804	14.438	1077.155	820.721
18.819	13.998	1076.412	817.915
19.834	13.893	1075.198	816.404
20.848	13.642	1074.370	814.470
21.863	13.376	1073.279	812.266
22.877	13.131	1073.299	811.004
23.892	13.081	1072.465	810.058
24.907	13.173	1071.413	809.644
25.921	13.121	1070.878	808.914
26.936	13.254	1069.327	808.322
27.950	13.339	1068.892	808.335
28.965	13.341	1067.388	807.136
29.980	13.328	1066.352	806.218
30.994	13.451	1065.022	805.738
32.009	13.396	1064.260	804.826
33.023	13.364	1063.263	803.846
34.038	13.352	1062.234	802.935
35.053	13.288	1061.535	802.026
36.067	13.373	1060.362	801.482
37.082	13.349	1059.570	800.697
38.096	13.404	1058.586	800.148
39.111	13.449	1057.726	799.644
40.126	13.323	1056.884	798.327
41.140	13.170	1055.899	796.777
42.155	13.194	1054.825	796.012
43.169	13.106	1054.110	794.976
44.184	13.133	1052.618	793.912
45.199	13.267	1051.274	793.469
46.213	13.265	1050.197	792.575
47.228	13.155	1049.459	791.423
48.242	13.212	1048.610	790.984
49.257	13.231	1047.419	790.109
50.271	13.312	1046.791	789.953
51.286	13.391	1046.083	789.725
52.301	13.317	1044.534	788.135
53.315	13.232	1043.714	787.038
54.330	13.164	1042.689	785.874
55.344	13.138	1041.719	784.951
56.359	13.165	1041.159	784.585
57.374	13.114	1040.440	783.734
58.388	13.219	1039.155	783.192
59.403	13.161	1038.704	782.510
60.417	13.224	1037.606	781.911
61.432	13.061	1036.914	780.552
62.447	13.023	1036.530	780.013
63.461	13.071	1035.094	779.089
64.476	13.127	1034.456	778.807
65.490	13.042	1033.675	777.745
66.505	13.157	1032.982	777.696
67.520	13.138	1032.442	777.133
68.534	13.195	1031.331	776.496
69.549	13.155	1030.793	775.834
70.563	13.127	1029.691	774.806
71.578	13.103	1029.096	774.178
72.593	13.077	1028.277	773.371
73.607	12.946	1028.035	772.507
74.622	13.090	1026.962	772.303
75.636	13.091	1026.231	771.690
76.651	13.045	1025.716	771.021
77.666	12.979	1024.930	770.055
78.680	12.886	1024.539	769.258
79.695	13.076	1023.605	769.377
80.709	13.162	1023.255	769.445
81.724	13.232	1022.094	768.831
82.739	13.102	1021.543	767.740
83.753	13.339	1020.433	767.942
84.768	13.282	1019.658	767.025
85.782	13.272	1018.655	766.154
86.797	13.305	1018.089	765.817
87.812	13.205	1017.268	764.665
88.826	13.245	1016.253	764.023
89.841	13.284	1015.454	763.532
90.855	13.308	1013.991	762.478
91.870	13.244	1013.622	761.838
92.884	13.290	1012.936	761.465
93.899	13.362	1011.625	760.743
94.914	13.404	1010.840	760.281
95.928	13.429	1010.299	759.917
96.943	13.342	1009.218	758.639
97.957	13.267	1008.924	758.010
98.972	13.389	1008.092	757.874
99.987	13.332	1007.383	757.012
101.001	13.381	1006.195	756.276
102.016	13.407	1005.032	755.456
103.030	13.325	1004.848	754.874
104.045	13.338	1003.702	754.007
105.060	13.433	1002.533	753.496
106.074	13.267	1001.991	752.265
107.089	13.211	1000.966	751.176
108.103	13.187	1000.535	750.675
109.118	13.171	999.428	749.706
110.133	13.136	998.486	748.774
111.147	13.192	998.056	748.642
112.162	13.327	996.716	748.180
113.176	13.305	996.064	747.525
114.191	13.306	995.348	746.924
115.206	13.273	994.363	745.971
116.220	13.327	993.543	745.534
117.235	13.333	992.345	744.598
118.249	13.450	991.411	744.356
119.264	13.290	990.925	743.207
120.279	13.251	990.329	742.516
121.293	13.335	989.327	742.080
122.308	13.289	988.274	741.015
123.322	13.120	987.734	739.789
124.337	13.302	985.935	739.190
125.352	13.145	985.563	738.142
126.366	13.236	984.199	737.462
127.381	13.223	983.044	736.476
128.395	13.216	982.373	735.876
129.410	13.180	981.483	734.983
130.424	13.228	980.447	734.355
131.439	13.275	979.884	734.079
132.454	13.351	979.099	733.760
133.468	13.437	978.269	733.454
134.483	13.360	977.247	732.285
135.497	13.354	976.460	731.603
136.512	13.379	975.817	731.166
137.527	13.271	974.655	729.753
138.541	13.325	974.035	729.464
139.556	13.371	973.488	729.191
140.570	13.336	972.922	728.550
141.585	13.453	971.881	728.223
142.600	13.527	971.076	727.877
143.614	13.484	970.439	727.148
144.629	13.594	969.182	726.623
145.643	13.498	968.407	725.559
146.658	13.472	967.308	724.557
147.673	13.352	966.711	723.522
148.687	13.381	965.668	722.805
149.702	13.428	964.943	722.402
150.716	13.404	964.108	721.610
151.731	13.428	963.050	720.857
152.746	13.428	963.017	720.769
153.760	13.436	962.477	720.335
154.775	13.578	961.710	720.316
155.789	13.629	960.797	719.788
156.804	13.541	960.449	719.083
157.819	13.789	959.377	719.289
158.833	13.669	958.707	718.207
159.848	13.676	958.296	717.866
160.862	13.580	957.292	716.635
161.877	13.681	956.015	716.049
162.892	13.638	955.319	715.279
163.906	13.565	954.367	714.191
164.921	13.617	953.310	713.559
165.935	13.768	952.157	713.282
166.950	13.562	951.600	711.918
167.964	13.684	951.162	712.051
168.979	13.726	949.807	711.153
169.994	13.595	949.574	710.354
171.008	13.665	948.709	709.943
172.023	13.697	947.765	709.313
173.037	13.804	946.952	709.099
174.052	13.641	946.728	708.171
175.067	13.725	945.658	707.664
176.081	13.753	945.429	707.551
177.096	13.770	944.769	707.067
178.110	13.688	944.078	706.140
179.125	13.712	943.493	705.742
180.140	13.882	942.749	705.842
181.154	13.801	942.599	705.324
182.169	13.863	942.012	705.085
183.183	13.779	941.399	704.209
184.198	13.838	940.285	703.563
185.213	13.901	939.996	703.551
186.227	13.945	938.700	702.704
187.242	13.874	938.744	702.376
188.256	13.816	938.316	701.747
189.271	13.932	936.982	701.179
190.286	13.777	936.375	700.007
191.300	13.792	936.008	699.737
192.315	13.835	935.173	699.230
193.329	13.714	934.878	698.438
194.344	13.852	933.951	698.267
195.359	13.764	933.577	697.555
196.373	13.876	932.717	697.320
197.388	14.044	931.832	697.301
198.402	13.961	931.814	696.875
199.417	14.149	930.642	696.726
200.432	14.232	930.170	696.659
201.446	14.206	929.950	696.325
202.461	14.154	929.296	695.556
203.475	14.163	928.784	695.147
204.490	14.087	928.200	694.333
205.504	14.048	927.695	693.731
206.519	14.221	926.565	693.545
207.534	14.044	926.047	692.359
208.548	14.217	925.186	692.375
209.563	14.236	924.249	691.690
210.577	14.186	923.897	691.159
211.592	14.204	923.328	690.745
212.607	14.223	922.758	690.339
213.621	14.270	921.731	689.702
214.636	14.246	921.190	689.135
215.650	14.266	920.201	688.418
216.665	14.350	919.626	688.275
217.680	14.479	918.731	688.077
218.694	14.471	918.252	687.624
219.709	14.330	917.604	686.497
220.723	14.491	916.778	686.479
221.738	14.452	916.336	685.929
222.753	14.473	915.706	685.483
223.767	14.501	914.950	684.969
224.782	14.439	914.768	684.521
225.796	14.642	913.712	684.503
226.811	14.550	913.322	683.771
227.826	14.387	912.469	682.406
228.840	14.519	911.399	682.085
229.855	14.514	910.602	681.406
230.869	14.519	910.007	680.920
231.884	14.502	909.280	680.247
232.899	14.468	908.708	679.620
233.913	14.431	908.123	678.974
234.928	14.464	907.441	678.539
235.942	14.494	906.858	678.164
236.957	14.489	906.488	677.805
237.972	14.631	905.854	677.847
238.986	14.506	905.167	676.768
240.001	14.450	904.531	676.004
241.015	14.510	903.966	675.767
242.030	14.661	903.197	675.742
243.045	14.622	902.829	675.251
244.059	14.701	902.187	675.030
245.074	14.626	901.198	673.926
246.088	14.660	900.985	673.846
247.103	14.790	899.752	673.387
248.117	14.702	899.405	672.716
249.132	14.730	899.013	672.475
250.147	14.846	898.476	672.481
251.161	14.599	897.839	670.953
252.176	14.951	896.748	671.488
253.190	14.991	896.048	671.067
254.205	14.995	895.819	670.853
255.220	15.151	894.600	670.502
256.234	15.114	893.838	669.725
257.249	14.948	893.494	668.746
258.263	15.072	892.883	668.723
259.278	15.072	892.174	668.134
260.293	15.044	891.679	667.592
261.307	15.045	891.175	667.157
262.322	15.153	890.674	667.157
263.336	15.160	889.998	666.616
264.351	15.077	889.400	665.781
265.366	15.249	888.645	665.839
266.380	15.148	888.115	664.982
267.395	15.225	886.978	664.378
268.409	15.230	886.348	663.869
269.424	15.119	885.710	662.889
270.439	15.177	885.064	662.581
271.453	15.045	884.707	661.731
272.468	15.220	883.921	661.774
273.482	15.262	883.437	661.520
274.497	15.300	882.744	661.091
275.512	15.480	881.944	661.143
276.526	15.276	881.546	659.983
277.541	15.243	880.934	659.339
278.555	15.312	880.595	659.297
279.570	15.414	879.708	658.974
280.585	15.470	879.014	658.617
281.599	15.462	878.101	657.843
282.614	15.420	877.085	656.859
283.628	15.458	876.840	656.766
284.643	15.458	876.465	656.428
285.657	15.437	875.932	655.887
286.672	15.389	875.203	655.095
287.687	15.589	874.290	655.135
288.701	15.522	873.751	654.412
289.716	15.511	873.425	654.067
290.730	15.522	872.846	653.619
291.745	15.505	872.118	652.949
292.760	15.589	871.725	652.923
293.774	15.502	871.027	652.005
294.789	15.533	870.406	651.604
295.803	15.599	869.232	650.922
296.818	15.789	868.315	650.913
297.833	15.651	868.186	650.225
298.847	15.561	867.472	649.284
299.862	15.639	866.881	649.085
300.876	15.711	866.598	649.096
301.891	15.756	865.940	648.717
302.906	15.775	865.736	648.582
303.920	15.792	865.001	648.041
304.935	15.796	864.128	647.344
305.949	15.737	863.693	646.733
306.964	15.863	862.630	646.362
307.979	15.746	862.552	645.798
308.993	15.900	861.662	645.665
310.008	15.925	861.424	645.525
311.022	16.002	860.681	645.208
312.037	15.952	860.020	644.463
313.052	15.784	859.705	643.529
314.066	15.812	859.008	643.055
315.081	15.910	858.237	642.797
316.095	15.852	858.036	642.369
317.110	15.896	857.070	641.755
318.125	15.934	856.648	641.527
319.139	15.923	856.214	641.105
320.154	15.996	855.634	640.889
321.168	15.977	855.241	640.465
322.183	15.867	854.579	639.498
323.197	15.751	854.554	638.981
324.212	15.977	853.727	639.164
325.227	15.936	853.089	638.472
326.241	16.050	852.344	638.291
327.256	16.024	851.844	637.762
328.270	15.833	851.731	636.897
329.285	16.060	850.696	636.925
330.300	16.046	850.304	636.522
331.314	16.035	849.529	635.846
332.329	16.189	848.759	635.791
333.343	16.109	848.816	635.480
334.358	16.006	848.280	634.631
335.373	16.121	848.132	634.898
336.387	16.140	847.693	634.585
337.402	16.218	847.895	634.975
338.416	16.261	847.238	634.586
339.431	16.256	846.678	634.095
340.446	16.318	845.957	633.730
341.460	16.283	845.945	633.533
342.475	16.322	845.381	633.200
343.489	16.299	845.280	632.984
344.504	16.320	844.694	632.565
345.519	16.479	843.960	632.557
346.533	16.457	843.605	632.153
347.548	16.379	843.146	631.462
348.562	16.440	842.183	630.910
349.577	16.458	841.656	630.528
350.592	16.370	840.916	629.587
351.606	16.461	840.128	629.283
352.621	16.408	839.426	628.505
353.635	16.545	838.944	628.598
354.650	16.512	838.502	628.086
355.665	16.577	837.697	627.669
356.679	16.453	837.032	626.657
357.694	16.520	836.812	626.683
358.708	16.494	836.061	625.970
359.723	16.536	835.535	625.675
360.738	16.472	835.354	625.248
361.752	16.548	834.501	624.835
362.767	16.633	833.534	624.369
363.781	16.614	833.139	623.949
364.796	16.582	832.606	623.377
365.810	16.602	832.416	623.253
366.825	16.816	831.883	623.586
367.840	16.808	831.294	623.059
368.854	16.805	830.911	622.706
369.869	16.689	830.725	622.086
370.883	16.745	830.287	621.909
371.898	16.726	830.020	621.586
372.913	16.744	829.480	621.191
373.927	16.776	828.902	620.821
374.942	16.993	828.214	621.046
375.956	16.854	827.947	620.282
376.971	16.927	827.681	620.294
377.986	16.956	827.093	619.903
379.000	17.107	826.427	619.902
380.015	17.025	825.816	619.090
381.029	17.120	825.457	619.112
382.044	17.047	825.138	618.552
383.059	17.034	824.320	617.837
384.073	16.991	823.819	617.250
385.088	17.019	823.389	616.976
386.102	16.977	822.572	616.154
387.117	16.974	822.246	615.846
388.132	17.067	821.171	615.322
389.146	16.999	820.685	614.657
390.161	17.141	820.357	614.873
391.175	17.019	820.300	614.332
392.190	16.959	819.988	613.828
393.205	17.041	819.191	613.472
394.219	17.088	818.787	613.288
395.234	17.266	818.203	613.436
396.248	17.129	817.907	612.667
397.263	17.088	817.346	612.045
398.278	17.052	817.051	611.641
399.292	17.216	816.448	611.725
400.307	17.039	816.526	611.091
401.321	17.135	815.461	610.585
402.336	17.198	815.051	610.450
403.350	17.139	814.722	609.938
404.365	17.279	814.170	609.973
405.380	17.309	813.668	609.651
406.394	17.445	812.689	609.352
407.409	17.442	812.802	609.371
408.423	17.461	812.660	609.280
409.438	17.529	811.992	608.966
410.453	17.573	811.369	608.602
411.467	17.386	811.090	607.672
412.482	17.504	810.715	607.757
413.496	17.505	810.369	607.451
414.511	17.472	809.953	606.967
415.526	17.678	809.296	607.155
416.540	17.553	809.136	606.533
417.555	17.474	808.908	606.029
418.569	17.492	808.255	605.552
419.584	17.636	807.450	605.407
420.599	17.683	807.249	605.369
421.613	113.798	1298.503	1487.557
422.628	98.310	1370.005	1487.624
