DTS Sentinel unit serial number:	SN413079Multiplexer serial number:	ORYXHardware model number:	OX4-SRSoftware version number:	ORYX F/W v4.00 Oryx Data Collector v3.7.2.0data status	okinstallation	princeton_trtdifferential loss correction	single-endedforward channel	channel 1reverse channel	N/Adate	2019/09/19time	03:02:35forward acquisition time	60.00reverse acquisition time	0.00gamma	496.2192k internal	0.2343k external	0.2343temperature offset calibration	1.0024default loss term (dB/km)	0.3790temperature slope calibration	1.0000multiplexer offset coefficient	1.0000multiplexer slope coefficient	1.0000fibre end	0.00T internal ref (°C)	20.81T ext. ref 1 (°C)	0.66T ext. ref 2 (°C)	14.55length (m)	temperature (°C)	Stokes	anti-Stokes-747.200	-57.663	0.176	-0.077
-746.185	283.109	-0.198	0.356
-745.171	-124.051	0.187	0.029
-744.156	800.000	-0.023	0.076
-743.142	-123.337	-0.228	-0.036
-742.127	-127.955	-0.198	0.028
-741.112	-105.744	-0.195	-0.044
-740.098	46.886	0.098	0.091
-739.083	314.820	0.057	0.107
-738.069	-102.890	0.218	-0.052
-737.054	97.332	-0.181	-0.208
-736.039	75.518	0.268	0.283
-735.025	-200.000	0.025	0.376
-734.010	123.390	-0.154	0.194
-732.996	45.726	0.232	-0.215
-731.981	800.000	-0.043	-0.165
-730.966	-66.509	-0.087	0.035
-729.952	19.459	-0.027	0.022
-728.937	-169.224	0.174	0.006
-727.923	-68.962	-0.100	0.039
-726.908	335.689	0.075	-0.146
-725.894	387.743	-0.062	-0.129
-724.879	222.892	-0.141	0.227
-723.864	-7.913	0.266	-0.180
-722.850	199.358	0.148	0.227
-721.835	-136.319	-0.003	-0.000
-720.821	-49.061	0.093	-0.044
-719.806	800.000	-0.075	-0.210
-718.791	-200.000	0.002	-0.034
-717.777	-127.049	-0.492	-0.072
-716.762	-3.734	0.134	-0.093
-715.748	56.429	0.208	0.203
-714.733	490.094	0.031	0.070
-713.718	-125.893	0.132	-0.020
-712.704	127.895	-0.322	-0.410
-711.689	-200.000	0.005	0.126
-710.675	33.838	-0.181	-0.157
-709.660	258.981	-0.127	-0.218
-708.645	-200.000	0.017	0.212
-707.631	-82.517	-0.140	0.046
-706.616	412.946	-0.122	-0.259
-705.602	22.709	0.131	0.107
-704.587	-200.000	0.107	-0.624
-703.572	148.167	-0.054	-0.073
-702.558	-1.792	0.110	0.078
-701.543	-156.893	0.133	0.008
-700.529	248.496	0.136	-0.230
-699.514	-153.299	-0.121	0.008
-698.499	800.000	0.048	0.156
-697.485	-200.000	-0.008	0.054
-696.470	-200.000	0.025	0.167
-695.456	246.795	-0.048	-0.081
-694.441	-25.760	0.105	-0.062
-693.426	202.964	-0.203	-0.313
-692.412	26.222	-0.220	-0.184
-691.397	-120.507	0.201	-0.034
-690.383	19.121	-0.356	-0.285
-689.368	-148.501	-0.332	0.027
-688.354	800.000	0.110	0.324
-687.339	137.285	-0.089	-0.116
-686.324	-44.537	0.295	0.147
-685.310	368.495	0.018	-0.036
-684.295	362.108	0.142	-0.284
-683.281	-78.932	-0.100	0.034
-682.266	344.773	0.065	-0.127
-681.251	83.517	-0.117	0.127
-680.237	41.096	-0.145	0.131
-679.222	-14.805	-0.133	-0.085
-678.208	336.087	-0.083	0.160
-677.193	-200.000	0.008	0.187
-676.178	-189.310	-0.122	-0.001
-675.164	7.089	-0.276	0.205
-674.149	-81.327	-0.278	-0.091
-673.135	36.530	-0.171	0.151
-672.120	-200.000	-0.007	0.084
-671.105	457.873	-0.080	-0.178
-670.091	-200.000	0.001	-0.182
-669.076	-98.144	0.230	-0.059
-668.062	-138.348	-0.336	0.037
-667.047	-200.000	-0.008	-0.150
-666.032	-200.000	0.053	-0.363
-665.018	-89.973	-0.428	0.125
-664.003	139.372	0.088	0.116
-662.989	175.503	-0.207	-0.299
-661.974	-54.570	-0.061	-0.028
-660.959	800.000	-0.098	-0.335
-659.945	-200.000	0.003	-0.264
-658.930	-48.547	-0.148	-0.071
-657.916	-14.211	0.180	-0.116
-656.901	363.286	0.109	-0.218
-655.886	566.648	-0.051	-0.123
-654.872	31.977	0.202	0.174
-653.857	-82.376	0.242	-0.078
-652.843	34.187	0.148	-0.129
-651.828	-101.074	-0.317	-0.077
-650.814	-43.538	-0.066	-0.033
-649.799	-167.073	0.188	0.008
-648.784	-62.502	-0.161	-0.067
-647.770	-200.000	-0.049	-0.328
-646.755	-130.728	-0.567	0.076
-645.741	-200.000	0.036	-0.454
-644.726	-65.357	-0.059	-0.024
-643.711	-200.000	-0.015	-0.069
-642.697	95.552	-0.063	-0.071
-641.682	-36.012	-0.216	0.117
-640.668	129.291	-0.172	0.219
-639.653	80.576	-0.105	0.112
-638.638	33.313	-0.247	-0.214
-637.624	-79.049	-0.224	0.076
-636.609	-13.858	0.154	0.099
-635.595	-200.000	-0.003	0.039
-634.580	-53.066	-0.083	-0.038
-633.565	79.077	-0.151	-0.161
-632.551	57.376	-0.245	0.239
-631.536	-200.000	-0.025	-0.127
-630.522	-200.000	0.036	0.308
-629.507	3.386	-0.304	0.221
-628.492	-195.557	0.324	0.002
-627.478	-83.365	0.086	0.028
-626.463	47.308	0.188	0.175
-625.449	-200.000	-0.001	0.149
-624.434	747.925	-0.093	-0.249
-623.419	-153.508	-0.095	0.007
-622.405	-108.563	0.085	0.018
-621.390	-62.876	0.206	0.085
-620.376	128.978	-0.209	-0.266
-619.361	800.000	0.073	-0.245
-618.346	69.586	-0.027	0.028
-617.332	243.473	-0.132	0.220
-616.317	82.154	0.102	0.110
-615.303	-120.430	-0.130	0.022
-614.288	-51.774	-0.182	0.084
-613.273	35.773	-0.057	0.050
-612.259	-200.000	0.027	0.139
-611.244	100.301	-0.187	0.217
-610.230	-108.513	-0.139	-0.030
-609.215	228.494	-0.153	-0.249
-608.201	-1.064	0.059	-0.041
-607.186	-58.742	0.280	0.121
-606.171	-140.457	-0.287	-0.030
-605.157	-200.000	0.006	0.029
-604.142	-63.271	-0.214	0.088
-603.128	-47.932	0.007	-0.003
-602.113	-200.000	-0.004	-0.051
-601.098	-1.506	-0.309	-0.217
-600.084	-78.585	-0.189	-0.064
-599.069	-96.247	-0.260	0.069
-598.055	-113.753	-0.135	0.026
-597.040	-200.000	-0.011	0.071
-596.025	-200.000	-0.011	-0.178
-595.011	-195.398	-0.350	0.003
-593.996	-200.000	-0.002	0.083
-592.982	-107.174	0.220	-0.048
-591.967	-157.735	-0.394	0.023
-590.952	382.963	0.063	-0.128
-589.938	-19.929	0.386	-0.237
-588.923	3.138	-0.197	0.143
-587.909	38.273	0.339	0.300
-586.894	-126.674	-0.231	-0.034
-585.879	279.682	-0.076	-0.135
-584.865	55.707	-0.007	0.007
-583.850	100.950	-0.295	-0.341
-582.836	-200.000	-0.050	-0.542
-581.821	800.000	0.016	0.049
-580.806	-140.724	0.120	0.012
-579.792	381.825	-0.150	0.307
-578.777	-154.857	-0.127	0.008
-577.763	800.000	0.081	-0.312
-576.748	-58.443	0.294	-0.127
-575.733	-200.000	0.010	-0.194
-574.719	20.410	0.149	0.120
-573.704	265.888	0.217	-0.377
-572.690	-200.000	-0.026	-0.126
-571.675	-110.320	0.102	0.021
-570.661	-95.366	0.149	0.040
-569.646	-108.217	0.278	-0.060
-568.631	-10.704	-0.269	0.177
-567.617	-129.722	0.078	0.011
-566.602	10.274	-0.270	-0.204
-565.588	-97.854	-0.327	0.084
-564.573	-151.250	-0.255	-0.019
-563.558	80.407	-0.080	-0.086
-562.544	-91.806	-0.212	0.060
-561.529	101.932	0.282	0.327
-560.515	-109.342	0.168	0.035
-559.500	-69.600	0.358	-0.136
-558.485	391.073	0.086	0.177
-557.471	-200.000	-0.023	-0.221
-556.456	-62.108	-0.242	-0.100
-555.442	364.739	0.101	0.202
-554.427	137.059	0.054	-0.071
-553.412	-134.223	-0.162	0.020
-552.398	160.143	-0.316	-0.438
-551.383	159.287	0.212	0.293
-550.369	-71.737	-0.164	0.061
-549.354	-26.805	0.340	0.197
-548.339	-200.000	0.037	0.251
-547.325	800.000	0.033	-0.135
-546.310	-200.000	-0.041	0.231
-545.296	227.539	0.194	-0.313
-544.281	-80.511	0.133	0.044
-543.266	-110.606	-0.222	0.046
-542.252	654.741	-0.104	-0.265
-541.237	-200.000	-0.044	0.270
-540.223	-4.463	-0.155	-0.106
-539.208	-200.000	-0.023	-0.172
-538.193	-200.000	0.006	-0.439
-537.179	238.423	0.114	0.189
-536.164	-160.750	0.146	-0.008
-535.150	-74.102	0.590	0.212
-534.135	-200.000	-0.027	-0.426
-533.121	27.017	0.280	0.233
-532.106	410.803	-0.066	0.140
-531.091	-165.885	-0.233	0.010
-530.077	24.414	-0.055	0.045
-529.062	586.597	-0.100	0.245
-528.048	-200.000	0.050	-0.262
-527.033	34.163	0.096	0.083
-526.018	-32.347	-0.111	0.062
-525.004	-43.526	0.095	-0.048
-523.989	119.503	-0.114	-0.140
-522.975	-200.000	0.019	-0.192
-521.960	-200.000	-0.057	-0.282
-520.945	16.647	-0.051	0.040
-519.931	-101.032	0.432	-0.105
-518.916	-200.000	0.023	-0.229
-517.902	-200.000	0.004	0.036
-516.887	-200.000	-0.025	-0.365
-515.872	311.466	-0.053	-0.098
-514.858	-36.422	-0.314	0.168
-513.843	5.759	0.193	0.141
-512.829	800.000	-0.066	0.217
-511.814	800.000	-0.064	-0.259
-510.799	475.765	0.090	-0.202
-509.785	8.671	0.179	-0.134
-508.770	109.034	0.172	-0.204
-507.756	222.468	0.055	-0.087
-506.741	800.000	-0.065	0.193
-505.726	-144.685	0.337	0.031
-504.712	800.000	-0.050	-0.170
-503.697	198.406	-0.027	-0.041
-502.683	-66.316	0.208	0.082
-501.668	-59.384	0.284	-0.121
-500.653	374.708	0.099	-0.201
-499.639	38.728	0.177	-0.157
-498.624	14.834	0.061	-0.047
-497.610	101.703	-0.098	-0.113
-496.595	63.911	-0.090	-0.089
-495.581	49.908	0.222	-0.208
-494.566	800.000	-0.032	-0.130
-493.551	105.836	0.146	0.172
-492.537	-200.000	-0.001	-0.018
-491.522	58.955	-0.063	0.061
-490.508	625.503	0.083	0.208
-489.493	319.928	0.133	0.251
-488.478	-161.206	0.210	-0.011
-487.464	123.733	0.123	-0.153
-486.449	-200.000	-0.022	0.356
-485.435	-61.397	-0.090	-0.038
-484.420	800.000	0.076	0.216
-483.405	1.959	0.398	0.285
-482.391	800.000	0.081	0.323
-481.376	100.597	-0.182	0.210
-480.362	-99.103	-0.272	-0.068
-479.347	-56.187	0.257	-0.113
-478.332	14.240	-0.530	-0.409
-477.318	-44.426	-0.176	-0.087
-476.303	-153.315	0.194	-0.013
-475.289	-119.703	-0.100	-0.017
-474.274	-87.809	0.302	0.090
-473.259	-200.000	-0.003	-0.144
-472.245	-144.496	0.183	0.017
-471.230	525.306	0.046	-0.106
-470.216	-38.328	-0.158	-0.083
-469.201	364.285	0.109	0.217
-468.186	-171.748	-0.278	0.009
-467.172	313.160	-0.148	-0.276
-466.157	800.000	-0.132	-0.471
-465.143	354.224	-0.103	0.203
-464.128	65.260	0.146	-0.147
-463.113	-200.000	0.019	0.162
-462.099	-200.000	-0.033	-0.203
-461.084	-72.873	-0.130	-0.047
-460.070	-87.255	-0.326	0.098
-459.055	-144.738	0.148	-0.013
-458.040	800.000	-0.021	-0.068
-457.026	51.503	-0.037	0.035
-456.011	800.000	0.037	0.150
-454.997	27.851	-0.263	-0.219
-453.982	407.970	0.096	0.201
-452.968	54.472	0.229	0.219
-451.953	465.860	-0.092	-0.204
-450.938	-23.062	0.088	0.052
-449.924	800.000	-0.027	-0.096
-448.909	71.467	-0.171	-0.176
-447.895	-146.254	0.154	0.013
-446.880	800.000	-0.078	-0.331
-445.865	-200.000	0.066	0.409
-444.851	-76.747	0.322	-0.111
-443.836	-14.855	-0.204	-0.129
-442.822	-18.930	0.280	0.172
-441.807	-103.804	0.225	-0.052
-440.792	73.858	-0.301	-0.312
-439.778	246.377	-0.135	0.225
-438.763	800.000	0.040	-0.157
-437.749	-200.000	0.012	0.140
-436.734	-200.000	-0.039	-0.244
-435.719	800.000	0.070	-0.300
-434.705	9.849	0.255	0.191
-433.690	-108.178	-0.045	0.010
-432.676	-105.025	-0.253	0.057
-431.661	3.026	-0.109	-0.078
-430.646	476.148	-0.040	0.090
-429.632	66.441	0.155	-0.156
-428.617	-200.000	-0.010	-0.319
-427.603	-105.513	0.257	-0.058
-426.588	306.741	-0.106	-0.195
-425.573	-81.139	0.233	-0.076
-424.559	800.000	-0.005	-0.019
-423.544	197.864	0.099	0.150
-422.530	800.000	-0.113	-0.308
-421.515	-59.126	0.110	-0.047
-420.500	180.827	0.078	-0.113
-419.486	-200.000	-0.020	0.143
-418.471	-116.452	-0.173	-0.032
-417.457	67.353	0.109	-0.110
-416.442	524.762	-0.190	0.441
-415.428	525.631	0.066	-0.153
-414.413	518.666	0.068	0.158
-413.398	675.311	0.067	0.171
-412.384	299.700	-0.072	-0.132
-411.369	-200.000	-0.006	-0.129
-410.355	-39.684	0.045	-0.023
-409.340	800.000	-0.031	0.122
-408.325	28.496	0.021	-0.018
-407.311	9.901	0.121	-0.091
-406.296	19.042	-0.232	-0.184
-405.282	-200.000	0.005	-0.185
-404.267	-8.600	0.087	0.058
-403.252	303.285	-0.107	0.196
-402.238	-123.705	0.079	0.012
-401.223	-126.713	-0.138	0.020
-400.209	33.009	-0.009	0.008
-399.194	70.261	-0.064	0.065
-398.179	109.786	0.195	0.231
-397.165	800.000	-0.123	0.411
-396.150	-200.000	0.006	0.095
-395.136	-200.000	-0.029	-0.272
-394.121	-200.000	0.031	0.521
-393.106	72.900	0.162	-0.167
-392.092	-200.000	0.002	0.147
-391.077	-200.000	-0.002	-0.148
-390.063	-73.045	-0.424	-0.154
-389.048	-155.401	-0.126	-0.008
-388.033	344.056	0.097	0.187
-387.019	-85.951	-0.173	-0.053
-386.004	-92.461	0.277	-0.077
-384.990	-107.890	0.108	-0.023
-383.975	-200.000	0.038	-0.189
-382.960	276.155	-0.008	-0.015
-381.946	312.823	0.039	0.073
-380.931	-200.000	0.002	0.106
-379.917	-40.233	-0.330	0.169
-378.902	800.000	0.101	0.328
-377.888	-60.870	-0.557	-0.233
-376.873	245.652	0.029	-0.048
-375.858	-12.539	-0.171	-0.110
-374.844	-36.700	-0.329	0.174
-373.829	6.583	0.123	0.090
-372.815	193.638	0.086	0.129
-371.800	364.142	-0.042	-0.083
-370.785	800.000	-0.196	-0.587
-369.771	122.663	-0.131	0.162
-368.756	8.501	-0.256	-0.190
-367.742	-32.449	0.447	-0.246
-366.727	32.341	-0.087	0.074
-365.712	174.792	-0.096	0.137
-364.698	491.748	0.040	0.090
-363.683	-42.842	0.320	0.160
-362.669	-200.000	-0.227	0.000
-361.654	-135.540	0.309	0.036
-360.639	-142.531	0.063	-0.006
-359.625	-200.000	-0.010	0.166
-358.610	521.286	0.067	-0.156
-357.596	-200.000	-0.444	0.001
-356.581	21.246	0.151	0.121
-355.566	116.606	0.122	0.148
-354.552	800.000	0.102	0.288
-353.537	44.658	-0.117	0.106
-352.523	-200.000	-0.004	0.123
-351.508	161.822	0.077	-0.106
-350.493	-180.502	-0.247	0.005
-349.479	-200.000	0.018	0.311
-348.464	800.000	-0.052	0.171
-347.450	-15.054	0.148	0.093
-346.435	-200.000	0.003	0.155
-345.420	800.000	-0.072	0.263
-344.406	13.038	0.253	0.193
-343.391	-200.000	0.013	-0.073
-342.377	-1.411	-0.215	-0.150
-341.362	97.493	0.258	0.292
-340.348	225.219	-0.060	0.096
-339.333	-200.000	0.003	-0.097
-338.318	-65.182	0.412	-0.164
-337.304	-200.000	0.021	0.142
-336.289	-200.000	-0.035	0.299
-335.275	-39.567	0.169	-0.087
-334.260	-200.000	0.062	0.283
-333.245	-200.000	-0.008	0.239
-332.231	317.909	0.059	0.110
-331.216	121.060	0.119	-0.146
-330.202	-102.633	-0.156	0.037
-329.187	-200.000	0.013	-0.299
-328.172	-159.111	-0.320	0.018
-327.158	-4.957	-0.228	0.155
-326.143	-200.000	-0.003	0.050
-325.129	-200.000	0.011	0.418
-324.114	800.000	-0.051	-0.210
-323.099	528.132	-0.038	0.088
-322.085	-47.108	0.227	0.109
-321.070	-23.441	-0.138	-0.082
-320.056	-126.315	0.443	-0.065
-319.041	497.872	0.126	-0.286
-318.026	-200.000	0.025	-0.214
-317.012	800.000	-0.074	0.310
-315.997	-105.698	-0.110	0.024
-314.983	289.635	0.105	0.187
-313.968	-119.088	-0.249	-0.043
-312.953	-101.249	-0.276	-0.066
-311.939	117.241	0.180	0.218
-310.924	-106.184	0.067	0.015
-309.910	-200.000	0.019	0.338
-308.895	103.467	0.113	-0.130
-307.880	364.152	0.042	0.084
-306.866	171.367	0.173	0.245
-305.851	-200.000	-0.033	-0.155
-304.837	18.467	-0.134	0.105
-303.822	-12.817	0.193	0.124
-302.807	-200.000	-0.051	-0.272
-301.793	141.660	0.126	-0.164
-300.778	-106.662	0.160	0.035
-299.764	142.471	-0.216	0.282
-298.749	-200.000	0.016	-0.171
-297.735	53.459	0.218	0.205
-296.720	-102.917	-0.199	-0.046
-295.705	-29.316	0.197	0.111
-294.691	-200.000	0.003	0.116
-293.676	273.483	-0.100	0.173
-292.662	238.002	0.068	0.111
-291.647	800.000	0.111	-0.328
-290.632	156.670	-0.132	0.180
-289.618	495.962	-0.065	0.148
-288.603	-152.796	-0.265	0.018
-287.589	779.638	0.108	0.290
-286.574	-63.821	-0.159	0.064
-285.559	292.534	0.242	-0.433
-284.545	-90.849	-0.314	0.089
-283.530	-134.368	0.165	0.020
-282.516	-131.758	-0.039	-0.005
-281.501	-200.000	0.041	-0.257
-280.486	800.000	0.075	-0.319
-279.472	-200.000	-0.007	0.142
-278.457	222.899	0.053	-0.084
-277.443	-114.551	-0.455	-0.086
-276.428	-200.000	0.035	-0.257
-275.413	-128.071	-0.367	0.052
-274.399	-200.000	0.009	0.235
-273.384	64.720	0.240	-0.238
-272.370	-200.000	0.003	0.046
-271.355	-38.508	0.172	-0.089
-270.340	142.519	-0.290	-0.379
-269.326	800.000	-0.082	-0.281
-268.311	580.088	-0.106	0.254
-267.297	137.439	-0.124	0.159
-266.282	-115.368	-0.165	-0.031
-265.267	-200.000	0.005	-0.064
-264.253	147.174	-0.079	0.104
-263.238	-173.454	0.051	-0.002
-262.224	91.175	0.241	0.266
-261.209	199.397	-0.114	0.171
-260.195	-73.603	-0.012	0.004
-259.180	193.694	0.087	-0.129
-258.165	-200.000	-0.020	0.235
-257.151	27.282	-0.170	0.140
-256.136	-200.000	-0.049	0.222
-255.122	-103.482	0.132	0.030
-254.107	-46.614	0.402	-0.193
-253.092	800.000	-0.120	-0.425
-252.078	-80.966	0.130	0.042
-251.063	-200.000	0.065	0.315
-250.049	-200.000	-0.005	0.048
-249.034	-200.000	-0.340	-0.001
-248.019	92.154	-0.164	0.182
-247.005	178.510	-0.219	-0.315
-245.990	-178.248	0.389	0.009
-244.976	264.397	-0.182	-0.311
-243.961	-200.000	0.021	-0.157
-242.946	-70.141	-0.233	-0.087
-241.932	-101.499	0.214	-0.051
-240.917	-200.000	-0.033	0.216
-239.903	-58.558	0.193	0.082
-238.888	-29.736	-0.168	-0.094
-237.873	-169.636	0.039	0.001
-236.859	800.000	-0.067	0.238
-235.844	42.926	-0.191	0.171
-234.830	431.445	-0.027	-0.057
-233.815	145.325	0.226	0.296
-232.800	-51.892	-0.351	-0.160
-231.786	165.910	0.263	0.366
-230.771	44.555	0.157	-0.141
-229.757	-24.995	0.193	-0.112
-228.742	11.781	0.042	-0.032
-227.727	58.270	0.060	-0.057
-226.713	-200.000	-0.009	-0.099
-225.698	-103.515	0.325	0.075
-224.684	-192.301	-0.498	-0.005
-223.669	800.000	-0.072	-0.245
-222.655	-82.139	-0.116	0.037
-221.640	148.210	0.035	0.046
-220.625	-200.000	-0.069	0.353
-219.611	-76.617	0.231	0.079
-218.596	-140.850	-0.176	0.018
-217.582	-1.335	0.090	-0.063
-216.567	-98.810	-0.184	0.046
-215.552	-200.000	0.007	-0.104
-214.538	-10.181	-0.164	0.106
-213.523	-44.296	0.321	0.158
-212.509	-200.000	0.003	-0.024
-211.494	85.145	0.050	-0.054
-210.479	-122.341	0.156	-0.025
-209.465	-8.703	0.234	0.154
-208.450	-147.591	0.190	0.016
-207.436	-200.000	0.057	-0.246
-206.421	-200.000	-0.002	-0.249
-205.406	502.430	0.038	-0.087
-204.392	26.188	0.220	0.180
-203.377	-54.906	0.306	-0.135
-202.363	-105.656	-0.266	0.059
-201.348	285.592	-0.080	0.141
-200.333	-62.578	0.107	-0.044
-199.319	214.770	-0.105	0.162
-198.304	27.410	0.268	0.221
-197.290	83.099	-0.057	0.060
-196.275	121.047	0.208	0.253
-195.260	18.971	0.115	-0.090
-194.246	44.339	-0.115	-0.104
-193.231	142.967	-0.110	0.143
-192.217	-123.299	-0.277	-0.043
-191.202	191.957	-0.062	0.092
-190.187	61.629	0.273	0.266
-189.173	291.145	0.044	-0.079
-188.158	131.724	0.137	0.173
-187.144	-121.978	0.039	0.006
-186.129	57.452	0.116	-0.111
-185.114	800.000	-0.032	0.102
-184.100	-200.000	0.075	0.321
-183.085	758.633	-0.047	0.124
-182.071	-72.683	0.183	-0.066
-181.056	-44.117	-0.064	0.032
-180.042	-200.000	-0.039	-0.262
-179.027	-110.049	-0.218	0.045
-178.012	-102.230	0.193	-0.045
-176.998	-171.065	0.177	-0.006
-175.983	-64.540	0.258	-0.103
-174.969	-200.000	-0.006	0.314
-173.954	231.800	0.261	0.419
-172.939	-91.004	-0.208	-0.058
-171.925	-200.000	0.042	-0.380
-170.910	-200.000	0.032	0.151
-169.896	-200.000	0.034	-0.182
-168.881	26.724	-0.033	0.027
-167.866	-49.288	0.136	-0.063
-166.852	350.734	-0.092	0.178
-165.837	-199.368	0.256	0.001
-164.823	450.552	-0.143	-0.310
-163.808	255.925	-0.149	-0.250
-162.793	317.338	0.185	-0.342
-161.779	23.007	-0.122	-0.098
-160.764	287.491	0.065	-0.114
-159.750	483.695	0.066	0.147
-158.735	-200.000	0.013	0.171
-157.720	800.000	-0.064	-0.181
-156.706	34.833	0.173	-0.148
-155.691	-132.485	-0.077	-0.010
-154.677	-68.688	-0.205	0.078
-153.662	668.596	0.048	-0.121
-152.647	495.592	0.085	0.192
-151.633	2.951	0.295	-0.209
-150.618	-72.498	-0.201	0.073
-149.604	-168.157	-0.188	-0.007
-148.589	-200.000	-0.002	-0.168
-147.574	-127.403	-0.290	0.041
-146.560	84.569	-0.167	0.179
-145.545	-200.000	0.049	0.504
-144.531	-4.378	-0.102	-0.069
-143.516	-88.428	-0.205	0.060
-142.502	-200.000	0.007	0.323
-141.487	800.000	0.071	0.193
-140.472	800.000	0.098	0.333
-139.458	122.711	0.106	0.129
-138.443	199.246	0.196	0.294
-137.429	-200.000	0.018	0.159
-136.414	-139.316	0.224	0.024
-135.399	-102.423	-0.287	-0.067
-134.385	-76.068	-0.099	0.034
-133.370	-139.878	-0.108	-0.011
-132.356	-200.000	-0.029	-0.326
-131.341	-90.973	-0.082	0.023
-130.326	-74.155	0.141	0.050
-129.312	335.906	0.214	0.406
-128.297	-148.512	0.382	0.030
-127.283	-57.542	-0.099	-0.042
-126.268	-80.555	0.031	0.010
-125.253	-150.503	0.415	-0.031
-124.239	33.142	-0.157	0.133
-123.224	98.281	0.069	-0.078
-122.210	53.591	0.315	-0.295
-121.195	800.000	0.058	0.175
-120.180	-57.702	0.125	-0.054
-119.166	800.000	0.018	0.065
-118.151	308.601	-0.052	-0.095
-117.137	-200.000	0.012	-0.346
-116.122	80.651	0.083	-0.088
-115.107	258.322	-0.041	0.069
-114.093	-10.638	-0.214	0.139
-113.078	208.980	0.060	-0.092
-112.064	-111.440	0.134	-0.027
-111.049	-94.221	-0.194	0.052
-110.034	171.349	-0.119	-0.167
-109.020	-123.067	-0.150	0.024
-108.005	25.751	-0.230	-0.187
-106.991	58.543	0.303	-0.290
-105.976	116.216	0.164	0.196
-104.962	-45.637	-0.188	-0.091
-103.947	142.496	0.203	-0.263
-102.932	113.278	0.057	0.068
-101.918	-45.180	0.196	0.095
-100.903	-80.186	0.293	0.096
-99.889	109.316	-0.109	0.128
-98.874	800.000	0.062	-0.214
-97.859	-200.000	-0.006	-0.186
-96.845	800.000	-0.036	0.144
-95.830	-36.513	0.404	0.212
-94.816	141.008	0.100	0.129
-93.801	139.388	-0.225	0.289
-92.786	148.490	0.171	0.226
-91.772	800.000	-0.044	-0.119
-90.757	-90.852	-0.227	-0.064
-89.743	-134.468	0.162	-0.019
-88.728	-97.892	0.221	0.056
-87.713	259.693	0.060	-0.102
-86.699	-200.000	-0.003	-0.069
-85.684	385.709	-0.084	0.169
-84.670	19.333	0.314	0.246
-83.655	158.607	0.054	-0.073
-82.640	-200.000	-0.103	0.448
-81.626	-10.765	0.098	0.063
-80.611	125.353	0.218	-0.268
-79.597	-154.775	-0.171	0.011
-78.582	-23.915	0.173	-0.101
-77.567	214.148	-0.047	0.073
-76.553	179.397	0.193	-0.275
-75.538	295.154	-0.095	-0.169
-74.524	800.000	0.084	0.354
-73.509	-18.745	0.175	0.106
-72.494	-13.291	-0.192	0.121
-71.480	781.246	0.147	-0.393
-70.465	16.682	0.089	-0.069
-69.451	-49.849	0.165	0.076
-68.436	81.110	-0.059	-0.062
-67.422	-80.909	-0.050	-0.016
-66.407	-32.969	0.178	0.097
-65.392	346.564	0.115	0.221
-64.378	-175.349	0.228	-0.006
-63.363	203.166	-0.109	-0.164
-62.349	-93.477	-0.246	0.066
-61.334	132.634	-1.012	-1.272
-60.319	64.454	0.913	0.897
-59.305	200.207	-0.704	-1.054
-58.290	559.039	0.649	1.528
-57.276	-200.000	0.249	1.105
-56.261	-200.000	135.623	681.189
-55.246	337.983	1678.593	3182.182
-54.232	133.994	2803.313	3537.988
-53.217	87.730	2171.996	2344.609
-52.203	31.934	1602.997	1345.590
-51.188	24.008	1352.461	1087.046
-50.173	21.886	1315.736	1044.858
-49.159	49.677	1390.023	1275.776
-48.144	45.937	1398.854	1260.906
-47.130	24.122	1346.691	1082.929
-46.115	21.014	1326.755	1048.201
-45.100	20.711	1322.160	1042.715
-44.086	20.784	1319.128	1040.718
-43.071	20.734	1316.846	1038.580
-42.057	20.681	1315.056	1036.813
-41.042	20.699	1313.506	1035.656
-40.027	20.743	1311.689	1034.443
-39.013	20.753	1310.064	1033.181
-37.998	20.682	1308.332	1031.350
-36.984	20.814	1306.011	1030.261
-35.969	20.778	1304.579	1028.877
-34.954	20.859	1302.886	1027.978
-33.940	20.818	1302.109	1027.083
-32.925	20.849	1300.651	1026.076
-31.911	20.894	1299.153	1025.122
-30.896	20.883	1297.560	1023.759
-29.881	20.879	1296.349	1022.736
-28.867	21.019	1294.521	1022.073
-27.852	20.927	1293.496	1020.687
-26.838	20.846	1292.251	1019.189
-25.823	20.852	1290.941	1018.149
-24.809	20.863	1289.408	1016.963
-23.794	20.901	1288.432	1016.376
-22.779	20.933	1287.324	1015.651
-21.765	21.039	1285.212	1014.559
-20.750	20.898	1284.544	1013.171
-19.736	20.891	1282.928	1011.819
-18.721	20.739	1282.387	1010.468
-17.706	20.812	1281.010	1009.764
-16.692	20.866	1279.930	1009.187
-15.677	20.761	1278.875	1007.710
-14.663	20.668	1277.930	1006.383
-13.648	20.766	1276.757	1005.988
-12.633	20.791	1275.503	1005.102
-11.619	20.779	1274.553	1004.244
-10.604	20.901	1273.874	1004.376
-9.590	20.648	1273.828	1002.839
-8.575	20.672	1272.129	1001.599
-7.560	20.675	1271.721	1001.255
-6.546	20.688	1270.279	1000.158
-5.531	20.690	1269.552	999.557
-4.517	20.683	1269.054	999.087
-3.502	20.722	1268.136	998.544
-2.487	20.832	1266.522	997.864
-1.473	20.670	1262.451	993.692
-0.458	19.035	1247.460	972.622
0.556	14.879	1232.285	936.651
1.571	11.365	1240.061	922.635
2.586	10.755	1256.080	930.971
3.600	10.966	1243.193	922.536
4.615	8.247	1171.278	854.552
5.629	3.102	1101.751	777.786
6.644	0.719	1086.097	754.777
7.659	0.671	1084.275	753.204
8.673	0.604	1083.417	752.209
9.688	0.646	1081.902	751.297
10.702	0.827	1078.888	750.037
11.717	4.093	1082.202	768.494
12.731	10.313	1091.254	805.893
13.746	15.466	1098.514	836.938
14.761	17.290	1099.978	847.074
15.775	16.627	1098.224	842.350
16.790	15.709	1096.537	836.420
17.804	14.921	1094.789	831.094
18.819	14.615	1093.742	828.711
19.834	14.457	1092.506	826.917
20.848	14.207	1091.897	825.140
21.863	14.015	1090.937	823.390
22.877	13.661	1090.700	821.386
23.892	13.694	1089.603	820.650
24.907	13.678	1089.051	820.081
25.921	13.811	1088.219	820.042
26.936	13.795	1086.951	818.934
27.950	13.880	1085.976	818.545
28.965	13.889	1085.053	817.823
29.980	13.948	1083.600	816.946
30.994	14.054	1082.484	816.555
32.009	13.965	1081.851	815.566
33.023	13.883	1081.022	814.465
34.038	13.917	1079.431	813.360
35.053	13.950	1078.905	813.057
36.067	13.720	1078.618	811.641
37.082	13.836	1077.483	811.281
38.096	13.887	1076.484	810.707
39.111	13.925	1075.990	810.452
40.126	13.852	1074.565	808.949
41.140	13.741	1073.323	807.400
42.155	13.784	1071.868	806.443
43.169	13.653	1071.390	805.376
44.184	13.812	1070.065	805.082
45.199	13.694	1069.336	803.892
46.213	13.902	1067.817	803.682
47.228	13.790	1066.849	802.341
48.242	13.759	1065.821	801.348
49.257	13.882	1064.988	801.245
50.271	13.792	1064.220	800.161
51.286	13.816	1063.367	799.566
52.301	13.939	1061.930	799.008
53.315	13.865	1061.138	797.986
54.330	13.917	1060.046	797.339
55.344	13.887	1058.969	796.316
56.359	13.792	1058.212	795.223
57.374	13.781	1057.723	794.734
58.388	13.806	1056.699	794.010
59.403	13.708	1056.244	793.131
60.417	13.789	1055.004	792.517
61.432	13.615	1054.744	791.419
62.447	13.730	1053.300	790.815
63.461	13.752	1052.470	790.229
64.476	13.709	1051.412	789.157
65.490	13.642	1051.103	788.539
66.505	13.687	1050.041	787.885
67.520	13.826	1048.787	787.532
68.534	13.778	1048.368	786.922
69.549	13.714	1047.675	786.029
70.563	13.689	1046.741	785.138
71.578	13.728	1046.046	784.732
72.593	13.782	1044.957	784.102
73.607	13.626	1044.897	783.249
74.622	13.716	1043.972	782.914
75.636	13.522	1043.648	781.684
76.651	13.522	1042.993	781.124
77.666	13.659	1041.965	780.932
78.680	13.548	1041.268	779.818
79.695	13.819	1040.277	780.282
80.709	13.695	1039.915	779.357
81.724	13.672	1039.645	778.977
82.739	13.796	1038.733	778.807
83.753	13.757	1038.084	778.072
84.768	14.006	1036.487	777.968
85.782	13.931	1035.907	777.114
86.797	13.897	1035.243	776.388
87.812	13.881	1033.727	775.108
88.826	13.875	1032.987	774.456
89.841	13.905	1032.122	773.878
90.855	13.774	1031.229	772.532
91.870	13.993	1030.416	772.875
92.884	13.942	1029.348	771.765
93.899	13.968	1028.302	771.033
94.914	14.007	1027.687	770.685
95.928	14.071	1026.977	770.383
96.943	13.926	1026.291	769.128
97.957	13.834	1025.401	767.968
98.972	13.873	1024.443	767.363
99.987	13.874	1023.626	766.687
101.001	13.889	1022.225	765.640
102.016	13.884	1021.721	765.170
103.030	13.907	1020.862	764.568
104.045	14.028	1019.698	764.181
105.060	13.854	1018.831	762.667
106.074	13.885	1018.309	762.352
107.089	13.770	1017.380	761.062
108.103	13.756	1016.183	760.035
109.118	13.883	1015.339	759.917
110.133	13.745	1014.600	758.665
111.147	13.853	1013.328	758.138
112.162	13.755	1012.493	757.002
113.176	13.932	1011.800	757.222
114.191	13.856	1011.231	756.384
115.206	13.884	1010.488	755.889
116.220	13.871	1009.643	755.128
117.235	13.947	1008.553	754.592
118.249	13.835	1007.870	753.508
119.264	13.944	1007.260	753.481
120.279	13.828	1006.540	752.350
121.293	13.908	1005.386	751.780
122.308	13.805	1004.595	750.658
123.322	13.815	1003.819	750.055
124.337	13.887	1002.664	749.452
125.352	13.766	1001.633	748.068
126.366	13.738	1000.655	747.148
127.381	13.888	999.386	746.807
128.395	13.861	998.433	745.906
129.410	13.715	997.289	744.334
130.424	13.835	996.686	744.355
131.439	13.861	995.558	743.561
132.454	13.876	994.551	742.810
133.468	13.811	994.159	742.161
134.483	13.849	993.393	741.695
135.497	13.919	992.013	740.909
136.512	13.866	991.572	740.281
137.527	13.840	990.972	739.649
138.541	13.860	990.419	739.261
139.556	14.015	989.091	738.893
140.570	14.036	988.308	738.335
141.585	13.971	987.321	737.245
142.600	14.005	986.609	736.802
143.614	14.004	986.046	736.308
144.629	14.185	984.768	736.092
145.643	14.140	983.753	735.070
146.658	13.990	983.229	733.948
147.673	14.076	982.196	733.494
148.687	14.009	981.229	732.409
149.702	14.118	980.088	731.975
150.716	14.046	979.429	731.103
151.731	13.945	979.331	730.517
152.746	14.003	978.136	729.817
153.760	13.919	977.765	729.106
154.775	14.162	976.719	729.327
155.789	14.292	975.751	729.108
156.804	14.222	975.408	728.482
157.819	14.156	974.850	727.714
158.833	14.265	974.260	727.686
159.848	14.171	973.369	726.542
160.862	14.234	972.333	725.980
161.877	14.205	971.431	725.115
162.892	14.213	970.426	724.338
163.906	14.146	969.595	723.362
164.921	14.236	968.542	722.904
165.935	14.192	967.716	722.031
166.950	14.185	966.752	721.219
167.964	14.218	965.973	720.719
168.979	14.273	964.957	720.132
169.994	14.348	964.039	719.708
171.008	14.356	963.662	719.397
172.023	14.307	962.986	718.619
173.037	14.381	961.933	718.086
174.052	14.249	961.469	717.107
175.067	14.292	960.697	716.654
176.081	14.184	960.361	715.875
177.096	14.496	959.152	716.254
178.110	14.353	959.068	715.510
179.125	14.409	958.290	715.110
180.140	14.398	958.113	714.864
181.154	14.250	958.040	714.115
182.169	14.287	957.116	713.519
183.183	14.501	956.211	713.696
184.198	14.546	954.690	712.694
185.213	14.303	954.648	711.558
186.227	14.580	953.680	711.956
187.242	14.613	953.091	711.595
188.256	14.497	952.683	710.735
189.271	14.413	951.780	709.638
190.286	14.447	951.208	709.293
191.300	14.424	950.453	708.570
192.315	14.270	950.302	707.738
193.329	14.387	949.635	707.679
194.344	14.504	948.474	707.247
195.359	14.555	947.878	706.956
196.373	14.386	947.998	706.264
197.388	14.521	947.193	706.177
198.402	14.615	946.374	705.900
199.417	14.805	945.339	705.870
200.432	14.823	944.795	705.475
201.446	14.736	944.399	704.752
202.461	14.690	944.028	704.216
203.475	14.737	943.384	703.874
204.490	14.709	942.702	703.185
205.504	14.632	942.026	702.292
206.519	14.856	941.060	702.451
207.534	14.721	940.248	701.218
208.548	14.742	939.833	700.935
209.563	14.782	939.158	700.537
210.577	14.876	938.250	700.191
211.592	14.771	937.739	699.307
212.607	14.893	936.852	699.095
213.621	14.724	936.609	698.144
214.636	14.898	935.772	698.186
215.650	14.978	934.491	697.501
216.665	14.879	934.231	696.835
217.680	15.081	933.118	696.783
218.694	15.015	932.782	696.194
219.709	14.997	932.549	695.884
220.723	14.909	931.532	694.701
221.738	15.007	930.719	694.438
222.753	15.022	930.070	693.953
223.767	15.068	929.265	693.481
224.782	15.140	928.850	693.409
225.796	15.105	928.362	692.838
226.811	15.109	927.772	692.357
227.826	15.179	926.850	691.893
228.840	15.040	926.442	690.956
229.855	15.091	925.247	690.212
230.869	15.184	924.528	689.998
231.884	15.079	924.197	689.259
232.899	15.067	923.526	688.645
233.913	15.045	922.424	687.674
234.928	15.075	921.747	687.233
235.942	15.208	921.081	687.219
236.957	15.055	920.934	686.423
237.972	15.078	920.028	685.782
238.986	15.090	919.299	685.225
240.001	15.123	919.017	685.090
241.015	15.189	918.137	684.642
242.030	15.238	917.516	684.319
243.045	15.235	916.939	683.814
244.059	15.252	916.622	683.591
245.074	15.281	915.792	683.025
246.088	15.309	915.020	682.506
247.103	15.290	914.487	681.968
248.117	15.256	914.121	681.499
249.132	15.379	913.205	681.254
250.147	15.319	912.878	680.706
251.161	15.369	912.062	680.241
252.176	15.542	911.105	680.167
253.190	15.553	910.650	679.812
254.205	15.554	910.004	679.272
255.220	15.544	909.568	678.847
256.234	15.659	908.699	678.602
257.249	15.498	908.280	677.582
258.263	15.637	907.508	677.504
259.278	15.717	906.133	676.740
260.293	15.580	906.231	676.201
261.307	15.620	905.496	675.754
262.322	15.630	904.908	675.296
263.336	15.626	903.951	674.506
264.351	15.707	903.362	674.332
265.366	15.702	902.702	673.762
266.380	15.791	901.666	673.285
267.395	15.849	901.014	672.970
268.409	15.801	900.411	672.266
269.424	15.682	899.476	671.035
270.439	15.746	899.076	670.932
271.453	15.709	898.601	670.370
272.468	15.840	897.871	670.287
273.482	15.674	897.326	669.163
274.497	15.719	896.995	669.036
275.512	15.901	896.128	669.054
276.526	15.801	895.625	668.221
277.541	15.778	895.747	668.161
278.555	15.898	894.640	667.752
279.570	15.885	893.815	667.027
280.585	16.178	892.742	667.324
281.599	15.964	892.185	666.004
282.614	16.076	891.530	665.898
283.628	15.948	891.108	665.019
284.643	15.949	890.227	664.307
285.657	16.053	889.712	664.272
286.672	15.962	889.345	663.581
287.687	16.013	888.710	663.252
288.701	15.966	887.945	662.435
289.716	16.145	887.251	662.562
290.730	16.092	886.456	661.700
291.745	16.053	886.348	661.410
292.760	16.191	885.490	661.252
293.774	16.190	884.857	660.718
294.789	16.204	884.297	660.297
295.803	16.048	883.738	659.208
296.818	16.138	882.946	658.912
297.833	16.184	882.349	658.587
298.847	16.150	881.374	657.669
299.862	16.269	880.784	657.633
300.876	16.309	880.390	657.438
301.891	16.433	879.517	657.211
302.906	16.401	879.139	656.747
303.920	16.497	878.317	656.447
304.935	16.394	878.123	655.841
305.949	16.454	877.428	655.498
306.964	16.378	876.787	654.669
307.979	16.384	876.232	654.217
308.993	16.416	875.399	653.660
310.008	16.421	874.728	653.124
311.022	16.404	874.502	652.832
312.037	16.356	873.921	652.155
313.052	16.378	873.088	651.559
314.066	16.435	872.429	651.230
315.081	16.514	871.923	651.097
316.095	16.516	871.208	650.514
317.110	16.556	870.517	650.095
318.125	16.402	870.516	649.445
319.139	16.451	870.099	649.263
320.154	16.449	869.402	648.677
321.168	16.593	868.817	648.739
322.183	16.529	868.316	648.060
323.197	16.488	867.667	647.361
324.212	16.592	867.299	647.428
325.227	16.560	866.581	646.711
326.241	16.534	866.062	646.167
327.256	16.575	865.648	645.960
328.270	16.642	865.078	645.731
329.285	16.747	864.225	645.438
330.300	16.622	863.471	644.344
331.314	16.646	863.173	644.153
332.329	16.600	862.809	643.649
333.343	16.714	862.656	643.914
334.358	16.709	861.894	643.266
335.373	16.777	861.102	642.878
336.387	16.868	860.833	642.967
337.402	16.723	861.124	642.574
338.416	16.795	860.436	642.279
339.431	16.866	860.005	642.168
340.446	17.006	859.489	642.256
341.460	16.949	858.879	641.530
342.475	16.978	858.840	641.553
343.489	16.931	858.029	640.713
344.504	16.959	857.507	640.373
345.519	17.123	857.248	640.740
346.533	16.946	856.895	639.751
347.548	16.928	856.223	639.127
348.562	16.986	855.535	638.775
349.577	17.062	855.114	638.689
350.592	17.008	854.196	637.745
351.606	16.989	853.826	637.339
352.621	16.998	853.150	636.813
353.635	17.086	852.139	636.331
354.650	16.979	851.844	635.654
355.665	17.036	851.123	635.275
356.679	17.012	850.402	634.589
357.694	17.107	849.988	634.578
358.708	17.151	848.999	633.949
359.723	17.186	848.986	634.015
360.738	17.336	847.760	633.602
361.752	17.177	847.715	632.921
362.767	17.181	847.071	632.396
363.781	17.300	846.422	632.300
364.796	17.310	845.918	631.903
365.810	17.351	845.259	631.507
366.825	17.193	844.901	630.597
367.840	17.373	844.404	630.839
368.854	17.313	843.808	630.118
369.869	17.407	843.327	630.049
370.883	17.331	843.226	629.635
371.898	17.525	842.896	630.053
372.913	17.529	842.360	629.611
373.927	17.345	842.113	628.691
374.942	17.464	841.467	628.593
375.956	17.418	840.838	627.896
376.971	17.516	840.216	627.738
377.986	17.591	840.087	627.861
379.000	17.648	839.780	627.788
380.015	17.555	839.342	627.062
381.029	17.628	838.558	626.688
382.044	17.677	837.818	626.262
383.059	17.630	837.405	625.725
384.073	17.699	836.438	625.199
385.088	17.682	835.887	624.668
386.102	17.589	835.761	624.179
387.117	17.633	834.616	623.430
388.132	17.611	834.401	623.133
389.146	17.764	833.955	623.304
390.161	17.664	833.490	622.536
391.175	17.664	833.136	622.217
392.190	17.741	831.979	621.580
393.205	17.680	831.966	621.292
394.219	17.724	831.442	621.007
395.234	17.563	831.623	620.501
396.248	17.705	830.483	620.111
397.263	17.644	830.346	619.731
398.278	17.734	829.745	619.553
399.292	17.669	829.110	618.791
400.307	17.722	828.586	618.536
401.321	17.778	828.201	618.398
402.336	17.809	827.627	618.026
403.350	17.753	827.587	617.739
404.365	17.806	827.070	617.490
405.380	17.902	826.556	617.401
406.394	18.126	826.057	617.783
407.409	18.104	825.335	617.108
408.423	17.909	825.314	616.332
409.438	18.096	824.781	616.556
410.453	18.071	824.222	615.991
411.467	18.106	823.966	615.872
412.482	18.049	823.592	615.334
413.496	18.096	823.026	615.027
414.511	18.168	822.760	615.029
415.526	18.281	821.977	614.799
416.540	18.013	822.359	614.066
417.555	18.185	821.245	613.797
418.569	18.184	821.113	613.640
419.584	18.219	820.174	613.009
420.599	18.192	819.882	612.642
421.613	116.060	1301.325	1492.107
422.628	100.712	1371.428	1492.173
