DTS Sentinel unit serial number:	SN413079Multiplexer serial number:	ORYXHardware model number:	OX4-SRSoftware version number:	ORYX F/W v4.00 Oryx Data Collector v3.7.2.0data status	okinstallation	princeton_trtdifferential loss correction	single-endedforward channel	channel 1reverse channel	N/Adate	2019/09/19time	11:34:35forward acquisition time	60.00reverse acquisition time	0.00gamma	496.2192k internal	0.2338k external	0.2338temperature offset calibration	1.0010default loss term (dB/km)	0.3790temperature slope calibration	1.0000multiplexer offset coefficient	1.0000multiplexer slope coefficient	1.0000fibre end	0.00T internal ref (°C)	25.50T ext. ref 1 (°C)	0.80T ext. ref 2 (°C)	21.25length (m)	temperature (°C)	Stokes	anti-Stokes-747.200	45.140	-0.167	-0.154
-746.185	-61.476	0.127	-0.054
-745.171	-127.767	-0.079	0.011
-744.156	-14.273	-0.280	0.181
-743.142	-21.287	0.225	0.138
-742.127	-67.661	-0.457	0.180
-741.112	-95.474	0.147	0.039
-740.098	-200.000	-0.001	-0.118
-739.083	1.578	0.271	-0.196
-738.069	-99.533	0.246	-0.062
-737.054	800.000	-0.107	-0.392
-736.039	-46.165	0.203	0.100
-735.025	800.000	0.057	-0.207
-734.010	346.573	-0.061	-0.121
-732.996	437.759	-0.039	0.085
-731.981	-105.236	-0.417	-0.095
-730.966	-110.630	0.166	-0.034
-729.952	-139.169	0.173	-0.019
-728.937	149.890	-0.236	-0.321
-727.923	112.874	0.148	0.180
-726.908	-200.000	-0.023	-0.201
-725.894	24.657	0.095	-0.079
-724.879	-18.739	-0.080	-0.050
-723.864	-52.720	-0.050	-0.023
-722.850	-200.000	-0.031	0.197
-721.835	-200.000	0.020	0.145
-720.821	800.000	-0.028	-0.095
-719.806	-83.865	0.103	0.033
-718.791	-112.161	0.430	-0.087
-717.777	149.645	-0.167	-0.227
-716.762	-112.648	-0.344	-0.069
-715.748	5.674	0.157	0.116
-714.733	800.000	0.166	-0.492
-713.718	-200.000	-0.026	-0.372
-712.704	40.654	0.183	-0.165
-711.689	-200.000	0.019	0.340
-710.675	168.120	0.053	0.076
-709.660	48.719	0.250	0.235
-708.645	315.410	0.115	-0.217
-707.631	-200.000	0.034	-0.244
-706.616	-200.000	0.009	-0.135
-705.602	-185.819	0.282	-0.004
-704.587	-90.209	-0.169	0.049
-703.572	-166.473	0.189	-0.008
-702.558	-25.562	0.136	-0.080
-701.543	-200.000	0.012	0.247
-700.529	67.637	-0.139	-0.142
-699.514	-84.041	0.190	-0.060
-698.499	-43.688	-0.118	-0.060
-697.485	179.346	-0.156	-0.229
-696.470	-92.338	0.243	0.068
-695.456	-200.000	-0.365	0.001
-694.441	800.000	0.096	-0.294
-693.426	800.000	-0.123	-0.448
-692.412	8.679	-0.151	0.114
-691.397	3.629	-0.132	-0.096
-690.383	239.447	-0.079	0.131
-689.368	8.664	0.122	-0.092
-688.354	232.294	0.098	-0.161
-687.339	-200.000	-0.004	-0.179
-686.324	-56.676	0.220	-0.098
-685.310	-15.854	-0.122	0.078
-684.295	346.077	0.175	-0.344
-683.281	86.982	-0.125	-0.138
-682.266	114.467	-0.088	-0.107
-681.251	198.739	0.065	0.100
-680.237	-200.000	0.003	0.132
-679.222	762.624	0.129	-0.352
-678.208	-20.717	-0.276	-0.170
-677.193	-200.000	0.015	-0.164
-676.178	15.347	-0.027	-0.021
-675.164	312.856	0.057	-0.108
-674.149	-142.722	0.175	-0.017
-673.135	158.141	-0.180	0.250
-672.120	-68.724	-0.275	0.106
-671.105	-200.000	-0.026	-0.241
-670.091	73.069	0.204	0.213
-669.076	-130.831	-0.413	0.055
-668.062	258.470	0.017	-0.030
-667.047	27.017	0.108	0.091
-666.032	-95.601	-0.175	-0.047
-665.018	58.524	0.150	0.148
-664.003	-193.951	0.215	0.002
-662.989	-125.103	-0.206	0.032
-661.974	-35.247	0.349	-0.190
-660.959	668.834	0.163	-0.422
-659.945	-129.591	-0.263	-0.036
-658.930	152.679	0.061	0.084
-657.916	800.000	-0.034	0.116
-656.901	397.901	-0.128	0.267
-655.886	240.906	-0.126	0.211
-654.872	-155.908	0.150	-0.010
-653.857	-168.901	-0.182	-0.007
-652.843	35.403	-0.149	-0.130
-651.828	-147.307	-0.210	-0.018
-650.814	179.959	0.214	0.313
-649.799	106.048	-0.200	-0.237
-648.784	168.439	-0.065	-0.093
-647.770	-93.767	0.401	0.111
-646.755	76.724	-0.055	0.058
-645.741	10.486	0.171	0.130
-644.726	-22.637	-0.403	0.244
-643.711	46.469	0.241	-0.224
-642.697	380.980	-0.197	-0.405
-641.682	-116.088	-0.343	0.064
-640.668	59.910	0.051	-0.050
-639.653	186.328	-0.129	-0.193
-638.638	800.000	-0.068	-0.255
-637.624	-39.038	-0.219	0.115
-636.609	61.038	0.134	0.133
-635.595	800.000	-0.086	-0.282
-634.580	-192.576	-0.137	0.001
-633.565	800.000	-0.030	-0.108
-632.551	-200.000	0.012	-0.533
-631.536	-27.731	-0.109	0.063
-630.522	50.142	0.066	0.062
-629.507	182.014	0.086	0.126
-628.492	747.329	0.084	-0.226
-627.478	125.813	0.043	-0.054
-626.463	-98.553	0.231	0.059
-625.449	-154.269	0.141	0.010
-624.434	21.014	0.243	-0.197
-623.419	800.000	0.077	0.319
-622.405	800.000	0.067	-0.188
-621.390	-94.776	0.165	0.045
-620.376	-141.829	-0.351	-0.035
-619.361	-200.000	0.039	-0.247
-618.346	800.000	0.057	0.211
-617.332	197.526	-0.087	0.133
-616.317	-134.820	-0.069	0.008
-615.303	-200.000	-0.030	0.156
-614.288	-102.510	0.116	-0.028
-613.273	-103.934	0.042	-0.010
-612.259	-39.945	0.026	0.013
-611.244	294.054	0.152	-0.277
-610.230	17.206	0.093	-0.074
-609.215	-101.804	0.316	-0.076
-608.201	85.368	-0.064	-0.070
-607.186	-200.000	0.027	0.141
-606.171	800.000	-0.117	0.423
-605.157	-186.037	-0.142	0.002
-604.142	23.385	-0.178	-0.146
-603.128	-200.000	-0.016	-0.161
-602.113	433.719	-0.106	-0.229
-601.098	376.379	0.016	0.034
-600.084	-96.441	-0.136	-0.036
-599.069	800.000	-0.023	0.069
-598.055	-200.000	-0.058	0.400
-597.040	34.514	0.065	0.056
-596.025	-200.000	0.001	-0.321
-595.011	202.409	0.108	-0.166
-593.996	35.446	-0.103	-0.091
-592.982	494.375	-0.090	-0.205
-591.967	409.496	0.213	0.449
-590.952	35.143	0.151	-0.132
-589.938	-109.462	0.148	0.031
-588.923	21.218	-0.190	-0.154
-587.909	-140.986	0.140	0.014
-586.894	800.000	-0.051	-0.186
-585.879	53.394	-0.230	-0.219
-584.865	85.519	-0.203	-0.223
-583.850	239.957	0.070	0.116
-582.836	-126.162	-0.144	0.022
-581.821	31.866	-0.166	-0.142
-580.806	-200.000	0.011	0.127
-579.792	-52.339	-0.127	-0.059
-578.777	-101.090	-0.248	-0.061
-577.763	14.558	-0.137	0.107
-576.748	-45.769	0.245	-0.121
-575.733	800.000	0.098	0.336
-574.719	-200.000	-0.006	0.075
-573.704	364.941	-0.068	0.136
-572.690	244.036	-0.082	0.137
-571.675	-200.000	0.013	0.129
-570.661	-60.818	-0.208	-0.088
-569.646	394.768	0.092	0.190
-568.631	40.138	0.121	-0.109
-567.617	-200.000	0.029	-0.324
-566.602	446.931	0.062	-0.135
-565.588	-72.162	0.107	-0.039
-564.573	-16.920	0.071	0.044
-563.558	-169.842	-0.350	0.013
-562.544	254.603	0.159	0.270
-561.529	433.413	0.191	-0.413
-560.515	-64.077	0.189	-0.077
-559.500	800.000	-0.043	0.132
-558.485	-29.000	-0.334	0.191
-557.471	-200.000	-0.034	-0.228
-556.456	-200.000	0.008	0.191
-555.442	132.532	-0.124	0.159
-554.427	-43.359	-0.144	0.072
-553.412	186.766	-0.135	0.200
-552.398	-29.332	0.276	0.157
-551.383	204.856	0.021	0.032
-550.369	-120.334	-0.076	0.013
-549.354	-68.629	-0.087	-0.034
-548.339	66.650	-0.169	-0.171
-547.325	-132.492	-0.143	-0.018
-546.310	-80.539	0.106	-0.035
-545.296	52.227	-0.123	-0.116
-544.281	-45.794	-0.250	-0.123
-543.266	197.797	-0.124	-0.189
-542.252	386.450	-0.145	-0.299
-541.237	-91.000	-0.265	-0.076
-540.223	-19.021	0.225	0.139
-539.208	16.526	-0.336	-0.264
-538.193	-102.427	-0.158	-0.038
-537.179	-200.000	-0.004	0.082
-536.164	800.000	-0.090	-0.331
-535.150	-122.813	-0.091	0.015
-534.135	-153.654	0.253	0.017
-533.121	124.932	-0.168	0.211
-532.106	-200.000	0.007	0.060
-531.091	115.363	-0.178	0.216
-530.077	769.396	0.042	-0.113
-529.062	97.860	0.180	0.206
-528.048	74.300	0.144	-0.150
-527.033	800.000	-0.109	-0.304
-526.018	-200.000	0.055	-0.288
-525.004	800.000	-0.090	-0.376
-523.989	20.794	0.169	-0.136
-522.975	-200.000	0.030	0.206
-521.960	-124.630	-0.177	-0.027
-520.945	672.812	0.107	-0.275
-519.931	-63.110	0.192	0.079
-518.916	43.599	-0.232	-0.211
-517.902	-200.000	0.027	0.263
-516.887	293.427	0.067	-0.121
-515.872	-52.575	-0.278	0.128
-514.858	-34.711	-0.140	0.076
-513.843	800.000	0.099	-0.298
-512.829	-99.605	0.433	-0.108
-511.814	-200.000	0.009	0.201
-510.799	-105.463	0.243	-0.055
-509.785	-76.443	-0.115	-0.040
-508.770	-169.014	-0.070	0.003
-507.756	-140.178	-0.128	0.013
-506.741	-200.000	-0.014	0.176
-505.726	800.000	0.090	0.381
-504.712	-97.003	0.320	-0.083
-503.697	-63.486	0.157	0.064
-502.683	800.000	-0.063	-0.223
-501.668	-171.704	-0.118	-0.004
-500.653	-4.545	0.311	-0.214
-499.639	-51.214	-0.272	0.126
-498.624	234.232	-0.078	-0.128
-497.610	157.621	0.190	0.262
-496.595	-200.000	0.012	-0.596
-495.581	6.839	0.199	-0.147
-494.566	-153.564	-0.178	-0.012
-493.551	-197.194	-0.186	-0.001
-492.537	-131.642	-0.200	0.026
-491.522	-200.000	0.015	-0.361
-490.508	-200.000	0.015	-0.278
-489.493	-200.000	-0.001	0.142
-488.478	-41.030	0.211	-0.108
-487.464	-21.538	0.135	0.082
-486.449	-200.000	-0.029	0.194
-485.435	186.478	0.123	-0.182
-484.420	-71.676	-0.216	0.080
-483.405	116.557	-0.101	0.123
-482.391	-200.000	0.033	-0.270
-481.376	800.000	-0.052	-0.210
-480.362	-200.000	-0.056	-0.359
-479.347	-120.296	-0.088	-0.015
-478.332	22.941	0.210	-0.171
-477.318	-200.000	-0.076	-0.439
-476.303	-200.000	0.018	-0.100
-475.289	16.869	0.214	-0.168
-474.274	800.000	-0.119	-0.340
-473.259	8.347	0.107	-0.080
-472.245	57.245	-0.113	0.109
-471.230	-179.485	-0.335	0.007
-470.216	-168.659	-0.329	-0.012
-469.201	-41.530	0.160	-0.082
-468.186	-117.747	0.226	-0.040
-467.172	185.534	0.117	-0.172
-466.157	228.963	0.124	-0.200
-465.143	-3.315	-0.155	-0.107
-464.128	37.964	-0.077	-0.068
-463.113	23.035	0.322	-0.262
-462.099	-200.000	0.012	0.087
-461.084	800.000	-0.086	0.245
-460.070	-70.884	0.114	0.043
-459.055	800.000	-0.050	0.206
-458.040	604.447	-0.059	0.147
-457.026	-21.575	-0.246	-0.149
-456.011	-149.177	0.268	-0.021
-454.997	-200.000	-0.020	-0.410
-453.982	359.356	0.187	0.370
-452.968	129.927	-0.257	0.326
-451.953	-127.225	-0.165	0.024
-450.938	-110.876	-0.288	0.059
-449.924	215.793	-0.099	-0.155
-448.909	-200.000	0.009	0.101
-447.895	670.862	-0.036	0.091
-446.880	19.657	0.157	-0.125
-445.865	800.000	-0.049	0.152
-444.851	85.105	0.090	-0.097
-443.836	-148.656	-0.109	-0.009
-442.822	-92.632	-0.043	-0.012
-441.807	208.476	0.160	0.248
-440.792	-14.485	0.407	-0.260
-439.778	236.904	0.181	0.297
-438.763	360.754	0.096	0.191
-437.749	-200.000	-0.033	-0.392
-436.734	181.261	0.113	-0.164
-435.719	-144.006	-0.097	0.009
-434.705	-97.856	-0.229	0.059
-433.690	-127.715	-0.096	0.014
-432.676	278.169	-0.143	0.253
-431.661	519.254	-0.105	0.244
-430.646	30.763	-0.221	0.187
-429.632	754.821	-0.070	0.187
-428.617	-113.079	-0.272	0.053
-427.603	-79.711	0.260	-0.087
-426.588	-41.490	-0.307	0.156
-425.573	-200.000	0.041	-0.272
-424.559	-200.000	0.021	-0.217
-423.544	-200.000	0.056	-0.276
-422.530	-85.876	0.159	0.049
-421.515	-91.330	-0.105	-0.030
-420.500	53.410	-0.197	-0.187
-419.486	104.360	-0.040	-0.047
-418.471	-200.000	-0.036	-0.175
-417.457	-88.119	-0.352	-0.105
-416.442	800.000	0.117	0.356
-415.428	197.410	0.034	0.052
-414.413	-24.548	0.167	-0.098
-413.398	282.132	0.074	-0.131
-412.384	-5.184	0.125	-0.085
-411.369	800.000	0.100	0.358
-410.355	46.839	0.153	0.141
-409.340	26.278	0.258	0.214
-408.325	-33.292	-0.163	-0.089
-407.311	800.000	0.147	0.613
-406.296	-99.941	0.357	0.088
-405.282	-200.000	-0.002	-0.244
-404.267	194.376	0.111	-0.167
-403.252	800.000	0.058	-0.215
-402.238	-24.559	-0.138	0.081
-401.223	-200.000	0.020	0.096
-400.209	34.005	0.154	0.133
-399.194	-200.000	0.004	0.191
-398.179	-104.459	-0.279	-0.064
-397.165	313.961	-0.103	-0.192
-396.150	218.510	0.068	-0.107
-395.136	-200.000	0.040	-0.414
-394.121	-152.248	0.131	0.009
-393.106	-200.000	-0.005	0.124
-392.092	34.209	-0.311	0.269
-391.077	-19.176	0.302	0.185
-390.063	-200.000	0.058	0.260
-389.048	213.654	-0.253	0.395
-388.033	342.356	-0.005	-0.009
-387.019	-123.150	0.217	-0.034
-386.004	-112.762	-0.338	-0.066
-384.990	-23.716	0.046	0.027
-383.975	800.000	-0.153	-0.423
-382.960	-32.558	0.241	-0.133
-381.946	-200.000	0.018	-0.397
-380.931	77.943	-0.171	0.181
-379.917	292.770	0.162	-0.292
-378.902	301.526	0.087	-0.158
-377.888	-127.683	0.283	-0.041
-376.873	152.610	0.122	0.164
-375.858	-53.429	-0.110	0.050
-374.844	-71.539	0.352	-0.130
-373.829	-90.323	0.182	-0.052
-372.815	21.645	-0.154	-0.124
-371.800	-7.180	-0.240	0.161
-370.785	-23.821	-0.037	0.022
-369.771	-200.000	-0.016	-0.245
-368.756	130.335	0.141	-0.178
-367.742	-200.000	0.051	0.343
-366.727	621.976	0.171	-0.424
-365.712	800.000	-0.080	0.255
-364.698	-110.170	0.129	-0.027
-363.683	-200.000	0.033	0.298
-362.669	-152.785	-0.130	0.009
-361.654	-103.239	0.193	0.045
-360.639	58.643	0.180	-0.175
-359.625	-41.402	-0.157	0.080
-358.610	-140.468	0.187	-0.019
-357.596	-103.936	-0.312	-0.072
-356.581	-186.374	0.651	-0.009
-355.566	91.962	0.228	0.254
-354.552	-200.000	0.005	0.024
-353.537	37.368	0.258	-0.226
-352.523	-108.119	0.246	0.053
-351.508	-67.906	-0.238	0.092
-350.493	-165.387	-0.214	-0.009
-349.479	601.212	-0.048	-0.118
-348.464	-52.802	0.299	0.136
-347.450	47.710	-0.215	0.199
-346.435	28.112	-0.130	-0.109
-345.420	228.972	0.212	-0.341
-344.406	-92.908	0.110	0.030
-343.391	-200.000	-0.034	-0.336
-342.377	7.812	0.128	-0.094
-341.362	36.421	-0.126	-0.110
-340.348	-44.487	-0.051	0.025
-339.333	-154.147	-0.311	-0.021
-338.318	-27.416	-0.365	0.210
-337.304	45.240	0.324	0.295
-336.289	-200.000	0.031	0.356
-335.275	46.733	-0.115	0.105
-334.260	-152.773	0.295	-0.021
-333.245	221.826	0.089	-0.141
-332.231	63.739	-0.069	-0.068
-331.216	118.024	-0.129	-0.157
-330.202	-153.676	-0.108	-0.007
-329.187	369.127	0.145	0.289
-328.172	93.629	-0.166	0.186
-327.158	151.910	0.046	-0.062
-326.143	-158.568	-0.082	-0.005
-325.129	-200.000	-0.034	-0.318
-324.114	245.598	-0.132	-0.219
-323.099	260.438	0.093	-0.158
-322.085	-200.000	0.046	0.201
-321.070	-167.919	0.138	-0.005
-320.056	5.636	-0.243	-0.177
-319.041	-200.000	-0.012	0.069
-318.026	-154.185	0.084	0.006
-317.012	-150.567	0.297	0.022
-315.997	157.407	0.139	-0.189
-314.983	-88.649	-0.079	-0.023
-313.968	440.798	-0.081	0.175
-312.953	68.386	0.092	-0.093
-311.939	-121.200	0.067	0.011
-310.924	-12.783	0.183	-0.118
-309.910	671.004	-0.011	0.028
-308.895	280.765	0.124	-0.218
-307.880	674.104	-0.100	-0.256
-306.866	128.931	-0.070	-0.088
-305.851	800.000	0.013	0.036
-304.837	800.000	0.136	0.481
-303.822	-41.529	-0.294	0.149
-302.807	-78.368	0.198	-0.067
-301.793	33.980	0.091	-0.078
-300.778	85.328	-0.108	-0.117
-299.764	594.467	0.099	-0.242
-298.749	152.571	-0.157	-0.211
-297.735	401.458	-0.053	-0.109
-296.720	-0.679	-0.222	0.155
-295.705	-200.000	0.039	-0.226
-294.691	-91.767	0.059	-0.016
-293.676	230.288	-0.155	-0.251
-292.662	267.512	-0.083	0.144
-291.647	341.575	-0.081	-0.157
-290.632	322.507	0.130	-0.244
-289.618	-59.726	-0.009	0.004
-288.603	-87.918	0.214	-0.063
-287.589	800.000	-0.069	-0.225
-286.574	-187.368	-0.156	-0.002
-285.559	81.823	0.048	-0.051
-284.545	-94.386	-0.222	0.060
-283.530	68.692	-0.120	-0.122
-282.516	-200.000	-0.001	0.193
-281.501	-200.000	-0.012	0.141
-280.486	-171.344	0.261	-0.009
-279.472	-200.000	-0.011	-0.124
-278.457	-200.000	-0.018	0.091
-277.443	77.985	0.233	-0.244
-276.428	766.559	-0.119	-0.320
-275.413	119.357	0.169	0.206
-274.399	19.623	-0.052	0.041
-273.384	800.000	0.067	-0.190
-272.370	62.417	0.230	0.226
-271.355	-103.679	0.444	-0.103
-270.340	800.000	0.053	0.194
-269.326	-200.000	0.016	0.089
-268.311	94.091	-0.212	0.237
-267.297	141.476	0.096	0.125
-266.282	-200.000	0.028	0.200
-265.267	800.000	0.008	0.029
-264.253	270.950	0.176	0.305
-263.238	-94.319	-0.270	0.073
-262.224	-64.673	0.278	0.111
-261.209	510.235	-0.127	0.291
-260.195	-72.559	-0.204	-0.074
-259.180	800.000	0.060	0.251
-258.165	-97.933	0.252	-0.064
-257.151	20.136	0.171	0.136
-256.136	84.514	0.119	-0.128
-255.122	-20.669	-0.139	-0.084
-254.107	-151.630	0.176	0.013
-253.092	-200.000	0.049	0.334
-252.078	11.246	-0.098	0.074
-251.063	-200.000	-0.051	0.285
-250.049	171.240	-0.144	-0.204
-249.034	363.217	0.093	0.184
-248.019	63.823	-0.286	-0.283
-247.005	556.287	0.184	0.436
-245.990	33.836	-0.179	-0.153
-244.976	-54.474	0.392	0.175
-243.961	163.159	0.239	0.331
-242.946	588.367	0.111	0.270
-241.932	-200.000	-0.038	0.442
-240.917	-16.398	-0.226	-0.141
-239.903	86.533	-0.094	0.102
-238.888	680.933	0.173	0.445
-237.873	717.597	-0.107	-0.280
-236.859	7.717	0.125	-0.092
-235.844	-200.000	0.010	0.314
-234.830	238.755	-0.094	0.154
-233.815	-109.296	-0.085	-0.018
-232.800	4.279	0.260	0.188
-231.786	-34.739	-0.153	-0.082
-230.771	-25.921	-0.180	-0.104
-229.757	-200.000	-0.019	0.402
-228.742	400.597	0.049	-0.100
-227.727	163.193	-0.246	-0.339
-226.713	265.923	-0.148	0.254
-225.698	-156.412	0.491	0.030
-224.684	-2.076	-0.250	-0.173
-223.669	-94.718	-0.260	0.069
-222.655	-54.677	0.137	0.061
-221.640	-200.000	0.063	0.444
-220.625	-200.000	-0.026	-0.179
-219.611	800.000	0.090	0.339
-218.596	800.000	0.048	-0.136
-217.582	-97.563	0.070	-0.018
-216.567	14.329	-0.225	0.172
-215.552	718.532	0.039	-0.101
-214.538	-200.000	0.024	0.134
-213.523	8.915	0.161	0.120
-212.509	-27.052	0.178	0.102
-211.494	261.879	-0.157	0.268
-210.479	-200.000	-0.039	0.471
-209.465	800.000	-0.080	0.276
-208.450	221.080	-0.087	0.138
-207.436	-200.000	0.005	-0.093
-206.421	-0.140	-0.144	0.101
-205.406	-96.030	-0.147	0.038
-204.392	-172.264	0.252	-0.008
-203.377	-75.498	0.249	0.087
-202.363	15.114	-0.230	0.177
-201.348	-16.727	0.388	-0.241
-200.333	-158.459	-0.343	0.020
-199.319	-200.000	0.021	0.359
-198.304	60.836	0.141	-0.137
-197.290	-96.521	-0.203	-0.053
-196.275	-200.000	0.051	0.389
-195.260	121.279	0.168	0.206
-194.246	175.704	-0.069	0.099
-193.231	-47.582	-0.344	0.164
-192.217	-116.171	0.240	-0.044
-191.202	-200.000	-0.040	-0.258
-190.187	-41.292	-0.224	-0.114
-189.173	-111.695	0.148	0.030
-188.158	287.123	-0.087	-0.154
-187.144	57.026	0.104	0.099
-186.129	54.361	-0.315	0.298
-185.114	-59.711	0.196	-0.082
-184.100	-80.819	-0.151	0.049
-183.085	-167.226	-0.101	0.004
-182.071	-10.686	0.144	0.093
-181.056	204.879	0.178	-0.271
-180.042	150.721	-0.136	0.181
-179.027	417.051	-0.091	0.192
-178.012	17.644	0.178	0.139
-176.998	-113.495	0.115	-0.022
-175.983	-200.000	-0.041	0.227
-174.969	-107.953	-0.271	0.058
-173.954	-156.124	0.349	-0.022
-172.939	-45.637	-0.073	-0.035
-171.925	111.344	-0.211	0.250
-170.910	-10.168	-0.119	-0.077
-169.896	-121.775	-0.252	-0.041
-168.881	-124.366	0.156	0.024
-167.866	-157.811	-0.223	-0.013
-166.852	800.000	0.045	0.169
-165.837	-119.371	0.376	-0.064
-164.823	-9.066	-0.073	0.048
-163.808	-95.846	0.347	-0.091
-162.793	6.458	-0.261	-0.190
-161.779	-200.000	-0.042	0.192
-160.764	-55.400	-0.235	0.104
-159.750	485.559	-0.110	0.245
-158.735	400.708	0.141	-0.290
-157.720	5.258	-0.228	-0.165
-156.706	-103.828	0.192	0.044
-155.691	766.208	-0.068	-0.180
-154.677	800.000	-0.101	0.287
-153.662	-200.000	-0.002	0.207
-152.647	-200.000	-0.003	0.434
-151.633	132.270	0.137	-0.173
-150.618	-160.611	0.145	0.008
-149.604	-200.000	0.041	-0.632
-148.589	-29.376	0.249	0.140
-147.574	129.030	-0.062	0.078
-146.560	-109.741	-0.194	0.040
-145.545	354.118	-0.160	0.312
-144.531	-152.923	0.354	0.025
-143.516	173.113	-0.067	0.094
-142.502	641.338	-0.061	0.152
-141.487	-200.000	0.002	0.073
-140.472	800.000	0.057	0.225
-139.458	-74.069	-0.409	0.145
-138.443	-2.824	0.360	0.246
-137.429	-144.693	-0.017	0.002
-136.414	-200.000	-0.007	-0.060
-135.399	-200.000	-0.047	-0.268
-134.385	-128.300	0.427	0.060
-133.370	-200.000	-0.023	0.193
-132.356	-200.000	0.005	0.179
-131.341	-30.775	-0.079	0.044
-130.326	277.523	-0.113	0.197
-129.312	466.821	0.070	-0.155
-128.297	-200.000	0.024	0.283
-127.283	-1.692	0.098	0.067
-126.268	699.285	0.114	0.295
-125.253	83.735	-0.024	-0.026
-124.239	-37.410	-0.317	0.166
-123.224	-19.589	0.048	0.029
-122.210	244.585	-0.093	-0.153
-121.195	-11.679	-0.214	-0.138
-120.180	-200.000	0.032	0.140
-119.166	50.539	0.236	0.219
-118.151	30.524	-0.121	-0.102
-117.137	-48.630	0.191	0.090
-116.122	73.096	-0.157	-0.161
-115.107	-22.151	0.277	-0.164
-114.093	-200.000	0.032	-0.243
-113.078	-200.000	-0.154	-0.000
-112.064	-72.317	0.184	-0.067
-111.049	-82.679	0.106	0.034
-110.034	141.793	-0.200	-0.259
-109.020	27.909	0.112	-0.092
-108.005	-162.544	-0.188	0.009
-106.991	-115.451	0.091	0.017
-105.976	288.821	-0.198	0.351
-104.962	37.323	0.093	0.081
-103.947	90.152	0.231	-0.253
-102.932	-179.364	-0.216	-0.005
-101.918	-127.076	0.357	0.051
-100.903	46.852	-0.019	0.017
-99.889	-79.772	0.463	-0.153
-98.874	-99.322	-0.206	-0.051
-97.859	159.962	-0.060	-0.082
-96.845	44.040	-0.244	-0.219
-95.830	149.717	0.187	0.248
-94.816	-35.731	0.175	0.093
-93.801	463.142	0.060	0.132
-92.786	-191.488	-0.220	0.002
-91.772	282.204	0.126	-0.221
-90.757	-21.032	0.416	-0.249
-89.743	87.148	0.121	0.130
-88.728	800.000	-0.112	-0.338
-87.713	-200.000	0.037	0.165
-86.699	-181.911	-0.402	-0.007
-85.684	-150.665	-0.338	-0.025
-84.670	-114.045	-0.198	0.037
-83.655	282.828	0.062	-0.110
-82.640	-200.000	-0.048	-0.254
-81.626	800.000	0.015	0.058
-80.611	-200.000	0.009	0.358
-79.597	-200.000	0.103	0.560
-78.582	-200.000	0.019	0.395
-77.567	800.000	-0.066	-0.268
-76.553	-200.000	0.045	-0.210
-75.538	450.451	0.072	-0.156
-74.524	-200.000	0.007	0.085
-73.509	-200.000	-0.015	0.127
-72.494	317.380	0.106	-0.196
-71.480	188.455	0.025	-0.037
-70.465	-53.134	-0.088	-0.039
-69.451	150.691	-0.224	-0.298
-68.436	55.593	-0.132	0.125
-67.422	800.000	-0.117	0.334
-66.407	-89.429	-0.055	-0.016
-65.392	286.054	-0.095	-0.168
-64.378	-33.678	0.205	0.111
-63.363	-61.824	0.135	0.055
-62.349	37.640	-0.166	0.144
-61.334	214.150	-0.679	-1.049
-60.319	208.543	0.278	0.425
-59.305	800.000	-0.343	-1.175
-58.290	344.956	0.696	1.336
-57.276	-200.000	0.284	1.416
-56.261	-200.000	118.341	614.207
-55.246	392.995	1567.826	3186.166
-54.232	139.152	2749.386	3531.931
-53.217	97.129	2190.819	2454.971
-52.203	37.090	1617.695	1398.577
-51.188	28.855	1357.929	1123.850
-50.173	25.971	1319.763	1075.055
-49.159	51.251	1381.005	1280.133
-48.144	49.539	1393.934	1281.627
-47.130	28.895	1346.303	1114.291
-46.115	25.552	1328.194	1079.231
-45.100	25.352	1323.397	1074.099
-44.086	25.411	1320.432	1071.999
-43.071	25.337	1317.781	1069.364
-42.057	25.408	1315.776	1068.116
-41.042	25.317	1314.165	1066.227
-40.027	25.336	1312.700	1065.111
-39.013	25.333	1311.166	1063.806
-37.998	25.359	1309.630	1062.666
-36.984	25.525	1307.001	1061.476
-35.969	25.423	1305.956	1059.979
-34.954	25.557	1303.556	1058.783
-33.940	25.513	1302.492	1057.617
-32.925	25.581	1300.920	1056.694
-31.911	25.613	1299.657	1055.815
-30.896	25.535	1298.109	1054.060
-29.881	25.590	1297.010	1053.447
-28.867	25.546	1295.348	1051.797
-27.852	25.634	1293.942	1051.132
-26.838	25.652	1292.865	1050.319
-25.823	25.641	1291.117	1048.794
-24.809	25.635	1289.827	1047.667
-23.794	25.580	1288.591	1046.300
-22.779	25.696	1287.310	1045.892
-21.765	25.722	1285.997	1044.939
-20.750	25.562	1284.809	1043.004
-19.736	25.516	1283.527	1041.657
-18.721	25.507	1282.090	1040.396
-17.706	25.428	1281.285	1039.241
-16.692	25.470	1280.044	1038.440
-15.677	25.447	1279.101	1037.497
-14.663	25.479	1277.608	1036.430
-13.648	25.395	1276.612	1035.098
-12.633	25.501	1275.492	1034.758
-11.619	25.421	1274.860	1033.743
-10.604	25.363	1274.322	1032.933
-9.590	25.397	1272.935	1031.964
-8.575	25.414	1272.126	1031.366
-7.560	25.456	1270.887	1030.559
-6.546	25.431	1270.179	1029.804
-5.531	25.308	1269.321	1028.362
-4.517	25.492	1268.339	1028.575
-3.502	25.476	1267.185	1027.510
-2.487	25.481	1266.570	1026.997
-1.473	25.447	1262.237	1023.254
-0.458	24.082	1248.090	1004.052
0.556	20.025	1232.033	968.959
1.571	16.375	1239.627	954.264
2.586	15.560	1254.751	961.163
3.600	15.327	1242.863	950.648
4.615	11.566	1169.031	874.009
5.629	4.408	1095.180	782.742
6.644	1.094	1076.796	753.087
7.659	0.661	1075.110	749.693
8.673	0.739	1074.228	749.396
9.688	0.717	1072.780	748.211
10.702	0.913	1070.948	747.835
11.717	5.289	1076.368	773.247
12.731	12.260	1085.352	814.317
13.746	16.394	1090.060	838.334
14.761	17.440	1090.357	843.675
15.775	16.770	1089.096	839.304
16.790	15.700	1086.977	832.305
17.804	15.061	1085.341	827.818
18.819	14.608	1084.311	824.724
19.834	14.317	1083.701	822.747
20.848	14.125	1082.651	820.933
21.863	13.904	1081.785	819.113
22.877	13.730	1081.021	817.605
23.892	13.648	1080.446	816.691
24.907	13.672	1079.479	816.007
25.921	13.715	1078.821	815.650
26.936	13.657	1078.046	814.706
27.950	13.736	1076.938	814.185
28.965	13.781	1075.772	813.448
29.980	13.835	1074.602	812.759
30.994	13.932	1073.373	812.233
32.009	13.876	1072.341	811.106
33.023	13.769	1071.638	809.980
34.038	13.900	1070.329	809.556
35.053	13.803	1069.699	808.538
36.067	13.827	1069.020	808.068
37.082	13.921	1067.552	807.343
38.096	13.796	1066.996	806.243
39.111	13.908	1065.993	805.958
40.126	13.673	1065.334	804.249
41.140	13.732	1063.832	803.330
42.155	13.696	1062.817	802.318
43.169	13.727	1061.612	801.487
44.184	13.685	1060.456	800.341
45.199	13.643	1059.927	799.668
46.213	13.653	1058.433	798.522
47.228	13.721	1057.524	798.092
48.242	13.774	1056.643	797.608
49.257	13.929	1055.153	797.159
50.271	13.805	1054.872	796.281
51.286	13.824	1053.918	795.581
52.301	13.790	1052.600	794.354
53.315	13.666	1052.253	793.428
54.330	13.660	1051.239	792.566
55.344	13.673	1050.208	791.779
56.359	13.775	1048.866	791.182
57.374	13.736	1048.357	790.545
58.388	13.612	1047.462	789.209
59.403	13.712	1046.020	788.527
60.417	13.631	1045.454	787.647
61.432	13.617	1044.748	786.978
62.447	13.560	1044.148	786.187
63.461	13.529	1043.471	785.460
64.476	13.708	1042.073	785.186
65.490	13.609	1041.394	784.135
66.505	13.636	1040.761	783.717
67.520	13.618	1040.231	783.164
68.534	13.673	1039.205	782.584
69.549	13.743	1038.349	782.199
70.563	13.621	1037.447	780.875
71.578	13.667	1036.262	780.128
72.593	13.572	1036.298	779.639
73.607	13.621	1035.557	779.245
74.622	13.655	1034.634	778.642
75.636	13.649	1034.163	778.191
76.651	13.598	1033.352	777.270
77.666	13.587	1032.912	776.822
78.680	13.598	1032.308	776.347
79.695	13.677	1031.233	775.842
80.709	13.545	1031.117	775.067
81.724	13.734	1029.995	775.040
82.739	13.732	1029.206	774.368
83.753	13.687	1028.578	773.615
84.768	13.792	1027.441	773.184
85.782	13.903	1026.445	772.883
86.797	13.704	1025.672	771.304
87.812	13.928	1024.331	771.268
88.826	13.860	1023.823	770.501
89.841	13.908	1022.238	769.463
90.855	13.808	1022.085	768.817
91.870	13.928	1021.241	768.671
92.884	13.876	1020.326	767.670
93.899	13.895	1019.239	766.875
94.914	13.900	1018.352	766.163
95.928	13.853	1018.251	765.803
96.943	13.908	1016.700	764.822
97.957	13.941	1015.901	764.306
98.972	13.875	1015.420	763.572
99.987	13.894	1014.008	762.531
101.001	13.986	1013.137	762.227
102.016	13.781	1012.357	760.636
103.030	13.956	1011.503	760.729
104.045	13.789	1011.285	759.733
105.060	13.817	1009.850	758.715
106.074	13.854	1009.154	758.292
107.089	13.851	1007.620	757.059
108.103	13.736	1007.166	756.127
109.118	13.713	1006.470	755.434
110.133	13.856	1004.915	754.850
111.147	13.722	1004.580	753.923
112.162	13.627	1004.275	753.194
113.176	13.694	1003.434	752.801
114.191	13.800	1002.027	752.161
115.206	13.785	1001.307	751.485
116.220	13.945	1000.604	751.616
117.235	13.914	999.684	750.718
118.249	13.939	998.595	749.946
119.264	13.849	998.169	749.153
120.279	13.764	997.032	747.849
121.293	13.733	996.538	747.276
122.308	13.759	995.552	746.583
123.322	13.774	994.833	746.046
124.337	13.820	993.616	745.276
125.352	13.801	992.083	743.975
126.366	13.809	990.991	743.128
127.381	13.743	990.468	742.373
128.395	13.763	989.673	741.803
129.410	13.929	988.480	741.581
130.424	13.916	987.641	740.828
131.439	13.819	987.062	739.899
132.454	13.952	985.810	739.485
133.468	13.908	985.355	738.881
134.483	13.933	984.059	737.957
135.497	13.964	983.319	737.474
136.512	13.825	982.468	736.152
137.527	13.942	981.451	735.843
138.541	13.924	981.101	735.440
139.556	13.936	980.848	735.239
140.570	14.013	979.739	734.680
141.585	13.928	978.872	733.589
142.600	14.108	977.776	733.498
143.614	14.136	977.274	733.181
144.629	13.994	976.503	731.911
145.643	13.977	975.556	731.062
146.658	13.925	974.318	729.841
147.673	14.076	973.096	729.523
148.687	13.950	972.483	728.445
149.702	14.068	971.884	728.453
150.716	14.099	970.616	727.570
151.731	14.076	970.295	727.168
152.746	14.116	969.693	726.827
153.760	14.040	968.881	725.822
154.775	14.136	968.260	725.711
155.789	14.146	967.561	725.167
156.804	14.188	966.942	724.820
157.819	14.187	966.184	724.182
158.833	14.256	965.316	723.770
159.848	14.197	964.495	722.832
160.862	14.197	963.534	722.049
161.877	14.128	963.069	721.339
162.892	13.995	962.242	720.076
163.906	14.131	960.912	719.608
164.921	14.133	960.153	718.983
165.935	14.237	959.529	718.904
166.950	14.132	958.389	717.533
167.964	14.171	957.960	717.315
168.979	14.201	956.799	716.511
169.994	14.245	955.705	715.818
171.008	14.163	955.393	715.170
172.023	14.327	954.504	715.143
173.037	14.316	953.756	714.472
174.052	14.328	953.416	714.207
175.067	14.240	952.825	713.325
176.081	14.133	952.441	712.516
177.096	14.283	951.542	712.422
178.110	14.231	950.908	711.662
179.125	14.170	950.282	710.870
180.140	14.483	949.421	711.500
181.154	14.322	949.538	710.836
182.169	14.415	948.602	710.468
183.183	14.428	948.182	710.145
184.198	14.414	947.153	709.254
185.213	14.436	946.311	708.655
186.227	14.493	945.584	708.287
187.242	14.551	945.124	708.128
188.256	14.409	944.846	707.255
189.271	14.534	943.510	706.720
190.286	14.484	942.771	705.892
191.300	14.400	942.302	705.124
192.315	14.378	941.333	704.245
193.329	14.410	941.097	704.138
194.344	14.353	940.397	703.314
195.359	14.570	939.731	703.670
196.373	14.455	938.886	702.490
197.388	14.723	938.280	703.101
198.402	14.613	938.214	702.529
199.417	14.664	937.005	701.776
200.432	14.705	936.757	701.700
201.446	14.752	936.428	701.588
202.461	14.695	936.286	701.177
203.475	14.767	935.054	700.497
204.490	14.666	934.549	699.632
205.504	14.593	933.640	698.583
206.519	14.693	932.832	698.338
207.534	14.657	932.191	697.645
208.548	14.798	931.447	697.616
209.563	14.734	930.839	696.830
210.577	14.877	929.853	696.628
211.592	14.773	929.691	696.012
212.607	14.847	928.798	695.590
213.621	14.770	928.054	694.648
214.636	14.827	927.316	694.272
215.650	14.818	926.891	693.857
216.665	14.762	926.049	692.932
217.680	15.008	925.017	693.116
218.694	14.992	924.044	692.260
219.709	14.826	924.148	691.588
220.723	14.871	923.434	691.179
221.738	15.020	922.310	690.895
222.753	14.993	921.632	690.212
223.767	14.956	921.336	689.779
224.782	15.092	920.675	689.784
225.796	15.075	919.768	688.972
226.811	14.969	919.532	688.299
227.826	15.020	918.634	687.775
228.840	15.021	917.856	687.134
229.855	15.044	916.610	686.236
230.869	14.937	916.348	685.542
231.884	15.029	915.491	685.216
232.899	15.041	914.728	684.634
233.913	15.142	914.362	684.710
234.928	15.114	913.676	684.020
235.942	15.094	913.063	683.420
236.957	15.019	912.651	682.746
237.972	15.024	912.079	682.279
238.986	15.132	911.049	681.889
240.001	15.103	910.561	681.346
241.015	15.128	909.637	680.695
242.030	15.101	909.243	680.231
243.045	15.158	908.339	679.725
244.059	15.274	907.820	679.744
245.074	15.149	907.598	679.014
246.088	15.259	906.320	678.443
247.103	15.308	905.845	678.226
248.117	15.313	905.197	677.698
249.132	15.493	904.383	677.756
250.147	15.460	903.783	677.113
251.161	15.423	903.142	676.426
252.176	15.348	902.813	675.818
253.190	15.402	901.921	675.307
254.205	15.447	901.430	675.061
255.220	15.524	900.794	674.833
256.234	15.465	900.175	674.073
257.249	15.706	898.942	674.056
258.263	15.653	898.156	673.196
259.278	15.674	897.822	672.970
260.293	15.771	897.099	672.755
261.307	15.852	896.505	672.574
262.322	15.735	896.029	671.690
263.336	15.618	895.702	670.918
264.351	15.593	894.323	669.727
265.366	15.701	893.805	669.711
266.380	15.778	893.117	669.439
267.395	15.753	892.569	668.873
268.409	15.866	891.862	668.731
269.424	15.596	891.251	667.143
270.439	15.861	890.135	667.298
271.453	15.907	889.616	667.032
272.468	15.765	889.142	666.055
273.482	15.779	888.886	665.861
274.497	15.757	888.320	665.292
275.512	15.726	887.551	664.534
276.526	15.714	887.281	664.227
277.541	15.722	886.708	663.768
278.555	15.863	885.692	663.506
279.570	15.848	885.245	663.054
280.585	15.987	883.923	662.551
281.599	15.935	883.470	661.950
282.614	15.946	883.229	661.752
283.628	16.007	882.319	661.253
284.643	15.886	881.838	660.359
285.657	16.110	880.794	660.394
286.672	15.915	880.388	659.269
287.687	16.026	879.690	659.124
288.701	15.922	879.393	658.434
289.716	16.016	878.882	658.361
290.730	16.021	878.282	657.874
291.745	16.080	877.265	657.283
292.760	16.070	876.924	656.930
293.774	16.104	876.318	656.550
294.789	16.136	875.623	656.099
295.803	16.174	874.839	655.599
296.818	16.205	874.067	655.084
297.833	16.153	873.564	654.446
298.847	16.112	872.882	653.718
299.862	16.345	872.375	654.182
300.876	16.240	871.877	653.347
301.891	16.234	871.069	652.658
302.906	16.341	870.558	652.632
303.920	16.228	870.264	651.919
304.935	16.380	869.498	651.872
305.949	16.450	868.541	651.369
306.964	16.372	868.456	650.943
307.979	16.393	867.546	650.284
308.993	16.503	866.734	650.044
310.008	16.488	866.474	649.731
311.022	16.386	865.738	648.732
312.037	16.504	865.290	648.793
313.052	16.456	864.478	647.939
314.066	16.464	863.819	647.420
315.081	16.423	863.468	646.943
316.095	16.362	862.925	646.246
317.110	16.303	862.361	645.542
318.125	16.412	861.567	645.304
319.139	16.471	861.622	645.515
320.154	16.552	860.968	645.278
321.168	16.603	860.149	644.802
322.183	16.503	859.667	644.001
323.197	16.487	859.204	643.538
324.212	16.627	858.586	643.550
325.227	16.505	858.315	642.826
326.241	16.432	857.738	642.059
327.256	16.514	857.135	641.864
328.270	16.500	856.304	641.128
329.285	16.565	855.699	640.867
330.300	16.669	855.082	640.743
331.314	16.623	854.819	640.312
332.329	16.673	854.478	640.189
333.343	16.587	853.936	639.404
334.358	16.645	853.320	639.105
335.373	16.769	852.684	639.038
336.387	16.735	852.483	638.704
337.402	16.810	852.494	638.937
338.416	16.864	851.869	638.615
339.431	16.953	851.540	638.648
340.446	16.805	851.131	637.728
341.460	16.744	850.504	636.971
342.475	16.828	850.514	637.241
343.489	16.957	849.773	637.111
344.504	16.913	849.559	636.731
345.519	16.969	848.902	636.393
346.533	17.039	848.015	635.932
347.548	16.990	847.378	635.214
348.562	16.911	847.310	634.813
349.577	16.845	846.577	633.959
350.592	17.079	845.547	634.005
351.606	16.986	845.051	633.233
352.621	16.898	844.751	632.624
353.635	17.007	844.005	632.413
354.650	16.988	843.446	631.869
355.665	16.987	842.967	631.451
356.679	17.175	841.695	631.141
357.694	17.115	841.388	630.630
358.708	17.134	840.748	630.166
359.723	17.073	840.552	629.737
360.738	17.185	839.404	629.235
361.752	17.203	839.187	629.085
362.767	17.288	838.255	628.643
363.781	17.186	838.036	628.048
364.796	17.281	837.653	628.057
365.810	17.370	836.824	627.706
366.825	17.389	836.743	627.661
367.840	17.290	836.426	627.004
368.854	17.327	835.826	626.633
369.869	17.194	835.543	625.875
370.883	17.346	835.028	625.994
371.898	17.292	834.796	625.567
372.913	17.324	834.298	625.256
373.927	17.540	833.284	625.234
374.942	17.399	833.229	624.622
375.956	17.427	832.579	624.178
376.971	17.559	832.141	624.281
377.986	17.641	831.621	624.135
379.000	17.663	831.271	623.898
380.015	17.285	831.122	622.348
381.029	17.633	830.139	622.829
382.044	17.538	829.556	621.989
383.059	17.698	828.738	621.905
384.073	17.444	828.264	620.568
385.088	17.585	827.750	620.642
386.102	17.670	827.218	620.497
387.117	17.761	826.658	620.353
388.132	17.653	826.436	619.738
389.146	17.687	825.425	619.050
390.161	17.784	825.447	619.362
391.175	17.840	824.758	618.994
392.190	17.653	824.147	617.801
393.205	17.622	823.539	617.180
394.219	17.608	823.701	617.194
395.234	17.547	823.547	616.805
396.248	17.670	822.531	616.435
397.263	17.619	822.348	616.059
398.278	17.723	821.570	615.798
399.292	17.545	821.539	615.075
400.307	17.714	820.736	615.031
401.321	17.713	820.537	614.825
402.336	17.680	820.190	614.390
403.350	17.740	819.250	613.848
404.365	17.745	819.175	613.754
405.380	17.895	818.341	613.616
406.394	18.048	817.715	613.642
407.409	17.958	817.496	613.100
408.423	17.929	816.989	612.561
409.438	18.004	816.485	612.398
410.453	18.041	816.373	612.393
411.467	18.013	815.782	611.793
412.482	18.086	815.366	611.690
413.496	18.132	815.024	611.544
414.511	18.147	814.436	611.102
415.526	18.009	814.392	610.520
416.540	18.198	813.792	610.692
417.555	18.100	813.111	609.776
418.569	18.189	812.693	609.726
419.584	18.210	812.571	609.657
420.599	18.181	811.671	608.823
421.613	114.011	1298.422	1484.522
422.628	98.633	1369.309	1484.602
