DTS Sentinel unit serial number:	SN413079Multiplexer serial number:	ORYXHardware model number:	OX4-SRSoftware version number:	ORYX F/W v4.00 Oryx Data Collector v3.7.2.0data status	okinstallation	princeton_trtdifferential loss correction	single-endedforward channel	channel 1reverse channel	N/Adate	2019/09/12time	19:47:34forward acquisition time	15.00reverse acquisition time	0.00gamma	496.2192k internal	0.2322k external	0.2322temperature offset calibration	1.0141default loss term (dB/km)	0.3790temperature slope calibration	1.0000multiplexer offset coefficient	1.0000multiplexer slope coefficient	1.0000fibre end	0.00T internal ref (°C)	31.94T ext. ref 1 (°C)	3.46T ext. ref 2 (°C)	26.56length (m)	temperature (°C)	Stokes	anti-Stokes-747.200	572.683	0.259	-0.639
-746.185	-0.863	-0.806	0.577
-745.171	800.000	-0.268	0.841
-744.156	-200.000	-0.068	0.765
-743.142	-67.128	1.175	0.468
-742.127	118.888	0.681	-0.850
-741.112	800.000	-0.308	-0.934
-740.098	2.297	0.649	-0.474
-739.083	-126.818	-0.733	-0.109
-738.069	-200.000	0.185	0.875
-737.054	223.531	-0.180	0.293
-736.039	-138.015	-0.559	0.063
-735.025	-104.675	0.340	-0.079
-734.010	282.438	-0.379	-0.686
-732.996	800.000	0.208	-0.634
-731.981	461.064	0.402	0.904
-730.966	-103.554	0.770	0.183
-729.952	243.739	0.219	0.371
-728.937	800.000	-0.097	-0.351
-727.923	147.012	0.198	-0.269
-726.908	-17.033	-0.226	-0.144
-725.894	-200.000	-0.066	0.794
-724.879	184.049	-0.167	-0.249
-723.864	34.711	0.275	0.243
-722.850	-62.378	-0.455	0.191
-721.835	-200.000	-0.028	0.347
-720.821	17.433	-0.213	-0.171
-719.806	-92.717	-0.391	0.110
-718.791	800.000	0.204	-0.757
-717.777	-200.000	0.004	0.717
-716.762	12.961	0.244	-0.190
-715.748	729.273	0.139	0.373
-714.733	-200.000	-0.159	-0.718
-713.718	-60.085	-0.498	-0.215
-712.704	664.009	0.294	0.767
-711.689	34.391	0.406	-0.358
-710.675	-200.000	-0.113	0.739
-709.660	800.000	0.076	0.270
-708.645	-79.865	0.454	-0.154
-707.631	-107.230	-0.194	0.043
-706.616	-9.662	0.383	0.257
-705.602	75.603	-0.218	0.232
-704.587	241.579	0.483	0.814
-703.572	-69.434	-0.134	0.052
-702.558	25.787	0.411	0.346
-701.543	88.675	-0.841	-0.943
-700.529	-46.711	0.389	0.192
-699.514	-171.418	-0.880	-0.030
-698.499	-200.000	-0.044	0.457
-697.485	-146.628	0.348	0.030
-696.470	100.755	0.358	0.420
-695.456	-16.973	0.412	0.262
-694.441	141.417	0.224	0.300
-693.426	-2.654	0.128	0.090
-692.412	-33.794	-0.223	0.124
-691.397	-200.000	-0.094	0.542
-690.383	326.165	0.175	-0.338
-689.368	-81.016	-1.260	-0.420
-688.354	-168.271	-0.608	0.024
-687.339	400.346	0.203	-0.430
-686.324	-94.627	0.455	-0.125
-685.310	-189.054	0.597	-0.007
-684.295	-166.445	0.234	0.010
-683.281	-200.000	-0.209	1.141
-682.266	62.436	-0.231	-0.232
-681.251	-200.000	-0.027	-0.471
-680.237	69.413	-0.403	0.418
-679.222	-109.082	0.443	0.095
-678.208	-170.417	0.643	0.023
-677.193	133.259	-0.303	0.395
-676.178	-200.000	-0.052	0.367
-675.164	-200.000	0.042	0.399
-674.149	-200.000	-0.037	0.228
-673.135	-163.697	-0.907	0.043
-672.120	-187.682	1.129	0.015
-671.105	-54.559	0.343	0.156
-670.091	224.264	-0.681	-1.109
-669.076	178.437	0.192	-0.282
-668.062	235.886	0.086	0.144
-667.047	800.000	0.016	0.055
-666.032	-80.228	0.700	0.236
-665.018	800.000	0.162	0.582
-664.003	-101.264	0.506	0.124
-662.989	-38.778	0.312	-0.166
-661.974	-165.370	-0.355	0.016
-660.959	-149.393	-0.531	-0.043
-659.945	124.294	-0.319	-0.404
-658.930	38.437	-0.606	-0.544
-657.916	800.000	0.291	0.937
-656.901	238.256	0.237	0.396
-655.886	-104.284	0.390	0.091
-654.872	151.298	-0.747	-1.023
-653.857	-200.000	-0.065	-0.547
-652.843	-200.000	0.089	-0.405
-651.828	800.000	0.166	0.706
-650.814	-25.767	-0.585	-0.347
-649.799	800.000	-0.075	-0.294
-648.784	8.298	0.282	0.213
-647.770	-75.952	-0.422	0.150
-646.755	-112.822	-0.278	-0.056
-645.741	419.263	0.307	-0.661
-644.726	-92.958	-0.113	0.032
-643.711	563.075	-0.213	-0.518
-642.697	753.594	-0.150	-0.407
-641.682	-157.625	-0.323	-0.019
-640.668	-32.361	-0.632	-0.355
-639.653	800.000	0.194	-0.810
-638.638	101.272	0.482	-0.565
-637.624	21.103	-0.739	0.603
-636.609	-5.844	-0.178	0.122
-635.595	117.664	0.264	-0.327
-634.580	-120.187	0.618	0.106
-633.565	-54.162	-0.632	-0.289
-632.551	263.232	0.343	-0.600
-631.536	-200.000	0.019	0.276
-630.522	78.741	-0.398	0.428
-629.507	-110.566	-0.621	-0.129
-628.492	-77.947	-0.171	-0.059
-627.478	540.905	-0.349	-0.837
-626.463	49.289	0.519	-0.491
-625.449	-138.322	-0.232	0.026
-624.434	217.702	-0.529	-0.848
-623.419	-87.656	0.905	-0.275
-622.405	-167.789	-0.350	-0.014
-621.390	7.452	-0.678	0.510
-620.376	443.923	-0.200	-0.442
-619.361	-18.906	0.595	0.372
-618.346	800.000	-0.149	0.470
-617.332	-37.605	0.304	0.163
-616.317	52.663	-0.506	-0.486
-615.303	150.794	0.286	-0.391
-614.288	-104.760	0.157	-0.036
-613.273	800.000	0.419	1.248
-612.259	656.578	-0.148	-0.382
-611.244	-200.000	-0.053	0.311
-610.230	-43.793	1.034	0.523
-609.215	800.000	-0.125	-0.526
-608.201	167.857	-0.059	0.084
-607.186	-40.879	0.240	-0.125
-606.171	-200.000	-0.084	0.901
-605.157	-137.151	-0.871	0.100
-604.142	-200.000	-0.087	0.753
-603.128	-104.499	-0.535	-0.124
-602.113	212.417	-0.475	-0.752
-601.098	-63.169	0.065	0.027
-600.084	-93.382	0.506	0.141
-599.069	-200.000	-0.038	0.234
-598.055	800.000	0.251	-0.748
-597.040	102.276	0.249	-0.292
-596.025	-56.237	0.522	-0.233
-595.011	13.491	-0.286	-0.223
-593.996	-90.255	-1.165	-0.340
-592.982	-121.850	1.140	-0.189
-591.967	-200.000	-0.085	-0.808
-590.952	800.000	-0.122	-0.525
-589.938	-44.995	0.017	0.009
-588.923	24.159	0.216	0.179
-587.909	800.000	0.132	0.536
-586.894	-97.970	0.200	0.052
-585.879	692.770	-0.211	-0.557
-584.865	-136.496	-0.589	-0.069
-583.850	742.172	-0.077	-0.208
-582.836	470.661	0.142	-0.322
-581.821	-16.107	-0.277	0.176
-580.806	-200.000	0.015	0.085
-579.792	-125.812	0.136	-0.021
-578.777	743.644	0.259	-0.700
-577.763	-158.517	-0.261	-0.015
-576.748	-122.098	0.728	-0.120
-575.733	-200.000	-0.012	-0.561
-574.719	-138.958	1.212	0.132
-573.704	-126.962	-0.457	-0.067
-572.690	-130.777	0.168	0.023
-571.675	-41.673	0.468	-0.241
-570.661	609.626	0.272	0.681
-569.646	-131.922	-0.457	-0.060
-568.631	-200.000	0.101	0.528
-567.617	-12.077	-0.354	0.232
-566.602	-200.000	-0.111	-0.945
-565.588	575.178	-0.349	-0.854
-564.573	-62.859	0.686	-0.285
-563.558	-56.870	0.388	0.172
-562.544	-200.000	0.009	0.250
-561.529	-172.694	0.380	0.012
-560.515	-56.814	0.107	0.048
-559.500	410.594	-0.175	0.372
-558.485	201.996	0.217	0.335
-557.471	-160.443	0.085	0.005
-556.456	-150.451	-1.239	-0.095
-555.442	-175.488	-0.709	-0.019
-554.427	800.000	0.338	0.965
-553.412	111.906	0.380	0.460
-552.398	-145.943	0.298	0.026
-551.383	537.491	-0.070	0.166
-550.369	800.000	-0.166	-0.563
-549.354	44.889	0.263	0.243
-548.339	-165.216	0.059	0.003
-547.325	144.324	-0.364	-0.487
-546.310	-200.000	-0.006	-0.974
-545.296	-186.743	-0.497	-0.007
-544.281	-76.429	-0.463	-0.163
-543.266	-52.297	-0.770	-0.358
-542.252	-74.496	0.432	-0.156
-541.237	-20.223	0.663	-0.410
-540.223	800.000	0.112	0.461
-539.208	94.131	0.300	0.342
-538.193	-200.000	-0.054	-0.393
-537.179	-90.732	-0.426	-0.123
-536.164	-14.075	-0.274	-0.177
-535.150	-37.265	-0.110	0.059
-534.135	-51.872	-0.544	-0.254
-533.121	-200.000	-0.073	-0.785
-532.106	800.000	0.100	-0.416
-531.091	-200.000	-0.172	0.872
-530.077	-39.811	0.556	-0.291
-529.062	342.549	0.189	-0.371
-528.048	316.771	-0.138	0.261
-527.033	284.299	-0.197	0.355
-526.018	800.000	0.304	-0.900
-525.004	100.345	-0.383	0.445
-523.989	-123.112	0.536	0.086
-522.975	-200.000	-0.037	-0.290
-521.960	-87.604	0.607	-0.184
-520.945	-200.000	-0.094	0.867
-519.931	-200.000	0.053	-0.459
-518.916	-62.475	1.138	-0.474
-517.902	-134.782	0.094	0.011
-516.887	46.577	-0.505	0.469
-515.872	-55.898	0.422	-0.189
-514.858	-167.775	-0.456	-0.018
-513.843	-200.000	0.018	0.443
-512.829	91.987	-0.384	0.433
-511.814	697.971	0.356	0.936
-510.799	-200.000	-0.048	0.589
-509.785	-42.865	0.218	0.111
-508.770	-17.368	-0.528	-0.333
-507.756	-200.000	0.004	-0.133
-506.741	38.862	0.446	-0.399
-505.726	-141.156	-0.288	0.029
-504.712	100.648	0.180	-0.210
-503.697	-200.000	-0.004	-0.081
-502.683	800.000	0.072	0.305
-501.668	800.000	0.269	0.789
-500.653	-200.000	0.118	-0.581
-499.639	-23.610	-0.169	-0.101
-498.624	800.000	-0.140	-0.409
-497.610	12.976	-0.361	-0.280
-496.595	800.000	-0.194	0.665
-495.581	800.000	0.108	-0.402
-494.566	194.511	-0.211	0.320
-493.551	-200.000	0.007	-0.114
-492.537	-200.000	0.123	0.653
-491.522	149.616	-0.140	0.189
-490.508	-40.867	0.472	0.244
-489.493	800.000	0.135	0.445
-488.478	800.000	0.050	0.155
-487.464	160.336	-0.210	0.293
-486.449	-63.479	-0.392	-0.161
-485.435	87.656	0.385	0.426
-484.420	-200.000	0.125	-0.571
-483.405	-78.588	-0.311	-0.106
-482.391	-200.000	-0.036	0.338
-481.376	233.049	-0.619	1.017
-480.362	-200.000	-0.112	0.513
-479.347	65.197	-0.716	0.724
-478.332	-61.225	-0.545	-0.229
-477.318	471.334	0.404	-0.909
-476.303	-200.000	0.029	0.482
-475.289	469.514	0.085	-0.191
-474.274	800.000	-0.307	-0.952
-473.259	-37.736	0.026	0.014
-472.245	-98.532	-0.877	0.224
-471.230	124.401	0.221	0.278
-470.216	-186.543	0.398	-0.006
-469.201	-29.206	0.945	-0.541
-468.186	114.433	0.701	0.853
-467.172	443.532	-0.252	0.552
-466.157	-89.691	-0.353	-0.103
-465.143	-200.000	-0.024	0.324
-464.128	284.671	0.354	-0.637
-463.113	69.431	0.044	-0.045
-462.099	120.408	-0.360	-0.447
-461.084	-33.055	-0.443	0.246
-460.070	596.328	0.076	0.187
-459.055	-200.000	0.024	-0.281
-458.040	13.978	0.609	0.473
-457.026	-169.639	0.404	0.015
-456.011	143.467	-0.310	-0.412
-454.997	-52.095	-0.188	0.087
-453.982	-200.000	-0.039	0.434
-452.968	737.867	0.346	0.926
-451.953	800.000	0.262	-0.752
-450.938	-39.208	0.727	0.382
-449.924	153.214	-0.475	-0.649
-448.909	64.573	0.169	-0.170
-447.895	11.675	-0.577	-0.442
-446.880	336.878	0.282	0.547
-445.865	-81.672	0.449	0.147
-444.851	800.000	0.197	-0.776
-443.836	-200.000	-0.100	-0.485
-442.822	-78.298	-0.842	0.289
-441.807	238.968	-0.431	0.716
-440.792	154.124	-0.251	-0.344
-439.778	330.635	-0.132	-0.254
-438.763	-71.782	0.219	0.081
-437.749	-1.359	-0.160	-0.113
-436.734	55.526	0.728	0.703
-435.719	-86.344	-0.443	0.136
-434.705	410.029	-0.349	0.738
-433.690	-134.674	0.787	-0.096
-432.676	221.797	0.210	0.337
-431.661	350.843	0.520	1.026
-430.646	-200.000	0.167	0.740
-429.632	29.467	-0.971	-0.824
-428.617	-107.818	0.537	0.117
-427.603	307.067	-0.180	-0.335
-426.588	150.287	0.121	-0.164
-425.573	-150.776	0.884	0.067
-424.559	76.748	-0.663	-0.702
-423.544	-21.747	-0.450	-0.273
-422.530	-90.025	-0.127	0.037
-421.515	288.026	0.200	-0.361
-420.500	-26.488	-0.231	-0.135
-419.486	0.567	-0.480	0.342
-418.471	-132.086	0.373	0.048
-417.457	93.086	-0.239	0.270
-416.442	92.208	0.285	-0.320
-415.428	-200.000	0.081	-0.999
-414.413	-157.109	-0.591	-0.036
-413.398	29.721	0.579	-0.492
-412.384	800.000	-0.203	-0.590
-411.369	-164.070	-0.385	-0.018
-410.355	115.073	-0.381	0.463
-409.340	800.000	0.155	-0.500
-408.325	800.000	-0.200	0.576
-407.311	336.263	-0.282	0.545
-406.296	-200.000	0.115	0.860
-405.282	-200.000	-0.024	0.405
-404.267	-99.490	-0.622	-0.156
-403.252	-104.242	-0.739	0.171
-402.238	556.278	-0.132	0.317
-401.223	-200.000	0.012	-0.193
-400.209	-127.969	0.109	0.016
-399.194	23.769	0.476	0.391
-398.179	620.207	0.245	0.613
-397.165	48.762	0.782	0.731
-396.150	-131.037	0.242	-0.032
-395.136	98.152	0.578	-0.664
-394.121	-122.935	-0.617	0.099
-393.106	149.228	-0.395	-0.533
-392.092	-11.982	-0.126	-0.082
-391.077	-200.000	-0.062	0.387
-390.063	-200.000	0.037	-0.747
-389.048	-118.557	0.508	0.089
-388.033	367.189	-0.256	-0.514
-387.019	201.720	-0.213	0.327
-386.004	-94.905	0.641	0.173
-384.990	-165.487	1.029	-0.045
-383.975	-200.000	0.037	0.808
-382.960	-154.458	-0.385	-0.026
-381.946	-18.076	-0.171	-0.107
-380.931	-172.329	-0.539	-0.017
-379.917	-200.000	-0.232	-0.001
-378.902	800.000	0.129	-0.551
-377.888	-19.358	0.221	0.137
-376.873	800.000	0.277	1.090
-375.858	800.000	-0.234	0.675
-374.844	-121.080	0.289	0.048
-373.829	282.166	0.249	-0.444
-372.815	-190.040	-0.358	-0.004
-371.800	35.935	0.573	-0.502
-370.785	-200.000	0.310	-0.001
-369.771	-154.674	-0.788	-0.052
-368.756	-108.197	-0.535	0.115
-367.742	-29.113	-0.457	-0.261
-366.727	87.555	0.252	0.278
-365.712	-150.395	1.279	-0.098
-364.698	-60.208	0.478	-0.203
-363.683	282.962	0.255	-0.455
-362.669	55.627	-0.289	0.279
-361.654	13.682	0.515	-0.398
-360.639	7.804	-0.173	-0.129
-359.625	3.396	0.207	0.150
-358.610	-126.568	-0.448	0.066
-357.596	6.226	-0.608	-0.448
-356.581	-200.000	-0.006	0.133
-355.566	-127.112	0.683	-0.100
-354.552	-113.361	-0.507	-0.099
-353.537	-200.000	-0.005	-0.093
-352.523	140.181	0.275	0.360
-351.508	655.517	0.236	0.603
-350.493	105.800	0.626	0.737
-349.479	-200.000	0.048	-0.498
-348.464	104.992	0.440	-0.516
-347.450	-16.693	0.688	-0.433
-346.435	143.938	-0.364	-0.482
-345.420	-21.352	-0.413	-0.251
-344.406	55.120	0.473	0.455
-343.391	13.187	-0.461	0.355
-342.377	800.000	0.082	0.337
-341.362	379.182	-0.180	-0.367
-340.348	-79.688	0.571	-0.191
-339.333	-22.764	-0.264	-0.158
-338.318	-94.788	0.357	-0.096
-337.304	800.000	0.228	-0.667
-336.289	2.381	-0.308	0.221
-335.275	171.433	-0.349	0.498
-334.260	3.337	0.284	-0.206
-333.245	371.371	-0.260	-0.525
-332.231	44.253	-0.270	-0.246
-331.216	74.943	0.451	-0.472
-330.202	31.299	0.515	0.439
-329.187	-138.336	-0.418	0.046
-328.172	-108.901	-0.670	-0.142
-327.158	9.029	0.509	0.382
-326.143	-115.693	0.622	-0.116
-325.129	800.000	-0.108	-0.298
-324.114	-124.321	0.911	0.141
-323.099	-117.961	-0.877	0.156
-322.085	17.977	0.413	-0.327
-321.070	-87.992	-0.536	-0.160
-320.056	237.757	-0.141	-0.232
-319.041	-28.345	0.284	0.163
-318.026	8.039	-0.296	-0.220
-317.012	7.881	-0.543	0.404
-315.997	-166.024	-0.283	-0.012
-314.983	-68.404	-0.789	-0.304
-313.968	-200.000	-0.025	-0.381
-312.953	-117.657	-0.295	0.053
-311.939	-49.659	0.237	0.112
-310.924	-200.000	0.019	0.297
-309.910	245.343	-0.597	0.998
-308.895	243.985	-0.191	0.318
-307.880	262.573	-0.074	0.127
-306.866	-200.000	-0.031	0.304
-305.851	123.079	-0.063	0.079
-304.837	-156.706	0.326	0.020
-303.822	34.010	-0.510	0.441
-302.807	190.708	0.078	0.116
-301.793	-54.129	0.728	0.329
-300.778	765.374	0.127	0.343
-299.764	6.394	0.602	0.443
-298.749	184.787	-0.354	0.521
-297.735	127.457	-0.501	0.631
-296.720	20.456	0.304	0.244
-295.705	-200.000	-0.006	0.122
-294.691	-200.000	-0.037	-0.690
-293.676	69.864	-0.371	0.380
-292.662	-200.000	0.002	-0.096
-291.647	29.234	-0.123	0.104
-290.632	-12.166	-0.762	-0.495
-289.618	800.000	0.081	-0.236
-288.603	541.462	-0.055	-0.130
-287.589	23.699	-0.177	-0.145
-286.574	-150.261	-0.191	-0.015
-285.559	-61.471	0.804	-0.335
-284.545	-133.277	0.211	0.026
-283.530	-161.865	0.106	-0.005
-282.516	800.000	-0.245	0.911
-281.501	423.443	-0.056	0.120
-280.486	365.578	-0.220	-0.439
-279.472	205.785	0.499	-0.769
-278.457	-159.376	-0.393	0.022
-277.443	-25.514	-0.154	-0.090
-276.428	-200.000	0.076	0.435
-275.413	800.000	0.163	-0.624
-274.399	-200.000	0.121	0.882
-273.384	-130.484	0.251	-0.034
-272.370	-200.000	-0.002	0.283
-271.355	23.081	0.343	-0.279
-270.340	-155.660	-0.113	-0.007
-269.326	510.029	0.153	-0.352
-268.311	-200.000	0.045	0.198
-267.297	-67.885	0.460	-0.178
-266.282	191.118	-0.475	-0.709
-265.267	-13.873	-0.469	-0.301
-264.253	-10.646	-0.801	0.525
-263.238	149.661	-0.416	-0.558
-262.224	-71.248	0.628	-0.234
-261.209	81.267	0.611	-0.654
-260.195	-41.594	-0.453	0.231
-259.180	800.000	-0.148	-0.625
-258.165	800.000	-0.193	-0.796
-257.151	-71.094	-0.347	0.129
-256.136	-36.655	0.291	0.155
-255.122	-75.452	-0.709	0.250
-254.107	3.003	-0.716	0.516
-253.092	401.199	0.214	-0.444
-252.078	800.000	0.074	-0.309
-251.063	-82.696	0.441	0.142
-250.049	126.263	0.217	-0.272
-249.034	-75.465	0.208	0.074
-248.019	-111.241	-0.269	0.055
-247.005	800.000	-0.066	0.279
-245.990	3.878	0.056	-0.041
-244.976	645.145	0.191	0.483
-243.961	43.783	-0.600	0.544
-242.946	800.000	0.204	-0.616
-241.932	267.786	-0.320	0.556
-240.917	800.000	0.272	1.094
-239.903	9.031	0.638	-0.477
-238.888	36.023	0.492	-0.429
-237.873	39.901	0.398	0.354
-236.859	-47.850	-0.276	-0.132
-235.844	195.840	0.331	-0.499
-234.830	150.067	-0.341	0.458
-233.815	800.000	0.022	0.064
-232.800	-2.366	-0.565	-0.392
-231.786	169.249	-0.114	0.162
-230.771	727.178	0.095	-0.251
-229.757	262.413	0.403	-0.692
-228.742	53.953	0.165	-0.157
-227.727	-99.911	0.333	0.082
-226.713	800.000	0.078	0.314
-225.698	-150.755	-1.121	0.084
-224.684	388.808	-0.368	0.755
-223.669	-200.000	0.080	0.719
-222.655	-111.211	0.900	-0.182
-221.640	72.931	0.445	-0.460
-220.625	-142.262	0.354	0.035
-219.611	128.217	0.294	0.370
-218.596	15.062	-0.816	0.632
-217.582	115.416	-0.415	-0.502
-216.567	-200.000	-0.069	-0.489
-215.552	-200.000	-0.066	-0.898
-214.538	-64.013	0.441	-0.178
-213.523	35.553	0.106	-0.092
-212.509	-73.548	0.206	-0.075
-211.494	328.634	-0.332	0.631
-210.479	420.128	0.224	0.475
-209.465	-200.000	0.107	0.689
-208.450	-200.000	0.001	1.268
-207.436	73.823	0.736	0.764
-206.421	-62.405	0.101	0.042
-205.406	-200.000	-0.026	0.211
-204.392	23.883	0.788	-0.642
-203.377	-22.770	-0.166	-0.099
-202.363	-200.000	-0.058	-0.914
-201.348	-37.269	0.260	0.138
-200.333	16.661	0.190	0.149
-199.319	228.199	-0.336	-0.540
-198.304	800.000	0.191	-0.754
-197.290	56.748	0.373	-0.359
-196.275	470.936	-0.287	0.638
-195.260	13.476	-0.633	0.486
-194.246	-23.865	-0.525	0.311
-193.231	6.475	0.349	0.256
-192.217	-200.000	-0.061	0.299
-191.202	-200.000	-0.037	0.522
-190.187	800.000	0.113	-0.313
-189.173	-200.000	-0.262	-1.142
-188.158	-200.000	-0.093	-0.419
-187.144	-200.000	0.017	0.114
-186.129	-79.625	-0.371	-0.124
-185.114	30.977	0.450	-0.381
-184.100	233.057	0.230	0.374
-183.085	-200.000	0.082	-0.634
-182.071	-200.000	-0.055	-0.446
-181.056	-125.248	0.745	0.113
-180.042	-82.323	0.757	0.243
-179.027	-200.000	-0.053	0.624
-178.012	800.000	0.339	1.034
-176.998	800.000	-0.174	0.603
-175.983	-57.407	-0.150	0.065
-174.969	-42.924	-0.212	-0.107
-173.954	62.935	-0.215	0.212
-172.939	-200.000	-0.138	-1.133
-171.925	314.109	-0.478	0.888
-170.910	422.162	0.098	0.207
-169.896	439.171	0.222	0.478
-168.881	44.574	-0.166	0.151
-167.866	105.886	0.433	-0.506
-166.852	-8.190	0.790	-0.526
-165.837	-200.000	0.103	0.684
-164.823	11.878	0.605	-0.459
-163.808	-44.824	-0.451	0.222
-162.793	-200.000	0.087	0.663
-161.779	265.826	-0.172	-0.296
-160.764	581.990	0.165	-0.400
-159.750	-97.722	0.498	0.127
-158.735	93.675	-0.348	-0.389
-157.720	265.870	-0.341	0.587
-156.706	41.911	-0.446	-0.399
-155.691	101.539	0.303	0.349
-154.677	141.037	-0.558	0.728
-153.662	183.631	-0.332	-0.485
-152.647	-77.311	-0.350	-0.120
-151.633	800.000	-0.183	0.787
-150.618	97.849	-0.076	0.087
-149.604	800.000	-0.279	-0.815
-148.589	-200.000	-0.016	0.232
-147.574	-200.000	0.041	0.764
-146.560	565.195	-0.353	-0.845
-145.545	5.831	-0.173	-0.127
-144.531	-55.576	-0.267	-0.118
-143.516	146.299	0.144	-0.191
-142.502	251.136	0.166	-0.278
-141.487	-12.394	-0.461	-0.297
-140.472	19.537	-0.190	0.151
-139.458	-105.950	-0.643	-0.143
-138.443	-200.000	-0.038	0.191
-137.429	-200.000	0.092	-0.416
-136.414	153.435	-0.273	0.369
-135.399	-45.774	0.278	-0.136
-134.385	800.000	0.262	0.970
-133.370	93.123	-0.355	-0.395
-132.356	120.796	0.323	0.396
-131.341	-42.108	0.356	0.180
-130.326	-51.645	0.473	-0.218
-129.312	18.253	0.211	0.166
-128.297	188.813	-0.393	0.580
-127.283	800.000	-0.100	-0.351
-126.268	800.000	0.118	0.463
-125.253	-77.944	-0.149	0.051
-124.239	-140.675	-0.460	0.047
-123.224	201.292	-0.111	-0.168
-122.210	-73.094	0.842	0.305
-121.195	231.945	0.549	0.888
-120.180	800.000	0.127	0.409
-119.166	211.910	0.220	-0.342
-118.151	20.738	-0.369	0.294
-117.137	-113.712	-0.626	-0.120
-116.122	26.415	-0.543	0.447
-115.107	-54.836	-0.116	-0.052
-114.093	137.186	-0.439	0.566
-113.078	1.769	0.057	-0.040
-112.064	-133.343	0.238	-0.030
-111.049	-114.074	0.524	0.100
-110.034	75.187	-0.433	-0.450
-109.020	-2.113	0.782	0.541
-108.005	24.223	-0.918	-0.747
-106.991	800.000	0.066	-0.247
-105.976	18.443	0.537	-0.423
-104.962	-61.171	-0.274	0.114
-103.947	800.000	0.146	-0.466
-102.932	58.107	-0.134	-0.129
-101.918	-200.000	0.008	0.395
-100.903	80.543	-0.344	-0.365
-99.889	-11.514	-0.175	0.113
-98.874	-84.446	-0.202	0.063
-97.859	-42.762	-0.922	0.462
-96.845	74.150	-0.303	0.313
-95.830	-63.528	0.679	0.275
-94.816	-5.903	0.809	-0.545
-93.801	593.740	0.229	-0.559
-92.786	296.535	-0.296	-0.535
-91.772	800.000	-0.285	-0.806
-90.757	-42.054	0.098	0.049
-89.743	-36.443	0.581	0.308
-88.728	-200.000	-0.105	0.763
-87.713	-153.106	-0.964	-0.067
-86.699	123.329	-0.431	-0.532
-85.684	-200.000	0.006	0.358
-84.670	347.757	-0.030	0.058
-83.655	-200.000	0.123	-1.125
-82.640	-85.621	-0.530	-0.162
-81.626	276.527	0.107	0.187
-80.611	19.969	-0.091	0.073
-79.597	-200.000	-0.096	0.433
-78.582	-200.000	-0.005	0.213
-77.567	800.000	-0.240	0.784
-76.553	-7.371	0.686	0.458
-75.538	-18.922	-0.690	-0.422
-74.524	7.970	0.737	0.544
-73.509	517.015	-0.255	0.587
-72.494	793.221	-0.163	-0.441
-71.480	115.505	-0.186	-0.223
-70.465	-36.945	-0.542	-0.286
-69.451	-63.333	1.378	-0.558
-68.436	-200.000	-0.030	0.167
-67.422	-101.473	0.296	0.071
-66.407	40.458	-0.395	0.350
-65.392	625.394	-0.384	0.954
-64.378	566.514	-0.120	-0.286
-63.363	157.838	-0.496	0.676
-62.349	-200.000	-0.019	0.564
-61.334	-96.999	-1.451	-0.374
-60.319	241.749	-0.534	0.878
-59.305	358.298	-0.449	-0.881
-58.290	-200.000	0.277	1.254
-57.276	-200.000	-0.034	1.656
-56.261	-200.000	97.731	610.605
-55.246	660.568	1363.139	3452.097
-54.232	203.226	2526.036	3840.466
-53.217	120.171	2116.039	2581.806
-52.203	44.003	1586.523	1429.687
-51.188	35.727	1326.416	1146.176
-50.173	32.259	1286.962	1091.934
-49.159	56.651	1335.952	1278.186
-48.144	56.947	1352.100	1295.331
-47.130	35.530	1310.194	1130.818
-46.115	32.145	1292.367	1095.684
-45.100	32.081	1287.485	1091.129
-44.086	31.816	1285.128	1087.548
-43.071	31.799	1283.286	1085.852
-42.057	31.975	1279.862	1083.924
-41.042	31.815	1279.353	1082.528
-40.027	31.812	1277.583	1080.972
-39.013	31.794	1276.085	1079.557
-37.998	31.853	1274.089	1078.166
-36.984	31.871	1272.442	1076.829
-35.969	31.824	1271.347	1075.590
-34.954	31.842	1269.741	1074.295
-33.940	31.879	1268.112	1073.083
-32.925	31.689	1267.250	1071.228
-31.911	32.015	1264.596	1070.801
-30.896	31.990	1263.899	1070.024
-29.881	32.041	1262.196	1068.829
-28.867	32.232	1260.615	1068.539
-27.852	32.157	1259.283	1066.939
-26.838	32.246	1258.064	1066.370
-25.823	32.085	1256.006	1063.670
-24.809	32.097	1254.631	1062.534
-23.794	31.791	1255.001	1061.071
-22.779	32.227	1251.764	1060.755
-21.765	32.080	1251.467	1059.630
-20.750	32.034	1250.657	1058.642
-19.736	32.370	1247.996	1058.239
-18.721	31.970	1247.742	1055.731
-17.706	31.875	1246.752	1054.317
-16.692	32.107	1244.224	1053.439
-15.677	31.865	1244.847	1052.563
-14.663	32.024	1243.200	1052.023
-13.648	31.915	1242.008	1050.363
-12.633	31.747	1241.608	1049.040
-11.619	31.764	1241.166	1048.724
-10.604	31.731	1239.911	1047.437
-9.590	31.814	1238.652	1046.791
-8.575	31.687	1238.196	1045.656
-7.560	31.875	1235.709	1044.565
-6.546	31.724	1236.246	1044.136
-5.531	31.886	1234.349	1043.390
-4.517	31.733	1234.146	1042.330
-3.502	31.836	1233.683	1042.469
-2.487	31.876	1231.858	1041.109
-1.473	31.839	1228.397	1037.938
-0.458	30.060	1215.023	1016.841
0.556	28.393	1195.487	979.209
1.571	24.535	1200.246	962.276
2.586	23.107	1215.095	966.302
3.600	22.840	1204.544	956.378
4.615	17.313	1132.744	871.059
5.629	7.783	1059.371	768.697
6.644	4.014	1039.313	736.183
7.659	3.397	1036.792	731.403
8.673	3.313	1035.148	729.781
9.688	3.118	1034.545	728.368
10.702	3.506	1033.145	729.153
11.717	9.727	1039.954	763.417
12.731	19.065	1053.103	817.571
13.746	23.863	1058.847	844.821
14.761	24.780	1059.958	849.988
15.775	23.981	1058.307	844.800
16.790	23.789	1056.662	842.500
17.804	23.457	1056.702	840.885
18.819	23.265	1056.150	839.459
19.834	23.502	1055.534	840.017
20.848	23.518	1054.969	839.570
21.863	23.594	1053.591	838.759
22.877	23.091	1052.920	835.772
23.892	23.227	1051.458	835.183
24.907	23.143	1052.471	835.516
25.921	23.185	1050.285	833.905
26.936	23.073	1049.813	832.930
27.950	22.999	1049.171	831.995
28.965	22.972	1047.030	830.100
29.980	23.302	1044.967	829.937
30.994	23.319	1044.747	829.769
32.009	23.185	1044.092	828.549
33.023	23.043	1043.952	827.696
34.038	23.228	1041.128	826.251
35.053	23.127	1040.660	825.334
36.067	22.835	1039.797	823.215
37.082	22.825	1039.288	822.691
38.096	23.300	1037.858	823.696
39.111	23.371	1037.411	823.600
40.126	23.157	1036.576	821.872
41.140	22.601	1035.755	818.567
42.155	22.589	1033.334	816.522
43.169	22.356	1032.601	814.796
44.184	22.117	1032.872	813.830
45.199	22.103	1031.384	812.520
46.213	22.516	1030.762	813.864
47.228	22.985	1029.585	815.027
48.242	23.626	1028.473	817.026
49.257	23.064	1028.469	814.366
50.271	23.584	1028.333	816.577
51.286	23.454	1027.171	814.988
52.301	23.378	1026.825	814.292
53.315	22.911	1025.458	810.990
54.330	22.912	1024.145	809.884
55.344	22.883	1023.089	808.848
56.359	23.003	1022.295	808.695
57.374	22.993	1021.289	807.782
58.388	22.635	1021.128	805.947
59.403	22.228	1019.944	803.083
60.417	22.566	1018.419	803.349
61.432	22.551	1018.965	803.645
62.447	22.443	1017.474	801.904
63.461	22.625	1015.535	801.133
64.476	22.242	1015.945	799.645
65.490	22.153	1014.917	798.358
66.505	22.446	1014.000	798.895
67.520	22.471	1014.534	799.360
68.534	22.208	1013.582	797.348
69.549	22.387	1011.695	796.604
70.563	22.296	1010.136	794.895
71.578	21.632	1009.957	791.682
72.593	21.746	1008.162	790.718
73.607	21.871	1007.916	791.018
74.622	22.146	1006.978	791.451
75.636	22.083	1007.082	791.179
76.651	22.036	1006.977	790.816
77.666	21.980	1006.393	790.033
78.680	22.334	1004.667	790.199
79.695	22.384	1003.583	789.504
80.709	22.499	1004.436	790.620
81.724	22.306	1004.216	789.512
82.739	22.560	1002.243	789.026
83.753	23.152	1003.941	792.948
84.768	23.507	1002.392	793.244
85.782	24.026	1001.535	794.813
86.797	23.643	1000.084	791.880
87.812	23.399	1000.000	790.657
88.826	23.515	998.569	789.974
89.841	23.531	997.592	789.203
90.855	23.881	996.476	789.804
91.870	23.408	995.610	786.948
92.884	23.220	995.690	786.107
93.899	23.801	993.807	787.124
94.914	23.519	993.695	785.719
95.928	23.624	992.504	785.172
96.943	23.122	991.491	782.081
97.957	23.061	990.560	781.007
98.972	23.498	989.395	781.946
99.987	23.235	989.181	780.549
101.001	23.044	988.478	779.085
102.016	23.146	987.201	778.455
103.030	23.157	986.466	777.859
104.045	23.354	986.410	778.609
105.060	23.570	984.714	778.152
106.074	23.161	983.850	775.607
107.089	22.492	983.258	772.138
108.103	22.322	983.172	771.257
109.118	22.262	980.391	768.745
110.133	22.346	978.802	767.797
111.147	21.972	979.279	766.472
112.162	22.151	977.407	765.720
113.176	22.414	977.220	766.650
114.191	22.463	976.195	765.992
115.206	22.865	974.592	766.412
116.220	22.328	974.840	764.205
117.235	22.560	973.478	764.076
118.249	21.850	973.197	760.710
119.264	21.930	972.274	760.266
120.279	21.992	971.194	759.624
121.293	22.062	969.905	758.853
122.308	21.935	969.273	757.743
123.322	21.769	968.331	756.221
124.337	21.945	966.450	755.444
125.352	21.683	967.418	755.003
126.366	22.046	966.072	755.449
127.381	22.443	964.499	755.859
128.395	22.240	964.484	754.906
129.410	22.354	963.635	754.664
130.424	22.426	962.543	754.051
131.439	22.566	962.416	754.485
132.454	22.686	960.982	753.807
133.468	22.507	960.241	752.393
134.483	23.084	958.213	753.197
135.497	22.835	958.941	752.642
136.512	22.535	957.444	750.121
137.527	22.659	957.663	750.757
138.541	22.621	957.145	750.122
139.556	22.784	955.455	749.422
140.570	23.100	956.118	751.217
141.585	23.588	954.744	752.142
142.600	23.328	954.546	750.819
143.614	23.419	953.195	750.073
144.629	23.988	951.704	751.236
145.643	23.499	951.083	748.618
146.658	23.065	950.627	746.362
147.673	22.955	948.896	744.474
148.687	23.118	947.231	743.787
149.702	23.179	946.379	743.306
150.716	23.044	945.606	742.067
151.731	23.369	943.871	742.001
152.746	23.137	944.843	741.729
153.760	23.111	943.454	740.463
154.775	23.337	943.660	741.505
155.789	23.372	943.175	741.203
156.804	22.929	942.688	738.905
157.819	23.170	942.947	740.051
158.833	23.239	941.514	739.148
159.848	23.648	940.318	739.850
160.862	23.791	938.903	739.266
161.877	23.090	937.612	735.267
162.892	22.646	936.717	732.657
163.906	22.700	935.130	731.573
164.921	22.514	935.666	731.160
165.935	22.589	934.710	730.656
166.950	23.027	933.827	731.715
167.964	23.005	932.596	730.597
168.979	22.707	931.983	728.820
169.994	22.630	931.497	728.057
171.008	22.987	930.664	728.815
172.023	23.320	929.925	729.544
173.037	23.505	929.302	729.752
174.052	23.221	928.571	727.943
175.067	22.824	926.978	725.001
176.081	22.579	927.024	723.966
177.096	22.485	926.018	722.734
178.110	22.543	924.827	721.977
179.125	22.329	924.624	720.877
180.140	22.598	924.812	722.061
181.154	22.679	923.980	721.681
182.169	23.280	923.924	724.030
183.183	23.247	923.025	723.128
184.198	23.460	920.996	722.343
185.213	23.460	921.069	722.335
186.227	23.297	920.898	721.474
187.242	23.376	920.711	721.582
188.256	23.537	920.701	722.168
189.271	23.633	919.420	721.488
190.286	23.419	917.906	719.368
191.300	22.432	917.265	714.799
192.315	22.044	915.954	712.142
193.329	22.257	916.591	713.435
194.344	22.463	915.817	713.604
195.359	22.987	915.389	715.330
196.373	23.253	914.093	715.330
197.388	23.026	915.392	715.366
198.402	23.597	913.479	716.113
199.417	23.622	913.796	716.395
200.432	23.883	912.946	716.721
201.446	24.052	912.092	716.666
202.461	23.604	912.608	715.202
203.475	23.491	911.099	713.503
204.490	22.810	910.980	710.605
205.504	23.030	908.659	709.615
206.519	23.325	908.708	710.774
207.534	23.190	908.415	709.943
208.548	23.102	907.512	708.818
209.563	23.284	907.705	709.638
210.577	23.151	906.649	708.216
211.592	23.466	905.718	708.686
212.607	23.693	905.175	709.104
213.621	23.856	904.542	709.198
214.636	23.286	904.031	706.458
215.650	23.438	903.204	706.356
216.665	23.548	902.488	706.172
217.680	23.625	902.391	706.341
218.694	23.513	901.171	704.878
219.709	23.120	901.095	703.196
220.723	23.023	899.827	701.757
221.738	23.350	899.344	702.615
222.753	23.356	899.056	702.353
223.767	23.398	898.722	702.195
224.782	23.615	897.364	701.931
225.796	23.697	897.390	702.213
226.811	23.328	896.906	700.314
227.826	23.199	895.916	698.970
228.840	23.150	895.500	698.389
229.855	23.276	893.864	697.550
230.869	22.826	893.900	695.741
231.884	22.847	892.626	694.770
232.899	23.017	892.187	695.038
233.913	22.994	890.574	693.627
234.928	22.582	890.835	692.153
235.942	22.611	889.680	691.308
236.957	23.163	889.289	693.106
237.972	22.949	888.904	691.909
238.986	22.704	888.776	690.785
240.001	22.129	887.914	687.804
241.015	22.739	887.362	689.703
242.030	23.104	886.417	690.331
243.045	23.250	886.010	690.521
244.059	23.077	886.153	689.899
245.074	23.345	885.671	690.507
246.088	23.627	884.331	690.499
247.103	23.440	885.158	690.357
248.117	23.790	884.936	691.484
249.132	24.312	884.400	693.032
250.147	24.488	884.501	693.735
251.161	24.429	883.283	692.487
252.176	24.210	883.186	691.502
253.190	24.944	881.989	693.346
254.205	24.902	881.087	692.413
255.220	24.368	881.163	690.347
256.234	24.147	880.184	688.663
257.249	24.186	879.494	688.212
258.263	24.399	878.437	688.145
259.278	24.292	877.856	687.217
260.293	24.151	878.442	687.071
261.307	24.500	877.901	687.934
262.322	24.602	876.438	687.119
263.336	24.236	876.143	685.417
264.351	24.015	874.327	683.090
265.366	24.212	874.107	683.615
266.380	24.361	874.218	684.210
267.395	24.192	873.893	683.248
268.409	24.330	872.029	682.258
269.424	24.406	870.891	681.600
270.439	24.394	871.648	682.082
271.453	23.911	870.366	679.176
272.468	24.213	870.327	680.238
273.482	24.125	869.223	678.980
274.497	23.963	869.057	678.171
275.512	24.370	867.753	678.644
276.526	24.038	867.481	677.109
277.541	24.554	867.106	678.718
278.555	24.781	866.391	678.960
279.570	24.571	865.537	677.434
280.585	24.731	865.062	677.610
281.599	23.960	865.377	674.873
282.614	24.091	863.713	674.012
283.628	23.867	862.727	672.336
284.643	24.291	861.811	673.163
285.657	24.157	861.189	672.109
286.672	24.013	861.838	672.015
287.687	24.288	861.709	672.891
288.701	24.377	860.688	672.372
289.716	24.137	859.822	670.733
290.730	24.184	859.254	670.404
291.745	24.194	859.252	670.382
292.760	24.146	857.888	669.079
293.774	24.556	857.996	670.643
294.789	24.614	857.670	670.548
295.803	24.446	856.743	669.132
296.818	24.095	855.485	666.779
297.833	24.037	854.720	665.903
298.847	24.243	853.979	666.039
299.862	24.485	852.859	666.009
300.876	24.429	854.115	666.722
301.891	24.619	853.628	666.992
302.906	24.728	853.949	667.589
303.920	25.192	852.784	668.349
304.935	25.370	851.822	668.200
305.949	24.872	851.297	665.878
306.964	24.543	850.002	663.584
307.979	24.362	849.989	662.840
308.993	24.557	850.226	663.691
310.008	24.481	849.344	662.661
311.022	24.703	848.058	662.424
312.037	24.329	847.166	660.283
313.052	24.237	847.013	659.764
314.066	23.786	846.301	657.483
315.081	23.948	845.292	657.240
316.095	24.027	844.804	657.094
317.110	23.920	844.651	656.522
318.125	23.588	844.234	654.917
319.139	23.620	843.067	654.069
320.154	23.941	841.639	654.085
321.168	24.072	841.531	654.425
322.183	23.992	841.729	654.225
323.197	23.871	840.855	653.047
324.212	24.026	840.129	652.992
325.227	23.827	840.220	652.274
326.241	23.927	839.233	651.815
327.256	24.226	838.406	652.211
328.270	23.766	838.424	650.482
329.285	23.890	837.603	650.245
330.300	23.944	836.409	649.456
331.314	23.688	836.214	648.312
332.329	24.163	836.243	650.009
333.343	24.417	836.136	650.797
334.358	24.349	835.352	649.882
335.373	24.511	834.940	650.092
336.387	24.960	834.138	651.044
337.402	24.657	835.327	650.813
338.416	24.593	835.273	650.480
339.431	25.289	834.986	652.729
340.446	25.033	834.348	651.242
341.460	25.333	833.856	651.890
342.475	25.228	834.136	651.669
343.489	25.365	833.054	651.265
344.504	25.904	832.267	652.545
345.519	25.813	832.525	652.360
346.533	25.098	832.328	649.557
347.548	25.406	831.076	649.636
348.562	24.917	830.256	647.172
349.577	24.990	829.241	646.584
350.592	24.226	829.073	643.640
351.606	24.374	828.506	643.678
352.621	24.687	827.348	643.848
353.635	24.563	826.476	642.664
354.650	24.497	826.194	642.152
355.665	24.269	825.542	640.769
356.679	24.683	824.185	641.146
357.694	24.610	824.280	640.901
358.708	24.549	823.895	640.325
359.723	24.394	823.826	639.660
360.738	24.700	821.884	639.190
361.752	24.835	821.684	639.459
362.767	24.761	822.025	639.401
363.781	25.422	821.940	641.643
364.796	25.385	821.844	641.377
365.810	25.515	821.234	641.309
366.825	25.563	821.157	641.363
367.840	25.434	820.055	639.985
368.854	25.429	819.066	639.140
369.869	25.343	817.783	637.777
370.883	25.080	817.693	636.716
371.898	25.625	817.773	638.659
372.913	25.327	817.559	637.375
373.927	25.336	816.344	636.405
374.942	24.949	816.581	635.162
375.956	25.060	817.239	636.010
376.971	25.472	816.528	636.862
377.986	25.400	815.311	635.601
379.000	25.654	814.953	636.164
380.015	25.264	814.511	634.386
381.029	25.630	814.217	635.391
382.044	25.852	813.095	635.242
383.059	25.808	812.974	634.937
384.073	25.390	811.827	632.515
385.088	24.965	811.066	630.368
386.102	24.876	809.737	628.967
387.117	24.958	808.940	628.582
388.132	25.006	808.879	628.647
389.146	25.323	808.210	629.184
390.161	25.164	809.133	629.286
391.175	25.842	808.345	630.993
392.190	25.647	806.684	628.960
393.205	24.648	806.058	624.924
394.219	24.533	805.784	624.254
395.234	24.651	805.357	624.281
396.248	24.908	805.757	625.434
397.263	25.036	804.696	625.000
398.278	24.291	804.963	622.555
399.292	24.437	803.647	621.988
400.307	24.082	804.207	621.131
401.321	24.560	803.102	621.888
402.336	24.935	802.313	622.522
403.350	25.227	802.471	623.608
404.365	25.487	802.567	624.531
405.380	25.837	802.962	626.000
406.394	26.046	801.551	625.568
407.409	25.878	801.761	625.094
408.423	25.758	801.686	624.565
409.438	25.688	801.582	624.183
410.453	26.036	800.696	624.645
411.467	25.949	799.005	622.971
412.482	26.069	799.389	623.630
413.496	25.985	799.462	623.341
414.511	25.821	798.940	622.310
415.526	25.992	797.733	621.904
416.540	26.058	797.265	621.714
417.555	26.021	797.024	621.343
418.569	26.352	795.737	621.421
419.584	25.748	796.410	619.814
420.599	25.469	796.186	618.625
421.613	162.004	1370.703	1793.709
422.628	140.547	1454.407	1793.783
