DTS Sentinel unit serial number:	SN413079Multiplexer serial number:	ORYXHardware model number:	OX4-SRSoftware version number:	ORYX F/W v4.00 Oryx Data Collector v3.7.2.0data status	okinstallation	princeton_trtdifferential loss correction	single-endedforward channel	channel 1reverse channel	N/Adate	2019/09/15time	16:58:35forward acquisition time	60.00reverse acquisition time	0.00gamma	496.2192k internal	0.2292k external	0.2292temperature offset calibration	0.9933default loss term (dB/km)	0.3790temperature slope calibration	1.0000multiplexer offset coefficient	1.0000multiplexer slope coefficient	1.0000fibre end	0.00T internal ref (°C)	44.44T ext. ref 1 (°C)	5.84T ext. ref 2 (°C)	40.43length (m)	temperature (°C)	Stokes	anti-Stokes-747.200	-145.409	0.199	-0.018
-746.185	-200.000	-0.057	0.339
-745.171	-126.513	0.264	-0.040
-744.156	137.106	-0.103	0.138
-743.142	58.105	0.120	-0.120
-742.127	-31.405	-0.059	0.034
-741.112	-27.257	-0.068	-0.041
-740.098	88.677	0.227	-0.258
-739.083	147.529	-0.038	0.052
-738.069	67.061	0.225	0.235
-737.054	-118.645	0.129	-0.023
-736.039	672.627	-0.018	-0.047
-735.025	74.650	0.175	0.188
-734.010	112.603	-0.245	-0.304
-732.996	93.079	-0.144	-0.166
-731.981	-59.663	-0.090	-0.040
-730.966	695.135	0.251	-0.674
-729.952	-200.000	0.044	0.244
-728.937	-200.000	0.011	-0.072
-727.923	49.357	0.102	-0.098
-726.908	-19.965	-0.264	-0.167
-725.894	9.127	-0.269	-0.208
-724.879	-93.893	-0.195	0.055
-723.864	-4.072	-0.181	-0.128
-722.850	-62.373	-0.207	-0.088
-721.835	483.085	-0.059	0.138
-720.821	-200.000	-0.025	-0.191
-719.806	-78.475	-0.338	-0.118
-718.791	-50.530	-0.054	0.026
-717.777	85.033	-0.185	-0.207
-716.762	-163.724	-0.150	0.007
-715.748	-200.000	0.002	-0.054
-714.733	-148.649	0.459	0.038
-713.718	-6.401	-0.146	0.102
-712.704	415.687	-0.078	-0.171
-711.689	-71.837	0.375	-0.143
-710.675	147.011	-0.062	0.085
-709.660	74.491	0.024	-0.026
-708.645	-11.530	-0.206	-0.139
-707.631	-89.904	-0.178	0.053
-706.616	-5.878	0.060	-0.042
-705.602	108.551	-0.303	-0.370
-704.587	800.000	0.062	-0.253
-703.572	-162.055	0.249	-0.013
-702.558	-200.000	0.035	-0.191
-701.543	107.390	-0.193	-0.235
-700.529	327.400	-0.048	-0.095
-699.514	-155.355	0.187	-0.012
-698.499	-59.327	0.102	-0.045
-697.485	-150.885	-0.056	-0.004
-696.470	-78.504	-0.227	-0.079
-695.456	60.669	-0.341	-0.345
-694.441	-103.747	-0.227	-0.054
-693.426	96.757	-0.261	-0.305
-692.412	-105.125	0.490	-0.114
-691.397	-123.248	-0.197	-0.032
-690.383	-59.441	0.196	-0.086
-689.368	89.955	-0.250	-0.285
-688.354	-108.962	0.184	-0.040
-687.339	260.809	-0.091	0.161
-686.324	-150.705	-0.426	-0.033
-685.310	682.159	-0.063	-0.167
-684.295	-160.326	-0.093	-0.005
-683.281	800.000	0.044	0.144
-682.266	-57.860	0.252	-0.113
-681.251	-200.000	-0.014	0.282
-680.237	-126.911	0.202	-0.030
-679.222	-119.164	0.516	-0.092
-678.208	783.826	0.073	-0.204
-677.193	14.295	-0.116	-0.092
-676.178	62.954	0.089	0.091
-675.164	-91.254	-0.242	0.071
-674.149	-21.305	-0.363	-0.227
-673.135	273.152	0.199	-0.359
-672.120	-200.000	0.318	-0.001
-671.105	-42.617	0.058	-0.030
-670.091	139.971	0.124	-0.167
-669.076	-74.741	-0.291	-0.107
-668.062	-200.000	0.008	0.323
-667.047	87.092	0.146	0.165
-666.032	-48.255	-0.181	-0.089
-665.018	15.481	0.029	0.023
-664.003	270.708	-0.145	0.259
-662.989	133.816	0.047	0.062
-661.974	132.304	-0.139	0.183
-660.959	-200.000	-0.002	0.091
-659.945	231.072	-0.074	0.124
-658.930	-81.365	-0.270	0.091
-657.916	219.363	-0.219	0.358
-656.901	-58.572	0.084	0.037
-655.886	-69.109	0.078	-0.030
-654.872	-49.974	-0.149	0.072
-653.857	425.885	-0.166	-0.364
-652.843	-87.435	-0.278	-0.086
-651.828	-200.000	0.011	0.064
-650.814	-136.274	-0.063	-0.007
-649.799	-104.816	-0.226	0.053
-648.784	-174.538	-0.201	0.006
-647.770	-132.716	0.178	-0.023
-646.755	13.643	-0.385	0.305
-645.741	38.802	0.385	-0.350
-644.726	-77.639	-0.253	0.089
-643.711	-50.376	0.114	0.055
-642.697	-161.458	-0.343	-0.018
-641.682	64.035	0.037	0.037
-640.668	85.358	0.045	-0.050
-639.653	-63.615	-0.330	-0.138
-638.638	800.000	0.064	0.212
-637.624	-58.210	-0.134	0.059
-636.609	-200.000	-0.021	-0.140
-635.595	-66.509	0.237	0.096
-634.580	-83.611	-0.249	0.081
-633.565	-23.656	-0.276	-0.169
-632.551	-30.721	0.030	0.017
-631.536	-24.701	0.181	-0.110
-630.522	87.023	0.130	-0.146
-629.507	-200.000	-0.003	-0.133
-628.492	800.000	-0.013	0.041
-627.478	-200.000	-0.012	-0.353
-626.463	-71.214	-0.284	0.109
-625.449	468.126	0.075	0.172
-624.434	800.000	0.012	-0.038
-623.419	28.427	-0.348	0.300
-622.405	-31.664	-0.240	-0.137
-621.390	800.000	-0.054	-0.218
-620.376	-66.353	0.208	0.084
-619.361	800.000	-0.085	0.368
-618.346	-106.115	-0.376	-0.086
-617.332	489.733	-0.126	0.294
-616.317	-200.000	0.037	-0.298
-615.303	169.970	-0.099	-0.145
-614.288	79.444	0.072	-0.079
-613.273	-52.133	-0.124	-0.059
-612.259	-156.937	0.032	-0.002
-611.244	-64.983	-0.080	0.033
-610.230	-198.330	-0.443	0.003
-609.215	440.536	-0.066	0.146
-608.201	-68.776	0.490	0.193
-607.186	-47.234	0.080	-0.040
-606.171	94.423	-0.253	0.293
-605.157	-139.987	0.026	-0.003
-604.142	-26.624	0.156	-0.093
-603.128	540.823	-0.099	-0.239
-602.113	-59.030	-0.317	-0.139
-601.098	7.231	0.046	0.035
-600.084	-200.000	-0.052	0.371
-599.069	-200.000	-0.024	-0.300
-598.055	-9.199	0.173	-0.118
-597.040	221.293	-0.117	0.191
-596.025	-20.760	-0.138	0.086
-595.011	-200.000	-0.069	0.378
-593.996	-75.614	0.264	-0.095
-592.982	-154.790	-0.472	-0.032
-591.967	-200.000	-0.018	0.111
-590.952	-200.000	-0.007	-0.120
-589.938	173.932	-0.187	-0.275
-588.923	-93.789	-0.236	0.066
-587.909	-23.155	-0.017	-0.011
-586.894	122.779	-0.108	0.137
-585.879	-173.019	0.300	0.009
-584.865	316.445	-0.104	-0.200
-583.850	19.558	0.334	0.273
-582.836	-77.933	-0.098	-0.034
-581.821	8.556	-0.037	-0.029
-580.806	-16.236	0.217	0.140
-579.792	17.801	-0.077	0.063
-578.777	-25.408	0.326	-0.196
-577.763	41.017	0.080	-0.073
-576.748	-93.945	-0.270	-0.076
-575.733	800.000	-0.125	0.352
-574.719	610.447	-0.040	-0.101
-573.704	198.817	-0.046	0.071
-572.690	-92.127	-0.051	0.015
-571.675	74.373	-0.056	0.060
-570.661	-200.000	-0.033	-0.180
-569.646	-200.000	-0.017	-0.120
-568.631	-200.000	-0.014	-0.084
-567.617	-10.525	0.138	-0.093
-566.602	-12.123	0.133	0.088
-565.588	40.540	0.202	-0.185
-564.573	132.232	0.174	-0.228
-563.558	-175.998	-0.625	-0.017
-562.544	-200.000	0.024	-0.166
-561.529	800.000	-0.085	-0.282
-560.515	-32.876	-0.293	0.165
-559.500	-99.263	-0.215	0.055
-558.485	-75.816	-0.169	0.061
-557.471	-200.000	-0.001	-0.022
-556.456	-62.945	-0.103	-0.043
-555.442	-127.566	-0.134	-0.020
-554.427	-200.000	-0.036	0.197
-553.412	59.858	0.183	-0.184
-552.398	-133.787	0.349	0.044
-551.383	648.054	-0.179	0.465
-550.369	-12.576	-0.227	0.151
-549.354	-98.709	0.156	-0.040
-548.339	120.604	0.123	-0.155
-547.325	-200.000	-0.044	-0.363
-546.310	546.778	0.012	0.029
-545.296	-141.242	0.242	-0.025
-544.281	-188.117	0.154	-0.002
-543.266	-200.000	0.023	0.223
-542.252	-118.861	-0.337	0.060
-541.237	51.715	0.109	-0.105
-540.223	800.000	-0.059	-0.214
-539.208	-136.875	0.144	-0.017
-538.193	-70.773	-0.044	0.017
-537.179	-89.556	-0.331	-0.099
-536.164	-138.770	-0.235	0.026
-535.150	-200.000	-0.003	-0.335
-534.135	-200.000	-0.042	0.186
-533.121	-177.829	0.222	0.005
-532.106	31.227	0.109	-0.095
-531.091	-200.000	-0.016	0.099
-530.077	-200.000	-0.008	-0.338
-529.062	209.526	0.138	-0.220
-528.048	53.668	-0.054	0.052
-527.033	241.538	0.158	-0.268
-526.018	608.075	0.034	-0.086
-525.004	230.008	-0.093	-0.154
-523.989	57.317	-0.165	-0.163
-522.975	-21.638	0.079	0.049
-521.960	-200.000	0.074	0.410
-520.945	-73.550	-0.351	0.130
-519.931	310.529	0.089	-0.169
-518.916	-76.005	0.210	0.075
-517.902	-151.580	0.228	0.017
-516.887	-63.352	-0.222	0.093
-515.872	-136.595	-0.124	-0.015
-514.858	-82.291	-0.369	-0.122
-513.843	149.907	0.048	0.065
-512.829	724.714	0.041	0.112
-511.814	173.167	-0.158	0.231
-510.799	481.055	-0.088	0.203
-509.785	420.737	-0.023	0.050
-508.770	-79.333	0.362	0.124
-507.756	74.171	-0.239	0.255
-506.741	-105.235	0.184	0.043
-505.726	-160.886	0.207	-0.011
-504.712	-200.000	0.002	0.191
-503.697	-198.397	0.140	0.001
-502.683	-200.000	-0.002	0.163
-501.668	-200.000	-0.053	-0.461
-500.653	261.471	-0.133	-0.234
-499.639	159.195	-0.122	-0.172
-498.624	-200.000	0.008	0.187
-497.610	329.840	-0.178	-0.348
-496.595	-186.707	-0.171	-0.002
-495.581	-22.658	-0.329	0.202
-494.566	800.000	0.059	-0.227
-493.551	-200.000	-0.006	-0.361
-492.537	311.568	-0.112	-0.213
-491.522	-156.583	-0.072	-0.005
-490.508	-51.108	-0.101	-0.048
-489.493	179.499	0.109	0.161
-488.478	-42.726	0.286	0.148
-487.464	-76.166	-0.417	0.149
-486.449	-90.669	0.046	0.013
-485.435	800.000	0.023	0.070
-484.420	145.549	0.037	0.051
-483.405	367.248	0.042	0.087
-482.391	-94.114	-0.131	-0.036
-481.376	747.695	0.054	-0.148
-480.362	-200.000	-0.015	-0.246
-479.347	48.574	-0.039	-0.037
-478.332	-96.726	0.503	-0.134
-477.318	14.555	-0.109	0.086
-476.303	258.059	0.100	-0.174
-475.289	62.958	-0.176	0.179
-474.274	303.695	-0.115	0.216
-473.259	299.580	-0.079	0.147
-472.245	-128.732	-0.301	0.043
-471.230	4.052	-0.111	-0.082
-470.216	441.867	-0.144	-0.319
-469.201	-156.907	0.152	0.009
-468.186	51.539	-0.159	-0.153
-467.172	-93.371	0.293	0.082
-466.157	-184.832	-0.088	0.001
-465.143	-39.131	-0.216	-0.115
-464.128	-44.245	-0.188	0.096
-463.113	217.926	-0.156	-0.252
-462.099	-125.974	-0.343	0.052
-461.084	14.751	-0.128	-0.102
-460.070	-51.230	-0.381	-0.181
-459.055	800.000	0.047	0.183
-458.040	-95.954	-0.248	-0.067
-457.026	-38.855	0.046	0.025
-456.011	-200.000	0.003	-0.194
-454.997	-200.000	-0.035	0.279
-453.982	235.968	0.028	0.047
-452.968	-200.000	-0.017	0.279
-451.953	42.497	0.378	0.348
-450.938	-14.085	0.142	-0.093
-449.924	-58.492	0.041	0.018
-448.909	110.699	-0.126	0.153
-447.895	-154.347	0.309	0.021
-446.880	626.540	0.049	-0.126
-445.865	283.116	0.024	0.043
-444.851	132.761	0.067	0.087
-443.836	23.674	0.133	0.111
-442.822	-200.000	0.000	0.135
-441.807	8.156	0.275	0.209
-440.792	-154.007	-0.380	-0.026
-439.778	714.232	-0.119	0.318
-438.763	-15.742	0.099	-0.064
-437.749	68.604	-0.035	0.037
-436.734	-200.000	-0.061	0.287
-435.719	-58.413	0.270	0.119
-434.705	-160.532	0.506	0.027
-433.690	387.245	-0.053	0.111
-432.676	-35.566	0.112	-0.062
-431.661	-107.727	0.232	-0.051
-430.646	604.217	-0.137	0.344
-429.632	34.449	0.190	-0.168
-428.617	-153.827	-0.145	-0.010
-427.603	-102.097	-0.338	-0.082
-426.588	-200.000	0.070	-0.346
-425.573	-7.099	0.246	-0.169
-424.559	-104.276	0.361	-0.085
-423.544	111.248	-0.258	-0.314
-422.530	-200.000	0.041	-0.192
-421.515	174.714	-0.117	-0.172
-420.500	800.000	-0.034	0.110
-419.486	105.933	-0.133	0.159
-418.471	800.000	0.066	0.222
-417.457	800.000	-0.131	0.453
-416.442	-101.964	0.161	0.039
-415.428	97.076	-0.155	0.179
-414.413	490.781	-0.055	-0.127
-413.398	-200.000	0.003	-0.151
-412.384	716.409	-0.047	0.126
-411.369	571.961	-0.079	0.193
-410.355	177.496	0.095	0.139
-409.340	418.336	0.068	-0.148
-408.325	383.196	-0.043	-0.090
-407.311	800.000	-0.103	0.295
-406.296	-93.429	-0.283	-0.079
-405.282	724.962	0.070	-0.188
-404.267	-200.000	-0.022	0.453
-403.252	40.223	-0.150	-0.136
-402.238	-5.217	0.158	-0.110
-401.223	75.591	0.232	0.247
-400.209	72.569	0.040	0.042
-399.194	-151.683	0.154	-0.011
-398.179	-200.000	-0.005	-0.188
-397.165	-37.459	-0.297	-0.160
-396.150	-35.226	0.261	0.143
-395.136	364.839	-0.110	0.223
-394.121	391.674	0.076	-0.160
-393.106	192.811	0.087	-0.133
-392.092	-67.861	0.238	0.094
-391.077	243.536	0.026	0.044
-390.063	296.471	-0.147	-0.272
-389.048	-200.000	-0.044	0.387
-388.033	800.000	-0.011	0.039
-387.019	-88.928	0.158	-0.047
-386.004	-4.912	-0.221	-0.154
-384.990	52.180	0.074	0.071
-383.975	20.263	0.160	-0.131
-382.960	-71.666	0.587	-0.221
-381.946	-48.410	-0.175	-0.085
-380.931	26.848	0.231	-0.195
-379.917	-61.685	0.095	-0.040
-378.902	23.602	0.020	-0.017
-377.888	-84.763	0.378	0.120
-376.873	36.883	-0.178	-0.159
-375.858	451.187	-0.108	0.240
-374.844	601.769	-0.100	0.250
-373.829	256.027	0.050	0.086
-372.815	13.789	0.217	-0.170
-371.800	800.000	-0.074	-0.274
-370.785	-118.635	-0.265	-0.047
-369.771	435.412	-0.159	-0.348
-368.756	362.988	0.157	-0.319
-367.742	-21.525	0.055	-0.034
-366.727	800.000	-0.134	-0.461
-365.712	-104.766	0.180	-0.042
-364.698	70.375	-0.091	0.095
-363.683	99.606	0.296	0.346
-362.669	131.783	0.107	-0.139
-361.654	-157.103	0.062	-0.004
-360.639	-90.772	0.121	0.035
-359.625	-75.829	0.178	-0.063
-358.610	-4.355	-0.257	-0.179
-357.596	-153.456	0.188	-0.013
-356.581	46.760	0.084	-0.079
-355.566	1.349	-0.292	-0.211
-354.552	177.542	-0.058	-0.085
-353.537	-55.884	0.315	-0.142
-352.523	-1.570	-0.197	-0.140
-351.508	410.070	-0.166	-0.355
-350.493	47.872	-0.011	-0.010
-349.479	-105.204	-0.307	-0.071
-348.464	772.357	-0.123	0.338
-347.450	140.174	-0.290	0.385
-346.435	-26.668	0.184	-0.108
-345.420	364.624	0.100	-0.203
-344.406	6.641	0.105	-0.079
-343.391	-155.100	0.127	-0.008
-342.377	-200.000	-0.013	-0.089
-341.362	-23.806	0.151	0.091
-340.348	800.000	0.129	0.430
-339.333	800.000	0.093	0.280
-338.318	-190.516	0.170	-0.002
-337.304	-37.410	-0.243	-0.131
-336.289	123.227	-0.029	-0.036
-335.275	800.000	-0.011	0.047
-334.260	-200.000	-0.020	-0.163
-333.245	-200.000	-0.022	-0.212
-332.231	37.849	-0.122	-0.109
-331.216	-165.796	-0.310	0.013
-330.202	113.712	0.215	0.263
-329.187	-74.953	0.472	0.170
-328.172	-23.140	-0.103	-0.063
-327.158	654.456	0.012	-0.032
-326.143	252.098	0.122	-0.209
-325.129	-61.490	0.245	-0.104
-324.114	-42.265	0.111	-0.057
-323.099	-200.000	0.026	-0.181
-322.085	-150.331	0.129	0.010
-321.070	-48.217	-0.051	0.025
-320.056	-108.739	-0.301	0.065
-319.041	-200.000	0.003	0.099
-318.026	-200.000	0.044	0.329
-317.012	362.935	-0.108	-0.218
-315.997	-200.000	-0.014	0.107
-314.983	800.000	0.047	0.142
-313.968	408.666	-0.102	0.217
-312.953	295.073	0.105	-0.193
-311.939	-200.000	-0.031	0.223
-310.924	-138.595	-0.139	-0.015
-309.910	-102.965	0.069	-0.016
-308.895	105.545	0.185	0.220
-307.880	-99.007	-0.111	0.028
-306.866	-84.019	0.157	-0.050
-305.851	-158.160	0.009	-0.001
-304.837	-200.000	-0.070	-0.342
-303.822	-200.000	-0.031	0.203
-302.807	800.000	0.042	0.165
-301.793	-99.077	-0.154	-0.039
-300.778	140.220	0.116	0.154
-299.764	630.917	-0.114	-0.289
-298.749	800.000	-0.008	0.027
-297.735	-200.000	0.003	0.238
-296.720	-77.614	0.231	0.080
-295.705	-70.531	0.212	0.081
-294.691	-41.358	-0.107	0.056
-293.676	800.000	-0.125	-0.353
-292.662	55.908	0.101	0.099
-291.647	-178.667	-0.325	0.008
-290.632	800.000	0.092	0.271
-289.618	-105.490	0.123	-0.028
-288.603	225.751	0.119	0.193
-287.589	252.561	0.206	-0.354
-286.574	-101.373	0.186	0.046
-285.559	-98.162	-0.070	-0.018
-284.545	667.261	0.127	-0.330
-283.530	301.265	0.140	0.261
-282.516	-152.463	0.026	0.002
-281.501	800.000	-0.111	0.337
-280.486	-189.806	0.162	0.002
-279.472	800.000	-0.121	0.390
-278.457	-200.000	0.011	-0.154
-277.443	-149.973	0.185	0.014
-276.428	-8.583	0.072	0.048
-275.413	-200.000	-0.025	0.188
-274.399	257.099	0.165	-0.286
-273.384	-200.000	0.016	-0.090
-272.370	-57.665	0.261	0.115
-271.355	-121.992	0.258	0.043
-270.340	82.642	-0.042	-0.045
-269.326	513.170	-0.097	-0.227
-268.311	-48.955	0.073	-0.035
-267.297	29.364	0.121	0.103
-266.282	481.209	0.060	0.136
-265.267	377.430	0.189	0.389
-264.253	156.650	-0.308	0.427
-263.238	-200.000	-0.031	0.153
-262.224	-27.538	0.175	0.102
-261.209	147.384	-0.132	0.178
-260.195	14.701	-0.045	0.035
-259.180	-200.000	-0.013	-0.221
-258.165	142.537	0.141	-0.189
-257.151	-49.406	0.327	-0.157
-256.136	800.000	-0.039	-0.168
-255.122	-102.576	-0.506	0.121
-254.107	14.708	-0.200	0.157
-253.092	538.922	-0.105	-0.251
-252.078	-58.234	0.262	-0.114
-251.063	800.000	0.031	-0.122
-250.049	106.330	-0.119	-0.141
-249.034	-200.000	-0.012	-0.091
-248.019	94.276	0.030	0.034
-247.005	66.746	0.145	0.148
-245.990	-200.000	-0.014	0.067
-244.976	27.328	0.263	-0.222
-243.961	-21.937	0.285	-0.174
-242.946	251.584	-0.085	-0.146
-241.932	800.000	-0.081	0.272
-240.917	252.379	0.093	-0.158
-239.903	1.050	-0.077	-0.055
-238.888	453.625	-0.105	-0.234
-237.873	800.000	-0.040	-0.124
-236.859	-185.130	0.175	-0.003
-235.844	-72.830	0.545	0.201
-234.830	12.789	-0.124	0.096
-233.815	447.607	-0.067	-0.149
-232.800	138.117	0.196	-0.257
-231.786	127.025	-0.103	0.132
-230.771	-51.906	0.306	0.143
-229.757	-200.000	-0.007	0.051
-228.742	-200.000	0.015	-0.236
-227.727	-85.247	0.119	0.037
-226.713	4.383	0.261	0.192
-225.698	34.646	-0.203	0.178
-224.684	-60.346	-0.135	-0.057
-223.669	-200.000	-0.014	0.315
-222.655	-200.000	-0.013	0.148
-221.640	-178.190	0.104	0.002
-220.625	12.588	-0.286	-0.222
-219.611	-111.524	0.385	0.078
-218.596	800.000	-0.064	0.220
-217.582	-68.846	0.142	0.055
-216.567	-81.419	0.477	0.158
-215.552	217.596	-0.053	0.084
-214.538	31.401	-0.361	-0.311
-213.523	-194.221	-0.572	0.005
-212.509	115.038	-0.050	-0.061
-211.494	495.779	-0.073	0.167
-210.479	337.797	-0.138	0.270
-209.465	176.105	0.158	-0.230
-208.450	-30.042	0.077	-0.044
-207.436	33.439	-0.180	-0.157
-206.421	98.813	0.084	0.098
-205.406	-65.175	-0.291	0.118
-204.392	-200.000	-0.022	-0.173
-203.377	-102.344	0.167	0.040
-202.363	-15.974	-0.220	-0.141
-201.348	-14.352	0.082	0.053
-200.333	-64.950	0.307	0.124
-199.319	-200.000	0.011	-0.210
-198.304	-115.217	0.068	0.013
-197.290	-200.000	-0.044	-0.284
-196.275	-200.000	-0.102	0.461
-195.260	-135.033	0.063	-0.008
-194.246	-101.913	0.263	0.064
-193.231	800.000	-0.050	0.212
-192.217	82.469	0.137	-0.150
-191.202	800.000	0.043	-0.163
-190.187	723.976	0.019	0.051
-189.173	-200.000	-0.017	0.177
-188.158	-112.433	-0.174	0.035
-187.144	-100.911	0.203	-0.050
-186.129	-156.295	0.620	-0.039
-185.114	800.000	0.042	0.186
-184.100	-200.000	0.086	-0.385
-183.085	124.711	-0.101	-0.127
-182.071	-46.383	0.272	-0.134
-181.056	-200.000	0.000	-0.435
-180.042	-132.359	-0.129	0.017
-179.027	565.266	-0.060	0.147
-178.012	-145.528	-0.126	-0.011
-176.998	-200.000	0.020	-0.239
-175.983	-137.978	0.481	0.054
-174.969	710.670	-0.092	0.244
-173.954	-200.000	-0.053	0.275
-172.939	-41.732	-0.188	0.097
-171.925	800.000	0.054	-0.167
-170.910	20.575	-0.262	-0.212
-169.896	1.359	0.157	-0.113
-168.881	122.593	0.089	0.111
-167.866	37.832	0.257	0.229
-166.852	-200.000	-0.020	0.272
-165.837	65.630	-0.152	0.154
-164.823	14.503	0.190	0.149
-163.808	228.602	0.036	0.059
-162.793	635.031	0.038	-0.097
-161.779	800.000	-0.082	-0.302
-160.764	800.000	-0.067	0.193
-159.750	-129.663	-0.064	-0.009
-158.735	170.430	0.121	-0.174
-157.720	-122.879	-0.331	0.053
-156.706	-75.149	0.131	0.047
-155.691	154.821	0.086	0.118
-154.677	-200.000	0.011	-0.279
-153.662	-200.000	0.056	0.349
-152.647	214.074	-0.137	0.216
-151.633	-200.000	0.037	-0.299
-150.618	-78.563	-0.352	-0.120
-149.604	488.009	0.101	0.231
-148.589	800.000	-0.097	0.292
-147.574	515.257	-0.178	-0.416
-146.560	-110.533	0.338	0.070
-145.545	6.147	0.225	-0.167
-144.531	99.493	-0.047	0.054
-143.516	-107.273	0.257	0.057
-142.502	-106.418	0.495	-0.111
-141.487	-79.283	-0.115	-0.039
-140.472	-184.039	0.138	0.002
-139.458	-79.967	-0.179	-0.060
-138.443	383.924	0.099	-0.204
-137.429	-48.308	-0.172	-0.083
-136.414	-200.000	-0.023	-0.160
-135.399	-200.000	0.034	0.244
-134.385	-200.000	0.024	0.203
-133.370	-200.000	0.007	-0.087
-132.356	-68.461	-0.114	0.044
-131.341	-200.000	0.002	-0.035
-130.326	-200.000	0.017	0.244
-129.312	800.000	0.031	0.115
-128.297	-200.000	-0.017	-0.258
-127.283	72.470	0.118	0.123
-126.268	-41.517	0.073	0.038
-125.253	-200.000	0.042	-0.396
-124.239	-103.263	-0.300	0.071
-123.224	-65.936	-0.122	-0.049
-122.210	-200.000	0.015	-0.144
-121.195	-67.956	-0.396	0.154
-120.180	800.000	-0.138	0.438
-119.166	-78.506	-0.172	0.059
-118.151	-22.691	0.123	-0.074
-117.137	264.849	-0.129	0.224
-116.122	-57.246	0.112	-0.049
-115.107	241.731	-0.163	-0.273
-114.093	800.000	0.119	0.356
-113.078	2.953	0.212	0.154
-112.064	10.091	-0.139	-0.106
-111.049	-9.679	-0.240	-0.160
-110.034	305.262	0.093	-0.173
-109.020	349.477	0.166	-0.327
-108.005	800.000	-0.094	0.287
-106.991	272.739	-0.146	-0.257
-105.976	0.495	0.369	0.263
-104.962	21.594	0.130	0.105
-103.947	-112.591	-0.120	0.024
-102.932	800.000	0.137	-0.448
-101.918	-81.349	-0.341	-0.112
-100.903	327.475	0.101	0.194
-99.889	418.429	-0.087	-0.186
-98.874	800.000	-0.062	-0.200
-97.859	208.747	0.141	0.220
-96.845	24.214	0.047	-0.039
-95.830	-200.000	0.076	-0.525
-94.816	-34.304	0.237	-0.130
-93.801	559.840	-0.164	-0.394
-92.786	800.000	-0.040	-0.147
-91.772	800.000	0.030	0.125
-90.757	-200.000	-0.014	-0.076
-89.743	119.600	0.071	0.088
-88.728	39.307	-0.220	-0.196
-87.713	-50.112	-0.207	-0.098
-86.699	-200.000	0.000	0.006
-85.684	-124.286	-0.343	-0.053
-84.670	26.219	-0.133	0.110
-83.655	-33.648	0.064	0.035
-82.640	-128.964	0.127	0.018
-81.626	683.424	-0.123	-0.321
-80.611	-43.402	0.248	0.125
-79.597	-44.794	-0.499	-0.248
-78.582	150.166	0.062	0.084
-77.567	800.000	0.094	0.350
-76.553	-200.000	0.025	0.259
-75.538	-200.000	-0.011	0.134
-74.524	-53.301	0.277	0.127
-73.509	320.093	-0.125	0.236
-72.494	-74.642	0.166	0.060
-71.480	-54.074	0.152	-0.069
-70.465	-98.159	0.253	-0.065
-69.451	-78.538	0.411	0.140
-68.436	160.148	0.067	0.093
-67.422	-74.074	0.210	-0.076
-66.407	183.245	-0.108	0.159
-65.392	147.131	0.172	-0.231
-64.378	-70.084	-0.170	0.064
-63.363	-200.000	0.013	0.178
-62.349	-25.229	0.360	0.213
-61.334	37.531	-0.807	-0.713
-60.319	119.241	-0.116	0.143
-59.305	271.184	0.302	-0.530
-58.290	-66.045	0.209	0.083
-57.276	800.000	0.478	1.549
-56.261	-200.000	69.939	516.804
-55.246	581.038	1263.999	3087.176
-54.232	139.798	2522.738	3312.013
-53.217	120.792	2249.272	2786.547
-52.203	57.536	1691.612	1646.889
-51.188	48.595	1405.656	1312.550
-50.173	44.666	1356.585	1242.753
-49.159	61.673	1387.428	1375.862
-48.144	70.738	1406.639	1450.428
-47.130	48.922	1370.744	1281.751
-46.115	44.555	1354.570	1240.038
-45.100	44.320	1350.104	1234.473
-44.086	44.232	1348.081	1232.036
-43.071	44.056	1345.689	1228.736
-42.057	44.239	1343.104	1227.432
-41.042	44.108	1341.705	1225.316
-40.027	44.377	1339.504	1224.876
-39.013	44.340	1338.113	1223.339
-37.998	44.408	1335.867	1221.645
-36.984	44.433	1334.360	1220.364
-35.969	44.505	1332.371	1218.931
-34.954	44.615	1330.400	1217.736
-33.940	44.549	1329.026	1216.037
-32.925	44.499	1328.111	1214.851
-31.911	44.401	1326.926	1213.137
-30.896	44.575	1324.440	1211.849
-29.881	44.480	1323.099	1210.010
-28.867	44.409	1321.818	1208.370
-27.852	44.517	1320.225	1207.505
-26.838	44.567	1318.610	1206.276
-25.823	44.470	1317.485	1204.627
-24.809	44.560	1315.826	1203.593
-23.794	44.571	1314.370	1202.278
-22.779	44.491	1312.964	1200.475
-21.765	44.481	1311.884	1199.376
-20.750	44.523	1310.414	1198.237
-19.736	44.437	1309.381	1196.736
-18.721	44.297	1308.302	1194.877
-17.706	44.449	1306.581	1194.151
-16.692	44.278	1305.724	1192.319
-15.677	44.437	1304.645	1192.221
-14.663	44.435	1303.088	1190.736
-13.648	44.335	1302.298	1189.383
-12.633	44.353	1301.767	1188.954
-11.619	44.425	1300.327	1188.015
-10.604	44.402	1299.718	1187.276
-9.590	44.382	1298.974	1186.430
-8.575	44.412	1297.772	1185.465
-7.560	44.437	1296.555	1184.447
-6.546	44.304	1295.902	1183.029
-5.531	44.342	1294.895	1182.284
-4.517	44.406	1294.234	1182.006
-3.502	44.400	1293.226	1181.004
-2.487	44.306	1292.208	1179.485
-1.473	44.462	1288.521	1176.972
-0.458	43.591	1273.773	1158.472
0.556	37.589	1252.654	1114.380
1.571	32.448	1254.538	1086.377
2.586	30.344	1267.796	1085.469
3.600	28.421	1256.656	1064.679
4.615	21.791	1181.526	964.593
5.629	11.495	1099.694	844.704
6.644	6.319	1074.969	799.409
7.659	5.803	1071.913	794.449
8.673	5.701	1070.421	792.759
9.688	5.559	1068.960	790.887
10.702	6.002	1068.173	792.471
11.717	11.708	1077.159	828.034
12.731	19.147	1086.717	873.172
13.746	19.786	1085.733	875.540
14.761	17.500	1082.560	861.351
15.775	16.187	1080.227	852.785
16.790	15.140	1078.237	845.855
17.804	14.525	1076.109	841.013
18.819	14.159	1074.962	838.195
19.834	13.679	1074.296	835.185
20.848	13.373	1073.700	833.105
21.863	13.183	1072.706	831.308
22.877	13.074	1071.927	830.080
23.892	13.095	1071.180	829.536
24.907	13.182	1070.287	829.208
25.921	13.082	1069.245	827.824
26.936	13.104	1068.075	826.958
27.950	13.225	1066.639	826.377
28.965	13.328	1064.826	825.409
29.980	13.398	1063.481	824.646
30.994	13.274	1062.819	823.440
32.009	13.514	1061.188	823.296
33.023	13.379	1060.318	821.877
34.038	13.253	1059.270	820.368
35.053	13.271	1058.042	819.437
36.067	13.295	1056.969	818.649
37.082	13.254	1056.486	817.999
38.096	13.275	1056.016	817.668
39.111	13.287	1054.942	816.823
40.126	13.248	1054.070	815.886
41.140	13.087	1052.720	813.975
42.155	13.108	1051.000	812.673
43.169	13.072	1050.353	811.924
44.184	13.030	1049.139	810.707
45.199	13.067	1048.229	810.118
46.213	13.098	1047.215	809.412
47.228	13.140	1045.921	808.548
48.242	13.189	1044.915	807.937
49.257	13.286	1043.989	807.622
50.271	13.152	1043.299	806.365
51.286	13.193	1042.385	805.788
52.301	13.275	1041.011	805.050
53.315	13.302	1039.647	804.057
54.330	13.208	1039.083	803.093
55.344	13.175	1038.004	802.026
56.359	13.166	1037.177	801.275
57.374	13.111	1036.303	800.262
58.388	13.103	1035.528	799.552
59.403	12.989	1035.008	798.527
60.417	13.003	1033.801	797.594
61.432	13.089	1032.548	796.973
62.447	13.042	1031.940	796.206
63.461	12.903	1031.945	795.468
64.476	13.015	1030.048	794.477
65.490	12.993	1029.717	794.044
66.505	13.078	1028.947	793.787
67.520	12.917	1028.274	792.426
68.534	13.007	1027.448	792.152
69.549	13.034	1026.862	791.760
70.563	13.004	1026.181	791.019
71.578	12.946	1025.061	789.810
72.593	12.847	1024.502	788.835
73.607	12.957	1023.669	788.652
74.622	12.961	1023.009	788.091
75.636	12.880	1022.212	787.022
76.651	12.971	1021.480	786.823
77.666	12.918	1021.221	786.301
78.680	12.829	1020.618	785.340
79.695	12.913	1019.720	784.980
80.709	13.009	1019.213	784.979
81.724	13.091	1018.640	784.857
82.739	13.145	1017.611	784.252
83.753	13.199	1017.204	784.124
84.768	13.382	1015.900	783.918
85.782	13.284	1015.652	783.192
86.797	13.389	1014.182	782.484
87.812	13.288	1013.282	781.247
88.826	13.151	1012.588	779.996
89.841	13.285	1011.392	779.637
90.855	13.317	1010.790	779.251
91.870	13.374	1009.980	778.829
92.884	13.385	1009.231	778.233
93.899	13.315	1008.501	777.274
94.914	13.444	1007.383	776.947
95.928	13.450	1006.774	776.437
96.943	13.385	1005.493	775.078
97.957	13.310	1005.197	774.427
98.972	13.376	1003.861	773.637
99.987	13.428	1003.069	773.202
101.001	13.250	1001.954	771.446
102.016	13.302	1001.416	771.204
103.030	13.367	1000.572	770.788
104.045	13.332	999.692	769.881
105.060	13.269	998.961	768.955
106.074	13.230	998.032	767.995
107.089	13.169	996.872	766.748
108.103	13.107	995.895	765.640
109.118	13.175	994.755	765.013
110.133	13.035	994.136	763.822
111.147	13.036	993.448	763.230
112.162	13.064	992.460	762.533
113.176	13.256	991.795	762.842
114.191	13.131	991.097	761.658
115.206	13.207	990.382	761.392
116.220	13.088	989.779	760.314
117.235	13.235	988.546	759.975
118.249	13.121	987.911	758.898
119.264	13.130	986.861	758.061
120.279	13.103	986.113	757.297
121.293	13.171	985.253	756.882
122.308	13.066	984.676	755.893
123.322	13.136	983.076	754.916
124.337	13.029	982.605	754.000
125.352	13.019	981.280	752.872
126.366	13.089	980.190	752.287
127.381	13.135	979.223	751.687
128.395	13.258	978.206	751.397
129.410	13.186	977.584	750.525
130.424	13.159	976.902	749.812
131.439	13.285	975.983	749.612
132.454	13.342	975.100	749.129
133.468	13.446	974.236	748.868
134.483	13.263	973.748	747.599
135.497	13.246	972.993	746.875
136.512	13.398	972.039	746.765
137.527	13.392	971.097	745.948
138.541	13.358	970.441	745.223
139.556	13.415	969.774	744.902
140.570	13.446	969.067	744.435
141.585	13.599	968.497	744.618
142.600	13.551	967.191	743.334
143.614	13.621	966.667	743.177
144.629	13.617	965.808	742.433
145.643	13.464	964.785	740.895
146.658	13.482	963.799	740.155
147.673	13.512	963.088	739.678
148.687	13.419	962.498	738.741
149.702	13.342	960.901	737.108
150.716	13.370	960.240	736.660
151.731	13.371	959.392	735.952
152.746	13.506	958.820	736.044
153.760	13.401	958.278	735.100
154.775	13.414	957.701	734.646
155.789	13.491	956.912	734.320
156.804	13.424	956.431	733.588
157.819	13.478	955.674	733.181
158.833	13.595	954.977	733.100
159.848	13.611	953.949	732.316
160.862	13.552	953.320	731.508
161.877	13.452	952.313	730.230
162.892	13.451	951.205	729.313
163.906	13.486	950.177	728.612
164.921	13.423	949.374	727.658
165.935	13.551	948.276	727.310
166.950	13.484	947.801	726.589
167.964	13.495	946.861	725.852
168.979	13.510	946.032	725.218
169.994	13.572	944.860	724.529
171.008	13.649	944.281	724.355
172.023	13.678	943.804	724.054
173.037	13.652	942.685	723.014
174.052	13.620	942.554	722.715
175.067	13.560	941.511	721.589
176.081	13.606	940.895	721.253
177.096	13.485	940.643	720.470
178.110	13.555	939.932	720.163
179.125	13.533	939.227	719.467
180.140	13.539	939.267	719.459
181.154	13.685	938.241	719.243
182.169	13.737	937.959	719.187
183.183	13.814	937.321	718.968
184.198	13.747	936.552	718.022
185.213	13.824	936.135	717.974
186.227	13.742	935.310	716.924
187.242	13.907	934.687	717.094
188.256	13.864	934.415	716.638
189.271	13.903	933.496	716.038
190.286	13.695	932.393	714.233
191.300	13.648	931.730	713.461
192.315	13.542	930.967	712.354
193.329	13.617	930.636	712.361
194.344	13.617	930.413	712.127
195.359	13.797	929.128	711.855
196.373	13.753	928.579	711.184
197.388	13.908	928.541	711.754
198.402	13.969	927.997	711.535
199.417	13.982	927.429	711.092
200.432	14.019	926.763	710.676
201.446	14.268	926.137	711.198
202.461	14.213	925.590	710.480
203.475	14.110	925.231	709.703
204.490	13.995	924.642	708.696
205.504	13.975	923.775	707.885
206.519	14.007	922.791	707.206
207.534	13.981	922.284	706.640
208.548	14.078	921.361	706.284
209.563	14.033	920.262	705.187
210.577	14.022	920.030	704.901
211.592	14.212	919.420	705.179
212.607	14.189	918.684	704.455
213.621	14.281	917.371	703.774
214.636	14.162	917.197	703.075
215.650	14.214	916.475	702.677
216.665	14.272	916.157	702.618
217.680	14.180	915.728	701.839
218.694	14.354	914.678	701.705
219.709	14.283	914.151	700.939
220.723	14.299	912.913	699.993
221.738	14.304	912.246	699.444
222.753	14.243	912.145	699.046
223.767	14.241	911.577	698.540
224.782	14.371	910.749	698.391
225.796	14.312	910.619	697.984
226.811	14.278	909.970	697.281
227.826	14.322	908.944	696.617
228.840	14.305	908.433	696.090
229.855	14.347	907.325	695.356
230.869	14.434	906.441	694.981
231.884	14.324	905.742	693.925
232.899	14.292	904.878	693.069
233.913	14.388	904.131	692.836
234.928	14.298	903.971	692.275
235.942	14.211	903.305	691.345
236.957	14.182	903.192	691.073
237.972	14.264	902.126	690.536
238.986	14.296	901.419	690.069
240.001	14.323	901.114	689.884
241.015	14.582	899.801	689.893
242.030	14.475	899.499	689.155
243.045	14.541	899.284	689.204
244.059	14.604	898.666	688.927
245.074	14.473	898.124	687.914
246.088	14.608	897.266	687.750
247.103	14.652	896.568	687.336
248.117	14.544	896.222	686.565
249.132	14.874	895.656	687.428
250.147	14.838	894.783	686.549
251.161	14.920	893.837	686.097
252.176	14.805	893.583	685.370
253.190	14.916	892.823	685.183
254.205	14.973	891.760	684.540
255.220	15.047	891.362	684.477
256.234	14.954	890.987	683.748
257.249	14.860	890.343	682.810
258.263	15.127	889.175	682.940
259.278	14.935	889.256	682.161
260.293	15.025	888.335	681.761
261.307	15.168	887.427	681.583
262.322	15.124	886.471	680.610
263.336	15.216	886.415	680.883
264.351	15.104	885.576	679.724
265.366	15.239	885.058	679.812
266.380	15.204	884.211	678.958
267.395	15.230	883.628	678.559
268.409	15.101	882.822	677.357
269.424	15.147	882.057	676.896
270.439	15.297	880.965	676.603
271.453	15.022	880.706	675.235
272.468	15.019	880.116	674.712
273.482	15.181	879.565	674.882
274.497	15.094	879.147	674.151
275.512	15.015	878.675	673.410
276.526	15.256	878.014	673.812
277.541	15.209	877.529	673.192
278.555	15.233	876.918	672.762
279.570	15.451	876.290	673.095
280.585	15.320	875.542	671.934
281.599	15.284	874.830	671.186
282.614	15.280	873.797	670.319
283.628	15.361	873.318	670.215
284.643	15.337	872.903	669.742
285.657	15.411	872.486	669.657
286.672	15.305	871.476	668.401
287.687	15.386	870.610	667.997
288.701	15.405	870.388	667.843
289.716	15.250	869.981	666.858
290.730	15.381	869.248	666.759
291.745	15.199	868.784	665.619
292.760	15.304	868.111	665.463
293.774	15.511	867.564	665.803
294.789	15.334	867.053	664.651
295.803	15.382	866.245	664.164
296.818	15.395	865.554	663.625
297.833	15.350	865.023	662.984
298.847	15.493	864.403	663.015
299.862	15.479	863.707	662.368
300.876	15.522	863.315	662.178
301.891	15.607	862.378	661.735
302.906	15.680	862.164	661.798
303.920	15.808	861.626	661.831
304.935	15.743	861.172	661.165
305.949	15.704	860.130	660.156
306.964	15.728	859.424	659.648
307.979	15.707	859.174	659.318
308.993	15.769	858.583	659.050
310.008	15.898	857.761	658.865
311.022	15.927	857.174	658.468
312.037	15.857	856.584	657.681
313.052	15.541	856.162	656.065
314.066	15.677	855.438	655.982
315.081	15.685	854.994	655.618
316.095	15.644	854.294	654.861
317.110	15.597	853.836	654.271
318.125	15.678	853.181	654.026
319.139	15.715	852.799	653.818
320.154	15.754	852.332	653.556
321.168	15.706	852.026	653.074
322.183	15.728	851.337	652.574
323.197	15.716	851.003	652.215
324.212	15.851	850.224	652.084
325.227	15.702	849.589	650.963
326.241	15.841	848.869	650.888
327.256	15.773	848.202	650.060
328.270	15.798	847.949	649.902
329.285	15.849	847.080	649.377
330.300	15.831	846.660	648.926
331.314	15.718	846.278	648.140
332.329	15.876	845.782	648.312
333.343	15.936	845.355	648.161
334.358	16.058	844.973	648.279
335.373	15.940	844.708	647.563
336.387	16.092	844.348	647.816
337.402	15.999	844.220	647.303
338.416	16.081	843.717	647.174
339.431	16.126	843.460	647.092
340.446	16.224	842.929	647.003
341.460	16.100	842.416	646.079
342.475	16.164	842.406	646.258
343.489	16.244	841.701	645.965
344.504	16.280	841.047	645.543
345.519	16.393	840.516	645.513
346.533	16.317	840.153	644.884
347.548	16.252	839.727	644.253
348.562	16.316	838.730	643.676
349.577	16.220	838.088	642.759
350.592	16.289	837.788	642.737
351.606	16.234	837.250	642.058
352.621	16.352	836.212	641.653
353.635	16.197	835.765	640.665
354.650	16.310	835.147	640.564
355.665	16.397	834.686	640.483
356.679	16.448	833.654	639.827
357.694	16.351	833.396	639.204
358.708	16.449	832.723	639.004
359.723	16.325	832.176	638.056
360.738	16.328	831.648	637.606
361.752	16.492	830.783	637.508
362.767	16.612	830.245	637.487
363.781	16.472	829.953	636.681
364.796	16.523	829.773	636.680
365.810	16.596	829.081	636.365
366.825	16.580	829.057	636.232
367.840	16.635	828.538	635.983
368.854	16.568	827.574	634.937
369.869	16.600	827.100	634.635
370.883	16.711	827.138	635.026
371.898	16.746	826.638	634.716
372.913	16.611	826.122	633.758
373.927	16.720	825.527	633.653
374.942	16.768	825.201	633.527
375.956	16.853	824.897	633.554
376.971	16.863	824.458	633.199
377.986	16.797	824.154	632.662
379.000	16.850	823.415	632.238
380.015	16.917	822.947	632.072
381.029	16.919	822.299	631.524
382.044	17.081	821.174	631.208
383.059	17.029	821.066	630.877
384.073	16.888	820.781	630.077
385.088	16.907	819.708	629.269
386.102	16.991	818.912	628.913
387.117	16.849	818.915	628.334
388.132	16.726	818.442	627.459
389.146	16.772	818.370	627.520
390.161	16.895	817.500	627.252
391.175	17.054	816.948	627.362
392.190	16.931	816.365	626.404
393.205	17.044	815.607	626.184
394.219	16.954	815.614	625.801
395.234	16.997	815.123	625.526
396.248	16.961	814.833	625.118
397.263	16.827	814.394	624.230
398.278	16.874	814.185	624.187
399.292	16.856	813.624	623.636
400.307	16.969	812.970	623.498
401.321	16.895	812.594	622.879
402.336	17.037	812.009	622.897
403.350	16.901	811.765	622.155
404.365	16.997	811.314	622.109
405.380	17.206	810.748	622.384
406.394	17.147	810.252	621.734
407.409	17.128	809.741	621.218
408.423	17.281	808.981	621.138
409.438	17.420	808.854	621.492
410.453	17.443	808.506	621.255
411.467	17.372	808.107	620.634
412.482	17.466	807.828	620.708
413.496	17.443	807.168	620.063
414.511	17.407	807.449	620.091
415.526	17.387	806.664	619.361
416.540	17.564	805.802	619.290
417.555	17.548	805.496	618.941
418.569	17.525	805.112	618.506
419.584	17.552	804.881	618.373
420.599	17.509	804.647	617.983
421.613	76.099	1235.980	1263.938
422.628	64.358	1298.850	1264.068
