DTS Sentinel unit serial number:	SN413079Multiplexer serial number:	ORYXHardware model number:	OX4-SRSoftware version number:	ORYX F/W v4.00 Oryx Data Collector v3.7.2.0data status	okinstallation	princeton_trtdifferential loss correction	single-endedforward channel	channel 1reverse channel	N/Adate	2019/09/19time	01:38:35forward acquisition time	60.00reverse acquisition time	0.00gamma	496.2192k internal	0.2344k external	0.2344temperature offset calibration	1.0020default loss term (dB/km)	0.3790temperature slope calibration	1.0000multiplexer offset coefficient	1.0000multiplexer slope coefficient	1.0000fibre end	0.00T internal ref (°C)	21.50T ext. ref 1 (°C)	0.69T ext. ref 2 (°C)	14.82length (m)	temperature (°C)	Stokes	anti-Stokes-747.200	-123.302	-0.114	-0.018
-746.185	12.338	-0.045	0.035
-745.171	-200.000	0.050	0.222
-744.156	184.279	-0.257	0.381
-743.142	586.802	-0.052	-0.129
-742.127	671.813	0.080	-0.207
-741.112	186.467	0.104	0.154
-740.098	-92.920	0.345	0.096
-739.083	-11.584	0.274	0.180
-738.069	323.263	-0.187	0.357
-737.054	-87.514	-0.122	0.037
-736.039	-108.474	-0.050	0.011
-735.025	800.000	-0.031	-0.095
-734.010	-116.965	-0.293	-0.054
-732.996	800.000	0.142	-0.411
-731.981	-200.000	-0.035	0.291
-730.966	53.445	0.246	-0.236
-729.952	-200.000	0.033	-0.260
-728.937	635.637	-0.076	-0.194
-727.923	338.585	0.078	0.153
-726.908	-64.511	0.100	-0.040
-725.894	133.667	-0.146	0.189
-724.879	196.439	0.117	0.178
-723.864	289.913	-0.146	0.265
-722.850	-176.590	0.290	0.007
-721.835	-109.932	-0.337	-0.071
-720.821	-92.779	-0.139	-0.039
-719.806	-148.581	-0.242	-0.020
-718.791	800.000	0.065	-0.190
-717.777	-200.000	-0.005	0.094
-716.762	-70.268	-0.163	-0.062
-715.748	-133.470	0.244	-0.031
-714.733	-134.086	-0.287	-0.035
-713.718	64.482	0.125	-0.125
-712.704	800.000	0.117	0.359
-711.689	130.300	0.227	0.290
-710.675	-200.000	-0.011	-0.407
-709.660	666.084	0.124	-0.320
-708.645	226.029	0.157	0.254
-707.631	148.448	-0.018	-0.024
-706.616	62.608	-0.230	-0.230
-705.602	-55.126	0.209	-0.094
-704.587	92.702	-0.063	-0.071
-703.572	139.870	0.050	0.066
-702.558	-99.959	0.281	0.070
-701.543	-200.000	0.044	-0.209
-700.529	-29.799	0.293	0.167
-699.514	-200.000	-0.046	-0.211
-698.499	-19.001	0.520	-0.323
-697.485	160.033	-0.318	-0.443
-696.470	-96.674	0.412	-0.108
-695.456	-28.705	-0.094	-0.054
-694.441	603.406	-0.143	-0.354
-693.426	162.920	-0.056	-0.078
-692.412	800.000	-0.113	-0.326
-691.397	79.205	0.051	-0.055
-690.383	-193.459	-0.167	-0.001
-689.368	160.251	0.321	-0.447
-688.354	-153.344	0.425	0.030
-687.339	113.979	0.201	-0.244
-686.324	255.912	-0.127	0.218
-685.310	55.222	0.179	-0.173
-684.295	167.732	-0.107	-0.152
-683.281	800.000	-0.071	-0.255
-682.266	800.000	-0.100	-0.334
-681.251	87.037	-0.131	0.144
-680.237	800.000	0.025	-0.088
-679.222	-200.000	-0.015	0.117
-678.208	-152.682	-0.132	0.009
-677.193	-24.970	-0.160	-0.095
-676.178	349.089	-0.138	0.272
-675.164	-117.937	-0.124	0.022
-674.149	-103.941	0.168	-0.039
-673.135	-200.000	-0.073	0.380
-672.120	61.876	-0.409	-0.406
-671.105	297.054	-0.130	0.237
-670.091	445.501	0.152	0.333
-669.076	379.998	-0.101	-0.207
-668.062	-91.776	-0.066	-0.019
-667.047	-21.127	0.187	0.114
-666.032	295.766	0.121	0.221
-665.018	-29.393	-0.245	0.140
-664.003	-75.612	-0.055	-0.020
-662.989	301.876	-0.090	-0.165
-661.974	502.677	0.072	0.165
-660.959	-22.316	0.072	0.044
-659.945	53.399	0.213	-0.203
-658.930	104.093	-0.196	0.229
-657.916	-118.551	-0.058	0.010
-656.901	118.375	0.168	-0.206
-655.886	415.326	-0.043	0.091
-654.872	800.000	0.084	-0.323
-653.857	-200.000	0.001	0.275
-652.843	495.937	0.027	0.062
-651.828	-80.036	-0.149	-0.050
-650.814	89.782	-0.083	-0.092
-649.799	-65.944	0.212	0.085
-648.784	19.803	0.214	-0.172
-647.770	-200.000	0.009	-0.278
-646.755	-200.000	0.063	-0.304
-645.741	71.643	0.045	0.047
-644.726	200.873	-0.113	0.173
-643.711	113.973	0.125	-0.151
-642.697	258.368	0.163	-0.279
-641.682	134.453	-0.060	-0.077
-640.668	35.227	-0.173	0.151
-639.653	79.178	0.019	0.021
-638.638	-100.967	0.186	-0.045
-637.624	-156.752	-0.385	0.024
-636.609	386.811	0.094	-0.194
-635.595	800.000	-0.036	0.155
-634.580	-38.677	-0.305	-0.161
-633.565	202.504	-0.110	0.170
-632.551	-4.632	-0.156	-0.108
-631.536	578.508	-0.121	-0.296
-630.522	388.630	0.057	0.118
-629.507	17.070	-0.072	0.057
-628.492	-5.719	-0.136	0.093
-627.478	-141.548	0.297	0.030
-626.463	-113.359	0.185	-0.036
-625.449	-200.000	-0.006	-0.207
-624.434	-200.000	0.011	-0.127
-623.419	-74.244	-0.144	0.052
-622.405	-146.868	-0.327	-0.028
-621.390	385.857	0.045	-0.093
-620.376	-28.430	-0.071	-0.041
-619.361	141.877	0.154	-0.203
-618.346	-131.261	-0.274	-0.036
-617.332	800.000	0.061	0.171
-616.317	-156.852	0.265	-0.016
-615.303	-58.220	-0.225	-0.097
-614.288	201.814	0.101	0.155
-613.273	18.298	-0.068	-0.054
-612.259	156.463	-0.099	-0.136
-611.244	-33.296	-0.426	-0.235
-610.230	-67.670	-0.253	0.099
-609.215	-160.555	0.429	-0.023
-608.201	20.116	0.155	-0.125
-607.186	307.758	0.134	-0.249
-606.171	-149.339	-0.341	-0.027
-605.157	-200.000	-0.034	0.312
-604.142	267.482	0.079	0.137
-603.128	-153.590	-0.161	-0.011
-602.113	-22.446	0.304	-0.183
-601.098	644.194	-0.051	-0.129
-600.084	-200.000	-0.023	-0.263
-599.069	-87.754	-0.132	0.040
-598.055	-140.693	0.206	0.021
-597.040	284.599	0.065	-0.117
-596.025	-55.985	0.247	0.109
-595.011	-200.000	-0.051	-0.297
-593.996	58.881	0.182	-0.178
-592.982	800.000	-0.103	-0.394
-591.967	69.067	0.132	0.135
-590.952	16.259	-0.056	-0.044
-589.938	197.153	-0.093	-0.141
-588.923	35.423	-0.054	-0.047
-587.909	-200.000	0.014	-0.537
-586.894	-107.571	0.244	0.053
-585.879	11.709	-0.185	0.141
-584.865	-118.208	-0.148	-0.026
-583.850	-27.751	0.097	-0.056
-582.836	-200.000	0.033	0.250
-581.821	-4.611	-0.306	-0.210
-580.806	316.462	0.214	0.401
-579.792	-200.000	0.000	0.052
-578.777	800.000	0.033	-0.127
-577.763	95.245	0.155	0.176
-576.748	143.639	0.092	-0.122
-575.733	-85.613	0.275	0.085
-574.719	-183.964	-0.225	0.004
-573.704	-161.964	-0.168	0.008
-572.690	-77.172	-0.376	0.130
-571.675	190.806	-0.130	0.194
-570.661	800.000	-0.128	0.519
-569.646	356.936	-0.129	0.257
-568.631	-101.179	-0.241	-0.059
-567.617	-200.000	-0.038	0.380
-566.602	128.803	0.082	-0.104
-565.588	-175.151	0.183	0.005
-564.573	95.583	0.255	-0.289
-563.558	442.830	-0.186	-0.405
-562.544	800.000	0.109	-0.365
-561.529	-66.918	-0.179	-0.070
-560.515	31.944	0.183	0.156
-559.500	61.083	-0.242	0.238
-558.485	800.000	-0.106	-0.356
-557.471	491.585	0.032	0.073
-556.456	49.736	0.170	0.159
-555.442	-102.458	0.308	0.073
-554.427	613.871	-0.171	-0.425
-553.412	43.318	0.057	-0.052
-552.398	244.160	-0.108	-0.181
-551.383	412.502	0.024	0.051
-550.369	-200.000	-0.010	0.176
-549.354	-200.000	-0.002	-0.139
-548.339	-157.147	0.163	0.010
-547.325	-145.416	-0.251	-0.022
-546.310	-32.457	0.198	0.110
-545.296	-200.000	0.034	0.225
-544.281	-112.752	-0.322	-0.063
-543.266	448.598	-0.130	-0.285
-542.252	45.609	-0.182	0.167
-541.237	-112.847	0.129	-0.025
-540.223	-200.000	-0.059	0.307
-539.208	70.828	-0.074	0.076
-538.193	386.490	-0.082	-0.168
-537.179	-200.000	0.031	-0.273
-536.164	-34.757	0.052	-0.028
-535.150	23.730	0.226	-0.185
-534.135	-85.754	-0.173	0.053
-533.121	114.590	-0.234	0.283
-532.106	-200.000	0.032	0.330
-531.091	20.645	0.214	0.172
-530.077	800.000	0.009	0.028
-529.062	-42.976	-0.189	-0.095
-528.048	-200.000	0.036	-0.229
-527.033	-200.000	-0.017	0.205
-526.018	-200.000	0.014	0.193
-525.004	-200.000	0.019	0.546
-523.989	-0.532	0.209	-0.147
-522.975	-75.990	-0.409	-0.144
-521.960	9.618	0.082	0.062
-520.945	153.190	-0.137	0.186
-519.931	250.974	-0.138	-0.233
-518.916	-200.000	0.001	0.118
-517.902	-200.000	0.014	-0.145
-516.887	65.538	0.112	-0.112
-515.872	155.710	-0.083	0.113
-514.858	-200.000	0.030	0.397
-513.843	-200.000	-0.041	-0.183
-512.829	800.000	0.072	-0.213
-511.814	32.044	0.067	-0.057
-510.799	-29.405	-0.108	0.061
-509.785	800.000	0.057	0.217
-508.770	-165.191	-0.342	0.015
-507.756	216.515	0.143	-0.225
-506.741	-114.756	-0.125	-0.024
-505.726	800.000	-0.049	-0.141
-504.712	-200.000	0.043	-0.218
-503.697	-200.000	0.029	0.182
-502.683	-57.915	-0.033	-0.014
-501.668	-1.867	-0.272	0.190
-500.653	-66.613	0.397	-0.156
-499.639	-200.000	0.001	-0.123
-498.624	800.000	-0.041	0.112
-497.610	-74.937	0.099	-0.035
-496.595	404.414	0.078	0.163
-495.581	84.407	-0.121	0.132
-494.566	-127.216	-0.213	-0.031
-493.551	-200.000	-0.035	-0.429
-492.537	-187.729	0.251	-0.003
-491.522	345.519	-0.167	0.326
-490.508	83.128	0.206	0.223
-489.493	598.519	0.167	-0.409
-488.478	-56.741	0.076	0.033
-487.464	319.014	0.089	0.168
-486.449	-200.000	-0.031	0.397
-485.435	800.000	-0.072	0.294
-484.420	284.217	-0.174	-0.310
-483.405	-34.344	0.171	-0.093
-482.391	-6.272	0.105	0.071
-481.376	306.429	-0.106	-0.195
-480.362	-25.622	0.120	-0.070
-479.347	-148.088	-0.186	-0.015
-478.332	218.562	-0.052	0.083
-477.318	25.705	-0.093	0.077
-476.303	-200.000	0.260	-0.001
-475.289	800.000	-0.027	-0.104
-474.274	179.815	-0.198	-0.287
-473.259	-14.736	0.022	-0.014
-472.245	-77.883	0.107	-0.037
-471.230	-12.530	0.033	-0.021
-470.216	-200.000	-0.038	0.204
-469.201	468.735	0.084	-0.187
-468.186	36.308	-0.083	-0.072
-467.172	-66.022	0.161	-0.064
-466.157	-200.000	0.019	0.094
-465.143	-129.177	-0.047	-0.006
-464.128	-47.151	-0.278	-0.134
-463.113	-200.000	0.020	0.152
-462.099	15.870	-0.245	0.191
-461.084	-200.000	-0.031	0.195
-460.070	-200.000	0.005	0.346
-459.055	800.000	0.037	0.105
-458.040	-120.587	0.353	0.059
-457.026	-48.663	0.090	0.043
-456.011	-200.000	0.021	0.435
-454.997	-115.509	-0.135	-0.025
-453.982	656.911	-0.108	0.275
-452.968	94.620	0.097	0.110
-451.953	-200.000	0.002	-0.266
-450.938	740.486	0.063	0.168
-449.924	800.000	-0.107	-0.355
-448.909	411.931	-0.135	-0.283
-447.895	-200.000	-0.009	0.289
-446.880	-26.734	0.093	0.054
-445.865	-33.290	0.231	-0.127
-444.851	268.763	0.065	0.112
-443.836	-200.000	-0.049	-0.225
-442.822	800.000	-0.043	0.120
-441.807	248.107	0.055	-0.092
-440.792	-124.738	-0.341	0.052
-439.778	285.765	0.066	-0.117
-438.763	-200.000	-0.017	0.298
-437.749	190.213	0.023	-0.034
-436.734	110.064	-0.191	-0.226
-435.719	63.483	-0.057	-0.056
-434.705	-66.493	0.215	-0.085
-433.690	-66.622	-0.072	0.028
-432.676	63.199	-0.149	0.148
-431.661	-200.000	-0.011	-0.056
-430.646	800.000	-0.055	0.171
-429.632	485.098	-0.080	-0.181
-428.617	-200.000	0.015	-0.065
-427.603	-1.146	0.309	-0.216
-426.588	-51.015	-0.179	0.083
-425.573	459.586	-0.133	-0.292
-424.559	34.115	-0.077	0.067
-423.544	-200.000	0.011	0.051
-422.530	57.249	0.328	-0.316
-421.515	160.879	0.086	-0.119
-420.500	-67.804	0.214	-0.082
-419.486	-75.329	-0.484	0.171
-418.471	800.000	0.039	-0.146
-417.457	407.203	-0.093	0.194
-416.442	-5.982	0.044	0.029
-415.428	194.184	0.072	0.108
-414.413	407.414	-0.074	0.155
-413.398	-200.000	0.008	0.253
-412.384	-43.004	0.273	0.137
-411.369	226.080	-0.190	0.304
-410.355	-120.926	0.151	-0.025
-409.340	220.540	0.111	0.175
-408.325	-200.000	-0.008	0.287
-407.311	88.921	-0.172	0.189
-406.296	-200.000	-0.052	0.336
-405.282	-200.000	0.015	-0.144
-404.267	776.612	0.115	0.309
-403.252	215.144	-0.077	0.121
-402.238	-132.338	0.236	-0.030
-401.223	42.689	-0.185	-0.167
-400.209	-132.043	0.157	-0.020
-399.194	674.377	-0.102	0.260
-398.179	-124.103	-0.095	0.015
-397.165	-28.970	-0.200	0.113
-396.150	234.091	0.144	0.234
-395.136	-181.569	-0.216	0.004
-394.121	-134.511	-0.230	-0.028
-393.106	-104.935	0.260	0.059
-392.092	-12.050	-0.103	-0.067
-391.077	73.579	-0.057	-0.059
-390.063	-70.386	-0.277	-0.104
-389.048	-200.000	0.053	-0.307
-388.033	87.474	-0.048	0.052
-387.019	337.527	-0.152	0.291
-386.004	-16.814	-0.232	0.145
-384.990	-162.393	0.212	-0.010
-383.975	-200.000	0.027	-0.339
-382.960	-115.996	-0.147	-0.027
-381.946	-63.832	0.175	-0.071
-380.931	-125.551	0.280	0.042
-379.917	-175.700	0.183	-0.005
-378.902	-114.647	0.138	-0.026
-377.888	-54.289	-0.149	-0.067
-376.873	103.872	0.212	0.246
-375.858	-84.854	-0.120	0.037
-374.844	-80.780	-0.339	-0.111
-373.829	507.808	-0.083	0.189
-372.815	-200.000	0.032	-0.299
-371.800	183.916	0.167	-0.244
-370.785	-153.767	0.184	-0.012
-369.771	800.000	0.041	-0.158
-368.756	73.682	0.183	-0.189
-367.742	301.225	0.084	-0.153
-366.727	617.955	-0.038	0.095
-365.712	-161.936	0.120	0.006
-364.698	207.224	0.146	-0.225
-363.683	-200.000	0.005	-0.073
-362.669	-41.735	0.109	0.055
-361.654	-163.310	-0.106	-0.005
-360.639	58.117	0.047	-0.046
-359.625	-81.554	-0.197	0.064
-358.610	-131.735	-0.489	0.063
-357.596	800.000	0.097	-0.353
-356.581	-80.050	0.350	0.116
-355.566	7.193	-0.208	-0.153
-354.552	-200.000	0.049	0.277
-353.537	-200.000	-0.023	0.130
-352.523	-165.680	0.393	-0.017
-351.508	187.381	0.061	-0.090
-350.493	800.000	0.083	-0.273
-349.479	-70.807	0.373	0.139
-348.464	-61.753	-0.250	-0.103
-347.450	701.133	-0.118	0.305
-346.435	-200.000	-0.044	0.277
-345.420	137.059	-0.057	0.074
-344.406	89.006	0.163	0.178
-343.391	-115.988	-0.274	0.050
-342.377	-69.565	-0.186	-0.070
-341.362	-200.000	-0.001	0.025
-340.348	800.000	-0.127	0.485
-339.333	406.665	0.118	0.245
-338.318	-9.150	0.111	-0.073
-337.304	-200.000	0.035	0.164
-336.289	-166.734	0.321	-0.013
-335.275	60.439	0.072	0.070
-334.260	94.533	-0.086	0.096
-333.245	-200.000	0.013	0.485
-332.231	-58.324	-0.155	0.066
-331.216	-200.000	0.003	-0.239
-330.202	-114.596	-0.195	0.037
-329.187	-80.521	-0.143	0.047
-328.172	-53.782	0.023	0.011
-327.158	167.550	0.076	-0.107
-326.143	-200.000	0.279	0.000
-325.129	317.904	0.125	-0.232
-324.114	151.786	-0.152	-0.203
-323.099	800.000	-0.044	-0.122
-322.085	393.802	-0.080	-0.165
-321.070	132.901	0.197	0.251
-320.056	-9.690	0.017	-0.011
-319.041	-0.487	0.056	-0.039
-318.026	146.390	0.141	0.186
-317.012	159.198	0.039	-0.053
-315.997	359.882	0.023	0.046
-314.983	-200.000	-0.003	-0.080
-313.968	17.028	0.098	0.077
-312.953	800.000	0.035	0.131
-311.939	800.000	0.129	0.453
-310.924	67.651	-0.105	0.105
-309.910	-3.631	0.248	-0.170
-308.895	65.738	0.032	-0.032
-307.880	800.000	0.042	-0.181
-306.866	-200.000	-0.001	0.353
-305.851	800.000	0.077	-0.328
-304.837	-91.888	-0.378	-0.106
-303.822	-67.561	-0.162	-0.062
-302.807	-62.619	0.389	-0.159
-301.793	740.656	0.094	0.248
-300.778	-54.793	0.243	-0.108
-299.764	-71.344	0.229	0.084
-298.749	30.164	0.048	-0.040
-297.735	-58.096	0.157	0.068
-296.720	216.282	0.221	0.345
-295.705	60.163	0.080	0.078
-294.691	-65.929	-0.244	0.096
-293.676	118.791	0.290	-0.353
-292.662	-64.050	0.179	-0.072
-291.647	-200.000	0.018	-0.204
-290.632	20.681	-0.086	0.068
-289.618	-14.479	0.227	-0.144
-288.603	-200.000	-0.003	0.165
-287.589	-200.000	-0.072	-0.318
-286.574	-49.145	0.235	0.110
-285.559	100.071	-0.080	-0.091
-284.545	171.813	0.190	-0.269
-283.530	387.268	0.072	-0.146
-282.516	-200.000	-0.053	0.441
-281.501	-185.166	0.068	-0.001
-280.486	800.000	0.053	-0.191
-279.472	800.000	-0.075	-0.257
-278.457	800.000	-0.024	0.088
-277.443	-140.868	-0.097	0.010
-276.428	-200.000	0.073	0.337
-275.413	-200.000	0.008	0.064
-274.399	800.000	0.073	-0.279
-273.384	29.555	0.369	-0.309
-272.370	-87.776	-0.119	-0.035
-271.355	-106.052	-0.147	0.033
-270.340	-69.259	0.270	-0.102
-269.326	271.081	0.148	0.255
-268.311	800.000	0.107	0.333
-267.297	-55.599	-0.284	0.125
-266.282	-133.181	0.319	-0.040
-265.267	78.965	-0.184	0.194
-264.253	7.479	-0.016	-0.012
-263.238	246.448	-0.144	-0.238
-262.224	-200.000	0.038	-0.282
-261.209	9.355	0.266	0.197
-260.195	-200.000	-0.001	0.052
-259.180	800.000	-0.044	-0.175
-258.165	-108.689	0.256	0.054
-257.151	543.868	0.083	0.193
-256.136	194.151	-0.110	-0.164
-255.122	22.997	0.295	-0.238
-254.107	-39.310	-0.262	-0.135
-253.092	-84.313	-0.271	-0.084
-252.078	606.867	-0.145	0.354
-251.063	67.839	0.087	-0.087
-250.049	96.543	-0.045	0.051
-249.034	-200.000	-0.012	0.488
-248.019	-5.854	-0.177	0.119
-247.005	-76.088	-0.193	-0.067
-245.990	-11.365	0.194	-0.125
-244.976	20.858	-0.094	-0.074
-243.961	-33.971	0.198	-0.107
-242.946	757.254	0.031	0.084
-241.932	-200.000	0.039	0.213
-240.917	-34.486	0.261	0.140
-239.903	179.790	-0.193	0.277
-238.888	-65.084	-0.094	-0.037
-237.873	149.755	-0.188	0.251
-236.859	-150.497	0.399	0.030
-235.844	-172.850	-0.096	-0.003
-234.830	-25.826	-0.103	-0.059
-233.815	408.659	0.144	0.298
-232.800	10.696	0.117	-0.087
-231.786	211.191	-0.086	-0.133
-230.771	-122.023	0.365	0.059
-229.757	-128.429	-0.166	-0.023
-228.742	-55.252	0.090	-0.040
-227.727	-123.388	-0.092	-0.014
-226.713	-76.647	-0.167	0.057
-225.698	-27.026	-0.175	0.100
-224.684	800.000	-0.034	-0.128
-223.669	-19.915	-0.281	-0.170
-222.655	287.033	0.071	-0.126
-221.640	-86.972	-0.292	0.087
-220.625	-41.591	0.281	0.142
-219.611	800.000	-0.159	-0.453
-218.596	-102.345	-0.293	0.069
-217.582	15.027	-0.116	0.089
-216.567	-159.778	-0.193	-0.010
-215.552	-200.000	0.001	0.072
-214.538	111.821	-0.205	0.242
-213.523	435.680	0.027	-0.057
-212.509	527.461	-0.052	0.120
-211.494	75.873	0.112	-0.116
-210.479	-141.749	-0.259	0.026
-209.465	124.441	0.137	0.169
-208.450	-200.000	0.033	-0.211
-207.436	116.142	0.175	-0.210
-206.421	236.351	-0.043	-0.069
-205.406	-72.652	0.207	0.075
-204.392	-194.198	-0.242	-0.002
-203.377	638.845	-0.031	-0.076
-202.363	14.716	0.347	0.266
-201.348	65.905	-0.030	0.030
-200.333	-107.429	-0.253	-0.054
-199.319	162.684	0.123	0.169
-198.304	240.619	-0.153	-0.250
-197.290	95.403	0.268	-0.299
-196.275	629.988	-0.048	0.119
-195.260	-200.000	-0.014	-0.138
-194.246	104.824	0.049	0.057
-193.231	-200.000	0.025	0.195
-192.217	538.336	0.101	0.236
-191.202	140.064	-0.055	0.071
-190.187	-106.915	-0.257	0.056
-189.173	-63.193	-0.361	-0.146
-188.158	-63.129	-0.067	-0.027
-187.144	-16.715	0.041	0.025
-186.129	-200.000	-0.001	0.059
-185.114	-73.883	-0.239	-0.085
-184.100	-55.509	-0.160	-0.070
-183.085	205.072	-0.033	-0.050
-182.071	241.033	-0.090	-0.147
-181.056	81.550	-0.233	-0.246
-180.042	457.663	-0.066	0.143
-179.027	-0.830	0.246	0.171
-178.012	-112.686	-0.130	0.025
-176.998	-158.583	0.130	0.007
-175.983	464.987	-0.152	-0.333
-174.969	72.900	0.243	-0.248
-173.954	175.488	0.127	0.180
-172.939	-200.000	0.015	0.224
-171.925	237.962	-0.148	-0.240
-170.910	134.008	0.170	-0.216
-169.896	486.185	0.110	-0.246
-168.881	228.843	-0.053	-0.084
-167.866	-86.853	0.226	-0.068
-166.852	-118.393	0.306	0.053
-165.837	-37.692	0.156	-0.081
-164.823	-151.282	-0.232	0.017
-163.808	-137.052	0.370	0.041
-162.793	94.465	0.103	-0.115
-161.779	7.007	-0.155	-0.113
-160.764	85.348	0.088	0.095
-159.750	-150.457	0.057	-0.004
-158.735	556.148	-0.092	-0.218
-157.720	-116.269	-0.164	0.030
-156.706	-200.000	-0.009	-0.179
-155.691	373.603	-0.129	-0.257
-154.677	-75.368	0.147	0.051
-153.662	-4.912	-0.213	0.144
-152.647	44.376	-0.255	0.229
-151.633	-128.620	0.123	-0.017
-150.618	-130.263	0.043	-0.006
-149.604	70.605	-0.063	0.064
-148.589	-27.154	0.094	0.053
-147.574	23.628	0.252	-0.203
-146.560	54.333	0.228	0.215
-145.545	800.000	0.111	0.322
-144.531	146.196	0.074	-0.098
-143.516	-200.000	-0.039	0.475
-142.502	238.149	0.150	0.244
-141.487	705.537	0.133	0.343
-140.472	-28.208	0.287	0.162
-139.458	6.622	-0.328	0.239
-138.443	-200.000	0.010	0.176
-137.429	155.883	0.164	0.221
-136.414	-133.664	-0.333	0.041
-135.399	-200.000	0.039	-0.371
-134.385	-79.829	0.110	-0.036
-133.370	-41.223	-0.090	0.046
-132.356	-76.038	-0.184	-0.063
-131.341	136.021	0.175	-0.222
-130.326	-200.000	0.002	-0.017
-129.312	-200.000	-0.024	0.235
-128.297	34.850	0.192	-0.164
-127.283	-5.931	0.127	-0.085
-126.268	-72.974	-0.055	0.020
-125.253	9.583	0.130	0.096
-124.239	-158.465	0.328	-0.019
-123.224	-136.795	0.168	-0.019
-122.210	-76.389	-0.449	-0.154
-121.195	-125.464	0.230	0.034
-120.180	-130.696	-0.402	-0.053
-119.166	104.493	-0.158	0.182
-118.151	-17.953	0.126	-0.077
-117.137	-51.631	0.307	0.140
-116.122	-92.743	-0.129	0.035
-115.107	263.698	0.208	0.353
-114.093	-81.183	-0.177	-0.057
-113.078	-200.000	0.016	0.074
-112.064	-200.000	-0.037	0.217
-111.049	-96.969	0.291	0.074
-110.034	64.134	0.261	0.257
-109.020	686.837	0.065	-0.166
-108.005	-200.000	-0.011	0.071
-106.991	-81.411	-0.277	0.089
-105.976	-74.483	0.344	-0.121
-104.962	-72.784	0.232	0.083
-103.947	800.000	0.074	-0.261
-102.932	727.337	0.042	0.108
-101.918	664.432	0.140	0.353
-100.903	21.025	0.105	0.083
-99.889	-105.251	0.229	-0.051
-98.874	-165.713	-0.014	-0.001
-97.859	-200.000	0.049	0.289
-96.845	-38.550	0.290	-0.150
-95.830	112.315	0.066	-0.078
-94.816	-53.077	-0.088	0.039
-93.801	-166.794	0.300	0.012
-92.786	-177.765	0.353	0.008
-91.772	-181.780	-0.295	0.006
-90.757	800.000	0.064	0.200
-89.743	-59.464	-0.148	0.062
-88.728	-93.488	-0.145	-0.039
-87.713	-200.000	0.014	-0.064
-86.699	-129.487	0.346	0.047
-85.684	-56.613	-0.189	0.082
-84.670	-129.117	-0.312	0.043
-83.655	-183.753	-0.110	0.002
-82.640	66.257	0.228	-0.226
-81.626	-200.000	0.009	0.041
-80.611	-53.166	0.103	-0.046
-79.597	52.761	0.029	0.027
-78.582	-98.655	-0.388	-0.096
-77.567	-111.931	0.399	-0.078
-76.553	-44.375	-0.126	-0.061
-75.538	416.188	0.131	0.273
-74.524	53.785	0.128	0.120
-73.509	222.736	0.079	-0.125
-72.494	800.000	0.065	-0.209
-71.480	300.553	-0.076	0.136
-70.465	-88.234	0.281	0.082
-69.451	316.271	-0.183	0.337
-68.436	166.832	0.316	-0.437
-67.422	-85.302	-0.202	0.061
-66.407	-200.000	-0.012	-0.110
-65.392	11.076	-0.263	-0.196
-64.378	-38.659	-0.265	0.137
-63.363	155.905	-0.050	-0.067
-62.349	-0.523	0.296	-0.204
-61.334	160.749	-1.023	-1.392
-60.319	-44.597	1.240	0.604
-59.305	722.679	-0.624	-1.618
-58.290	402.669	0.812	1.664
-57.276	653.421	0.631	1.577
-56.261	-200.000	134.527	686.009
-55.246	344.647	1672.769	3197.875
-54.232	133.998	2802.792	3536.083
-53.217	90.226	2169.645	2363.441
-52.203	32.959	1598.322	1348.501
-51.188	24.724	1345.339	1085.273
-50.173	22.582	1308.001	1042.454
-49.159	50.910	1381.600	1275.017
-48.144	47.052	1391.152	1260.314
-47.130	24.795	1338.682	1080.161
-46.115	21.655	1319.721	1046.093
-45.100	21.478	1313.960	1040.437
-44.086	21.451	1311.423	1038.225
-43.071	21.446	1308.929	1036.178
-42.057	21.342	1306.881	1033.900
-41.042	21.391	1305.631	1033.159
-40.027	21.460	1304.137	1032.347
-39.013	21.371	1302.522	1030.501
-37.998	21.288	1301.045	1028.803
-36.984	21.469	1298.907	1028.135
-35.969	21.454	1297.137	1026.605
-34.954	21.431	1295.462	1025.105
-33.940	21.530	1294.143	1024.598
-32.925	21.575	1292.130	1023.228
-31.911	21.589	1291.368	1022.664
-30.896	21.609	1289.846	1021.537
-29.881	21.613	1288.145	1020.174
-28.867	21.627	1287.227	1019.489
-27.852	21.542	1286.355	1018.261
-26.838	21.681	1284.286	1017.389
-25.823	21.633	1283.060	1016.100
-24.809	21.502	1281.568	1014.116
-23.794	21.587	1280.330	1013.592
-22.779	21.595	1279.283	1012.769
-21.765	21.616	1277.922	1011.771
-20.750	21.528	1276.958	1010.461
-19.736	21.548	1275.150	1009.108
-18.721	21.570	1273.846	1008.162
-17.706	21.564	1273.333	1007.677
-16.692	21.511	1272.170	1006.413
-15.677	21.439	1271.324	1005.292
-14.663	21.455	1269.792	1004.133
-13.648	21.556	1268.636	1003.756
-12.633	21.447	1268.092	1002.663
-11.619	21.520	1267.083	1002.240
-10.604	21.503	1266.263	1001.459
-9.590	21.367	1265.563	1000.086
-8.575	21.407	1264.080	999.102
-7.560	21.304	1263.628	998.115
-6.546	21.400	1262.709	997.899
-5.531	21.396	1261.608	996.967
-4.517	21.324	1260.741	995.834
-3.502	21.474	1260.092	996.132
-2.487	21.515	1258.757	995.272
-1.473	21.298	1254.843	990.906
-0.458	19.732	1239.572	970.031
0.556	15.278	1223.778	932.497
1.571	11.614	1232.398	918.425
2.586	10.900	1247.922	925.849
3.600	10.963	1235.457	916.874
4.615	8.155	1164.079	848.896
5.629	3.177	1094.619	773.205
6.644	0.810	1078.928	750.325
7.659	0.580	1077.131	747.869
8.673	0.664	1075.909	747.369
9.688	0.716	1074.854	746.827
10.702	0.841	1071.998	745.394
11.717	3.864	1074.975	762.318
12.731	10.185	1083.751	799.802
13.746	15.539	1091.083	831.725
14.761	17.141	1092.693	840.817
15.775	16.614	1090.924	836.772
16.790	15.546	1089.110	830.032
17.804	14.975	1087.425	825.859
18.819	14.513	1086.437	822.756
19.834	14.186	1085.980	820.722
20.848	14.152	1084.809	819.597
21.863	13.919	1083.425	817.334
22.877	13.678	1083.146	815.864
23.892	13.815	1081.677	815.358
24.907	13.706	1081.647	814.729
25.921	13.757	1080.474	814.022
26.936	13.796	1079.551	813.447
27.950	13.842	1078.445	812.768
28.965	13.707	1078.178	811.835
29.980	13.929	1076.090	811.274
30.994	13.892	1075.319	810.441
32.009	13.930	1074.250	809.748
33.023	13.984	1073.143	809.104
34.038	13.998	1071.710	808.023
35.053	13.929	1071.635	807.557
36.067	13.787	1070.844	806.200
37.082	13.799	1070.475	805.912
38.096	13.964	1068.965	805.502
39.111	13.822	1068.384	804.303
40.126	13.935	1067.024	803.757
41.140	13.762	1066.169	802.205
42.155	13.794	1064.612	801.117
43.169	13.726	1063.918	800.196
44.184	13.755	1062.692	799.341
45.199	13.695	1061.544	798.121
46.213	13.769	1060.486	797.609
47.228	13.659	1059.658	796.387
48.242	13.713	1058.551	795.746
49.257	13.802	1057.717	795.472
50.271	13.817	1056.815	794.796
51.286	13.790	1055.979	793.969
52.301	13.804	1054.802	793.081
53.315	13.891	1053.385	792.362
54.330	13.777	1052.375	790.989
55.344	13.680	1051.714	789.957
56.359	13.911	1050.862	790.346
57.374	13.684	1050.094	788.618
58.388	13.699	1049.038	787.828
59.403	13.674	1048.323	787.104
60.417	13.679	1047.528	786.462
61.432	13.646	1046.921	785.780
62.447	13.517	1046.103	784.487
63.461	13.653	1044.849	784.117
64.476	13.640	1043.867	783.250
65.490	13.679	1043.131	782.814
66.505	13.605	1042.594	781.992
67.520	13.655	1041.771	781.541
68.534	13.628	1040.939	780.721
69.549	13.749	1040.387	780.809
70.563	13.614	1039.560	779.483
71.578	13.608	1038.553	778.631
72.593	13.546	1037.949	777.816
73.607	13.540	1037.582	777.447
74.622	13.614	1037.318	777.523
75.636	13.620	1035.965	776.469
76.651	13.548	1035.544	775.748
77.666	13.629	1034.783	775.492
78.680	13.625	1034.023	774.831
79.695	13.603	1033.337	774.148
80.709	13.680	1032.650	773.925
81.724	13.671	1032.160	773.447
82.739	13.710	1031.177	772.821
83.753	13.788	1030.434	772.559
84.768	13.768	1029.844	771.957
85.782	13.858	1028.503	771.304
86.797	13.759	1027.660	770.142
87.812	13.780	1026.537	769.331
88.826	13.771	1025.639	768.546
89.841	13.820	1024.462	767.823
90.855	13.867	1023.665	767.378
91.870	13.954	1022.752	767.024
92.884	13.736	1022.529	765.785
93.899	13.819	1021.446	765.287
94.914	13.893	1020.400	764.776
95.928	13.966	1019.419	764.308
96.943	13.810	1019.000	763.212
97.957	13.857	1017.773	762.439
98.972	13.972	1016.974	762.301
99.987	13.811	1016.220	760.932
101.001	13.911	1014.941	760.363
102.016	13.785	1014.475	759.372
103.030	13.921	1013.645	759.304
104.045	13.969	1012.675	758.729
105.060	13.845	1012.202	757.744
106.074	13.844	1011.152	756.882
107.089	13.848	1010.026	755.991
108.103	13.654	1009.272	754.480
109.118	13.778	1008.246	754.208
110.133	13.806	1007.400	753.634
111.147	13.742	1006.608	752.687
112.162	13.808	1005.580	752.151
113.176	13.896	1004.912	751.983
114.191	13.892	1004.314	751.452
115.206	13.923	1003.168	750.665
116.220	13.861	1002.792	750.041
117.235	13.910	1001.400	749.153
118.249	13.801	1001.280	748.505
119.264	13.774	1000.035	747.388
120.279	13.713	999.449	746.607
121.293	13.743	998.615	746.054
122.308	13.821	997.270	745.335
123.322	13.767	996.490	744.439
124.337	13.831	995.265	743.746
125.352	13.850	994.012	742.831
126.366	13.801	993.298	742.012
127.381	13.794	992.229	741.114
128.395	13.795	991.495	740.508
129.410	13.946	990.090	740.063
130.424	13.759	989.460	738.696
131.439	13.938	988.698	738.858
132.454	13.879	987.473	737.615
133.468	13.685	987.432	736.658
134.483	13.869	985.846	736.226
135.497	13.767	985.246	735.261
136.512	13.815	984.766	735.048
137.527	13.804	983.509	733.995
138.541	13.755	983.101	733.413
139.556	13.790	982.508	733.057
140.570	13.924	981.476	732.814
141.585	13.903	980.413	731.863
142.600	13.994	979.825	731.761
143.614	13.983	978.646	730.769
144.629	13.970	978.577	730.594
145.643	14.012	977.328	729.784
146.658	13.963	976.237	728.689
147.673	13.993	975.194	727.975
148.687	13.921	974.069	726.758
149.702	14.082	973.461	726.943
150.716	13.941	972.889	725.834
151.731	13.980	972.187	725.419
152.746	14.067	971.578	725.277
153.760	14.032	970.722	724.424
154.775	14.084	970.382	724.330
155.789	14.010	969.701	723.437
156.804	14.196	969.014	723.668
157.819	14.078	968.283	722.545
158.833	14.239	967.684	722.736
159.848	14.175	966.959	721.851
160.862	14.195	966.074	721.213
161.877	14.010	964.646	719.284
162.892	14.103	963.514	718.779
163.906	14.075	963.226	718.378
164.921	14.061	962.224	717.506
165.935	14.127	961.322	717.053
166.950	14.229	960.114	716.530
167.964	14.122	959.522	715.567
168.979	14.190	958.494	715.026
169.994	14.097	957.810	714.053
171.008	14.187	957.238	713.950
172.023	14.225	956.505	713.505
173.037	14.302	955.791	713.237
174.052	14.259	955.177	712.532
175.067	14.376	954.456	712.433
176.081	14.220	953.831	711.235
177.096	14.179	953.277	710.587
178.110	14.203	952.770	710.247
179.125	14.322	951.835	709.995
180.140	14.282	951.628	709.605
181.154	14.352	950.837	709.251
182.169	14.319	950.215	708.585
183.183	14.405	949.539	708.384
184.198	14.560	948.319	708.068
185.213	14.573	948.015	707.833
186.227	14.379	947.667	706.687
187.242	14.379	947.415	706.439
188.256	14.523	946.010	705.940
189.271	14.516	945.442	705.423
190.286	14.381	944.789	704.300
191.300	14.316	944.212	703.535
192.315	14.379	943.638	703.310
193.329	14.307	943.231	702.642
194.344	14.389	942.182	702.142
195.359	14.530	941.713	702.327
196.373	14.399	941.132	701.279
197.388	14.600	940.806	701.819
198.402	14.510	940.082	700.837
199.417	14.676	939.293	700.886
200.432	14.592	938.718	700.043
201.446	14.646	938.534	700.067
202.461	14.703	937.704	699.626
203.475	14.663	937.162	698.993
204.490	14.749	936.081	698.486
205.504	14.747	935.174	697.739
206.519	14.732	934.801	697.334
207.534	14.718	934.529	697.014
208.548	14.726	933.224	696.009
209.563	14.733	932.922	695.752
210.577	14.721	932.426	695.269
211.592	14.821	931.196	694.710
212.607	14.945	930.395	694.564
213.621	14.867	929.696	693.657
214.636	14.794	929.355	693.038
215.650	14.734	928.718	692.256
216.665	14.919	927.905	692.354
217.680	14.873	927.414	691.735
218.694	14.942	926.611	691.360
219.709	15.017	925.615	690.864
220.723	14.959	925.190	690.246
221.738	14.989	924.171	689.550
222.753	14.881	923.917	688.855
223.767	14.992	923.235	688.743
224.782	15.048	922.532	688.387
225.796	15.067	921.938	687.960
226.811	15.052	921.248	687.322
227.826	14.916	920.666	686.271
228.840	14.930	919.774	685.600
229.855	14.934	919.055	685.021
230.869	14.977	918.153	684.463
231.884	15.048	917.714	684.369
232.899	15.005	917.171	683.725
233.913	15.103	916.164	683.314
234.928	15.004	915.811	682.587
235.942	15.083	915.065	682.294
236.957	15.088	914.323	681.701
237.972	15.184	913.532	681.442
238.986	15.171	912.545	680.591
240.001	15.149	912.125	680.129
241.015	15.186	911.253	679.566
242.030	15.230	911.021	679.512
243.045	15.114	910.724	678.761
244.059	15.332	910.396	679.341
245.074	15.270	909.222	678.153
246.088	15.143	908.512	677.051
247.103	15.083	908.251	676.554
248.117	15.293	907.634	676.880
249.132	15.254	907.094	676.263
250.147	15.326	906.526	676.068
251.161	15.405	905.740	675.742
252.176	15.409	905.025	675.163
253.190	15.474	904.068	674.652
254.205	15.533	903.488	674.396
255.220	15.556	902.722	673.856
256.234	15.563	902.267	673.486
257.249	15.633	901.379	673.043
258.263	15.519	900.956	672.212
259.278	15.545	900.438	671.871
260.293	15.599	900.019	671.713
261.307	15.678	899.159	671.328
262.322	15.707	898.122	670.610
263.336	15.785	897.631	670.495
264.351	15.908	896.395	670.000
265.366	15.794	896.173	669.321
266.380	15.739	895.779	668.751
267.395	15.634	895.136	667.794
268.409	15.716	894.509	667.592
269.424	15.783	893.370	666.950
270.439	15.825	892.362	666.303
271.453	15.807	892.203	666.056
272.468	15.785	891.085	665.074
273.482	15.780	891.002	664.934
274.497	15.866	890.418	664.779
275.512	15.851	889.704	664.129
276.526	15.864	889.290	663.810
277.541	15.921	888.639	663.491
278.555	15.833	888.536	663.009
279.570	15.995	887.249	662.627
280.585	15.954	886.552	661.886
281.599	15.906	885.890	661.146
282.614	15.982	884.991	660.715
283.628	16.010	884.459	660.369
284.643	16.024	883.895	659.945
285.657	15.904	883.529	659.141
286.672	15.968	882.894	658.859
287.687	15.967	882.394	658.425
288.701	16.049	881.164	657.770
289.716	15.946	881.096	657.260
290.730	16.133	880.054	657.152
291.745	16.150	879.527	656.766
292.760	16.126	878.869	656.125
293.774	16.174	878.128	655.700
294.789	16.220	877.670	655.476
295.803	16.169	876.991	654.715
296.818	16.030	876.257	653.570
297.833	16.130	875.647	653.443
298.847	16.145	875.237	653.139
299.862	16.185	874.851	652.948
300.876	16.247	874.280	652.704
301.891	16.304	873.503	652.287
302.906	16.209	873.074	651.541
303.920	16.250	872.563	651.258
304.935	16.335	872.060	651.156
305.949	16.384	870.898	650.417
306.964	16.389	870.132	649.808
307.979	16.403	869.779	649.539
308.993	16.478	868.915	649.124
310.008	16.478	868.824	648.999
311.022	16.497	868.083	648.461
312.037	16.419	867.934	647.995
313.052	16.285	867.227	646.896
314.066	16.385	866.485	646.668
315.081	16.532	865.806	646.665
316.095	16.531	864.975	645.984
317.110	16.519	864.592	645.597
318.125	16.546	864.326	645.442
319.139	16.419	863.824	644.528
320.154	16.424	862.991	643.866
321.168	16.550	862.679	644.056
322.183	16.477	862.455	643.554
323.197	16.571	861.506	643.147
324.212	16.585	861.202	642.918
325.227	16.635	860.489	642.519
326.241	16.515	860.004	641.642
327.256	16.545	859.315	641.184
328.270	16.512	858.876	640.676
329.285	16.655	857.858	640.401
330.300	16.583	857.352	639.695
331.314	16.629	856.930	639.496
332.329	16.580	856.928	639.253
333.343	16.771	856.307	639.454
334.358	16.597	856.211	638.670
335.373	16.803	855.358	638.756
336.387	16.792	855.137	638.490
337.402	16.792	854.892	638.252
338.416	16.820	853.821	637.500
339.431	16.814	853.758	637.375
340.446	16.805	853.362	636.990
341.460	16.799	853.590	637.082
342.475	16.922	852.670	636.799
343.489	17.025	852.300	636.852
344.504	16.913	851.653	635.895
345.519	16.940	851.482	635.809
346.533	16.947	850.493	635.042
347.548	17.124	849.637	635.006
348.562	17.032	849.184	634.269
349.577	16.870	849.203	633.621
350.592	16.858	848.788	633.212
351.606	16.947	847.719	632.692
352.621	16.953	846.720	631.912
353.635	16.957	846.231	631.506
354.650	17.063	845.761	631.492
355.665	16.994	845.477	630.967
356.679	17.044	844.629	630.465
357.694	17.192	843.699	630.264
358.708	17.161	843.087	629.637
359.723	17.144	842.867	629.353
360.738	17.087	842.216	628.601
361.752	16.959	841.992	627.904
362.767	17.209	840.521	627.674
363.781	17.226	840.763	627.865
364.796	17.245	840.138	627.413
365.810	17.223	839.876	627.078
366.825	17.383	839.148	627.068
367.840	17.318	838.781	626.501
368.854	17.406	838.288	626.402
369.869	17.262	837.917	625.539
370.883	17.158	837.657	624.908
371.898	17.362	837.170	625.238
372.913	17.573	836.271	625.284
373.927	17.473	835.846	624.547
374.942	17.481	835.672	624.389
375.956	17.556	835.250	624.294
376.971	17.602	834.702	623.997
377.986	17.644	834.174	623.700
379.000	17.567	833.731	623.032
380.015	17.485	833.375	622.411
381.029	17.561	832.777	622.190
382.044	17.444	832.208	621.280
383.059	17.641	831.597	621.488
384.073	17.755	830.675	621.161
385.088	17.713	830.417	620.760
386.102	17.641	829.890	620.047
387.117	17.604	829.076	619.249
388.132	17.657	828.671	619.087
389.146	17.629	827.962	618.399
390.161	17.652	827.942	618.416
391.175	17.677	827.392	618.039
392.190	17.723	826.668	617.611
393.205	17.694	826.244	617.134
394.219	17.612	826.069	616.651
395.234	17.604	825.481	616.129
396.248	17.648	825.142	615.981
397.263	17.776	824.444	615.867
398.278	17.820	823.994	615.635
399.292	17.738	824.000	615.289
400.307	17.752	823.067	614.589
401.321	17.656	822.675	613.896
402.336	17.754	822.132	613.790
403.350	17.875	821.575	613.754
404.365	17.881	821.243	613.472
405.380	17.816	820.814	612.863
406.394	17.865	820.027	612.400
407.409	17.795	820.140	612.179
408.423	18.018	819.864	612.717
409.438	18.015	819.184	612.145
410.453	18.024	818.538	611.638
411.467	17.849	818.516	610.944
412.482	18.157	817.667	611.356
413.496	18.153	817.387	611.079
414.511	18.081	817.173	610.606
415.526	18.225	816.670	610.691
416.540	18.142	816.085	609.904
417.555	18.244	815.678	609.907
418.569	18.258	815.129	609.497
419.584	18.094	814.824	608.628
420.599	18.210	814.491	608.739
421.613	115.440	1301.506	1489.440
422.628	99.979	1372.409	1489.503
