DTS Sentinel unit serial number:	SN413079Multiplexer serial number:	ORYXHardware model number:	OX4-SRSoftware version number:	ORYX F/W v4.00 Oryx Data Collector v3.7.2.0data status	okinstallation	princeton_trtdifferential loss correction	single-endedforward channel	channel 1reverse channel	N/Adate	2019/09/15time	13:06:35forward acquisition time	60.00reverse acquisition time	0.00gamma	496.2192k internal	0.2296k external	0.2296temperature offset calibration	0.9981default loss term (dB/km)	0.3790temperature slope calibration	1.0000multiplexer offset coefficient	1.0000multiplexer slope coefficient	1.0000fibre end	0.00T internal ref (°C)	36.73T ext. ref 1 (°C)	4.97T ext. ref 2 (°C)	34.93length (m)	temperature (°C)	Stokes	anti-Stokes-747.200	-200.000	0.052	-0.406
-746.185	-97.197	-0.174	-0.046
-745.171	-69.876	0.292	0.114
-744.156	-148.003	0.279	0.024
-743.142	-67.997	0.148	-0.059
-742.127	-200.000	0.010	0.231
-741.112	60.100	0.240	0.242
-740.098	-114.681	0.076	0.015
-739.083	54.249	-0.193	0.190
-738.069	81.258	-0.084	0.093
-737.054	800.000	0.033	0.110
-736.039	492.846	0.125	-0.292
-735.025	-68.284	0.040	-0.016
-734.010	-28.977	0.027	-0.016
-732.996	800.000	0.060	-0.221
-731.981	68.821	-0.250	0.262
-730.966	-200.000	0.022	0.139
-729.952	314.955	-0.106	0.203
-728.937	-155.958	-0.192	-0.012
-727.923	-200.000	0.048	0.241
-726.908	800.000	0.041	-0.125
-725.894	800.000	-0.020	0.089
-724.879	-62.843	-0.038	0.016
-723.864	216.959	-0.068	-0.110
-722.850	-187.650	-0.162	-0.002
-721.835	-39.620	-0.305	0.163
-720.821	351.883	0.082	-0.166
-719.806	475.622	-0.144	0.331
-718.791	-196.971	-0.195	-0.001
-717.777	109.782	0.162	-0.199
-716.762	701.629	-0.105	-0.283
-715.748	712.129	-0.054	-0.146
-714.733	-19.316	-0.460	-0.291
-713.718	70.248	-0.113	-0.120
-712.704	-59.222	0.066	0.029
-711.689	-200.000	-0.027	-0.214
-710.675	293.039	0.195	-0.363
-709.660	187.749	0.087	-0.132
-708.645	-19.663	0.285	-0.180
-707.631	212.554	-0.145	-0.234
-706.616	328.803	-0.136	-0.266
-705.602	-75.804	-0.422	-0.153
-704.587	-115.119	-0.107	0.021
-703.572	800.000	0.032	-0.135
-702.558	-200.000	0.007	-0.288
-701.543	152.915	0.200	0.278
-700.529	151.064	0.178	-0.247
-699.514	-0.109	-0.118	-0.086
-698.499	121.059	-0.053	-0.067
-697.485	27.716	-0.192	-0.165
-696.470	17.213	-0.178	-0.144
-695.456	-66.914	-0.252	-0.102
-694.441	-200.000	0.049	-0.264
-693.426	-200.000	-0.012	-0.127
-692.412	800.000	-0.082	-0.330
-691.397	-172.689	-0.245	-0.008
-690.383	242.404	-0.055	0.095
-689.368	-116.208	0.244	0.046
-688.354	-75.905	-0.246	-0.089
-687.339	358.633	0.086	-0.176
-686.324	-68.177	0.132	-0.053
-685.310	800.000	0.102	0.360
-684.295	60.554	0.153	0.155
-683.281	-200.000	-0.060	-0.285
-682.266	-200.000	0.029	-0.236
-681.251	-121.019	-0.289	-0.049
-680.237	732.794	0.143	0.391
-679.222	356.730	-0.114	-0.231
-678.208	-5.623	-0.388	0.271
-677.193	-28.897	-0.299	0.175
-676.178	-74.583	-0.345	-0.127
-675.164	82.261	0.205	-0.226
-674.149	-25.320	0.191	-0.115
-673.135	153.878	0.075	-0.105
-672.120	-200.000	-0.011	0.160
-671.105	663.017	0.131	0.345
-670.091	237.006	-0.169	-0.286
-669.076	136.686	-0.044	0.059
-668.062	-144.101	-0.500	0.048
-667.047	483.805	-0.078	0.181
-666.032	80.398	0.250	0.274
-665.018	800.000	0.047	-0.176
-664.003	473.099	0.135	-0.311
-662.989	-110.739	-0.306	0.064
-661.974	69.447	-0.151	0.158
-660.959	-200.000	0.046	-0.264
-659.945	191.601	0.165	0.253
-658.930	-80.838	0.238	-0.080
-657.916	-200.000	-0.010	0.252
-656.901	-53.315	-0.204	0.095
-655.886	-43.758	0.083	0.042
-654.872	-134.843	0.515	0.064
-653.857	-180.655	0.223	0.005
-652.843	-200.000	0.011	-0.136
-651.828	-200.000	-0.002	-0.266
-650.814	279.520	0.080	-0.146
-649.799	800.000	0.069	-0.256
-648.784	-25.299	-0.265	0.159
-647.770	-5.952	0.167	0.117
-646.755	-200.000	-0.010	-0.048
-645.741	136.499	-0.052	-0.069
-644.726	260.724	-0.196	-0.345
-643.711	-33.665	0.123	-0.069
-642.697	206.632	-0.181	0.287
-641.682	-140.568	-0.282	0.030
-640.668	483.011	0.103	0.239
-639.653	122.605	0.035	0.044
-638.638	-200.000	-0.042	-0.308
-637.624	355.567	-0.035	-0.072
-636.609	-145.775	0.300	-0.027
-635.595	155.601	0.071	-0.099
-634.580	-81.108	0.151	-0.051
-633.565	558.573	0.073	0.180
-632.551	800.000	0.012	-0.045
-631.536	-200.000	0.068	0.331
-630.522	447.313	-0.200	-0.449
-629.507	242.247	0.163	-0.277
-628.492	-169.747	-0.507	0.019
-627.478	187.694	0.116	0.177
-626.463	307.784	-0.166	-0.315
-625.449	-110.979	-0.154	-0.032
-624.434	-95.975	-0.429	0.116
-623.419	-140.491	-0.318	0.034
-622.405	-115.161	0.207	0.040
-621.390	-25.911	0.130	0.078
-620.376	800.000	0.089	-0.350
-619.361	105.644	-0.123	-0.148
-618.346	-135.570	0.374	0.045
-617.332	312.052	0.084	0.161
-616.317	-8.281	0.183	0.125
-615.303	253.979	0.166	0.289
-614.288	-45.132	0.064	0.032
-613.273	275.104	-0.147	0.266
-612.259	42.995	-0.033	0.030
-611.244	126.027	-0.276	-0.355
-610.230	-52.304	0.182	0.086
-609.215	30.671	-0.170	-0.148
-608.201	-15.141	0.150	-0.098
-607.186	800.000	-0.007	-0.027
-606.171	-87.388	0.170	0.052
-605.157	-14.990	-0.090	-0.059
-604.142	-51.831	0.119	0.056
-603.128	217.664	-0.205	0.332
-602.113	-17.634	0.139	-0.089
-601.098	-90.131	0.352	0.104
-600.084	589.058	-0.106	-0.266
-599.069	302.933	0.112	0.210
-598.055	-156.303	-0.263	-0.017
-597.040	-93.560	0.245	-0.069
-596.025	-84.833	0.222	0.071
-595.011	-120.453	-0.279	-0.048
-593.996	85.340	0.244	-0.272
-592.982	-200.000	-0.038	-0.525
-591.967	-200.000	0.018	-0.207
-590.952	-105.875	0.125	0.029
-589.938	-200.000	-0.028	0.385
-588.923	-37.787	0.158	-0.086
-587.909	226.738	0.082	-0.136
-586.894	157.011	0.032	0.044
-585.879	190.679	0.129	0.197
-584.865	-31.566	0.329	0.188
-583.850	-200.000	-0.016	0.242
-582.836	-22.711	0.240	-0.147
-581.821	-200.000	-0.004	-0.175
-580.806	-131.295	-0.139	-0.019
-579.792	124.549	0.171	0.218
-578.777	-35.890	0.203	0.112
-577.763	-200.000	0.048	-0.244
-576.748	617.352	0.154	-0.393
-575.733	-155.593	0.050	-0.003
-574.719	128.295	-0.031	0.040
-573.704	-42.401	-0.246	-0.128
-572.690	-145.941	0.141	0.013
-571.675	-177.524	-0.256	-0.006
-570.661	-169.621	-0.083	-0.003
-569.646	129.880	0.041	-0.054
-568.631	150.523	-0.187	-0.258
-567.617	-93.062	0.263	-0.074
-566.602	376.877	0.072	0.148
-565.588	29.065	0.020	0.017
-564.573	-160.295	0.278	0.015
-563.558	471.919	-0.070	0.161
-562.544	-71.256	-0.197	-0.075
-561.529	-200.000	0.029	0.170
-560.515	-200.000	0.030	0.212
-559.500	269.903	0.122	0.217
-558.485	-200.000	-0.025	-0.316
-557.471	-124.886	0.103	0.016
-556.456	553.313	-0.131	0.319
-555.442	292.775	-0.143	-0.264
-554.427	800.000	-0.056	-0.212
-553.412	-200.000	-0.024	-0.152
-552.398	260.550	-0.143	-0.251
-551.383	-39.692	0.102	0.054
-550.369	800.000	0.014	0.052
-549.354	223.063	0.145	0.237
-548.339	-84.288	0.110	-0.035
-547.325	-15.525	-0.088	0.057
-546.310	-51.625	0.173	-0.082
-545.296	203.196	0.300	0.470
-544.281	-200.000	0.000	-0.148
-543.266	-65.377	0.049	0.020
-542.252	-200.000	0.017	0.288
-541.237	-74.028	-0.158	0.058
-540.223	198.064	-0.079	0.123
-539.208	800.000	0.048	-0.208
-538.193	-48.778	0.058	0.028
-537.179	800.000	-0.070	0.301
-536.164	522.855	0.046	0.110
-535.150	83.143	-0.109	0.121
-534.135	137.164	-0.171	-0.226
-533.121	800.000	-0.089	0.324
-532.106	98.079	-0.074	0.087
-531.091	-32.973	-0.301	0.169
-530.077	151.988	-0.106	0.147
-529.062	-89.416	0.138	0.041
-528.048	-2.053	0.107	-0.076
-527.033	-200.000	0.024	0.389
-526.018	-6.018	-0.084	-0.058
-525.004	800.000	0.064	-0.276
-523.989	-200.000	-0.041	0.252
-522.975	-40.721	0.304	-0.159
-521.960	-200.000	-0.009	0.208
-520.945	-200.000	0.004	-0.146
-519.931	559.100	-0.052	0.128
-518.916	800.000	-0.066	0.231
-517.902	68.934	0.103	0.107
-516.887	184.966	0.045	0.067
-515.872	800.000	-0.082	-0.266
-514.858	351.605	-0.096	0.193
-513.843	6.844	-0.101	-0.076
-512.829	509.656	-0.146	-0.343
-511.814	70.550	0.118	-0.123
-510.799	522.386	0.134	0.320
-509.785	-65.978	0.075	-0.030
-508.770	-55.511	0.047	-0.021
-507.756	-4.982	-0.098	-0.068
-506.741	-200.000	-0.062	-0.415
-505.726	-118.736	0.230	-0.041
-504.712	-119.750	-0.178	-0.031
-503.697	365.611	0.069	-0.140
-502.683	-23.193	-0.177	-0.108
-501.668	-10.013	-0.369	-0.249
-500.653	-200.000	-0.032	0.275
-499.639	800.000	-0.063	-0.205
-498.624	-200.000	0.005	-0.204
-497.610	84.868	0.038	0.043
-496.595	800.000	0.089	-0.309
-495.581	-128.216	0.101	0.015
-494.566	-92.521	0.144	-0.041
-493.551	384.485	0.027	-0.056
-492.537	348.624	-0.109	-0.218
-491.522	203.686	0.126	-0.197
-490.508	402.130	0.188	0.400
-489.493	-54.709	-0.157	-0.072
-488.478	-181.336	-0.337	0.007
-487.464	-50.898	-0.119	-0.057
-486.449	12.076	-0.197	0.153
-485.435	-165.140	-0.352	0.016
-484.420	-180.010	0.447	-0.010
-483.405	-74.203	-0.123	0.045
-482.391	-200.000	-0.021	-0.204
-481.376	-46.056	-0.156	0.078
-480.362	375.482	-0.232	-0.479
-479.347	-95.537	-0.409	-0.111
-478.332	-200.000	0.001	-0.200
-477.318	16.170	-0.065	-0.052
-476.303	185.049	0.161	-0.242
-475.289	-200.000	0.013	0.124
-474.274	-142.791	-0.148	0.015
-473.259	215.317	0.121	0.195
-472.245	-200.000	-0.009	-0.105
-471.230	-69.005	-0.145	-0.057
-470.216	266.129	0.090	-0.158
-469.201	484.702	-0.064	0.147
-468.186	800.000	0.079	0.279
-467.172	-153.908	-0.296	-0.020
-466.157	274.284	-0.254	-0.454
-465.143	800.000	-0.090	0.355
-464.128	-50.259	-0.047	0.022
-463.113	-150.451	0.151	-0.012
-462.099	-60.992	0.329	0.141
-461.084	256.448	-0.014	0.025
-460.070	-132.526	0.555	-0.072
-459.055	-129.243	0.127	-0.018
-458.040	-200.000	0.012	0.509
-457.026	156.523	-0.113	0.157
-456.011	-82.370	-0.120	0.040
-454.997	500.796	0.096	-0.223
-453.982	-200.000	-0.028	-0.370
-452.968	-71.390	-0.397	-0.150
-451.953	-200.000	0.024	0.111
-450.938	-140.423	0.064	0.007
-449.924	-162.584	0.280	-0.014
-448.909	57.561	-0.152	-0.150
-447.895	-119.770	0.238	-0.041
-446.880	296.151	-0.043	-0.079
-445.865	-100.531	0.134	0.033
-444.851	800.000	-0.050	-0.213
-443.836	34.225	0.088	0.077
-442.822	-26.780	0.072	-0.042
-441.807	-200.000	-0.012	-0.073
-440.792	-67.791	0.372	-0.147
-439.778	-131.634	-0.061	0.008
-438.763	-200.000	0.039	-0.271
-437.749	189.773	0.068	0.103
-436.734	-1.164	0.260	0.185
-435.719	-70.813	0.114	0.043
-434.705	-11.569	0.184	-0.122
-433.690	47.868	-0.042	0.040
-432.676	36.009	-0.210	0.187
-431.661	48.686	-0.028	0.027
-430.646	-12.798	0.260	0.171
-429.632	-143.242	-0.379	0.037
-428.617	-45.241	0.183	-0.092
-427.603	227.029	-0.085	0.140
-426.588	-111.537	-0.232	0.048
-425.573	433.636	0.088	-0.193
-424.559	-200.000	-0.005	-0.257
-423.544	-91.974	-0.322	-0.092
-422.530	800.000	-0.057	0.191
-421.515	800.000	-0.067	0.199
-420.500	36.033	-0.184	0.164
-419.486	-200.000	0.002	0.099
-418.471	541.880	-0.015	-0.035
-417.457	736.167	0.061	-0.166
-416.442	-180.128	-0.256	-0.005
-415.428	529.899	0.040	0.095
-414.413	-200.000	-0.090	0.451
-413.398	-84.548	0.247	0.078
-412.384	800.000	-0.036	0.157
-411.369	800.000	0.080	0.331
-410.355	-200.000	-0.012	0.054
-409.340	-200.000	0.023	0.259
-408.325	800.000	0.036	-0.153
-407.311	212.052	0.163	0.259
-406.296	-78.762	-0.195	-0.067
-405.282	-21.225	0.129	0.079
-404.267	299.933	-0.169	0.314
-403.252	-25.611	-0.297	0.177
-402.238	0.295	0.091	-0.066
-401.223	632.457	0.125	-0.319
-400.209	-200.000	-0.024	-0.110
-399.194	491.617	0.026	0.061
-398.179	-200.000	-0.010	0.056
-397.165	-200.000	0.019	-0.134
-396.150	-161.780	-0.213	-0.011
-395.136	-103.127	-0.433	-0.103
-394.121	800.000	-0.014	0.058
-393.106	-113.797	0.091	0.018
-392.092	88.749	0.037	0.041
-391.077	3.659	-0.219	0.161
-390.063	-102.789	0.166	0.040
-389.048	-43.637	-0.002	-0.001
-388.033	486.548	0.039	-0.090
-387.019	-92.853	0.349	0.098
-386.004	16.870	-0.080	0.064
-384.990	106.969	0.175	-0.209
-383.975	131.600	-0.184	-0.239
-382.960	-7.180	-0.225	0.154
-381.946	-200.000	0.054	-0.291
-380.931	17.070	-0.050	-0.040
-379.917	-200.000	-0.001	0.129
-378.902	188.139	0.047	0.070
-377.888	-89.925	-0.176	0.052
-376.873	-200.000	0.009	-0.055
-375.858	-140.587	0.366	-0.038
-374.844	354.847	0.136	-0.272
-373.829	-151.519	0.172	0.013
-372.815	-49.851	-0.122	-0.058
-371.800	35.184	0.135	-0.119
-370.785	-52.397	0.329	-0.153
-369.771	51.018	-0.060	-0.057
-368.756	-200.000	0.067	-0.000
-367.742	-200.000	0.020	-0.179
-366.727	231.150	0.182	0.300
-365.712	800.000	0.077	-0.223
-364.698	288.395	0.158	-0.287
-363.683	800.000	0.060	-0.192
-362.669	-60.191	-0.202	-0.087
-361.654	461.931	0.118	0.266
-360.639	341.390	-0.170	0.334
-359.625	-51.318	0.097	-0.046
-358.610	800.000	-0.046	-0.163
-357.596	-101.533	0.073	-0.018
-356.581	-200.000	-0.011	-0.229
-355.566	-200.000	-0.006	0.060
-354.552	800.000	-0.050	0.178
-353.537	408.308	0.144	-0.307
-352.523	124.910	0.071	-0.090
-351.508	-135.418	-0.169	-0.020
-350.493	386.630	-0.095	-0.197
-349.479	-104.738	-0.074	0.017
-348.464	-192.685	0.035	0.000
-347.450	-87.823	-0.302	0.092
-346.435	-45.275	-0.151	0.075
-345.420	-81.803	-0.143	-0.047
-344.406	430.613	-0.025	-0.055
-343.391	394.131	0.027	-0.057
-342.377	-200.000	0.206	0.001
-341.362	-38.455	-0.175	0.093
-340.348	-200.000	-0.009	-0.115
-339.333	-35.337	0.197	0.108
-338.318	-93.173	0.042	-0.012
-337.304	-90.003	0.132	0.039
-336.289	-76.702	-0.155	-0.055
-335.275	-143.778	0.031	-0.003
-334.260	72.416	0.251	0.263
-333.245	19.385	-0.064	0.052
-332.231	203.572	-0.062	-0.096
-331.216	-43.947	-0.223	0.113
-330.202	-200.000	-0.030	0.217
-329.187	309.235	0.036	0.067
-328.172	-85.421	-0.128	0.040
-327.158	46.628	0.109	0.102
-326.143	375.547	-0.155	-0.318
-325.129	-98.206	0.178	-0.046
-324.114	-93.993	-0.201	-0.055
-323.099	184.113	-0.050	-0.075
-322.085	-124.887	-0.306	0.047
-321.070	-147.289	-0.169	0.014
-320.056	432.409	0.093	-0.203
-319.041	60.266	0.063	-0.062
-318.026	-200.000	0.020	-0.101
-317.012	-148.599	-0.378	-0.031
-315.997	66.608	-0.245	-0.251
-314.983	-97.616	0.048	-0.012
-313.968	-53.583	-0.168	-0.077
-312.953	101.327	-0.269	0.315
-311.939	-102.166	-0.025	0.006
-310.924	99.767	0.224	-0.261
-309.910	-140.892	-0.310	-0.032
-308.895	37.801	-0.090	-0.080
-307.880	-200.000	-0.019	0.260
-306.866	-32.371	0.233	0.130
-305.851	205.031	0.007	0.011
-304.837	-200.000	-0.016	0.123
-303.822	-77.748	0.138	0.048
-302.807	99.150	-0.235	0.273
-301.793	-39.550	0.325	0.171
-300.778	-129.159	0.066	-0.009
-299.764	-200.000	-0.028	-0.209
-298.749	58.471	-0.042	-0.042
-297.735	800.000	0.080	0.234
-296.720	-16.651	0.112	-0.071
-295.705	315.941	0.100	-0.189
-294.691	-47.952	0.156	-0.076
-293.676	-200.000	0.006	-0.227
-292.662	181.566	-0.157	-0.232
-291.647	16.274	-0.058	-0.046
-290.632	-121.250	0.293	0.049
-289.618	800.000	0.073	0.220
-288.603	44.127	-0.038	0.035
-287.589	-113.749	-0.292	-0.057
-286.574	-56.360	0.186	0.083
-285.559	-20.928	0.078	-0.048
-284.545	105.619	0.290	0.344
-283.530	-200.000	-0.014	0.263
-282.516	24.087	-0.061	0.051
-281.501	-29.995	-0.230	0.132
-280.486	25.274	0.152	-0.127
-279.472	-13.506	0.239	0.155
-278.457	800.000	0.079	-0.255
-277.443	27.749	-0.114	-0.096
-276.428	351.159	-0.052	-0.103
-275.413	800.000	-0.017	0.064
-274.399	3.949	-0.044	-0.032
-273.384	-161.182	0.106	0.006
-272.370	538.480	0.131	0.312
-271.355	82.218	0.111	0.121
-270.340	76.451	-0.016	-0.017
-269.326	-200.000	0.000	0.202
-268.311	-98.009	0.238	-0.062
-267.297	-31.899	0.183	0.103
-266.282	-125.106	0.100	0.015
-265.267	-54.421	0.169	0.077
-264.253	-184.052	-0.157	-0.003
-263.238	147.047	0.201	-0.272
-262.224	-200.000	-0.022	0.187
-261.209	-141.537	0.157	-0.016
-260.195	143.110	0.118	0.157
-259.180	-200.000	0.000	-0.309
-258.165	-200.000	-0.002	-0.094
-257.151	215.827	0.028	0.045
-256.136	308.895	-0.095	-0.177
-255.122	800.000	-0.076	-0.309
-254.107	-85.884	0.179	-0.056
-253.092	-200.000	0.033	0.216
-252.078	41.021	0.030	-0.028
-251.063	-13.268	-0.294	-0.191
-250.049	-200.000	0.009	0.331
-249.034	5.653	0.205	0.152
-248.019	183.326	-0.112	0.166
-247.005	-48.471	0.052	0.025
-245.990	-13.202	0.285	0.186
-244.976	-61.175	-0.094	-0.040
-243.961	-200.000	-0.043	-0.266
-242.946	800.000	-0.052	0.223
-241.932	-128.003	0.132	0.019
-240.917	170.927	-0.045	0.065
-239.903	-176.344	0.201	0.005
-238.888	342.748	-0.090	0.177
-237.873	219.314	0.048	-0.076
-236.859	-200.000	0.009	0.088
-235.844	72.272	0.195	0.203
-234.830	65.799	-0.086	0.088
-233.815	42.208	0.131	-0.119
-232.800	-200.000	0.027	0.122
-231.786	30.301	-0.098	-0.084
-230.771	-200.000	-0.038	0.221
-229.757	23.321	-0.150	0.123
-228.742	224.380	0.166	0.268
-227.727	358.598	0.105	-0.211
-226.713	800.000	-0.072	0.309
-225.698	-55.628	-0.071	0.032
-224.684	154.534	0.186	-0.256
-223.669	220.948	-0.012	-0.019
-222.655	-21.072	-0.079	-0.049
-221.640	-200.000	0.019	-0.093
-220.625	86.798	-0.135	0.150
-219.611	288.176	0.138	0.251
-218.596	-78.040	-0.174	0.060
-217.582	6.361	0.074	-0.055
-216.567	-39.904	-0.316	0.165
-215.552	153.754	0.113	-0.155
-214.538	-200.000	0.016	-0.160
-213.523	10.598	0.244	0.186
-212.509	149.308	0.160	-0.217
-211.494	56.967	0.232	-0.227
-210.479	263.889	0.223	-0.388
-209.465	460.819	-0.088	-0.196
-208.450	800.000	-0.073	-0.320
-207.436	-101.207	-0.334	-0.082
-206.421	-200.000	0.019	0.091
-205.406	18.360	-0.098	-0.078
-204.392	-74.962	-0.291	-0.104
-203.377	-111.571	-0.367	0.075
-202.363	-17.336	-0.159	-0.100
-201.348	-133.255	0.104	0.013
-200.333	-7.393	0.111	0.075
-199.319	-54.810	-0.166	0.075
-198.304	61.806	-0.182	-0.182
-197.290	-117.570	-0.344	0.062
-196.275	710.051	0.037	0.099
-195.260	368.085	-0.067	0.135
-194.246	-32.588	0.153	0.085
-193.231	-200.000	-0.008	-0.111
-192.217	-26.403	-0.280	-0.164
-191.202	-181.856	0.075	-0.001
-190.187	-200.000	0.010	-0.133
-189.173	-117.282	-0.228	0.041
-188.158	26.827	0.059	0.050
-187.144	-131.520	0.181	-0.024
-186.129	800.000	-0.005	0.018
-185.114	21.766	-0.189	0.154
-184.100	-200.000	0.039	0.203
-183.085	335.697	-0.100	-0.193
-182.071	-140.730	0.065	0.007
-181.056	-46.449	-0.156	-0.077
-180.042	-116.216	0.167	0.031
-179.027	-27.529	0.301	0.175
-178.012	-173.992	0.105	-0.003
-176.998	51.676	0.069	0.065
-175.983	-84.529	0.042	0.013
-174.969	-144.360	-0.276	-0.026
-173.954	-0.014	-0.283	-0.201
-172.939	599.270	0.034	-0.083
-171.925	800.000	-0.053	-0.227
-170.910	13.051	0.111	0.086
-169.896	-200.000	0.005	0.482
-168.881	-97.346	-0.141	-0.037
-167.866	-200.000	-0.012	0.061
-166.852	91.640	-0.158	-0.177
-165.837	-117.617	0.146	0.026
-164.823	-152.255	0.267	-0.019
-163.808	220.574	-0.088	-0.141
-162.793	-179.307	-0.126	-0.003
-161.779	29.707	-0.312	-0.265
-160.764	463.684	-0.101	0.225
-159.750	-200.000	0.046	0.326
-158.735	-154.204	0.136	-0.009
-157.720	648.338	0.047	0.120
-156.706	140.120	0.121	0.159
-155.691	-28.110	-0.115	0.066
-154.677	165.664	0.201	0.285
-153.662	-115.222	-0.241	-0.046
-152.647	75.863	0.238	0.251
-151.633	158.705	-0.059	-0.081
-150.618	-141.629	0.127	0.013
-149.604	-167.203	0.140	0.006
-148.589	76.577	-0.075	0.079
-147.574	-200.000	0.075	-0.411
-146.560	-132.727	-0.150	-0.019
-145.545	238.529	-0.103	0.171
-144.531	102.531	0.223	0.260
-143.516	487.787	-0.124	-0.283
-142.502	-200.000	0.011	0.150
-141.487	64.517	0.088	0.088
-140.472	392.980	-0.112	0.233
-139.458	-200.000	-0.011	0.508
-138.443	290.763	0.133	0.242
-137.429	-10.722	-0.277	-0.183
-136.414	-95.521	0.156	0.042
-135.399	-21.492	0.137	-0.084
-134.385	53.519	0.151	-0.144
-133.370	-6.175	0.195	0.133
-132.356	-104.093	0.281	-0.065
-131.341	-200.000	0.008	0.037
-130.326	-101.704	-0.164	0.040
-129.312	249.728	0.294	0.497
-128.297	12.345	0.117	0.090
-127.283	-200.000	0.023	0.364
-126.268	16.860	0.081	0.064
-125.253	-28.859	-0.104	0.060
-124.239	-32.133	-0.255	0.142
-123.224	438.604	-0.090	0.195
-122.210	-41.157	-0.099	-0.051
-121.195	37.452	0.202	-0.178
-120.180	-26.545	-0.455	0.266
-119.166	-137.472	-0.089	-0.010
-118.151	95.765	-0.110	0.125
-117.137	45.312	-0.182	0.167
-116.122	-141.605	0.119	-0.012
-115.107	-146.955	-0.329	-0.028
-114.093	800.000	0.029	-0.121
-113.078	-55.425	0.187	-0.084
-112.064	746.259	0.021	0.056
-111.049	-35.142	0.046	-0.025
-110.034	-113.929	0.017	-0.003
-109.020	122.274	0.111	-0.138
-108.005	-92.462	-0.410	0.115
-106.991	-200.000	-0.003	0.108
-105.976	-41.335	-0.080	-0.041
-104.962	-109.536	-0.428	0.090
-103.947	-129.497	-0.404	-0.056
-102.932	246.094	-0.105	-0.176
-101.918	37.256	-0.218	-0.193
-100.903	800.000	0.040	-0.145
-99.889	-200.000	0.046	0.313
-98.874	-144.623	0.123	-0.011
-97.859	-200.000	0.003	-0.025
-96.845	-200.000	-0.034	0.163
-95.830	-8.546	-0.215	0.144
-94.816	-51.328	-0.112	0.052
-93.801	-59.640	0.117	0.050
-92.786	800.000	0.019	-0.074
-91.772	549.657	-0.111	0.266
-90.757	-65.124	0.110	-0.044
-89.743	-102.129	0.307	-0.073
-88.728	800.000	-0.048	-0.194
-87.713	-200.000	-0.015	-0.171
-86.699	-36.197	-0.230	-0.124
-85.684	184.176	-0.152	-0.223
-84.670	-200.000	0.024	-0.142
-83.655	-95.993	0.199	-0.053
-82.640	223.214	-0.256	-0.411
-81.626	119.560	0.101	0.124
-80.611	-200.000	0.013	0.065
-79.597	687.427	0.039	0.101
-78.582	-131.968	-0.260	0.034
-77.567	-30.753	-0.241	0.136
-76.553	-109.637	0.059	0.012
-75.538	-86.103	0.164	0.050
-74.524	55.142	0.188	-0.181
-73.509	-29.866	0.154	-0.087
-72.494	283.938	0.119	0.213
-71.480	-107.085	-0.168	-0.037
-70.465	-200.000	-0.018	-0.295
-69.451	174.172	0.049	-0.071
-68.436	-18.771	-0.264	-0.164
-67.422	-156.559	0.355	-0.022
-66.407	-200.000	-0.070	-0.383
-65.392	191.564	-0.145	-0.217
-64.378	336.376	0.211	0.408
-63.363	225.258	0.060	-0.097
-62.349	-53.326	0.336	0.153
-61.334	41.765	-0.740	-0.667
-60.319	-200.000	0.076	0.338
-59.305	800.000	-0.258	-0.944
-58.290	107.104	0.702	0.830
-57.276	800.000	0.506	1.557
-56.261	-200.000	87.346	491.583
-55.246	492.099	1405.387	3202.758
-54.232	181.492	2616.719	3828.879
-53.217	115.630	2230.629	2712.836
-52.203	47.326	1669.648	1546.903
-51.188	39.923	1398.611	1249.157
-50.173	36.831	1354.653	1190.864
-49.159	55.631	1397.840	1346.568
-48.144	60.170	1416.497	1392.825
-47.130	40.654	1374.098	1231.603
-46.115	36.739	1357.418	1192.544
-45.100	36.643	1351.863	1187.026
-44.086	36.631	1349.374	1184.719
-43.071	36.581	1347.173	1182.433
-42.057	36.583	1344.684	1180.216
-41.042	36.611	1343.154	1178.998
-40.027	36.659	1341.571	1177.855
-39.013	36.568	1339.907	1175.788
-37.998	36.580	1338.225	1174.342
-36.984	36.701	1335.730	1172.839
-35.969	36.765	1334.034	1171.688
-34.954	36.784	1332.222	1170.168
-33.940	36.835	1330.647	1169.042
-32.925	36.826	1329.617	1168.038
-31.911	36.902	1327.764	1166.824
-30.896	36.931	1326.281	1165.649
-29.881	36.912	1325.428	1164.739
-28.867	36.814	1323.847	1162.713
-27.852	36.856	1321.747	1161.078
-26.838	36.908	1320.609	1160.341
-25.823	36.744	1319.513	1158.348
-24.809	36.756	1318.356	1157.362
-23.794	36.924	1316.578	1156.754
-22.779	36.856	1314.895	1154.829
-21.765	36.858	1313.543	1153.604
-20.750	36.792	1312.408	1152.167
-19.736	36.751	1311.212	1150.829
-18.721	36.643	1309.772	1148.882
-17.706	36.648	1308.743	1147.961
-16.692	36.731	1307.155	1147.013
-15.677	36.683	1306.560	1146.161
-14.663	36.749	1305.168	1145.284
-13.648	36.647	1303.797	1143.433
-12.633	36.759	1302.769	1143.152
-11.619	36.567	1302.728	1141.937
-10.604	36.665	1301.315	1141.228
-9.590	36.687	1300.069	1140.221
-8.575	36.618	1299.668	1139.417
-7.560	36.583	1298.792	1138.396
-6.546	36.519	1298.091	1137.361
-5.531	36.649	1296.868	1137.008
-4.517	36.618	1295.699	1135.757
-3.502	36.645	1294.593	1134.902
-2.487	36.671	1293.742	1134.262
-1.473	36.729	1290.237	1131.481
-0.458	35.946	1275.983	1114.411
0.556	31.666	1257.646	1077.575
1.571	28.150	1261.650	1060.572
2.586	26.736	1276.130	1064.346
3.600	25.050	1264.260	1044.535
4.615	18.971	1188.900	948.759
5.629	9.775	1109.178	837.517
6.644	5.258	1087.376	797.953
7.659	5.004	1084.066	794.158
8.673	4.822	1083.358	792.645
9.688	4.816	1081.439	791.140
10.702	5.146	1080.401	791.984
11.717	10.818	1089.210	827.318
12.731	18.741	1099.704	875.783
13.746	19.910	1099.833	881.767
14.761	18.109	1096.642	869.974
15.775	16.822	1094.384	861.570
16.790	15.789	1092.432	854.710
17.804	15.034	1090.872	849.585
18.819	14.743	1089.724	847.139
19.834	14.387	1088.563	844.357
20.848	14.021	1087.893	841.911
21.863	13.893	1086.789	840.331
22.877	13.768	1086.118	839.108
23.892	13.923	1085.259	839.153
24.907	13.746	1084.925	837.923
25.921	13.730	1083.827	836.924
26.936	13.816	1082.364	836.154
27.950	13.882	1081.104	835.438
28.965	13.932	1079.662	834.499
29.980	13.928	1077.664	832.864
30.994	14.105	1076.618	832.868
32.009	14.168	1075.249	832.049
33.023	14.097	1074.432	830.987
34.038	13.990	1073.188	829.421
35.053	14.097	1072.226	829.134
36.067	13.923	1071.890	827.936
37.082	13.970	1071.061	827.455
38.096	13.920	1070.512	826.708
39.111	14.076	1069.225	826.416
40.126	13.884	1067.991	824.438
41.140	13.804	1066.744	823.004
42.155	13.793	1065.196	821.686
43.169	13.719	1064.332	820.576
44.184	13.637	1063.649	819.572
45.199	13.666	1062.657	818.880
46.213	13.727	1061.719	818.384
47.228	13.851	1060.237	817.782
48.242	13.855	1059.273	816.986
49.257	13.808	1058.481	816.071
50.271	13.913	1057.493	815.752
51.286	13.863	1056.486	814.657
52.301	13.980	1055.426	814.341
53.315	13.804	1054.502	812.698
54.330	13.825	1053.252	811.765
55.344	13.780	1052.610	810.976
56.359	13.835	1051.293	810.157
57.374	13.782	1050.333	809.091
58.388	13.722	1049.881	808.375
59.403	13.694	1049.001	807.494
60.417	13.721	1047.986	806.771
61.432	13.645	1047.425	805.898
62.447	13.634	1046.906	805.374
63.461	13.589	1045.980	804.372
64.476	13.589	1044.694	803.311
65.490	13.668	1043.700	802.860
66.505	13.677	1043.519	802.693
67.520	13.644	1042.817	801.923
68.534	13.730	1041.662	801.379
69.549	13.532	1041.541	800.257
70.563	13.712	1040.087	799.939
71.578	13.553	1039.735	798.828
72.593	13.555	1038.983	798.189
73.607	13.484	1038.470	797.385
74.622	13.554	1038.027	797.312
75.636	13.567	1036.692	796.276
76.651	13.574	1035.969	795.683
77.666	13.658	1035.816	795.900
78.680	13.541	1035.079	794.702
79.695	13.526	1034.507	794.119
80.709	13.596	1033.433	793.559
81.724	13.689	1033.143	793.711
82.739	13.715	1032.148	793.003
83.753	13.953	1031.207	793.347
84.768	13.985	1030.301	792.730
85.782	14.017	1029.536	792.227
86.797	13.956	1028.867	791.352
87.812	13.953	1027.418	790.151
88.826	13.950	1026.751	789.553
89.841	14.006	1025.732	788.967
90.855	13.941	1024.804	787.877
91.870	14.021	1024.135	787.672
92.884	13.955	1023.156	786.533
93.899	14.117	1022.453	786.690
94.914	14.114	1021.366	785.770
95.928	14.088	1020.624	785.010
96.943	14.040	1019.566	783.899
97.957	14.027	1018.613	783.033
98.972	13.971	1017.695	781.996
99.987	14.042	1016.752	781.538
101.001	13.917	1016.086	780.368
102.016	13.999	1015.042	779.883
103.030	13.967	1014.573	779.303
104.045	14.051	1013.381	778.711
105.060	13.915	1012.642	777.440
106.074	13.819	1011.726	776.219
107.089	13.725	1010.379	774.677
108.103	13.712	1009.388	773.787
109.118	13.921	1008.373	773.916
110.133	13.717	1008.150	772.725
111.147	13.625	1007.090	771.418
112.162	13.871	1005.998	771.654
113.176	13.866	1005.824	771.428
114.191	13.819	1004.689	770.274
115.206	13.906	1003.730	769.874
116.220	13.903	1002.631	768.949
117.235	13.780	1002.030	767.850
118.249	13.929	1000.667	767.424
119.264	13.853	1000.627	766.977
120.279	13.758	999.767	765.810
121.293	13.870	998.111	764.992
122.308	13.769	997.609	764.073
123.322	13.740	996.350	762.905
124.337	13.659	995.561	761.864
125.352	13.716	994.731	761.422
126.366	13.694	993.521	760.329
127.381	13.793	992.445	759.891
128.395	13.796	991.625	759.211
129.410	13.864	990.592	758.665
130.424	13.837	989.732	757.815
131.439	13.905	989.356	757.770
132.454	14.072	988.342	757.686
133.468	13.977	987.459	756.511
134.483	13.917	986.272	755.259
135.497	13.870	985.782	754.603
136.512	13.976	984.339	753.916
137.527	13.999	983.945	753.649
138.541	14.016	982.961	752.908
139.556	13.937	982.144	751.857
140.570	13.981	981.662	751.622
141.585	14.104	981.187	751.745
142.600	14.156	980.174	751.140
143.614	14.206	979.286	750.618
144.629	14.193	978.727	750.063
145.643	14.019	977.971	748.635
146.658	13.939	976.934	747.415
147.673	14.063	975.780	747.023
148.687	14.060	974.495	745.959
149.702	14.040	973.624	745.136
150.716	14.049	972.831	744.505
151.731	13.972	972.336	743.713
152.746	14.058	971.215	743.177
153.760	14.018	970.854	742.657
154.775	14.100	970.115	742.389
155.789	14.117	969.861	742.206
156.804	14.185	968.838	741.661
157.819	14.162	968.580	741.297
158.833	14.213	967.429	740.576
159.848	14.249	967.083	740.405
160.862	14.162	965.812	738.981
161.877	14.102	964.784	737.861
162.892	14.053	963.732	736.777
163.906	14.039	962.742	735.892
164.921	14.141	961.811	735.565
165.935	14.175	961.007	735.038
166.950	14.166	960.168	734.289
167.964	14.113	959.054	733.138
168.979	14.122	958.500	732.692
169.994	14.088	957.657	731.833
171.008	14.151	956.966	731.516
172.023	14.269	956.160	731.353
173.037	14.322	955.473	730.994
174.052	14.316	954.566	730.211
175.067	14.102	954.383	729.069
176.081	14.107	953.335	728.223
177.096	14.189	952.993	728.258
178.110	14.111	952.468	727.453
179.125	14.159	951.850	727.127
180.140	14.203	951.186	726.747
181.154	14.247	950.737	726.532
182.169	14.251	950.238	726.104
183.183	14.426	949.191	726.001
184.198	14.414	948.458	725.323
185.213	14.497	947.541	724.918
186.227	14.433	947.319	724.406
187.242	14.327	946.925	723.580
188.256	14.452	946.259	723.550
189.271	14.497	944.956	722.687
190.286	14.239	944.368	721.056
191.300	14.178	943.730	720.238
192.315	14.179	943.096	719.695
193.329	14.228	942.506	719.393
194.344	14.248	942.064	719.078
195.359	14.360	941.236	718.867
196.373	14.434	940.476	718.541
197.388	14.510	940.386	718.737
198.402	14.508	940.109	718.452
199.417	14.674	939.118	718.346
200.432	14.666	938.652	717.891
201.446	14.702	938.260	717.683
202.461	14.745	937.658	717.343
203.475	14.738	936.719	716.534
204.490	14.645	935.877	715.427
205.504	14.651	935.134	714.820
206.519	14.604	934.694	714.221
207.534	14.665	933.907	713.814
208.548	14.642	932.972	712.939
209.563	14.634	932.576	712.541
210.577	14.618	931.740	711.769
211.592	14.721	931.313	711.818
212.607	14.836	930.121	711.334
213.621	14.753	929.875	710.731
214.636	14.802	929.112	710.292
215.650	14.808	928.406	709.717
216.665	15.015	927.249	709.647
217.680	14.925	926.747	708.817
218.694	14.918	925.847	708.038
219.709	14.904	925.538	707.680
220.723	14.962	924.249	706.877
221.738	14.933	923.828	706.370
222.753	15.006	923.247	706.172
223.767	15.002	923.052	705.941
224.782	15.031	922.388	705.495
225.796	15.038	921.732	704.961
226.811	14.943	921.329	704.189
227.826	14.973	920.384	703.531
228.840	14.898	919.422	702.419
229.855	14.990	918.343	701.918
230.869	14.927	917.912	701.260
231.884	14.916	917.600	700.916
232.899	14.863	916.511	699.802
233.913	14.783	915.629	698.732
234.928	14.927	915.201	698.944
235.942	14.873	914.858	698.395
236.957	14.850	914.461	697.932
237.972	14.970	913.562	697.684
238.986	14.940	913.012	697.079
240.001	14.907	912.293	696.332
241.015	14.956	911.630	695.965
242.030	15.101	910.980	696.010
243.045	15.112	910.380	695.536
244.059	14.998	909.850	694.598
245.074	15.132	909.253	694.636
246.088	15.186	908.416	694.158
247.103	15.250	907.736	693.845
248.117	15.241	907.673	693.694
249.132	15.266	907.333	693.477
250.147	15.435	906.370	693.380
251.161	15.487	905.696	693.015
252.176	15.523	904.815	692.430
253.190	15.429	904.886	692.034
254.205	15.654	903.692	691.988
255.220	15.645	902.763	691.178
256.234	15.545	902.286	690.341
257.249	15.552	901.806	689.939
258.263	15.660	900.833	689.580
259.278	15.654	900.134	688.959
260.293	15.674	899.739	688.677
261.307	15.590	899.400	688.013
262.322	15.822	898.284	688.048
263.336	15.879	897.470	687.593
264.351	15.738	896.937	686.548
265.366	15.805	896.369	686.327
266.380	15.732	895.955	685.654
267.395	15.727	895.045	684.875
268.409	15.720	894.623	684.462
269.424	15.860	893.065	683.779
270.439	15.723	892.984	683.101
271.453	15.651	891.919	681.933
272.468	15.613	891.621	681.493
273.482	15.754	891.109	681.608
274.497	15.639	890.821	680.864
275.512	15.648	890.102	680.292
276.526	15.663	889.948	680.172
277.541	15.757	889.251	679.962
278.555	15.684	888.774	679.242
279.570	15.999	887.419	679.417
280.585	15.992	886.818	678.865
281.599	15.858	885.742	677.443
282.614	15.895	885.058	677.011
283.628	15.962	884.366	676.691
284.643	15.786	884.632	676.124
285.657	15.738	883.794	675.232
286.672	15.806	882.958	674.807
287.687	15.991	882.319	674.999
288.701	15.995	881.462	674.302
289.716	16.049	881.111	674.189
290.730	16.043	880.354	673.526
291.745	16.020	880.015	673.114
292.760	16.222	879.362	673.364
293.774	16.139	878.755	672.507
294.789	16.079	878.286	671.848
295.803	16.118	877.615	671.434
296.818	16.028	876.749	670.353
297.833	16.053	875.832	669.692
298.847	16.102	875.098	669.264
299.862	16.079	874.884	668.951
300.876	16.109	874.378	668.626
301.891	16.208	873.671	668.418
302.906	16.165	873.614	668.143
303.920	16.210	872.756	667.605
304.935	16.294	872.267	667.506
305.949	16.351	871.294	666.926
306.964	16.371	870.634	666.440
307.979	16.388	870.486	666.335
308.993	16.370	869.906	665.762
310.008	16.304	869.358	665.024
311.022	16.424	868.663	664.904
312.037	16.277	868.081	663.822
313.052	16.334	867.283	663.379
314.066	16.373	866.527	662.896
315.081	16.283	866.474	662.443
316.095	16.258	865.504	661.543
317.110	16.298	864.782	661.088
318.125	16.346	864.544	661.039
319.139	16.248	864.109	660.263
320.154	16.283	863.585	659.942
321.168	16.278	863.308	659.651
322.183	16.426	862.641	659.662
323.197	16.442	861.900	659.098
324.212	16.425	861.302	658.515
325.227	16.412	860.755	657.990
326.241	16.176	860.457	656.785
327.256	16.394	859.345	656.725
328.270	16.345	859.387	656.508
329.285	16.435	858.156	655.859
330.300	16.345	857.979	655.316
331.314	16.469	857.298	655.219
332.329	16.542	856.914	655.153
333.343	16.571	856.161	654.631
334.358	16.579	855.950	654.440
335.373	16.520	855.975	654.174
336.387	16.539	855.420	653.767
337.402	16.643	855.247	653.978
338.416	16.749	854.769	653.964
339.431	16.752	854.507	653.718
340.446	16.721	853.959	653.119
341.460	16.877	853.548	653.349
342.475	16.758	853.320	652.660
343.489	16.892	852.529	652.510
344.504	16.947	851.961	652.229
345.519	17.041	851.621	652.273
346.533	17.007	851.010	651.618
347.548	17.010	850.259	650.995
348.562	16.781	849.896	649.782
349.577	16.834	849.474	649.605
350.592	16.759	848.469	648.492
351.606	16.711	848.075	647.951
352.621	16.796	847.580	647.841
353.635	16.845	846.912	647.459
354.650	16.759	846.098	646.451
355.665	16.872	845.630	646.467
356.679	16.943	844.596	645.890
357.694	16.984	844.192	645.679
358.708	16.810	844.018	644.827
359.723	16.957	843.079	644.613
360.738	17.019	842.396	644.267
361.752	17.019	841.678	643.661
362.767	17.114	841.432	643.778
363.781	17.098	840.621	643.039
364.796	17.136	840.644	643.144
365.810	17.215	840.112	642.978
366.825	17.214	839.751	642.643
367.840	17.211	839.239	642.181
368.854	17.115	838.675	641.331
369.869	17.135	838.126	640.928
370.883	17.277	837.923	641.255
371.898	17.277	837.311	640.729
372.913	17.417	836.887	640.876
373.927	17.236	836.657	639.961
374.942	17.439	835.791	640.007
375.956	17.308	835.355	639.121
376.971	17.432	835.342	639.522
377.986	17.513	834.841	639.384
379.000	17.514	834.168	638.817
380.015	17.509	833.732	638.409
381.029	17.472	833.422	637.976
382.044	17.364	832.728	636.984
383.059	17.476	832.036	636.817
384.073	17.431	831.300	636.027
385.088	17.385	830.551	635.229
386.102	17.480	830.151	635.219
387.117	17.413	829.521	634.434
388.132	17.477	828.708	633.992
389.146	17.491	828.556	633.871
390.161	17.478	828.060	633.389
391.175	17.507	827.584	633.075
392.190	17.608	826.857	632.840
393.205	17.438	826.581	631.942
394.219	17.580	826.009	631.973
395.234	17.307	825.924	630.839
396.248	17.375	825.434	630.662
397.263	17.389	824.726	630.116
398.278	17.367	824.671	629.939
399.292	17.496	824.220	630.016
400.307	17.350	823.526	628.889
401.321	17.456	823.006	628.828
402.336	17.477	822.446	628.422
403.350	17.578	821.980	628.384
404.365	17.672	821.689	628.450
405.380	17.691	821.184	628.082
406.394	17.709	820.599	627.642
407.409	17.838	820.094	627.677
408.423	17.903	819.646	627.515
409.438	17.731	819.628	626.814
410.453	17.842	819.234	626.868
411.467	18.013	818.593	626.948
412.482	18.069	818.105	626.722
413.496	17.910	817.694	625.772
414.511	17.965	817.380	625.677
415.526	17.966	816.879	625.242
416.540	18.089	816.316	625.204
417.555	18.076	815.896	624.781
418.569	18.011	815.651	624.302
419.584	18.056	815.159	624.034
420.599	18.023	814.688	623.497
421.613	149.745	1369.523	1781.994
422.628	130.086	1450.383	1782.117
