DTS Sentinel unit serial number:	SN413079Multiplexer serial number:	ORYXHardware model number:	OX4-SRSoftware version number:	ORYX F/W v4.00 Oryx Data Collector v3.7.2.0data status	okinstallation	princeton_trtdifferential loss correction	single-endedforward channel	channel 1reverse channel	N/Adate	2019/09/14time	22:34:35forward acquisition time	60.00reverse acquisition time	0.00gamma	496.2192k internal	0.2319k external	0.2319temperature offset calibration	1.0005default loss term (dB/km)	0.3790temperature slope calibration	1.0000multiplexer offset coefficient	1.0000multiplexer slope coefficient	1.0000fibre end	0.00T internal ref (°C)	32.55T ext. ref 1 (°C)	4.68T ext. ref 2 (°C)	27.53length (m)	temperature (°C)	Stokes	anti-Stokes-747.200	-19.492	0.409	0.256
-746.185	-200.000	-0.031	0.140
-745.171	61.722	0.208	0.209
-744.156	102.076	0.162	-0.191
-743.142	-76.324	-0.451	-0.161
-742.127	-93.901	-0.097	0.027
-741.112	-200.000	0.013	-0.113
-740.098	-200.000	0.019	0.334
-739.083	-200.000	0.016	-0.127
-738.069	472.631	0.034	-0.077
-737.054	45.275	0.146	-0.136
-736.039	-200.000	-0.007	0.363
-735.025	37.338	0.343	0.307
-734.010	-44.784	-0.050	-0.025
-732.996	-200.000	0.026	-0.278
-731.981	-4.299	-0.131	0.092
-730.966	-200.000	-0.027	-0.175
-729.952	207.219	0.037	0.058
-728.937	-200.000	0.074	-0.364
-727.923	-154.923	0.198	-0.013
-726.908	-173.020	-0.237	-0.007
-725.894	-64.763	-0.220	-0.090
-724.879	165.394	-0.224	-0.320
-723.864	-104.780	-0.193	-0.045
-722.850	-42.257	-0.186	-0.096
-721.835	90.409	0.026	-0.029
-720.821	403.621	-0.103	-0.218
-719.806	447.283	-0.031	0.068
-718.791	-67.182	0.205	-0.082
-717.777	-89.904	-0.196	0.058
-716.762	294.063	0.085	-0.157
-715.748	6.111	-0.103	-0.077
-714.733	-200.000	0.045	-0.328
-713.718	108.025	-0.187	-0.226
-712.704	800.000	-0.071	0.200
-711.689	381.501	0.024	0.049
-710.675	-200.000	0.056	0.279
-709.660	-200.000	0.025	-0.193
-708.645	752.996	-0.049	-0.134
-707.631	225.395	-0.044	-0.073
-706.616	143.810	-0.120	0.162
-705.602	639.598	-0.018	0.046
-704.587	194.863	0.052	0.080
-703.572	-200.000	0.053	-0.235
-702.558	-200.000	-0.006	0.140
-701.543	274.872	0.070	-0.125
-700.529	281.578	-0.107	-0.194
-699.514	-200.000	0.064	0.341
-698.499	800.000	-0.042	0.149
-697.485	-178.970	-0.319	-0.007
-696.470	-38.365	0.339	-0.181
-695.456	285.096	-0.050	0.090
-694.441	-200.000	0.022	-0.204
-693.426	-54.398	-0.115	0.053
-692.412	-200.000	0.039	-0.342
-691.397	-131.228	-0.280	0.038
-690.383	34.751	0.110	0.097
-689.368	-200.000	-0.318	-0.000
-688.354	-200.000	0.021	-0.235
-687.339	-74.640	-0.258	0.094
-686.324	439.511	-0.022	-0.048
-685.310	-200.000	-0.021	-0.271
-684.295	262.372	0.061	-0.108
-683.281	-178.186	-0.425	0.010
-682.266	-42.606	-0.318	0.164
-681.251	76.543	-0.117	-0.125
-680.237	477.254	-0.176	-0.402
-679.222	100.926	0.088	-0.103
-678.208	368.237	-0.139	-0.284
-677.193	-143.412	0.069	0.007
-676.178	381.778	0.082	0.170
-675.164	-55.059	0.362	-0.165
-674.149	-84.090	-0.221	-0.071
-673.135	181.971	0.137	-0.203
-672.120	800.000	0.035	-0.146
-671.105	250.157	0.115	-0.197
-670.091	576.558	-0.031	-0.077
-669.076	-13.293	-0.177	-0.116
-668.062	800.000	-0.053	-0.225
-667.047	22.824	0.104	-0.086
-666.032	171.362	0.108	0.156
-665.018	-145.949	-0.212	-0.019
-664.003	154.624	0.121	0.168
-662.989	-200.000	-0.004	0.032
-661.974	-41.162	0.265	-0.138
-660.959	-76.085	-0.338	-0.120
-659.945	59.292	0.110	-0.109
-658.930	-80.895	-0.090	-0.030
-657.916	-50.850	-0.085	0.040
-656.901	34.370	-0.079	-0.069
-655.886	190.662	-0.107	-0.161
-654.872	-114.165	-0.276	-0.054
-653.857	-200.000	0.064	-0.351
-652.843	6.543	0.136	0.102
-651.828	564.422	-0.047	-0.116
-650.814	255.052	-0.023	0.040
-649.799	-101.656	-0.358	-0.088
-648.784	-82.710	-0.115	0.037
-647.770	-105.595	-0.230	-0.053
-646.755	93.357	-0.092	-0.105
-645.741	155.807	0.073	-0.101
-644.726	-200.000	0.001	-0.301
-643.711	105.372	0.144	0.171
-642.697	82.572	0.101	0.110
-641.682	-200.000	-0.005	0.275
-640.668	-19.530	0.127	-0.079
-639.653	38.556	0.155	0.139
-638.638	-102.802	-0.227	0.054
-637.624	-200.000	0.011	0.134
-636.609	-200.000	0.015	0.146
-635.595	800.000	0.085	-0.345
-634.580	60.307	0.093	-0.093
-633.565	102.777	0.105	0.124
-632.551	-63.309	-0.260	-0.108
-631.536	-40.425	-0.224	0.117
-630.522	19.917	0.261	-0.212
-629.507	61.666	0.066	0.066
-628.492	78.667	0.336	0.362
-627.478	-200.000	0.007	0.070
-626.463	800.000	-0.024	0.076
-625.449	-99.459	0.199	0.050
-624.434	165.900	0.054	0.078
-623.419	-121.805	-0.251	-0.042
-622.405	148.666	-0.033	-0.045
-621.390	273.218	-0.019	0.034
-620.376	-140.231	-0.432	0.046
-619.361	-200.000	-0.004	-0.075
-618.346	-26.866	-0.138	0.081
-617.332	-40.635	0.180	0.094
-616.317	-200.000	-0.006	0.300
-615.303	-200.000	-0.001	0.126
-614.288	-92.606	-0.216	0.061
-613.273	-200.000	-0.034	0.289
-612.259	-200.000	0.008	0.327
-611.244	-3.762	-0.122	0.085
-610.230	800.000	0.081	0.296
-609.215	14.532	0.179	0.141
-608.201	83.976	0.110	0.120
-607.186	69.396	0.125	0.130
-606.171	-200.000	-0.009	0.142
-605.157	-96.980	-0.083	-0.022
-604.142	148.066	-0.113	0.154
-603.128	800.000	-0.074	-0.209
-602.113	-28.563	-0.091	0.053
-601.098	22.340	-0.053	-0.044
-600.084	-6.508	-0.394	0.270
-599.069	-28.585	0.167	-0.097
-598.055	285.443	0.114	0.207
-597.040	800.000	-0.039	-0.127
-596.025	482.644	0.026	-0.059
-595.011	-200.000	-0.015	0.219
-593.996	-93.075	-0.130	0.036
-592.982	-66.960	0.199	0.079
-591.967	-82.053	-0.199	-0.065
-590.952	399.347	0.066	-0.140
-589.938	149.737	0.148	0.201
-588.923	28.171	0.156	0.132
-587.909	796.479	-0.137	0.380
-586.894	-176.903	0.379	-0.010
-585.879	189.924	-0.082	0.124
-584.865	48.975	-0.262	-0.247
-583.850	-200.000	0.030	-0.174
-582.836	-200.000	0.034	-0.192
-581.821	-87.660	0.087	-0.026
-580.806	13.772	-0.122	-0.095
-579.792	800.000	-0.083	0.284
-578.777	-115.069	-0.372	-0.071
-577.763	-94.682	0.404	0.110
-576.748	-115.722	-0.196	0.037
-575.733	-49.973	0.204	-0.097
-574.719	-200.000	-0.016	-0.329
-573.704	-152.202	-0.071	0.005
-572.690	-200.000	-0.059	0.396
-571.675	86.328	-0.189	0.209
-570.661	152.433	-0.167	-0.229
-569.646	800.000	-0.107	-0.446
-568.631	-108.969	0.231	0.050
-567.617	-104.626	0.275	0.064
-566.602	61.552	-0.014	-0.014
-565.588	81.814	-0.205	0.223
-564.573	-93.878	-0.136	0.038
-563.558	91.132	-0.144	-0.162
-562.544	-66.394	-0.136	-0.054
-561.529	-60.559	-0.324	-0.138
-560.515	-200.000	-0.019	-0.113
-559.500	-44.425	-0.470	-0.236
-558.485	-200.000	0.000	0.138
-557.471	-145.615	0.150	0.014
-556.456	0.194	0.218	-0.156
-555.442	-162.180	-0.180	-0.009
-554.427	-200.000	-0.005	-0.212
-553.412	59.592	0.243	0.241
-552.398	225.610	-0.167	0.272
-551.383	-95.112	0.250	0.068
-550.369	677.238	0.039	0.102
-549.354	800.000	-0.012	0.046
-548.339	-46.267	-0.096	-0.047
-547.325	118.567	0.174	-0.216
-546.310	192.897	0.123	-0.187
-545.296	-52.410	-0.169	0.078
-544.281	-145.464	-0.519	-0.047
-543.266	117.672	-0.207	-0.256
-542.252	170.229	0.322	-0.462
-541.237	-107.943	-0.260	-0.057
-540.223	800.000	-0.061	0.174
-539.208	-107.071	0.275	0.061
-538.193	-106.218	-0.084	-0.019
-537.179	-74.609	-0.023	-0.008
-536.164	800.000	-0.053	0.217
-535.150	-49.665	0.212	0.101
-534.135	-102.086	-0.065	0.016
-533.121	-181.062	0.111	0.002
-532.106	-129.154	-0.167	-0.023
-531.091	590.605	0.007	0.018
-530.077	-47.764	-0.020	0.010
-529.062	166.070	0.069	-0.098
-528.048	21.201	0.114	0.093
-527.033	137.647	-0.334	-0.439
-526.018	32.912	0.298	-0.259
-525.004	369.157	0.060	0.121
-523.989	514.997	0.123	0.289
-522.975	-6.743	-0.083	-0.056
-521.960	-200.000	0.005	0.025
-520.945	46.407	-0.112	0.104
-519.931	-41.009	-0.203	-0.105
-518.916	-116.116	-0.481	-0.090
-517.902	-200.000	-0.046	-0.289
-516.887	-116.823	0.213	0.039
-515.872	-83.618	-0.178	0.057
-514.858	-200.000	0.018	-0.111
-513.843	-147.204	0.150	0.013
-512.829	-46.752	-0.094	0.046
-511.814	99.401	-0.127	-0.147
-510.799	32.782	-0.196	-0.170
-509.785	-94.777	0.204	0.055
-508.770	274.002	-0.158	0.280
-507.756	40.518	-0.450	-0.406
-506.741	63.474	0.132	0.133
-505.726	-72.159	0.266	0.099
-504.712	800.000	-0.135	0.407
-503.697	800.000	-0.067	-0.228
-502.683	564.390	-0.045	-0.109
-501.668	105.182	0.272	-0.321
-500.653	-114.192	0.251	0.049
-499.639	631.055	0.084	0.214
-498.624	800.000	0.051	-0.194
-497.610	-71.505	-0.121	0.045
-496.595	279.910	0.041	-0.074
-495.581	105.008	0.039	-0.046
-494.566	-121.124	0.075	-0.013
-493.551	89.009	0.042	-0.047
-492.537	800.000	0.053	0.184
-491.522	519.122	0.074	0.173
-490.508	-21.117	-0.294	-0.180
-489.493	58.949	-0.069	-0.068
-488.478	-48.667	0.088	-0.042
-487.464	-200.000	0.007	-0.131
-486.449	7.405	-0.168	0.126
-485.435	556.122	-0.088	-0.211
-484.420	-3.781	-0.261	0.182
-483.405	-200.000	-0.041	0.196
-482.391	488.926	-0.025	-0.058
-481.376	4.321	-0.121	-0.089
-480.362	-36.162	-0.352	-0.190
-479.347	-200.000	0.017	-0.410
-478.332	-81.674	0.065	-0.022
-477.318	800.000	0.048	0.181
-476.303	128.665	0.103	-0.131
-475.289	-44.683	0.115	-0.057
-474.274	770.532	0.027	-0.074
-473.259	97.346	-0.076	0.087
-472.245	225.928	0.145	0.235
-471.230	88.603	0.194	0.216
-470.216	-101.463	0.428	-0.104
-469.201	-0.854	-0.242	-0.171
-468.186	-108.357	0.171	-0.037
-467.172	-96.069	0.288	0.077
-466.157	77.469	-0.064	-0.068
-465.143	-124.251	-0.267	-0.042
-464.128	62.756	-0.246	0.246
-463.113	-24.918	-0.235	-0.139
-462.099	-143.743	-0.199	-0.019
-461.084	69.985	-0.096	-0.100
-460.070	-83.591	0.272	-0.087
-459.055	-200.000	-0.077	0.371
-458.040	-135.288	0.275	0.033
-457.026	676.636	0.093	0.243
-456.011	-67.091	-0.121	-0.048
-454.997	-73.948	0.121	0.044
-453.982	-200.000	-0.062	-0.275
-452.968	-72.350	0.047	0.018
-451.953	-12.157	0.061	0.040
-450.938	131.370	0.134	-0.172
-449.924	-97.006	0.299	0.078
-448.909	-78.447	0.231	0.079
-447.895	550.755	-0.099	0.238
-446.880	-200.000	0.054	-0.251
-445.865	48.754	0.222	-0.208
-444.851	369.567	0.203	0.410
-443.836	466.460	-0.135	-0.303
-442.822	58.960	0.184	0.181
-441.807	-10.254	-0.339	0.225
-440.792	147.417	0.188	-0.253
-439.778	-74.005	-0.205	-0.074
-438.763	-52.920	0.253	0.116
-437.749	-147.200	-0.169	-0.014
-436.734	77.901	-0.118	-0.125
-435.719	-114.560	0.259	0.050
-434.705	82.821	0.048	-0.052
-433.690	800.000	-0.014	0.040
-432.676	156.451	-0.091	-0.126
-431.661	235.055	-0.078	-0.129
-430.646	-200.000	0.033	0.158
-429.632	-58.403	0.220	-0.096
-428.617	-200.000	-0.040	0.347
-427.603	-142.736	0.451	0.044
-426.588	800.000	0.041	-0.154
-425.573	800.000	-0.028	-0.080
-424.559	-59.327	-0.296	0.127
-423.544	-106.306	0.413	-0.092
-422.530	30.253	0.051	-0.043
-421.515	-24.736	0.118	-0.070
-420.500	-86.794	-0.292	-0.089
-419.486	160.070	-0.208	-0.290
-418.471	-36.007	-0.154	-0.083
-417.457	65.478	0.176	-0.178
-416.442	-33.730	0.107	0.059
-415.428	-40.875	-0.148	0.076
-414.413	800.000	0.035	-0.142
-413.398	536.087	-0.104	-0.246
-412.384	-49.383	-0.336	-0.160
-411.369	157.329	-0.082	0.113
-410.355	-146.652	-0.175	-0.015
-409.340	413.662	0.008	0.017
-408.325	-200.000	-0.045	-0.402
-407.311	-200.000	-0.043	-0.211
-406.296	-200.000	0.043	0.397
-405.282	800.000	-0.076	0.212
-404.267	0.278	0.126	0.090
-403.252	-200.000	-0.040	-0.285
-402.238	62.807	0.119	-0.119
-401.223	51.790	0.248	0.235
-400.209	238.988	0.062	0.103
-399.194	-121.332	0.389	-0.065
-398.179	118.861	0.118	0.146
-397.165	-200.000	-0.026	-0.248
-396.150	-80.948	-0.011	0.004
-395.136	-200.000	0.000	0.324
-394.121	281.858	0.085	0.151
-393.106	122.505	0.081	-0.102
-392.092	516.127	0.127	0.296
-391.077	91.810	-0.138	-0.155
-390.063	170.776	-0.069	-0.099
-389.048	-124.895	0.117	0.018
-388.033	141.565	-0.190	-0.251
-387.019	140.964	0.287	-0.379
-386.004	81.545	-0.126	0.136
-384.990	380.499	0.048	-0.098
-383.975	-101.488	-0.252	0.061
-382.960	-40.393	-0.353	0.183
-381.946	-99.204	0.061	0.015
-380.931	800.000	0.006	0.026
-379.917	-23.219	0.135	-0.081
-378.902	800.000	-0.082	-0.258
-377.888	465.755	-0.121	-0.271
-376.873	-200.000	0.015	-0.412
-375.858	84.346	0.056	0.061
-374.844	-11.367	-0.022	0.014
-373.829	94.541	0.070	0.080
-372.815	-111.282	-0.039	-0.008
-371.800	-107.704	0.169	0.037
-370.785	373.674	0.051	-0.104
-369.771	-169.029	-0.163	-0.006
-368.756	800.000	0.040	-0.145
-367.742	-23.098	-0.160	0.096
-366.727	-200.000	0.026	0.428
-365.712	-27.553	-0.475	0.275
-364.698	-170.347	0.089	0.003
-363.683	-200.000	0.011	-0.099
-362.669	19.934	0.185	-0.148
-361.654	74.915	0.143	-0.150
-360.639	186.764	0.077	0.114
-359.625	-81.453	0.116	-0.038
-358.610	-200.000	-0.016	0.118
-357.596	-110.214	-0.268	-0.056
-356.581	-20.460	0.182	-0.111
-355.566	-59.473	0.327	0.140
-354.552	-190.485	-0.343	-0.004
-353.537	-22.397	0.242	-0.146
-352.523	162.505	0.129	0.180
-351.508	-200.000	-0.015	0.081
-350.493	79.919	-0.198	0.212
-349.479	-122.834	0.285	-0.046
-348.464	-62.373	0.052	-0.022
-347.450	-54.708	0.348	0.157
-346.435	47.826	0.172	-0.160
-345.420	294.703	-0.041	-0.074
-344.406	-52.123	-0.184	0.085
-343.391	-42.037	0.176	0.090
-342.377	-144.990	0.270	0.024
-341.362	-7.387	0.040	0.027
-340.348	-124.317	-0.143	0.022
-339.333	383.399	-0.064	-0.131
-338.318	-200.000	-0.001	-0.148
-337.304	254.333	0.136	-0.231
-336.289	-187.843	0.148	-0.002
-335.275	-79.126	-0.270	-0.091
-334.260	-101.030	0.154	-0.038
-333.245	-71.029	-0.170	-0.064
-332.231	-200.000	-0.042	-0.266
-331.216	-200.000	0.036	0.438
-330.202	-200.000	-0.033	0.385
-329.187	-110.572	-0.125	0.026
-328.172	1.082	0.332	0.237
-327.158	-200.000	-0.040	0.184
-326.143	93.784	0.097	0.110
-325.129	619.720	-0.097	0.242
-324.114	-57.381	0.132	0.058
-323.099	32.834	0.225	0.193
-322.085	-131.696	-0.032	0.004
-321.070	-131.175	0.247	-0.033
-320.056	216.825	-0.279	0.441
-319.041	-24.250	0.163	0.097
-318.026	214.642	0.263	-0.414
-317.012	34.783	0.013	-0.011
-315.997	-17.940	-0.040	-0.025
-314.983	-200.000	0.074	0.393
-313.968	122.125	0.057	0.071
-312.953	-100.319	0.088	-0.022
-311.939	-200.000	0.004	0.077
-310.924	-76.739	-0.229	-0.080
-309.910	-195.416	-0.039	-0.000
-308.895	503.933	0.143	-0.330
-307.880	-99.832	-0.126	-0.031
-306.866	-37.376	-0.252	-0.134
-305.851	-140.615	0.237	-0.024
-304.837	414.127	-0.162	-0.343
-303.822	15.526	0.253	-0.198
-302.807	-200.000	-0.001	0.156
-301.793	-56.249	0.405	0.179
-300.778	-45.019	-0.153	0.076
-299.764	-200.000	0.004	-0.396
-298.749	-200.000	0.019	0.125
-297.735	-53.796	-0.263	-0.119
-296.720	-14.209	0.218	0.140
-295.705	-200.000	0.011	0.251
-294.691	-200.000	0.018	0.151
-293.676	-141.238	-0.289	0.029
-292.662	32.901	-0.162	-0.139
-291.647	-96.616	0.450	-0.118
-290.632	-182.116	0.136	0.003
-289.618	-16.309	-0.220	-0.139
-288.603	800.000	0.054	0.158
-287.589	-60.983	0.129	-0.054
-286.574	127.039	-0.208	0.263
-285.559	-55.893	-0.179	-0.079
-284.545	800.000	-0.088	0.276
-283.530	800.000	-0.029	-0.123
-282.516	800.000	0.046	-0.168
-281.501	-10.839	0.147	-0.097
-280.486	277.659	0.119	-0.211
-279.472	-200.000	0.010	0.186
-278.457	-170.353	-0.022	0.001
-277.443	-104.333	0.252	-0.058
-276.428	-46.382	0.180	-0.088
-275.413	342.886	-0.075	-0.145
-274.399	-200.000	0.019	-0.297
-273.384	-200.000	0.007	-0.388
-272.370	162.190	0.058	0.080
-271.355	800.000	0.052	0.162
-270.340	-40.520	-0.177	-0.091
-269.326	-21.195	-0.366	-0.222
-268.311	-73.390	-0.126	0.046
-267.297	69.874	-0.069	0.071
-266.282	142.287	-0.072	-0.095
-265.267	800.000	-0.029	-0.119
-264.253	-200.000	0.011	0.259
-263.238	120.947	0.133	0.165
-262.224	8.454	-0.321	-0.240
-261.209	367.755	-0.065	0.129
-260.195	-173.342	0.340	0.010
-259.180	-168.861	-0.238	-0.009
-258.165	800.000	-0.056	0.175
-257.151	-4.192	-0.289	-0.198
-256.136	62.246	-0.109	-0.108
-255.122	-118.580	0.111	0.019
-254.107	-3.912	-0.065	0.045
-253.092	98.319	0.242	0.277
-252.078	-25.094	-0.143	0.084
-251.063	-200.000	-0.017	-0.096
-250.049	283.784	-0.072	0.128
-249.034	10.887	-0.037	0.028
-248.019	492.555	0.084	0.191
-247.005	248.987	0.166	0.280
-245.990	-95.901	0.140	0.037
-244.976	105.122	-0.131	0.153
-243.961	-59.885	-0.417	0.177
-242.946	-200.000	0.058	-0.259
-241.932	-12.604	0.085	0.055
-240.917	800.000	0.120	0.388
-239.903	-200.000	-0.039	-0.224
-238.888	-63.647	-0.135	-0.055
-237.873	-116.850	0.224	0.041
-236.859	-146.844	-0.075	0.006
-235.844	-200.000	-0.001	0.053
-234.830	53.343	0.284	0.270
-233.815	320.861	0.196	0.370
-232.800	624.083	0.117	-0.293
-231.786	217.603	0.199	0.315
-230.771	-200.000	-0.056	0.337
-229.757	-91.246	-0.106	0.030
-228.742	-28.150	-0.235	-0.135
-227.727	-200.000	0.020	-0.218
-226.713	411.337	-0.050	-0.106
-225.698	47.052	0.077	-0.071
-224.684	-78.368	0.210	0.071
-223.669	-17.633	-0.066	-0.041
-222.655	-106.597	0.360	0.079
-221.640	143.084	0.069	0.090
-220.625	110.729	-0.087	0.104
-219.611	794.845	-0.133	-0.362
-218.596	-84.448	-0.312	0.098
-217.582	800.000	-0.034	0.103
-216.567	-7.436	0.291	-0.195
-215.552	751.723	-0.098	-0.263
-214.538	-40.683	-0.060	-0.031
-213.523	195.146	-0.200	0.301
-212.509	216.393	-0.112	0.176
-211.494	100.633	0.137	-0.157
-210.479	295.846	0.106	-0.192
-209.465	-74.464	-0.155	-0.055
-208.450	36.017	0.170	-0.149
-207.436	-64.752	0.150	-0.060
-206.421	-4.698	-0.131	0.089
-205.406	490.067	-0.066	-0.150
-204.392	-168.178	-0.185	-0.007
-203.377	31.162	-0.238	-0.202
-202.363	800.000	0.127	-0.436
-201.348	57.048	-0.232	-0.224
-200.333	-13.636	0.182	0.117
-199.319	96.739	0.229	0.259
-198.304	60.730	0.193	0.189
-197.290	112.047	0.088	0.106
-196.275	-60.318	-0.051	-0.022
-195.260	800.000	0.036	0.142
-194.246	88.932	0.166	-0.183
-193.231	-200.000	-0.005	0.229
-192.217	-200.000	-0.002	-0.012
-191.202	-44.267	0.233	0.115
-190.187	350.481	0.063	0.123
-189.173	488.280	0.104	0.234
-188.158	134.681	-0.253	-0.325
-187.144	33.607	-0.308	-0.265
-186.129	-200.000	0.030	-0.329
-185.114	-116.355	0.321	-0.059
-184.100	-115.384	-0.192	-0.036
-183.085	-96.006	0.171	-0.045
-182.071	-162.100	-0.134	-0.007
-181.056	390.677	0.122	-0.251
-180.042	-200.000	0.004	0.141
-179.027	234.746	0.120	0.195
-178.012	-138.014	-0.307	-0.034
-176.998	800.000	0.198	-0.570
-175.983	800.000	0.016	-0.053
-174.969	-146.805	-0.247	0.021
-173.954	-17.576	-0.173	0.108
-172.939	296.869	0.135	-0.245
-171.925	-81.967	0.165	-0.053
-170.910	-51.624	0.076	-0.035
-169.896	-200.000	-0.014	0.167
-168.881	-129.678	-0.134	-0.018
-167.866	314.162	0.052	-0.096
-166.852	-20.657	-0.127	-0.077
-165.837	-0.776	-0.046	0.032
-164.823	-71.293	-0.204	0.076
-163.808	-137.051	0.062	-0.007
-162.793	72.222	-0.145	0.149
-161.779	-89.271	-0.108	-0.031
-160.764	-200.000	0.009	0.114
-159.750	-163.296	-0.493	0.023
-158.735	-56.600	0.184	-0.080
-157.720	-85.039	0.026	-0.008
-156.706	322.456	0.066	0.124
-155.691	355.887	0.159	0.312
-154.677	27.991	0.152	-0.127
-153.662	-171.515	0.244	-0.008
-152.647	800.000	0.078	-0.295
-151.633	153.490	-0.152	0.205
-150.618	430.716	-0.126	0.269
-149.604	800.000	-0.121	0.347
-148.589	-99.237	-0.160	0.040
-147.574	-200.000	-0.022	0.153
-146.560	20.879	0.013	0.010
-145.545	-142.859	-0.218	0.021
-144.531	-200.000	-0.035	0.306
-143.516	-36.842	0.139	-0.074
-142.502	-134.633	-0.366	0.044
-141.487	75.396	0.118	-0.123
-140.472	-128.845	-0.333	-0.046
-139.458	-200.000	0.044	0.203
-138.443	44.370	-0.254	-0.230
-137.429	-200.000	0.026	-0.241
-136.414	-137.728	0.251	-0.028
-135.399	-200.000	-0.028	0.242
-134.385	221.597	-0.094	0.149
-133.370	-104.904	0.239	-0.054
-132.356	800.000	-0.045	0.147
-131.341	88.975	0.073	0.080
-130.326	-81.839	-0.310	-0.100
-129.312	154.133	-0.050	0.068
-128.297	-114.816	-0.301	-0.057
-127.283	-108.984	0.382	0.080
-126.268	50.123	-0.348	-0.324
-125.253	800.000	0.059	0.181
-124.239	0.842	0.275	0.194
-123.224	260.804	-0.047	-0.081
-122.210	-178.419	0.046	0.001
-121.195	181.011	0.041	0.059
-120.180	-126.413	0.173	-0.025
-119.166	-200.000	0.025	0.188
-118.151	-46.638	-0.174	-0.084
-117.137	-88.815	0.312	-0.091
-116.122	-70.233	0.244	0.092
-115.107	103.602	0.025	-0.029
-114.093	-11.024	0.204	-0.133
-113.078	-200.000	-0.076	0.333
-112.064	-200.000	-0.007	0.143
-111.049	-200.000	0.022	0.370
-110.034	-76.906	-0.258	0.089
-109.020	-153.282	-0.329	-0.023
-108.005	185.830	-0.190	0.278
-106.991	57.159	0.099	-0.096
-105.976	-105.671	0.129	0.029
-104.962	-103.928	-0.372	0.086
-103.947	241.722	0.078	0.128
-102.932	-65.121	-0.235	0.093
-101.918	72.058	0.178	0.183
-100.903	-200.000	-0.014	0.076
-99.889	498.913	-0.127	-0.289
-98.874	-5.725	0.095	-0.064
-97.859	786.660	-0.024	-0.065
-96.845	447.316	0.097	-0.211
-95.830	405.865	0.128	0.267
-94.816	-200.000	0.043	-0.220
-93.801	-51.400	0.110	0.051
-92.786	-129.187	-0.195	0.027
-91.772	-166.508	-0.381	-0.016
-90.757	-17.413	0.264	0.164
-89.743	-67.954	-0.263	0.101
-88.728	800.000	0.021	-0.081
-87.713	-30.340	-0.302	-0.169
-86.699	-200.000	-0.051	0.219
-85.684	-200.000	0.031	0.336
-84.670	800.000	0.065	0.241
-83.655	360.877	-0.122	0.241
-82.640	336.568	-0.065	-0.125
-81.626	365.494	0.086	-0.171
-80.611	-200.000	0.060	0.314
-79.597	-94.706	0.101	0.027
-78.582	342.550	0.036	-0.070
-77.567	-79.875	-0.057	-0.019
-76.553	-200.000	0.050	0.304
-75.538	4.778	-0.251	-0.182
-74.524	-3.374	0.222	-0.153
-73.509	16.390	0.054	-0.042
-72.494	-200.000	0.010	0.121
-71.480	-101.743	0.285	-0.068
-70.465	-58.064	0.199	-0.085
-69.451	226.135	0.071	-0.113
-68.436	-170.614	-0.074	-0.003
-67.422	-200.000	0.002	-0.273
-66.407	105.309	0.127	0.148
-65.392	800.000	0.005	-0.013
-64.378	-152.520	-0.122	0.009
-63.363	-67.011	-0.061	0.024
-62.349	361.189	0.075	-0.149
-61.334	-0.034	-0.988	-0.693
-60.319	11.708	0.658	0.497
-59.305	800.000	-0.245	-1.052
-58.290	171.652	0.549	0.776
-57.276	682.812	0.559	1.434
-56.261	-200.000	95.242	579.146
-55.246	660.813	1370.374	3475.517
-54.232	199.896	2541.751	3841.222
-53.217	120.778	2139.954	2619.539
-52.203	44.459	1605.520	1451.987
-51.188	36.199	1342.982	1164.883
-50.173	32.894	1301.707	1109.650
-49.159	54.660	1347.917	1279.598
-48.144	57.194	1364.546	1310.460
-47.130	36.234	1323.730	1148.213
-46.115	32.746	1307.104	1113.202
-45.100	32.492	1302.016	1107.331
-44.086	32.407	1299.349	1104.515
-43.071	32.416	1296.993	1102.526
-42.057	32.405	1295.148	1100.845
-41.042	32.391	1293.435	1099.268
-40.027	32.358	1291.970	1097.782
-39.013	32.473	1290.152	1096.865
-37.998	32.501	1287.634	1094.843
-36.984	32.473	1286.437	1093.622
-35.969	32.508	1284.927	1092.495
-34.954	32.510	1282.755	1090.616
-33.940	32.584	1281.965	1090.334
-32.925	32.634	1279.879	1088.802
-31.911	32.681	1278.874	1088.180
-30.896	32.637	1277.255	1086.499
-29.881	32.729	1275.282	1085.311
-28.867	32.617	1274.504	1083.958
-27.852	32.733	1272.713	1083.062
-26.838	32.660	1271.659	1081.704
-25.823	32.637	1270.561	1080.593
-24.809	32.721	1268.721	1079.468
-23.794	32.571	1267.433	1077.469
-22.779	32.584	1266.809	1076.969
-21.765	32.686	1264.784	1075.790
-20.750	32.625	1263.767	1074.536
-19.736	32.599	1262.375	1073.157
-18.721	32.568	1261.243	1071.978
-17.706	32.514	1260.352	1070.870
-16.692	32.596	1258.632	1069.834
-15.677	32.491	1257.812	1068.497
-14.663	32.585	1256.609	1067.968
-13.648	32.442	1256.150	1066.721
-12.633	32.486	1254.711	1065.705
-11.619	32.337	1254.459	1064.610
-10.604	32.322	1253.510	1063.674
-9.590	32.428	1251.797	1062.781
-8.575	32.493	1251.332	1062.710
-7.560	32.456	1250.516	1061.764
-6.546	32.457	1249.493	1060.857
-5.531	32.483	1248.513	1060.133
-4.517	32.468	1247.771	1059.376
-3.502	32.531	1247.322	1059.306
-2.487	32.446	1246.086	1057.737
-1.473	32.459	1241.866	1054.187
-0.458	31.020	1227.277	1033.787
0.556	26.751	1208.968	995.986
1.571	23.055	1213.858	979.496
2.586	21.957	1228.642	985.176
3.600	21.518	1217.028	973.336
4.615	16.371	1145.787	889.256
5.629	8.356	1072.136	792.391
6.644	4.830	1052.774	760.811
7.659	4.668	1050.190	758.089
8.673	4.658	1049.139	757.213
9.688	4.554	1048.031	755.839
10.702	4.715	1046.112	755.169
11.717	9.172	1052.289	781.281
12.731	16.382	1062.863	824.365
13.746	19.151	1064.793	839.306
14.761	18.254	1063.672	833.980
15.775	17.405	1061.281	827.901
16.790	16.323	1059.273	821.003
17.804	15.652	1057.607	816.380
18.819	15.210	1056.654	813.428
19.834	15.031	1055.625	811.698
20.848	14.756	1054.921	809.750
21.863	14.532	1054.007	807.893
22.877	14.469	1053.286	806.965
23.892	14.367	1052.541	805.827
24.907	14.400	1052.119	805.593
25.921	14.479	1050.326	804.531
26.936	14.333	1049.848	803.388
27.950	14.552	1048.022	802.975
28.965	14.565	1046.430	801.747
29.980	14.571	1045.252	800.800
30.994	14.608	1044.475	800.312
32.009	14.712	1043.162	799.733
33.023	14.811	1041.957	799.212
34.038	14.603	1041.254	797.609
35.053	14.568	1040.466	796.766
36.067	14.518	1039.538	795.748
37.082	14.611	1038.486	795.317
38.096	14.710	1037.446	794.920
39.111	14.647	1037.234	794.385
40.126	14.622	1035.928	793.197
41.140	14.389	1034.398	790.853
42.155	14.280	1033.338	789.452
43.169	14.386	1031.913	788.797
44.184	14.219	1031.310	787.476
45.199	14.225	1030.270	786.641
46.213	14.355	1029.473	786.578
47.228	14.604	1028.045	786.590
48.242	14.506	1027.002	785.260
49.257	14.482	1026.285	784.531
50.271	14.598	1025.494	784.399
51.286	14.591	1024.441	783.492
52.301	14.501	1023.467	782.257
53.315	14.506	1022.334	781.347
54.330	14.476	1021.259	780.314
55.344	14.476	1020.388	779.578
56.359	14.397	1019.925	778.787
57.374	14.293	1018.875	777.430
58.388	14.386	1017.771	776.954
59.403	14.374	1016.503	775.860
60.417	14.222	1016.155	774.820
61.432	14.184	1015.824	774.322
62.447	14.240	1014.469	773.480
63.461	14.162	1013.536	772.338
64.476	14.091	1013.299	771.762
65.490	14.186	1012.036	771.172
66.505	14.294	1011.568	771.244
67.520	14.253	1010.977	770.538
68.534	14.250	1010.241	769.895
69.549	14.279	1009.349	769.281
70.563	14.254	1008.398	768.372
71.578	14.105	1007.662	767.055
72.593	14.085	1007.043	766.424
73.607	14.062	1006.559	765.883
74.622	14.012	1006.008	765.168
75.636	14.217	1004.804	765.125
76.651	14.174	1004.474	764.609
77.666	14.206	1003.633	764.046
78.680	14.199	1002.940	763.419
79.695	14.242	1002.757	763.410
80.709	14.233	1002.187	762.869
81.724	14.288	1001.196	762.297
82.739	14.380	1000.442	762.076
83.753	14.451	999.663	761.741
84.768	14.629	998.864	761.876
85.782	14.637	998.276	761.399
86.797	14.591	997.188	760.290
87.812	14.598	995.737	759.149
88.826	14.484	995.195	758.152
89.841	14.611	994.438	758.081
90.855	14.583	993.782	757.391
91.870	14.656	993.110	757.142
92.884	14.652	991.998	756.207
93.899	14.782	990.824	755.835
94.914	14.766	990.164	755.194
95.928	14.768	989.158	754.368
96.943	14.579	989.105	753.406
97.957	14.650	987.849	752.703
98.972	14.758	986.974	752.456
99.987	14.782	986.341	752.015
101.001	14.636	985.172	750.401
102.016	14.721	984.208	749.983
103.030	14.674	983.730	749.340
104.045	14.666	982.631	748.401
105.060	14.539	982.065	747.335
106.074	14.536	980.846	746.328
107.089	14.441	979.496	744.810
108.103	14.329	978.907	743.798
109.118	14.289	978.466	743.217
110.133	14.277	977.287	742.201
111.147	14.344	976.273	741.662
112.162	14.363	975.576	741.152
113.176	14.408	975.226	741.022
114.191	14.466	974.540	740.692
115.206	14.378	973.802	739.675
116.220	14.341	972.737	738.638
117.235	14.376	971.781	738.004
118.249	14.458	970.446	737.287
119.264	14.281	970.053	736.140
120.279	14.458	969.389	736.351
121.293	14.280	968.928	735.150
122.308	14.177	967.876	733.832
123.322	14.386	966.463	733.619
124.337	14.263	965.589	732.349
125.352	14.366	964.650	732.025
126.366	14.266	963.606	730.726
127.381	14.265	962.923	730.141
128.395	14.244	962.165	729.409
129.410	14.373	960.979	729.009
130.424	14.337	960.503	728.426
131.439	14.498	959.520	728.320
132.454	14.477	958.950	727.732
133.468	14.436	958.262	726.967
134.483	14.467	957.151	726.193
135.497	14.570	956.197	725.853
136.512	14.525	955.435	725.018
137.527	14.481	954.813	724.290
138.541	14.625	953.853	724.123
139.556	14.540	953.289	723.262
140.570	14.526	952.990	722.907
141.585	14.717	952.004	722.924
142.600	14.844	950.705	722.423
143.614	14.680	950.640	721.600
144.629	14.708	949.856	721.061
145.643	14.733	948.739	720.259
146.658	14.647	947.906	719.191
147.673	14.604	946.821	718.121
148.687	14.496	946.113	717.056
149.702	14.643	944.777	716.610
150.716	14.511	944.336	715.646
151.731	14.483	943.776	715.039
152.746	14.575	942.680	714.540
153.760	14.784	941.753	714.665
154.775	14.755	941.695	714.438
155.789	14.788	941.199	714.135
156.804	14.736	940.098	713.016
157.819	14.719	939.689	712.569
158.833	14.738	938.906	711.995
159.848	14.818	938.443	711.921
160.862	14.833	937.277	711.040
161.877	14.833	935.884	709.917
162.892	14.581	935.234	708.291
163.906	14.636	934.324	707.774
164.921	14.583	933.308	706.718
165.935	14.700	932.543	706.571
166.950	14.682	931.950	705.984
167.964	14.711	931.042	705.355
168.979	14.715	930.006	704.523
169.994	14.661	929.301	703.701
171.008	14.717	928.868	703.545
172.023	14.807	928.474	703.564
173.037	15.048	927.412	703.710
174.052	14.922	926.478	702.412
175.067	14.733	925.927	701.137
176.081	14.702	925.265	700.446
177.096	14.727	924.633	700.009
178.110	14.782	924.076	699.754
179.125	14.766	923.670	699.319
180.140	14.739	923.545	699.048
181.154	14.804	922.965	698.822
182.169	14.979	922.362	699.032
183.183	14.826	921.893	697.977
184.198	15.057	920.417	697.763
185.213	15.003	919.817	697.021
186.227	15.217	918.881	697.138
187.242	15.146	918.726	696.663
188.256	15.114	918.416	696.237
189.271	15.053	917.953	695.568
190.286	14.898	916.569	693.817
191.300	14.740	915.869	692.570
192.315	14.708	915.084	691.780
193.329	14.776	914.773	691.766
194.344	14.788	914.488	691.541
195.359	14.799	913.947	691.116
196.373	15.086	912.863	691.418
197.388	15.165	912.522	691.426
198.402	15.247	911.782	691.140
199.417	15.216	911.714	690.903
200.432	15.356	911.047	690.912
201.446	15.412	910.684	690.807
202.461	15.298	910.159	689.878
203.475	15.266	909.415	689.121
204.490	15.219	908.044	687.827
205.504	15.323	907.200	687.555
206.519	15.120	907.290	686.727
207.534	15.169	906.389	686.189
208.548	15.158	905.843	685.668
209.563	15.331	905.222	685.845
210.577	15.163	904.676	684.683
211.592	15.378	903.713	684.772
212.607	15.553	902.790	684.724
213.621	15.332	902.852	683.811
214.636	15.391	902.164	683.471
215.650	15.347	901.289	682.569
216.665	15.446	900.380	682.221
217.680	15.481	899.520	681.653
218.694	15.561	899.310	681.755
219.709	15.550	898.616	681.125
220.723	15.560	897.708	680.420
221.738	15.549	897.015	679.786
222.753	15.510	896.499	679.177
223.767	15.650	896.050	679.346
224.782	15.601	895.445	678.628
225.796	15.586	894.971	678.148
226.811	15.556	894.383	677.522
227.826	15.527	893.403	676.601
228.840	15.639	892.739	676.490
229.855	15.454	892.347	675.390
230.869	15.477	891.299	674.629
231.884	15.533	890.619	674.279
232.899	15.432	889.989	673.338
233.913	15.401	889.318	672.646
234.928	15.433	888.743	672.279
235.942	15.362	888.275	671.581
236.957	15.516	887.327	671.421
237.972	15.453	887.098	670.939
238.986	15.553	886.324	670.692
240.001	15.517	885.736	670.042
241.015	15.499	885.150	669.467
242.030	15.666	884.285	669.419
243.045	15.539	884.349	668.905
244.059	15.601	883.672	668.579
245.074	15.687	882.768	668.180
246.088	15.715	882.142	667.755
247.103	15.765	881.718	667.576
248.117	15.866	881.167	667.499
249.132	15.854	881.031	667.289
250.147	16.139	879.741	667.381
251.161	16.097	879.195	666.741
252.176	16.082	878.784	666.311
253.190	16.046	878.180	665.654
254.205	16.073	877.642	665.294
255.220	16.159	876.767	664.908
256.234	16.231	876.073	664.607
257.249	16.322	875.064	664.140
258.263	16.092	874.906	663.058
259.278	16.245	873.802	662.766
260.293	16.390	873.536	663.074
261.307	16.413	872.873	662.603
262.322	16.232	872.691	661.693
263.336	16.391	871.659	661.475
264.351	16.386	871.007	660.902
265.366	16.362	870.695	660.514
266.380	16.371	869.875	659.868
267.395	16.203	869.431	658.817
268.409	16.267	868.199	658.075
269.424	16.339	867.396	657.691
270.439	16.343	866.945	657.305
271.453	16.234	866.456	656.450
272.468	16.333	865.853	656.324
273.482	16.394	865.242	656.038
274.497	16.231	864.779	654.997
275.512	16.387	863.919	654.892
276.526	16.321	863.722	654.427
277.541	16.433	863.132	654.355
278.555	16.510	862.618	654.207
279.570	16.537	862.157	653.902
280.585	16.568	861.160	653.209
281.599	16.561	860.021	652.259
282.614	16.526	859.410	651.604
283.628	16.518	859.103	651.283
284.643	16.475	858.500	650.603
285.657	16.521	858.216	650.506
286.672	16.454	857.327	649.519
287.687	16.545	856.539	649.214
288.701	16.529	856.212	648.848
289.716	16.440	856.043	648.321
290.730	16.584	855.422	648.344
291.745	16.627	854.655	647.872
292.760	16.606	853.977	647.219
293.774	16.671	853.586	647.112
294.789	16.775	852.546	646.665
295.803	16.626	851.940	645.579
296.818	16.513	851.842	645.019
297.833	16.594	850.766	644.452
298.847	16.586	850.388	644.080
299.862	16.661	849.854	643.905
300.876	16.819	849.122	643.895
301.891	16.912	848.586	643.784
302.906	16.743	848.227	642.811
303.920	16.891	847.535	642.791
304.935	17.020	846.874	642.724
305.949	16.925	846.212	641.804
306.964	16.868	845.455	640.958
307.979	16.834	845.447	640.765
308.993	16.956	844.770	640.656
310.008	17.104	843.951	640.539
311.022	16.993	843.377	639.627
312.037	16.814	842.466	638.206
313.052	16.984	841.662	638.179
314.066	16.836	841.442	637.398
315.081	16.815	841.202	637.084
316.095	16.827	840.235	636.340
317.110	16.774	840.110	635.988
318.125	16.826	839.362	635.563
319.139	16.863	839.100	635.445
320.154	16.913	838.615	635.208
321.168	16.980	837.860	634.833
322.183	16.951	837.484	634.380
323.197	17.010	836.714	633.962
324.212	17.050	836.268	633.717
325.227	16.870	836.249	632.976
326.241	16.871	835.458	632.326
327.256	17.096	834.432	632.333
328.270	16.877	834.190	631.274
329.285	16.836	833.546	630.579
330.300	16.998	832.864	630.611
331.314	16.786	832.791	629.710
332.329	17.023	832.153	630.053
333.343	17.011	831.662	629.581
334.358	17.072	831.096	629.322
335.373	17.044	830.799	628.939
336.387	17.057	830.442	628.660
337.402	17.156	830.351	628.902
338.416	17.175	830.039	628.683
339.431	17.457	829.541	629.292
340.446	17.486	828.916	628.870
341.460	17.384	828.616	628.211
342.475	17.393	828.491	628.092
343.489	17.445	827.726	627.646
344.504	17.494	827.138	627.328
345.519	17.557	826.738	627.200
346.533	17.424	826.302	626.323
347.548	17.607	825.626	626.428
348.562	17.397	825.358	625.400
349.577	17.269	824.915	624.537
350.592	17.265	824.304	624.004
351.606	17.341	823.536	623.647
352.621	17.263	823.013	622.909
353.635	17.250	822.292	622.263
354.650	17.305	821.869	622.089
355.665	17.466	821.293	622.187
356.679	17.479	820.505	621.581
357.694	17.475	819.823	620.996
358.708	17.455	819.158	620.362
359.723	17.616	818.374	620.301
360.738	17.550	818.054	619.763
361.752	17.515	817.490	619.153
362.767	17.532	817.137	618.892
363.781	17.727	816.374	618.969
364.796	17.823	816.169	619.109
365.810	17.932	815.565	618.988
366.825	17.956	815.202	618.747
367.840	17.930	814.752	618.254
368.854	17.836	814.101	617.366
369.869	17.780	813.943	616.989
370.883	17.756	813.617	616.602
371.898	17.895	813.382	616.871
372.913	17.852	813.157	616.489
373.927	17.891	811.992	615.695
374.942	17.811	811.579	615.037
375.956	17.974	811.481	615.495
376.971	18.068	810.858	615.306
377.986	18.077	810.409	614.946
379.000	18.062	809.987	614.517
380.015	18.133	809.590	614.414
381.029	18.088	809.238	613.932
382.044	18.131	808.337	613.350
383.059	18.136	807.548	612.716
384.073	18.073	807.374	612.301
385.088	18.044	806.430	611.427
386.102	18.172	805.797	611.350
387.117	17.947	805.344	610.149
388.132	17.940	804.835	609.684
389.146	18.027	804.122	609.402
390.161	18.283	803.825	610.036
391.175	18.187	803.529	609.413
392.190	18.195	802.987	608.978
393.205	18.019	802.536	607.954
394.219	18.057	801.977	607.613
395.234	18.050	801.966	607.526
396.248	17.875	801.574	606.553
397.263	17.951	800.705	606.114
398.278	17.990	800.473	606.021
399.292	17.934	800.465	605.762
400.307	18.009	799.587	605.310
401.321	17.999	799.179	604.914
402.336	17.988	798.597	604.379
403.350	18.063	798.305	604.373
404.365	18.245	797.866	604.629
405.380	18.256	797.590	604.404
406.394	18.315	796.838	603.991
407.409	18.506	796.415	604.290
408.423	18.390	796.296	603.735
409.438	18.508	795.892	603.792
410.453	18.569	795.215	603.439
411.467	18.572	794.831	603.105
412.482	18.508	794.955	602.921
413.496	18.476	794.478	602.392
414.511	18.615	794.209	602.624
415.526	18.512	793.243	601.477
416.540	18.528	792.687	601.057
417.555	18.574	792.589	601.090
418.569	18.642	791.931	600.778
419.584	18.647	791.183	600.176
420.599	18.662	791.219	600.203
421.613	156.411	1371.062	1794.068
422.628	135.323	1455.544	1794.191
