DTS Sentinel unit serial number:	SN413079Multiplexer serial number:	ORYXHardware model number:	OX4-SRSoftware version number:	ORYX F/W v4.00 Oryx Data Collector v3.7.2.0data status	okinstallation	princeton_trtdifferential loss correction	single-endedforward channel	channel 1reverse channel	N/Adate	2019/09/18time	05:38:35forward acquisition time	60.00reverse acquisition time	0.00gamma	496.2192k internal	0.2340k external	0.2340temperature offset calibration	0.9983default loss term (dB/km)	0.3790temperature slope calibration	1.0000multiplexer offset coefficient	1.0000multiplexer slope coefficient	1.0000fibre end	0.00T internal ref (°C)	23.37T ext. ref 1 (°C)	0.19T ext. ref 2 (°C)	16.93length (m)	temperature (°C)	Stokes	anti-Stokes-747.200	11.190	-0.116	0.089
-746.185	-200.000	0.000	-0.003
-745.171	601.004	0.155	0.387
-744.156	50.611	-0.112	-0.106
-743.142	5.625	-0.119	0.088
-742.127	99.918	-0.226	-0.263
-741.112	-35.198	0.287	-0.156
-740.098	-75.197	-0.225	0.080
-739.083	-35.277	-0.151	-0.083
-738.069	176.410	-0.132	0.193
-737.054	800.000	0.027	-0.120
-736.039	-200.000	-0.012	-0.143
-735.025	-77.873	0.083	-0.029
-734.010	644.831	-0.126	-0.322
-732.996	-120.986	-0.273	-0.046
-731.981	800.000	-0.090	-0.339
-730.966	800.000	0.040	0.172
-729.952	-200.000	0.014	-0.261
-728.937	800.000	-0.103	0.431
-727.923	10.172	-0.040	-0.031
-726.908	34.411	-0.216	-0.189
-725.894	-134.234	-0.128	0.016
-724.879	55.065	0.016	-0.016
-723.864	458.793	0.082	0.183
-722.850	86.465	-0.268	-0.296
-721.835	279.113	0.209	-0.373
-720.821	130.797	-0.233	0.299
-719.806	-11.558	-0.081	-0.053
-718.791	-140.752	-0.178	-0.018
-717.777	275.521	0.108	0.191
-716.762	188.519	0.267	-0.400
-715.748	-43.291	0.031	0.016
-714.733	-110.843	0.036	0.007
-713.718	242.222	-0.155	0.260
-712.704	20.571	0.262	0.212
-711.689	-4.596	0.131	-0.091
-710.675	644.428	-0.076	-0.195
-709.660	-200.000	0.029	-0.146
-708.645	800.000	-0.028	-0.114
-707.631	271.143	-0.062	0.110
-706.616	-23.217	-0.282	0.170
-705.602	-111.167	-0.075	0.015
-704.587	-200.000	-0.035	0.280
-703.572	-200.000	-0.008	-0.186
-702.558	20.139	0.249	0.201
-701.543	800.000	0.033	-0.108
-700.529	-48.179	0.257	0.124
-699.514	80.486	-0.178	0.192
-698.499	-100.242	0.263	-0.065
-697.485	-146.052	-0.181	-0.016
-696.470	-200.000	0.012	0.152
-695.456	-159.661	0.287	0.016
-694.441	135.305	-0.015	0.019
-693.426	691.408	-0.113	0.295
-692.412	65.519	0.161	0.163
-691.397	88.631	0.166	-0.185
-690.383	-15.520	-0.043	0.027
-689.368	23.314	-0.280	0.230
-688.354	293.130	0.114	-0.208
-687.339	-19.740	0.204	-0.126
-686.324	-200.000	-0.002	0.130
-685.310	-200.000	0.013	-0.093
-684.295	-29.148	-0.055	0.031
-683.281	-157.969	0.128	-0.008
-682.266	-200.000	0.003	0.230
-681.251	-186.968	-0.193	-0.003
-680.237	800.000	-0.094	0.399
-679.222	-200.000	-0.058	-0.451
-678.208	-96.298	0.149	0.040
-677.193	-5.079	-0.308	-0.212
-676.178	-184.062	0.104	0.002
-675.164	298.053	-0.065	0.120
-674.149	-118.871	-0.324	-0.057
-673.135	322.559	0.120	-0.229
-672.120	-43.328	0.210	-0.106
-671.105	-200.000	-0.087	0.431
-670.091	-128.162	0.127	-0.018
-669.076	18.909	-0.138	-0.111
-668.062	-65.118	-0.216	0.087
-667.047	-63.952	0.320	-0.131
-666.032	-56.373	0.294	0.131
-665.018	-200.000	-0.024	-0.160
-664.003	156.494	0.097	-0.133
-662.989	800.000	-0.015	-0.045
-661.974	-46.147	-0.295	0.145
-660.959	-200.000	-0.004	0.100
-659.945	-170.923	-0.058	-0.002
-658.930	-52.241	-0.094	-0.044
-657.916	313.754	0.072	-0.135
-656.901	484.924	-0.086	0.196
-655.886	276.401	-0.056	0.099
-654.872	-52.160	-0.245	-0.114
-653.857	-121.678	-0.229	0.038
-652.843	-200.000	0.018	0.288
-651.828	82.525	-0.117	0.127
-650.814	11.077	-0.032	-0.024
-649.799	186.443	0.072	-0.107
-648.784	314.959	-0.101	-0.191
-647.770	-41.160	0.018	-0.009
-646.755	-153.347	-0.141	-0.010
-645.741	-200.000	-0.016	0.083
-644.726	-200.000	-0.019	0.388
-643.711	544.447	-0.132	0.315
-642.697	800.000	-0.162	-0.518
-641.682	182.485	0.067	-0.098
-640.668	-143.671	-0.055	0.005
-639.653	84.077	-0.011	0.012
-638.638	7.239	0.203	0.151
-637.624	26.924	0.180	0.151
-636.609	-135.852	-0.379	0.045
-635.595	7.648	-0.248	-0.185
-634.580	338.677	-0.067	0.130
-633.565	4.559	-0.109	-0.080
-632.551	-123.821	-0.263	-0.041
-631.536	-200.000	0.006	0.237
-630.522	800.000	-0.073	0.284
-629.507	86.837	0.039	-0.042
-628.492	-122.515	-0.125	0.020
-627.478	14.564	0.056	0.044
-626.463	58.034	-0.200	-0.196
-625.449	11.811	0.312	-0.239
-624.434	39.030	0.298	0.266
-623.419	-150.862	-0.070	0.005
-622.405	134.547	-0.142	0.184
-621.390	-57.638	-0.235	0.103
-620.376	-11.492	-0.078	-0.051
-619.361	185.499	0.194	0.288
-618.346	-110.420	-0.292	-0.060
-617.332	-163.107	0.240	0.012
-616.317	196.068	0.207	-0.314
-615.303	-200.000	0.015	-0.213
-614.288	-69.419	-0.273	-0.105
-613.273	-121.200	0.347	-0.058
-612.259	-79.188	-0.041	-0.014
-611.244	-200.000	-0.014	-0.159
-610.230	53.745	-0.254	0.244
-609.215	800.000	-0.131	0.368
-608.201	338.825	0.122	0.236
-607.186	-98.851	0.084	0.021
-606.171	-5.584	0.163	0.111
-605.157	-138.086	0.178	0.020
-604.142	-120.610	0.096	-0.016
-603.128	-150.539	-0.312	0.024
-602.113	-142.163	0.270	-0.027
-601.098	-50.551	-0.259	-0.122
-600.084	16.513	-0.172	-0.135
-599.069	-33.841	0.237	-0.130
-598.055	69.866	-0.124	-0.127
-597.040	-26.901	-0.203	0.118
-596.025	91.852	-0.032	0.036
-595.011	373.195	0.151	0.306
-593.996	800.000	0.049	0.195
-592.982	-135.120	-0.228	-0.027
-591.967	65.868	-0.191	-0.193
-590.952	3.312	0.179	-0.130
-589.938	210.306	0.117	0.183
-588.923	-200.000	0.035	-0.231
-587.909	-200.000	0.056	-0.294
-586.894	-9.505	-0.082	0.055
-585.879	-24.161	0.028	0.017
-584.865	24.187	-0.148	-0.122
-583.850	227.575	0.020	-0.032
-582.836	-80.245	-0.207	-0.069
-581.821	-56.819	0.340	0.150
-580.806	82.682	-0.158	0.171
-579.792	800.000	-0.119	-0.372
-578.777	154.726	0.096	-0.132
-577.763	-200.000	-0.001	-0.222
-576.748	-37.500	0.108	-0.058
-575.733	800.000	0.024	0.089
-574.719	-6.838	-0.141	-0.096
-573.704	476.996	-0.214	-0.482
-572.690	-156.820	-0.197	-0.012
-571.675	800.000	-0.040	-0.126
-570.661	193.872	0.065	0.099
-569.646	-187.671	-0.203	-0.003
-568.631	-200.000	0.016	-0.200
-567.617	-96.364	-0.105	-0.028
-566.602	151.623	-0.104	-0.141
-565.588	96.886	0.121	-0.138
-564.573	800.000	-0.011	-0.048
-563.558	-200.000	0.031	-0.144
-562.544	-36.524	-0.309	-0.166
-561.529	694.181	-0.044	-0.116
-560.515	-112.685	-0.154	-0.030
-559.500	-135.177	-0.318	-0.038
-558.485	-127.572	0.192	0.028
-557.471	-200.000	0.000	-0.288
-556.456	71.673	-0.275	-0.285
-555.442	-32.628	-0.131	0.073
-554.427	82.460	0.096	0.104
-553.412	-106.211	0.350	-0.078
-552.398	800.000	0.057	0.188
-551.383	-200.000	0.001	-0.269
-550.369	21.134	0.100	0.080
-549.354	156.501	-0.049	-0.068
-548.339	60.538	-0.257	0.253
-547.325	315.186	-0.066	-0.124
-546.310	-3.461	0.116	-0.081
-545.296	-200.000	-0.013	0.155
-544.281	230.952	0.229	-0.373
-543.266	-74.206	0.375	0.135
-542.252	4.401	0.388	0.283
-541.237	-84.377	-0.252	-0.079
-540.223	63.540	-0.272	0.271
-539.208	-61.488	-0.221	-0.092
-538.193	-200.000	0.009	-0.115
-537.179	-15.950	0.024	-0.015
-536.164	-167.162	0.172	0.007
-535.150	88.179	0.150	-0.166
-534.135	-19.975	-0.100	-0.061
-533.121	-82.130	-0.399	-0.129
-532.106	131.991	-0.200	0.255
-531.091	-200.000	-0.018	0.137
-530.077	-106.572	0.171	0.038
-529.062	-200.000	-0.019	-0.349
-528.048	71.696	0.141	-0.146
-527.033	-200.000	0.072	-0.382
-526.018	760.209	-0.171	-0.461
-525.004	202.648	0.060	-0.092
-523.989	302.660	-0.189	-0.347
-522.975	36.897	0.254	-0.223
-521.960	-33.178	-0.074	-0.041
-520.945	370.028	0.027	-0.055
-519.931	42.312	-0.125	0.113
-518.916	516.660	0.190	-0.441
-517.902	-158.394	0.117	-0.007
-516.887	495.764	-0.087	-0.199
-515.872	185.102	0.092	-0.135
-514.858	-64.159	0.323	-0.131
-513.843	-200.000	0.033	0.227
-512.829	118.441	0.250	-0.307
-511.814	12.981	-0.131	-0.100
-510.799	85.563	-0.091	-0.100
-509.785	96.195	-0.298	-0.338
-508.770	800.000	-0.058	0.250
-507.756	-200.000	-0.005	-0.048
-506.741	36.814	0.083	-0.073
-505.726	-77.155	-0.304	0.105
-504.712	-200.000	0.044	0.306
-503.697	-200.000	0.039	0.342
-502.683	-31.433	-0.189	-0.106
-501.668	87.960	-0.093	-0.102
-500.653	-40.837	-0.278	-0.143
-499.639	6.890	-0.236	-0.175
-498.624	-136.205	0.046	0.005
-497.610	-40.212	0.104	0.054
-496.595	-60.704	-0.113	-0.048
-495.581	87.920	-0.268	0.295
-494.566	267.615	-0.122	0.213
-493.551	-85.945	-0.226	0.070
-492.537	-38.610	-0.260	0.137
-491.522	-80.992	-0.057	-0.019
-490.508	-167.109	-0.198	-0.008
-489.493	-51.847	-0.291	-0.135
-488.478	-87.018	0.083	0.025
-487.464	267.514	0.136	0.236
-486.449	27.099	0.086	-0.072
-485.435	68.275	-0.247	0.251
-484.420	-129.828	0.243	-0.033
-483.405	-159.593	0.079	-0.004
-482.391	-100.884	-0.144	0.035
-481.376	306.141	0.046	0.085
-480.362	800.000	0.086	0.303
-479.347	-18.070	0.107	0.066
-478.332	-67.005	-0.392	-0.153
-477.318	-200.000	-0.005	-0.264
-476.303	-200.000	0.003	0.253
-475.289	-200.000	0.029	-0.237
-474.274	242.469	0.234	0.388
-473.259	-200.000	0.003	-0.228
-472.245	454.374	-0.093	0.204
-471.230	80.842	0.129	0.138
-470.216	-200.000	-0.005	0.351
-469.201	800.000	-0.095	-0.366
-468.186	-142.017	-0.499	0.049
-467.172	-103.346	-0.264	0.062
-466.157	-88.260	0.351	0.104
-465.143	-200.000	-0.056	0.256
-464.128	0.727	-0.055	-0.039
-463.113	10.442	0.261	0.197
-462.099	-200.000	-0.023	-0.315
-461.084	-71.191	-0.188	-0.070
-460.070	774.722	-0.054	-0.146
-459.055	-113.815	0.239	-0.046
-458.040	-73.196	-0.097	0.035
-457.026	30.901	-0.165	0.140
-456.011	-114.901	0.083	0.016
-454.997	800.000	0.101	-0.430
-453.982	-31.718	-0.064	-0.035
-452.968	79.579	-0.092	0.098
-451.953	400.650	-0.104	-0.216
-450.938	-12.425	-0.124	-0.080
-449.924	348.929	-0.125	0.245
-448.909	-158.991	0.035	-0.002
-447.895	800.000	0.035	-0.102
-446.880	261.532	0.071	-0.122
-445.865	62.827	0.175	0.174
-444.851	800.000	-0.020	0.067
-443.836	-107.202	0.362	-0.079
-442.822	-98.502	0.296	-0.075
-441.807	743.848	0.115	0.305
-440.792	-200.000	0.016	0.221
-439.778	800.000	0.044	0.160
-438.763	71.132	-0.325	-0.334
-437.749	77.731	0.085	-0.090
-436.734	-200.000	0.001	-0.141
-435.719	-28.026	0.308	-0.176
-434.705	343.905	-0.173	-0.337
-433.690	800.000	-0.051	0.195
-432.676	-141.748	-0.344	-0.034
-431.661	309.905	0.158	0.292
-430.646	-54.621	0.167	-0.075
-429.632	-100.937	-0.278	-0.068
-428.617	800.000	0.022	-0.079
-427.603	800.000	-0.040	-0.161
-426.588	62.918	-0.090	0.089
-425.573	800.000	0.021	-0.082
-424.559	5.584	-0.176	0.129
-423.544	308.384	-0.028	0.051
-422.530	800.000	-0.068	-0.200
-421.515	-124.791	0.306	0.047
-420.500	800.000	0.089	-0.279
-419.486	-200.000	-0.086	0.528
-418.471	639.243	0.055	0.139
-417.457	-151.299	-0.137	0.010
-416.442	44.727	0.287	0.261
-415.428	-200.000	0.033	0.301
-414.413	24.540	0.295	0.242
-413.398	318.264	-0.042	-0.078
-412.384	80.724	-0.100	-0.107
-411.369	-120.386	0.107	-0.018
-410.355	-200.000	-0.085	0.451
-409.340	596.778	-0.016	-0.039
-408.325	31.435	-0.091	0.077
-407.311	-74.239	-0.179	-0.064
-406.296	-67.966	-0.144	-0.056
-405.282	524.923	0.166	0.385
-404.267	-200.000	0.012	0.057
-403.252	800.000	0.125	-0.398
-402.238	-55.546	-0.136	-0.060
-401.223	-49.569	0.093	-0.044
-400.209	-46.354	-0.050	-0.025
-399.194	222.002	-0.163	0.260
-398.179	800.000	0.042	-0.176
-397.165	-160.582	-0.279	0.015
-396.150	-28.435	-0.269	-0.154
-395.136	800.000	-0.050	-0.147
-394.121	800.000	-0.016	-0.052
-393.106	-200.000	0.000	0.039
-392.092	-96.777	0.332	0.086
-391.077	-37.422	0.301	0.159
-390.063	-200.000	0.000	-0.075
-389.048	-200.000	0.005	-0.090
-388.033	121.411	0.126	0.155
-387.019	-194.836	0.291	0.002
-386.004	70.565	0.052	0.053
-384.990	270.752	-0.112	-0.195
-383.975	-131.779	0.147	0.019
-382.960	-81.651	-0.104	0.034
-381.946	10.951	-0.166	-0.125
-380.931	-102.335	0.084	-0.020
-379.917	-84.939	0.240	-0.075
-378.902	-103.899	-0.136	0.031
-377.888	-57.020	0.126	-0.055
-376.873	-39.315	0.182	0.095
-375.858	126.375	0.092	-0.114
-374.844	-183.057	-0.160	-0.003
-373.829	-126.061	-0.377	0.056
-372.815	356.391	0.021	0.042
-371.800	-128.509	0.062	0.009
-370.785	800.000	0.103	0.418
-369.771	148.755	-0.087	-0.117
-368.756	-98.203	-0.206	-0.052
-367.742	800.000	-0.105	0.308
-366.727	21.415	0.140	0.113
-365.712	73.811	-0.086	0.089
-364.698	-69.723	0.370	0.140
-363.683	-69.404	0.033	0.012
-362.669	147.328	-0.075	0.100
-361.654	25.327	-0.139	-0.114
-360.639	405.078	0.104	-0.217
-359.625	-200.000	0.020	-0.226
-358.610	-138.702	0.060	-0.007
-357.596	-200.000	-0.031	0.301
-356.581	109.712	0.125	0.148
-355.566	-200.000	0.007	0.070
-354.552	-8.298	-0.136	0.091
-353.537	-200.000	0.026	-0.198
-352.523	-43.079	0.106	-0.053
-351.508	-200.000	0.087	-0.383
-350.493	167.288	-0.234	0.328
-349.479	-88.377	-0.243	0.072
-348.464	-2.738	0.210	-0.145
-347.450	473.677	0.130	0.289
-346.435	-200.000	0.016	0.114
-345.420	730.600	-0.012	0.032
-344.406	800.000	-0.068	-0.226
-343.391	182.157	0.144	0.209
-342.377	-55.466	0.360	0.159
-341.362	-200.000	-0.038	0.287
-340.348	-200.000	-0.030	-0.227
-339.333	434.062	0.149	0.319
-338.318	-200.000	-0.009	-0.198
-337.304	14.774	0.196	0.151
-336.289	-125.767	0.233	0.035
-335.275	278.480	0.135	-0.238
-334.260	271.374	0.142	-0.247
-333.245	-84.204	0.197	-0.061
-332.231	194.623	-0.061	0.091
-331.216	670.627	0.163	-0.417
-330.202	113.406	0.071	0.084
-329.187	94.992	-0.178	0.200
-328.172	-14.992	0.271	-0.171
-327.158	594.710	0.054	-0.131
-326.143	-200.000	0.009	0.192
-325.129	-68.784	0.169	0.064
-324.114	23.818	-0.174	-0.141
-323.099	-173.532	0.179	0.005
-322.085	-200.000	-0.039	0.322
-321.070	23.225	-0.069	0.056
-320.056	102.255	-0.203	0.234
-319.041	-114.568	0.147	0.028
-318.026	-104.784	0.266	0.060
-317.012	226.488	-0.179	0.287
-315.997	229.918	-0.097	0.156
-314.983	229.946	0.154	0.249
-313.968	800.000	-0.020	0.064
-312.953	31.519	-0.052	0.044
-311.939	-200.000	-0.028	0.308
-310.924	68.722	-0.144	-0.145
-309.910	800.000	0.058	0.230
-308.895	83.276	-0.126	-0.135
-307.880	-200.000	0.048	0.327
-306.866	318.518	-0.103	0.192
-305.851	-147.141	0.108	0.009
-304.837	72.378	0.239	-0.246
-303.822	164.364	-0.139	-0.193
-302.807	-88.027	0.132	0.039
-301.793	100.006	-0.114	0.130
-300.778	-77.233	0.253	-0.087
-299.764	800.000	0.026	0.105
-298.749	-63.390	-0.047	-0.019
-297.735	800.000	-0.023	0.081
-296.720	477.753	-0.073	-0.162
-295.705	-161.652	-0.188	-0.009
-294.691	656.162	-0.049	-0.123
-293.676	-135.709	-0.174	-0.020
-292.662	-94.455	0.130	0.035
-291.647	331.065	-0.015	-0.029
-290.632	-14.786	-0.107	0.067
-289.618	-200.000	0.015	-0.075
-288.603	436.836	-0.078	-0.167
-287.589	107.380	0.048	-0.057
-286.574	604.789	-0.135	-0.332
-285.559	-32.487	0.095	-0.052
-284.545	-200.000	-0.001	-0.297
-283.530	306.791	0.218	-0.400
-282.516	212.942	-0.092	-0.143
-281.501	189.117	-0.196	-0.289
-280.486	-179.994	0.080	-0.002
-279.472	-89.848	0.117	0.034
-278.457	-200.000	0.243	-0.000
-277.443	47.343	-0.175	0.160
-276.428	800.000	0.073	-0.308
-275.413	800.000	-0.160	-0.584
-274.399	-191.207	-0.230	0.002
-273.384	217.041	0.117	-0.184
-272.370	-200.000	-0.015	-0.097
-271.355	37.155	0.203	-0.177
-270.340	-200.000	-0.034	-0.182
-269.326	-47.358	0.190	0.091
-268.311	-19.391	-0.204	-0.124
-267.297	-82.047	0.269	-0.086
-266.282	800.000	0.085	0.264
-265.267	800.000	-0.102	0.310
-264.253	-95.985	-0.111	0.029
-263.238	-200.000	-0.004	0.220
-262.224	-77.141	-0.062	-0.021
-261.209	-113.513	-0.282	-0.054
-260.195	-100.767	0.210	-0.051
-259.180	-41.728	-0.245	0.124
-258.165	-59.099	0.269	-0.114
-257.151	-43.246	0.245	0.122
-256.136	800.000	-0.034	-0.129
-255.122	214.106	0.153	-0.238
-254.107	92.395	0.185	0.205
-253.092	370.145	0.088	0.176
-252.078	-200.000	-0.006	0.069
-251.063	786.817	0.107	0.290
-250.049	196.759	0.122	0.183
-249.034	-134.887	0.190	0.023
-248.019	-200.000	0.032	-0.275
-247.005	800.000	0.037	0.110
-245.990	-200.000	-0.041	0.300
-244.976	-58.228	0.087	-0.037
-243.961	-200.000	0.026	0.244
-242.946	216.631	-0.032	0.051
-241.932	-34.452	-0.292	0.157
-240.917	430.563	-0.092	-0.197
-239.903	-109.720	0.397	0.082
-238.888	-58.110	-0.119	-0.051
-237.873	-60.621	0.266	-0.111
-236.859	52.200	-0.235	0.220
-235.844	-200.000	0.046	-0.361
-234.830	800.000	0.015	0.055
-233.815	64.792	0.056	0.056
-232.800	35.075	-0.096	0.082
-231.786	-200.000	-0.062	0.274
-230.771	800.000	-0.002	-0.007
-229.757	315.965	-0.203	0.377
-228.742	-57.492	-0.155	0.067
-227.727	125.259	-0.163	0.202
-226.713	-51.285	-0.079	0.036
-225.698	-124.893	0.410	-0.062
-224.684	-132.684	-0.129	0.016
-223.669	218.833	-0.201	0.315
-222.655	-87.806	0.094	-0.028
-221.640	-200.000	-0.002	0.167
-220.625	-200.000	-0.001	0.144
-219.611	-16.102	0.050	0.031
-218.596	-117.335	-0.124	0.022
-217.582	-68.389	-0.279	-0.106
-216.567	279.418	0.038	-0.066
-215.552	-15.034	-0.196	0.123
-214.538	266.395	0.086	-0.148
-213.523	20.774	-0.107	0.085
-212.509	-41.286	0.058	0.029
-211.494	-200.000	0.032	-0.357
-210.479	800.000	0.122	-0.358
-209.465	-200.000	-0.008	0.228
-208.450	-200.000	-0.007	0.055
-207.436	85.245	-0.235	-0.253
-206.421	-28.055	0.206	0.117
-205.406	-93.510	0.190	-0.052
-204.392	-155.851	-0.123	-0.008
-203.377	91.624	-0.084	0.093
-202.363	-32.343	0.177	-0.097
-201.348	344.006	0.134	0.257
-200.333	365.977	-0.078	-0.155
-199.319	-71.781	0.224	0.082
-198.304	236.547	0.185	0.301
-197.290	-34.214	0.138	0.075
-196.275	179.688	0.240	-0.344
-195.260	-200.000	0.015	0.200
-194.246	143.391	0.084	-0.110
-193.231	-200.000	-0.000	0.182
-192.217	73.498	0.075	-0.077
-191.202	-149.114	0.390	0.031
-190.187	12.227	0.223	-0.168
-189.173	87.671	-0.092	0.100
-188.158	403.744	0.122	-0.252
-187.144	-56.617	-0.041	0.018
-186.129	-200.000	-0.014	0.364
-185.114	223.019	0.286	0.453
-184.100	164.067	-0.157	0.217
-183.085	78.149	-0.144	-0.151
-182.071	55.471	-0.175	-0.166
-181.056	171.218	-0.021	-0.029
-180.042	414.257	0.060	0.126
-179.027	296.453	0.060	0.108
-178.012	-81.697	-0.280	-0.090
-176.998	-7.559	-0.018	0.012
-175.983	-200.000	0.018	-0.087
-174.969	-36.015	0.168	-0.089
-173.954	-83.953	-0.029	-0.009
-172.939	31.913	-0.345	-0.292
-171.925	15.038	0.168	0.129
-170.910	-200.000	0.050	0.264
-169.896	-200.000	0.410	0.001
-168.881	-200.000	-0.024	0.349
-167.866	-200.000	-0.008	0.058
-166.852	78.091	-0.245	-0.256
-165.837	-83.784	-0.341	-0.107
-164.823	-23.573	0.114	0.067
-163.808	-62.212	-0.135	0.055
-162.793	55.440	0.105	-0.100
-161.779	-122.634	0.141	-0.022
-160.764	-1.093	0.185	-0.128
-159.750	21.681	-0.112	0.089
-158.735	-70.213	0.290	-0.108
-157.720	75.132	0.080	0.083
-156.706	67.195	0.300	0.299
-155.691	52.415	-0.298	0.279
-154.677	-23.527	0.257	-0.151
-153.662	73.880	0.162	0.166
-152.647	416.864	-0.085	-0.178
-151.633	-200.000	-0.019	-0.204
-150.618	-108.077	0.323	-0.069
-149.604	-200.000	-0.026	0.230
-148.589	-200.000	-0.002	0.113
-147.574	31.602	0.066	0.056
-146.560	800.000	-0.117	0.342
-145.545	-15.376	0.056	0.035
-144.531	-47.605	0.511	0.243
-143.516	-26.866	0.239	-0.137
-142.502	-112.746	0.332	-0.065
-141.487	213.115	-0.037	0.057
-140.472	-62.800	0.222	-0.090
-139.458	-200.000	-0.052	-0.232
-138.443	800.000	-0.088	0.265
-137.429	-89.956	0.082	-0.023
-136.414	222.485	0.130	0.204
-135.399	-200.000	-0.026	-0.439
-134.385	-61.625	0.473	0.194
-133.370	-4.603	0.067	-0.045
-132.356	444.295	-0.130	0.280
-131.341	-69.122	0.201	-0.076
-130.326	-132.182	0.316	-0.040
-129.312	135.730	0.175	-0.223
-128.297	45.391	-0.263	-0.237
-127.283	-41.637	-0.197	0.099
-126.268	-88.713	-0.191	-0.056
-125.253	-200.000	0.004	-0.087
-124.239	63.685	0.138	0.136
-123.224	-63.323	-0.103	0.041
-122.210	-200.000	0.021	-0.176
-121.195	-10.638	0.056	-0.036
-120.180	-48.753	0.153	0.072
-119.166	184.498	-0.166	0.240
-118.151	-200.000	-0.054	0.347
-117.137	47.641	0.099	0.090
-116.122	102.292	0.075	-0.086
-115.107	221.114	-0.062	-0.097
-114.093	-31.003	-0.324	0.179
-113.078	-150.930	0.269	0.020
-112.064	-53.989	0.338	-0.151
-111.049	-48.426	0.415	-0.195
-110.034	326.765	0.092	-0.173
-109.020	87.803	0.117	0.126
-108.005	-172.090	-0.251	-0.008
-106.991	474.374	-0.065	-0.144
-105.976	-18.846	0.098	0.060
-104.962	125.756	-0.084	0.104
-103.947	79.905	-0.160	0.168
-102.932	-34.991	0.336	-0.179
-101.918	441.261	0.076	0.162
-100.903	26.725	-0.109	-0.090
-99.889	-12.490	-0.096	0.061
-98.874	26.602	0.132	-0.108
-97.859	126.275	0.209	-0.258
-96.845	97.793	0.147	0.165
-95.830	0.679	-0.221	-0.154
-94.816	-25.995	0.238	0.137
-93.801	-131.601	0.262	-0.034
-92.786	-133.034	0.372	0.046
-91.772	-110.018	0.157	0.032
-90.757	177.703	-0.077	-0.109
-89.743	143.619	0.124	-0.162
-88.728	-7.379	-0.035	-0.023
-87.713	-30.062	-0.224	-0.124
-86.699	-200.000	-0.023	-0.229
-85.684	-104.060	-0.223	-0.051
-84.670	26.690	0.114	0.093
-83.655	-139.443	0.249	0.026
-82.640	109.194	0.113	-0.132
-81.626	-179.834	0.243	-0.005
-80.611	61.995	-0.083	0.081
-79.597	-112.493	-0.146	-0.028
-78.582	-200.000	0.085	-0.478
-77.567	-25.865	-0.310	-0.178
-76.553	92.858	0.087	-0.096
-75.538	-45.644	-0.197	0.095
-74.524	-55.003	-0.293	-0.129
-73.509	-200.000	0.017	-0.330
-72.494	-94.161	-0.154	0.041
-71.480	-113.901	-0.445	0.084
-70.465	73.395	0.093	0.095
-69.451	225.695	0.132	0.208
-68.436	800.000	-0.084	0.234
-67.422	-147.963	0.083	-0.007
-66.407	-200.000	-0.012	-0.055
-65.392	105.244	0.094	0.109
-64.378	56.871	0.119	0.113
-63.363	-22.585	0.175	0.103
-62.349	-130.429	0.214	0.028
-61.334	49.015	-1.251	-1.146
-60.319	199.745	0.565	0.845
-59.305	-200.000	-0.106	-1.084
-58.290	274.473	0.772	1.333
-57.276	169.021	0.985	1.371
-56.261	-200.000	124.831	652.675
-55.246	410.369	1574.659	3257.632
-54.232	141.480	2735.470	3533.989
-53.217	95.922	2166.007	2413.891
-52.203	35.141	1596.517	1364.875
-51.188	26.620	1339.835	1094.166
-50.173	24.051	1303.134	1049.035
-49.159	52.416	1371.564	1276.958
-48.144	48.936	1383.253	1266.753
-47.130	26.835	1331.320	1088.334
-46.115	23.559	1312.407	1053.413
-45.100	23.198	1307.711	1047.465
-44.086	23.208	1304.499	1044.909
-43.071	23.221	1302.616	1043.436
-42.057	23.228	1300.274	1041.563
-41.042	23.281	1298.509	1040.414
-40.027	23.311	1296.937	1039.294
-39.013	23.297	1295.076	1037.678
-37.998	23.271	1293.642	1036.334
-36.984	23.328	1291.945	1035.268
-35.969	23.366	1290.168	1034.025
-34.954	23.378	1288.599	1032.795
-33.940	23.481	1287.248	1032.273
-32.925	23.293	1285.937	1030.086
-31.911	23.347	1284.836	1029.479
-30.896	23.471	1282.857	1028.571
-29.881	23.564	1281.798	1028.220
-28.867	23.579	1280.191	1026.976
-27.852	23.520	1278.972	1025.615
-26.838	23.507	1277.881	1024.624
-25.823	23.510	1276.358	1023.379
-24.809	23.508	1274.734	1022.027
-23.794	23.528	1273.332	1020.975
-22.779	23.520	1272.194	1019.978
-21.765	23.603	1270.524	1019.075
-20.750	23.447	1269.744	1017.516
-19.736	23.325	1269.139	1016.287
-18.721	23.328	1267.369	1014.851
-17.706	23.432	1266.082	1014.375
-16.692	23.328	1265.082	1012.939
-15.677	23.272	1264.261	1011.921
-14.663	23.261	1262.996	1010.805
-13.648	23.259	1261.530	1009.577
-12.633	23.248	1261.118	1009.148
-11.619	23.346	1260.199	1008.930
-10.604	23.337	1259.360	1008.167
-9.590	23.313	1258.207	1007.069
-8.575	23.232	1257.460	1005.971
-7.560	23.241	1256.630	1005.316
-6.546	23.283	1255.782	1004.838
-5.531	23.248	1254.907	1003.899
-4.517	23.400	1253.832	1003.856
-3.502	23.408	1253.236	1003.387
-2.487	23.321	1252.429	1002.207
-1.473	23.271	1247.985	998.331
-0.458	21.698	1232.724	977.316
0.556	16.611	1216.949	939.743
1.571	12.892	1224.905	924.976
2.586	12.218	1239.938	932.418
3.600	12.408	1228.106	924.507
4.615	9.211	1156.069	853.248
5.629	3.182	1085.651	771.062
6.644	0.363	1069.120	745.334
7.659	0.168	1067.272	743.014
8.673	0.141	1066.315	742.150
9.688	0.099	1065.074	741.015
10.702	0.325	1062.741	740.438
11.717	4.097	1066.406	761.496
12.731	10.934	1075.814	801.957
13.746	15.470	1082.000	828.939
14.761	16.785	1082.919	836.064
15.775	16.030	1081.324	831.039
16.790	15.018	1078.907	824.126
17.804	14.358	1077.585	819.796
18.819	14.092	1076.422	817.532
19.834	13.903	1075.509	815.840
20.848	13.690	1074.547	813.990
21.863	13.348	1074.152	811.942
22.877	13.194	1073.439	810.575
23.892	13.273	1072.479	810.165
24.907	13.249	1071.599	809.310
25.921	13.276	1070.951	808.882
26.936	13.342	1069.740	808.219
27.950	13.392	1069.020	807.848
28.965	13.385	1067.935	806.920
29.980	13.445	1066.719	806.225
30.994	13.429	1065.989	805.523
32.009	13.326	1064.785	804.040
33.023	13.326	1063.526	803.020
34.038	13.410	1062.627	802.676
35.053	13.319	1061.708	801.470
36.067	13.336	1060.876	800.854
37.082	13.287	1060.195	800.032
38.096	13.413	1059.164	799.794
39.111	13.334	1058.713	798.998
40.126	13.349	1057.199	797.857
41.140	13.288	1056.392	796.886
42.155	13.217	1054.913	795.354
43.169	13.186	1054.033	794.472
44.184	13.166	1052.938	793.481
45.199	13.165	1051.919	792.640
46.213	13.309	1050.576	792.246
47.228	13.317	1049.545	791.437
48.242	13.288	1048.732	790.614
49.257	13.376	1047.412	789.971
50.271	13.395	1046.670	789.431
51.286	13.402	1045.949	788.850
52.301	13.304	1045.108	787.683
53.315	13.225	1043.957	786.369
54.330	13.274	1042.862	785.707
55.344	13.287	1041.912	784.981
56.359	13.346	1041.266	784.708
57.374	13.275	1040.298	783.573
58.388	13.138	1039.486	782.243
59.403	13.265	1038.137	781.757
60.417	13.264	1037.586	781.267
61.432	13.143	1036.903	780.113
62.447	13.082	1036.307	779.309
63.461	13.141	1035.307	778.767
64.476	13.156	1034.222	777.950
65.490	13.166	1033.583	777.447
66.505	13.177	1032.690	776.759
67.520	13.135	1032.378	776.257
68.534	13.201	1031.393	775.760
69.549	13.193	1030.526	775.004
70.563	13.185	1029.763	774.324
71.578	13.139	1028.804	773.315
72.593	13.066	1028.533	772.704
73.607	13.047	1028.219	772.311
74.622	13.198	1026.987	772.020
75.636	13.002	1026.150	770.408
76.651	12.979	1025.684	769.883
77.666	13.051	1024.974	769.618
78.680	13.098	1024.205	769.192
79.695	13.211	1023.665	769.245
80.709	13.236	1022.755	768.608
81.724	13.142	1022.267	767.738
82.739	13.250	1021.883	767.880
83.753	13.184	1021.339	767.100
84.768	13.186	1020.183	766.173
85.782	13.436	1018.772	766.203
86.797	13.304	1018.249	765.129
87.812	13.237	1017.459	764.159
88.826	13.315	1016.578	763.789
89.841	13.314	1015.344	762.791
90.855	13.276	1014.596	761.987
91.870	13.430	1013.745	761.991
92.884	13.337	1012.921	760.873
93.899	13.488	1011.780	760.645
94.914	13.560	1011.212	760.482
95.928	13.473	1010.739	759.660
96.943	13.233	1009.785	757.776
97.957	13.429	1008.971	757.996
98.972	13.402	1008.057	757.117
99.987	13.385	1006.990	756.169
101.001	13.410	1006.097	755.545
102.016	13.487	1005.121	755.097
103.030	13.427	1004.510	754.299
104.045	13.399	1003.844	753.603
105.060	13.408	1003.168	753.069
106.074	13.275	1002.194	751.669
107.089	13.370	1000.932	751.090
108.103	13.296	1000.017	749.999
109.118	13.269	999.192	749.192
110.133	13.291	998.116	748.419
111.147	13.370	996.950	747.834
112.162	13.349	996.212	747.120
113.176	13.223	996.126	746.421
114.191	13.333	994.892	745.924
115.206	13.425	994.386	745.895
116.220	13.344	993.360	744.694
117.235	13.395	992.763	744.411
118.249	13.219	991.905	742.909
119.264	13.210	991.237	742.305
120.279	13.433	990.045	742.347
121.293	13.466	989.201	741.796
122.308	13.351	988.228	740.487
123.322	13.252	987.476	739.411
124.337	13.216	986.618	738.545
125.352	13.387	985.337	738.282
126.366	13.277	984.451	737.064
127.381	13.255	983.444	736.147
128.395	13.415	982.361	735.981
129.410	13.356	981.034	734.660
130.424	13.384	980.710	734.478
131.439	13.502	979.381	733.939
132.454	13.309	979.177	732.868
133.468	13.308	978.798	732.514
134.483	13.386	977.267	731.648
135.497	13.372	976.445	730.906
136.512	13.325	975.565	729.977
137.527	13.462	975.017	730.107
138.541	13.458	973.946	729.221
139.556	13.418	973.267	728.473
140.570	13.462	972.781	728.239
141.585	13.465	971.963	727.577
142.600	13.583	970.946	727.266
143.614	13.599	969.997	726.562
144.629	13.514	969.534	725.778
145.643	13.486	968.589	724.885
146.658	13.519	967.188	723.917
147.673	13.437	966.574	723.033
148.687	13.434	965.827	722.400
149.702	13.526	964.831	721.989
150.716	13.575	963.713	721.302
151.731	13.464	963.236	720.397
152.746	13.545	962.661	720.256
153.760	13.465	962.633	719.824
154.775	13.556	961.771	719.512
155.789	13.573	961.179	719.080
156.804	13.598	960.214	718.401
157.819	13.590	960.042	718.173
158.833	13.788	958.692	717.958
159.848	13.694	958.452	717.308
160.862	13.758	956.693	716.204
161.877	13.675	955.786	715.107
162.892	13.855	954.784	715.069
163.906	13.587	954.145	713.373
164.921	13.523	953.402	712.477
165.935	13.564	952.742	712.098
166.950	13.736	951.810	712.078
167.964	13.740	950.584	711.113
168.979	13.574	950.084	709.965
169.994	13.775	948.943	709.909
171.008	13.813	948.463	709.650
172.023	13.844	947.836	709.252
173.037	13.850	946.801	708.440
174.052	13.795	946.409	707.848
175.067	13.710	945.628	706.841
176.081	13.763	945.112	706.616
177.096	13.773	944.452	706.103
178.110	13.763	943.759	705.480
179.125	13.737	943.400	705.038
180.140	13.765	942.714	704.585
181.154	13.864	942.126	704.501
182.169	13.897	942.029	704.506
183.183	13.943	940.992	703.866
184.198	14.003	939.991	703.306
185.213	14.081	939.207	702.987
186.227	13.953	938.815	702.092
187.242	13.940	938.385	701.654
188.256	14.038	937.659	701.461
189.271	14.076	937.229	701.240
190.286	13.913	936.100	699.646
191.300	13.677	935.881	698.426
192.315	13.858	935.079	698.525
193.329	13.888	934.483	698.147
194.344	14.046	933.340	697.892
195.359	13.948	932.901	697.092
196.373	14.048	932.283	696.990
197.388	14.008	931.942	696.503
198.402	14.125	931.422	696.544
199.417	14.144	930.754	696.062
200.432	14.248	929.887	695.785
201.446	14.210	929.763	695.472
202.461	14.232	928.981	694.919
203.475	14.277	928.287	694.526
204.490	14.205	927.745	693.760
205.504	14.146	926.945	692.852
206.519	14.168	926.398	692.474
207.534	14.180	925.091	691.487
208.548	14.202	924.931	691.399
209.563	14.227	924.459	691.086
210.577	14.219	923.575	690.330
211.592	14.385	922.770	690.356
212.607	14.388	922.045	689.767
213.621	14.323	921.380	688.937
214.636	14.449	920.422	688.683
215.650	14.334	920.017	687.841
216.665	14.517	919.038	687.805
217.680	14.481	918.392	687.111
218.694	14.446	917.825	686.484
219.709	14.399	917.111	685.697
220.723	14.482	916.021	685.160
221.738	14.475	915.860	684.952
222.753	14.459	914.874	684.089
223.767	14.510	914.533	683.981
224.782	14.625	914.107	684.075
225.796	14.591	913.172	683.174
226.811	14.557	912.906	682.777
227.826	14.432	912.449	681.861
228.840	14.505	911.478	681.374
229.855	14.546	910.435	680.701
230.869	14.620	909.732	680.418
231.884	14.514	909.018	679.389
232.899	14.564	908.346	679.031
233.913	14.399	907.700	677.817
234.928	14.547	906.859	677.731
235.942	14.524	906.527	677.329
236.957	14.554	906.031	677.020
237.972	14.404	905.531	675.978
238.986	14.539	904.564	675.746
240.001	14.627	903.901	675.546
241.015	14.577	903.890	675.276
242.030	14.575	902.794	674.389
243.045	14.651	902.339	674.295
244.059	14.750	901.153	673.748
245.074	14.718	900.855	673.337
246.088	14.614	900.531	672.616
247.103	14.704	899.676	672.281
248.117	14.825	899.081	672.264
249.132	14.945	898.088	671.945
250.147	14.871	897.766	671.347
251.161	14.952	897.213	671.201
252.176	15.004	896.593	670.886
253.190	15.130	895.529	670.533
254.205	15.053	895.059	669.815
255.220	15.150	894.269	669.551
256.234	15.046	893.544	668.536
257.249	15.130	893.145	668.512
258.263	15.071	892.233	667.534
259.278	15.011	892.099	667.137
260.293	15.112	891.095	666.726
261.307	15.075	890.723	666.244
262.322	15.061	890.539	665.991
263.336	15.278	889.272	665.848
264.351	15.164	888.812	664.993
265.366	15.216	888.102	664.607
266.380	15.206	887.157	663.801
267.395	15.260	886.360	663.359
268.409	15.303	885.497	662.824
269.424	15.265	885.608	662.700
270.439	15.249	884.443	661.706
271.453	15.168	884.005	660.998
272.468	15.179	883.199	660.382
273.482	15.190	882.706	659.998
274.497	15.234	882.494	659.957
275.512	15.360	881.615	659.733
276.526	15.382	881.164	659.425
277.541	15.298	880.828	658.787
278.555	15.539	879.684	658.819
279.570	15.573	879.027	658.402
280.585	15.518	878.213	657.517
281.599	15.516	877.537	656.946
282.614	15.371	877.143	656.025
283.628	15.320	876.760	655.480
284.643	15.346	876.153	655.071
285.657	15.571	875.418	655.343
286.672	15.460	874.724	654.330
287.687	15.649	873.919	654.405
288.701	15.505	873.506	653.480
289.716	15.529	873.044	653.170
290.730	15.466	872.962	652.806
291.745	15.633	871.747	652.488
292.760	15.710	870.680	651.931
293.774	15.766	870.534	651.980
294.789	15.742	869.716	651.217
295.803	15.677	869.065	650.420
296.818	15.588	868.584	649.657
297.833	15.551	868.129	649.118
298.847	15.613	867.524	648.847
299.862	15.623	866.911	648.370
300.876	15.783	866.271	648.450
301.891	15.790	865.374	647.746
302.906	15.747	865.148	647.357
303.920	15.950	864.446	647.553
304.935	15.857	864.064	646.855
305.949	15.960	863.296	646.617
306.964	15.873	862.555	645.670
307.979	15.921	861.710	645.166
308.993	15.715	861.714	644.320
310.008	16.014	860.970	644.854
311.022	15.946	860.544	644.217
312.037	15.980	859.573	643.563
313.052	15.872	859.041	642.696
314.066	15.819	858.883	642.316
315.081	15.852	858.177	641.861
316.095	15.901	857.463	641.456
317.110	15.808	857.412	641.005
318.125	15.857	856.208	640.233
319.139	15.973	856.038	640.490
320.154	15.911	855.802	640.025
321.168	15.804	855.399	639.260
322.183	15.948	854.523	639.094
323.197	16.141	853.699	639.152
324.212	16.053	853.213	638.399
325.227	16.015	852.903	637.968
326.241	16.033	852.155	637.417
327.256	16.057	851.430	636.909
328.270	16.058	850.995	636.531
329.285	15.999	850.516	635.896
330.300	16.100	849.586	635.524
331.314	16.121	849.031	635.133
332.329	16.091	848.882	634.853
333.343	16.103	848.472	634.535
334.358	16.323	847.939	634.908
335.373	16.116	847.405	633.672
336.387	16.210	847.069	633.720
337.402	16.145	847.270	633.568
338.416	16.436	846.513	634.039
339.431	16.167	846.299	632.814
340.446	16.403	845.588	633.110
341.460	16.277	845.552	632.556
342.475	16.312	845.287	632.432
343.489	16.454	844.468	632.294
344.504	16.537	843.974	632.179
345.519	16.492	843.242	631.407
346.533	16.486	842.855	631.037
347.548	16.440	842.402	630.472
348.562	16.401	841.940	629.926
349.577	16.404	841.475	629.533
350.592	16.370	840.641	628.726
351.606	16.360	839.886	628.069
352.621	16.421	839.389	627.868
353.635	16.543	838.534	627.625
354.650	16.571	838.189	627.417
355.665	16.452	837.627	626.500
356.679	16.572	836.624	626.136
357.694	16.589	836.037	625.704
358.708	16.593	835.449	625.224
359.723	16.502	835.037	624.524
360.738	16.544	834.706	624.379
361.752	16.643	833.671	623.914
362.767	16.789	833.172	624.022
363.781	16.625	832.831	623.109
364.796	16.718	832.290	622.990
365.810	16.763	832.026	622.903
366.825	16.809	831.690	622.766
367.840	16.745	831.325	622.201
368.854	16.893	830.427	622.018
369.869	16.879	830.035	621.619
370.883	16.909	829.493	621.266
371.898	16.816	829.568	620.926
372.913	16.838	829.084	620.591
373.927	16.869	828.189	619.978
374.942	16.945	827.622	619.777
375.956	16.941	827.621	619.708
376.971	17.142	826.845	619.806
377.986	16.936	826.573	618.793
379.000	17.010	826.365	618.852
380.015	17.093	825.361	618.348
381.029	17.178	824.789	618.175
382.044	16.894	824.807	617.100
383.059	16.996	824.129	616.910
384.073	17.078	823.320	616.546
385.088	17.053	822.556	615.829
386.102	17.043	822.200	615.471
387.117	17.040	821.943	615.215
388.132	16.939	821.130	614.186
389.146	17.169	820.536	614.518
390.161	17.117	820.301	614.102
391.175	17.160	819.525	613.623
392.190	17.006	819.240	612.797
393.205	17.185	818.830	613.083
394.219	17.193	818.310	612.666
395.234	17.092	818.131	612.115
396.248	17.053	817.806	611.676
397.263	17.058	816.908	610.971
398.278	17.157	816.782	611.180
399.292	17.169	816.150	610.693
400.307	17.032	815.760	609.857
401.321	17.251	814.960	609.991
402.336	17.255	814.719	609.769
403.350	17.351	814.023	609.540
404.365	17.202	814.132	609.032
405.380	17.336	813.363	608.885
406.394	17.379	812.683	608.473
407.409	17.450	812.516	608.551
408.423	17.336	812.421	608.018
409.438	17.318	812.152	607.699
410.453	17.620	811.189	607.999
411.467	17.497	810.959	607.334
412.482	17.578	810.505	607.230
413.496	17.594	810.046	606.891
414.511	17.575	809.689	606.500
415.526	17.596	809.269	606.208
416.540	17.667	808.829	606.079
417.555	17.652	808.350	605.611
418.569	17.616	807.937	605.121
419.584	17.749	807.379	605.123
420.599	17.617	806.758	604.132
421.613	113.833	1299.131	1486.897
422.628	98.308	1370.827	1486.948
