DTS Sentinel unit serial number:	SN413079Multiplexer serial number:	ORYXHardware model number:	OX4-SRSoftware version number:	ORYX F/W v4.00 Oryx Data Collector v3.7.2.0data status	okinstallation	princeton_trtdifferential loss correction	single-endedforward channel	channel 1reverse channel	N/Adate	2019/09/18time	14:58:35forward acquisition time	60.00reverse acquisition time	0.00gamma	496.2192k internal	0.2307k external	0.2307temperature offset calibration	0.9995default loss term (dB/km)	0.3790temperature slope calibration	1.0000multiplexer offset coefficient	1.0000multiplexer slope coefficient	1.0000fibre end	0.00T internal ref (°C)	35.19T ext. ref 1 (°C)	0.73T ext. ref 2 (°C)	30.09length (m)	temperature (°C)	Stokes	anti-Stokes-747.200	495.346	-0.056	0.130
-746.185	-83.771	-0.246	-0.080
-745.171	-74.337	0.242	0.089
-744.156	-97.610	-0.077	0.020
-743.142	-83.490	0.287	0.093
-742.127	293.462	0.262	0.486
-741.112	-200.000	0.021	-0.142
-740.098	-48.255	-0.167	-0.082
-739.083	-146.803	0.326	0.029
-738.069	-200.000	0.004	0.200
-737.054	2.443	0.280	-0.206
-736.039	85.440	-0.160	-0.179
-735.025	-68.833	-0.502	-0.197
-734.010	-97.107	0.098	0.026
-732.996	-59.693	0.204	-0.089
-731.981	-200.000	0.019	0.092
-730.966	-151.177	0.079	0.006
-729.952	111.553	0.205	-0.251
-728.937	-200.000	-0.059	0.388
-727.923	-19.068	-0.012	-0.008
-726.908	-200.000	0.001	0.072
-725.894	34.166	-0.201	-0.178
-724.879	9.717	-0.093	0.072
-723.864	160.380	0.148	-0.210
-722.850	800.000	-0.087	0.261
-721.835	-162.025	-0.347	-0.018
-720.821	596.140	-0.105	0.263
-719.806	122.809	0.027	0.035
-718.791	129.787	-0.170	-0.221
-717.777	800.000	0.087	0.283
-716.762	401.878	0.115	0.245
-715.748	127.424	-0.098	-0.127
-714.733	-74.977	0.270	-0.098
-713.718	17.552	-0.063	0.051
-712.704	-72.069	0.126	-0.048
-711.689	-4.996	-0.186	-0.130
-710.675	648.929	-0.070	0.183
-709.660	20.692	0.206	0.169
-708.645	401.214	0.075	-0.159
-707.631	-115.721	-0.331	0.063
-706.616	-41.610	0.269	0.141
-705.602	-81.800	0.204	-0.068
-704.587	-15.509	-0.152	0.098
-703.572	363.289	-0.134	0.273
-702.558	123.875	0.300	0.383
-701.543	-102.844	-0.095	-0.023
-700.529	800.000	0.102	-0.314
-699.514	-17.458	0.315	0.201
-698.499	-75.841	0.163	-0.059
-697.485	-154.448	0.101	0.007
-696.470	129.690	0.133	-0.173
-695.456	-200.000	-0.014	-0.364
-694.441	-9.527	-0.132	-0.090
-693.426	200.947	0.107	-0.167
-692.412	-200.000	0.054	0.250
-691.397	-200.000	-0.013	-0.322
-690.383	-185.933	-0.214	0.003
-689.368	209.313	-0.190	-0.303
-688.354	623.077	-0.120	0.305
-687.339	114.300	0.050	-0.061
-686.324	-200.000	0.024	-0.156
-685.310	16.335	0.075	0.060
-684.295	-74.651	0.147	-0.054
-683.281	-200.000	0.007	0.109
-682.266	-114.756	-0.075	0.015
-681.251	497.689	-0.008	-0.018
-680.237	39.687	-0.034	0.031
-679.222	800.000	-0.025	-0.082
-678.208	-89.276	0.325	-0.097
-677.193	-53.046	0.229	0.107
-676.178	153.512	0.188	0.261
-675.164	-136.360	-0.239	0.028
-674.149	-67.517	0.075	-0.030
-673.135	-200.000	-0.042	-0.489
-672.120	-30.950	-0.114	-0.065
-671.105	-47.132	-0.238	-0.118
-670.091	118.509	-0.139	-0.174
-669.076	-39.646	-0.305	-0.162
-668.062	35.843	0.166	0.148
-667.047	433.199	0.056	-0.123
-666.032	4.665	-0.058	0.043
-665.018	800.000	0.019	-0.055
-664.003	-10.852	-0.167	-0.112
-662.989	-159.653	0.026	-0.001
-661.974	273.469	-0.117	-0.209
-660.959	19.594	0.275	0.224
-659.945	141.669	0.116	0.156
-658.930	-135.078	-0.259	-0.032
-657.916	-70.890	0.167	0.064
-656.901	-82.653	-0.160	0.053
-655.886	-162.737	0.143	0.007
-654.872	-113.061	0.237	0.047
-653.857	-28.623	-0.365	0.213
-652.843	-53.988	-0.153	-0.070
-651.828	79.936	-0.022	-0.024
-650.814	-200.000	0.015	-0.376
-649.799	574.455	-0.053	0.132
-648.784	8.628	-0.194	-0.148
-647.770	-98.986	-0.443	0.114
-646.755	68.886	-0.139	-0.144
-645.741	800.000	-0.034	0.130
-644.726	12.294	-0.163	0.128
-643.711	-200.000	0.040	-0.193
-642.697	-113.100	-0.223	-0.045
-641.682	-106.863	-0.123	0.028
-640.668	298.200	-0.165	0.307
-639.653	20.269	0.355	0.290
-638.638	-51.154	-0.344	-0.163
-637.624	-25.385	-0.340	-0.203
-636.609	-139.804	-0.385	-0.041
-635.595	84.455	-0.328	-0.363
-634.580	220.377	-0.105	-0.170
-633.565	-1.430	-0.073	0.053
-632.551	38.883	-0.222	0.201
-631.536	-143.212	-0.132	0.013
-630.522	86.997	-0.203	0.227
-629.507	-62.637	0.106	-0.045
-628.492	338.850	0.120	0.237
-627.478	69.828	-0.060	0.062
-626.463	-65.182	-0.269	0.110
-625.449	12.410	-0.224	-0.175
-624.434	151.360	-0.122	0.168
-623.419	-200.000	0.026	0.194
-622.405	-42.434	-0.281	0.145
-621.390	-37.240	0.163	-0.088
-620.376	-102.875	-0.223	-0.054
-619.361	-200.000	-0.053	0.244
-618.346	138.369	0.058	-0.077
-617.332	-104.426	-0.248	-0.058
-616.317	-79.028	0.298	0.102
-615.303	154.095	0.062	-0.086
-614.288	-113.609	0.371	-0.073
-613.273	-150.378	0.325	-0.025
-612.259	198.071	0.130	0.200
-611.244	-48.009	-0.003	-0.001
-610.230	130.676	-0.008	0.010
-609.215	-127.146	0.085	-0.013
-608.201	-131.935	0.139	-0.018
-607.186	-17.149	-0.100	-0.064
-606.171	800.000	-0.049	0.206
-605.157	32.674	0.259	-0.227
-604.142	-89.015	0.073	0.022
-603.128	124.876	-0.207	-0.263
-602.113	-98.056	-0.173	0.045
-601.098	15.824	-0.284	0.226
-600.084	506.115	0.086	-0.201
-599.069	-200.000	-0.000	-0.286
-598.055	293.828	0.246	0.454
-597.040	-151.312	-0.460	0.035
-596.025	-108.862	0.039	0.008
-595.011	-197.401	-0.031	-0.000
-593.996	-63.838	0.380	-0.157
-592.982	254.749	0.052	-0.090
-591.967	-115.081	0.168	-0.032
-590.952	-36.500	0.095	0.052
-589.938	257.417	-0.217	0.377
-588.923	49.591	0.184	-0.175
-587.909	133.353	-0.075	-0.099
-586.894	-166.292	0.114	0.005
-585.879	-200.000	-0.041	-0.203
-584.865	197.940	-0.062	0.096
-583.850	-142.601	-0.074	0.007
-582.836	800.000	0.092	-0.386
-581.821	-164.811	0.245	-0.011
-580.806	-200.000	0.032	0.146
-579.792	-102.257	0.193	-0.047
-578.777	-39.505	-0.171	-0.090
-577.763	58.482	0.189	0.188
-576.748	515.310	-0.110	-0.258
-575.733	-156.494	0.158	-0.010
-574.719	-60.721	0.237	-0.101
-573.704	731.037	0.059	0.160
-572.690	193.023	-0.032	-0.049
-571.675	-200.000	-0.049	-0.288
-570.661	-200.000	-0.015	0.079
-569.646	800.000	-0.144	0.422
-568.631	-34.891	-0.116	0.064
-567.617	313.537	0.220	-0.418
-566.602	30.838	0.147	-0.127
-565.588	0.872	-0.186	-0.135
-564.573	36.079	0.221	-0.196
-563.558	-43.990	-0.171	0.087
-562.544	-200.000	0.010	0.198
-561.529	462.902	0.088	0.197
-560.515	-45.017	-0.154	0.077
-559.500	27.950	0.101	0.086
-558.485	-35.595	-0.099	-0.054
-557.471	-200.000	0.076	-0.391
-556.456	-24.412	-0.078	-0.047
-555.442	-26.320	0.165	-0.098
-554.427	364.601	0.060	0.122
-553.412	800.000	-0.035	0.127
-552.398	-159.655	0.200	-0.011
-551.383	102.491	-0.170	-0.201
-550.369	-35.156	0.210	-0.115
-549.354	-200.000	-0.018	-0.112
-548.339	353.199	0.046	0.092
-547.325	-55.110	0.110	0.050
-546.310	37.266	0.081	-0.072
-545.296	-128.576	-0.326	0.047
-544.281	800.000	-0.049	0.180
-543.266	-186.425	-0.111	-0.002
-542.252	121.591	0.239	0.301
-541.237	-106.882	-0.313	-0.070
-540.223	-159.282	-0.353	0.020
-539.208	-58.407	-0.365	0.160
-538.193	-200.000	-0.003	-0.089
-537.179	-119.411	-0.190	-0.033
-536.164	255.742	0.171	-0.295
-535.150	-200.000	-0.008	-0.127
-534.135	232.073	-0.147	0.243
-533.121	-200.000	0.018	-0.118
-532.106	-81.029	-0.160	-0.053
-531.091	800.000	0.030	-0.127
-530.077	-200.000	0.004	-0.192
-529.062	-0.428	-0.127	0.091
-528.048	-200.000	-0.010	-0.259
-527.033	-181.333	-0.330	0.007
-526.018	380.254	0.107	0.222
-525.004	-19.452	-0.215	0.134
-523.989	246.473	0.089	-0.151
-522.975	-70.246	-0.226	0.087
-521.960	-135.624	-0.259	0.031
-520.945	194.543	0.114	0.174
-519.931	45.976	0.143	-0.134
-518.916	-43.051	-0.310	-0.158
-517.902	-97.052	0.324	0.085
-516.887	213.996	-0.110	-0.175
-515.872	518.751	0.017	-0.040
-514.858	-38.713	-0.236	0.125
-513.843	-34.492	0.165	-0.091
-512.829	-200.000	0.029	0.175
-511.814	800.000	0.015	0.054
-510.799	-3.573	-0.186	0.131
-509.785	201.099	-0.150	-0.232
-508.770	-43.693	-0.166	-0.084
-507.756	50.391	0.198	0.188
-506.741	-200.000	0.011	-0.232
-505.726	-39.985	0.169	0.089
-504.712	25.869	0.295	0.247
-503.697	-200.000	0.011	0.186
-502.683	-200.000	-0.034	-0.419
-501.668	511.522	0.030	0.071
-500.653	238.671	0.111	-0.185
-499.639	-28.445	-0.210	-0.122
-498.624	-20.083	-0.032	0.020
-497.610	-32.256	-0.409	-0.230
-496.595	-67.492	0.237	-0.094
-495.581	-113.811	0.167	0.033
-494.566	31.006	0.012	0.010
-493.551	-75.114	0.389	0.140
-492.537	800.000	-0.054	-0.152
-491.522	-180.215	0.248	-0.005
-490.508	-101.066	0.159	-0.039
-489.493	347.453	-0.066	0.130
-488.478	-200.000	0.003	-0.097
-487.464	-200.000	0.031	-0.161
-486.449	75.383	-0.250	0.266
-485.435	-12.946	-0.043	0.028
-484.420	2.333	0.311	-0.227
-483.405	800.000	-0.012	0.051
-482.391	-161.216	0.113	-0.006
-481.376	1.869	0.193	0.140
-480.362	-200.000	-0.026	0.377
-479.347	-16.211	-0.147	0.094
-478.332	185.026	-0.091	-0.136
-477.318	-47.590	0.414	-0.203
-476.303	84.604	-0.126	0.139
-475.289	-4.181	-0.208	0.145
-474.274	-104.633	0.213	0.049
-473.259	-87.086	0.300	0.092
-472.245	84.263	-0.065	-0.072
-471.230	-158.900	-0.322	-0.018
-470.216	2.996	-0.174	0.127
-469.201	-200.000	-0.068	0.398
-468.186	135.660	-0.105	0.138
-467.172	-20.997	0.201	0.124
-466.157	-162.575	0.285	0.014
-465.143	-161.440	-0.411	0.021
-464.128	-200.000	-0.004	-0.044
-463.113	66.133	0.048	0.049
-462.099	97.749	0.265	-0.306
-461.084	800.000	-0.016	-0.062
-460.070	-53.219	-0.067	0.031
-459.055	-200.000	-0.035	0.191
-458.040	-79.037	0.072	-0.025
-457.026	-200.000	0.011	0.245
-456.011	567.389	-0.115	0.282
-454.997	-78.442	0.654	0.225
-453.982	-200.000	-0.011	-0.239
-452.968	-0.764	-0.193	0.137
-451.953	224.250	-0.074	-0.120
-450.938	800.000	0.012	0.053
-449.924	-72.256	-0.151	0.056
-448.909	657.818	-0.087	0.226
-447.895	-156.211	0.174	0.011
-446.880	-119.389	0.107	-0.019
-445.865	76.419	0.142	0.151
-444.851	-97.813	-0.325	0.085
-443.836	18.939	-0.205	0.165
-442.822	45.162	0.208	0.193
-441.807	57.411	0.046	0.046
-440.792	100.251	-0.040	0.047
-439.778	3.420	0.340	-0.249
-438.763	387.946	-0.152	0.316
-437.749	49.390	-0.133	0.125
-436.734	-74.331	-0.221	-0.080
-435.719	-80.609	0.187	0.063
-434.705	-41.254	-0.075	0.039
-433.690	-64.167	-0.195	0.080
-432.676	-179.276	0.204	0.005
-431.661	-50.206	-0.053	0.025
-430.646	800.000	-0.053	0.205
-429.632	591.859	0.032	0.079
-428.617	-200.000	-0.041	-0.230
-427.603	-28.107	0.508	0.295
-426.588	183.224	-0.075	-0.112
-425.573	236.198	0.123	0.204
-424.559	-99.393	-0.044	0.011
-423.544	800.000	-0.033	-0.104
-422.530	-200.000	0.011	-0.053
-421.515	800.000	0.058	-0.238
-420.500	-200.000	0.004	-0.093
-419.486	13.380	-0.089	0.069
-418.471	410.752	-0.165	-0.352
-417.457	-11.886	0.215	-0.142
-416.442	458.994	-0.120	-0.267
-415.428	190.573	-0.271	0.409
-414.413	-78.573	0.276	0.095
-413.398	305.869	-0.114	0.212
-412.384	-200.000	0.016	-0.138
-411.369	-200.000	0.022	0.185
-410.355	372.368	0.241	-0.491
-409.340	-55.672	-0.157	-0.070
-408.325	-123.517	0.235	-0.037
-407.311	-200.000	-0.002	-0.143
-406.296	-104.065	-0.406	0.095
-405.282	-200.000	-0.004	-0.360
-404.267	-47.327	-0.231	0.113
-403.252	-200.000	-0.064	0.286
-402.238	-17.545	-0.063	0.039
-401.223	-200.000	0.027	0.187
-400.209	-46.133	0.083	0.041
-399.194	698.387	0.028	-0.075
-398.179	413.371	-0.118	0.252
-397.165	63.825	-0.275	0.277
-396.150	15.044	0.061	0.048
-395.136	91.572	-0.016	0.019
-394.121	800.000	-0.057	0.235
-393.106	-200.000	-0.018	0.102
-392.092	327.322	0.092	-0.178
-391.077	-200.000	-0.018	-0.167
-390.063	-200.000	0.027	0.252
-389.048	-200.000	-0.037	0.225
-388.033	-52.164	-0.210	-0.098
-387.019	-200.000	-0.006	-0.106
-386.004	-200.000	0.014	-0.146
-384.990	800.000	-0.032	0.138
-383.975	-46.482	0.220	-0.108
-382.960	-200.000	0.003	-0.029
-381.946	-99.215	0.205	0.052
-380.931	239.502	-0.124	0.206
-379.917	-61.163	-0.174	-0.073
-378.902	800.000	-0.056	-0.166
-377.888	25.302	-0.190	-0.158
-376.873	-200.000	-0.022	0.111
-375.858	-25.363	-0.066	0.039
-374.844	232.949	0.077	-0.126
-373.829	-200.000	-0.032	0.182
-372.815	-85.921	-0.053	-0.016
-371.800	577.832	-0.094	-0.230
-370.785	-10.082	0.166	-0.110
-369.771	-167.599	-0.117	-0.005
-368.756	48.179	0.280	-0.263
-367.742	480.654	-0.108	-0.245
-366.727	550.758	-0.138	-0.331
-365.712	229.742	-0.050	-0.082
-364.698	340.343	-0.079	0.155
-363.683	-99.045	0.414	0.105
-362.669	423.200	0.117	-0.253
-361.654	-200.000	0.011	0.386
-360.639	-200.000	-0.099	0.495
-359.625	800.000	-0.014	0.058
-358.610	800.000	-0.117	0.364
-357.596	-200.000	-0.001	-0.044
-356.581	-36.469	0.114	0.061
-355.566	-200.000	-0.084	0.440
-354.552	27.088	0.292	-0.245
-353.537	-153.839	0.153	0.010
-352.523	291.397	-0.098	-0.178
-351.508	800.000	-0.072	-0.265
-350.493	94.136	-0.182	-0.206
-349.479	-53.893	-0.045	-0.021
-348.464	-51.643	-0.086	-0.040
-347.450	-46.974	-0.229	0.112
-346.435	-95.526	-0.453	0.122
-345.420	-200.000	0.003	0.128
-344.406	800.000	0.048	0.184
-343.391	305.366	-0.098	-0.182
-342.377	77.719	-0.063	0.067
-341.362	-200.000	-0.083	0.412
-340.348	57.173	0.125	0.122
-339.333	800.000	-0.044	0.144
-338.318	54.345	-0.223	-0.215
-337.304	-200.000	-0.026	-0.259
-336.289	331.928	-0.063	-0.122
-335.275	-200.000	-0.015	-0.140
-334.260	57.632	-0.129	0.126
-333.245	-200.000	0.008	0.103
-332.231	66.578	0.086	0.087
-331.216	-82.939	0.184	-0.059
-330.202	607.890	-0.141	0.352
-329.187	683.709	-0.069	0.179
-328.172	255.958	0.083	-0.143
-327.158	9.770	-0.181	-0.137
-326.143	-137.428	0.165	-0.019
-325.129	-142.272	0.377	-0.037
-324.114	800.000	0.023	0.082
-323.099	20.064	-0.194	0.157
-322.085	-200.000	0.010	-0.067
-321.070	18.495	-0.169	-0.135
-320.056	-102.863	-0.293	0.070
-319.041	-200.000	0.032	0.165
-318.026	-200.000	0.017	0.253
-317.012	-68.016	0.411	-0.160
-315.997	-122.023	0.149	-0.024
-314.983	800.000	0.140	-0.439
-313.968	360.189	0.078	-0.156
-312.953	87.562	-0.081	-0.089
-311.939	-110.263	0.328	-0.068
-310.924	412.328	0.073	0.154
-309.910	-131.888	0.233	-0.030
-308.895	395.360	0.058	-0.121
-307.880	-20.743	0.221	0.136
-306.866	44.126	0.303	-0.278
-305.851	-200.000	-0.034	0.224
-304.837	-92.396	-0.458	0.129
-303.822	-200.000	-0.015	-0.347
-302.807	-200.000	-0.015	0.219
-301.793	24.576	0.367	-0.304
-300.778	115.630	-0.061	0.074
-299.764	82.976	0.077	0.084
-298.749	-81.066	-0.153	-0.051
-297.735	58.694	-0.177	0.173
-296.720	-99.622	-0.157	0.039
-295.705	-141.819	0.141	0.014
-294.691	-140.880	0.258	0.027
-293.676	300.305	0.194	-0.357
-292.662	800.000	-0.059	0.240
-291.647	18.642	-0.130	-0.104
-290.632	-1.848	0.243	0.171
-289.618	-43.726	0.233	-0.117
-288.603	-200.000	0.025	0.139
-287.589	117.641	0.132	-0.162
-286.574	-120.105	-0.131	0.022
-285.559	757.044	0.018	-0.049
-284.545	590.392	0.064	0.158
-283.530	-59.614	-0.262	-0.112
-282.516	-55.966	0.099	0.044
-281.501	-80.910	-0.360	-0.119
-280.486	492.513	0.188	-0.430
-279.472	-200.000	0.001	-0.060
-278.457	198.151	-0.206	-0.315
-277.443	467.742	0.132	0.295
-276.428	0.352	-0.344	0.245
-275.413	133.729	0.143	-0.184
-274.399	-200.000	0.026	-0.320
-273.384	-200.000	-0.002	0.055
-272.370	114.828	0.118	0.144
-271.355	-161.758	0.099	-0.005
-270.340	-200.000	-0.012	0.312
-269.326	4.551	0.133	0.097
-268.311	-106.013	-0.349	0.078
-267.297	404.402	-0.174	-0.367
-266.282	-5.188	0.100	-0.069
-265.267	655.914	0.116	0.297
-264.253	-119.521	0.219	0.038
-263.238	-55.775	-0.431	-0.192
-262.224	310.134	0.063	0.118
-261.209	-112.330	0.189	-0.038
-260.195	390.193	-0.135	-0.280
-259.180	-71.612	0.185	-0.069
-258.165	30.259	-0.158	0.134
-257.151	165.633	-0.070	-0.098
-256.136	28.273	-0.356	0.300
-255.122	520.800	-0.091	-0.213
-254.107	-117.915	-0.065	0.012
-253.092	61.632	0.024	-0.024
-252.078	-30.467	0.270	0.153
-251.063	165.201	0.062	-0.088
-250.049	-74.275	0.306	-0.110
-249.034	-200.000	-0.001	0.180
-248.019	190.235	-0.154	-0.231
-247.005	-131.572	-0.154	0.020
-245.990	-173.986	0.164	-0.005
-244.976	245.266	0.226	-0.379
-243.961	-200.000	-0.035	0.152
-242.946	-200.000	-0.002	0.207
-241.932	-200.000	0.059	-0.426
-240.917	-97.143	0.394	0.103
-239.903	-83.170	-0.242	-0.078
-238.888	59.869	0.152	0.150
-237.873	-16.660	0.201	-0.127
-236.859	-44.435	-0.178	-0.089
-235.844	-85.558	0.166	-0.052
-234.830	-174.759	-0.159	0.004
-233.815	800.000	-0.147	-0.452
-232.800	38.745	0.111	-0.099
-231.786	-60.647	0.334	0.141
-230.771	-200.000	0.047	0.257
-229.757	-13.644	0.141	-0.091
-228.742	517.906	0.065	-0.152
-227.727	800.000	-0.071	-0.260
-226.713	800.000	0.015	0.049
-225.698	-95.060	0.406	0.109
-224.684	-18.229	0.142	0.089
-223.669	800.000	-0.095	0.287
-222.655	-0.685	-0.101	0.071
-221.640	-24.839	0.202	0.119
-220.625	49.031	0.090	0.084
-219.611	-200.000	0.019	0.151
-218.596	78.035	-0.124	0.131
-217.582	40.982	-0.125	0.112
-216.567	31.024	-0.156	-0.133
-215.552	25.701	-0.227	-0.188
-214.538	-179.926	-0.034	-0.001
-213.523	639.746	0.100	0.255
-212.509	-200.000	0.024	-0.308
-211.494	-172.078	0.287	-0.009
-210.479	-8.761	0.096	0.064
-209.465	159.826	-0.162	0.225
-208.450	26.259	0.337	-0.280
-207.436	28.800	-0.086	-0.073
-206.421	-35.477	-0.271	0.147
-205.406	-48.846	-0.231	0.110
-204.392	800.000	-0.045	-0.178
-203.377	87.616	0.147	-0.162
-202.363	-8.059	0.129	0.086
-201.348	196.331	0.105	-0.160
-200.333	-136.482	-0.143	0.017
-199.319	-42.175	0.304	-0.155
-198.304	-125.293	0.174	-0.026
-197.290	-200.000	-0.056	0.399
-196.275	-40.743	0.344	-0.177
-195.260	168.522	-0.148	-0.210
-194.246	-31.354	0.161	-0.090
-193.231	70.940	-0.103	0.107
-192.217	-200.000	0.009	-0.377
-191.202	800.000	-0.007	-0.021
-190.187	800.000	0.049	0.208
-189.173	614.525	0.048	0.120
-188.158	-59.207	0.202	-0.087
-187.144	11.772	-0.326	0.249
-186.129	52.368	0.263	0.250
-185.114	669.861	-0.047	0.121
-184.100	81.610	-0.218	0.235
-183.085	155.985	0.122	-0.167
-182.071	-200.000	-0.006	-0.095
-181.056	-142.846	0.250	0.024
-180.042	103.867	-0.031	-0.036
-179.027	-200.000	-0.014	-0.162
-178.012	-160.550	-0.466	-0.025
-176.998	-29.282	0.140	-0.080
-175.983	91.235	0.109	0.121
-174.969	800.000	-0.030	-0.114
-173.954	3.696	0.168	-0.122
-172.939	800.000	0.095	0.346
-171.925	227.180	-0.065	0.106
-170.910	-0.392	-0.246	-0.174
-169.896	64.109	-0.050	0.050
-168.881	218.848	0.113	0.179
-167.866	273.729	0.233	-0.410
-166.852	85.454	0.080	-0.087
-165.837	-200.000	0.000	0.032
-164.823	-200.000	0.003	0.021
-163.808	-22.650	0.204	-0.122
-162.793	-101.189	-0.307	-0.075
-161.779	41.744	0.101	-0.091
-160.764	358.542	0.068	-0.135
-159.750	-119.882	0.196	0.033
-158.735	-125.849	0.314	-0.047
-157.720	221.689	0.076	0.121
-156.706	-200.000	0.012	-0.253
-155.691	158.246	-0.129	-0.177
-154.677	-32.444	0.165	-0.092
-153.662	181.836	0.190	-0.278
-152.647	-3.530	-0.213	-0.147
-151.633	124.820	0.215	0.268
-150.618	-80.657	0.200	-0.066
-149.604	800.000	0.051	0.155
-148.589	800.000	0.065	0.178
-147.574	188.303	0.113	-0.167
-146.560	800.000	-0.083	-0.261
-145.545	96.783	-0.174	0.198
-144.531	24.319	-0.280	0.230
-143.516	41.792	-0.087	-0.078
-142.502	170.843	0.154	0.219
-141.487	-200.000	0.037	-0.296
-140.472	694.810	-0.100	-0.260
-139.458	800.000	-0.061	-0.250
-138.443	-8.136	0.125	0.084
-137.429	-3.876	0.129	-0.089
-136.414	-200.000	-0.012	-0.130
-135.399	174.616	-0.144	-0.208
-134.385	307.475	-0.128	-0.238
-133.370	127.571	-0.333	0.420
-132.356	-16.471	-0.109	-0.069
-131.341	145.093	0.111	0.147
-130.326	-49.464	0.401	0.190
-129.312	-200.000	0.004	0.063
-128.297	114.796	-0.149	0.181
-127.283	-39.291	0.153	-0.080
-126.268	800.000	-0.151	-0.418
-125.253	800.000	0.049	-0.193
-124.239	667.842	0.086	0.221
-123.224	103.297	-0.103	-0.120
-122.210	-200.000	-0.009	0.041
-121.195	-54.750	-0.140	-0.063
-120.180	-91.665	-0.124	0.035
-119.166	-19.797	0.173	0.106
-118.151	-81.441	-0.443	-0.145
-117.137	214.069	-0.094	0.148
-116.122	800.000	-0.077	-0.292
-115.107	-98.074	0.049	-0.013
-114.093	-63.579	0.254	-0.104
-113.078	122.482	-0.194	-0.241
-112.064	-95.008	-0.068	-0.018
-111.049	173.359	-0.064	-0.091
-110.034	11.316	0.202	-0.153
-109.020	-86.962	-0.335	-0.101
-108.005	390.323	0.149	0.307
-106.991	722.040	0.113	0.299
-105.976	350.605	0.113	0.222
-104.962	176.193	0.146	-0.211
-103.947	-200.000	0.028	0.287
-102.932	454.738	-0.043	-0.095
-101.918	-200.000	0.011	0.101
-100.903	666.317	0.139	0.355
-99.889	-20.381	0.280	-0.171
-98.874	-38.288	0.228	-0.120
-97.859	112.167	0.328	-0.394
-96.845	-112.678	0.064	-0.013
-95.830	316.937	-0.181	0.338
-94.816	183.250	0.272	0.399
-93.801	800.000	0.072	0.277
-92.786	-171.697	-0.268	-0.009
-91.772	232.275	0.109	0.178
-90.757	-91.412	0.203	-0.057
-89.743	161.544	-0.207	-0.287
-88.728	-73.306	0.172	0.062
-87.713	-162.745	0.256	0.012
-86.699	377.311	-0.105	-0.212
-85.684	-200.000	0.076	-0.351
-84.670	288.608	0.125	0.224
-83.655	-118.965	-0.048	-0.008
-82.640	-80.961	0.114	0.038
-81.626	-117.081	0.168	0.030
-80.611	163.600	0.128	0.178
-79.597	-200.000	0.046	-0.351
-78.582	-200.000	-0.017	0.242
-77.567	-200.000	0.081	-0.479
-76.553	-200.000	0.021	-0.149
-75.538	94.888	-0.097	-0.109
-74.524	796.317	-0.059	0.160
-73.509	-127.452	0.295	-0.043
-72.494	633.536	0.050	0.126
-71.480	-58.313	-0.162	-0.070
-70.465	76.391	0.047	-0.050
-69.451	800.000	0.106	0.367
-68.436	-62.423	-0.219	-0.090
-67.422	800.000	0.142	0.468
-66.407	87.907	0.154	-0.169
-65.392	800.000	-0.107	-0.325
-64.378	27.036	-0.206	0.171
-63.363	422.356	0.089	0.190
-62.349	800.000	-0.079	0.249
-61.334	135.015	-0.813	-1.046
-60.319	-40.794	0.347	0.178
-59.305	-200.000	-0.197	-0.903
-58.290	236.619	0.548	0.898
-57.276	769.235	0.552	1.489
-56.261	-200.000	94.987	552.101
-55.246	518.032	1408.325	3262.670
-54.232	145.672	2629.791	3488.243
-53.217	112.623	2220.628	2661.107
-52.203	46.719	1664.081	1529.845
-51.188	38.629	1394.845	1231.685
-50.173	35.385	1351.944	1173.944
-49.159	54.553	1400.029	1335.560
-48.144	58.417	1417.726	1376.465
-47.130	38.940	1372.395	1213.592
-46.115	35.286	1355.097	1175.886
-45.100	35.235	1349.936	1171.050
-44.086	34.974	1347.245	1167.082
-43.071	34.929	1345.413	1165.173
-42.057	34.961	1343.237	1163.434
-41.042	35.059	1341.188	1162.211
-40.027	34.945	1340.131	1160.556
-39.013	35.102	1337.746	1159.398
-37.998	35.040	1335.501	1157.026
-36.984	35.082	1333.936	1155.879
-35.969	35.233	1332.482	1155.486
-34.954	35.249	1330.372	1153.707
-33.940	35.340	1328.568	1152.642
-32.925	35.278	1327.504	1151.300
-31.911	35.342	1326.040	1150.372
-30.896	35.329	1324.741	1149.118
-29.881	35.392	1322.991	1147.932
-28.867	35.334	1322.039	1146.717
-27.852	35.294	1320.388	1144.995
-26.838	35.404	1318.643	1144.095
-25.823	35.224	1317.726	1142.182
-24.809	35.280	1316.248	1141.188
-23.794	35.241	1314.332	1139.252
-22.779	35.401	1313.361	1139.314
-21.765	35.185	1312.353	1137.114
-20.750	35.246	1311.152	1136.390
-19.736	35.052	1309.816	1134.035
-18.721	35.183	1308.554	1133.671
-17.706	35.114	1307.161	1132.017
-16.692	35.148	1305.962	1131.132
-15.677	35.193	1304.893	1130.428
-14.663	35.159	1303.678	1129.127
-13.648	35.080	1302.855	1127.905
-12.633	35.049	1302.184	1127.096
-11.619	35.067	1301.167	1126.275
-10.604	35.209	1299.695	1125.794
-9.590	35.129	1298.848	1124.545
-8.575	35.068	1298.481	1123.826
-7.560	35.060	1297.311	1122.723
-6.546	35.046	1296.574	1121.959
-5.531	35.044	1295.351	1120.844
-4.517	35.065	1294.614	1120.281
-3.502	35.272	1292.876	1119.942
-2.487	35.077	1292.435	1118.376
-1.473	35.089	1288.601	1115.088
-0.458	33.804	1273.349	1094.442
0.556	28.644	1254.071	1050.595
1.571	24.140	1258.421	1028.209
2.586	22.350	1272.293	1028.994
3.600	21.055	1260.065	1011.510
4.615	15.531	1184.484	920.559
5.629	5.839	1104.754	808.756
6.644	1.083	1082.450	768.286
7.659	0.642	1080.113	764.328
8.673	0.511	1079.217	762.964
9.688	0.666	1077.323	762.342
10.702	0.819	1076.268	762.297
11.717	6.117	1083.701	794.327
12.731	14.539	1094.329	844.868
13.746	17.833	1097.452	863.909
14.761	17.328	1097.009	860.927
15.775	16.533	1094.887	855.169
16.790	15.590	1092.346	848.349
17.804	14.793	1091.108	843.289
18.819	14.489	1089.859	840.720
19.834	14.228	1088.635	838.384
20.848	13.850	1088.399	836.226
21.863	13.637	1087.348	834.272
22.877	13.442	1086.774	832.775
23.892	13.455	1086.130	832.274
24.907	13.486	1084.982	831.477
25.921	13.504	1084.353	831.013
26.936	13.488	1083.301	830.054
27.950	13.618	1082.344	829.898
28.965	13.599	1081.138	828.803
29.980	13.680	1079.479	827.861
30.994	13.713	1078.595	827.274
32.009	13.721	1077.625	826.499
33.023	13.651	1076.925	825.541
34.038	13.642	1075.828	824.581
35.053	13.645	1074.812	823.743
36.067	13.675	1073.893	823.114
37.082	13.499	1073.702	822.024
38.096	13.660	1072.488	821.818
39.111	13.588	1071.874	820.918
40.126	13.548	1071.055	820.019
41.140	13.490	1069.410	818.404
42.155	13.511	1068.178	817.492
43.169	13.511	1067.149	816.630
44.184	13.419	1066.135	815.332
45.199	13.561	1065.044	815.120
46.213	13.621	1064.045	814.581
47.228	13.579	1062.786	813.340
48.242	13.507	1061.881	812.220
49.257	13.591	1060.477	811.488
50.271	13.607	1060.375	811.416
51.286	13.642	1058.793	810.304
52.301	13.652	1057.818	809.534
53.315	13.632	1056.865	808.638
54.330	13.519	1055.742	807.156
55.344	13.648	1054.784	806.979
56.359	13.551	1053.739	805.637
57.374	13.563	1053.129	805.156
58.388	13.488	1051.931	803.806
59.403	13.483	1051.680	803.518
60.417	13.467	1050.578	802.529
61.432	13.503	1049.971	802.168
62.447	13.508	1049.046	801.415
63.461	13.436	1048.364	800.477
64.476	13.395	1047.165	799.292
65.490	13.507	1046.168	798.999
66.505	13.401	1045.913	798.221
67.520	13.358	1045.528	797.649
68.534	13.406	1044.496	797.025
69.549	13.495	1043.487	796.613
70.563	13.433	1042.595	795.561
71.578	13.461	1041.800	795.018
72.593	13.263	1041.475	793.752
73.607	13.303	1041.098	793.584
74.622	13.357	1039.913	792.869
75.636	13.299	1039.616	792.297
76.651	13.286	1038.379	791.220
77.666	13.341	1038.035	791.152
78.680	13.457	1037.501	791.229
79.695	13.422	1036.767	790.433
80.709	13.450	1036.059	789.958
81.724	13.518	1035.344	789.667
82.739	13.427	1034.837	788.775
83.753	13.576	1033.563	788.444
84.768	13.592	1032.935	787.969
85.782	13.616	1031.779	787.133
86.797	13.532	1030.782	785.904
87.812	13.565	1029.848	785.281
88.826	13.523	1028.788	784.202
89.841	13.645	1027.833	783.981
90.855	13.689	1027.111	783.568
91.870	13.806	1026.036	783.233
92.884	13.700	1025.263	782.073
93.899	13.812	1024.039	781.599
94.914	13.769	1023.349	780.801
95.928	13.706	1022.929	780.115
96.943	13.709	1022.089	779.419
97.957	13.724	1020.804	778.438
98.972	13.706	1020.247	777.863
99.987	13.792	1019.104	777.324
101.001	13.711	1018.293	776.258
102.016	13.667	1017.276	775.211
103.030	13.752	1016.429	774.891
104.045	13.619	1015.921	773.815
105.060	13.645	1015.012	773.175
106.074	13.569	1014.099	772.058
107.089	13.631	1013.107	771.523
108.103	13.623	1011.973	770.553
109.118	13.496	1011.295	769.380
110.133	13.501	1010.220	768.515
111.147	13.572	1009.307	768.085
112.162	13.688	1007.978	767.539
113.176	13.679	1007.377	766.971
114.191	13.575	1007.138	766.243
115.206	13.590	1006.187	765.518
116.220	13.524	1005.524	764.643
117.235	13.567	1004.656	764.115
118.249	13.566	1003.682	763.300
119.264	13.592	1002.582	762.518
120.279	13.599	1002.018	762.054
121.293	13.498	1001.390	761.046
122.308	13.564	1000.602	760.681
123.322	13.676	999.372	760.192
124.337	13.538	998.414	758.764
125.352	13.755	996.899	758.536
126.366	13.706	996.180	757.699
127.381	13.572	994.928	756.067
128.395	13.575	994.255	755.506
129.410	13.644	993.292	755.021
130.424	13.708	992.226	754.433
131.439	13.760	991.963	754.404
132.454	13.739	991.079	753.571
133.468	13.866	989.824	753.124
134.483	13.807	988.892	752.082
135.497	13.713	988.326	751.158
136.512	13.702	987.571	750.466
137.527	13.772	986.429	749.850
138.541	13.685	985.676	748.819
139.556	13.729	985.397	748.738
140.570	13.933	984.399	748.837
141.585	13.927	983.078	747.736
142.600	13.825	982.453	746.736
143.614	13.900	981.801	746.512
144.629	13.769	981.084	745.313
145.643	13.842	980.024	744.768
146.658	13.958	978.685	744.204
147.673	13.896	977.874	743.245
148.687	13.858	977.293	742.568
149.702	13.868	976.199	741.715
150.716	13.779	975.793	740.945
151.731	13.734	974.904	740.002
152.746	13.865	973.618	739.542
153.760	13.857	973.515	739.365
154.775	13.902	972.504	738.731
155.789	13.803	972.536	738.249
156.804	13.809	971.215	737.208
157.819	13.830	971.023	737.093
158.833	13.947	970.169	736.895
159.848	13.956	969.094	736.053
160.862	13.949	968.285	735.343
161.877	13.921	967.212	734.342
162.892	13.927	966.643	733.870
163.906	13.892	965.331	732.656
164.921	13.763	964.597	731.462
165.935	13.991	963.667	731.699
166.950	13.998	962.899	731.080
167.964	13.857	962.386	730.007
168.979	13.881	961.258	729.193
169.994	13.906	960.295	728.506
171.008	13.982	959.876	728.460
172.023	14.070	958.686	727.877
173.037	14.031	958.252	727.312
174.052	14.127	957.515	727.107
175.067	14.020	956.848	726.069
176.081	14.024	956.151	725.492
177.096	13.989	955.646	724.893
178.110	13.988	954.992	724.329
179.125	13.957	954.564	723.806
180.140	14.123	953.799	723.885
181.154	14.090	953.627	723.543
182.169	14.122	952.936	723.096
183.183	14.035	952.113	722.030
184.198	14.204	951.099	721.928
185.213	14.340	950.091	721.692
186.227	14.235	949.864	721.000
187.242	14.273	949.095	720.515
188.256	14.300	948.646	720.227
189.271	14.198	947.821	719.095
190.286	14.103	947.148	718.113
191.300	14.152	946.057	717.435
192.315	14.146	945.655	717.039
193.329	14.111	945.290	716.550
194.344	14.068	944.827	715.951
195.359	14.211	944.069	715.924
196.373	14.279	943.535	715.752
197.388	14.181	943.433	715.190
198.402	14.269	942.783	715.012
199.417	14.492	941.456	714.899
200.432	14.458	941.286	714.557
201.446	14.503	940.497	714.091
202.461	14.576	939.683	713.719
203.475	14.456	939.653	713.122
204.490	14.457	938.695	712.335
205.504	14.387	937.815	711.306
206.519	14.391	937.346	710.903
207.534	14.433	936.431	710.325
208.548	14.517	935.606	709.995
209.563	14.445	935.208	709.324
210.577	14.563	934.416	709.163
211.592	14.714	933.141	708.773
212.607	14.659	933.063	708.416
213.621	14.491	932.520	707.228
214.636	14.491	931.517	706.408
215.650	14.682	931.301	706.991
216.665	14.635	930.682	706.258
217.680	14.762	929.343	705.716
218.694	14.714	928.655	704.928
219.709	14.642	928.496	704.443
220.723	14.663	927.490	703.703
221.738	14.803	926.513	703.490
222.753	14.709	926.162	702.766
223.767	14.745	925.689	702.498
224.782	14.880	925.192	702.623
225.796	14.824	924.459	701.769
226.811	14.751	923.997	701.052
227.826	14.793	923.069	700.462
228.840	14.816	922.333	699.936
229.855	14.782	921.559	699.145
230.869	14.894	920.322	698.611
231.884	14.763	919.964	697.732
232.899	14.769	919.471	697.323
233.913	14.807	918.675	696.817
234.928	14.816	917.976	696.262
235.942	14.855	917.490	695.992
236.957	14.874	917.070	695.692
237.972	14.775	916.271	694.614
238.986	14.917	915.286	694.396
240.001	14.805	915.082	693.712
241.015	14.757	914.499	693.012
242.030	14.896	913.668	692.897
243.045	14.923	913.053	692.479
244.059	14.983	912.306	692.100
245.074	15.010	912.113	692.003
246.088	15.014	911.627	691.592
247.103	15.059	910.635	690.960
248.117	15.018	910.185	690.392
249.132	15.102	909.480	690.143
250.147	15.087	908.750	689.464
251.161	15.281	907.923	689.574
252.176	15.320	907.120	689.063
253.190	15.221	906.906	688.432
254.205	15.176	906.185	687.640
255.220	15.238	905.827	687.560
256.234	15.300	904.945	687.085
257.249	15.444	903.936	686.848
258.263	15.378	903.121	685.899
259.278	15.208	902.884	684.961
260.293	15.293	902.343	684.837
261.307	15.488	901.637	685.037
262.322	15.449	900.771	684.160
263.336	15.373	900.498	683.583
264.351	15.476	899.416	683.121
265.366	15.534	898.490	682.592
266.380	15.511	898.179	682.204
267.395	15.522	897.461	681.642
268.409	15.438	896.557	680.554
269.424	15.492	895.583	679.973
270.439	15.524	895.098	679.672
271.453	15.503	894.550	679.112
272.468	15.493	894.416	678.912
273.482	15.674	893.543	678.917
274.497	15.590	892.710	677.888
275.512	15.544	892.319	677.343
276.526	15.681	891.519	677.230
277.541	15.567	890.963	676.288
278.555	15.509	890.818	675.885
279.570	15.763	889.709	676.006
280.585	15.764	888.865	675.308
281.599	15.803	887.991	674.740
282.614	15.730	887.763	674.213
283.628	15.720	886.886	673.448
284.643	15.773	886.469	673.286
285.657	15.753	885.759	672.604
286.672	15.668	885.260	671.826
287.687	15.785	884.658	671.779
288.701	15.694	884.285	671.071
289.716	15.779	883.575	670.815
290.730	15.952	882.647	670.739
291.745	15.900	881.894	669.902
292.760	16.039	881.020	669.730
293.774	15.850	880.670	668.653
294.789	15.783	880.152	667.935
295.803	16.011	879.328	668.156
296.818	15.925	878.691	667.271
297.833	15.980	877.698	666.676
298.847	15.929	877.186	666.025
299.862	15.916	876.865	665.670
300.876	15.977	876.348	665.461
301.891	16.023	875.779	665.150
302.906	16.082	875.484	665.101
303.920	16.092	874.689	664.478
304.935	16.164	874.029	664.203
305.949	15.995	873.323	662.942
306.964	15.987	873.103	662.686
307.979	16.143	872.325	662.646
308.993	16.200	871.453	662.151
310.008	16.191	870.715	661.495
311.022	16.100	870.504	660.920
312.037	16.103	870.292	660.715
313.052	16.181	869.216	660.145
314.066	16.025	868.867	659.211
315.081	16.192	868.133	659.248
316.095	16.079	867.359	658.160
317.110	16.143	866.573	657.755
318.125	16.163	866.273	657.545
319.139	16.216	866.035	657.512
320.154	16.160	865.395	656.753
321.168	16.229	864.815	656.520
322.183	16.343	863.938	656.242
323.197	16.223	863.844	655.646
324.212	16.454	862.905	655.771
325.227	16.313	862.789	655.077
326.241	16.181	862.169	654.037
327.256	16.240	861.380	653.609
328.270	16.234	861.068	653.292
329.285	16.315	860.413	653.052
330.300	16.372	860.047	652.935
331.314	16.341	859.128	652.059
332.329	16.353	859.055	651.994
333.343	16.446	858.408	651.804
334.358	16.324	858.010	650.974
335.373	16.381	857.503	650.750
336.387	16.507	856.688	650.559
337.402	16.527	856.645	650.545
338.416	16.441	856.598	650.120
339.431	16.585	855.588	649.850
340.446	16.661	855.339	649.896
341.460	16.537	855.168	649.232
342.475	16.660	854.862	649.415
343.489	16.803	853.749	649.060
344.504	16.741	853.457	648.542
345.519	16.734	852.954	648.076
346.533	16.643	852.717	647.489
347.548	16.676	852.002	647.015
348.562	16.740	851.259	646.641
349.577	16.704	850.957	646.217
350.592	16.614	850.354	645.357
351.606	16.706	849.685	645.143
352.621	16.729	848.918	644.592
353.635	16.632	848.224	643.637
354.650	16.731	847.975	643.770
355.665	16.799	847.260	643.428
356.679	16.786	846.267	642.568
357.694	16.927	845.924	642.783
358.708	16.849	845.204	641.885
359.723	16.777	844.352	640.907
360.738	16.857	843.978	640.869
361.752	16.828	843.484	640.328
362.767	16.857	843.150	640.130
363.781	16.993	842.125	639.806
364.796	17.185	841.858	640.269
365.810	16.856	841.739	638.885
366.825	16.993	841.315	639.023
367.840	17.045	840.599	638.616
368.854	16.920	840.364	637.911
369.869	17.022	839.942	637.920
370.883	17.055	839.273	637.477
371.898	16.986	838.896	636.876
372.913	17.260	838.257	637.363
373.927	17.204	838.003	636.903
374.942	17.172	837.491	636.336
375.956	17.176	836.752	635.733
376.971	17.244	836.661	635.862
377.986	17.316	836.012	635.583
379.000	17.243	835.585	634.931
380.015	17.283	834.828	634.445
381.029	17.444	834.270	634.568
382.044	17.350	833.697	633.725
383.059	17.449	833.037	633.534
384.073	17.344	832.747	632.868
385.088	17.256	832.546	632.330
386.102	17.304	831.607	631.744
387.117	17.377	830.610	631.201
388.132	17.394	830.321	630.988
389.146	17.350	829.831	630.394
390.161	17.387	829.814	630.463
391.175	17.524	828.737	630.098
392.190	17.394	828.523	629.398
393.205	17.476	827.878	629.154
394.219	17.540	827.463	629.022
395.234	17.435	827.326	628.472
396.248	17.434	826.864	628.062
397.263	17.339	826.835	627.633
398.278	17.397	826.159	627.282
399.292	17.304	825.832	626.632
400.307	17.245	825.233	625.906
401.321	17.485	824.361	626.072
402.336	17.391	824.155	625.515
403.350	17.492	823.819	625.575
404.365	17.637	823.049	625.468
405.380	17.666	822.727	625.274
406.394	17.688	821.892	624.664
407.409	17.560	821.829	624.092
408.423	17.712	821.866	624.623
409.438	17.766	821.296	624.329
410.453	17.671	820.719	623.489
411.467	17.773	819.829	623.132
412.482	17.809	819.610	623.042
413.496	17.793	819.525	622.863
414.511	17.899	818.775	622.624
415.526	17.921	818.564	622.488
416.540	17.732	818.363	621.593
417.555	17.866	817.487	621.361
418.569	17.843	817.232	621.026
419.584	18.017	816.630	621.149
420.599	17.941	816.203	620.492
421.613	103.760	1285.180	1440.224
422.628	89.531	1353.501	1440.308
