DTS Sentinel unit serial number:	SN413079Multiplexer serial number:	ORYXHardware model number:	OX4-SRSoftware version number:	ORYX F/W v4.00 Oryx Data Collector v3.7.2.0data status	okinstallation	princeton_trtdifferential loss correction	single-endedforward channel	channel 1reverse channel	N/Adate	2019/09/17time	17:50:35forward acquisition time	60.00reverse acquisition time	0.00gamma	496.2192k internal	0.2292k external	0.2292temperature offset calibration	0.9951default loss term (dB/km)	0.3790temperature slope calibration	1.0000multiplexer offset coefficient	1.0000multiplexer slope coefficient	1.0000fibre end	0.00T internal ref (°C)	43.45T ext. ref 1 (°C)	0.34T ext. ref 2 (°C)	38.82length (m)	temperature (°C)	Stokes	anti-Stokes-747.200	356.725	-0.024	0.049
-746.185	602.066	-0.112	0.285
-745.171	-106.243	-0.212	-0.049
-744.156	54.852	-0.189	0.187
-743.142	800.000	-0.072	0.268
-742.127	654.904	0.070	0.184
-741.112	800.000	-0.091	-0.259
-740.098	-200.000	-0.069	0.454
-739.083	292.296	0.241	-0.450
-738.069	326.535	-0.106	0.208
-737.054	-10.148	0.116	-0.079
-736.039	-55.720	0.165	0.075
-735.025	134.174	-0.095	0.126
-734.010	4.814	-0.166	-0.125
-732.996	-200.000	-0.073	-0.379
-731.981	-20.371	0.348	-0.219
-730.966	-191.004	-0.153	-0.002
-729.952	-82.757	0.317	-0.105
-728.937	-123.107	-0.200	-0.033
-727.923	-55.877	-0.176	0.080
-726.908	-78.288	-0.138	0.048
-725.894	183.658	-0.081	-0.122
-724.879	800.000	-0.065	-0.223
-723.864	186.335	-0.179	0.273
-722.850	-200.000	-0.015	-0.370
-721.835	800.000	-0.030	0.105
-720.821	-50.833	-0.160	-0.077
-719.806	-81.915	0.237	0.079
-718.791	-142.779	0.391	-0.039
-717.777	-175.801	-0.071	-0.002
-716.762	98.014	0.108	-0.127
-715.748	-90.929	0.321	-0.094
-714.733	46.422	-0.116	-0.110
-713.718	800.000	0.033	0.148
-712.704	134.344	0.059	0.078
-711.689	-18.283	0.155	-0.099
-710.675	-200.000	0.013	0.213
-709.660	-96.458	-0.179	-0.048
-708.645	800.000	0.100	-0.309
-707.631	800.000	-0.013	-0.043
-706.616	593.984	0.046	-0.117
-705.602	-66.473	0.150	0.061
-704.587	12.799	0.061	0.048
-703.572	304.882	0.115	0.218
-702.558	4.612	0.068	-0.051
-701.543	160.971	0.232	0.332
-700.529	102.602	0.262	-0.313
-699.514	800.000	-0.055	0.170
-698.499	800.000	-0.066	-0.280
-697.485	-73.641	-0.108	0.040
-696.470	10.153	-0.262	0.204
-695.456	-200.000	0.017	-0.089
-694.441	157.712	0.213	0.301
-693.426	-97.840	-0.213	0.056
-692.412	-109.524	-0.247	-0.053
-691.397	285.726	0.048	0.088
-690.383	216.969	-0.135	0.219
-689.368	109.515	0.072	-0.089
-688.354	-133.029	-0.229	-0.030
-687.339	-138.834	-0.258	-0.029
-686.324	-155.631	-0.086	0.006
-685.310	-16.404	-0.253	0.164
-684.295	-200.000	0.005	0.026
-683.281	58.352	0.204	-0.205
-682.266	120.155	0.056	-0.071
-681.251	-33.035	0.035	-0.020
-680.237	-200.000	0.030	0.256
-679.222	42.716	-0.074	-0.069
-678.208	48.506	-0.189	0.180
-677.193	-2.402	-0.289	-0.207
-676.178	-200.000	-0.069	-0.422
-675.164	-200.000	0.003	0.029
-674.149	-200.000	0.002	-0.033
-673.135	-86.897	0.152	-0.047
-672.120	-161.062	0.106	-0.006
-671.105	4.111	-0.173	-0.129
-670.091	456.240	0.260	0.588
-669.076	242.683	0.191	0.326
-668.062	112.706	-0.098	-0.121
-667.047	82.289	0.043	0.048
-666.032	-134.541	0.046	-0.006
-665.018	-200.000	-0.054	-0.292
-664.003	144.499	0.192	0.262
-662.989	-62.974	-0.171	0.072
-661.974	-200.000	0.011	-0.070
-660.959	-200.000	-0.011	-0.059
-659.945	59.592	-0.232	0.234
-658.930	13.826	0.299	0.237
-657.916	-200.000	-0.003	-0.112
-656.901	-150.285	0.149	-0.012
-655.886	-31.972	0.100	-0.057
-654.872	-200.000	-0.007	-0.215
-653.857	-125.876	-0.095	0.015
-652.843	9.852	0.444	-0.344
-651.828	-2.299	-0.125	-0.090
-650.814	0.315	0.148	-0.108
-649.799	97.738	-0.082	0.096
-648.784	-200.000	0.005	0.157
-647.770	127.740	0.098	-0.128
-646.755	92.940	-0.104	-0.120
-645.741	-46.366	-0.198	-0.099
-644.726	-75.079	-0.188	0.069
-643.711	-63.264	-0.414	0.174
-642.697	800.000	-0.024	0.081
-641.682	-200.000	-0.011	-0.057
-640.668	1.678	0.139	-0.102
-639.653	800.000	0.080	-0.263
-638.638	-32.492	0.260	0.148
-637.624	7.819	-0.098	-0.075
-636.609	800.000	0.099	-0.314
-635.595	-21.312	0.173	0.108
-634.580	127.035	-0.163	0.211
-633.565	-48.256	-0.341	0.168
-632.551	-92.459	0.215	-0.062
-631.536	248.943	-0.145	-0.251
-630.522	-110.538	0.039	0.008
-629.507	142.821	0.042	-0.056
-628.492	70.868	-0.150	-0.158
-627.478	-200.000	0.016	0.113
-626.463	800.000	0.071	0.206
-625.449	-50.021	-0.058	-0.028
-624.434	-133.389	-0.516	0.066
-623.419	341.394	-0.140	-0.279
-622.405	13.401	-0.200	0.158
-621.390	-64.542	0.103	0.043
-620.376	-200.000	0.126	-0.597
-619.361	-75.948	0.245	-0.088
-618.346	17.716	0.039	-0.032
-617.332	162.319	-0.056	-0.081
-616.317	102.444	0.132	0.158
-615.303	61.155	-0.074	-0.075
-614.288	-120.809	-0.485	-0.083
-613.273	-37.485	-0.239	0.130
-612.259	397.188	0.118	-0.252
-611.244	800.000	-0.021	-0.075
-610.230	33.072	-0.286	-0.253
-609.215	-200.000	0.033	0.270
-608.201	289.624	-0.153	0.283
-607.186	-7.574	0.149	-0.103
-606.171	-200.000	-0.004	-0.124
-605.157	800.000	-0.071	-0.293
-604.142	48.310	0.097	-0.093
-603.128	800.000	0.090	-0.273
-602.113	-200.000	-0.032	-0.175
-601.098	157.371	-0.091	-0.128
-600.084	51.716	0.088	-0.085
-599.069	-35.712	-0.056	0.031
-598.055	-10.490	0.107	-0.072
-597.040	-200.000	0.001	-0.262
-596.025	115.455	-0.148	0.184
-595.011	800.000	-0.101	-0.365
-593.996	-143.342	-0.134	-0.013
-592.982	160.607	-0.052	0.074
-591.967	-71.324	0.255	-0.097
-590.952	179.895	-0.216	-0.321
-589.938	-42.877	-0.080	-0.041
-588.923	514.558	-0.129	0.307
-587.909	131.689	0.161	-0.211
-586.894	-105.891	0.368	-0.085
-585.879	503.639	-0.065	-0.153
-584.865	-200.000	0.061	0.298
-583.850	-200.000	0.024	0.258
-582.836	-200.000	0.023	-0.135
-581.821	89.341	0.144	0.164
-580.806	-137.387	-0.063	0.007
-579.792	55.327	0.090	-0.089
-578.777	800.000	0.136	-0.446
-577.763	651.275	-0.145	0.379
-576.748	-174.335	-0.283	0.008
-575.733	-68.793	-0.347	0.136
-574.719	-101.259	-0.077	-0.019
-573.704	91.215	0.145	-0.166
-572.690	-200.000	0.000	0.180
-571.675	-70.227	0.095	0.037
-570.661	-200.000	-0.020	0.520
-569.646	-106.411	0.139	-0.032
-568.631	542.372	0.057	-0.138
-567.617	257.425	0.090	-0.157
-566.602	323.776	0.036	-0.070
-565.588	137.959	0.234	-0.312
-564.573	-120.206	-0.364	-0.063
-563.558	2.137	-0.123	0.090
-562.544	-80.063	0.361	-0.123
-561.529	210.581	0.059	-0.094
-560.515	-93.382	-0.244	0.069
-559.500	-179.565	-0.295	-0.007
-558.485	-101.908	0.384	-0.094
-557.471	-93.476	0.108	0.030
-556.456	192.152	0.208	0.318
-555.442	181.962	-0.219	-0.327
-554.427	227.074	0.140	-0.231
-553.412	-48.102	0.283	-0.139
-552.398	27.314	-0.163	-0.139
-551.383	-111.273	-0.145	-0.030
-550.369	-200.000	0.002	0.036
-549.354	800.000	-0.039	0.156
-548.339	800.000	-0.030	-0.086
-547.325	593.636	-0.064	-0.162
-546.310	-200.000	-0.006	-0.131
-545.296	800.000	-0.016	0.064
-544.281	800.000	0.118	0.442
-543.266	-51.963	-0.296	-0.140
-542.252	800.000	0.051	-0.216
-541.237	83.048	-0.233	0.258
-540.223	-114.899	-0.227	0.044
-539.208	76.679	-0.177	0.190
-538.193	-88.622	-0.177	0.054
-537.179	-200.000	-0.010	0.121
-536.164	-11.003	-0.093	0.062
-535.150	-72.945	-0.343	0.128
-534.135	146.684	-0.147	0.201
-533.121	-200.000	-0.318	-0.001
-532.106	-26.458	-0.145	-0.086
-531.091	384.233	0.129	-0.271
-530.077	800.000	-0.045	0.133
-529.062	-200.000	-0.002	-0.158
-528.048	-151.711	0.469	0.035
-527.033	-11.248	0.223	-0.149
-526.018	800.000	0.080	-0.262
-525.004	80.636	0.149	-0.163
-523.989	800.000	0.084	0.243
-522.975	-25.852	-0.290	0.174
-521.960	232.799	-0.053	0.088
-520.945	-146.807	0.351	-0.031
-519.931	-134.419	0.164	-0.020
-518.916	236.254	0.189	0.318
-517.902	-200.000	-0.025	0.215
-516.887	1.291	0.264	-0.192
-515.872	800.000	0.045	-0.133
-514.858	-200.000	-0.024	-0.213
-513.843	-176.957	0.192	-0.005
-512.829	-142.174	-0.375	-0.038
-511.814	198.511	0.230	-0.357
-510.799	-27.264	0.292	0.173
-509.785	-53.424	-0.139	-0.064
-508.770	-182.828	0.318	-0.006
-507.756	-63.137	-0.180	-0.075
-506.741	800.000	-0.076	-0.237
-505.726	-118.442	-0.237	-0.043
-504.712	-86.622	-0.051	0.016
-503.697	-137.714	-0.271	0.031
-502.683	470.217	-0.028	-0.064
-501.668	-160.767	0.058	-0.003
-500.653	-97.068	0.389	-0.103
-499.639	-34.358	-0.256	-0.143
-498.624	-113.268	-0.189	-0.038
-497.610	58.782	-0.247	0.246
-496.595	-200.000	0.043	-0.246
-495.581	800.000	0.102	0.341
-494.566	800.000	-0.107	0.322
-493.551	-64.043	0.133	-0.055
-492.537	113.649	-0.195	0.240
-491.522	-72.723	-0.180	0.067
-490.508	160.361	0.112	-0.159
-489.493	-14.842	-0.117	0.076
-488.478	-111.305	0.382	0.079
-487.464	65.004	-0.118	0.121
-486.449	-80.380	-0.190	0.064
-485.435	253.802	0.034	-0.058
-484.420	-200.000	-0.058	0.357
-483.405	93.756	0.125	0.144
-482.391	-98.400	0.197	-0.051
-481.376	-200.000	-0.066	-0.612
-480.362	-83.351	-0.124	-0.040
-479.347	116.118	-0.052	0.065
-478.332	424.035	0.102	0.221
-477.318	52.077	-0.009	0.009
-476.303	-1.119	0.263	-0.189
-475.289	-1.367	-0.262	-0.187
-474.274	762.156	-0.024	-0.065
-473.259	-113.269	-0.118	0.023
-472.245	800.000	-0.095	0.371
-471.230	-200.000	-0.024	0.219
-470.216	-200.000	0.022	-0.185
-469.201	800.000	-0.121	-0.391
-468.186	-200.000	-0.036	-0.236
-467.172	-135.240	0.204	-0.025
-466.157	349.227	-0.050	0.099
-465.143	-45.398	-0.234	0.118
-464.128	-200.000	-0.092	0.000
-463.113	78.994	-0.106	-0.115
-462.099	123.628	-0.016	-0.020
-461.084	-151.685	-0.173	0.013
-460.070	-200.000	0.015	0.277
-459.055	-182.672	0.242	0.004
-458.040	-89.629	-0.314	-0.093
-457.026	-61.564	-0.231	-0.098
-456.011	-200.000	0.027	-0.168
-454.997	211.579	0.033	-0.053
-453.982	138.844	-0.032	-0.043
-452.968	-69.843	0.064	0.025
-451.953	-200.000	-0.038	0.199
-450.938	129.994	0.096	0.124
-449.924	-98.932	0.173	-0.045
-448.909	-115.857	0.280	-0.053
-447.895	-119.678	0.257	0.045
-446.880	211.881	-0.061	-0.098
-445.865	187.622	-0.100	-0.151
-444.851	-200.000	-0.017	-0.352
-443.836	-107.716	-0.293	0.065
-442.822	59.146	0.133	0.132
-441.807	-200.000	0.022	-0.263
-440.792	-200.000	0.051	-0.255
-439.778	-200.000	-0.008	-0.201
-438.763	236.955	-0.207	-0.346
-437.749	-200.000	0.026	-0.263
-436.734	-200.000	0.060	-0.486
-435.719	-172.819	0.142	-0.004
-434.705	-200.000	0.017	0.180
-433.690	396.013	0.136	-0.286
-432.676	-15.599	0.090	-0.058
-431.661	131.627	0.267	-0.347
-430.646	-34.716	0.100	-0.055
-429.632	296.231	-0.178	0.329
-428.617	-200.000	0.013	0.067
-427.603	94.036	-0.161	0.184
-426.588	23.920	0.086	0.071
-425.573	-200.000	-0.044	-0.518
-424.559	-200.000	-0.008	0.401
-423.544	97.019	-0.188	0.218
-422.530	-69.417	0.186	0.072
-421.515	52.894	-0.094	-0.091
-420.500	36.534	0.192	0.172
-419.486	-7.885	-0.258	0.176
-418.471	603.823	0.060	0.150
-417.457	181.459	-0.103	0.153
-416.442	106.351	-0.123	0.147
-415.428	75.019	-0.021	-0.022
-414.413	90.406	0.156	-0.176
-413.398	21.777	-0.139	0.114
-412.384	-51.419	-0.242	0.114
-411.369	372.240	0.037	0.077
-410.355	-200.000	-0.003	0.226
-409.340	-110.712	0.401	0.084
-408.325	-93.340	-0.439	-0.123
-407.311	-200.000	-0.050	0.303
-406.296	50.118	0.269	0.257
-405.282	800.000	-0.038	-0.156
-404.267	158.639	0.199	0.279
-403.252	800.000	0.071	-0.253
-402.238	131.112	0.051	-0.066
-401.223	-28.425	0.281	-0.164
-400.209	800.000	0.016	0.068
-399.194	113.072	-0.095	-0.117
-398.179	-79.852	-0.124	0.042
-397.165	-200.000	-0.025	-0.267
-396.150	-200.000	-0.022	0.210
-395.136	-63.061	-0.301	-0.126
-394.121	-200.000	0.007	0.114
-393.106	334.214	-0.128	-0.250
-392.092	-102.293	0.082	-0.020
-391.077	-200.000	0.013	0.065
-390.063	69.952	0.304	-0.317
-389.048	72.810	0.193	-0.203
-388.033	353.423	0.058	0.116
-387.019	-30.394	0.046	-0.026
-386.004	-200.000	0.007	0.232
-384.990	-36.970	0.154	0.083
-383.975	480.856	-0.056	0.127
-382.960	83.829	0.278	-0.307
-381.946	-112.897	-0.103	-0.021
-380.931	354.926	-0.061	-0.123
-379.917	-121.351	-0.139	0.023
-378.902	800.000	-0.038	0.168
-377.888	48.089	0.157	0.148
-376.873	187.061	-0.085	-0.128
-375.858	-82.014	0.279	0.092
-374.844	-200.000	-0.012	0.067
-373.829	800.000	-0.056	0.190
-372.815	-200.000	-0.003	-0.094
-371.800	230.822	0.068	-0.113
-370.785	-63.134	-0.134	-0.056
-369.771	19.137	0.031	-0.025
-368.756	66.919	0.099	-0.101
-367.742	-82.069	-0.101	-0.033
-366.727	328.481	0.096	-0.187
-365.712	-108.874	-0.283	0.061
-364.698	4.454	0.263	0.195
-363.683	247.192	-0.055	0.093
-362.669	-83.908	0.278	0.089
-361.654	131.103	0.125	-0.162
-360.639	-200.000	-0.002	-0.219
-359.625	800.000	0.034	-0.102
-358.610	800.000	0.072	-0.290
-357.596	-133.388	-0.179	0.023
-356.581	-200.000	0.001	0.014
-355.566	800.000	0.072	-0.219
-354.552	399.022	0.192	-0.406
-353.537	-200.000	0.077	0.000
-352.523	162.621	0.209	0.296
-351.508	-200.000	0.007	0.134
-350.493	-117.060	0.126	-0.023
-349.479	425.236	0.099	0.215
-348.464	208.505	0.124	0.195
-347.450	487.651	0.020	-0.047
-346.435	-78.569	0.292	-0.101
-345.420	100.432	-0.071	-0.084
-344.406	-200.000	0.051	0.277
-343.391	-81.326	-0.206	-0.068
-342.377	-127.961	0.295	0.043
-341.362	476.493	-0.085	0.193
-340.348	-200.000	0.016	0.098
-339.333	-28.436	0.549	-0.319
-338.318	-12.171	0.290	-0.191
-337.304	-8.015	0.119	0.081
-336.289	431.809	0.127	0.278
-335.275	176.484	-0.076	-0.111
-334.260	71.901	-0.028	-0.029
-333.245	-200.000	-0.031	-0.249
-332.231	294.529	0.087	0.160
-331.216	-151.766	0.213	-0.016
-330.202	619.998	0.070	0.178
-329.187	-30.693	0.188	0.107
-328.172	115.351	0.032	-0.040
-327.158	-54.519	0.133	-0.061
-326.143	800.000	0.049	-0.188
-325.129	224.536	0.131	0.213
-324.114	-37.940	-0.122	0.065
-323.099	86.410	-0.042	0.046
-322.085	215.612	-0.073	-0.117
-321.070	533.343	0.132	0.314
-320.056	-159.365	-0.056	-0.003
-319.041	725.644	0.052	-0.141
-318.026	-28.973	0.172	0.100
-317.012	800.000	-0.125	0.521
-315.997	522.969	0.099	0.235
-314.983	-200.000	0.003	0.165
-313.968	36.411	-0.231	0.205
-312.953	168.905	0.078	-0.111
-311.939	22.064	-0.219	-0.180
-310.924	83.584	-0.163	0.179
-309.910	143.087	0.104	0.139
-308.895	-200.000	0.027	0.122
-307.880	800.000	-0.070	0.216
-306.866	280.632	0.184	0.331
-305.851	252.843	0.047	0.081
-304.837	-163.462	-0.276	0.013
-303.822	74.240	0.118	0.125
-302.807	-161.473	-0.186	0.010
-301.793	432.680	-0.040	0.088
-300.778	-87.275	-0.158	0.048
-299.764	-59.231	-0.085	0.037
-298.749	-200.000	-0.017	-0.245
-297.735	-96.202	0.520	-0.139
-296.720	-200.000	0.008	-0.304
-295.705	273.969	0.118	0.210
-294.691	-140.186	0.065	-0.007
-293.676	-81.968	-0.124	0.041
-292.662	-140.860	-0.092	0.010
-291.647	-6.243	-0.137	-0.094
-290.632	82.873	-0.202	0.220
-289.618	-146.267	-0.027	-0.002
-288.603	-88.534	-0.089	0.027
-287.589	-24.463	-0.376	0.225
-286.574	-38.787	0.243	0.129
-285.559	-65.440	0.159	0.064
-284.545	-47.371	-0.160	-0.078
-283.530	-78.716	-0.215	-0.074
-282.516	-138.890	-0.217	0.024
-281.501	15.979	0.194	0.154
-280.486	-194.429	-0.055	0.000
-279.472	111.500	-0.227	0.275
-278.457	21.103	-0.133	0.109
-277.443	3.969	-0.113	-0.083
-276.428	37.723	0.020	-0.018
-275.413	-118.418	0.328	-0.058
-274.399	392.702	-0.083	-0.174
-273.384	-63.676	-0.148	0.061
-272.370	-152.824	-0.019	-0.001
-271.355	727.217	0.212	0.568
-270.340	-163.344	0.115	-0.005
-269.326	553.032	-0.082	-0.197
-268.311	154.655	0.033	0.045
-267.297	800.000	0.035	0.127
-266.282	-116.288	-0.114	-0.021
-265.267	24.134	-0.139	-0.116
-264.253	10.366	0.195	0.149
-263.238	136.968	0.158	0.207
-262.224	-200.000	0.015	0.262
-261.209	-88.886	0.242	0.072
-260.195	-200.000	-0.039	-0.172
-259.180	800.000	0.059	0.236
-258.165	-36.754	0.183	-0.099
-257.151	-140.475	0.330	0.034
-256.136	-56.355	0.085	-0.038
-255.122	-200.000	-0.039	-0.179
-254.107	-200.000	0.000	0.130
-253.092	-147.613	0.042	-0.004
-252.078	125.144	-0.251	-0.317
-251.063	11.048	-0.106	0.082
-250.049	-200.000	-0.027	0.200
-249.034	-200.000	0.000	-0.069
-248.019	-132.774	-0.203	0.026
-247.005	-87.076	0.163	0.050
-245.990	181.113	0.326	-0.480
-244.976	-200.000	0.011	-0.230
-243.961	741.114	-0.124	0.335
-242.946	-200.000	0.027	-0.269
-241.932	-147.538	0.358	-0.030
-240.917	182.733	-0.102	-0.151
-239.903	-68.133	0.234	0.092
-238.888	-200.000	-0.002	0.012
-237.873	-45.613	-0.341	0.169
-236.859	-118.733	-0.011	0.002
-235.844	-43.628	-0.180	0.091
-234.830	-82.137	0.214	0.070
-233.815	-116.428	0.107	-0.020
-232.800	-68.680	-0.337	-0.131
-231.786	-163.967	-0.461	0.022
-230.771	-79.263	0.197	0.067
-229.757	-200.000	0.019	0.106
-228.742	526.970	0.065	0.153
-227.727	137.785	-0.130	-0.171
-226.713	46.856	-0.218	0.203
-225.698	-0.005	0.338	-0.241
-224.684	46.847	0.237	0.221
-223.669	91.326	0.145	0.163
-222.655	-159.853	0.143	-0.008
-221.640	157.361	0.080	0.111
-220.625	-1.008	0.136	0.097
-219.611	160.899	0.116	-0.162
-218.596	-21.897	-0.345	0.210
-217.582	669.964	-0.102	0.264
-216.567	-183.295	-0.331	-0.006
-215.552	213.580	0.227	0.359
-214.538	82.213	-0.149	0.162
-213.523	40.404	-0.206	-0.186
-212.509	800.000	-0.005	0.021
-211.494	92.942	0.067	-0.076
-210.479	-200.000	-0.020	-0.182
-209.465	8.673	0.054	-0.041
-208.450	17.528	-0.230	-0.183
-207.436	261.401	-0.101	0.176
-206.421	-200.000	0.019	0.336
-205.406	142.310	0.181	-0.241
-204.392	-34.518	0.132	-0.073
-203.377	-136.702	0.207	-0.024
-202.363	119.429	-0.017	-0.021
-201.348	-17.677	0.130	-0.082
-200.333	233.577	-0.139	0.229
-199.319	32.597	-0.317	0.275
-198.304	-73.100	0.154	-0.057
-197.290	63.218	0.077	-0.077
-196.275	-83.338	-0.108	-0.035
-195.260	61.256	0.258	-0.256
-194.246	-93.931	-0.162	-0.045
-193.231	42.448	-0.233	-0.212
-192.217	-200.000	-0.043	-0.240
-191.202	94.616	0.162	0.184
-190.187	-97.644	0.216	-0.056
-189.173	317.250	-0.205	0.388
-188.158	-200.000	-0.025	-0.137
-187.144	-32.851	-0.163	0.090
-186.129	464.322	-0.053	0.119
-185.114	-120.367	0.084	-0.014
-184.100	-200.000	-0.009	0.142
-183.085	-120.717	0.165	-0.028
-182.071	-120.137	-0.150	-0.026
-181.056	800.000	-0.085	-0.322
-180.042	-145.427	0.064	0.006
-179.027	46.124	0.179	-0.166
-178.012	-185.946	0.270	0.004
-176.998	-200.000	-0.033	-0.166
-175.983	-39.476	-0.217	-0.114
-174.969	-52.707	0.173	0.080
-173.954	-200.000	-0.024	0.280
-172.939	-78.585	-0.125	-0.043
-171.925	800.000	0.036	0.133
-170.910	190.249	-0.055	-0.083
-169.896	0.884	-0.335	-0.240
-168.881	800.000	0.069	-0.280
-167.866	800.000	-0.068	0.205
-166.852	-200.000	-0.001	0.046
-165.837	-131.681	-0.239	-0.031
-164.823	-106.831	0.386	-0.086
-163.808	15.299	-0.140	0.110
-162.793	-180.348	0.107	0.002
-161.779	-200.000	-0.030	0.368
-160.764	148.606	0.144	0.195
-159.750	-200.000	0.020	0.329
-158.735	-200.000	-0.007	0.259
-157.720	-21.817	-0.113	-0.069
-156.706	-145.164	0.203	-0.018
-155.691	-200.000	0.032	0.144
-154.677	9.754	0.093	-0.070
-153.662	-119.473	-0.199	-0.034
-152.647	63.465	-0.075	0.075
-151.633	27.034	-0.225	-0.189
-150.618	-22.038	0.194	0.118
-149.604	-123.906	-0.158	0.025
-148.589	-200.000	0.032	-0.194
-147.574	-130.805	0.211	0.028
-146.560	-200.000	-0.005	-0.280
-145.545	-159.137	0.113	0.006
-144.531	195.798	-0.109	0.165
-143.516	-40.183	0.245	-0.128
-142.502	-35.835	-0.274	0.149
-141.487	800.000	-0.055	0.171
-140.472	12.382	0.250	-0.193
-139.458	55.418	-0.069	0.067
-138.443	800.000	0.046	0.179
-137.429	-147.277	-0.243	-0.021
-136.414	800.000	-0.075	0.284
-135.399	94.862	0.120	0.137
-134.385	-27.854	-0.446	-0.258
-133.370	-63.824	-0.033	-0.013
-132.356	-131.106	0.115	0.015
-131.341	-17.558	0.285	0.179
-130.326	3.077	0.185	0.134
-129.312	215.152	-0.141	0.224
-128.297	-105.789	-0.184	0.042
-127.283	469.754	0.116	0.260
-126.268	25.141	-0.235	0.195
-125.253	-200.000	-0.038	0.260
-124.239	-200.000	-0.113	0.559
-123.224	-200.000	-0.031	-0.163
-122.210	12.628	0.350	-0.270
-121.195	-200.000	0.037	0.312
-120.180	-20.924	0.204	0.125
-119.166	-200.000	0.026	0.212
-118.151	-42.876	0.225	0.114
-117.137	766.613	-0.147	0.399
-116.122	76.027	0.071	0.075
-115.107	127.851	-0.058	-0.073
-114.093	-91.021	-0.378	-0.109
-113.078	-200.000	-0.031	-0.196
-112.064	-135.824	0.258	0.030
-111.049	144.089	-0.070	0.093
-110.034	-56.938	0.037	0.016
-109.020	-200.000	-0.028	-0.128
-108.005	-78.027	-0.176	0.060
-106.991	-70.711	-0.072	0.027
-105.976	274.531	0.075	0.133
-104.962	52.299	0.156	0.148
-103.947	249.255	0.145	-0.245
-102.932	219.708	-0.023	0.037
-101.918	800.000	-0.043	0.128
-100.903	155.410	-0.058	-0.080
-99.889	108.107	0.232	0.276
-98.874	800.000	0.176	0.568
-97.859	23.178	0.086	-0.071
-96.845	385.717	-0.137	-0.283
-95.830	13.859	-0.164	-0.127
-94.816	212.769	0.196	0.309
-93.801	17.866	-0.282	0.224
-92.786	-102.055	0.183	-0.044
-91.772	-74.311	-0.206	0.074
-90.757	-67.473	-0.149	-0.059
-89.743	-200.000	0.003	0.118
-88.728	-11.360	-0.051	-0.033
-87.713	800.000	-0.142	0.453
-86.699	-107.507	-0.266	-0.058
-85.684	72.089	0.078	-0.081
-84.670	74.107	-0.062	0.065
-83.655	-92.992	-0.227	0.063
-82.640	-63.870	0.306	0.125
-81.626	-127.347	0.171	0.025
-80.611	800.000	0.099	0.286
-79.597	195.334	-0.224	-0.340
-78.582	60.337	0.214	-0.211
-77.567	258.951	0.168	0.289
-76.553	135.654	0.068	-0.088
-75.538	-200.000	0.004	0.042
-74.524	800.000	0.063	0.264
-73.509	-67.641	-0.306	0.119
-72.494	-35.613	-0.223	0.120
-71.480	285.637	0.040	0.072
-70.465	760.810	0.079	-0.215
-69.451	162.365	0.175	-0.245
-68.436	-86.727	-0.190	-0.058
-67.422	122.100	0.021	0.026
-66.407	467.986	-0.043	-0.095
-65.392	-148.229	0.125	-0.010
-64.378	-78.219	-0.027	-0.009
-63.363	-200.000	0.028	-0.441
-62.349	201.296	0.037	0.057
-61.334	32.817	-0.460	-0.397
-60.319	86.746	-0.068	0.075
-59.305	-200.000	0.010	-0.814
-58.290	181.394	0.307	0.450
-57.276	270.447	0.680	1.192
-56.261	-200.000	72.289	551.178
-55.246	567.677	1304.310	3156.327
-54.232	137.487	2572.217	3354.174
-53.217	120.977	2257.866	2798.819
-52.203	56.558	1690.389	1638.372
-51.188	47.749	1404.652	1306.279
-50.173	43.834	1357.144	1238.173
-49.159	62.010	1388.946	1379.408
-48.144	70.777	1407.714	1451.762
-47.130	47.907	1371.743	1276.444
-46.115	43.564	1354.957	1234.330
-45.100	43.370	1350.324	1228.884
-44.086	43.314	1347.423	1225.850
-43.071	43.299	1345.690	1224.134
-42.057	43.312	1343.114	1221.825
-41.042	43.226	1341.191	1219.504
-40.027	43.363	1339.968	1219.170
-39.013	43.342	1337.694	1216.931
-37.998	43.402	1335.449	1215.197
-36.984	43.430	1333.789	1213.806
-35.969	43.473	1332.070	1212.454
-34.954	43.578	1330.418	1211.529
-33.940	43.530	1329.393	1210.264
-32.925	43.536	1328.175	1209.142
-31.911	43.566	1326.402	1207.657
-30.896	43.516	1324.765	1205.822
-29.881	43.615	1322.950	1204.711
-28.867	43.541	1322.275	1203.607
-27.852	43.544	1320.675	1202.122
-26.838	43.597	1318.789	1200.670
-25.823	43.665	1317.123	1199.514
-24.809	43.551	1316.118	1197.875
-23.794	43.556	1314.875	1196.722
-22.779	43.652	1313.203	1195.722
-21.765	43.532	1312.467	1194.298
-20.750	43.541	1310.759	1192.745
-19.736	43.414	1309.614	1190.907
-18.721	43.493	1308.375	1190.200
-17.706	43.291	1307.333	1188.015
-16.692	43.299	1306.318	1187.095
-15.677	43.442	1304.870	1186.570
-14.663	43.501	1303.164	1185.320
-13.648	43.236	1302.493	1183.107
-12.633	43.440	1301.494	1183.349
-11.619	43.414	1300.351	1182.108
-10.604	43.438	1299.600	1181.518
-9.590	43.337	1298.642	1180.015
-8.575	43.331	1297.884	1179.239
-7.560	43.276	1297.119	1178.181
-6.546	43.285	1295.833	1177.016
-5.531	43.285	1294.990	1176.206
-4.517	43.514	1293.796	1176.408
-3.502	43.305	1293.489	1174.865
-2.487	43.496	1291.908	1174.490
-1.473	43.523	1288.789	1171.767
-0.458	42.662	1273.183	1152.594
0.556	36.565	1251.971	1105.938
1.571	30.710	1253.358	1073.415
2.586	28.046	1266.309	1068.857
3.600	25.807	1254.971	1046.206
4.615	18.367	1177.189	940.576
5.629	6.664	1091.960	812.448
6.644	0.772	1067.274	764.294
7.659	0.271	1064.517	759.726
8.673	0.094	1063.351	757.938
9.688	0.235	1061.307	757.124
10.702	0.311	1060.763	757.051
11.717	5.731	1068.850	790.133
12.731	14.842	1079.973	844.510
13.746	17.991	1082.781	862.558
14.761	17.040	1081.643	856.775
15.775	16.147	1079.109	850.194
16.790	15.066	1077.099	843.091
17.804	14.405	1075.412	838.374
18.819	13.867	1074.684	835.025
19.834	13.668	1073.534	833.058
20.848	13.359	1072.530	830.653
21.863	13.182	1071.672	829.026
22.877	13.011	1071.076	827.633
23.892	12.922	1070.502	826.673
24.907	13.072	1069.397	826.499
25.921	12.995	1068.934	825.680
26.936	13.045	1067.996	825.132
27.950	13.227	1066.421	824.754
28.965	13.039	1066.480	823.788
29.980	13.070	1064.600	822.416
30.994	13.230	1063.272	822.113
32.009	13.223	1062.436	821.357
33.023	13.289	1061.383	820.798
34.038	13.153	1060.277	819.197
35.053	13.154	1059.673	818.664
36.067	13.223	1058.775	818.239
37.082	13.148	1057.877	817.101
38.096	13.185	1057.115	816.622
39.111	13.145	1056.661	816.001
40.126	13.082	1055.304	814.571
41.140	13.028	1053.689	812.988
42.155	13.026	1052.964	812.348
43.169	12.963	1051.939	811.174
44.184	12.888	1050.904	809.936
45.199	13.108	1049.602	809.940
46.213	13.036	1048.549	808.703
47.228	13.019	1047.720	807.910
48.242	12.916	1046.850	806.661
49.257	13.129	1045.366	806.489
50.271	12.998	1045.064	805.545
51.286	13.030	1044.282	805.027
52.301	13.237	1043.062	805.025
53.315	13.118	1042.009	803.559
54.330	13.053	1040.900	802.316
55.344	13.053	1040.170	801.682
56.359	13.078	1039.382	801.129
57.374	12.951	1038.758	799.958
58.388	12.977	1037.389	798.961
59.403	12.968	1036.788	798.381
60.417	13.021	1035.733	797.756
61.432	12.957	1035.016	796.822
62.447	12.947	1034.204	796.078
63.461	12.891	1033.994	795.577
64.476	12.958	1032.645	794.791
65.490	12.797	1032.102	793.531
66.505	13.107	1030.980	794.089
67.520	12.896	1031.007	793.021
68.534	12.872	1030.232	792.244
69.549	12.883	1029.168	791.407
70.563	12.929	1028.158	790.781
71.578	12.926	1027.636	790.295
72.593	12.849	1026.934	789.317
73.607	12.717	1026.304	788.130
74.622	12.878	1025.472	788.192
75.636	12.882	1024.719	787.562
76.651	12.754	1024.318	786.574
77.666	12.828	1023.663	786.353
78.680	12.941	1022.493	785.922
79.695	12.958	1021.831	785.425
80.709	12.962	1021.022	784.754
81.724	12.982	1020.199	784.149
82.739	12.910	1019.941	783.535
83.753	13.074	1019.150	783.636
84.768	13.180	1017.648	782.917
85.782	13.259	1016.791	782.560
86.797	13.141	1016.357	781.601
87.812	13.098	1015.230	780.459
88.826	13.067	1014.317	779.544
89.841	13.033	1013.407	778.616
90.855	13.220	1012.211	778.507
91.870	13.211	1011.713	778.015
92.884	13.245	1010.699	777.323
93.899	13.198	1010.046	776.534
94.914	13.263	1009.273	776.176
95.928	13.287	1008.140	775.350
96.943	13.257	1007.263	774.467
97.957	13.162	1006.944	773.705
98.972	13.222	1005.758	773.004
99.987	13.295	1004.636	772.416
101.001	13.218	1003.873	771.402
102.016	13.137	1003.252	770.479
103.030	13.297	1002.033	770.219
104.045	13.369	1001.071	769.746
105.060	13.205	1000.452	768.440
106.074	13.172	999.551	767.528
107.089	13.093	998.602	766.367
108.103	13.050	997.619	765.344
109.118	13.124	996.609	764.842
110.133	13.122	995.983	764.287
111.147	13.146	994.980	763.561
112.162	13.040	994.350	762.518
113.176	13.095	993.508	762.057
114.191	13.171	993.061	761.997
115.206	13.084	992.008	760.724
116.220	13.133	991.399	760.414
117.235	13.090	990.458	759.429
118.249	13.055	989.580	758.525
119.264	13.030	988.786	757.737
120.279	13.104	987.899	757.329
121.293	13.150	987.055	756.825
122.308	13.074	985.984	755.589
123.322	13.138	985.009	755.066
124.337	13.048	984.126	753.915
125.352	13.044	982.923	752.909
126.366	13.111	981.900	752.364
127.381	13.235	980.903	752.096
128.395	13.000	980.244	750.454
129.410	13.237	979.164	750.639
130.424	13.144	978.305	749.493
131.439	13.173	977.737	749.119
132.454	13.260	976.794	748.725
133.468	13.410	975.819	748.595
134.483	13.238	975.105	747.198
135.497	13.230	974.267	746.455
136.512	13.275	973.268	745.827
137.527	13.231	972.409	744.906
138.541	13.323	971.970	744.919
139.556	13.350	971.165	744.355
140.570	13.339	970.526	743.753
141.585	13.460	969.415	743.377
142.600	13.467	968.770	742.847
143.614	13.395	967.987	741.862
144.629	13.377	967.612	741.423
145.643	13.313	966.723	740.395
146.658	13.359	965.139	739.318
147.673	13.317	964.390	738.494
148.687	13.475	963.209	738.228
149.702	13.361	962.396	737.030
150.716	13.175	962.101	735.912
151.731	13.194	961.628	735.572
152.746	13.306	960.622	735.232
153.760	13.361	959.813	734.793
154.775	13.382	959.330	734.452
155.789	13.454	958.339	733.945
156.804	13.510	957.570	733.542
157.819	13.509	956.950	732.997
158.833	13.480	956.641	732.566
159.848	13.416	955.786	731.564
160.862	13.490	954.547	730.878
161.877	13.427	953.842	729.997
162.892	13.349	953.088	729.009
163.906	13.418	952.102	728.496
164.921	13.355	951.038	727.340
165.935	13.299	949.997	726.235
166.950	13.398	949.334	726.099
167.964	13.540	948.511	726.024
168.979	13.477	947.486	724.900
169.994	13.480	946.460	724.067
171.008	13.412	946.178	723.489
172.023	13.546	945.457	723.460
173.037	13.637	944.482	723.045
174.052	13.564	944.047	722.327
175.067	13.493	943.218	721.321
176.081	13.581	942.774	721.300
177.096	13.564	942.161	720.696
178.110	13.543	941.456	720.001
179.125	13.504	941.093	719.489
180.140	13.607	940.655	719.537
181.154	13.607	940.076	719.032
182.169	13.720	939.386	718.930
183.183	13.686	938.984	718.411
184.198	13.761	937.874	717.824
185.213	13.758	937.233	717.256
186.227	13.753	936.342	716.491
187.242	13.781	935.727	716.075
188.256	13.711	935.423	715.481
189.271	13.733	934.534	714.830
190.286	13.662	933.615	713.756
191.300	13.527	933.234	712.824
192.315	13.627	932.569	712.683
193.329	13.584	931.938	711.951
194.344	13.689	931.385	711.917
195.359	13.734	930.593	711.442
196.373	13.798	930.030	711.221
197.388	13.869	929.449	711.022
198.402	13.922	929.258	711.040
199.417	13.949	928.360	710.403
200.432	13.959	928.044	710.140
201.446	14.067	927.256	709.937
202.461	14.111	926.592	709.554
203.475	14.043	926.042	708.780
204.490	14.008	925.371	708.054
205.504	13.997	924.706	707.435
206.519	14.186	923.265	707.074
207.534	14.085	922.998	706.378
208.548	13.969	922.459	705.411
209.563	13.913	922.297	704.984
210.577	13.860	921.575	704.148
211.592	14.118	920.702	704.512
212.607	14.070	919.780	703.542
213.621	14.151	918.951	703.187
214.636	14.146	918.398	702.680
215.650	14.182	917.728	702.257
216.665	14.085	917.166	701.357
217.680	14.110	916.453	700.855
218.694	14.249	915.738	700.829
219.709	14.213	915.176	700.186
220.723	14.382	913.888	699.850
221.738	14.230	913.653	698.969
222.753	14.255	912.964	698.486
223.767	14.322	912.429	698.294
224.782	14.279	912.163	697.850
225.796	14.437	911.636	698.047
226.811	14.327	910.922	696.976
227.826	14.295	910.002	696.076
228.840	14.224	909.529	695.359
229.855	14.257	908.388	694.560
230.869	14.370	907.648	694.406
231.884	14.319	907.249	693.827
232.899	14.345	906.148	693.032
233.913	14.383	905.785	692.849
234.928	14.326	904.987	691.943
235.942	14.296	904.769	691.588
236.957	14.257	903.897	690.701
237.972	14.352	902.867	690.245
238.986	14.397	902.774	690.299
240.001	14.421	902.033	689.772
241.015	14.344	901.479	688.967
242.030	14.416	900.738	688.636
243.045	14.447	900.169	688.268
244.059	14.528	899.453	687.997
245.074	14.503	898.762	687.304
246.088	14.478	898.037	686.586
247.103	14.559	897.498	686.444
248.117	14.485	897.415	686.016
249.132	14.640	897.019	686.292
250.147	14.580	896.618	685.677
251.161	14.659	895.386	685.000
252.176	14.655	894.743	684.431
253.190	14.764	893.878	684.153
254.205	14.753	893.315	683.616
255.220	14.839	892.670	683.415
256.234	14.824	892.032	682.804
257.249	14.979	891.017	682.598
258.263	14.859	890.404	681.581
259.278	14.961	889.421	681.183
260.293	15.044	888.797	680.984
261.307	14.998	888.721	680.675
262.322	14.910	888.293	679.930
263.336	15.048	887.097	679.517
264.351	15.073	886.321	678.962
265.366	15.043	886.025	678.554
266.380	15.025	885.816	678.262
267.395	15.035	884.527	677.256
268.409	14.955	883.950	676.428
269.424	14.993	883.275	676.008
270.439	15.120	882.483	675.852
271.453	14.976	881.952	674.806
272.468	15.006	881.595	674.594
273.482	15.060	881.219	674.464
274.497	15.145	880.379	674.103
275.512	15.066	879.893	673.354
276.526	15.108	879.188	672.923
277.541	15.213	878.179	672.513
278.555	15.240	877.535	672.070
279.570	15.340	877.133	672.104
280.585	15.279	876.572	671.367
281.599	15.297	875.181	670.317
282.614	15.234	874.881	669.773
283.628	15.249	874.365	669.382
284.643	15.350	873.656	669.183
285.657	15.182	873.327	668.200
286.672	15.319	872.541	668.086
287.687	15.213	871.932	667.139
288.701	15.346	870.866	666.790
289.716	15.258	870.954	666.452
290.730	15.329	870.235	666.126
291.745	15.347	869.513	665.583
292.760	15.366	868.773	665.034
293.774	15.456	868.401	665.047
294.789	15.521	867.984	664.925
295.803	15.485	866.587	663.656
296.818	15.288	866.607	662.831
297.833	15.420	865.699	662.602
298.847	15.494	864.867	662.196
299.862	15.498	864.123	661.583
300.876	15.606	863.955	661.824
301.891	15.619	863.266	661.287
302.906	15.620	862.573	660.701
303.920	15.673	862.154	660.531
304.935	15.645	861.881	660.155
305.949	15.630	861.324	659.610
306.964	15.604	860.643	658.929
307.979	15.607	860.361	658.666
308.993	15.669	859.559	658.235
310.008	15.672	858.991	657.752
311.022	15.601	858.220	656.829
312.037	15.669	857.693	656.633
313.052	15.628	857.010	655.891
314.066	15.624	856.682	655.568
315.081	15.541	856.108	654.746
316.095	15.741	855.203	654.776
317.110	15.712	854.888	654.361
318.125	15.782	854.272	654.107
319.139	15.679	853.901	653.363
320.154	15.759	853.291	653.150
321.168	15.634	852.792	652.224
322.183	15.666	852.512	652.075
323.197	15.812	851.645	651.923
324.212	15.785	851.066	651.315
325.227	15.756	850.711	650.876
326.241	15.785	850.047	650.422
327.256	15.857	849.627	650.319
328.270	15.814	848.885	649.529
329.285	15.788	848.331	648.949
330.300	15.795	847.869	648.562
331.314	15.743	847.464	647.994
332.329	15.827	846.798	647.752
333.343	15.853	846.622	647.662
334.358	15.915	846.118	647.455
335.373	15.944	845.593	647.107
336.387	16.013	844.989	646.852
337.402	16.188	844.612	647.180
338.416	16.179	844.336	646.877
339.431	16.040	843.714	645.811
340.446	16.058	843.635	645.763
341.460	16.100	843.201	645.532
342.475	16.131	842.836	645.315
343.489	16.175	842.190	644.931
344.504	16.451	841.557	645.443
345.519	16.238	841.405	644.456
346.533	16.211	840.768	643.809
347.548	16.287	840.017	643.466
348.562	16.167	839.591	642.626
349.577	16.094	839.302	642.070
350.592	16.195	838.474	641.762
351.606	16.163	838.135	641.327
352.621	16.323	836.834	640.880
353.635	16.259	836.303	640.173
354.650	16.299	835.948	639.998
355.665	16.328	835.249	639.516
356.679	16.372	834.447	639.011
357.694	16.425	833.998	638.814
358.708	16.355	833.554	638.150
359.723	16.363	832.869	637.599
360.738	16.412	832.004	637.067
361.752	16.430	831.566	636.742
362.767	16.461	830.923	636.312
363.781	16.433	830.485	635.813
364.796	16.369	830.362	635.423
365.810	16.617	829.630	635.740
366.825	16.605	829.338	635.414
367.840	16.620	828.719	634.938
368.854	16.533	828.261	634.205
369.869	16.569	827.822	633.949
370.883	16.525	827.847	633.747
371.898	16.663	827.250	633.748
372.913	16.675	826.898	633.470
373.927	16.779	825.984	633.100
374.942	16.648	825.397	632.105
375.956	16.824	825.286	632.621
376.971	16.773	824.702	631.929
377.986	16.788	824.015	631.400
379.000	16.755	823.674	630.960
380.015	16.807	823.453	630.929
381.029	16.934	822.727	630.789
382.044	16.886	821.883	629.908
383.059	16.977	821.835	630.154
384.073	16.815	821.077	628.916
385.088	16.868	820.387	628.528
386.102	16.783	819.894	627.779
387.117	16.905	819.432	627.824
388.132	16.900	818.915	627.351
389.146	16.983	817.853	626.789
390.161	17.030	817.767	626.844
391.175	16.994	817.401	626.374
392.190	16.877	816.847	625.463
393.205	17.015	816.741	625.833
394.219	16.782	816.446	624.694
395.234	16.836	816.090	624.567
396.248	17.035	815.250	624.601
397.263	16.867	814.848	623.618
398.278	16.948	814.490	623.586
399.292	16.883	814.065	622.967
400.307	16.924	813.636	622.734
401.321	16.880	812.994	622.026
402.336	16.923	812.786	621.970
403.350	16.991	812.066	621.614
404.365	17.055	811.758	621.558
405.380	17.112	811.231	621.307
406.394	17.086	810.531	620.621
407.409	17.248	810.393	621.053
408.423	17.109	810.021	620.205
409.438	17.191	809.590	620.118
410.453	17.376	808.650	620.020
411.467	17.283	808.546	619.545
412.482	17.257	808.197	619.129
413.496	17.381	807.559	619.036
414.511	17.426	807.367	618.998
415.526	17.285	807.334	618.405
416.540	17.373	806.584	618.095
417.555	17.494	805.944	617.988
418.569	17.524	805.730	617.880
419.584	17.555	805.115	617.466
420.599	17.353	804.885	616.503
421.613	82.576	1246.788	1306.087
422.628	70.222	1311.196	1306.207
