DTS Sentinel unit serial number:	SN413079Multiplexer serial number:	ORYXHardware model number:	OX4-SRSoftware version number:	ORYX F/W v4.00 Oryx Data Collector v3.7.2.0data status	okinstallation	princeton_trtdifferential loss correction	single-endedforward channel	channel 1reverse channel	N/Adate	2019/09/18time	23:06:35forward acquisition time	60.00reverse acquisition time	0.00gamma	496.2192k internal	0.2341k external	0.2341temperature offset calibration	1.0016default loss term (dB/km)	0.3790temperature slope calibration	1.0000multiplexer offset coefficient	1.0000multiplexer slope coefficient	1.0000fibre end	0.00T internal ref (°C)	24.00T ext. ref 1 (°C)	0.78T ext. ref 2 (°C)	17.65length (m)	temperature (°C)	Stokes	anti-Stokes-747.200	-119.796	-0.322	-0.056
-746.185	-56.229	0.137	-0.061
-745.171	684.347	0.047	-0.124
-744.156	-87.355	-0.481	-0.146
-743.142	-92.208	0.010	0.003
-742.127	239.377	-0.035	0.058
-741.112	-26.109	-0.061	-0.036
-740.098	638.173	-0.151	0.386
-739.083	67.431	-0.141	0.144
-738.069	-200.000	-0.041	0.241
-737.054	181.724	0.038	0.056
-736.039	-144.126	-0.430	0.040
-735.025	313.069	0.135	0.253
-734.010	-66.037	0.007	0.003
-732.996	22.806	-0.220	0.180
-731.981	-126.132	-0.179	0.027
-730.966	438.994	0.095	-0.207
-729.952	-58.747	-0.198	0.086
-728.937	742.903	0.005	0.014
-727.923	366.273	-0.102	-0.205
-726.908	622.728	-0.043	0.108
-725.894	308.013	-0.201	-0.376
-724.879	-86.906	0.378	-0.116
-723.864	254.896	-0.070	0.120
-722.850	134.497	0.146	-0.189
-721.835	109.003	0.079	-0.094
-720.821	-200.000	-0.021	0.188
-719.806	800.000	-0.085	0.294
-718.791	-200.000	-0.020	0.202
-717.777	39.291	-0.373	-0.334
-716.762	271.020	0.123	-0.217
-715.748	651.221	0.049	0.127
-714.733	132.976	-0.173	0.224
-713.718	-200.000	-0.012	-0.367
-712.704	119.071	0.133	0.165
-711.689	302.232	-0.107	-0.199
-710.675	-126.698	0.214	-0.032
-709.660	88.818	-0.204	0.227
-708.645	7.376	-0.123	-0.092
-707.631	-119.600	-0.235	0.041
-706.616	321.137	-0.105	0.199
-705.602	-178.824	-0.190	-0.004
-704.587	173.922	-0.109	-0.158
-703.572	112.394	0.294	-0.356
-702.558	-73.637	0.202	0.073
-701.543	282.148	0.198	0.355
-700.529	-160.137	0.170	-0.009
-699.514	100.441	-0.179	0.208
-698.499	40.813	-0.124	0.112
-697.485	-137.844	-0.139	0.016
-696.470	-200.000	-0.038	-0.167
-695.456	-61.636	-0.122	0.051
-694.441	-200.000	-0.002	0.095
-693.426	-184.962	0.340	-0.005
-692.412	88.160	0.113	0.125
-691.397	-200.000	0.020	-0.388
-690.383	-172.052	-0.180	-0.006
-689.368	3.405	-0.401	-0.292
-688.354	-46.814	0.372	-0.182
-687.339	764.718	-0.159	-0.433
-686.324	800.000	-0.042	0.142
-685.310	-200.000	-0.033	-0.257
-684.295	662.420	0.110	0.283
-683.281	6.117	-0.275	-0.204
-682.266	-98.053	0.063	0.016
-681.251	395.706	-0.040	0.083
-680.237	-40.704	0.252	0.130
-679.222	-200.000	-0.001	-0.012
-678.208	-12.600	-0.123	-0.080
-677.193	69.080	-0.178	-0.183
-676.178	-34.339	-0.123	0.068
-675.164	742.512	-0.033	-0.089
-674.149	-82.258	0.088	0.029
-673.135	-55.453	0.259	0.116
-672.120	-82.261	-0.223	0.073
-671.105	-41.676	0.090	0.046
-670.091	-200.000	0.062	-0.304
-669.076	-90.202	-0.434	-0.126
-668.062	490.191	-0.088	0.201
-667.047	-115.815	0.234	-0.044
-666.032	-110.698	0.217	0.045
-665.018	105.451	-0.234	-0.277
-664.003	-29.055	0.164	-0.094
-662.989	463.113	-0.047	0.105
-661.974	-150.411	0.162	0.012
-660.959	-200.000	0.086	0.425
-659.945	-2.543	0.151	0.106
-658.930	-131.722	0.469	0.061
-657.916	-200.000	-0.013	-0.073
-656.901	-200.000	-0.005	-0.097
-655.886	119.850	-0.007	-0.009
-654.872	800.000	0.005	0.015
-653.857	800.000	-0.038	-0.164
-652.843	-101.087	0.083	-0.020
-651.828	-200.000	-0.004	0.054
-650.814	-33.176	-0.155	-0.086
-649.799	82.006	-0.201	-0.217
-648.784	89.623	-0.140	-0.156
-647.770	-200.000	0.007	0.082
-646.755	-200.000	-0.020	-0.185
-645.741	800.000	0.105	-0.399
-644.726	327.002	0.201	0.384
-643.711	141.318	-0.109	-0.143
-642.697	211.328	-0.148	-0.232
-641.682	-200.000	0.037	-0.190
-640.668	-150.323	0.187	-0.014
-639.653	570.720	0.087	-0.212
-638.638	-12.348	0.323	0.210
-637.624	-153.428	-0.110	-0.008
-636.609	107.443	0.195	0.231
-635.595	-75.825	0.365	0.129
-634.580	102.516	-0.138	0.161
-633.565	551.610	-0.104	-0.249
-632.551	647.111	0.046	0.117
-631.536	-200.000	0.011	0.108
-630.522	-13.014	0.153	0.099
-629.507	-86.166	0.204	0.063
-628.492	366.862	-0.151	-0.305
-627.478	5.745	-0.260	-0.192
-626.463	-58.958	0.393	0.169
-625.449	54.002	-0.073	-0.070
-624.434	149.278	-0.088	0.119
-623.419	124.144	-0.192	0.240
-622.405	-159.247	0.297	-0.017
-621.390	-64.016	-0.235	0.096
-620.376	-61.807	0.239	-0.100
-619.361	-0.659	0.169	0.119
-618.346	35.160	0.104	0.091
-617.332	-171.985	0.178	0.006
-616.317	-133.375	-0.087	0.011
-615.303	-90.338	-0.088	-0.025
-614.288	337.979	-0.093	0.181
-613.273	108.278	0.175	0.208
-612.259	800.000	0.098	-0.280
-611.244	800.000	-0.068	0.262
-610.230	-179.368	-0.217	-0.005
-609.215	-82.807	-0.451	-0.145
-608.201	180.882	0.167	-0.244
-607.186	-118.479	-0.231	-0.041
-606.171	92.120	0.121	0.136
-605.157	-63.844	0.194	-0.079
-604.142	102.891	0.184	0.215
-603.128	-12.021	-0.149	-0.097
-602.113	800.000	-0.158	0.526
-601.098	-8.314	0.134	0.090
-600.084	-144.092	-0.260	0.024
-599.069	162.549	-0.261	0.365
-598.055	-105.167	0.013	-0.003
-597.040	518.528	0.042	0.099
-596.025	-142.510	-0.311	-0.030
-595.011	800.000	-0.046	-0.151
-593.996	44.406	0.379	-0.347
-592.982	-156.665	-0.150	-0.009
-591.967	33.480	-0.244	0.211
-590.952	-69.536	-0.216	-0.082
-589.938	-193.955	-0.075	-0.001
-588.923	304.230	-0.169	-0.313
-587.909	-133.253	-0.024	-0.003
-586.894	124.133	-0.089	-0.111
-585.879	-105.897	-0.187	0.042
-584.865	185.743	-0.116	0.172
-583.850	-94.874	0.096	-0.026
-582.836	16.585	-0.305	-0.240
-581.821	-101.807	-0.424	-0.102
-580.806	-200.000	-0.017	0.274
-579.792	217.426	-0.225	-0.356
-578.777	-194.877	0.312	-0.002
-577.763	800.000	0.105	-0.389
-576.748	97.374	-0.249	-0.284
-575.733	-20.672	0.181	-0.111
-574.719	-200.000	0.043	-0.302
-573.704	-190.399	-0.084	-0.001
-572.690	800.000	-0.044	-0.146
-571.675	532.776	-0.008	-0.019
-570.661	-46.426	-0.157	0.077
-569.646	-138.592	0.454	0.050
-568.631	-25.659	-0.200	0.118
-567.617	-24.391	0.244	0.145
-566.602	22.241	-0.129	0.105
-565.588	-169.381	0.309	-0.011
-564.573	7.574	0.201	-0.149
-563.558	-200.000	-0.238	-0.000
-562.544	19.142	0.249	0.199
-561.529	-190.431	-0.245	0.003
-560.515	362.182	0.135	0.270
-559.500	-22.812	-0.087	-0.052
-558.485	800.000	-0.079	0.327
-557.471	-37.181	-0.159	-0.084
-556.456	224.598	-0.058	-0.094
-555.442	-71.792	0.107	-0.040
-554.427	-58.337	0.178	0.077
-553.412	-200.000	0.016	-0.136
-552.398	87.348	0.238	-0.262
-551.383	295.425	-0.136	-0.248
-550.369	117.049	0.031	0.038
-549.354	342.524	-0.094	0.183
-548.339	-94.932	-0.170	0.046
-547.325	-200.000	0.002	-0.126
-546.310	103.629	0.195	0.228
-545.296	-17.841	0.172	-0.107
-544.281	170.444	0.091	0.130
-543.266	687.816	-0.051	0.133
-542.252	-200.000	0.001	0.164
-541.237	-200.000	0.043	0.260
-540.223	648.010	0.002	-0.006
-539.208	77.148	-0.278	-0.294
-538.193	-200.000	0.042	-0.252
-537.179	326.761	0.035	0.066
-536.164	-200.000	-0.022	0.148
-535.150	-144.146	-0.197	-0.018
-534.135	359.425	-0.119	0.236
-533.121	131.643	0.133	-0.170
-532.106	76.030	-0.105	0.111
-531.091	173.728	-0.075	0.108
-530.077	124.123	-0.209	-0.261
-529.062	-108.065	-0.099	0.021
-528.048	-36.982	-0.100	-0.053
-527.033	-79.719	-0.245	0.082
-526.018	800.000	-0.082	-0.287
-525.004	-58.502	-0.363	0.157
-523.989	664.075	-0.057	0.145
-522.975	490.049	-0.077	0.175
-521.960	28.143	0.330	0.276
-520.945	-200.000	0.015	-0.097
-519.931	110.950	-0.224	0.268
-518.916	-200.000	-0.049	-0.300
-517.902	800.000	0.036	0.122
-516.887	123.448	-0.123	-0.153
-515.872	81.555	0.069	-0.074
-514.858	-3.190	0.072	-0.050
-513.843	800.000	0.048	-0.193
-512.829	353.144	0.040	-0.079
-511.814	-90.407	-0.275	0.079
-510.799	-200.000	-0.006	0.088
-509.785	153.165	-0.076	0.104
-508.770	800.000	-0.074	-0.316
-507.756	130.264	0.070	0.088
-506.741	800.000	0.022	0.081
-505.726	-88.128	-0.355	-0.106
-504.712	-200.000	0.006	-0.324
-503.697	-68.933	-0.091	-0.035
-502.683	59.402	-0.076	-0.075
-501.668	-134.767	-0.128	0.015
-500.653	614.032	0.057	-0.141
-499.639	800.000	0.028	-0.097
-498.624	-200.000	0.035	-0.157
-497.610	800.000	-0.016	0.059
-496.595	163.476	0.146	-0.204
-495.581	465.921	-0.115	-0.256
-494.566	-200.000	-0.022	0.184
-493.551	-200.000	-0.041	0.293
-492.537	-20.375	-0.224	-0.137
-491.522	-200.000	-0.073	-0.360
-490.508	78.353	-0.290	0.307
-489.493	-154.690	0.265	0.017
-488.478	-60.818	-0.078	0.033
-487.464	-200.000	0.010	0.193
-486.449	40.178	0.082	0.073
-485.435	-200.000	-0.003	-0.164
-484.420	14.029	-0.054	0.042
-483.405	-87.659	0.277	0.083
-482.391	180.790	-0.137	-0.199
-481.376	-64.070	-0.123	0.050
-480.362	-37.536	0.069	-0.036
-479.347	-110.793	0.050	0.010
-478.332	169.229	0.102	0.144
-477.318	-55.450	-0.220	0.098
-476.303	-98.255	0.168	0.043
-475.289	-176.468	-0.146	-0.004
-474.274	137.382	0.082	-0.107
-473.259	-200.000	0.009	-0.053
-472.245	-46.263	0.216	0.105
-471.230	-96.662	0.273	0.071
-470.216	-92.149	0.162	-0.045
-469.201	-1.805	-0.068	0.047
-468.186	451.282	-0.140	-0.306
-467.172	144.287	-0.146	-0.193
-466.157	-118.907	-0.183	0.032
-465.143	-68.052	-0.036	0.014
-464.128	800.000	-0.116	-0.501
-463.113	100.157	-0.227	0.261
-462.099	-20.714	0.139	0.084
-461.084	800.000	-0.116	0.335
-460.070	-71.372	0.192	-0.071
-459.055	40.846	-0.093	-0.083
-458.040	-137.313	-0.308	-0.035
-457.026	187.254	0.148	-0.219
-456.011	-200.000	0.019	0.141
-454.997	-76.624	-0.281	-0.098
-453.982	-200.000	-0.010	0.057
-452.968	-200.000	-0.017	-0.119
-451.953	-25.807	0.112	-0.065
-450.938	309.586	0.175	-0.324
-449.924	216.776	0.098	0.154
-448.909	-18.422	-0.090	0.056
-447.895	26.192	0.092	-0.076
-446.880	770.088	0.029	-0.078
-445.865	343.650	0.087	0.169
-444.851	-111.981	0.131	0.026
-443.836	183.545	-0.124	-0.181
-442.822	224.392	0.161	0.258
-441.807	-200.000	0.058	-0.301
-440.792	-24.939	-0.215	0.126
-439.778	71.578	-0.117	0.120
-438.763	-64.303	0.356	0.144
-437.749	203.493	-0.097	0.148
-436.734	-155.553	-0.189	-0.012
-435.719	27.543	-0.318	0.265
-434.705	800.000	0.056	0.173
-433.690	528.892	0.050	0.116
-432.676	-139.745	-0.221	0.023
-431.661	-131.094	-0.248	-0.033
-430.646	-190.298	0.234	-0.003
-429.632	-93.725	-0.199	-0.054
-428.617	91.718	-0.222	0.247
-427.603	-94.178	-0.357	-0.097
-426.588	141.492	0.041	0.053
-425.573	-117.646	-0.276	-0.049
-424.559	-200.000	-0.018	0.184
-423.544	-30.411	0.105	0.059
-422.530	-135.550	-0.197	-0.023
-421.515	-100.806	-0.068	-0.017
-420.500	66.288	0.017	-0.017
-419.486	-97.122	0.064	-0.017
-418.471	592.130	0.152	-0.372
-417.457	201.010	0.098	-0.149
-416.442	211.529	-0.117	-0.182
-415.428	-124.246	0.259	-0.040
-414.413	365.194	-0.147	-0.293
-413.398	-7.533	0.273	0.183
-412.384	-200.000	0.298	0.001
-411.369	-200.000	0.027	-0.266
-410.355	-67.741	0.287	-0.111
-409.340	-140.234	0.563	0.058
-408.325	81.346	0.135	-0.144
-407.311	76.099	0.314	-0.329
-406.296	-200.000	-0.068	-0.323
-405.282	800.000	-0.043	0.184
-404.267	19.939	0.133	0.106
-403.252	639.052	0.012	-0.029
-402.238	247.784	-0.144	-0.240
-401.223	190.403	0.117	0.174
-400.209	-200.000	-0.026	0.156
-399.194	79.789	0.204	0.217
-398.179	126.940	-0.099	-0.124
-397.165	165.591	0.075	-0.105
-396.150	-149.276	-0.256	-0.020
-395.136	-200.000	0.010	-0.287
-394.121	-200.000	0.020	-0.267
-393.106	800.000	-0.056	0.219
-392.092	-200.000	0.025	0.130
-391.077	-36.884	0.111	0.059
-390.063	-33.154	-0.208	-0.114
-389.048	-61.190	-0.241	0.100
-388.033	800.000	-0.053	-0.222
-387.019	48.817	0.115	-0.107
-386.004	-60.599	0.269	0.113
-384.990	451.517	-0.084	0.184
-383.975	-189.865	-0.157	0.002
-382.960	456.757	0.055	-0.121
-381.946	54.593	-0.099	0.094
-380.931	67.246	-0.270	-0.272
-379.917	736.730	-0.083	0.220
-378.902	213.115	0.101	0.158
-377.888	30.559	-0.283	0.239
-376.873	-176.536	0.285	0.007
-375.858	77.780	-0.081	-0.086
-374.844	800.000	-0.071	-0.273
-373.829	800.000	-0.073	-0.212
-372.815	800.000	-0.046	-0.167
-371.800	-74.948	0.108	-0.038
-370.785	-13.213	0.141	-0.090
-369.771	-200.000	0.027	-0.443
-368.756	-200.000	0.028	0.306
-367.742	74.368	-0.148	0.153
-366.727	-200.000	-0.029	0.166
-365.712	-200.000	-0.002	0.113
-364.698	-155.694	-0.304	0.019
-363.683	-11.124	0.104	0.068
-362.669	-75.015	-0.069	-0.024
-361.654	-200.000	-0.037	0.337
-360.639	282.994	-0.141	0.249
-359.625	-200.000	0.013	0.316
-358.610	-135.614	-0.210	0.025
-357.596	-132.608	0.177	-0.022
-356.581	-129.683	-0.415	-0.056
-355.566	-84.713	0.149	-0.046
-354.552	-22.636	0.148	-0.088
-353.537	-94.234	-0.132	-0.036
-352.523	196.367	0.075	0.113
-351.508	41.518	-0.183	-0.163
-350.493	218.910	-0.046	0.072
-349.479	-200.000	0.020	0.299
-348.464	-29.232	-0.309	0.175
-347.450	-200.000	0.017	0.423
-346.435	-124.704	-0.177	-0.027
-345.420	342.176	0.157	-0.303
-344.406	-30.132	0.119	0.067
-343.391	357.567	0.221	0.434
-342.377	800.000	0.009	-0.024
-341.362	120.843	0.074	0.091
-340.348	800.000	0.024	0.070
-339.333	-137.613	0.059	-0.007
-338.318	-200.000	-0.040	-0.192
-337.304	-79.124	0.028	-0.010
-336.289	800.000	0.035	-0.105
-335.275	-80.404	-0.132	-0.044
-334.260	30.360	0.239	-0.201
-333.245	-105.860	-0.323	0.072
-332.231	-107.182	-0.011	-0.002
-331.216	-153.357	0.160	-0.011
-330.202	2.659	-0.098	-0.070
-329.187	-200.000	0.031	0.262
-328.172	-200.000	-0.001	-0.017
-327.158	-129.851	0.093	0.013
-326.143	-146.806	-0.569	0.048
-325.129	-200.000	-0.047	0.222
-324.114	800.000	-0.118	0.409
-323.099	152.996	0.223	0.301
-322.085	-109.850	-0.093	-0.019
-321.070	678.906	0.173	-0.444
-320.056	-200.000	0.004	0.074
-319.041	-19.158	-0.322	0.197
-318.026	-187.202	0.278	-0.004
-317.012	310.229	0.149	0.275
-315.997	800.000	-0.068	0.257
-314.983	239.270	0.137	-0.225
-313.968	315.005	-0.115	0.214
-312.953	800.000	0.057	-0.179
-311.939	800.000	-0.056	0.175
-310.924	800.000	0.053	0.150
-309.910	68.673	0.252	-0.255
-308.895	12.935	-0.226	0.172
-307.880	-200.000	-0.046	0.440
-306.866	-10.120	0.135	0.088
-305.851	-200.000	0.044	-0.217
-304.837	105.074	0.152	-0.177
-303.822	-9.767	-0.236	-0.155
-302.807	-61.421	0.196	-0.081
-301.793	20.830	-0.068	-0.055
-300.778	114.211	-0.176	0.211
-299.764	-47.155	-0.220	0.106
-298.749	-85.536	-0.211	-0.065
-297.735	-8.873	-0.208	0.138
-296.720	171.578	0.212	0.299
-295.705	209.244	0.215	0.332
-294.691	-97.764	-0.279	0.071
-293.676	186.375	0.020	-0.030
-292.662	-157.019	0.335	0.020
-291.647	-188.812	-0.126	-0.002
-290.632	-200.000	-0.017	-0.163
-289.618	-100.897	0.166	-0.040
-288.603	458.671	-0.064	-0.140
-287.589	-56.354	-0.044	-0.019
-286.574	699.006	-0.048	0.125
-285.559	283.648	0.165	0.291
-284.545	-84.504	0.256	-0.080
-283.530	209.030	-0.098	-0.151
-282.516	-116.433	0.207	-0.038
-281.501	9.183	0.203	0.151
-280.486	-200.000	-0.014	0.106
-279.472	61.506	0.173	0.170
-278.457	486.762	0.061	-0.136
-277.443	-200.000	0.020	-0.166
-276.428	800.000	-0.044	-0.134
-275.413	-86.420	0.120	-0.036
-274.399	800.000	0.097	-0.326
-273.384	-200.000	0.014	0.117
-272.370	-200.000	-0.001	0.075
-271.355	260.655	0.065	0.110
-270.340	-200.000	0.042	-0.359
-269.326	-200.000	-0.002	-0.103
-268.311	-200.000	-0.002	-0.129
-267.297	323.904	-0.116	-0.217
-266.282	213.483	-0.049	-0.076
-265.267	-200.000	-0.062	0.325
-264.253	-76.701	0.209	0.072
-263.238	-200.000	-0.016	-0.171
-262.224	49.963	0.134	-0.125
-261.209	377.703	0.155	0.312
-260.195	12.201	0.120	0.091
-259.180	89.085	0.138	0.151
-258.165	-61.154	-0.044	-0.018
-257.151	-200.000	0.056	-0.244
-256.136	687.526	0.026	0.067
-255.122	800.000	-0.030	-0.129
-254.107	800.000	0.044	0.159
-253.092	-59.374	0.194	0.082
-252.078	11.995	-0.237	0.179
-251.063	-140.515	0.277	0.028
-250.049	-200.000	0.016	0.289
-249.034	515.431	-0.150	0.345
-248.019	-200.000	0.033	-0.303
-247.005	800.000	0.106	-0.332
-245.990	800.000	-0.074	0.220
-244.976	239.589	-0.167	-0.273
-243.961	-104.254	0.274	-0.063
-242.946	200.550	-0.030	-0.045
-241.932	31.608	0.203	0.171
-240.917	-73.746	0.240	0.086
-239.903	-192.632	-0.161	0.001
-238.888	-19.913	0.610	0.370
-237.873	71.269	0.188	0.191
-236.859	-97.409	-0.231	-0.059
-235.844	1.331	-0.239	-0.169
-234.830	160.576	-0.166	-0.227
-233.815	49.851	-0.079	-0.073
-232.800	-55.892	0.311	0.136
-231.786	-200.000	0.095	-0.440
-230.771	511.931	-0.130	-0.298
-229.757	-10.576	0.192	0.125
-228.742	281.477	0.088	0.155
-227.727	8.220	-0.363	-0.268
-226.713	304.238	-0.091	-0.166
-225.698	662.933	0.187	-0.473
-224.684	-159.026	-0.254	-0.014
-223.669	-56.536	-0.348	-0.151
-222.655	100.944	-0.043	-0.049
-221.640	234.193	-0.081	-0.132
-220.625	800.000	0.103	0.330
-219.611	-164.564	0.310	-0.014
-218.596	-127.688	-0.235	-0.033
-217.582	800.000	-0.069	0.190
-216.567	800.000	-0.063	-0.204
-215.552	-106.051	0.253	0.056
-214.538	-62.148	0.187	-0.077
-213.523	-119.879	0.141	-0.024
-212.509	-1.777	0.311	0.215
-211.494	-113.859	-0.040	0.008
-210.479	208.283	0.126	0.193
-209.465	-57.026	0.037	-0.016
-208.450	-173.899	0.436	-0.013
-207.436	-127.759	0.135	0.019
-206.421	-50.979	0.351	0.162
-205.406	-44.219	-0.185	0.091
-204.392	800.000	0.073	0.306
-203.377	-107.041	0.162	0.035
-202.363	11.172	-0.099	-0.074
-201.348	577.876	0.105	-0.252
-200.333	-73.109	-0.225	-0.081
-199.319	140.160	-0.183	0.237
-198.304	212.254	0.166	0.257
-197.290	-43.060	0.276	0.137
-196.275	-200.000	0.000	0.060
-195.260	51.629	0.305	0.285
-194.246	-200.000	-0.312	0.001
-193.231	-92.380	0.219	0.060
-192.217	513.746	-0.141	-0.322
-191.202	-20.761	-0.105	-0.063
-190.187	157.554	0.112	0.152
-189.173	-200.000	-0.187	-0.000
-188.158	800.000	0.020	-0.062
-187.144	471.082	0.141	-0.311
-186.129	2.439	0.092	-0.065
-185.114	800.000	-0.004	-0.012
-184.100	-200.000	0.020	-0.182
-183.085	-200.000	0.008	0.140
-182.071	224.818	-0.173	0.274
-181.056	-123.810	0.290	0.045
-180.042	-6.716	-0.112	-0.075
-179.027	396.743	-0.082	-0.168
-178.012	332.186	0.219	-0.414
-176.998	330.217	-0.077	0.146
-175.983	800.000	0.069	-0.278
-174.969	113.882	0.096	-0.114
-173.954	-200.000	-0.013	-0.089
-172.939	-60.318	0.209	-0.087
-171.925	257.081	0.168	0.283
-170.910	-103.676	-0.131	-0.030
-169.896	225.153	-0.030	0.047
-168.881	76.834	0.188	-0.195
-167.866	-39.367	-0.134	0.069
-166.852	-68.895	0.192	-0.073
-165.837	279.275	0.107	0.187
-164.823	131.912	0.029	0.036
-163.808	-200.000	0.010	0.116
-162.793	-148.721	-0.503	0.040
-161.779	-146.352	0.127	-0.011
-160.764	22.928	0.123	0.099
-159.750	-111.099	-0.103	0.021
-158.735	-135.526	0.312	-0.036
-157.720	-200.000	-0.059	-0.303
-156.706	146.062	-0.114	0.149
-155.691	496.513	0.062	-0.141
-154.677	94.465	0.194	0.216
-153.662	-11.282	-0.272	0.176
-152.647	165.901	0.170	-0.236
-151.633	-12.751	-0.094	-0.060
-150.618	800.000	0.036	-0.110
-149.604	-200.000	0.021	-0.136
-148.589	-200.000	0.027	-0.375
-147.574	-93.356	-0.122	0.033
-146.560	-25.072	0.079	0.046
-145.545	-200.000	0.001	-0.018
-144.531	46.105	-0.138	-0.125
-143.516	-58.045	-0.158	0.068
-142.502	203.657	0.158	-0.240
-141.487	67.120	-0.014	-0.014
-140.472	-200.000	0.028	-0.232
-139.458	-188.076	-0.345	-0.004
-138.443	800.000	0.035	0.110
-137.429	800.000	-0.065	-0.187
-136.414	238.128	-0.099	0.161
-135.399	38.455	-0.108	-0.094
-134.385	-78.161	0.093	-0.031
-133.370	-146.796	-0.228	0.019
-132.356	492.065	0.074	0.165
-131.341	-7.442	0.248	0.164
-130.326	49.346	0.142	-0.131
-129.312	151.961	-0.210	-0.280
-128.297	140.464	0.159	0.205
-127.283	560.871	0.037	0.088
-126.268	26.691	-0.154	-0.126
-125.253	-172.362	0.123	0.004
-124.239	-89.237	-0.179	0.052
-123.224	-19.028	0.108	0.066
-122.210	-23.349	0.087	0.051
-121.195	-99.222	-0.207	0.051
-120.180	800.000	0.058	-0.177
-119.166	-200.000	-0.010	0.049
-118.151	800.000	-0.064	0.210
-117.137	686.416	-0.057	0.145
-116.122	518.610	-0.094	-0.214
-115.107	657.776	-0.067	0.169
-114.093	210.046	-0.136	0.209
-113.078	-43.992	-0.084	0.041
-112.064	-87.633	-0.221	0.065
-111.049	-89.683	0.286	-0.082
-110.034	579.921	-0.107	-0.256
-109.020	-200.000	0.000	-0.229
-108.005	571.424	-0.081	0.193
-106.991	109.364	0.384	-0.449
-105.976	-200.000	-0.006	0.222
-104.962	48.852	-0.271	-0.248
-103.947	-79.795	0.260	-0.086
-102.932	-82.210	0.259	0.083
-101.918	173.886	-0.107	-0.151
-100.903	-84.132	0.126	0.039
-99.889	-200.000	0.205	-0.001
-98.874	63.520	-0.081	0.079
-97.859	-28.362	0.256	-0.145
-96.845	-70.734	-0.109	-0.040
-95.830	-39.223	0.068	0.035
-94.816	698.960	0.032	0.081
-93.801	74.770	0.029	-0.030
-92.786	-46.079	-0.199	-0.096
-91.772	-200.000	-0.019	0.380
-90.757	-200.000	0.022	-0.400
-89.743	-200.000	0.064	0.541
-88.728	-200.000	-0.023	0.201
-87.713	74.378	0.233	0.239
-86.699	81.115	0.077	0.081
-85.684	15.229	-0.270	0.206
-84.670	-200.000	-0.007	0.130
-83.655	-131.636	-0.192	-0.025
-82.640	225.377	0.121	-0.191
-81.626	181.898	0.140	0.201
-80.611	336.805	0.044	0.083
-79.597	294.270	0.008	0.014
-78.582	-96.549	-0.206	-0.053
-77.567	-48.219	0.257	0.121
-76.553	-200.000	-0.011	0.049
-75.538	625.680	0.082	0.203
-74.524	129.500	-0.031	-0.039
-73.509	800.000	0.057	0.198
-72.494	2.501	0.215	0.152
-71.480	198.011	0.056	0.083
-70.465	598.039	-0.188	0.454
-69.451	-4.929	0.037	-0.025
-68.436	61.685	0.107	-0.103
-67.422	192.845	-0.185	-0.272
-66.407	800.000	0.071	0.208
-65.392	-200.000	0.039	0.293
-64.378	-44.723	-0.273	0.133
-63.363	-132.419	0.400	0.050
-62.349	32.089	-0.289	0.244
-61.334	65.334	-0.875	-0.863
-60.319	31.643	0.462	0.388
-59.305	800.000	-0.464	-1.390
-58.290	449.771	0.686	1.477
-57.276	800.000	0.319	1.322
-56.261	-200.000	123.353	649.795
-55.246	429.453	1548.330	3265.746
-54.232	146.756	2697.569	3536.520
-53.217	98.112	2142.882	2406.243
-52.203	35.662	1583.051	1356.546
-51.188	27.360	1328.902	1089.270
-50.173	24.784	1290.703	1042.918
-49.159	51.775	1360.726	1262.593
-48.144	49.168	1372.208	1257.569
-47.130	27.352	1319.506	1081.346
-46.115	24.152	1300.368	1046.849
-45.100	23.947	1295.980	1042.076
-44.086	23.857	1293.250	1039.314
-43.071	23.879	1290.797	1037.431
-42.057	23.884	1288.774	1035.789
-41.042	23.861	1287.752	1034.793
-40.027	23.948	1285.774	1033.671
-39.013	23.868	1284.006	1031.741
-37.998	23.891	1281.934	1030.172
-36.984	23.874	1280.598	1028.959
-35.969	24.027	1278.366	1028.006
-34.954	24.008	1277.019	1026.775
-33.940	23.931	1275.854	1025.351
-32.925	24.089	1274.303	1024.973
-31.911	24.036	1273.145	1023.697
-30.896	24.166	1271.768	1023.293
-29.881	24.088	1270.818	1022.041
-28.867	24.178	1269.085	1021.127
-27.852	24.110	1267.754	1019.624
-26.838	24.132	1266.416	1018.632
-25.823	24.127	1265.568	1017.884
-24.809	24.091	1264.117	1016.471
-23.794	23.933	1262.658	1014.354
-22.779	24.031	1261.362	1013.834
-21.765	24.090	1260.055	1013.078
-20.750	24.173	1258.631	1012.365
-19.736	24.105	1257.296	1010.865
-18.721	23.950	1256.906	1009.630
-17.706	23.964	1255.419	1008.476
-16.692	23.995	1254.252	1007.672
-15.677	24.050	1253.224	1007.120
-14.663	24.008	1252.151	1005.977
-13.648	23.959	1250.929	1004.680
-12.633	23.885	1250.454	1003.839
-11.619	23.998	1248.952	1003.234
-10.604	23.891	1248.552	1002.266
-9.590	23.884	1247.344	1001.218
-8.575	24.002	1246.016	1000.776
-7.560	23.876	1245.502	999.616
-6.546	23.943	1244.748	999.348
-5.531	23.877	1244.309	998.586
-4.517	23.983	1242.783	997.915
-3.502	23.912	1242.578	997.311
-2.487	24.033	1241.446	997.045
-1.473	23.942	1236.592	992.598
-0.458	22.285	1222.128	971.802
0.556	17.766	1207.115	935.015
1.571	14.127	1214.085	920.230
2.586	13.351	1228.766	926.930
3.600	13.400	1216.428	917.812
4.615	10.064	1145.667	846.893
5.629	3.890	1075.212	764.310
6.644	0.854	1058.825	737.803
7.659	0.725	1056.624	735.577
8.673	0.707	1055.873	734.901
9.688	0.835	1054.187	734.287
10.702	0.880	1052.035	732.942
11.717	4.622	1056.470	754.139
12.731	11.609	1064.941	794.179
13.746	16.271	1071.007	821.368
14.761	17.478	1071.609	827.625
15.775	16.681	1070.303	822.675
16.790	15.722	1068.078	816.239
17.804	15.056	1067.079	812.171
18.819	14.689	1065.669	809.250
19.834	14.455	1064.837	807.414
20.848	14.286	1063.604	805.586
21.863	13.973	1062.957	803.513
22.877	13.734	1062.853	802.208
23.892	13.678	1062.019	801.236
24.907	13.774	1061.056	800.904
25.921	13.741	1060.338	800.130
26.936	13.789	1059.269	799.483
27.950	13.784	1058.601	798.884
28.965	13.813	1057.311	797.979
29.980	13.872	1055.897	797.124
30.994	13.864	1055.262	796.536
32.009	13.956	1054.037	795.984
33.023	13.814	1053.300	794.678
34.038	13.893	1052.322	794.244
35.053	13.863	1051.308	793.265
36.067	13.853	1050.314	792.400
37.082	13.932	1049.095	791.786
38.096	13.861	1048.800	791.156
39.111	13.846	1047.942	790.366
40.126	13.764	1046.903	789.120
41.140	13.750	1045.683	788.068
42.155	13.716	1044.168	786.694
43.169	13.582	1043.628	785.583
44.184	13.730	1042.363	785.262
45.199	13.891	1040.951	784.887
46.213	13.768	1040.553	783.937
47.228	13.689	1039.624	782.797
48.242	13.845	1038.371	782.518
49.257	13.775	1037.010	781.093
50.271	13.865	1036.293	780.908
51.286	13.871	1035.986	780.639
52.301	13.897	1034.461	779.539
53.315	13.662	1034.212	778.183
54.330	13.686	1032.781	777.146
55.344	13.785	1031.547	776.614
56.359	13.732	1030.823	775.755
57.374	13.662	1030.036	774.762
58.388	13.735	1029.262	774.455
59.403	13.696	1028.519	773.647
60.417	13.709	1027.775	773.077
61.432	13.681	1027.089	772.362
62.447	13.694	1026.134	771.638
63.461	13.689	1025.135	770.792
64.476	13.581	1024.253	769.562
65.490	13.601	1023.829	769.267
66.505	13.685	1023.204	769.120
67.520	13.834	1022.027	768.856
68.534	13.723	1021.495	767.872
69.549	13.753	1021.019	767.587
70.563	13.690	1020.207	766.616
71.578	13.708	1019.493	766.096
72.593	13.712	1018.537	765.331
73.607	13.603	1018.324	764.599
74.622	13.586	1017.423	763.774
75.636	13.742	1016.373	763.638
76.651	13.446	1016.041	761.960
77.666	13.563	1015.343	761.905
78.680	13.652	1014.500	761.614
79.695	13.648	1013.983	761.140
80.709	13.562	1013.643	760.423
81.724	13.679	1012.924	760.355
82.739	13.749	1011.875	759.819
83.753	13.862	1011.483	759.977
84.768	13.928	1010.022	759.112
85.782	13.897	1009.305	758.365
86.797	13.784	1008.525	757.196
87.812	13.717	1007.813	756.290
88.826	13.777	1006.376	755.415
89.841	13.898	1005.646	755.352
90.855	13.920	1004.705	754.679
91.870	13.985	1003.919	754.316
92.884	13.894	1003.520	753.538
93.899	13.929	1002.335	752.741
94.914	13.962	1001.567	752.244
95.928	13.944	1000.668	751.424
96.943	14.038	999.744	751.087
97.957	13.923	999.148	750.053
98.972	13.905	997.924	748.985
99.987	13.826	997.413	748.179
101.001	13.816	996.294	747.231
102.016	13.878	995.278	746.679
103.030	13.910	994.883	746.462
104.045	13.919	994.006	745.778
105.060	13.762	993.687	744.768
106.074	13.817	992.351	743.947
107.089	13.824	991.168	743.026
108.103	13.768	990.350	742.095
109.118	13.806	989.496	741.563
110.133	13.861	988.176	740.753
111.147	13.794	987.744	740.062
112.162	13.858	987.216	739.889
113.176	13.909	986.310	739.371
114.191	13.860	985.310	738.337
115.206	13.851	984.742	737.806
116.220	13.919	983.681	737.249
117.235	13.779	982.765	735.874
118.249	13.894	981.978	735.732
119.264	13.771	981.611	734.844
120.279	13.857	980.619	734.420
121.293	13.888	979.574	733.710
122.308	13.783	978.978	732.733
123.322	13.865	977.895	732.220
124.337	13.790	976.930	731.102
125.352	13.807	975.776	730.249
126.366	13.825	974.318	729.170
127.381	13.856	974.140	729.110
128.395	13.809	972.915	727.923
129.410	13.801	971.886	727.054
130.424	13.826	970.960	726.404
131.439	13.944	970.278	726.348
132.454	13.947	969.609	725.795
133.468	13.874	968.650	724.694
134.483	13.877	968.191	724.300
135.497	13.854	967.302	723.469
136.512	13.745	966.132	722.055
137.527	13.974	965.011	722.152
138.541	13.905	964.303	721.258
139.556	13.889	963.944	720.858
140.570	13.997	963.281	720.766
141.585	13.923	962.382	719.707
142.600	14.092	961.460	719.684
143.614	14.020	960.592	718.663
144.629	14.023	959.842	718.049
145.643	14.052	959.012	717.492
146.658	14.038	957.816	716.471
147.673	14.020	957.120	715.810
148.687	14.009	956.440	715.191
149.702	13.996	955.236	714.171
150.716	13.939	954.778	713.520
151.731	13.947	954.484	713.274
152.746	13.992	953.371	712.570
153.760	14.065	952.702	712.321
154.775	14.101	952.140	711.990
155.789	14.137	951.859	711.874
156.804	14.167	950.685	711.058
157.819	14.128	950.319	710.556
158.833	14.265	949.295	710.311
159.848	14.304	948.443	709.777
160.862	14.303	947.881	709.290
161.877	14.197	946.775	707.948
162.892	14.067	946.228	706.927
163.906	14.108	945.164	706.242
164.921	14.214	944.664	706.256
165.935	14.203	943.673	705.405
166.950	14.247	942.551	704.689
167.964	14.145	942.114	703.872
168.979	14.268	941.040	703.523
169.994	14.293	940.417	703.102
171.008	14.138	939.898	701.998
172.023	14.228	939.038	701.675
173.037	14.218	938.355	701.060
174.052	14.201	937.737	700.464
175.067	14.246	936.806	699.894
176.081	14.303	936.267	699.670
177.096	14.239	935.706	698.920
178.110	14.335	934.966	698.710
179.125	14.290	934.549	698.148
180.140	14.402	934.324	698.386
181.154	14.342	933.371	697.359
182.169	14.434	932.942	697.365
183.183	14.388	931.988	696.398
184.198	14.354	931.666	695.950
185.213	14.504	930.627	695.739
186.227	14.536	930.144	695.451
187.242	14.445	929.595	694.602
188.256	14.374	928.958	693.768
189.271	14.551	927.514	693.362
190.286	14.363	927.070	692.189
191.300	14.329	926.427	691.504
192.315	14.351	925.913	691.153
193.329	14.291	925.462	690.507
194.344	14.399	924.635	690.276
195.359	14.409	924.200	689.930
196.373	14.395	923.569	689.340
197.388	14.525	922.985	689.380
198.402	14.636	922.057	689.085
199.417	14.650	921.759	688.861
200.432	14.633	921.163	688.283
201.446	14.683	920.883	688.221
202.461	14.708	919.947	687.561
203.475	14.650	919.607	687.009
204.490	14.674	918.700	686.369
205.504	14.617	918.115	685.636
206.519	14.734	916.941	685.180
207.534	14.765	916.164	684.666
208.548	14.702	915.700	683.998
209.563	14.760	915.225	683.823
210.577	14.716	914.681	683.175
211.592	14.774	913.899	682.766
212.607	14.804	913.208	682.311
213.621	14.781	912.336	681.507
214.636	14.782	911.399	680.752
215.650	14.758	911.229	680.466
216.665	14.876	910.502	680.342
217.680	15.059	909.179	680.036
218.694	14.920	908.937	679.230
219.709	14.939	908.134	678.649
220.723	15.003	907.358	678.269
221.738	14.963	906.811	677.638
222.753	14.971	906.126	677.098
223.767	14.872	906.048	676.580
224.782	15.154	904.943	676.834
225.796	15.028	904.792	676.152
226.811	15.198	903.263	675.634
227.826	15.013	903.279	674.842
228.840	15.038	902.383	674.214
229.855	15.123	901.546	673.871
230.869	15.079	900.733	673.026
231.884	15.155	900.022	672.742
232.899	15.048	899.324	671.730
233.913	15.009	898.594	670.967
234.928	14.954	898.360	670.513
235.942	14.996	897.625	670.074
236.957	14.946	897.230	669.522
237.972	14.919	896.587	668.874
238.986	15.066	895.990	668.956
240.001	15.148	894.848	668.370
241.015	15.058	894.651	667.805
242.030	15.143	894.134	667.701
243.045	15.110	893.489	667.028
244.059	15.186	892.545	666.564
245.074	15.287	891.882	666.415
246.088	15.147	891.677	665.645
247.103	15.216	890.415	664.917
248.117	15.398	890.192	665.413
249.132	15.254	889.733	664.442
250.147	15.311	888.996	664.058
251.161	15.506	887.778	663.861
252.176	15.379	887.561	663.137
253.190	15.526	886.725	663.035
254.205	15.543	886.042	662.534
255.220	15.548	885.554	662.128
256.234	15.555	885.027	661.703
257.249	15.496	884.204	660.797
258.263	15.645	883.283	660.638
259.278	15.518	882.575	659.549
260.293	15.434	882.473	659.086
261.307	15.579	881.950	659.206
262.322	15.665	880.937	658.728
263.336	15.675	880.173	658.135
264.351	15.647	879.563	657.512
265.366	15.695	879.100	657.295
266.380	15.796	878.171	656.940
267.395	15.736	877.848	656.405
268.409	15.853	876.781	656.006
269.424	15.779	875.963	655.044
270.439	15.817	875.147	654.524
271.453	15.749	874.719	653.884
272.468	15.815	874.375	653.825
273.482	15.841	873.779	653.421
274.497	15.735	873.334	652.619
275.512	15.784	872.309	651.988
276.526	15.705	872.202	651.543
277.541	15.875	871.785	651.832
278.555	15.915	871.037	651.368
279.570	15.946	870.276	650.861
280.585	15.841	869.508	649.825
281.599	15.996	868.521	649.629
282.614	16.190	867.872	649.833
283.628	15.994	867.581	648.802
284.643	15.936	867.116	648.174
285.657	16.082	866.371	648.120
286.672	16.184	865.673	647.933
287.687	16.205	864.901	647.378
288.701	15.970	864.697	646.267
289.716	15.942	864.308	645.810
290.730	15.902	863.358	644.893
291.745	16.015	862.946	644.959
292.760	16.070	862.444	644.738
293.774	16.081	861.822	644.256
294.789	15.967	861.331	643.400
295.803	16.171	860.342	643.382
296.818	15.949	859.694	641.993
297.833	16.173	858.533	641.922
298.847	16.054	858.367	641.288
299.862	16.168	857.722	641.183
300.876	16.232	857.681	641.339
301.891	16.230	856.638	640.496
302.906	16.324	855.947	640.276
303.920	16.397	855.322	640.030
304.935	16.512	854.898	640.090
305.949	16.414	854.235	639.168
306.964	16.476	853.550	638.833
307.979	16.352	853.094	637.966
308.993	16.404	852.532	637.684
310.008	16.360	852.493	637.435
311.022	16.515	851.387	637.136
312.037	16.443	851.283	636.731
313.052	16.406	850.115	635.661
314.066	16.315	850.131	635.275
315.081	16.325	849.281	634.620
316.095	16.429	848.898	634.668
317.110	16.455	847.734	633.839
318.125	16.319	847.328	632.970
319.139	16.346	847.159	632.888
320.154	16.282	846.896	632.396
321.168	16.472	845.915	632.318
322.183	16.362	845.770	631.743
323.197	16.630	844.769	631.939
324.212	16.495	844.267	631.005
325.227	16.619	843.599	630.911
326.241	16.486	843.489	630.278
327.256	16.602	842.879	630.198
328.270	16.434	842.113	628.947
329.285	16.562	841.533	628.934
330.300	16.694	840.940	628.925
331.314	16.652	840.448	628.345
332.329	16.460	840.269	627.444
333.343	16.656	839.813	627.775
334.358	16.664	839.505	627.519
335.373	16.698	838.874	627.116
336.387	16.724	838.649	626.991
337.402	16.745	838.316	626.763
338.416	16.553	838.308	625.990
339.431	16.868	837.032	626.147
340.446	16.777	837.039	625.760
341.460	16.805	836.793	625.624
342.475	16.985	836.227	625.810
343.489	17.021	835.554	625.383
344.504	16.888	835.252	624.611
345.519	17.043	834.791	624.782
346.533	16.978	834.160	624.016
347.548	16.891	833.885	623.435
348.562	16.801	833.478	622.746
349.577	16.986	832.585	622.699
350.592	16.921	831.744	621.781
351.606	16.977	831.222	621.537
352.621	17.033	830.483	621.135
353.635	16.934	830.071	620.412
354.650	17.062	829.185	620.161
355.665	17.059	828.677	619.715
356.679	17.049	828.185	619.258
357.694	17.009	827.493	618.538
358.708	17.157	826.564	618.327
359.723	17.030	826.317	617.625
360.738	17.035	825.727	617.147
361.752	17.134	825.042	616.941
362.767	17.160	824.631	616.676
363.781	17.207	823.998	616.315
364.796	17.240	823.720	616.173
365.810	17.339	823.385	616.226
366.825	17.454	822.487	615.917
367.840	17.357	822.478	615.504
368.854	17.418	821.812	615.171
369.869	17.264	821.350	614.217
370.883	17.429	821.075	614.552
371.898	17.401	820.809	614.199
372.913	17.363	820.166	613.525
373.927	17.440	819.578	613.309
374.942	17.425	819.269	612.969
375.956	17.411	819.054	612.702
376.971	17.439	818.577	612.395
377.986	17.542	818.244	612.460
379.000	17.642	817.205	611.986
380.015	17.691	816.781	611.792
381.029	17.501	816.440	610.801
382.044	17.484	815.665	610.105
383.059	17.652	814.972	610.137
384.073	17.705	814.737	610.093
385.088	17.473	814.202	608.809
386.102	17.554	813.787	608.736
387.117	17.637	812.911	608.323
388.132	17.651	812.509	608.019
389.146	17.605	811.801	607.272
390.161	17.853	811.215	607.663
391.175	17.672	810.932	606.754
392.190	17.668	810.578	606.420
393.205	17.641	810.387	606.127
394.219	17.694	809.790	605.815
395.234	17.664	809.546	605.473
396.248	17.632	809.197	605.043
397.263	17.636	808.694	604.629
398.278	17.610	808.251	604.152
399.292	17.593	807.725	603.643
400.307	17.674	807.077	603.393
401.321	17.740	806.739	603.320
402.336	17.816	805.960	602.953
403.350	17.813	805.615	602.631
404.365	17.861	805.467	602.637
405.380	17.786	804.894	601.889
406.394	17.830	804.258	601.515
407.409	17.869	803.904	601.335
408.423	18.044	803.545	601.629
409.438	17.956	803.217	601.022
410.453	18.013	802.839	600.887
411.467	18.037	802.201	600.438
412.482	18.004	801.825	599.988
413.496	18.149	801.632	600.301
414.511	18.262	801.040	600.202
415.526	18.027	800.876	599.202
416.540	17.999	800.317	598.630
417.555	18.057	800.270	598.746
418.569	18.191	799.314	598.446
419.584	18.092	799.051	597.853
420.599	18.175	798.914	597.987
421.613	115.738	1298.033	1489.438
422.628	99.853	1370.705	1489.506
