DTS Sentinel unit serial number:	SN413079Multiplexer serial number:	ORYXHardware model number:	OX4-SRSoftware version number:	ORYX F/W v4.00 Oryx Data Collector v3.7.2.0data status	okinstallation	princeton_trtdifferential loss correction	single-endedforward channel	channel 1reverse channel	N/Adate	2019/09/11time	22:52:11forward acquisition time	60.00reverse acquisition time	0.00gamma	496.2192k internal	0.2316k external	0.2316temperature offset calibration	1.0062default loss term (dB/km)	0.3790temperature slope calibration	1.0000multiplexer offset coefficient	1.0000multiplexer slope coefficient	1.0000fibre end	0.00T internal ref (°C)	34.69T ext. ref 1 (°C)	1.84T ext. ref 2 (°C)	29.42length (m)	temperature (°C)	Stokes	anti-Stokes-747.200	800.000	-0.104	-0.408
-746.185	800.000	0.089	0.288
-745.171	-200.000	-0.026	0.261
-744.156	-200.000	-0.015	0.157
-743.142	7.050	0.241	0.182
-742.127	73.247	-0.168	0.178
-741.112	1.917	0.158	0.115
-740.098	-39.066	-0.362	0.193
-739.083	398.165	-0.006	-0.012
-738.069	5.576	0.283	0.212
-737.054	-25.443	-0.347	-0.208
-736.039	-165.951	-0.263	-0.011
-735.025	408.783	0.069	-0.147
-734.010	-47.315	-0.287	0.142
-732.996	-97.669	0.204	0.054
-731.981	-1.218	-0.313	0.224
-730.966	-121.698	-0.327	-0.055
-729.952	-138.903	0.166	-0.018
-728.937	-6.589	-0.310	0.214
-727.923	153.941	-0.103	0.143
-726.908	-105.791	0.156	0.036
-725.894	99.123	0.120	0.141
-724.879	52.540	-0.134	0.130
-723.864	800.000	-0.086	-0.297
-722.850	50.663	0.247	-0.237
-721.835	127.785	0.028	0.036
-720.821	-101.273	-0.235	0.058
-719.806	-42.929	-0.350	0.180
-718.791	-200.000	0.009	0.184
-717.777	-200.000	0.010	-0.452
-716.762	-63.585	0.079	0.033
-715.748	-30.005	-0.086	-0.050
-714.733	668.905	0.228	-0.598
-713.718	487.139	-0.066	0.152
-712.704	-200.000	0.089	0.428
-711.689	800.000	0.048	0.174
-710.675	87.695	0.127	0.142
-709.660	19.528	0.249	0.203
-708.645	145.168	-0.113	-0.152
-707.631	134.745	0.197	-0.259
-706.616	-200.000	0.001	-0.087
-705.602	-141.846	-0.317	0.032
-704.587	224.087	-0.154	0.251
-703.572	65.540	0.096	0.098
-702.558	199.618	-0.105	-0.163
-701.543	736.231	0.188	-0.509
-700.529	313.705	0.125	-0.238
-699.514	800.000	-0.068	0.263
-698.499	-34.149	-0.307	0.170
-697.485	193.442	0.136	0.208
-696.470	21.054	0.259	0.212
-695.456	101.504	-0.036	0.042
-694.441	-25.538	0.173	-0.103
-693.426	330.312	0.103	0.201
-692.412	199.078	0.050	0.078
-691.397	167.340	-0.208	0.299
-690.383	93.393	-0.178	-0.204
-689.368	-38.828	0.185	0.098
-688.354	49.481	-0.278	-0.265
-687.339	-200.000	-0.022	-0.514
-686.324	109.306	0.147	0.178
-685.310	-84.074	-0.225	0.072
-684.295	-96.291	0.233	0.062
-683.281	-24.901	0.086	-0.052
-682.266	-100.835	0.511	-0.127
-681.251	64.380	0.058	-0.059
-680.237	-26.185	-0.080	0.047
-679.222	-200.000	-0.000	0.201
-678.208	-5.960	-0.235	-0.162
-677.193	106.466	-0.047	0.056
-676.178	94.344	-0.151	-0.173
-675.164	139.891	-0.247	-0.328
-674.149	-48.300	0.129	-0.063
-673.135	-200.000	0.010	0.139
-672.120	-33.597	0.292	0.163
-671.105	87.192	-0.103	0.115
-670.091	-32.354	-0.182	-0.103
-669.076	-39.661	0.211	0.111
-668.062	-107.341	-0.218	0.048
-667.047	-57.301	0.238	0.106
-666.032	254.991	-0.145	-0.251
-665.018	-121.420	0.217	0.037
-664.003	-164.989	0.141	-0.006
-662.989	800.000	0.092	0.285
-661.974	-51.568	0.127	0.060
-660.959	465.457	-0.120	0.270
-659.945	-151.523	-0.325	-0.024
-658.930	679.314	0.081	-0.214
-657.916	-70.598	0.114	-0.043
-656.901	102.841	0.110	0.131
-655.886	174.094	0.044	0.065
-654.872	36.346	0.133	0.118
-653.857	-200.000	-0.061	-0.410
-652.843	-19.010	0.113	0.071
-651.828	-82.262	0.390	-0.128
-650.814	-5.575	0.116	-0.080
-649.799	23.126	-0.139	0.115
-648.784	-200.000	-0.033	-0.474
-647.770	210.687	-0.146	0.231
-646.755	-26.084	0.143	-0.085
-645.741	-104.331	-0.089	-0.021
-644.726	-200.000	0.004	-0.182
-643.711	800.000	0.073	-0.242
-642.697	-81.826	0.327	-0.108
-641.682	-78.402	0.289	0.100
-640.668	-49.628	0.228	0.109
-639.653	-110.297	0.230	0.048
-638.638	-17.697	0.197	-0.125
-637.624	211.965	-0.028	-0.044
-636.609	243.876	0.202	0.342
-635.595	-200.000	-0.034	0.249
-634.580	23.583	0.117	0.097
-633.565	-98.174	-0.281	0.073
-632.551	220.617	0.190	0.308
-631.536	7.333	0.260	0.196
-630.522	-125.839	-0.106	-0.016
-629.507	429.639	-0.037	0.080
-628.492	671.956	-0.112	-0.293
-627.478	251.796	0.125	-0.214
-626.463	-200.000	0.011	-0.133
-625.449	421.598	-0.020	-0.043
-624.434	169.472	0.094	-0.136
-623.419	-25.732	-0.208	-0.123
-622.405	800.000	0.047	0.147
-621.390	-28.607	-0.676	-0.392
-620.376	153.929	0.117	-0.162
-619.361	-200.000	-0.072	0.324
-618.346	-107.254	-0.392	-0.087
-617.332	484.845	0.088	0.203
-616.317	-118.979	-0.225	0.040
-615.303	-200.000	-0.024	-0.140
-614.288	-200.000	0.013	-0.062
-613.273	151.756	-0.076	-0.104
-612.259	356.843	-0.142	0.286
-611.244	-14.461	0.076	-0.049
-610.230	-56.476	0.146	0.065
-609.215	-200.000	0.035	0.192
-608.201	249.053	-0.149	-0.255
-607.186	800.000	-0.081	-0.249
-606.171	-65.725	-0.185	-0.075
-605.157	-74.245	0.432	-0.157
-604.142	-200.000	-0.061	0.273
-603.128	-29.637	0.200	-0.115
-602.113	63.863	-0.178	-0.181
-601.098	-169.767	-0.192	-0.007
-600.084	-14.300	0.261	0.170
-599.069	168.306	-0.049	-0.071
-598.055	671.660	-0.054	0.141
-597.040	-10.124	0.172	0.115
-596.025	-154.803	0.195	-0.013
-595.011	53.943	0.038	0.037
-593.996	264.036	-0.071	0.124
-592.982	16.029	0.152	0.120
-591.967	-200.000	-0.070	0.311
-590.952	-200.000	0.013	0.074
-589.938	21.794	0.320	-0.262
-588.923	-200.000	-0.016	-0.233
-587.909	-200.000	-0.031	-0.206
-586.894	292.251	0.016	-0.029
-585.879	595.342	0.093	-0.233
-584.865	27.306	-0.208	-0.176
-583.850	-11.480	-0.388	-0.257
-582.836	-111.215	0.248	0.051
-581.821	153.190	-0.264	0.364
-580.806	800.000	-0.022	-0.075
-579.792	-9.994	0.251	0.168
-578.777	800.000	0.104	0.336
-577.763	-19.983	0.083	-0.051
-576.748	-200.000	-0.004	-0.283
-575.733	85.811	-0.135	0.150
-574.719	-71.405	-0.100	-0.038
-573.704	542.158	-0.174	-0.417
-572.690	24.696	0.322	0.268
-571.675	800.000	-0.037	-0.136
-570.661	-130.680	0.179	-0.024
-569.646	80.532	-0.269	-0.292
-568.631	-117.890	-0.352	-0.063
-567.617	-187.273	-0.328	0.004
-566.602	-168.378	-0.268	-0.010
-565.588	23.750	0.240	-0.198
-564.573	-200.000	-0.032	0.247
-563.558	-200.000	0.066	0.303
-562.544	-107.050	-0.180	-0.040
-561.529	293.250	-0.202	0.370
-560.515	800.000	-0.019	0.062
-559.500	-58.200	-0.211	-0.092
-558.485	265.891	0.077	0.134
-557.471	88.097	-0.070	-0.078
-556.456	-95.284	-0.120	0.032
-555.442	-11.831	-0.249	-0.164
-554.427	800.000	0.068	0.287
-553.412	-98.363	-0.235	-0.060
-552.398	140.711	-0.161	-0.213
-551.383	250.706	-0.111	0.190
-550.369	-100.016	0.453	-0.113
-549.354	-200.000	-0.004	0.332
-548.339	800.000	0.028	-0.097
-547.325	-139.848	-0.120	-0.013
-546.310	125.890	0.102	0.130
-545.296	-160.578	-0.284	-0.015
-544.281	-200.000	0.000	0.187
-543.266	-74.651	0.251	-0.091
-542.252	465.844	0.167	0.376
-541.237	-114.250	-0.083	0.016
-540.223	-108.306	0.315	0.068
-539.208	-68.474	0.164	-0.064
-538.193	-69.427	0.148	-0.057
-537.179	205.918	0.065	-0.102
-536.164	15.381	-0.030	0.024
-535.150	-59.193	0.202	-0.088
-534.135	224.982	-0.076	-0.123
-533.121	275.682	-0.081	-0.144
-532.106	27.736	0.086	0.073
-531.091	-36.197	0.151	0.082
-530.077	-22.880	-0.259	0.157
-529.062	-200.000	0.026	0.317
-528.048	729.287	-0.041	-0.110
-527.033	271.722	0.136	0.240
-526.018	-162.552	-0.290	-0.014
-525.004	-200.000	-0.007	-0.230
-523.989	-157.632	-0.146	-0.009
-522.975	33.451	0.175	0.152
-521.960	383.633	0.246	-0.507
-520.945	800.000	-0.104	-0.326
-519.931	-200.000	-0.021	-0.185
-518.916	-200.000	0.026	0.178
-517.902	250.461	-0.166	-0.283
-516.887	158.952	-0.057	-0.079
-515.872	800.000	-0.050	0.150
-514.858	86.895	0.158	0.175
-513.843	360.835	-0.153	0.309
-512.829	100.636	-0.097	-0.113
-511.814	800.000	-0.066	0.234
-510.799	-200.000	0.024	0.258
-509.785	-153.881	0.210	0.014
-508.770	124.573	-0.135	0.170
-507.756	58.739	0.066	0.065
-506.741	800.000	0.125	0.378
-505.726	51.123	0.038	-0.036
-504.712	-166.073	-0.420	-0.018
-503.697	106.182	-0.292	-0.348
-502.683	800.000	0.027	0.090
-501.668	274.126	0.142	0.253
-500.653	87.202	0.174	-0.193
-499.639	292.946	-0.032	0.059
-498.624	114.798	-0.099	0.121
-497.610	-186.413	-0.248	0.004
-496.595	205.039	0.182	-0.284
-495.581	-70.099	-0.169	0.064
-494.566	-145.242	0.205	0.019
-493.551	107.305	-0.114	-0.136
-492.537	382.788	0.154	0.317
-491.522	528.468	0.052	-0.122
-490.508	97.863	-0.180	0.208
-489.493	116.590	-0.060	0.074
-488.478	133.165	0.115	0.149
-487.464	174.623	0.233	0.339
-486.449	790.754	-0.040	-0.110
-485.435	-20.319	-0.453	0.280
-484.420	-94.439	0.198	-0.054
-483.405	800.000	-0.080	-0.287
-482.391	89.736	-0.175	0.195
-481.376	100.755	0.206	-0.240
-480.362	-200.000	-0.013	-0.225
-479.347	-200.000	-0.015	-0.123
-478.332	-74.874	-0.248	-0.089
-477.318	-133.293	-0.228	0.029
-476.303	-200.000	-0.039	-0.180
-475.289	800.000	0.029	0.097
-474.274	70.390	0.074	-0.077
-473.259	679.150	0.100	-0.260
-472.245	800.000	0.030	-0.130
-471.230	108.003	-0.140	-0.167
-470.216	-57.418	0.218	0.096
-469.201	-147.564	0.415	0.035
-468.186	336.170	0.020	0.039
-467.172	-149.440	0.011	-0.001
-466.157	705.075	-0.095	0.252
-465.143	-200.000	0.016	0.089
-464.128	531.294	-0.057	0.135
-463.113	-200.000	0.013	0.223
-462.099	800.000	-0.049	-0.159
-461.084	206.264	-0.068	-0.106
-460.070	312.788	-0.225	0.424
-459.055	324.230	0.131	0.251
-458.040	111.918	0.332	0.401
-457.026	-113.235	-0.132	-0.026
-456.011	-90.561	0.125	0.036
-454.997	72.413	-0.134	0.140
-453.982	-200.000	0.008	0.091
-452.968	-200.000	0.006	-0.346
-451.953	490.720	0.034	-0.077
-450.938	161.196	0.021	0.030
-449.924	123.509	0.106	-0.133
-448.909	141.152	0.189	-0.250
-447.895	242.987	0.152	0.255
-446.880	-94.810	-0.325	-0.088
-445.865	53.019	0.134	-0.129
-444.851	492.735	0.093	0.214
-443.836	-200.000	0.085	-0.430
-442.822	-147.208	-0.117	0.010
-441.807	-200.000	0.026	0.227
-440.792	368.640	-0.128	-0.260
-439.778	-43.108	-0.191	-0.097
-438.763	206.543	0.127	0.198
-437.749	-137.836	0.088	0.010
-436.734	66.910	-0.144	0.147
-435.719	-12.274	0.524	-0.343
-434.705	800.000	0.073	-0.252
-433.690	-42.849	0.114	-0.058
-432.676	-97.247	-0.123	0.032
-431.661	-8.002	0.359	-0.242
-430.646	-90.761	-0.092	0.027
-429.632	-112.293	0.254	0.051
-428.617	-200.000	-0.003	0.032
-427.603	-200.000	-0.022	-0.412
-426.588	21.036	-0.170	0.138
-425.573	680.440	-0.081	0.210
-424.559	-69.802	0.275	-0.105
-423.544	32.418	-0.132	0.114
-422.530	-2.627	-0.077	0.054
-421.515	-14.863	0.176	0.113
-420.500	-127.908	0.156	0.022
-419.486	-3.737	-0.300	-0.208
-418.471	296.401	-0.091	-0.167
-417.457	-108.069	0.102	-0.022
-416.442	797.360	-0.023	0.063
-415.428	-28.480	-0.092	0.053
-414.413	-200.000	-0.054	0.248
-413.398	-29.623	-0.121	-0.069
-412.384	571.773	-0.007	-0.017
-411.369	33.381	-0.078	0.068
-410.355	161.335	0.240	0.336
-409.340	-115.742	-0.249	-0.047
-408.325	739.793	-0.060	0.162
-407.311	-200.000	-0.042	0.245
-406.296	588.146	-0.066	-0.162
-405.282	-33.066	0.161	-0.089
-404.267	-115.688	-0.101	-0.019
-403.252	800.000	0.087	-0.328
-402.238	23.444	0.029	-0.024
-401.223	800.000	-0.170	-0.671
-400.209	-104.175	0.077	0.018
-399.194	486.948	-0.151	0.345
-398.179	579.637	-0.121	0.295
-397.165	-33.358	-0.234	0.129
-396.150	524.689	0.175	-0.412
-395.136	54.273	0.097	-0.093
-394.121	-121.270	0.170	0.028
-393.106	-119.375	0.025	-0.004
-392.092	-168.943	-0.202	-0.008
-391.077	6.653	0.151	0.112
-390.063	-150.580	-0.179	-0.014
-389.048	800.000	-0.044	-0.156
-388.033	-81.132	0.120	-0.040
-387.019	-106.185	-0.343	-0.077
-386.004	-44.045	-0.248	0.124
-384.990	64.951	-0.231	0.232
-383.975	203.621	0.136	0.210
-382.960	-70.391	-0.204	-0.077
-381.946	93.370	0.053	-0.060
-380.931	-200.000	0.006	0.147
-379.917	544.638	0.180	-0.430
-378.902	46.225	0.081	-0.075
-377.888	-200.000	0.026	-0.178
-376.873	800.000	0.041	0.164
-375.858	12.443	0.137	-0.105
-374.844	750.840	0.096	-0.260
-373.829	-200.000	0.030	0.206
-372.815	-153.038	-0.169	-0.012
-371.800	254.353	0.063	-0.108
-370.785	-146.980	-0.182	0.016
-369.771	289.813	-0.058	-0.106
-368.756	-166.798	0.151	-0.006
-367.742	-38.739	0.152	-0.080
-366.727	596.218	0.056	0.138
-365.712	-88.335	0.116	0.035
-364.698	288.217	0.089	0.161
-363.683	154.712	0.148	-0.203
-362.669	87.530	0.091	-0.100
-361.654	-118.951	0.297	0.052
-360.639	7.297	-0.057	0.042
-359.625	218.386	-0.055	-0.088
-358.610	-77.814	0.244	0.084
-357.596	800.000	-0.113	0.378
-356.581	-67.270	0.302	0.119
-355.566	-200.000	-0.045	0.485
-354.552	-200.000	-0.042	-0.233
-353.537	-119.022	-0.095	0.017
-352.523	-200.000	-0.019	0.145
-351.508	-127.883	0.063	-0.009
-350.493	-200.000	-0.001	0.039
-349.479	100.003	-0.016	-0.018
-348.464	109.980	-0.170	0.203
-347.450	800.000	0.067	0.236
-346.435	-47.522	0.198	0.096
-345.420	800.000	-0.057	0.242
-344.406	800.000	-0.005	0.019
-343.391	-91.108	0.327	0.093
-342.377	0.658	-0.204	-0.145
-341.362	-200.000	0.054	-0.326
-340.348	-200.000	-0.077	-0.399
-339.333	800.000	0.045	-0.161
-338.318	-200.000	-0.021	-0.249
-337.304	-69.522	-0.356	-0.136
-336.289	107.299	-0.125	0.148
-335.275	367.875	0.165	0.333
-334.260	-59.193	0.157	0.068
-333.245	-41.664	0.071	-0.036
-332.231	-87.249	0.189	0.057
-331.216	94.691	0.110	-0.124
-330.202	-55.025	-0.286	-0.129
-329.187	800.000	-0.068	-0.223
-328.172	-200.000	0.010	0.126
-327.158	113.286	-0.120	0.145
-326.143	-170.443	0.208	-0.007
-325.129	800.000	0.021	0.065
-324.114	37.768	0.087	0.077
-323.099	309.170	0.123	-0.229
-322.085	800.000	-0.055	-0.229
-321.070	-78.736	0.081	0.027
-320.056	47.917	0.040	0.037
-319.041	800.000	-0.040	-0.165
-318.026	209.880	-0.237	0.371
-317.012	-119.687	-0.087	0.015
-315.997	-96.780	-0.180	-0.047
-314.983	-139.877	0.108	0.011
-313.968	800.000	0.118	-0.435
-312.953	-200.000	0.010	-0.262
-311.939	800.000	0.041	-0.142
-310.924	800.000	0.076	-0.314
-309.910	213.572	0.140	0.221
-308.895	91.782	0.203	-0.228
-307.880	-200.000	0.028	-0.193
-306.866	-200.000	0.011	0.367
-305.851	217.469	-0.105	0.167
-304.837	800.000	-0.113	0.356
-303.822	-40.445	0.229	-0.118
-302.807	691.113	-0.091	-0.238
-301.793	279.097	-0.137	-0.244
-300.778	-61.386	0.335	0.140
-299.764	57.301	-0.189	-0.183
-298.749	800.000	-0.117	-0.394
-297.735	-200.000	-0.004	-0.069
-296.720	100.334	0.115	-0.133
-295.705	-130.202	0.225	-0.031
-294.691	98.424	0.034	0.039
-293.676	-146.792	0.142	0.012
-292.662	-24.657	0.221	-0.131
-291.647	70.897	0.073	-0.075
-290.632	-148.313	-0.098	0.008
-289.618	-109.823	-0.293	0.061
-288.603	800.000	-0.039	0.165
-287.589	-200.000	0.015	0.420
-286.574	-64.598	-0.244	0.099
-285.559	615.600	-0.156	-0.388
-284.545	322.137	-0.032	0.061
-283.530	-200.000	0.005	-0.168
-282.516	112.861	0.136	-0.164
-281.501	800.000	0.136	-0.388
-280.486	224.552	0.125	0.201
-279.472	-96.982	-0.461	0.120
-278.457	-200.000	0.045	0.354
-277.443	50.866	0.058	0.055
-276.428	347.350	-0.172	-0.337
-275.413	164.204	-0.220	0.308
-274.399	-200.000	-0.011	0.051
-273.384	144.864	0.073	-0.097
-272.370	-73.467	0.343	0.125
-271.355	-200.000	0.047	0.550
-270.340	-200.000	-0.016	-0.238
-269.326	-200.000	-0.001	-0.199
-268.311	-6.281	-0.132	-0.090
-267.297	800.000	0.079	0.287
-266.282	-149.156	-0.231	0.018
-265.267	194.166	0.156	0.235
-264.253	-200.000	0.011	0.177
-263.238	-200.000	0.014	-0.178
-262.224	-83.639	-0.456	-0.145
-261.209	-110.791	0.272	-0.056
-260.195	-134.069	0.379	0.047
-259.180	-142.189	0.428	0.042
-258.165	-200.000	-0.012	0.335
-257.151	-200.000	0.030	-0.173
-256.136	-139.646	0.217	0.023
-255.122	-45.899	0.094	-0.046
-254.107	226.655	0.115	0.185
-253.092	-43.139	0.233	0.118
-252.078	15.872	-0.336	0.262
-251.063	-181.855	0.291	0.006
-250.049	-200.000	0.023	0.143
-249.034	-200.000	0.016	0.150
-248.019	800.000	0.051	-0.141
-247.005	-31.626	0.353	0.197
-245.990	-200.000	0.042	-0.236
-244.976	-200.000	-0.079	-0.551
-243.961	800.000	0.126	-0.476
-242.946	-33.650	-0.232	0.127
-241.932	800.000	-0.055	-0.198
-240.917	25.506	0.042	0.034
-239.903	5.625	-0.105	-0.077
-238.888	800.000	-0.057	0.184
-237.873	-146.028	0.155	-0.014
-236.859	800.000	-0.018	0.055
-235.844	373.834	-0.109	0.220
-234.830	-119.649	-0.440	0.076
-233.815	-110.339	-0.082	0.017
-232.800	212.271	0.088	-0.138
-231.786	100.701	0.209	-0.241
-230.771	-200.000	0.308	-0.001
-229.757	55.783	-0.135	0.130
-228.742	-16.082	-0.104	-0.066
-227.727	-200.000	-0.025	0.231
-226.713	59.113	-0.133	0.130
-225.698	216.095	-0.139	-0.219
-224.684	-200.000	-0.026	0.155
-223.669	-77.252	0.253	-0.088
-222.655	195.800	-0.089	0.135
-221.640	185.897	0.126	-0.185
-220.625	-200.000	-0.017	0.234
-219.611	169.829	-0.103	0.146
-218.596	542.947	-0.035	0.083
-217.582	242.482	0.114	-0.190
-216.567	642.802	-0.059	0.149
-215.552	-97.797	0.234	-0.060
-214.538	-200.000	0.026	0.264
-213.523	462.189	-0.099	0.220
-212.509	800.000	-0.068	-0.255
-211.494	-195.528	-0.287	0.002
-210.479	9.470	-0.350	-0.263
-209.465	-38.123	0.161	0.085
-208.450	2.710	0.123	-0.089
-207.436	-13.085	0.033	0.021
-206.421	-85.869	0.235	-0.072
-205.406	-88.869	-0.290	-0.085
-204.392	800.000	-0.042	0.154
-203.377	-126.338	0.121	-0.018
-202.363	312.921	-0.053	0.099
-201.348	-106.200	0.051	-0.011
-200.333	177.146	-0.220	-0.318
-199.319	-85.139	-0.352	-0.109
-198.304	-141.200	0.028	0.003
-197.290	-4.532	-0.191	0.131
-196.275	-200.000	0.011	-0.344
-195.260	-22.508	-0.036	-0.021
-194.246	800.000	-0.104	0.314
-193.231	-122.424	-0.043	-0.007
-192.217	-90.943	-0.196	-0.056
-191.202	717.064	0.092	0.243
-190.187	141.440	0.092	0.121
-189.173	800.000	-0.058	-0.235
-188.158	-63.756	0.090	0.037
-187.144	684.338	0.144	0.371
-186.129	3.559	-0.025	0.018
-185.114	-135.973	0.084	-0.010
-184.100	154.483	0.077	-0.104
-183.085	99.340	-0.089	0.102
-182.071	127.177	0.144	0.181
-181.056	196.007	0.131	0.197
-180.042	-19.481	0.158	0.097
-179.027	-46.801	0.349	0.169
-178.012	58.524	0.121	0.118
-176.998	77.268	-0.157	-0.165
-175.983	-0.671	0.049	-0.035
-174.969	147.089	-0.066	0.088
-173.954	-200.000	-0.002	-0.189
-172.939	27.054	0.128	0.107
-171.925	44.636	-0.184	0.167
-170.910	438.121	-0.084	-0.182
-169.896	19.582	-0.182	-0.145
-168.881	80.736	-0.209	-0.223
-167.866	187.641	-0.097	0.144
-166.852	579.616	-0.072	-0.174
-165.837	800.000	-0.037	0.120
-164.823	-191.780	0.093	0.001
-163.808	304.453	-0.066	-0.121
-162.793	164.594	0.056	-0.078
-161.779	-106.233	-0.200	-0.044
-160.764	-200.000	0.014	-0.173
-159.750	800.000	0.017	0.050
-158.735	-54.484	-0.234	-0.105
-157.720	-52.473	-0.132	-0.061
-156.706	498.992	0.065	0.149
-155.691	-200.000	-0.017	0.093
-154.677	131.859	-0.202	-0.258
-153.662	437.030	0.210	-0.453
-152.647	800.000	-0.099	0.301
-151.633	346.708	-0.104	0.203
-150.618	-200.000	-0.079	-0.348
-149.604	800.000	0.014	0.040
-148.589	18.957	-0.172	-0.137
-147.574	18.204	-0.139	0.110
-146.560	231.621	0.064	0.104
-145.545	-200.000	-0.019	0.090
-144.531	123.583	-0.051	-0.063
-143.516	-89.517	-0.159	0.046
-142.502	-21.690	0.138	0.083
-141.487	0.854	-0.183	0.130
-140.472	100.071	-0.234	0.268
-139.458	-52.226	-0.146	0.067
-138.443	-117.160	0.471	0.085
-137.429	416.059	-0.111	-0.233
-136.414	-18.833	0.257	-0.158
-135.399	43.086	0.159	0.143
-134.385	203.601	0.037	0.056
-133.370	-200.000	-0.020	-0.117
-132.356	800.000	-0.094	-0.307
-131.341	690.056	-0.051	-0.133
-130.326	-24.761	0.188	-0.111
-129.312	-134.431	-0.112	-0.014
-128.297	800.000	0.037	0.108
-127.283	78.848	-0.181	-0.192
-126.268	35.880	0.244	0.212
-125.253	231.192	-0.026	-0.043
-124.239	-104.762	-0.379	-0.086
-123.224	800.000	0.066	-0.230
-122.210	-200.000	0.040	-0.464
-121.195	-146.317	0.196	0.017
-120.180	-200.000	-0.042	-0.283
-119.166	12.122	0.186	-0.142
-118.151	-27.121	0.280	-0.161
-117.137	120.222	0.012	0.015
-116.122	41.008	0.126	0.112
-115.107	-115.479	-0.298	-0.055
-114.093	-1.941	0.072	-0.050
-113.078	800.000	0.120	0.387
-112.064	-136.743	0.292	0.033
-111.049	-140.195	0.053	0.006
-110.034	800.000	-0.088	0.251
-109.020	-46.445	-0.195	-0.095
-108.005	567.545	-0.021	0.051
-106.991	-131.722	-0.285	0.037
-105.976	329.966	0.073	-0.139
-104.962	-200.000	0.017	0.117
-103.947	101.814	0.081	0.093
-102.932	-69.048	0.097	-0.037
-101.918	732.434	-0.052	-0.138
-100.903	122.438	-0.181	-0.223
-99.889	-12.821	-0.037	-0.024
-98.874	82.541	0.136	0.146
-97.859	-168.805	-0.108	0.004
-96.845	-200.000	0.009	0.231
-95.830	-200.000	-0.010	-0.276
-94.816	327.074	0.154	0.292
-93.801	800.000	-0.062	0.223
-92.786	-155.809	-0.318	0.020
-91.772	-73.898	0.120	0.043
-90.757	19.747	-0.134	-0.106
-89.743	-108.219	0.266	0.057
-88.728	-200.000	0.018	-0.105
-87.713	173.967	0.165	0.236
-86.699	-146.359	-0.146	-0.013
-85.684	-82.736	-0.066	-0.021
-84.670	-200.000	0.003	-0.398
-83.655	124.217	-0.196	-0.243
-82.640	87.712	-0.138	-0.151
-81.626	151.540	0.301	0.405
-80.611	-134.546	0.250	-0.030
-79.597	-57.135	-0.013	0.006
-78.582	-82.374	0.270	-0.086
-77.567	142.310	0.119	0.155
-76.553	109.887	0.132	-0.156
-75.538	-200.000	0.000	0.388
-74.524	-200.000	0.064	0.332
-73.509	-200.000	0.030	0.145
-72.494	-158.961	-0.248	-0.014
-71.480	-128.369	-0.144	0.020
-70.465	-13.199	-0.068	-0.044
-69.451	149.018	0.011	-0.015
-68.436	203.840	0.181	-0.276
-67.422	111.325	-0.133	-0.158
-66.407	-67.770	0.041	-0.016
-65.392	-17.825	-0.094	0.058
-64.378	116.449	-0.194	0.235
-63.363	65.196	-0.362	-0.361
-62.349	-21.158	-0.231	0.139
-61.334	-38.446	-1.083	-0.565
-60.319	3.725	0.502	0.361
-59.305	-200.000	-0.087	-1.196
-58.290	61.827	0.675	0.663
-57.276	569.675	0.552	1.322
-56.261	-200.000	97.479	592.263
-55.246	565.520	1384.177	3308.727
-54.232	153.816	2586.124	3494.028
-53.217	117.146	2158.784	2614.844
-52.203	46.601	1615.861	1478.442
-51.188	38.325	1351.887	1186.904
-50.173	34.994	1309.562	1130.066
-49.159	58.458	1359.687	1314.882
-48.144	62.434	1378.087	1356.460
-47.130	38.518	1331.547	1170.012
-46.115	34.905	1313.428	1132.695
-45.100	34.716	1308.833	1127.576
-44.086	34.599	1306.701	1125.004
-43.071	34.568	1303.907	1122.369
-42.057	34.552	1302.131	1120.704
-41.042	34.509	1300.863	1119.316
-40.027	34.543	1299.417	1118.226
-39.013	34.570	1297.121	1116.363
-37.998	34.668	1295.062	1115.121
-36.984	34.649	1293.667	1113.761
-35.969	34.670	1291.648	1112.103
-34.954	34.709	1290.070	1110.929
-33.940	34.701	1288.698	1109.654
-32.925	34.770	1287.519	1108.997
-31.911	34.837	1285.901	1107.948
-30.896	34.748	1284.845	1106.478
-29.881	34.730	1283.768	1105.403
-28.867	34.872	1281.884	1104.556
-27.852	34.841	1280.454	1103.101
-26.838	34.805	1278.953	1101.559
-25.823	34.888	1277.524	1100.762
-24.809	34.828	1276.361	1099.368
-23.794	34.694	1275.252	1097.603
-22.779	34.814	1273.467	1096.712
-21.765	34.817	1272.306	1095.684
-20.750	34.829	1271.052	1094.628
-19.736	34.711	1269.732	1092.771
-18.721	34.626	1268.963	1091.583
-17.706	34.675	1267.307	1090.397
-16.692	34.600	1266.857	1089.535
-15.677	34.650	1265.234	1088.384
-14.663	34.645	1264.238	1087.453
-13.648	34.590	1263.322	1086.311
-12.633	34.606	1262.574	1085.712
-11.619	34.647	1261.867	1085.298
-10.604	34.558	1260.934	1083.945
-9.590	34.585	1259.717	1083.010
-8.575	34.558	1259.071	1082.258
-7.560	34.564	1257.771	1081.130
-6.546	34.555	1257.475	1080.783
-5.531	34.586	1255.832	1079.504
-4.517	34.605	1255.183	1079.009
-3.502	34.624	1254.347	1078.357
-2.487	34.695	1253.166	1077.700
-1.473	34.593	1249.294	1073.752
-0.458	33.206	1234.554	1053.321
0.556	29.983	1216.527	1015.461
1.571	26.266	1221.835	999.283
2.586	25.353	1236.926	1006.421
3.600	24.577	1225.946	993.089
4.615	17.934	1151.925	898.220
5.629	6.959	1073.575	782.972
6.644	2.119	1051.696	743.425
7.659	1.802	1048.786	739.763
8.673	1.729	1047.607	738.512
9.688	1.721	1046.322	737.501
10.702	2.141	1045.282	738.734
11.717	8.930	1054.915	778.528
12.731	19.110	1069.730	839.277
13.746	24.155	1074.920	867.924
14.761	24.794	1076.103	871.916
15.775	24.797	1075.734	871.554
16.790	24.636	1074.442	869.648
17.804	24.509	1074.100	868.674
18.819	24.835	1073.443	869.654
19.834	24.736	1073.446	869.097
20.848	24.665	1072.845	868.190
21.863	24.911	1072.276	868.844
22.877	24.720	1071.690	867.366
23.892	24.804	1070.613	866.827
24.907	24.778	1069.707	865.887
25.921	24.694	1069.262	865.046
26.936	24.681	1067.839	863.757
27.950	24.607	1066.280	862.059
28.965	24.454	1064.360	859.694
29.980	24.754	1062.664	859.693
30.994	24.842	1061.810	859.348
32.009	24.690	1061.144	858.005
33.023	24.521	1060.024	856.210
34.038	24.651	1059.267	856.147
35.053	24.821	1058.334	856.133
36.067	24.774	1057.683	855.303
37.082	24.914	1057.066	855.401
38.096	24.932	1056.427	854.893
39.111	25.120	1055.413	854.891
40.126	24.788	1054.608	852.581
41.140	24.568	1052.655	849.882
42.155	24.325	1051.180	847.462
43.169	24.448	1050.008	847.023
44.184	24.487	1049.376	846.626
45.199	24.233	1048.682	844.787
46.213	24.389	1047.604	844.582
47.228	24.592	1046.825	844.841
48.242	24.667	1045.898	844.373
49.257	24.724	1045.282	844.069
50.271	24.917	1044.495	844.269
51.286	24.825	1043.718	843.130
52.301	24.796	1043.015	842.352
53.315	24.703	1041.618	840.712
54.330	24.772	1040.687	840.209
55.344	24.816	1040.383	840.098
56.359	24.672	1039.232	838.417
57.374	24.517	1038.298	836.865
58.388	24.590	1037.634	836.598
59.403	24.517	1036.304	835.110
60.417	24.297	1035.812	833.608
61.432	24.380	1035.283	833.498
62.447	24.532	1034.555	833.550
63.461	24.646	1033.817	833.411
64.476	24.538	1032.663	831.905
65.490	24.500	1031.769	830.932
66.505	24.529	1031.339	830.649
67.520	24.546	1030.836	830.250
68.534	24.295	1029.766	828.149
69.549	24.040	1028.645	825.989
70.563	24.051	1027.586	825.119
71.578	24.066	1026.637	824.351
72.593	23.846	1026.143	822.865
73.607	23.969	1025.185	822.593
74.622	24.141	1025.219	823.343
75.636	24.372	1024.181	823.500
76.651	24.213	1023.405	822.073
77.666	24.074	1022.540	820.666
78.680	24.213	1021.421	820.331
79.695	24.276	1021.151	820.335
80.709	24.378	1020.382	820.112
81.724	24.383	1019.380	819.256
82.739	24.470	1018.857	819.163
83.753	24.688	1018.581	819.868
84.768	25.117	1017.387	820.799
85.782	25.085	1017.019	820.286
86.797	25.209	1015.573	819.610
87.812	25.018	1014.799	818.041
88.826	25.001	1014.427	817.592
89.841	25.000	1013.534	816.794
90.855	25.021	1012.647	816.103
91.870	25.069	1011.745	815.526
92.884	24.723	1011.046	813.316
93.899	24.823	1009.568	812.507
94.914	25.053	1008.784	812.850
95.928	24.877	1007.678	811.088
96.943	24.753	1006.235	809.294
97.957	24.341	1005.666	806.900
98.972	24.185	1004.686	805.339
99.987	24.533	1003.602	805.967
101.001	24.737	1002.669	806.068
102.016	24.691	1002.178	805.396
103.030	24.656	1001.474	804.600
104.045	24.425	1000.407	802.635
105.060	24.353	998.832	800.973
106.074	24.593	998.377	801.614
107.089	24.720	998.398	802.133
108.103	24.707	996.882	800.783
109.118	24.487	995.771	798.838
110.133	24.440	994.632	797.645
111.147	24.334	993.549	796.229
112.162	24.116	992.739	794.540
113.176	24.370	992.451	795.369
114.191	24.395	991.289	794.482
115.206	24.118	990.378	792.446
116.220	24.101	989.138	791.310
117.235	24.264	988.289	791.284
118.249	24.361	987.496	791.008
119.264	24.135	986.870	789.435
120.279	24.182	986.459	789.244
121.293	24.306	985.920	789.295
122.308	24.288	985.051	788.450
123.322	24.150	983.834	786.796
124.337	24.017	982.162	784.800
125.352	23.729	980.145	781.853
126.366	23.561	979.746	780.725
127.381	24.223	979.771	783.588
128.395	24.785	979.041	785.405
129.410	24.772	978.432	784.787
130.424	24.696	977.647	783.756
131.439	24.835	976.560	783.423
132.454	24.646	976.136	782.190
133.468	24.495	975.371	780.848
134.483	24.767	974.526	781.288
135.497	25.002	973.514	781.432
136.512	24.937	972.998	780.667
137.527	25.085	971.543	780.073
138.541	24.914	971.312	779.075
139.556	25.000	970.362	778.620
140.570	24.949	969.894	777.955
141.585	25.173	968.005	777.341
142.600	24.984	967.452	776.008
143.614	25.278	966.734	776.637
144.629	25.385	965.664	776.169
145.643	25.134	964.708	774.250
146.658	24.906	963.410	772.155
147.673	24.833	962.174	770.781
148.687	24.978	961.118	770.492
149.702	24.625	960.309	768.259
150.716	24.701	959.308	767.715
151.731	25.009	958.355	768.207
152.746	25.143	958.088	768.500
153.760	25.270	957.557	768.549
154.775	25.278	957.088	768.137
155.789	25.246	956.254	767.264
156.804	25.223	955.561	766.542
157.819	25.220	954.861	765.900
158.833	25.396	953.757	765.697
159.848	25.257	953.186	764.580
160.862	25.128	951.627	762.712
161.877	25.181	950.600	762.047
162.892	25.293	949.739	761.767
163.906	25.138	948.620	760.142
164.921	25.047	948.253	759.396
165.935	25.060	947.147	758.496
166.950	25.178	946.241	758.205
167.964	25.187	945.516	757.593
168.979	25.013	944.352	755.859
169.994	25.035	943.316	755.056
171.008	25.197	942.983	755.406
172.023	25.228	942.168	754.818
173.037	25.167	941.149	753.677
174.052	24.719	940.157	750.933
175.067	24.900	939.253	750.905
176.081	25.140	938.906	751.566
177.096	25.000	938.283	750.415
178.110	24.663	937.230	748.096
179.125	24.460	936.369	746.495
180.140	24.617	935.936	746.739
181.154	24.801	935.599	747.174
182.169	25.014	935.622	748.013
183.183	25.209	935.122	748.364
184.198	25.077	934.244	747.045
185.213	24.929	933.572	745.825
186.227	25.090	932.954	745.934
187.242	25.095	932.392	745.441
188.256	25.239	931.578	745.321
189.271	25.444	930.491	745.237
190.286	25.027	929.550	742.690
191.300	24.299	928.313	738.619
192.315	23.520	926.286	733.720
193.329	23.545	926.244	733.725
194.344	24.434	926.729	737.721
195.359	24.955	926.723	739.805
196.373	25.091	925.778	739.545
197.388	25.012	925.494	738.928
198.402	25.051	924.830	738.492
199.417	25.105	924.356	738.272
200.432	24.726	923.064	735.615
201.446	24.543	923.041	734.779
202.461	24.773	922.172	734.968
203.475	23.774	920.041	729.105
204.490	22.939	918.927	724.737
205.504	23.946	919.328	729.119
206.519	24.494	919.474	731.414
207.534	24.726	918.547	731.561
208.548	25.061	918.696	732.986
209.563	24.905	917.492	731.323
210.577	24.843	916.765	730.427
211.592	25.232	916.638	731.848
212.607	25.113	915.803	730.631
213.621	25.273	915.100	730.657
214.636	25.175	914.495	729.712
215.650	25.083	913.580	728.541
216.665	25.369	912.926	729.116
217.680	25.164	912.176	727.624
218.694	24.798	910.863	725.027
219.709	24.680	910.218	723.973
220.723	25.001	910.159	725.162
221.738	25.039	909.387	724.635
222.753	24.965	908.587	723.635
223.767	25.178	908.175	724.104
224.782	25.240	908.125	724.249
225.796	25.593	907.139	724.823
226.811	24.781	906.007	720.583
227.826	24.073	904.543	716.507
228.840	24.273	903.875	716.718
229.855	24.289	903.338	716.293
230.869	23.921	902.500	714.088
231.884	24.424	902.389	715.956
232.899	25.079	902.872	718.903
233.913	25.043	901.627	717.703
234.928	24.875	901.161	716.597
235.942	24.933	900.533	716.266
236.957	24.593	899.460	713.994
237.972	24.563	899.066	713.495
238.986	24.894	898.334	714.173
240.001	24.737	897.827	713.080
241.015	24.883	897.488	713.332
242.030	24.914	897.326	713.263
243.045	25.024	896.706	713.145
244.059	25.112	896.298	713.108
245.074	24.938	895.164	711.452
246.088	24.701	894.327	709.780
247.103	24.935	894.069	710.443
248.117	25.481	894.041	712.521
249.132	25.761	893.484	713.122
250.147	25.758	893.246	712.858
251.161	26.063	892.286	713.238
252.176	25.946	891.896	712.397
253.190	25.975	891.258	711.942
254.205	26.180	891.061	712.529
255.220	26.111	890.062	711.393
256.234	26.018	889.389	710.429
257.249	25.814	888.902	709.172
258.263	25.926	887.892	708.745
259.278	26.039	887.345	708.688
260.293	26.042	886.955	708.328
261.307	25.796	886.645	707.051
262.322	25.739	885.239	705.644
263.336	25.004	883.412	701.250
264.351	23.975	881.675	695.786
265.366	24.003	881.511	695.707
266.380	25.176	882.076	700.677
267.395	25.720	881.478	702.262
268.409	25.459	881.088	700.871
269.424	25.697	880.699	701.426
270.439	25.667	880.123	700.790
271.453	25.870	879.394	700.935
272.468	25.985	878.990	700.999
273.482	26.202	878.561	701.439
274.497	25.601	877.323	698.055
275.512	25.203	876.904	696.117
276.526	25.594	876.829	697.511
277.541	25.814	876.175	697.782
278.555	25.519	875.495	696.037
279.570	25.430	874.835	695.106
280.585	25.741	874.102	695.666
281.599	25.577	873.331	694.357
282.614	24.920	872.059	690.751
283.628	25.171	871.547	691.253
284.643	25.243	871.137	691.143
285.657	25.105	870.191	689.799
286.672	24.842	869.298	688.019
287.687	25.230	869.519	689.625
288.701	25.263	868.903	689.202
289.716	24.864	868.335	687.159
290.730	24.951	867.493	686.766
291.745	24.834	866.464	685.441
292.760	25.261	866.240	686.839
293.774	26.015	866.728	690.052
294.789	26.302	866.773	691.124
295.803	26.446	865.757	690.804
296.818	26.534	865.109	690.560
297.833	25.920	863.911	687.202
298.847	25.707	863.583	686.069
299.862	26.023	863.266	686.961
300.876	26.284	863.027	687.704
301.891	26.209	862.207	686.704
302.906	25.703	861.656	684.281
303.920	25.989	861.379	685.088
304.935	26.219	861.169	685.734
305.949	26.366	859.726	685.079
306.964	25.969	859.475	683.314
307.979	25.974	859.108	682.983
308.993	26.546	858.513	684.611
310.008	26.442	857.994	683.745
311.022	26.091	857.027	681.589
312.037	26.019	857.159	681.363
313.052	25.769	855.725	679.218
314.066	24.817	854.146	674.320
315.081	24.527	853.529	672.680
316.095	25.549	853.660	676.571
317.110	25.859	853.730	677.735
318.125	25.076	852.049	673.399
319.139	23.956	850.675	668.050
320.154	24.082	850.385	668.237
321.168	25.112	850.564	672.182
322.183	25.629	850.815	674.260
323.197	25.825	850.369	674.577
324.212	25.997	850.225	675.050
325.227	26.039	849.461	674.539
326.241	25.953	848.578	673.457
327.256	25.897	847.912	672.663
328.270	25.896	846.955	671.837
329.285	25.561	846.412	670.099
330.300	25.443	845.421	668.818
331.314	25.568	845.575	669.345
332.329	26.020	845.244	670.706
333.343	26.216	844.866	671.072
334.358	26.132	844.214	670.183
335.373	26.193	844.025	670.204
336.387	26.471	844.109	671.240
337.402	26.619	844.129	671.748
338.416	26.556	843.570	671.008
339.431	26.502	843.676	670.834
340.446	26.859	842.723	671.337
341.460	26.693	842.358	670.374
342.475	26.400	841.880	668.848
343.489	26.414	841.708	668.707
344.504	26.659	841.590	669.458
345.519	26.934	840.934	669.892
346.533	27.053	840.490	669.919
347.548	27.042	839.913	669.358
348.562	26.988	839.131	668.477
349.577	26.979	838.197	667.643
350.592	26.884	837.857	666.963
351.606	26.842	837.333	666.332
352.621	26.711	836.564	665.179
353.635	26.633	835.709	664.155
354.650	26.068	834.371	660.965
355.665	25.172	832.840	656.415
356.679	25.629	832.710	657.928
357.694	25.760	832.373	658.080
358.708	25.840	831.504	657.627
359.723	26.331	831.334	659.227
360.738	26.437	831.380	659.591
361.752	26.696	830.718	659.951
362.767	27.036	829.913	660.490
363.781	27.342	830.222	661.791
364.796	27.344	829.693	661.319
365.810	27.524	829.001	661.362
366.825	27.191	828.997	660.089
367.840	26.959	828.475	658.773
368.854	26.662	827.208	656.631
369.869	26.538	826.919	655.897
370.883	26.706	826.075	655.776
371.898	26.573	825.899	655.096
372.913	26.709	825.629	655.318
373.927	26.860	825.245	655.498
374.942	26.956	824.740	655.385
375.956	27.037	824.536	655.459
376.971	27.149	823.988	655.369
377.986	27.312	823.776	655.729
379.000	27.301	823.034	655.043
380.015	27.120	822.263	653.720
381.029	27.136	821.831	653.375
382.044	27.303	821.199	653.417
383.059	27.193	820.953	652.766
384.073	27.365	820.576	653.028
385.088	27.270	819.837	652.041
386.102	27.121	818.827	650.645
387.117	27.076	818.213	649.940
388.132	26.700	816.868	647.472
389.146	26.274	815.966	645.176
390.161	26.594	816.320	646.544
391.175	26.896	816.239	647.499
392.190	26.663	814.689	645.383
393.205	25.372	812.840	639.271
394.219	23.799	811.060	632.221
395.234	23.695	810.838	631.621
396.248	25.502	812.175	639.038
397.263	26.939	812.920	644.678
398.278	26.771	812.885	643.993
399.292	26.484	811.988	642.209
400.307	26.659	811.560	642.433
401.321	26.611	811.217	641.935
402.336	26.953	811.373	643.215
403.350	27.530	811.128	645.006
404.365	27.723	811.022	645.550
405.380	27.965	810.682	646.077
406.394	28.117	809.949	645.973
407.409	27.933	809.293	644.742
408.423	27.878	809.168	644.391
409.438	28.083	808.490	644.518
410.453	28.145	808.508	644.694
411.467	27.988	807.866	643.573
412.482	28.033	807.631	643.487
413.496	28.078	806.701	642.847
414.511	27.928	806.826	642.362
415.526	28.128	806.076	642.410
416.540	27.969	805.318	641.191
417.555	27.610	804.724	639.402
418.569	27.805	804.321	639.709
419.584	27.668	804.064	638.967
420.599	27.497	803.336	637.736
421.613	108.823	1281.872	1445.988
422.628	93.905	1351.602	1446.105
