DTS Sentinel unit serial number:	SN413079Multiplexer serial number:	ORYXHardware model number:	OX4-SRSoftware version number:	ORYX F/W v4.00 Oryx Data Collector v3.7.2.0data status	okinstallation	princeton_trtdifferential loss correction	single-endedforward channel	channel 1reverse channel	N/Adate	2019/09/12time	18:30:34forward acquisition time	15.00reverse acquisition time	0.00gamma	496.2192k internal	0.2318k external	0.2318temperature offset calibration	1.0109default loss term (dB/km)	0.3790temperature slope calibration	1.0000multiplexer offset coefficient	1.0000multiplexer slope coefficient	1.0000fibre end	0.00T internal ref (°C)	33.25T ext. ref 1 (°C)	2.97T ext. ref 2 (°C)	27.84length (m)	temperature (°C)	Stokes	anti-Stokes-747.200	45.709	0.322	0.302
-746.185	447.442	-0.063	-0.141
-745.171	-38.725	-0.488	-0.260
-744.156	800.000	0.167	0.740
-743.142	198.965	-0.236	0.365
-742.127	61.023	0.373	0.375
-741.112	-200.000	-0.066	1.119
-740.098	92.485	0.420	0.480
-739.083	708.686	0.363	0.970
-738.069	-200.000	-0.099	0.754
-737.054	-22.515	0.385	-0.236
-736.039	-107.435	-0.426	-0.095
-735.025	68.234	0.361	-0.374
-734.010	800.000	-0.042	-0.174
-732.996	-7.862	-0.606	0.414
-731.981	177.362	0.424	0.624
-730.966	333.492	-0.096	-0.188
-729.952	-126.124	0.077	0.012
-728.937	25.335	-0.863	0.726
-727.923	321.156	0.329	-0.633
-726.908	-45.668	0.403	0.202
-725.894	-48.703	0.400	-0.194
-724.879	800.000	0.207	0.878
-723.864	0.621	-0.232	0.168
-722.850	158.558	0.121	0.169
-721.835	254.954	-0.281	-0.486
-720.821	-71.669	-0.634	0.239
-719.806	-99.318	0.531	0.135
-718.791	20.744	0.174	-0.142
-717.777	-68.582	-0.515	-0.202
-716.762	137.891	-0.297	0.394
-715.748	-200.000	-0.190	0.901
-714.733	-178.954	0.520	-0.012
-713.718	800.000	-0.086	-0.362
-712.704	-132.105	0.415	0.054
-711.689	800.000	-0.081	0.299
-710.675	-63.663	-0.987	0.409
-709.660	-175.085	-0.456	-0.013
-708.645	-181.901	-0.803	-0.015
-707.631	-200.000	0.050	-0.352
-706.616	-187.149	-0.299	-0.004
-705.602	53.999	0.975	-0.947
-704.587	22.312	0.448	-0.370
-703.572	13.250	-0.617	0.483
-702.558	-115.650	-0.575	-0.109
-701.543	116.689	-0.240	-0.297
-700.529	-77.200	0.486	0.171
-699.514	98.091	0.098	0.114
-698.499	-152.269	-0.655	-0.048
-697.485	-158.713	-0.709	-0.041
-696.470	271.583	0.388	-0.691
-695.456	191.715	-0.419	-0.638
-694.441	-7.391	0.233	-0.159
-693.426	-13.704	-0.423	-0.276
-692.412	-49.869	-0.565	0.271
-691.397	800.000	0.080	-0.339
-690.383	219.076	-0.197	0.318
-689.368	-99.174	0.537	-0.137
-688.354	47.562	-0.604	0.569
-687.339	800.000	0.108	-0.401
-686.324	-144.598	0.168	-0.016
-685.310	101.152	0.397	0.467
-684.295	-107.821	-0.194	0.043
-683.281	-200.000	0.036	0.316
-682.266	-52.007	0.669	-0.314
-681.251	132.017	-0.574	-0.746
-680.237	-132.257	-0.564	-0.074
-679.222	-110.345	0.666	-0.140
-678.208	-48.438	-0.077	-0.037
-677.193	-37.787	-0.293	-0.158
-676.178	-76.755	0.494	0.175
-675.164	-0.096	0.365	-0.262
-674.149	21.676	-0.283	-0.232
-673.135	363.706	0.166	0.337
-672.120	58.381	-0.166	-0.164
-671.105	-131.130	0.802	-0.108
-670.091	800.000	-0.098	-0.282
-669.076	260.275	-0.070	-0.122
-668.062	159.198	-0.308	0.432
-667.047	-200.000	-0.055	0.713
-666.032	-53.923	-0.186	0.085
-665.018	62.742	0.208	0.210
-664.003	-200.000	0.097	-1.086
-662.989	-57.245	-0.432	-0.192
-661.974	560.072	-0.200	0.487
-660.959	-200.000	0.180	0.939
-659.945	40.048	0.520	-0.472
-658.930	85.310	-0.305	-0.338
-657.916	34.434	-0.146	-0.128
-656.901	509.480	0.056	0.132
-655.886	800.000	-0.067	-0.200
-654.872	182.587	0.207	-0.308
-653.857	-150.105	-0.440	0.034
-652.843	26.844	-0.473	-0.400
-651.828	-157.357	0.179	0.011
-650.814	104.638	0.186	0.220
-649.799	-42.104	0.450	-0.232
-648.784	800.000	-0.184	-0.602
-647.770	191.523	0.351	-0.533
-646.755	-200.000	0.007	-0.067
-645.741	-90.967	-0.046	-0.013
-644.726	-34.297	-0.287	-0.159
-643.711	-200.000	-0.142	0.696
-642.697	180.198	0.121	-0.179
-641.682	66.272	0.521	-0.533
-640.668	-140.579	-0.268	0.028
-639.653	-113.726	0.871	-0.171
-638.638	6.644	0.492	-0.369
-637.624	-200.000	-0.054	-0.642
-636.609	-12.824	-0.127	-0.083
-635.595	-200.000	0.176	-0.914
-634.580	68.242	-0.248	-0.256
-633.565	25.566	-0.226	0.189
-632.551	-200.000	-0.111	0.547
-631.536	-200.000	0.042	-0.613
-630.522	-146.762	-0.217	-0.019
-629.507	800.000	-0.101	-0.431
-628.492	23.648	-0.190	-0.158
-627.478	-103.765	-0.312	-0.074
-626.463	-200.000	0.162	-0.854
-625.449	800.000	-0.039	-0.128
-624.434	-42.635	-0.657	0.337
-623.419	68.718	0.162	0.168
-622.405	-137.972	-0.556	-0.062
-621.390	-200.000	0.016	-0.315
-620.376	-67.121	0.250	0.099
-619.361	371.159	-0.154	0.315
-618.346	25.574	0.557	-0.467
-617.332	-162.416	0.668	0.033
-616.317	25.879	0.397	0.333
-615.303	-28.701	-0.994	0.576
-614.288	175.482	0.445	-0.650
-613.273	30.873	-0.592	-0.511
-612.259	618.324	0.104	-0.264
-611.244	-136.796	0.574	0.066
-610.230	32.526	0.647	0.563
-609.215	53.015	0.242	-0.233
-608.201	76.939	0.321	-0.343
-607.186	217.350	0.389	-0.624
-606.171	-34.008	0.673	0.372
-605.157	-60.900	0.159	-0.068
-604.142	714.835	0.149	0.398
-603.128	125.509	0.302	-0.384
-602.113	-200.000	0.117	0.832
-601.098	-200.000	-0.095	-0.852
-600.084	120.733	-0.271	-0.338
-599.069	800.000	-0.185	0.540
-598.055	-77.945	-0.643	0.223
-597.040	-132.542	-0.403	0.052
-596.025	62.746	-0.213	-0.214
-595.011	179.879	0.151	-0.222
-593.996	-85.709	0.332	0.104
-592.982	-112.322	0.322	0.065
-591.967	-103.205	-0.780	-0.186
-590.952	-200.000	-0.042	0.660
-589.938	-162.942	-0.416	-0.020
-588.923	80.685	0.329	0.356
-587.909	-0.347	-0.424	0.303
-586.894	-68.914	0.742	-0.288
-585.879	-54.863	0.629	0.286
-584.865	22.952	-0.447	0.369
-583.850	-126.792	0.270	-0.040
-582.836	74.573	-0.438	-0.463
-581.821	-34.180	0.495	0.274
-580.806	-153.483	-0.343	-0.024
-579.792	-102.735	0.247	-0.059
-578.777	-169.234	-0.274	-0.010
-577.763	-150.191	0.614	-0.048
-576.748	-53.670	-0.450	-0.207
-575.733	221.284	-0.351	0.566
-574.719	-60.316	0.245	-0.105
-573.704	-200.000	-0.154	0.852
-572.690	-200.000	-0.154	0.763
-571.675	111.380	0.385	-0.467
-570.661	-53.456	0.116	-0.053
-569.646	107.328	-0.644	0.770
-568.631	92.016	-0.169	-0.191
-567.617	36.864	-0.329	-0.293
-566.602	24.583	-0.490	0.407
-565.588	-34.069	-0.303	-0.168
-564.573	800.000	0.157	-0.568
-563.558	-35.899	-0.357	0.194
-562.544	800.000	0.103	0.387
-561.529	161.270	-0.725	1.018
-560.515	-145.547	-0.236	0.021
-559.500	-60.674	-0.427	0.182
-558.485	-52.514	-0.277	-0.129
-557.471	95.242	-0.529	-0.606
-556.456	-3.296	0.402	0.282
-555.442	13.256	-0.236	0.183
-554.427	800.000	0.429	1.341
-553.412	50.185	0.357	0.338
-552.398	144.240	0.182	0.244
-551.383	-70.243	0.574	0.219
-550.369	568.255	-0.154	-0.375
-549.354	-5.098	0.561	0.388
-548.339	-86.702	-0.303	-0.093
-547.325	205.667	-0.476	-0.743
-546.310	32.360	0.681	0.591
-545.296	276.072	0.432	-0.769
-544.281	528.804	0.219	0.518
-543.266	-100.647	-0.149	0.037
-542.252	-54.258	0.406	-0.185
-541.237	800.000	-0.174	0.690
-540.223	357.757	-0.139	-0.279
-539.208	-200.000	-0.087	0.679
-538.193	-200.000	-0.045	-0.285
-537.179	-200.000	0.088	0.433
-536.164	-114.645	0.323	-0.062
-535.150	62.306	0.553	-0.554
-534.135	-113.946	0.561	0.109
-533.121	735.024	-0.204	-0.548
-532.106	298.950	-0.114	-0.210
-531.091	358.734	0.207	0.414
-530.077	44.074	0.572	-0.526
-529.062	-171.717	0.829	0.027
-528.048	-200.000	-0.040	0.658
-527.033	38.905	0.185	-0.166
-526.018	-113.904	0.408	0.080
-525.004	-6.704	0.750	0.512
-523.989	157.303	0.369	0.512
-522.975	-131.997	0.463	-0.061
-521.960	-61.017	0.233	-0.099
-520.945	-71.743	-0.253	0.095
-519.931	-50.301	-0.458	0.217
-518.916	-64.619	0.884	-0.360
-517.902	-97.332	1.142	-0.299
-516.887	-200.000	-0.095	0.562
-515.872	-200.000	-0.028	0.327
-514.858	-67.381	0.577	0.227
-513.843	153.547	0.309	0.424
-512.829	85.824	0.217	-0.239
-511.814	6.072	-0.375	-0.279
-510.799	-123.034	-0.306	0.049
-509.785	-134.745	-0.501	-0.061
-508.770	-49.139	0.716	-0.343
-507.756	-151.809	-0.419	-0.031
-506.741	-75.636	0.574	0.205
-505.726	96.476	-0.377	0.433
-504.712	67.577	-0.052	-0.053
-503.697	49.683	-0.426	0.402
-502.683	35.049	0.363	0.319
-501.668	800.000	0.284	-0.834
-500.653	58.935	0.347	-0.342
-499.639	12.558	-0.203	-0.157
-498.624	100.270	-0.264	0.307
-497.610	800.000	0.148	0.523
-496.595	-42.827	0.288	0.146
-495.581	-20.188	-0.860	-0.531
-494.566	-200.000	0.056	0.379
-493.551	45.275	-0.109	0.101
-492.537	-200.000	0.058	0.441
-491.522	-120.787	-0.206	0.035
-490.508	-200.000	-0.001	0.145
-489.493	-47.517	1.108	0.539
-488.478	58.542	-0.717	-0.705
-487.464	374.861	-0.341	0.697
-486.449	31.689	0.216	0.186
-485.435	-115.597	0.881	-0.166
-484.420	6.405	0.712	-0.530
-483.405	-200.000	-0.005	0.807
-482.391	27.543	1.020	-0.859
-481.376	-88.044	-0.626	0.188
-480.362	239.544	0.381	0.635
-479.347	-29.819	0.411	-0.234
-478.332	-117.837	1.133	-0.204
-477.318	-52.068	0.775	-0.361
-476.303	-200.000	0.127	-0.557
-475.289	-200.000	0.040	0.378
-474.274	-79.190	0.530	-0.180
-473.259	60.226	-0.433	-0.429
-472.245	785.275	-0.168	0.460
-471.230	-140.592	0.459	-0.048
-470.216	-71.118	-0.108	-0.041
-469.201	215.231	0.387	0.614
-468.186	-200.000	-0.342	0.000
-467.172	-26.711	0.367	0.215
-466.157	800.000	0.104	-0.355
-465.143	-183.959	-0.899	-0.015
-464.128	-24.330	-0.207	-0.124
-463.113	800.000	0.179	0.503
-462.099	297.919	-0.333	-0.612
-461.084	-82.295	-0.540	-0.176
-460.070	800.000	-0.193	0.641
-459.055	-16.440	-0.297	-0.188
-458.040	-123.646	0.608	-0.096
-457.026	-76.685	-0.511	-0.179
-456.011	-62.663	1.215	-0.504
-454.997	-98.902	0.412	-0.105
-453.982	-22.631	0.535	0.324
-452.968	-200.000	0.026	0.215
-451.953	-116.871	-0.682	-0.125
-450.938	212.710	-0.213	0.336
-449.924	164.986	0.510	0.720
-448.909	-200.000	-0.063	-0.409
-447.895	221.933	-0.238	-0.382
-446.880	-70.732	-0.648	0.245
-445.865	216.456	-0.459	0.730
-444.851	-108.146	-0.023	-0.005
-443.836	54.798	0.365	0.352
-442.822	43.771	0.223	0.204
-441.807	-136.277	0.717	0.084
-440.792	572.261	0.153	0.372
-439.778	800.000	-0.145	0.416
-438.763	-58.104	-0.600	0.261
-437.749	-22.393	0.140	0.085
-436.734	-65.810	0.538	0.215
-435.719	-24.473	0.496	-0.296
-434.705	-58.696	1.099	-0.476
-433.690	-48.036	-0.603	-0.292
-432.676	-200.000	-0.069	0.543
-431.661	-103.621	-0.369	0.087
-430.646	392.795	-0.093	0.194
-429.632	275.331	-0.151	-0.268
-428.617	102.136	0.463	-0.541
-427.603	-119.964	-0.850	-0.146
-426.588	-34.562	-0.316	-0.173
-425.573	-112.321	-0.804	-0.161
-424.559	117.501	-0.267	-0.329
-423.544	-200.000	-0.101	0.971
-422.530	-200.000	-0.745	0.001
-421.515	86.233	0.181	0.200
-420.500	-200.000	-0.027	0.122
-419.486	521.235	0.224	-0.526
-418.471	-112.521	-0.345	0.069
-417.457	101.008	-0.207	0.240
-416.442	-44.394	0.410	0.205
-415.428	-54.951	0.481	0.217
-414.413	18.533	-0.465	0.371
-413.398	-109.691	0.215	0.045
-412.384	800.000	-0.217	-0.649
-411.369	-65.510	-0.527	0.211
-410.355	-68.894	0.252	0.097
-409.340	-200.000	-0.141	0.657
-408.325	-52.629	-0.264	-0.122
-407.311	319.188	0.113	-0.214
-406.296	3.924	-0.265	-0.194
-405.282	-92.324	1.086	-0.306
-404.267	-200.000	-0.017	-0.427
-403.252	272.609	-0.144	-0.253
-402.238	86.591	-0.372	-0.409
-401.223	50.042	-0.475	-0.448
-400.209	-88.373	0.716	-0.213
-399.194	640.048	-0.279	-0.710
-398.179	-120.981	-0.249	-0.042
-397.165	-108.047	-0.672	0.146
-396.150	211.001	0.247	-0.388
-395.136	-72.940	-0.575	-0.211
-394.121	-166.514	0.100	0.004
-393.106	-200.000	-0.040	0.403
-392.092	143.140	-0.402	-0.534
-391.077	-200.000	-0.057	-0.266
-390.063	524.093	0.171	0.402
-389.048	-164.669	-0.802	-0.036
-388.033	204.692	-0.438	0.678
-387.019	800.000	0.111	-0.484
-386.004	-35.261	0.129	-0.070
-384.990	-65.628	-0.381	-0.152
-383.975	800.000	0.058	-0.198
-382.960	37.577	-0.514	-0.456
-381.946	37.306	-0.284	0.251
-380.931	-91.765	-0.739	-0.209
-379.917	42.778	-0.332	0.302
-378.902	-41.765	-0.611	0.313
-377.888	220.697	0.398	0.638
-376.873	-136.922	0.387	-0.044
-375.858	23.374	-0.690	-0.566
-374.844	-200.000	-0.047	-0.956
-373.829	-139.926	-0.653	0.069
-372.815	-112.368	-0.150	0.030
-371.800	-200.000	0.139	0.623
-370.785	-104.873	-0.470	-0.108
-369.771	-200.000	0.127	-0.777
-368.756	-84.390	0.769	-0.243
-367.742	-58.043	-0.472	0.205
-366.727	800.000	-0.129	-0.499
-365.712	800.000	0.088	0.283
-364.698	-200.000	-0.020	0.416
-363.683	-130.965	0.161	-0.021
-362.669	38.095	0.227	0.201
-361.654	-200.000	-0.055	-0.368
-360.639	18.400	-0.398	-0.317
-359.625	-172.069	-0.805	0.026
-358.610	149.239	-0.168	0.227
-357.596	12.796	0.914	0.704
-356.581	800.000	-0.340	-0.957
-355.566	-140.706	-0.772	-0.080
-354.552	-90.993	0.331	-0.095
-353.537	142.736	0.481	0.636
-352.523	127.091	0.490	0.619
-351.508	-142.396	0.591	-0.058
-350.493	-200.000	-0.017	-0.572
-349.479	-96.234	-0.386	-0.102
-348.464	-69.627	0.236	-0.090
-347.450	-46.163	-0.489	0.240
-346.435	-200.000	-0.070	-0.487
-345.420	422.352	0.304	0.650
-344.406	12.875	-0.521	-0.401
-343.391	353.471	0.075	-0.149
-342.377	-200.000	-0.173	1.183
-341.362	306.955	-0.416	0.773
-340.348	-140.966	0.325	-0.033
-339.333	287.449	-0.133	-0.240
-338.318	800.000	0.281	-0.900
-337.304	-96.427	0.366	-0.096
-336.289	-122.053	-0.194	-0.032
-335.275	-200.000	-0.022	-0.388
-334.260	515.983	0.326	-0.760
-333.245	-54.104	0.123	0.056
-332.231	-116.271	0.203	0.037
-331.216	424.392	0.374	0.801
-330.202	-200.000	0.007	-0.485
-329.187	-97.137	0.403	-0.105
-328.172	72.768	0.188	-0.196
-327.158	358.866	-0.268	-0.533
-326.143	-67.767	0.417	0.162
-325.129	-178.138	-0.373	0.009
-324.114	-93.070	-0.479	-0.133
-323.099	25.592	-0.998	-0.827
-322.085	800.000	-0.087	-0.291
-321.070	-44.542	0.022	0.011
-320.056	-200.000	0.053	0.316
-319.041	57.664	0.321	-0.312
-318.026	-159.457	-0.085	0.005
-317.012	-52.844	0.207	-0.095
-315.997	-90.149	0.414	0.120
-314.983	644.168	0.050	-0.127
-313.968	78.572	-0.241	-0.257
-312.953	177.373	-0.122	-0.177
-311.939	-200.000	-0.031	0.687
-310.924	-200.000	-0.128	1.178
-309.910	-26.746	0.847	-0.493
-308.895	54.983	0.341	-0.328
-307.880	-200.000	-0.018	0.294
-306.866	20.586	-0.571	0.460
-305.851	48.626	-0.559	0.522
-304.837	72.242	-0.323	-0.334
-303.822	233.812	-0.227	-0.372
-302.807	-88.083	0.495	0.148
-301.793	-83.047	-0.613	-0.197
-300.778	-87.969	-0.783	0.234
-299.764	120.588	0.296	-0.365
-298.749	-92.529	-0.709	-0.198
-297.735	-200.000	0.097	-0.736
-296.720	144.201	0.342	-0.454
-295.705	-111.890	0.144	0.029
-294.691	75.490	-0.589	-0.618
-293.676	-23.151	-0.597	0.358
-292.662	30.156	0.532	0.452
-291.647	47.878	-0.227	-0.210
-290.632	-3.662	0.621	-0.429
-289.618	-131.628	0.277	-0.036
-288.603	-200.000	-0.055	-0.335
-287.589	430.635	-0.346	0.746
-286.574	-86.080	-0.551	-0.169
-285.559	-200.000	-0.032	0.429
-284.545	669.189	0.181	-0.465
-283.530	200.422	-0.630	-0.962
-282.516	-36.537	-0.201	0.108
-281.501	-144.568	-0.291	-0.027
-280.486	586.530	-0.110	-0.269
-279.472	174.815	0.229	-0.329
-278.457	167.421	0.107	0.151
-277.443	-134.829	-0.578	0.070
-276.428	-110.393	0.810	0.167
-275.413	800.000	0.086	0.267
-274.399	103.452	-0.389	-0.453
-273.384	91.517	-0.450	-0.502
-272.370	-71.813	-0.414	-0.153
-271.355	-152.214	0.448	0.032
-270.340	644.672	-0.104	0.264
-269.326	800.000	-0.059	0.213
-268.311	90.930	-0.228	-0.254
-267.297	-38.279	-0.274	-0.144
-266.282	349.830	-0.246	0.482
-265.267	87.608	-0.899	0.989
-264.253	-43.529	0.165	0.083
-263.238	-200.000	-0.008	-0.326
-262.224	12.113	0.330	0.252
-261.209	18.476	-0.145	0.115
-260.195	72.053	1.256	1.298
-259.180	-200.000	-0.059	0.641
-258.165	-191.280	-0.600	0.006
-257.151	-70.149	0.258	0.097
-256.136	-200.000	-0.007	0.203
-255.122	42.149	-0.320	-0.288
-254.107	800.000	-0.173	-0.735
-253.092	434.799	-0.194	0.418
-252.078	-155.455	0.501	0.032
-251.063	135.677	-0.275	0.355
-250.049	19.796	0.347	-0.277
-249.034	-108.621	0.526	0.112
-248.019	-46.967	0.520	0.252
-247.005	-34.856	-0.803	0.435
-245.990	166.083	0.508	-0.714
-244.976	800.000	0.245	-0.696
-243.961	-141.454	0.374	-0.038
-242.946	101.238	-0.379	0.438
-241.932	-21.245	-0.672	0.408
-240.917	24.108	-0.411	0.337
-239.903	32.673	-0.666	-0.572
-238.888	-120.328	-0.207	-0.035
-237.873	-60.113	0.490	0.208
-236.859	43.380	0.363	0.329
-235.844	-22.365	0.347	0.209
-234.830	368.485	-0.463	0.928
-233.815	-200.000	0.027	-0.848
-232.800	284.756	0.299	-0.534
-231.786	667.490	-0.243	0.623
-230.771	-200.000	0.026	0.485
-229.757	-200.000	0.022	0.376
-228.742	-200.000	0.163	-0.783
-227.727	-52.473	-0.245	0.112
-226.713	196.398	-0.267	0.404
-225.698	394.192	0.089	-0.183
-224.684	34.701	-0.192	-0.167
-223.669	-200.000	0.029	-0.635
-222.655	800.000	-0.094	-0.341
-221.640	-42.325	-0.575	0.291
-220.625	-175.468	-0.552	0.015
-219.611	17.426	-0.119	-0.094
-218.596	17.633	1.002	-0.790
-217.582	204.786	-0.133	0.205
-216.567	-116.869	0.290	0.053
-215.552	-76.037	0.733	0.257
-214.538	4.702	0.491	0.358
-213.523	-47.299	0.476	-0.230
-212.509	117.629	0.134	0.164
-211.494	-112.272	-0.331	-0.066
-210.479	800.000	-0.232	-0.769
-209.465	-200.000	-0.046	-0.621
-208.450	-200.000	-0.013	-0.281
-207.436	363.002	-0.107	0.214
-206.421	-84.334	-0.434	-0.136
-205.406	-200.000	-0.013	-0.247
-204.392	-200.000	-0.069	0.429
-203.377	800.000	0.323	1.035
-202.363	274.062	0.512	0.898
-201.348	-50.542	0.660	0.308
-200.333	-34.511	0.172	0.093
-199.319	-200.000	-0.007	-0.443
-198.304	105.060	0.567	0.663
-197.290	-3.088	-0.346	0.239
-196.275	-130.579	-0.238	0.032
-195.260	97.786	-0.461	0.526
-194.246	-200.000	0.048	0.243
-193.231	19.906	-0.517	-0.413
-192.217	59.766	-0.647	0.632
-191.202	-99.870	0.606	-0.150
-190.187	-200.000	-0.134	0.696
-189.173	800.000	-0.441	-1.216
-188.158	92.430	-0.399	0.446
-187.144	80.566	0.235	-0.251
-186.129	-200.000	-0.047	-0.600
-185.114	114.449	0.821	0.990
-184.100	-65.520	-0.485	-0.193
-183.085	-72.449	-0.833	-0.305
-182.071	-127.251	0.453	-0.066
-181.056	-142.665	-0.681	-0.066
-180.042	-200.000	-0.094	1.783
-179.027	380.688	0.166	0.337
-178.012	-129.199	-0.211	0.029
-176.998	274.011	-0.228	-0.399
-175.983	-62.989	-0.901	0.369
-174.969	50.995	0.280	-0.262
-173.954	-56.018	0.792	-0.349
-172.939	374.595	0.057	-0.114
-171.925	-122.723	0.644	-0.103
-170.910	539.484	-0.430	1.014
-169.896	800.000	0.085	0.289
-168.881	15.262	0.610	-0.474
-167.866	482.983	-0.199	-0.447
-166.852	167.135	-0.231	-0.325
-165.837	207.397	0.605	-0.933
-164.823	-5.040	0.527	-0.359
-163.808	-200.000	0.094	-1.162
-162.793	52.300	-0.445	0.420
-161.779	-60.457	0.514	-0.216
-160.764	2.827	-0.657	-0.471
-159.750	521.587	0.302	-0.702
-158.735	89.367	-0.389	0.429
-157.720	-113.867	0.685	0.132
-156.706	-189.748	0.564	-0.006
-155.691	-79.654	-0.942	0.314
-154.677	223.894	0.438	0.699
-153.662	-120.415	-0.736	-0.124
-152.647	-200.000	0.011	-0.963
-151.633	233.193	-0.150	0.244
-150.618	164.620	-0.379	-0.528
-149.604	-110.335	0.308	-0.063
-148.589	149.410	-0.116	0.156
-147.574	223.966	0.333	-0.532
-146.560	-200.000	0.011	-0.077
-145.545	168.008	0.244	0.343
-144.531	-200.000	-0.014	0.104
-143.516	-192.683	1.172	0.011
-142.502	-80.538	-0.346	0.114
-141.487	-127.717	-0.382	0.055
-140.472	-200.000	-0.010	-0.364
-139.458	19.316	-0.803	0.638
-138.443	-85.821	0.527	0.161
-137.429	81.998	0.632	0.676
-136.414	192.234	0.457	0.682
-135.399	37.592	-0.092	0.081
-134.385	6.702	-0.249	-0.183
-133.370	374.980	-0.396	-0.798
-132.356	5.345	-0.171	0.125
-131.341	-95.493	0.337	0.089
-130.326	-70.881	0.532	0.198
-129.312	-184.451	-1.207	-0.019
-128.297	-136.828	0.978	-0.111
-127.283	800.000	-0.042	0.129
-126.268	800.000	0.041	0.147
-125.253	329.121	0.250	0.475
-124.239	-152.484	-0.241	0.017
-123.224	-68.689	0.267	-0.102
-122.210	800.000	0.211	-0.723
-121.195	-3.774	-0.575	-0.394
-120.180	192.815	0.194	0.289
-119.166	191.722	-0.163	0.242
-118.151	-159.612	-0.569	0.031
-117.137	130.494	0.286	-0.362
-116.122	-124.709	-0.595	-0.091
-115.107	404.628	-0.449	0.934
-114.093	-104.080	0.614	0.141
-113.078	-23.147	0.201	0.120
-112.064	800.000	0.212	-0.871
-111.049	-67.490	0.504	-0.195
-110.034	41.874	-0.276	-0.247
-109.020	-200.000	-0.031	0.643
-108.005	17.804	0.533	-0.419
-106.991	-200.000	0.076	0.617
-105.976	-90.498	-0.600	0.171
-104.962	-145.108	-0.412	-0.037
-103.947	229.471	-0.011	-0.018
-102.932	800.000	0.033	0.129
-101.918	800.000	0.084	-0.328
-100.903	-20.331	0.479	0.291
-99.889	-200.000	0.017	-0.783
-98.874	5.591	-0.956	0.697
-97.859	-93.922	-0.572	0.155
-96.845	102.153	-0.883	-1.018
-95.830	520.359	0.301	0.696
-94.816	-25.681	0.492	0.286
-93.801	-167.080	-0.417	0.017
-92.786	800.000	0.111	-0.339
-91.772	-200.000	0.033	-0.481
-90.757	-54.098	-0.402	-0.181
-89.743	-200.000	-0.071	-0.808
-88.728	256.928	0.414	0.702
-87.713	800.000	0.122	0.347
-86.699	313.330	-0.333	-0.617
-85.684	368.045	0.243	0.485
-84.670	-200.000	0.035	0.196
-83.655	800.000	0.122	0.518
-82.640	135.919	0.084	-0.107
-81.626	-50.105	0.380	0.178
-80.611	-200.000	-0.054	-0.289
-79.597	417.259	-0.187	0.393
-78.582	-109.260	-0.132	0.028
-77.567	-200.000	-0.059	-0.778
-76.553	-37.017	-0.194	0.102
-75.538	-133.894	0.668	0.082
-74.524	-173.437	-0.825	0.025
-73.509	275.030	0.533	-0.932
-72.494	430.005	-0.262	-0.559
-71.480	-200.000	0.100	0.762
-70.465	-200.000	0.001	0.672
-69.451	9.438	-0.929	-0.693
-68.436	800.000	-0.133	-0.469
-67.422	-7.156	-0.779	0.521
-66.407	124.359	0.292	0.362
-65.392	-112.938	0.885	0.173
-64.378	-154.127	-0.450	0.030
-63.363	-90.908	0.352	-0.100
-62.349	-183.510	-0.685	0.012
-61.334	181.197	-0.770	-1.115
-60.319	-200.000	0.047	0.551
-59.305	25.560	-0.768	-0.630
-58.290	239.577	0.550	0.903
-57.276	800.000	0.515	1.918
-56.261	-200.000	95.101	574.582
-55.246	649.252	1368.627	3449.897
-54.232	200.540	2535.798	3839.751
-53.217	119.109	2130.338	2595.222
-52.203	44.838	1596.988	1447.739
-51.188	36.805	1337.791	1164.654
-50.173	33.587	1297.314	1110.557
-49.159	57.054	1346.465	1293.018
-48.144	57.753	1363.485	1313.472
-47.130	36.930	1319.985	1149.707
-46.115	33.392	1302.818	1113.945
-45.100	32.983	1298.483	1107.794
-44.086	33.229	1295.912	1106.999
-43.071	33.146	1293.815	1104.677
-42.057	33.117	1291.374	1102.380
-41.042	32.980	1290.709	1100.974
-40.027	33.267	1287.554	1099.905
-39.013	33.248	1285.880	1098.324
-37.998	33.205	1284.656	1096.983
-36.984	33.283	1283.191	1096.139
-35.969	33.208	1281.255	1094.009
-34.954	33.149	1280.074	1092.616
-33.940	33.460	1278.250	1092.812
-32.925	33.302	1276.773	1090.592
-31.911	33.382	1275.100	1089.584
-30.896	33.614	1273.342	1089.373
-29.881	33.029	1273.485	1086.086
-28.867	33.282	1271.682	1085.960
-27.852	33.449	1269.240	1084.787
-26.838	33.381	1268.337	1083.581
-25.823	33.267	1267.641	1082.292
-24.809	33.232	1266.340	1080.937
-23.794	33.167	1264.130	1078.641
-22.779	33.536	1262.669	1079.452
-21.765	33.258	1262.320	1077.530
-20.750	33.275	1260.537	1076.060
-19.736	33.436	1259.436	1075.989
-18.721	33.329	1258.073	1074.176
-17.706	33.158	1257.704	1072.850
-16.692	33.261	1255.611	1071.605
-15.677	32.953	1256.389	1070.482
-14.663	33.129	1254.302	1069.653
-13.648	32.959	1254.085	1068.466
-12.633	33.181	1252.234	1068.101
-11.619	33.009	1252.167	1067.031
-10.604	33.415	1250.851	1068.159
-9.590	33.293	1248.931	1065.786
-8.575	33.266	1248.282	1065.042
-7.560	33.153	1248.143	1064.241
-6.546	33.380	1245.770	1063.451
-5.531	33.092	1246.480	1062.399
-4.517	33.207	1245.073	1061.802
-3.502	33.244	1244.814	1061.745
-2.487	32.990	1243.190	1058.895
-1.473	33.130	1239.258	1056.285
-0.458	31.715	1224.209	1035.603
0.556	28.938	1206.140	995.859
1.571	24.776	1213.156	978.844
2.586	24.085	1227.699	986.663
3.600	23.306	1216.446	973.254
4.615	17.341	1143.991	884.280
5.629	7.492	1068.158	777.553
6.644	3.208	1047.978	742.168
7.659	3.094	1044.989	739.442
8.673	2.934	1044.547	738.293
9.688	2.645	1042.068	735.091
10.702	3.164	1041.383	737.026
11.717	9.339	1048.776	771.909
12.731	19.492	1063.037	831.500
13.746	24.096	1071.036	859.974
14.761	25.292	1070.799	865.479
15.775	25.148	1069.661	863.790
16.790	25.194	1068.323	862.853
17.804	25.064	1069.072	862.753
18.819	25.102	1067.572	861.651
19.834	25.350	1067.140	862.415
20.848	25.172	1068.137	862.289
21.863	25.234	1067.064	861.644
22.877	25.194	1066.130	860.625
23.892	25.273	1065.581	860.483
24.907	24.829	1065.619	858.309
25.921	24.992	1063.669	857.440
26.936	24.985	1062.653	856.512
27.950	25.010	1061.641	855.740
28.965	24.875	1059.234	853.082
29.980	25.106	1058.028	853.134
30.994	25.135	1057.273	852.587
32.009	25.118	1055.939	851.358
33.023	25.333	1054.875	851.442
34.038	25.259	1054.081	850.376
35.053	25.177	1051.833	848.099
36.067	24.908	1053.103	847.776
37.082	25.358	1051.322	848.395
38.096	25.272	1051.660	848.185
39.111	25.407	1051.192	848.368
40.126	25.193	1049.809	846.167
41.140	25.010	1047.769	843.588
42.155	24.733	1046.830	841.452
43.169	24.880	1046.168	841.540
44.184	24.654	1044.959	839.430
45.199	24.716	1043.859	838.762
46.213	25.082	1042.793	839.550
47.228	25.139	1043.292	840.143
48.242	25.187	1041.659	838.976
49.257	24.934	1042.382	838.299
50.271	25.229	1039.694	837.444
51.286	25.219	1039.071	836.821
52.301	25.203	1039.044	836.647
53.315	25.199	1037.342	835.187
54.330	25.248	1036.506	834.668
55.344	25.144	1036.487	834.094
56.359	24.894	1036.081	832.533
57.374	24.917	1035.368	831.993
58.388	24.697	1034.851	830.481
59.403	24.705	1033.696	829.516
60.417	24.900	1031.027	828.206
61.432	24.621	1031.275	827.039
62.447	25.096	1030.552	828.581
63.461	24.870	1029.595	826.696
64.476	24.809	1028.439	825.413
65.490	24.851	1028.067	825.236
66.505	24.880	1027.807	825.086
67.520	25.326	1026.356	825.903
68.534	24.571	1025.947	822.025
69.549	24.566	1024.999	821.173
70.563	24.609	1024.089	820.567
71.578	24.552	1023.114	819.452
72.593	23.796	1024.233	816.802
73.607	24.119	1022.030	816.455
74.622	24.907	1020.727	818.947
75.636	24.583	1020.669	817.344
76.651	24.578	1020.201	816.876
77.666	24.636	1018.873	816.003
78.680	24.403	1019.394	815.284
79.695	24.672	1018.146	815.441
80.709	24.606	1018.257	815.160
81.724	24.775	1017.534	815.280
82.739	24.999	1015.710	814.763
83.753	25.108	1014.963	814.588
84.768	25.515	1015.237	816.583
85.782	25.309	1014.799	815.224
86.797	25.658	1012.144	814.601
87.812	25.561	1011.723	813.749
88.826	25.395	1010.893	812.262
89.841	25.247	1010.492	811.197
90.855	25.228	1009.263	810.053
91.870	25.268	1009.686	810.502
92.884	25.548	1007.655	810.059
93.899	25.233	1006.865	807.934
94.914	25.459	1005.078	807.447
95.928	25.598	1004.378	807.438
96.943	25.673	1002.869	806.489
97.957	25.054	1002.467	803.319
98.972	24.902	1002.704	802.758
99.987	25.051	1001.488	802.377
101.001	25.075	1001.090	802.095
102.016	25.276	998.936	801.198
103.030	25.419	999.144	801.932
104.045	25.396	997.657	800.564
105.060	25.016	996.647	797.993
106.074	25.093	995.875	797.645
107.089	25.131	995.306	797.289
108.103	25.006	993.940	795.567
109.118	25.367	992.828	796.208
110.133	25.321	992.319	795.529
111.147	24.926	991.472	793.029
112.162	24.847	990.754	792.032
113.176	25.002	990.818	792.703
114.191	24.945	989.862	791.613
115.206	24.699	988.494	789.362
116.220	24.793	987.116	788.608
117.235	24.644	987.368	788.083
118.249	24.717	986.252	787.445
119.264	24.708	985.670	786.869
120.279	24.617	984.486	785.457
121.293	24.857	984.136	786.158
122.308	24.606	983.025	784.101
123.322	24.675	981.608	783.203
124.337	24.485	981.391	782.128
125.352	24.103	979.452	778.844
126.366	24.205	978.578	778.526
127.381	24.510	978.770	779.942
128.395	25.248	977.911	782.408
129.410	25.044	977.563	781.171
130.424	25.223	976.367	780.925
131.439	25.053	976.563	780.274
132.454	25.046	974.993	778.921
133.468	25.163	974.002	778.567
134.483	25.510	972.708	778.966
135.497	25.538	970.902	777.576
136.512	25.154	972.170	776.855
137.527	25.396	970.739	776.692
138.541	25.530	969.789	776.443
139.556	25.685	968.730	776.192
140.570	25.529	968.482	775.255
141.585	25.613	967.823	775.019
142.600	25.795	964.493	773.064
143.614	25.735	965.555	773.592
144.629	25.786	964.705	773.061
145.643	25.584	963.702	771.323
146.658	25.446	962.176	769.442
147.673	25.606	960.768	768.932
148.687	25.419	960.035	767.479
149.702	25.335	959.123	766.322
150.716	25.164	958.354	764.912
151.731	25.454	958.758	766.404
152.746	25.825	956.900	766.429
153.760	25.535	957.005	765.212
154.775	25.680	956.645	765.473
155.789	25.536	956.020	764.292
156.804	25.693	954.872	763.973
157.819	25.623	953.464	762.484
158.833	25.944	953.077	763.465
159.848	26.105	952.543	763.652
160.862	25.474	950.753	759.483
161.877	25.447	950.561	759.149
162.892	25.682	948.974	758.805
163.906	25.489	949.006	757.949
164.921	25.665	947.244	757.216
165.935	25.396	947.237	756.009
166.950	25.666	947.389	757.200
167.964	25.299	945.382	753.988
168.979	25.518	944.318	753.992
169.994	25.827	942.032	753.393
171.008	26.015	941.893	754.004
172.023	25.676	942.243	752.798
173.037	25.929	940.243	752.189
174.052	25.743	938.779	750.175
175.067	25.510	939.175	749.454
176.081	25.803	937.893	749.585
177.096	25.590	938.104	748.801
178.110	25.522	937.575	748.030
179.125	24.906	936.684	744.689
180.140	25.368	935.507	745.607
181.154	25.438	935.508	745.835
182.169	25.737	936.058	747.446
183.183	25.899	934.564	746.859
184.198	26.009	933.566	746.453
185.213	25.914	934.500	746.738
186.227	25.920	932.557	745.145
187.242	25.658	933.348	744.628
188.256	25.863	932.478	744.715
189.271	26.173	930.987	744.736
190.286	25.668	930.459	742.165
191.300	24.799	929.285	737.584
192.315	24.415	926.993	734.120
193.329	24.473	926.590	733.975
194.344	25.069	928.395	737.791
195.359	25.528	927.674	739.041
196.373	25.782	926.477	739.065
197.388	25.766	925.583	738.219
198.402	25.985	925.036	738.617
199.417	26.149	923.804	738.239
200.432	25.975	923.527	737.242
201.446	25.578	924.038	735.958
202.461	25.598	922.870	735.043
203.475	24.677	920.988	729.721
204.490	24.103	920.417	726.862
205.504	25.261	919.801	731.031
206.519	25.415	919.690	731.506
207.534	25.415	919.992	731.682
208.548	25.941	918.960	732.935
209.563	25.482	918.346	730.517
210.577	25.460	918.222	730.263
211.592	25.842	918.060	731.624
212.607	26.006	916.762	731.189
213.621	26.088	915.304	730.293
214.636	26.192	914.724	730.188
215.650	25.815	915.260	729.022
216.665	25.860	914.424	728.477
217.680	26.026	913.474	728.323
218.694	25.912	911.827	726.487
219.709	25.266	912.104	724.037
220.723	25.731	911.949	725.727
221.738	25.726	910.521	724.506
222.753	25.944	910.000	724.902
223.767	26.028	909.106	724.463
224.782	26.205	909.165	725.158
225.796	26.052	909.108	724.432
226.811	25.853	907.106	721.976
227.826	24.842	906.712	717.549
228.840	25.188	906.988	719.092
229.855	25.339	905.095	718.132
230.869	25.035	904.615	716.471
231.884	25.268	904.918	717.580
232.899	26.144	904.046	720.321
233.913	25.848	903.228	718.426
234.928	25.829	902.470	717.682
235.942	25.666	901.836	716.466
236.957	25.181	902.083	714.666
237.972	25.558	901.269	715.460
238.986	25.404	900.490	714.165
240.001	25.062	900.476	712.734
241.015	25.694	899.161	714.136
242.030	25.795	898.685	714.095
243.045	25.676	898.773	713.632
244.059	26.078	897.684	714.296
245.074	25.770	896.957	712.433
246.088	25.724	896.447	711.786
247.103	25.901	896.576	712.524
248.117	26.446	895.519	713.772
249.132	26.641	894.892	713.977
250.147	26.702	895.118	714.336
251.161	26.548	894.774	713.390
252.176	26.789	893.695	713.415
253.190	27.034	892.887	713.670
254.205	26.961	892.735	713.200
255.220	26.736	892.122	711.763
256.234	26.487	891.295	710.062
257.249	26.680	891.112	710.613
258.263	26.723	889.802	709.672
259.278	26.822	889.571	709.814
260.293	26.812	888.866	709.149
261.307	26.664	888.953	708.575
262.322	26.491	887.268	706.495
263.336	26.338	885.611	704.516
264.351	25.345	884.208	699.471
265.366	25.712	883.415	700.211
266.380	26.250	885.007	703.509
267.395	26.533	883.954	703.710
268.409	26.813	882.641	703.687
269.424	26.475	883.183	702.744
270.439	26.454	882.299	701.897
271.453	26.717	880.745	701.618
272.468	26.837	881.432	702.566
273.482	26.888	881.427	702.700
274.497	26.262	880.821	699.729
275.512	26.371	879.698	699.197
276.526	26.789	879.514	700.604
277.541	26.550	878.649	698.930
278.555	26.381	878.378	698.002
279.570	26.462	876.756	696.965
280.585	26.511	876.797	697.124
281.599	26.638	875.640	696.629
282.614	26.274	874.098	693.945
283.628	26.008	874.708	693.344
284.643	26.359	873.640	693.782
285.657	25.877	872.600	691.050
286.672	25.803	872.775	690.841
287.687	26.241	871.930	691.790
288.701	26.333	871.161	691.471
289.716	26.047	869.913	689.328
290.730	26.382	869.482	690.201
291.745	26.240	868.210	688.590
292.760	26.480	868.181	689.422
293.774	26.887	869.122	691.660
294.789	27.375	868.360	692.850
295.803	26.866	868.034	690.592
296.818	26.896	867.849	690.496
297.833	26.353	866.782	687.521
298.847	26.632	866.786	688.526
299.862	27.019	865.921	689.247
300.876	27.095	864.958	688.708
301.891	26.873	864.687	687.589
302.906	26.679	863.422	685.790
303.920	27.199	863.638	687.869
304.935	27.547	862.327	688.076
305.949	26.797	862.163	685.054
306.964	26.727	861.661	684.329
307.979	26.524	861.123	683.074
308.993	27.261	860.051	684.942
310.008	27.215	860.509	685.074
311.022	26.727	860.496	683.164
312.037	26.622	859.521	681.930
313.052	26.781	858.397	681.576
314.066	26.140	856.571	677.664
315.081	26.033	855.443	676.308
316.095	26.428	857.153	679.085
317.110	26.502	856.333	678.652
318.125	26.312	854.608	676.512
319.139	25.220	853.666	671.622
320.154	25.073	853.319	670.742
321.168	25.626	854.462	673.651
322.183	26.681	853.628	676.877
323.197	26.446	853.204	675.602
324.212	26.443	852.336	674.847
325.227	26.456	851.071	673.831
326.241	26.407	851.163	673.664
327.256	26.528	850.172	673.270
328.270	26.810	849.298	673.566
329.285	26.646	848.279	672.091
330.300	26.052	848.114	669.695
331.314	26.231	847.375	669.717
332.329	26.802	847.500	671.873
333.343	26.786	847.482	671.738
334.358	26.592	847.320	670.831
335.373	26.934	846.046	671.028
336.387	26.854	846.446	670.991
337.402	26.990	846.584	671.544
338.416	27.349	846.071	672.406
339.431	27.270	846.268	672.211
340.446	27.612	844.960	672.373
341.460	27.449	844.308	671.195
342.475	27.293	843.725	670.098
343.489	27.103	844.188	669.706
344.504	27.506	843.670	670.720
345.519	27.447	843.436	670.256
346.533	27.535	842.725	669.956
347.548	27.238	842.151	668.347
348.562	27.075	842.497	667.964
349.577	27.290	840.651	667.230
350.592	27.486	839.512	666.985
351.606	27.086	839.693	665.606
352.621	26.821	839.376	664.323
353.635	27.029	837.640	663.652
354.650	26.515	837.629	661.704
355.665	25.904	836.169	658.261
356.679	26.379	835.344	659.288
357.694	26.794	835.057	660.515
358.708	26.520	834.817	659.267
359.723	26.884	833.347	659.374
360.738	27.013	833.380	659.809
361.752	27.184	833.015	660.081
362.767	27.370	832.465	660.263
363.781	27.456	831.967	660.122
364.796	27.598	832.139	660.713
365.810	27.679	831.009	660.053
366.825	27.690	831.037	660.054
367.840	27.080	830.495	657.359
368.854	27.405	829.330	657.554
369.869	27.053	829.980	656.737
370.883	27.263	829.429	657.003
371.898	26.966	829.415	655.862
372.913	27.413	828.359	656.582
373.927	27.005	827.730	654.553
374.942	26.977	827.578	654.274
375.956	27.395	826.742	655.062
376.971	27.579	826.509	655.478
377.986	27.358	825.859	654.113
379.000	27.446	825.398	654.004
380.015	27.590	825.080	654.213
381.029	28.040	823.733	654.700
382.044	27.878	823.247	653.674
383.059	27.815	823.604	653.676
384.073	27.751	821.979	652.099
385.088	27.414	821.859	650.742
386.102	27.187	821.296	649.425
387.117	26.775	821.297	647.895
388.132	26.815	819.932	646.906
389.146	26.642	819.042	645.531
390.161	26.976	819.475	647.004
391.175	27.688	819.009	649.114
392.190	27.277	817.275	646.223
393.205	26.403	815.493	641.657
394.219	25.067	814.736	636.266
395.234	25.267	813.601	636.032
396.248	26.394	815.051	641.106
397.263	26.792	815.578	642.876
398.278	26.863	814.571	642.278
399.292	26.727	813.696	641.049
400.307	26.447	814.365	640.529
401.321	26.630	813.906	640.759
402.336	26.771	813.581	640.943
403.350	27.460	813.220	643.039
404.365	28.125	812.300	644.598
405.380	27.808	812.809	643.825
406.394	28.253	811.900	644.614
407.409	28.111	810.977	643.325
408.423	28.030	810.034	642.239
409.438	28.463	810.006	643.678
410.453	27.968	810.039	641.909
411.467	27.427	809.702	639.685
412.482	27.776	809.257	640.504
413.496	27.546	808.828	639.301
414.511	27.865	808.548	640.140
415.526	27.921	807.525	639.471
416.540	27.758	807.347	638.703
417.555	28.021	806.722	639.071
418.569	28.164	806.649	639.456
419.584	27.855	806.069	637.859
420.599	28.065	805.760	638.292
421.613	159.759	1371.778	1793.516
422.628	138.834	1454.168	1793.553
