DTS Sentinel unit serial number:	SN413079Multiplexer serial number:	ORYXHardware model number:	OX4-SRSoftware version number:	ORYX F/W v4.00 Oryx Data Collector v3.7.2.0data status	okinstallation	princeton_trtdifferential loss correction	single-endedforward channel	channel 1reverse channel	N/Adate	2019/09/17time	02:46:35forward acquisition time	60.00reverse acquisition time	0.00gamma	496.2192k internal	0.2323k external	0.2323temperature offset calibration	0.9957default loss term (dB/km)	0.3790temperature slope calibration	1.0000multiplexer offset coefficient	1.0000multiplexer slope coefficient	1.0000fibre end	0.00T internal ref (°C)	29.87T ext. ref 1 (°C)	0.13T ext. ref 2 (°C)	24.86length (m)	temperature (°C)	Stokes	anti-Stokes-747.200	84.919	0.097	0.108
-746.185	1.398	-0.129	0.094
-745.171	800.000	0.067	0.201
-744.156	-113.077	-0.093	0.019
-743.142	-62.462	-0.450	0.189
-742.127	-97.622	-0.056	-0.015
-741.112	-176.566	0.111	0.003
-740.098	-200.000	-0.024	0.299
-739.083	-200.000	0.008	0.128
-738.069	798.078	0.095	0.266
-737.054	201.640	-0.107	-0.166
-736.039	143.127	-0.145	-0.195
-735.025	704.470	0.045	0.120
-734.010	-83.291	-0.253	-0.082
-732.996	-0.455	-0.407	-0.292
-731.981	123.462	-0.074	-0.093
-730.966	-149.299	0.442	-0.036
-729.952	-133.931	-0.580	-0.073
-728.937	28.330	-0.346	0.295
-727.923	-141.939	0.046	0.005
-726.908	-42.674	-0.309	-0.159
-725.894	-82.754	0.249	0.081
-724.879	-200.000	0.002	-0.364
-723.864	-39.322	0.034	-0.018
-722.850	-63.059	-0.294	0.122
-721.835	-57.753	-0.168	-0.074
-720.821	-200.000	-0.025	-0.312
-719.806	109.389	0.119	-0.144
-718.791	-15.772	0.109	0.070
-717.777	196.553	-0.079	0.122
-716.762	-101.741	-0.486	-0.119
-715.748	-115.653	-0.302	-0.057
-714.733	-105.232	0.193	-0.044
-713.718	-200.000	-0.006	-0.126
-712.704	-84.351	-0.348	-0.111
-711.689	203.519	0.026	-0.041
-710.675	-56.201	0.070	-0.031
-709.660	102.975	0.225	-0.266
-708.645	581.159	-0.139	-0.344
-707.631	76.079	0.251	-0.268
-706.616	145.529	-0.071	0.095
-705.602	-14.088	-0.204	-0.133
-704.587	-19.241	-0.132	0.083
-703.572	257.945	-0.116	-0.201
-702.558	418.271	0.123	-0.265
-701.543	534.827	0.123	-0.295
-700.529	5.513	-0.206	-0.154
-699.514	412.822	-0.064	-0.136
-698.499	-200.000	0.044	-0.242
-697.485	106.771	-0.169	-0.202
-696.470	800.000	0.149	-0.423
-695.456	-52.601	-0.164	-0.077
-694.441	800.000	-0.098	0.281
-693.426	-191.883	-0.345	0.003
-692.412	-17.884	0.147	-0.093
-691.397	-128.858	0.301	-0.043
-690.383	-189.669	0.251	-0.003
-689.368	800.000	0.116	-0.420
-688.354	-182.105	0.098	0.002
-687.339	-154.665	0.368	0.025
-686.324	-80.333	0.236	-0.080
-685.310	-52.885	0.257	-0.119
-684.295	236.684	-0.117	-0.195
-683.281	-96.552	0.382	-0.102
-682.266	800.000	-0.109	0.361
-681.251	176.709	-0.092	0.135
-680.237	800.000	-0.124	-0.410
-679.222	-60.667	-0.023	-0.010
-678.208	117.505	-0.249	-0.309
-677.193	-94.514	-0.116	0.032
-676.178	529.476	-0.036	0.086
-675.164	51.551	0.231	-0.221
-674.149	800.000	-0.178	0.578
-673.135	-7.506	0.314	-0.214
-672.120	34.350	0.234	-0.206
-671.105	-133.895	0.096	-0.012
-670.091	-25.018	0.298	-0.178
-669.076	-126.224	0.137	-0.021
-668.062	98.762	-0.202	-0.234
-667.047	-200.000	-0.010	-0.172
-666.032	548.220	0.062	-0.149
-665.018	800.000	-0.151	0.490
-664.003	197.576	0.221	0.339
-662.989	84.167	-0.149	0.164
-661.974	-117.147	0.142	0.026
-660.959	-200.000	-0.024	-0.489
-659.945	-21.970	-0.161	0.099
-658.930	-64.405	0.360	0.147
-657.916	-200.000	-0.027	0.183
-656.901	-105.381	-0.230	0.053
-655.886	254.952	-0.058	0.100
-654.872	-124.269	0.053	-0.008
-653.857	-200.000	0.000	-0.505
-652.843	-200.000	0.031	-0.191
-651.828	-12.495	-0.051	0.033
-650.814	182.631	-0.310	0.460
-649.799	140.013	0.177	0.234
-648.784	-22.228	0.209	0.128
-647.770	-37.817	-0.532	-0.285
-646.755	-133.917	-0.230	-0.029
-645.741	-70.600	0.159	0.060
-644.726	22.556	-0.128	0.105
-643.711	303.392	0.067	0.125
-642.697	-12.086	0.241	0.159
-641.682	-58.349	-0.159	0.069
-640.668	-95.544	0.304	-0.082
-639.653	800.000	-0.069	0.245
-638.638	280.405	-0.201	-0.361
-637.624	-5.673	0.139	0.096
-636.609	408.905	-0.018	-0.037
-635.595	299.473	-0.152	-0.281
-634.580	800.000	0.101	-0.355
-633.565	-7.490	-0.105	-0.071
-632.551	-47.983	-0.377	-0.183
-631.536	-115.102	0.243	-0.046
-630.522	-32.733	-0.133	-0.074
-629.507	-84.450	0.173	-0.055
-628.492	-25.213	-0.217	0.129
-627.478	800.000	-0.110	-0.307
-626.463	-100.485	-0.088	0.022
-625.449	173.102	0.139	0.202
-624.434	-93.743	-0.158	0.044
-623.419	-200.000	0.037	0.205
-622.405	-18.745	-0.244	0.153
-621.390	-200.000	0.050	-0.469
-620.376	-43.458	0.344	-0.175
-619.361	68.967	0.106	-0.109
-618.346	47.995	0.084	-0.079
-617.332	-131.520	-0.097	0.013
-616.317	-6.637	-0.197	-0.135
-615.303	800.000	-0.154	-0.555
-614.288	-160.904	-0.213	0.011
-613.273	-65.399	0.242	0.098
-612.259	427.457	-0.125	0.272
-611.244	-101.718	-0.241	0.059
-610.230	87.366	0.059	0.066
-609.215	329.478	0.062	-0.119
-608.201	-129.730	0.107	-0.015
-607.186	-140.882	-0.226	0.023
-606.171	-117.682	-0.329	-0.060
-605.157	49.876	-0.065	0.062
-604.142	-147.147	-0.201	0.017
-603.128	152.519	0.032	-0.044
-602.113	116.420	-0.167	-0.206
-601.098	-51.730	-0.194	-0.091
-600.084	49.753	0.113	0.107
-599.069	9.884	-0.174	-0.133
-598.055	-200.000	-0.027	0.182
-597.040	-80.075	0.264	0.089
-596.025	-101.621	0.079	-0.019
-595.011	406.902	0.205	-0.435
-593.996	-124.188	-0.129	-0.020
-592.982	5.096	-0.168	0.124
-591.967	-159.458	-0.217	0.012
-590.952	-127.507	-0.136	0.020
-589.938	800.000	0.020	-0.065
-588.923	14.904	-0.086	-0.068
-587.909	-48.497	-0.130	0.063
-586.894	-103.283	0.078	0.018
-585.879	-94.663	-0.362	-0.099
-584.865	-200.000	0.045	-0.396
-583.850	1.571	-0.129	0.093
-582.836	800.000	-0.042	0.167
-581.821	-145.699	-0.105	-0.009
-580.806	-180.404	-0.075	-0.002
-579.792	32.094	0.400	-0.346
-578.777	-123.768	-0.293	0.047
-577.763	-200.000	-0.012	-0.100
-576.748	41.046	0.160	-0.145
-575.733	-139.452	0.462	-0.050
-574.719	-200.000	0.010	-0.208
-573.704	116.523	0.061	0.075
-572.690	743.819	-0.053	0.144
-571.675	-156.351	-0.234	-0.015
-570.661	-200.000	0.033	-0.229
-569.646	298.330	0.144	0.266
-568.631	250.502	0.226	0.386
-567.617	57.539	0.078	-0.076
-566.602	219.461	0.161	0.258
-565.588	-200.000	-0.032	-0.218
-564.573	800.000	-0.062	-0.182
-563.558	-138.299	-0.161	0.018
-562.544	478.085	-0.106	-0.240
-561.529	357.498	-0.099	-0.199
-560.515	-70.133	0.191	-0.073
-559.500	800.000	0.016	0.046
-558.485	-48.994	0.394	-0.189
-557.471	-55.741	-0.175	0.078
-556.456	-168.052	-0.321	-0.013
-555.442	-49.574	0.245	0.117
-554.427	-28.507	0.201	0.116
-553.412	467.548	-0.089	-0.200
-552.398	192.894	-0.139	0.210
-551.383	97.797	0.282	-0.325
-550.369	157.204	0.101	0.140
-549.354	-107.808	0.250	-0.055
-548.339	766.203	0.045	0.123
-547.325	-142.968	0.193	0.019
-546.310	302.480	0.053	-0.099
-545.296	-89.817	-0.161	0.047
-544.281	-200.000	0.001	0.108
-543.266	-133.826	0.255	-0.032
-542.252	-82.617	0.307	-0.100
-541.237	-87.846	0.145	0.044
-540.223	-163.770	-0.150	0.007
-539.208	704.591	-0.070	-0.186
-538.193	-43.963	-0.148	0.075
-537.179	-200.000	0.051	0.316
-536.164	130.841	-0.040	-0.051
-535.150	-153.130	0.239	-0.017
-534.135	-200.000	-0.017	-0.172
-533.121	-174.310	0.184	0.005
-532.106	-200.000	-0.009	-0.171
-531.091	-18.195	-0.165	0.103
-530.077	106.175	-0.262	0.311
-529.062	35.811	0.126	-0.111
-528.048	-200.000	-0.038	0.339
-527.033	8.909	0.019	0.015
-526.018	179.149	-0.156	-0.228
-525.004	37.090	-0.072	-0.064
-523.989	-74.559	-0.203	-0.073
-522.975	800.000	0.055	-0.190
-521.960	649.744	-0.084	-0.216
-520.945	800.000	-0.023	-0.093
-519.931	-58.644	0.132	-0.057
-518.916	88.942	0.230	-0.256
-517.902	45.698	-0.101	-0.094
-516.887	-7.210	-0.339	0.230
-515.872	697.254	0.242	0.637
-514.858	41.290	-0.054	-0.049
-513.843	-200.000	-0.019	-0.160
-512.829	-66.922	0.203	-0.080
-511.814	800.000	0.016	-0.045
-510.799	501.557	0.043	0.099
-509.785	-87.571	0.319	-0.096
-508.770	-142.630	0.244	-0.024
-507.756	191.502	0.083	0.125
-506.741	-102.035	-0.012	0.003
-505.726	-200.000	-0.036	-0.279
-504.712	-124.348	0.208	0.033
-503.697	172.203	0.107	0.154
-502.683	184.264	-0.113	-0.167
-501.668	-200.000	0.009	-0.108
-500.653	707.303	0.037	-0.098
-499.639	212.924	0.116	0.184
-498.624	-168.929	0.282	-0.011
-497.610	116.137	-0.082	0.101
-496.595	-200.000	0.017	-0.372
-495.581	-162.895	0.044	0.002
-494.566	180.280	0.191	0.280
-493.551	31.667	-0.307	0.264
-492.537	800.000	-0.036	-0.117
-491.522	338.716	0.034	-0.067
-490.508	158.151	-0.146	0.202
-489.493	-110.740	-0.498	-0.103
-488.478	-200.000	-0.005	0.064
-487.464	-99.006	-0.162	-0.041
-486.449	57.560	-0.243	0.237
-485.435	-200.000	-0.043	0.189
-484.420	6.275	-0.270	0.200
-483.405	-39.321	-0.119	-0.062
-482.391	800.000	-0.041	-0.147
-481.376	-3.224	-0.198	-0.138
-480.362	-49.104	0.326	0.156
-479.347	800.000	-0.056	-0.194
-478.332	155.397	-0.173	-0.239
-477.318	670.735	0.074	-0.191
-476.303	153.445	-0.328	0.448
-475.289	-96.034	-0.054	0.014
-474.274	-110.442	0.308	-0.064
-473.259	-127.058	-0.350	-0.051
-472.245	295.336	-0.116	-0.213
-471.230	609.027	0.024	-0.061
-470.216	90.682	0.047	-0.052
-469.201	-44.805	0.106	0.053
-468.186	-200.000	-0.029	0.152
-467.172	-200.000	-0.030	0.232
-466.157	800.000	0.060	-0.242
-465.143	330.011	0.054	0.104
-464.128	-200.000	0.031	0.299
-463.113	41.344	0.198	0.179
-462.099	-200.000	-0.007	0.091
-461.084	-83.638	0.257	-0.082
-460.070	-200.000	0.006	-0.316
-459.055	-119.776	0.345	-0.059
-458.040	-10.179	0.090	0.060
-457.026	-200.000	-0.013	-0.314
-456.011	-200.000	0.019	-0.161
-454.997	-200.000	-0.019	0.305
-453.982	-31.918	-0.096	-0.054
-452.968	-69.348	0.087	-0.034
-451.953	-41.821	-0.082	0.042
-450.938	-14.904	0.359	0.230
-449.924	763.663	0.034	0.092
-448.909	-73.223	0.129	0.047
-447.895	-200.000	0.066	0.328
-446.880	-200.000	-0.058	0.455
-445.865	29.997	-0.078	0.067
-444.851	-58.323	0.138	-0.060
-443.836	800.000	0.047	0.151
-442.822	-200.000	-0.024	-0.136
-441.807	588.604	-0.088	-0.217
-440.792	-77.537	-0.117	-0.040
-439.778	80.804	0.163	-0.175
-438.763	-200.000	-0.006	-0.210
-437.749	281.789	-0.076	-0.135
-436.734	-200.000	-0.012	0.158
-435.719	361.395	-0.024	0.047
-434.705	289.280	-0.159	-0.289
-433.690	438.935	0.076	-0.165
-432.676	-116.345	0.483	0.089
-431.661	-200.000	-0.034	0.165
-430.646	453.509	-0.100	-0.221
-429.632	-25.644	0.100	-0.059
-428.617	800.000	-0.043	-0.172
-427.603	32.298	0.144	-0.124
-426.588	-200.000	-0.011	-0.099
-425.573	40.921	-0.145	-0.130
-424.559	137.317	-0.100	-0.130
-423.544	-48.779	-0.186	0.089
-422.530	10.696	0.469	0.357
-421.515	-75.256	-0.351	-0.125
-420.500	313.375	-0.079	0.149
-419.486	197.067	-0.195	-0.297
-418.471	369.772	-0.171	-0.345
-417.457	225.563	-0.101	0.163
-416.442	115.652	0.095	-0.116
-415.428	-22.283	0.420	-0.254
-414.413	98.297	0.133	-0.153
-413.398	-200.000	-0.019	-0.145
-412.384	-22.822	-0.246	0.148
-411.369	173.872	0.173	0.249
-410.355	79.892	0.136	0.146
-409.340	-200.000	0.016	0.161
-408.325	-190.658	0.049	-0.001
-407.311	-94.337	0.392	0.107
-406.296	800.000	0.039	0.167
-405.282	800.000	0.084	-0.305
-404.267	-106.605	0.318	-0.070
-403.252	50.186	-0.240	-0.226
-402.238	-163.429	-0.211	0.010
-401.223	239.343	-0.051	-0.084
-400.209	-76.274	0.073	-0.026
-399.194	-106.926	0.042	-0.009
-398.179	8.398	0.160	0.120
-397.165	21.672	-0.104	-0.084
-396.150	-200.000	-0.021	0.248
-395.136	-92.882	-0.105	0.029
-394.121	643.119	0.135	0.342
-393.106	-200.000	-0.010	-0.261
-392.092	-83.688	0.013	0.004
-391.077	-200.000	-0.042	0.407
-390.063	35.334	-0.172	0.150
-389.048	18.421	0.216	-0.172
-388.033	-64.435	-0.318	-0.129
-387.019	77.201	0.226	0.239
-386.004	-66.339	0.145	-0.058
-384.990	-36.112	-0.221	-0.119
-383.975	38.018	-0.098	-0.086
-382.960	-63.878	0.086	-0.035
-381.946	-200.000	-0.040	0.217
-380.931	-200.000	-0.039	0.373
-379.917	121.085	-0.086	0.107
-378.902	247.181	0.054	-0.090
-377.888	403.887	0.205	-0.430
-376.873	384.381	-0.067	0.138
-375.858	-28.956	-0.177	-0.101
-374.844	-139.733	-0.218	-0.023
-373.829	704.261	0.071	-0.186
-372.815	359.169	0.233	-0.465
-371.800	800.000	0.023	-0.070
-370.785	-157.080	0.259	0.016
-369.771	93.576	0.166	-0.187
-368.756	294.138	0.124	0.225
-367.742	-200.000	0.014	-0.108
-366.727	45.050	0.254	-0.233
-365.712	-141.062	0.323	0.033
-364.698	-200.000	0.011	0.461
-363.683	245.990	-0.191	0.321
-362.669	40.621	-0.027	0.024
-361.654	-22.860	-0.306	-0.184
-360.639	-53.695	0.250	0.114
-359.625	4.378	-0.297	-0.217
-358.610	-10.098	-0.139	0.092
-357.596	106.909	0.036	0.043
-356.581	13.993	0.224	0.173
-355.566	-90.746	-0.241	-0.069
-354.552	163.504	0.117	-0.164
-353.537	-200.000	0.010	-0.098
-352.523	800.000	-0.061	0.189
-351.508	85.259	-0.152	0.166
-350.493	-86.992	-0.534	-0.162
-349.479	-200.000	-0.003	-0.525
-348.464	-118.010	0.195	-0.035
-347.450	-159.419	0.125	-0.007
-346.435	-35.822	-0.182	0.098
-345.420	-13.793	-0.098	-0.063
-344.406	-140.739	-0.156	0.016
-343.391	-200.000	0.035	0.435
-342.377	-30.888	-0.122	0.068
-341.362	-97.206	-0.235	-0.061
-340.348	-200.000	-0.071	-0.320
-339.333	800.000	0.042	-0.139
-338.318	190.207	0.271	0.404
-337.304	-116.268	-0.078	0.014
-336.289	-78.524	-0.158	-0.054
-335.275	-200.000	-0.050	-0.221
-334.260	283.538	-0.114	0.204
-333.245	-88.196	0.108	-0.032
-332.231	386.991	-0.031	0.063
-331.216	-125.003	0.521	-0.080
-330.202	251.169	0.050	-0.084
-329.187	800.000	0.046	-0.198
-328.172	276.440	0.192	-0.338
-327.158	294.429	0.108	0.197
-326.143	20.429	-0.276	-0.222
-325.129	158.983	0.406	0.561
-324.114	676.378	-0.010	0.025
-323.099	-200.000	-0.063	0.429
-322.085	178.971	0.137	-0.199
-321.070	231.974	-0.099	-0.161
-320.056	-89.297	-0.266	-0.078
-319.041	-95.693	0.306	-0.081
-318.026	-38.497	-0.370	0.194
-317.012	154.056	0.112	0.152
-315.997	-200.000	0.060	0.319
-314.983	277.894	0.141	-0.250
-313.968	164.930	0.204	-0.286
-312.953	-200.000	-0.049	0.489
-311.939	112.670	-0.163	0.196
-310.924	-38.430	0.134	0.070
-309.910	174.165	0.158	-0.226
-308.895	800.000	-0.041	-0.154
-307.880	-95.040	-0.338	0.091
-306.866	9.567	-0.163	0.123
-305.851	-85.359	0.191	-0.059
-304.837	673.663	-0.179	-0.461
-303.822	-200.000	0.006	0.227
-302.807	800.000	-0.105	-0.394
-301.793	-81.253	-0.270	-0.089
-300.778	-137.534	0.250	0.028
-299.764	-200.000	-0.020	0.093
-298.749	267.679	0.158	0.274
-297.735	92.404	0.080	0.090
-296.720	42.284	-0.088	0.079
-295.705	7.679	0.242	-0.180
-294.691	51.877	0.193	0.182
-293.676	311.863	-0.148	0.276
-292.662	-118.367	-0.029	0.005
-291.647	-128.084	0.359	0.051
-290.632	-65.273	-0.181	0.072
-289.618	24.953	-0.058	0.048
-288.603	800.000	-0.016	0.067
-287.589	150.049	0.025	0.034
-286.574	-145.531	-0.206	-0.018
-285.559	-200.000	0.037	-0.170
-284.545	54.779	0.093	-0.089
-283.530	800.000	0.047	-0.179
-282.516	-200.000	-0.068	0.342
-281.501	800.000	0.069	0.284
-280.486	295.162	0.039	-0.070
-279.472	3.747	-0.121	-0.088
-278.457	-200.000	0.010	0.083
-277.443	-91.273	-0.294	0.083
-276.428	-200.000	-0.086	-0.374
-275.413	-101.857	0.350	0.084
-274.399	75.662	-0.303	-0.318
-273.384	-17.429	0.303	-0.189
-272.370	615.900	0.042	0.105
-271.355	-5.064	-0.260	-0.177
-270.340	97.393	-0.028	0.032
-269.326	268.675	-0.132	0.229
-268.311	-200.000	0.011	0.350
-267.297	563.470	-0.053	0.127
-266.282	-65.317	0.150	0.060
-265.267	-200.000	-0.035	-0.193
-264.253	-173.378	0.225	-0.007
-263.238	728.341	-0.040	0.106
-262.224	-200.000	-0.017	0.180
-261.209	-125.485	-0.135	-0.020
-260.195	366.061	0.088	0.176
-259.180	-88.723	-0.351	0.103
-258.165	598.751	-0.091	-0.224
-257.151	144.188	-0.143	-0.189
-256.136	800.000	-0.074	-0.224
-255.122	-61.310	-0.326	0.136
-254.107	380.285	0.131	-0.267
-253.092	8.317	0.091	0.068
-252.078	110.107	0.178	-0.212
-251.063	-36.887	0.259	-0.138
-250.049	283.531	-0.154	-0.275
-249.034	-142.603	-0.159	-0.015
-248.019	-11.360	-0.207	0.135
-247.005	97.405	-0.207	0.235
-245.990	130.038	-0.099	0.125
-244.976	177.637	-0.089	0.128
-243.961	18.982	-0.067	-0.053
-242.946	-35.305	0.218	-0.118
-241.932	-116.537	0.301	-0.055
-240.917	-75.814	0.187	-0.066
-239.903	102.940	-0.227	0.263
-238.888	-173.325	-0.233	-0.007
-237.873	710.668	-0.026	-0.068
-236.859	-41.398	0.292	-0.149
-235.844	405.582	0.026	0.055
-234.830	-83.909	0.099	-0.031
-233.815	-200.000	0.055	0.260
-232.800	-127.677	0.113	0.016
-231.786	306.609	-0.044	-0.081
-230.771	-119.599	0.167	-0.029
-229.757	800.000	0.041	0.174
-228.742	800.000	0.076	0.323
-227.727	47.008	0.056	-0.051
-226.713	800.000	-0.052	0.159
-225.698	800.000	-0.035	0.127
-224.684	757.852	0.248	0.663
-223.669	94.778	-0.202	0.227
-222.655	-66.499	0.335	0.132
-221.640	-134.032	-0.141	-0.017
-220.625	243.302	-0.121	0.200
-219.611	-200.000	-0.012	-0.095
-218.596	-118.478	0.187	-0.033
-217.582	-163.972	0.150	0.007
-216.567	800.000	-0.006	0.017
-215.552	-200.000	-0.007	0.054
-214.538	74.735	-0.052	0.054
-213.523	-200.000	-0.049	0.293
-212.509	-200.000	-0.024	0.105
-211.494	-22.926	0.212	0.126
-210.479	509.878	0.105	-0.242
-209.465	250.993	-0.148	0.248
-208.450	27.139	0.072	-0.060
-207.436	800.000	0.054	0.226
-206.421	-135.018	0.142	0.017
-205.406	479.470	0.092	0.207
-204.392	-113.510	0.032	-0.006
-203.377	610.165	0.070	0.173
-202.363	800.000	-0.098	0.353
-201.348	800.000	-0.139	-0.412
-200.333	-109.203	0.208	-0.044
-199.319	-140.125	0.361	-0.038
-198.304	800.000	-0.072	-0.277
-197.290	-95.453	0.243	0.064
-196.275	-51.743	-0.255	0.118
-195.260	19.308	0.182	-0.145
-194.246	-144.311	-0.034	-0.003
-193.231	-41.275	0.185	-0.094
-192.217	299.393	0.101	0.184
-191.202	571.776	-0.071	0.170
-190.187	385.313	-0.066	0.135
-189.173	238.515	-0.103	-0.169
-188.158	800.000	-0.041	0.114
-187.144	-161.054	-0.309	-0.016
-186.129	20.395	0.241	-0.193
-185.114	241.162	0.048	0.079
-184.100	-100.599	-0.343	0.084
-183.085	19.816	-0.268	-0.213
-182.071	-200.000	0.020	0.199
-181.056	-145.185	0.190	-0.017
-180.042	196.744	0.106	0.159
-179.027	-27.591	-0.084	-0.048
-178.012	-23.721	0.205	-0.121
-176.998	634.894	0.064	0.161
-175.983	-200.000	-0.008	0.057
-174.969	83.024	0.114	-0.122
-173.954	407.682	0.108	-0.226
-172.939	500.062	-0.128	0.293
-171.925	586.932	-0.050	0.123
-170.910	96.856	-0.195	0.221
-169.896	-68.738	0.155	0.059
-168.881	-6.817	-0.118	-0.079
-167.866	800.000	-0.106	-0.363
-166.852	-135.734	-0.300	0.035
-165.837	-149.765	0.186	0.014
-164.823	100.827	-0.145	0.166
-163.808	-153.038	-0.114	-0.008
-162.793	-31.485	-0.318	-0.176
-161.779	71.652	-0.270	-0.277
-160.764	253.548	-0.116	-0.196
-159.750	-52.320	-0.140	0.064
-158.735	41.066	-0.160	-0.143
-157.720	163.480	-0.086	0.119
-156.706	-34.318	0.251	0.136
-155.691	79.359	-0.162	0.171
-154.677	-45.751	0.148	0.072
-153.662	-108.978	0.221	-0.047
-152.647	-200.000	0.042	0.250
-151.633	156.038	-0.077	-0.105
-150.618	800.000	-0.075	0.244
-149.604	-47.337	0.300	0.144
-148.589	330.108	0.108	-0.205
-147.574	-67.972	0.225	-0.087
-146.560	145.759	-0.306	0.405
-145.545	-200.000	0.013	-0.165
-144.531	58.290	-0.228	0.220
-143.516	-86.120	0.199	0.060
-142.502	720.995	0.117	-0.307
-141.487	-141.302	-0.200	-0.020
-140.472	-77.109	0.357	0.123
-139.458	-161.459	0.365	0.019
-138.443	-107.705	0.263	-0.057
-137.429	-148.434	-0.239	-0.019
-136.414	137.916	0.178	0.231
-135.399	-200.000	0.013	0.179
-134.385	378.766	0.022	0.045
-133.370	192.529	0.228	0.339
-132.356	-31.958	-0.334	-0.184
-131.341	169.386	0.238	-0.335
-130.326	800.000	0.054	-0.201
-129.312	265.036	-0.097	-0.167
-128.297	-115.170	0.253	-0.047
-127.283	40.445	-0.019	0.017
-126.268	-56.190	-0.024	0.010
-125.253	-200.000	-0.067	0.000
-124.239	136.136	0.165	-0.212
-123.224	72.980	-0.173	-0.178
-122.210	673.266	0.030	0.078
-121.195	-76.652	0.168	-0.058
-120.180	-181.742	0.255	-0.005
-119.166	37.912	0.181	-0.159
-118.151	148.502	-0.178	0.237
-117.137	147.867	0.070	0.093
-116.122	-7.041	-0.088	0.059
-115.107	-107.232	0.289	-0.063
-114.093	800.000	0.012	0.040
-113.078	-120.498	0.203	-0.034
-112.064	-118.075	-0.293	-0.052
-111.049	89.505	0.172	0.189
-110.034	72.780	-0.302	-0.311
-109.020	-91.529	0.053	0.015
-108.005	0.832	0.104	0.073
-106.991	52.335	0.073	0.069
-105.976	-51.877	0.389	0.178
-104.962	-35.179	0.223	0.120
-103.947	-42.777	0.073	-0.036
-102.932	15.227	0.133	-0.103
-101.918	253.914	-0.130	-0.218
-100.903	-70.259	-0.039	0.015
-99.889	10.693	0.127	-0.095
-98.874	135.815	0.079	-0.101
-97.859	-200.000	-0.016	0.183
-96.845	182.644	-0.144	-0.209
-95.830	-68.982	0.158	0.060
-94.816	160.716	0.222	0.305
-93.801	-29.288	-0.286	0.162
-92.786	-65.212	0.168	-0.067
-91.772	204.038	-0.036	0.055
-90.757	232.530	0.131	-0.211
-89.743	-24.525	-0.188	0.110
-88.728	136.737	0.308	0.396
-87.713	40.257	-0.363	0.322
-86.699	195.037	-0.054	-0.080
-85.684	-95.641	0.220	0.058
-84.670	-73.086	0.350	0.127
-83.655	21.360	0.105	-0.084
-82.640	-55.822	0.165	-0.073
-81.626	800.000	-0.146	0.411
-80.611	-12.888	0.051	-0.033
-79.597	773.113	0.103	-0.278
-78.582	-78.690	0.306	-0.103
-77.567	157.172	-0.113	0.154
-76.553	508.159	0.125	0.285
-75.538	-200.000	0.039	0.307
-74.524	800.000	0.023	0.068
-73.509	-200.000	0.031	0.142
-72.494	-38.925	0.288	0.149
-71.480	-139.920	-0.111	-0.012
-70.465	-5.305	0.290	-0.196
-69.451	-161.716	0.164	0.008
-68.436	-39.977	-0.200	0.103
-67.422	-21.906	0.153	-0.091
-66.407	800.000	0.073	-0.213
-65.392	-17.065	-0.322	-0.200
-64.378	-114.014	-0.146	0.028
-63.363	-116.717	0.289	-0.052
-62.349	327.840	-0.131	0.248
-61.334	179.170	-0.692	-0.996
-60.319	170.711	0.367	0.517
-59.305	314.559	-0.549	-1.017
-58.290	200.739	0.669	1.011
-57.276	524.278	0.572	1.323
-56.261	-200.000	106.236	577.751
-55.246	456.009	1459.642	3183.621
-54.232	149.183	2642.366	3515.036
-53.217	106.587	2157.080	2515.056
-52.203	41.402	1604.315	1426.747
-51.188	33.428	1342.473	1145.849
-50.173	30.141	1301.313	1091.360
-49.159	53.505	1353.826	1276.303
-48.144	54.229	1369.211	1295.101
-47.130	33.476	1324.976	1131.018
-46.115	30.074	1307.202	1095.728
-45.100	29.956	1302.236	1090.828
-44.086	29.724	1300.496	1087.962
-43.071	29.828	1297.874	1086.332
-42.057	29.751	1295.862	1084.157
-41.042	29.761	1294.127	1082.718
-40.027	29.767	1292.624	1081.454
-39.013	29.768	1290.763	1079.859
-37.998	29.782	1289.224	1078.614
-36.984	29.816	1287.133	1077.014
-35.969	29.901	1285.148	1075.809
-34.954	29.904	1283.856	1074.700
-33.940	29.876	1282.546	1073.398
-32.925	29.860	1280.747	1071.759
-31.911	30.022	1279.430	1071.551
-30.896	29.949	1277.933	1069.833
-29.881	30.012	1276.999	1069.372
-28.867	29.966	1275.335	1067.671
-27.852	30.002	1274.102	1066.803
-26.838	30.038	1272.161	1065.345
-25.823	29.995	1271.572	1064.559
-24.809	30.047	1270.020	1063.520
-23.794	29.905	1269.011	1061.816
-22.779	29.882	1267.648	1060.500
-21.765	29.956	1266.523	1059.944
-20.750	29.939	1264.932	1058.473
-19.736	29.876	1263.840	1057.157
-18.721	29.952	1262.258	1056.223
-17.706	29.760	1261.747	1054.660
-16.692	29.877	1259.986	1053.810
-15.677	29.812	1259.496	1052.992
-14.663	29.794	1257.934	1051.538
-13.648	29.769	1256.918	1050.509
-12.633	29.908	1255.892	1050.395
-11.619	29.814	1255.084	1049.147
-10.604	29.944	1253.956	1048.898
-9.590	29.798	1253.540	1047.684
-8.575	29.742	1252.282	1046.272
-7.560	29.706	1251.483	1045.362
-6.546	29.836	1250.336	1045.095
-5.531	29.777	1249.752	1044.234
-4.517	29.880	1248.690	1043.882
-3.502	29.870	1247.979	1043.193
-2.487	29.836	1247.264	1042.360
-1.473	29.793	1242.747	1038.305
-0.458	28.456	1228.215	1018.700
0.556	23.377	1212.045	982.998
1.571	19.841	1218.535	968.421
2.586	19.122	1233.440	976.104
3.600	18.859	1222.646	965.995
4.615	13.876	1149.198	881.492
5.629	4.851	1072.678	777.824
6.644	0.578	1052.763	742.339
7.659	0.035	1050.502	738.014
8.673	-0.003	1049.133	736.801
9.688	-0.088	1048.280	735.721
10.702	0.238	1046.478	735.984
11.717	5.636	1053.389	767.275
12.731	14.261	1064.934	818.173
13.746	17.619	1068.610	837.457
14.761	17.061	1067.107	833.464
15.775	16.009	1064.936	826.539
16.790	14.939	1062.478	819.320
17.804	14.272	1061.398	815.150
18.819	14.025	1060.092	812.866
19.834	13.645	1059.150	810.213
20.848	13.404	1058.427	808.414
21.863	13.187	1057.138	806.296
22.877	13.030	1056.640	805.079
23.892	13.052	1056.145	804.740
24.907	13.087	1055.300	804.195
25.921	13.118	1054.492	803.659
26.936	12.991	1053.759	802.414
27.950	13.111	1052.711	802.128
28.965	13.217	1051.614	801.733
29.980	13.183	1050.447	800.607
30.994	13.270	1049.046	799.892
32.009	13.313	1047.897	799.152
33.023	13.225	1046.919	797.909
34.038	13.284	1046.138	797.528
35.053	13.194	1045.147	796.270
36.067	13.197	1044.215	795.500
37.082	13.179	1043.537	794.829
38.096	13.223	1042.422	794.120
39.111	13.266	1042.088	794.000
40.126	13.125	1040.908	792.358
41.140	13.152	1039.730	791.519
42.155	13.095	1038.843	790.503
43.169	12.998	1037.879	789.233
44.184	12.930	1037.066	788.222
45.199	12.917	1035.767	787.102
46.213	13.014	1034.884	786.821
47.228	13.032	1034.050	786.204
48.242	13.168	1032.334	785.477
49.257	13.038	1031.976	784.517
50.271	13.118	1031.030	784.110
51.286	13.228	1029.904	783.707
52.301	13.220	1028.627	782.629
53.315	13.162	1027.958	781.774
54.330	13.089	1026.758	780.448
55.344	13.102	1025.730	779.656
56.359	13.133	1024.848	779.063
57.374	13.034	1024.200	778.039
58.388	12.999	1023.438	777.223
59.403	13.037	1022.499	776.620
60.417	13.060	1021.851	776.169
61.432	12.851	1021.508	774.858
62.447	12.936	1019.978	774.028
63.461	12.928	1019.235	773.359
64.476	12.889	1018.186	772.309
65.490	12.915	1017.571	771.899
66.505	12.983	1016.711	771.493
67.520	13.010	1016.145	771.123
68.534	13.026	1015.657	770.757
69.549	12.942	1015.378	770.086
70.563	12.926	1014.428	769.222
71.578	12.890	1013.445	768.244
72.593	12.846	1012.791	767.474
73.607	12.993	1011.504	767.115
74.622	12.926	1011.044	766.384
75.636	12.906	1010.661	765.936
76.651	12.923	1010.041	765.478
77.666	12.793	1009.880	764.684
78.680	12.919	1008.873	764.438
79.695	12.874	1008.463	763.851
80.709	12.938	1007.547	763.386
81.724	12.968	1006.595	762.736
82.739	13.045	1006.046	762.606
83.753	13.114	1005.396	762.367
84.768	13.265	1004.313	762.174
85.782	13.261	1003.425	761.413
86.797	13.167	1002.208	759.992
87.812	13.009	1002.066	759.089
88.826	13.114	1000.818	758.558
89.841	13.223	999.788	758.209
90.855	13.308	998.894	757.857
91.870	13.252	998.484	757.222
92.884	13.190	997.582	756.184
93.899	13.229	996.538	755.508
94.914	13.287	996.068	755.348
95.928	13.279	994.945	754.391
96.943	13.332	994.137	753.956
97.957	13.155	994.010	752.984
98.972	13.208	992.525	752.035
99.987	13.174	991.998	751.414
101.001	13.329	990.482	750.904
102.016	13.278	989.817	750.100
103.030	13.385	988.909	749.831
104.045	13.155	988.497	748.409
105.060	13.199	987.291	747.631
106.074	13.099	986.755	746.707
107.089	13.009	985.495	745.282
108.103	13.116	984.425	744.889
109.118	13.181	983.365	744.315
110.133	13.063	982.859	743.334
111.147	13.187	982.090	743.243
112.162	13.132	981.250	742.297
113.176	13.195	980.468	741.920
114.191	13.219	979.466	741.204
115.206	13.240	978.873	740.786
116.220	13.101	978.344	739.693
117.235	13.170	977.190	739.066
118.249	13.244	975.879	738.339
119.264	13.147	975.684	737.696
120.279	13.074	974.992	736.779
121.293	13.141	973.827	736.130
122.308	13.151	972.987	735.476
123.322	13.094	972.165	734.537
124.337	13.175	971.128	734.050
125.352	13.101	970.043	732.833
126.366	13.085	968.966	731.884
127.381	13.159	967.782	731.255
128.395	13.141	966.917	730.457
129.410	13.194	965.796	729.779
130.424	13.121	965.331	729.041
131.439	13.254	964.465	728.907
132.454	13.301	963.946	728.661
133.468	13.235	962.928	727.535
134.483	13.122	962.261	726.468
135.497	13.292	961.057	726.245
136.512	13.214	960.438	725.368
137.527	13.102	959.764	724.304
138.541	13.262	959.268	724.566
139.556	13.288	958.370	723.937
140.570	13.284	957.859	723.469
141.585	13.331	956.760	722.780
142.600	13.399	955.940	722.397
143.614	13.396	954.498	721.230
144.629	13.326	954.371	720.766
145.643	13.354	952.956	719.754
146.658	13.246	952.548	718.910
147.673	13.328	951.355	718.303
148.687	13.297	950.535	717.487
149.702	13.328	949.719	716.944
150.716	13.291	949.175	716.310
151.731	13.237	948.437	715.455
152.746	13.375	947.760	715.475
153.760	13.346	947.117	714.803
154.775	13.424	946.399	714.533
155.789	13.507	945.539	714.180
156.804	13.372	945.210	713.287
157.819	13.305	944.765	712.597
158.833	13.469	943.989	712.656
159.848	13.590	943.465	712.718
160.862	13.562	941.804	711.279
161.877	13.397	941.029	709.923
162.892	13.344	940.287	709.074
163.906	13.374	939.388	708.462
164.921	13.418	938.521	707.931
165.935	13.415	937.834	707.338
166.950	13.584	936.626	707.087
167.964	13.480	936.061	706.156
168.979	13.356	935.216	704.926
169.994	13.373	934.557	704.442
171.008	13.542	933.870	704.580
172.023	13.675	932.605	704.127
173.037	13.545	931.973	703.035
174.052	13.573	931.593	702.804
175.067	13.375	931.197	701.606
176.081	13.516	930.445	701.575
177.096	13.492	929.859	700.966
178.110	13.439	929.491	700.406
179.125	13.412	928.889	699.774
180.140	13.599	927.886	699.746
181.154	13.683	927.630	699.846
182.169	13.655	926.915	699.128
183.183	13.571	926.553	698.436
184.198	13.776	925.677	698.580
185.213	13.736	924.887	697.754
186.227	13.807	924.134	697.421
187.242	13.949	923.280	697.313
188.256	13.855	922.825	696.513
189.271	13.650	922.481	695.332
190.286	13.637	921.331	694.350
191.300	13.499	920.641	693.189
192.315	13.620	919.871	693.055
193.329	13.598	919.441	692.577
194.344	13.714	919.079	692.727
195.359	13.675	918.401	691.992
196.373	13.726	917.535	691.491
197.388	13.845	917.160	691.642
198.402	13.943	916.629	691.591
199.417	13.896	916.139	690.963
200.432	14.112	915.124	691.033
201.446	14.096	915.103	690.890
202.461	14.065	914.688	690.389
203.475	13.899	914.124	689.209
204.490	14.003	913.213	688.893
205.504	13.979	912.430	688.145
206.519	13.935	911.760	687.397
207.534	13.918	910.901	686.618
208.548	13.920	910.411	686.196
209.563	13.895	909.903	685.650
210.577	14.005	908.963	685.334
211.592	14.202	908.151	685.470
212.607	14.147	907.399	684.619
213.621	13.989	907.224	683.776
214.636	14.045	905.903	682.949
215.650	14.139	905.506	682.974
216.665	14.190	904.761	682.559
217.680	14.162	904.494	682.185
218.694	14.171	903.531	681.435
219.709	14.174	903.008	680.994
220.723	14.235	901.868	680.321
221.738	14.261	901.465	680.063
222.753	14.291	900.820	679.639
223.767	14.450	900.079	679.670
224.782	14.232	899.816	678.522
225.796	14.324	899.241	678.401
226.811	14.368	898.625	678.058
227.826	14.298	897.637	676.967
228.840	14.283	897.046	676.401
229.855	14.322	896.261	675.908
230.869	14.220	895.512	674.867
231.884	14.288	894.706	674.478
232.899	14.310	893.971	673.954
233.913	14.398	893.347	673.778
234.928	14.286	892.698	672.778
235.942	14.306	892.107	672.353
236.957	14.296	891.799	672.021
237.972	14.402	890.689	671.550
238.986	14.229	890.316	670.514
240.001	14.388	889.719	670.646
241.015	14.482	888.940	670.377
242.030	14.359	888.358	669.383
243.045	14.430	887.905	669.268
244.059	14.421	887.447	668.829
245.074	14.308	887.121	668.069
246.088	14.346	886.122	667.411
247.103	14.467	885.568	667.418
248.117	14.568	885.209	667.492
249.132	14.596	884.552	667.052
250.147	14.692	884.017	666.972
251.161	14.795	882.852	666.445
252.176	14.800	882.253	665.952
253.190	14.946	881.506	665.914
254.205	14.782	881.412	665.130
255.220	14.934	880.221	664.776
256.234	14.804	879.839	663.911
257.249	14.848	879.324	663.637
258.263	14.906	878.473	663.168
259.278	14.852	877.589	662.230
260.293	14.868	877.538	662.197
261.307	14.864	876.643	661.446
262.322	14.887	876.095	661.062
263.336	15.010	875.339	660.919
264.351	15.009	874.584	660.289
265.366	14.988	873.957	659.673
266.380	15.058	873.207	659.326
267.395	14.984	872.731	658.617
268.409	15.107	871.842	658.371
269.424	15.067	870.964	657.493
270.439	15.002	870.587	656.893
271.453	15.031	869.725	656.300
272.468	14.895	869.338	655.417
273.482	15.068	868.224	655.196
274.497	15.102	868.159	655.222
275.512	14.962	867.524	654.136
276.526	15.010	867.415	654.184
277.541	15.331	866.380	654.598
278.555	15.175	866.225	653.814
279.570	15.277	865.154	653.347
280.585	15.312	864.516	652.943
281.599	15.268	863.467	651.923
282.614	15.215	863.345	651.567
283.628	15.186	862.677	650.893
284.643	15.280	862.228	650.859
285.657	15.243	861.625	650.206
286.672	15.261	860.844	649.625
287.687	15.296	860.389	649.362
288.701	15.357	859.578	648.929
289.716	15.408	859.105	648.710
290.730	15.541	858.398	648.632
291.745	15.300	858.041	647.376
292.760	15.436	857.235	647.235
293.774	15.480	856.839	647.049
294.789	15.358	856.195	646.034
295.803	15.272	855.760	645.317
296.818	15.311	855.132	644.937
297.833	15.377	854.254	644.470
298.847	15.424	853.683	644.163
299.862	15.415	852.989	643.548
300.876	15.534	852.454	643.544
301.891	15.665	851.460	643.237
302.906	15.584	851.266	642.727
303.920	15.687	851.024	642.880
304.935	15.616	849.952	641.742
305.949	15.673	849.640	641.668
306.964	15.627	849.255	641.144
307.979	15.647	848.830	640.844
308.993	15.623	848.164	640.190
310.008	15.656	847.618	639.847
311.022	15.727	847.129	639.691
312.037	15.529	846.803	638.636
313.052	15.531	845.985	637.970
314.066	15.574	845.224	637.503
315.081	15.788	844.266	637.536
316.095	15.566	844.060	636.485
317.110	15.534	843.907	636.190
318.125	15.669	843.370	636.239
319.139	15.590	842.822	635.471
320.154	15.686	841.911	635.093
321.168	15.906	841.490	635.547
322.183	15.605	841.317	634.225
323.197	15.569	841.049	633.832
324.212	15.875	840.135	634.240
325.227	15.731	839.680	633.296
326.241	15.732	838.679	632.491
327.256	15.846	838.364	632.626
328.270	15.793	837.993	632.091
329.285	15.809	836.880	631.255
330.300	15.780	836.626	630.898
331.314	15.700	836.503	630.450
332.329	15.860	835.771	630.444
333.343	15.924	835.037	630.072
334.358	15.874	835.196	629.948
335.373	15.973	834.600	629.812
336.387	15.969	834.337	629.543
337.402	15.945	833.880	629.056
338.416	16.088	833.780	629.457
339.431	16.073	832.958	628.726
340.446	16.104	832.711	628.600
341.460	16.082	832.595	628.375
342.475	16.183	831.901	628.170
343.489	16.141	831.396	627.575
344.504	16.303	830.635	627.550
345.519	16.314	830.582	627.495
346.533	16.150	829.894	626.310
347.548	16.194	829.522	626.139
348.562	16.115	828.833	625.270
349.577	16.175	828.154	624.925
350.592	16.114	827.573	624.204
351.606	16.241	826.687	623.951
352.621	16.178	826.251	623.332
353.635	16.201	825.658	622.915
354.650	16.313	824.787	622.617
355.665	16.183	824.555	621.908
356.679	16.245	823.732	621.461
357.694	16.380	822.963	621.322
358.708	16.369	822.684	621.017
359.723	16.435	821.784	620.522
360.738	16.373	821.343	619.909
361.752	16.263	821.128	619.286
362.767	16.461	819.959	619.074
363.781	16.379	819.919	618.692
364.796	16.549	819.512	618.952
365.810	16.622	818.660	618.518
366.825	16.615	818.415	618.254
367.840	16.550	818.041	617.679
368.854	16.485	817.832	617.231
369.869	16.585	817.469	617.267
370.883	16.505	816.734	616.365
371.898	16.656	816.425	616.627
372.913	16.651	815.916	616.169
373.927	16.714	815.101	615.728
374.942	16.718	814.944	615.570
375.956	16.686	814.561	615.109
376.971	16.653	814.340	614.768
377.986	16.853	813.645	614.915
379.000	16.839	812.946	614.282
380.015	16.843	812.938	614.235
381.029	16.727	812.266	613.254
382.044	16.896	811.691	613.376
383.059	16.834	811.103	612.654
384.073	17.010	810.127	612.499
385.088	16.765	809.705	611.241
386.102	16.754	809.619	611.081
387.117	16.844	808.898	610.808
388.132	16.913	808.070	610.379
389.146	16.743	808.005	609.664
390.161	16.807	807.765	609.658
391.175	16.968	806.464	609.201
392.190	16.937	806.390	608.978
393.205	16.931	805.732	608.407
394.219	16.744	805.876	607.790
395.234	16.919	805.109	607.786
396.248	16.874	804.753	607.301
397.263	16.818	804.171	606.609
398.278	16.696	804.243	606.175
399.292	16.765	803.573	605.862
400.307	16.700	803.234	605.318
401.321	16.877	802.695	605.493
402.336	17.070	801.942	605.560
403.350	17.025	801.475	604.992
404.365	17.118	800.945	604.869
405.380	17.024	800.642	604.253
406.394	17.062	800.404	604.156
407.409	17.199	799.483	603.894
408.423	17.274	799.026	603.760
409.438	17.202	799.057	603.474
410.453	17.228	798.758	603.289
411.467	17.289	798.448	603.219
412.482	17.197	798.071	602.555
413.496	17.309	797.477	602.447
414.511	17.228	797.312	601.985
415.526	17.254	796.563	601.457
416.540	17.303	796.023	601.170
417.555	17.566	795.330	601.523
418.569	17.400	794.963	600.604
419.584	17.350	794.943	600.361
420.599	17.386	794.575	600.157
421.613	108.698	1291.246	1467.155
422.628	93.358	1363.623	1467.240
