DTS Sentinel unit serial number:	SN413079Multiplexer serial number:	ORYXHardware model number:	OX4-SRSoftware version number:	ORYX F/W v4.00 Oryx Data Collector v3.7.2.0data status	okinstallation	princeton_trtdifferential loss correction	single-endedforward channel	channel 1reverse channel	N/Adate	2019/09/14time	01:06:35forward acquisition time	60.00reverse acquisition time	0.00gamma	496.2192k internal	0.2337k external	0.2337temperature offset calibration	1.0078default loss term (dB/km)	0.3790temperature slope calibration	1.0000multiplexer offset coefficient	1.0000multiplexer slope coefficient	1.0000fibre end	0.00T internal ref (°C)	26.39T ext. ref 1 (°C)	3.17T ext. ref 2 (°C)	21.40length (m)	temperature (°C)	Stokes	anti-Stokes-747.200	-96.381	0.313	-0.083
-746.185	-57.085	-0.143	-0.063
-745.171	67.520	0.046	-0.047
-744.156	11.919	-0.294	0.227
-743.142	113.150	-0.258	0.314
-742.127	574.138	0.163	0.399
-741.112	103.602	0.210	-0.247
-740.098	253.465	-0.107	0.183
-739.083	-200.000	-0.037	0.296
-738.069	80.465	0.120	0.130
-737.054	-95.858	-0.211	0.057
-736.039	-40.249	-0.247	0.129
-735.025	71.120	0.029	-0.030
-734.010	-44.892	-0.146	0.073
-732.996	-31.662	0.257	-0.145
-731.981	-200.000	-0.052	-0.367
-730.966	322.673	0.089	-0.170
-729.952	-200.000	0.029	0.147
-728.937	-95.564	-0.367	0.099
-727.923	-200.000	0.015	-0.133
-726.908	203.991	-0.081	-0.125
-725.894	7.236	-0.241	0.180
-724.879	-37.201	0.191	-0.102
-723.864	-75.929	-0.109	-0.039
-722.850	-19.751	0.236	0.147
-721.835	-200.000	-0.033	0.169
-720.821	-113.859	0.070	0.014
-719.806	-72.016	0.101	0.038
-718.791	-200.000	-0.006	0.082
-717.777	-108.002	-0.294	0.064
-716.762	-57.744	0.446	0.196
-715.748	-76.541	-0.192	-0.068
-714.733	119.796	-0.151	0.188
-713.718	-200.000	-0.023	0.432
-712.704	88.045	-0.209	-0.233
-711.689	284.229	-0.039	0.070
-710.675	-200.000	0.001	0.023
-709.660	-28.457	-0.123	-0.071
-708.645	626.656	-0.045	-0.114
-707.631	58.249	0.326	-0.320
-706.616	-145.974	-0.081	0.007
-705.602	-44.784	-0.211	0.106
-704.587	160.119	0.188	0.263
-703.572	-172.061	-0.171	-0.006
-702.558	-135.089	-0.289	0.035
-701.543	-200.000	-0.031	-0.153
-700.529	-155.034	-0.204	-0.013
-699.514	-200.000	-0.020	0.228
-698.499	276.560	0.300	0.535
-697.485	800.000	0.017	0.073
-696.470	800.000	-0.147	0.410
-695.456	158.896	-0.091	-0.127
-694.441	498.306	0.044	0.101
-693.426	-66.866	0.274	0.108
-692.412	-18.079	-0.410	0.257
-691.397	6.599	-0.094	-0.070
-690.383	108.166	0.107	-0.128
-689.368	-200.000	-0.015	-0.126
-688.354	126.837	-0.082	0.104
-687.339	101.478	0.081	0.095
-686.324	356.933	0.231	0.461
-685.310	800.000	0.097	0.360
-684.295	-47.556	-0.078	0.038
-683.281	145.052	0.054	0.072
-682.266	-2.847	0.123	0.086
-681.251	138.651	0.183	0.241
-680.237	-124.019	0.170	-0.027
-679.222	625.932	0.046	-0.117
-678.208	800.000	-0.024	0.084
-677.193	-200.000	-0.002	0.028
-676.178	-200.000	-0.004	0.358
-675.164	109.179	0.088	-0.105
-674.149	800.000	0.072	0.229
-673.135	-14.837	0.164	0.106
-672.120	317.426	0.106	-0.200
-671.105	231.788	0.030	-0.049
-670.091	-200.000	-0.009	-0.070
-669.076	-99.516	-0.220	-0.055
-668.062	371.770	-0.193	-0.392
-667.047	800.000	-0.032	0.110
-666.032	-114.301	0.200	-0.039
-665.018	-77.366	0.127	-0.044
-664.003	309.870	0.088	0.165
-662.989	116.491	0.211	0.259
-661.974	-200.000	0.018	0.120
-660.959	722.949	0.117	0.311
-659.945	-145.521	-0.098	-0.009
-658.930	-54.341	-0.145	0.066
-657.916	90.560	-0.456	0.511
-656.901	-200.000	0.042	0.215
-655.886	800.000	-0.104	0.297
-654.872	-200.000	0.051	-0.280
-653.857	-200.000	-0.001	0.019
-652.843	240.004	0.018	0.029
-651.828	-23.544	-0.213	-0.128
-650.814	800.000	0.088	-0.342
-649.799	-168.329	0.329	-0.013
-648.784	-200.000	0.046	0.335
-647.770	-200.000	-0.073	-0.406
-646.755	68.382	0.174	-0.179
-645.741	692.309	-0.190	0.498
-644.726	-78.978	-0.250	-0.085
-643.711	800.000	0.043	-0.183
-642.697	792.440	-0.073	-0.201
-641.682	-20.590	0.075	0.046
-640.668	1.150	-0.168	0.120
-639.653	800.000	0.013	-0.040
-638.638	-153.252	-0.344	0.024
-637.624	-200.000	-0.020	0.174
-636.609	251.122	0.114	0.193
-635.595	-163.054	-0.100	0.005
-634.580	-126.063	0.309	-0.046
-633.565	53.806	0.049	0.047
-632.551	11.078	-0.030	0.023
-631.536	-82.761	-0.315	-0.102
-630.522	-76.259	0.039	-0.014
-629.507	-200.000	-0.085	0.452
-628.492	81.258	0.196	-0.212
-627.478	181.314	-0.277	-0.408
-626.463	800.000	0.034	-0.120
-625.449	-144.630	-0.228	-0.021
-624.434	82.670	0.175	0.190
-623.419	-65.073	-0.181	0.073
-622.405	-200.000	-0.016	-0.157
-621.390	245.705	-0.063	-0.107
-620.376	67.865	-0.107	0.109
-619.361	512.107	-0.113	0.263
-618.346	-39.962	0.170	-0.089
-617.332	-200.000	-0.078	0.000
-616.317	-75.927	0.276	-0.098
-615.303	293.143	0.100	-0.183
-614.288	-144.491	-0.160	-0.015
-613.273	-200.000	-0.014	0.087
-612.259	177.975	-0.037	-0.054
-611.244	353.993	-0.011	0.022
-610.230	800.000	-0.126	-0.505
-609.215	-200.000	-0.014	-0.197
-608.201	800.000	0.061	-0.263
-607.186	-42.721	0.338	-0.172
-606.171	-33.132	0.323	-0.179
-605.157	-68.954	-0.238	-0.092
-604.142	-7.765	0.336	0.227
-603.128	-75.059	0.062	0.022
-602.113	-87.865	0.300	0.090
-601.098	-67.745	0.296	-0.116
-600.084	-200.000	0.013	0.204
-599.069	-200.000	-0.050	-0.249
-598.055	-200.000	-0.004	-0.170
-597.040	-200.000	0.043	0.225
-596.025	-11.895	0.041	-0.027
-595.011	-82.623	-0.270	-0.087
-593.996	800.000	0.077	-0.261
-592.982	-64.891	0.119	0.048
-591.967	-109.993	-0.144	0.030
-590.952	-7.561	0.206	-0.139
-589.938	77.905	-0.157	-0.167
-588.923	130.334	0.306	-0.392
-587.909	50.020	0.227	0.214
-586.894	-26.994	-0.146	0.085
-585.879	16.577	0.066	-0.052
-584.865	800.000	0.078	0.245
-583.850	-200.000	0.027	0.196
-582.836	-52.238	-0.143	0.066
-581.821	136.494	-0.083	-0.109
-580.806	93.854	-0.151	-0.171
-579.792	-106.795	0.160	0.035
-578.777	-200.000	-0.005	-0.249
-577.763	-17.180	-0.400	0.251
-576.748	-200.000	-0.036	0.197
-575.733	-8.447	0.118	-0.079
-574.719	-3.347	-0.332	-0.230
-573.704	82.077	-0.239	-0.258
-572.690	800.000	-0.081	-0.242
-571.675	-82.884	-0.235	-0.076
-570.661	-200.000	-0.010	-0.206
-569.646	342.211	0.080	-0.157
-568.631	21.237	0.172	0.139
-567.617	41.690	-0.075	-0.068
-566.602	800.000	-0.075	0.282
-565.588	-95.489	-0.120	-0.032
-564.573	40.159	0.096	-0.086
-563.558	-200.000	-0.011	0.062
-562.544	729.254	-0.024	-0.063
-561.529	655.813	0.117	0.300
-560.515	64.853	0.139	-0.140
-559.500	-200.000	0.051	-0.268
-558.485	409.405	-0.104	0.220
-557.471	-200.000	0.018	0.107
-556.456	13.009	0.151	0.116
-555.442	-97.911	-0.355	0.091
-554.427	-156.332	-0.385	0.024
-553.412	-113.229	-0.075	0.015
-552.398	94.291	0.217	0.246
-551.383	670.583	-0.032	-0.082
-550.369	-200.000	-0.024	0.316
-549.354	3.978	-0.162	0.118
-548.339	800.000	0.026	0.077
-547.325	10.021	0.215	0.163
-546.310	-37.423	0.066	-0.035
-545.296	-25.499	-0.337	-0.198
-544.281	800.000	-0.105	-0.437
-543.266	-200.000	0.057	-0.279
-542.252	128.228	0.191	-0.243
-541.237	-193.134	-0.246	0.002
-540.223	320.633	0.159	0.302
-539.208	198.096	-0.171	0.261
-538.193	-48.637	-0.220	0.105
-537.179	-200.000	-0.016	0.167
-536.164	-24.305	0.210	0.125
-535.150	-138.272	-0.109	0.012
-534.135	-121.842	-0.184	0.030
-533.121	-127.599	-0.352	-0.051
-532.106	800.000	0.088	-0.297
-531.091	-120.697	-0.224	-0.038
-530.077	109.713	0.036	0.043
-529.062	-47.109	0.364	-0.177
-528.048	-102.621	-0.322	-0.076
-527.033	-51.391	-0.074	-0.034
-526.018	-38.333	0.133	0.070
-525.004	800.000	0.096	0.267
-523.989	-85.284	-0.058	-0.018
-522.975	-200.000	-0.048	-0.267
-521.960	-55.218	0.243	-0.109
-520.945	-200.000	0.019	-0.146
-519.931	-5.963	-0.359	-0.245
-518.916	-109.857	-0.271	-0.057
-517.902	-19.835	0.058	-0.036
-516.887	83.043	-0.098	-0.106
-515.872	-200.000	0.008	0.154
-514.858	91.523	0.178	0.199
-513.843	288.874	0.155	0.280
-512.829	-200.000	0.008	0.073
-511.814	-100.183	-0.216	-0.053
-510.799	-200.000	-0.018	0.315
-509.785	-146.841	-0.285	-0.024
-508.770	-114.484	0.031	-0.006
-507.756	533.543	0.059	0.140
-506.741	6.449	0.112	0.083
-505.726	30.352	-0.336	-0.286
-504.712	-6.928	0.184	0.124
-503.697	33.847	0.464	0.402
-502.683	277.199	0.109	-0.193
-501.668	80.265	0.048	-0.052
-500.653	-113.424	0.070	0.014
-499.639	32.182	-0.135	0.116
-498.624	-21.449	0.278	0.169
-497.610	114.862	0.138	0.167
-496.595	304.436	0.097	0.180
-495.581	4.993	-0.299	0.219
-494.566	-164.352	0.226	-0.010
-493.551	-137.049	0.453	0.051
-492.537	251.490	-0.023	0.039
-491.522	-200.000	0.045	0.245
-490.508	-83.067	-0.285	-0.091
-489.493	121.947	0.178	-0.221
-488.478	-104.036	-0.102	0.024
-487.464	212.280	0.066	0.103
-486.449	223.737	0.010	0.015
-485.435	-200.000	-0.003	0.013
-484.420	800.000	-0.054	0.180
-483.405	-35.007	-0.205	0.111
-482.391	-55.208	-0.147	-0.066
-481.376	-130.287	-0.134	0.018
-480.362	-27.765	0.145	0.084
-479.347	239.726	0.143	-0.237
-478.332	423.356	0.034	-0.074
-477.318	737.780	-0.026	-0.068
-476.303	-120.480	-0.214	-0.036
-475.289	339.310	-0.040	-0.078
-474.274	-77.963	-0.092	-0.031
-473.259	-56.307	0.287	-0.127
-472.245	90.034	0.046	-0.051
-471.230	16.506	-0.081	0.064
-470.216	435.210	-0.071	0.153
-469.201	-200.000	-0.011	0.186
-468.186	18.089	-0.156	0.124
-467.172	-49.798	-0.122	0.058
-466.157	-54.808	-0.371	0.166
-465.143	4.418	-0.301	-0.219
-464.128	-37.803	-0.221	0.117
-463.113	328.480	-0.125	0.239
-462.099	800.000	0.029	-0.091
-461.084	-200.000	0.028	0.148
-460.070	-81.345	-0.124	-0.040
-459.055	-56.277	-0.449	0.198
-458.040	10.338	-0.383	0.289
-457.026	124.461	0.174	-0.218
-456.011	-89.998	-0.133	0.038
-454.997	-200.000	0.017	0.423
-453.982	12.049	0.199	0.152
-452.968	417.604	0.175	0.372
-451.953	-89.474	0.061	-0.018
-450.938	-14.814	0.136	-0.086
-449.924	-200.000	-0.004	-0.139
-448.909	-85.371	0.137	0.042
-447.895	800.000	0.078	0.268
-446.880	-185.671	0.185	0.003
-445.865	-63.022	-0.217	-0.089
-444.851	686.109	-0.072	0.187
-443.836	-35.578	-0.239	-0.129
-442.822	-200.000	0.034	0.173
-441.807	-71.362	0.073	0.027
-440.792	89.353	0.115	0.127
-439.778	-142.979	-0.021	0.002
-438.763	-86.724	0.375	-0.114
-437.749	27.458	0.248	0.207
-436.734	345.445	0.168	0.326
-435.719	-59.972	0.305	-0.129
-434.705	211.870	-0.060	-0.094
-433.690	79.730	0.035	-0.037
-432.676	303.944	-0.042	0.077
-431.661	-87.226	0.111	-0.033
-430.646	-123.857	0.369	-0.058
-429.632	800.000	-0.119	0.419
-428.617	238.346	-0.069	0.113
-427.603	168.048	-0.177	0.250
-426.588	800.000	-0.050	0.216
-425.573	22.474	0.074	0.060
-424.559	267.219	-0.070	0.121
-423.544	-200.000	0.014	-0.066
-422.530	-69.265	-0.072	-0.027
-421.515	-158.261	0.202	0.012
-420.500	-20.972	0.179	0.108
-419.486	800.000	-0.039	-0.171
-418.471	77.588	0.120	-0.127
-417.457	29.349	-0.069	0.058
-416.442	-117.690	0.205	0.037
-415.428	-94.217	-0.158	0.043
-414.413	-121.641	0.243	-0.040
-413.398	-64.809	-0.261	-0.105
-412.384	245.678	-0.115	0.192
-411.369	-200.000	0.007	0.173
-410.355	261.664	0.170	-0.293
-409.340	-200.000	0.012	-0.122
-408.325	1.587	0.221	-0.158
-407.311	89.838	0.111	-0.122
-406.296	-194.511	0.237	0.002
-405.282	-200.000	-0.025	-0.204
-404.267	164.464	-0.132	0.184
-403.252	-84.016	0.115	-0.036
-402.238	321.972	0.100	-0.188
-401.223	669.882	-0.069	0.177
-400.209	328.328	0.018	-0.034
-399.194	-200.000	0.041	-0.208
-398.179	5.392	-0.300	0.219
-397.165	-165.146	0.280	0.012
-396.150	-115.491	0.330	-0.062
-395.136	-124.157	0.507	-0.079
-394.121	-95.608	-0.264	-0.070
-393.106	-171.815	-0.180	-0.006
-392.092	800.000	0.107	-0.356
-391.077	-11.052	-0.290	-0.190
-390.063	-134.630	-0.252	0.030
-389.048	-102.091	0.228	0.054
-388.033	-94.634	-0.026	-0.007
-387.019	800.000	0.040	0.162
-386.004	14.447	-0.193	-0.149
-384.990	289.087	0.118	-0.211
-383.975	-94.167	-0.288	-0.078
-382.960	-101.118	0.149	0.036
-381.946	-53.485	0.152	-0.069
-380.931	800.000	-0.091	-0.265
-379.917	-81.805	0.207	0.067
-378.902	179.702	-0.049	-0.072
-377.888	-200.000	-0.040	0.407
-376.873	800.000	-0.038	0.132
-375.858	-20.721	0.200	0.121
-374.844	-46.960	-0.289	-0.140
-373.829	157.687	0.100	0.137
-372.815	493.733	-0.175	-0.397
-371.800	629.222	-0.079	-0.198
-370.785	40.548	-0.232	-0.207
-369.771	48.495	-0.252	-0.233
-368.756	276.917	-0.047	-0.083
-367.742	240.914	-0.052	0.085
-366.727	-200.000	-0.075	-0.338
-365.712	146.473	-0.285	-0.379
-364.698	33.076	0.198	0.170
-363.683	-200.000	0.017	-0.154
-362.669	-200.000	-0.268	-0.000
-361.654	-8.563	0.426	-0.283
-360.639	357.779	0.060	-0.119
-359.625	16.334	0.163	-0.127
-358.610	55.930	-0.268	0.257
-357.596	-200.000	-0.091	-0.415
-356.581	-115.481	0.388	-0.072
-355.566	800.000	0.035	0.142
-354.552	-116.181	0.167	-0.031
-353.537	-139.163	-0.250	0.027
-352.523	-104.376	-0.373	-0.085
-351.508	-112.385	-0.438	0.087
-350.493	800.000	-0.021	-0.064
-349.479	276.914	0.075	0.131
-348.464	53.415	0.240	0.228
-347.450	-96.821	-0.038	0.010
-346.435	800.000	0.047	-0.140
-345.420	331.900	-0.101	0.193
-344.406	310.000	0.114	0.210
-343.391	144.446	0.235	-0.311
-342.377	110.412	0.220	-0.262
-341.362	33.021	-0.319	0.274
-340.348	-96.129	0.127	0.033
-339.333	143.157	-0.029	0.038
-338.318	147.712	0.124	-0.165
-337.304	34.613	0.300	0.259
-336.289	-72.089	-0.171	0.063
-335.275	-200.000	0.012	0.251
-334.260	82.521	-0.060	0.065
-333.245	-47.107	-0.219	0.106
-332.231	128.187	-0.058	-0.073
-331.216	-56.127	0.336	0.148
-330.202	800.000	0.052	-0.155
-329.187	229.377	0.246	-0.396
-328.172	184.333	-0.216	-0.316
-327.158	-171.534	0.089	0.003
-326.143	-68.423	-0.349	-0.134
-325.129	3.036	0.299	-0.214
-324.114	59.707	0.156	-0.152
-323.099	35.603	-0.121	0.105
-322.085	-13.635	0.198	0.127
-321.070	-16.334	0.276	-0.173
-320.056	63.001	0.110	0.109
-319.041	-66.856	0.230	0.090
-318.026	800.000	0.134	-0.460
-317.012	-200.000	0.005	-0.195
-315.997	13.228	0.014	-0.010
-314.983	-200.000	-0.025	-0.182
-313.968	10.245	0.099	0.074
-312.953	-81.242	0.169	-0.055
-311.939	-42.279	-0.146	0.074
-310.924	-101.905	-0.227	0.054
-309.910	-169.197	-0.222	0.008
-308.895	800.000	-0.057	-0.203
-307.880	-98.146	0.111	-0.028
-306.866	69.869	0.116	0.118
-305.851	78.322	-0.137	0.144
-304.837	-25.859	-0.214	-0.124
-303.822	-200.000	0.004	0.242
-302.807	-130.168	-0.138	0.019
-301.793	-141.916	0.316	0.031
-300.778	-200.000	-0.067	-0.382
-299.764	157.655	-0.108	-0.147
-298.749	623.440	-0.016	-0.041
-297.735	241.201	0.242	-0.399
-296.720	-197.976	0.268	0.002
-295.705	505.466	0.151	-0.345
-294.691	57.312	-0.265	-0.255
-293.676	800.000	0.088	0.251
-292.662	-163.910	0.099	0.005
-291.647	-119.826	-0.122	0.021
-290.632	-110.053	0.197	0.041
-289.618	194.350	0.204	-0.305
-288.603	-200.000	0.037	-0.284
-287.589	567.976	0.058	0.139
-286.574	636.344	-0.087	-0.217
-285.559	800.000	-0.138	-0.411
-284.545	-200.000	-0.002	-0.073
-283.530	218.041	-0.026	0.040
-282.516	139.249	0.170	0.221
-281.501	104.433	-0.163	0.189
-280.486	-200.000	0.058	0.512
-279.472	238.694	-0.053	-0.087
-278.457	128.551	0.140	-0.176
-277.443	-70.188	-0.166	0.062
-276.428	-200.000	0.026	0.248
-275.413	242.904	-0.048	-0.080
-274.399	43.521	-0.265	0.239
-273.384	-200.000	-0.039	-0.232
-272.370	800.000	0.151	0.422
-271.355	-200.000	-0.034	0.216
-270.340	62.171	-0.150	-0.148
-269.326	-99.957	-0.220	0.054
-268.311	40.284	0.213	-0.188
-267.297	800.000	0.104	0.329
-266.282	73.551	0.199	-0.205
-265.267	-200.000	0.044	0.322
-264.253	800.000	0.034	-0.121
-263.238	9.181	0.052	-0.038
-262.224	189.064	0.072	0.106
-261.209	-12.535	0.101	0.065
-260.195	-40.139	0.108	-0.055
-259.180	157.664	0.120	-0.164
-258.165	-87.404	-0.333	-0.099
-257.151	-200.000	0.042	0.258
-256.136	800.000	-0.072	0.234
-255.122	-200.000	0.005	-0.174
-254.107	-29.478	-0.257	-0.145
-253.092	196.865	-0.107	0.161
-252.078	-200.000	-0.048	-0.216
-251.063	800.000	0.065	-0.188
-250.049	-112.755	0.398	0.078
-249.034	-200.000	-0.023	-0.120
-248.019	-200.000	-0.046	-0.528
-247.005	-1.535	0.379	0.263
-245.990	-200.000	-0.005	0.079
-244.976	42.299	0.150	0.134
-243.961	-122.252	-0.234	0.038
-242.946	-104.305	0.295	0.067
-241.932	-200.000	0.097	-0.481
-240.917	-104.415	0.092	-0.021
-239.903	94.376	0.010	0.011
-238.888	302.577	-0.140	0.254
-237.873	490.284	-0.159	-0.358
-236.859	27.639	0.232	0.192
-235.844	33.014	-0.184	0.157
-234.830	42.609	0.152	0.136
-233.815	150.827	0.253	0.339
-232.800	15.118	-0.117	0.090
-231.786	-200.000	0.016	-0.147
-230.771	29.219	-0.066	0.055
-229.757	-29.695	-0.170	-0.096
-228.742	-53.477	0.349	0.157
-227.727	-1.909	-0.176	0.122
-226.713	-47.643	-0.167	0.080
-225.698	-24.358	-0.181	0.106
-224.684	-88.833	0.212	0.062
-223.669	-114.803	-0.054	-0.010
-222.655	256.530	-0.094	0.159
-221.640	40.891	0.065	0.058
-220.625	-3.364	-0.345	0.237
-219.611	16.098	-0.264	-0.205
-218.596	119.562	-0.184	0.224
-217.582	-60.372	-0.513	0.215
-216.567	3.798	0.083	0.060
-215.552	298.448	-0.167	0.302
-214.538	-94.469	0.099	-0.027
-213.523	-21.063	-0.333	0.201
-212.509	51.244	0.153	-0.143
-211.494	-148.216	0.209	-0.017
-210.479	-54.683	-0.287	-0.128
-209.465	-73.598	0.265	0.095
-208.450	800.000	-0.036	0.136
-207.436	-105.477	0.124	-0.028
-206.421	102.321	-0.127	-0.146
-205.406	-200.000	0.211	0.000
-204.392	800.000	-0.077	-0.273
-203.377	-200.000	0.032	-0.178
-202.363	271.190	0.038	-0.066
-201.348	83.923	-0.224	-0.240
-200.333	143.132	-0.154	0.201
-199.319	-69.974	0.228	0.085
-198.304	122.338	0.212	-0.260
-197.290	-93.264	-0.136	0.037
-196.275	-21.024	0.234	-0.141
-195.260	-158.730	0.239	-0.013
-194.246	-115.478	0.160	0.030
-193.231	-80.632	0.113	-0.037
-192.217	34.276	0.090	0.077
-191.202	444.429	-0.048	0.104
-190.187	-200.000	0.003	0.044
-189.173	-78.755	0.341	0.114
-188.158	-9.685	0.110	-0.072
-187.144	-50.458	-0.217	0.101
-186.129	456.432	-0.104	0.227
-185.114	-24.193	-0.024	-0.014
-184.100	-12.238	0.063	-0.041
-183.085	4.912	0.179	0.129
-182.071	-178.744	-0.148	-0.003
-181.056	360.924	0.054	-0.107
-180.042	-200.000	-0.011	-0.293
-179.027	37.914	-0.212	-0.185
-178.012	-185.768	0.216	-0.003
-176.998	-175.743	0.037	0.001
-175.983	672.762	-0.074	0.189
-174.969	-79.372	0.119	-0.039
-173.954	-129.363	-0.315	0.043
-172.939	8.935	0.050	0.037
-171.925	103.687	-0.189	0.218
-170.910	685.937	-0.018	0.045
-169.896	19.599	0.229	-0.181
-168.881	-200.000	0.005	0.095
-167.866	-200.000	0.006	-0.031
-166.852	96.151	0.127	0.142
-165.837	163.661	-0.191	0.264
-164.823	185.713	-0.056	-0.082
-163.808	128.582	0.111	-0.138
-162.793	-90.501	0.226	0.064
-161.779	14.562	0.119	0.091
-160.764	122.713	-0.262	-0.321
-159.750	92.116	-0.230	0.254
-158.735	138.658	0.172	0.222
-157.720	-200.000	0.055	0.316
-156.706	-81.596	-0.139	0.045
-155.691	-35.048	0.133	-0.071
-154.677	-112.601	-0.167	0.033
-153.662	-107.537	0.139	0.030
-152.647	-59.067	-0.577	0.244
-151.633	-75.583	0.064	-0.022
-150.618	-124.402	-0.353	0.054
-149.604	-107.659	-0.270	0.058
-148.589	-200.000	0.001	0.029
-147.574	-96.723	0.397	-0.103
-146.560	99.632	-0.196	0.222
-145.545	800.000	0.108	0.358
-144.531	-52.290	-0.237	-0.108
-143.516	-54.077	0.324	-0.145
-142.502	27.395	0.079	0.065
-141.487	-200.000	0.066	0.309
-140.472	-99.459	-0.305	0.075
-139.458	-49.856	0.211	0.098
-138.443	-200.000	-0.044	-0.352
-137.429	800.000	0.085	0.299
-136.414	800.000	0.067	0.277
-135.399	404.204	-0.083	-0.172
-134.385	238.265	0.053	-0.087
-133.370	46.200	0.072	0.065
-132.356	71.825	0.083	-0.085
-131.341	-146.162	-0.184	0.016
-130.326	528.185	0.117	-0.271
-129.312	57.051	-0.330	-0.316
-128.297	77.012	0.105	0.109
-127.283	-200.000	-0.067	0.361
-126.268	800.000	-0.027	0.077
-125.253	-57.513	-0.183	-0.079
-124.239	-200.000	-0.030	-0.327
-123.224	-25.869	-0.225	0.130
-122.210	-200.000	-0.043	-0.359
-121.195	-170.152	0.207	-0.007
-120.180	63.719	-0.092	0.090
-119.166	-200.000	-0.027	-0.293
-118.151	-200.000	0.047	0.206
-117.137	800.000	-0.032	0.123
-116.122	10.146	0.159	0.118
-115.107	51.591	-0.195	0.182
-114.093	23.953	-0.073	0.059
-113.078	127.034	-0.186	-0.231
-112.064	62.178	0.169	0.166
-111.049	-29.735	0.328	-0.183
-110.034	114.856	0.102	0.121
-109.020	-200.000	-0.008	-0.063
-108.005	-39.498	-0.264	0.136
-106.991	-2.139	0.210	0.144
-105.976	-107.056	0.086	0.019
-104.962	281.890	0.126	0.222
-103.947	-9.087	0.359	-0.236
-102.932	96.032	-0.163	-0.182
-101.918	137.276	-0.126	-0.161
-100.903	-200.000	-0.002	-0.198
-99.889	-51.766	0.223	-0.102
-98.874	-18.948	-0.107	-0.065
-97.859	245.657	0.134	-0.221
-96.845	-93.007	-0.229	-0.062
-95.830	77.844	0.113	0.118
-94.816	540.949	0.052	0.122
-93.801	56.285	0.325	-0.309
-92.786	36.972	0.080	0.069
-91.772	-40.069	-0.159	0.081
-90.757	-103.459	-0.237	0.054
-89.743	490.055	0.210	-0.471
-88.728	181.599	-0.310	-0.446
-87.713	-200.000	0.042	0.265
-86.699	94.680	0.262	-0.291
-85.684	63.524	0.149	0.146
-84.670	-148.790	0.185	0.015
-83.655	-77.134	0.140	-0.048
-82.640	-118.699	-0.219	0.038
-81.626	-7.666	0.455	0.301
-80.611	-200.000	-0.001	0.101
-79.597	-200.000	0.069	0.526
-78.582	-2.943	-0.123	-0.084
-77.567	-83.015	-0.256	0.081
-76.553	-150.293	0.196	-0.015
-75.538	43.036	0.123	0.109
-74.524	-109.073	0.026	0.005
-73.509	-47.183	0.236	-0.112
-72.494	-80.774	0.269	-0.088
-71.480	800.000	0.154	-0.449
-70.465	593.285	0.153	-0.371
-69.451	167.539	0.058	-0.080
-68.436	61.137	0.094	0.091
-67.422	170.862	0.272	-0.381
-66.407	-132.873	0.234	0.029
-65.392	-21.080	0.050	0.030
-64.378	800.000	-0.039	0.144
-63.363	-200.000	0.014	-0.192
-62.349	44.669	0.032	-0.029
-61.334	159.721	-0.892	-1.214
-60.319	14.758	0.738	0.564
-59.305	800.000	-0.519	-1.412
-58.290	800.000	0.354	1.388
-57.276	698.574	0.670	1.723
-56.261	-200.000	115.990	639.721
-55.246	497.804	1538.295	3460.916
-54.232	175.903	2708.654	3841.558
-53.217	104.986	2150.711	2479.219
-52.203	37.925	1585.250	1377.057
-51.188	29.873	1327.441	1105.207
-50.173	26.949	1288.781	1055.994
-49.159	52.157	1348.145	1255.590
-48.144	50.840	1360.856	1259.546
-47.130	29.795	1315.256	1094.424
-46.115	26.609	1297.226	1060.750
-45.100	26.249	1292.087	1054.405
-44.086	26.226	1289.573	1052.180
-43.071	26.250	1286.967	1050.150
-42.057	26.226	1285.117	1048.461
-41.042	26.311	1283.311	1047.436
-40.027	26.314	1281.739	1046.131
-39.013	26.195	1279.963	1043.952
-37.998	26.307	1278.313	1043.214
-36.984	26.314	1276.479	1041.713
-35.969	26.367	1274.647	1040.483
-34.954	26.353	1272.745	1038.810
-33.940	26.377	1271.975	1038.276
-32.925	26.567	1269.926	1037.654
-31.911	26.466	1268.664	1035.999
-30.896	26.461	1267.475	1034.961
-29.881	26.503	1266.200	1034.120
-28.867	26.534	1264.363	1032.753
-27.852	26.488	1263.434	1031.691
-26.838	26.494	1261.884	1030.422
-25.823	26.478	1260.817	1029.415
-24.809	26.497	1259.149	1028.123
-23.794	26.459	1258.034	1026.956
-22.779	26.395	1256.516	1025.314
-21.765	26.379	1255.510	1024.361
-20.750	26.546	1253.985	1024.020
-19.736	26.276	1253.080	1021.711
-18.721	26.418	1251.356	1021.068
-17.706	26.354	1251.050	1020.417
-16.692	26.464	1249.364	1019.622
-15.677	26.376	1248.138	1018.087
-14.663	26.416	1247.182	1017.490
-13.648	26.425	1245.891	1016.446
-12.633	26.295	1245.362	1015.246
-11.619	26.362	1244.728	1015.065
-10.604	26.353	1243.265	1013.782
-9.590	26.338	1242.607	1013.119
-8.575	26.325	1242.084	1012.578
-7.560	26.258	1240.945	1011.234
-6.546	26.358	1239.732	1010.765
-5.531	26.314	1239.069	1009.941
-4.517	26.356	1237.803	1009.104
-3.502	26.416	1237.261	1008.957
-2.487	26.375	1236.130	1007.763
-1.473	26.365	1232.204	1004.469
-0.458	24.949	1217.623	984.763
0.556	21.781	1201.709	948.668
1.571	18.321	1207.372	934.209
2.586	17.465	1222.134	940.818
3.600	17.010	1210.098	928.978
4.615	12.750	1139.195	852.470
5.629	6.106	1068.642	767.257
6.644	3.278	1051.619	741.366
7.659	3.047	1049.458	738.667
8.673	3.091	1048.544	738.170
9.688	3.275	1046.452	737.514
10.702	3.365	1044.748	736.681
11.717	7.043	1049.716	757.759
12.731	14.406	1060.213	800.768
13.746	18.993	1065.609	826.875
14.761	19.739	1065.908	830.620
15.775	18.963	1064.125	825.433
16.790	17.949	1062.141	818.960
17.804	17.190	1060.755	814.187
18.819	16.968	1059.596	812.159
19.834	16.836	1058.611	810.701
20.848	16.523	1058.479	809.032
21.863	16.441	1057.492	807.815
22.877	16.283	1056.883	806.523
23.892	16.164	1056.243	805.395
24.907	16.305	1055.336	805.303
25.921	16.206	1054.453	804.088
26.936	16.194	1052.852	802.737
27.950	16.268	1051.273	801.814
28.965	16.473	1050.119	801.838
29.980	16.613	1048.573	801.250
30.994	16.618	1047.208	800.157
32.009	16.556	1046.783	799.467
33.023	16.581	1045.446	798.494
34.038	16.577	1044.089	797.371
35.053	16.451	1043.619	796.345
36.067	16.462	1042.253	795.286
37.082	16.303	1042.359	794.547
38.096	16.459	1041.825	794.804
39.111	16.502	1040.618	794.016
40.126	16.461	1038.918	792.456
41.140	16.155	1038.204	790.407
42.155	16.026	1036.518	788.449
43.169	16.012	1035.433	787.490
44.184	16.059	1034.138	786.654
45.199	16.027	1034.014	786.343
46.213	16.171	1032.635	785.894
47.228	16.178	1031.865	785.270
48.242	16.379	1030.817	785.338
49.257	16.259	1029.934	784.040
50.271	16.381	1029.030	783.845
51.286	16.417	1027.896	783.079
52.301	16.481	1026.869	782.524
53.315	16.262	1026.042	780.811
54.330	16.073	1025.537	779.485
55.344	16.100	1024.328	778.622
56.359	16.156	1023.261	778.003
57.374	16.079	1022.398	776.921
58.388	16.044	1021.902	776.315
59.403	15.980	1020.775	775.097
60.417	16.073	1020.302	775.097
61.432	16.001	1018.977	773.688
62.447	15.998	1018.359	773.139
63.461	15.926	1017.271	771.913
64.476	15.781	1017.105	771.054
65.490	15.947	1015.894	770.827
66.505	15.921	1015.329	770.213
67.520	15.860	1014.550	769.275
68.534	15.953	1013.969	769.192
69.549	16.015	1013.237	768.850
70.563	15.765	1012.712	767.243
71.578	15.827	1011.200	766.314
72.593	15.756	1010.328	765.259
73.607	15.684	1010.015	764.627
74.622	15.770	1009.426	764.504
75.636	15.791	1008.738	764.013
76.651	15.769	1008.086	763.350
77.666	15.867	1007.632	763.383
78.680	15.851	1006.626	762.482
79.695	15.932	1005.854	762.197
80.709	16.041	1005.426	762.299
81.724	16.136	1005.020	762.352
82.739	16.143	1004.198	761.694
83.753	16.282	1003.539	761.754
84.768	16.457	1002.827	761.933
85.782	16.565	1002.101	761.802
86.797	16.677	1000.757	761.216
87.812	16.361	1000.494	759.527
88.826	16.414	999.067	758.616
89.841	16.596	997.748	758.363
90.855	16.574	997.062	757.675
91.870	16.598	996.387	757.201
92.884	16.547	995.667	756.361
93.899	16.585	994.774	755.785
94.914	16.657	993.887	755.364
95.928	16.698	993.196	754.958
96.943	16.493	992.073	753.125
97.957	16.430	991.655	752.458
98.972	16.531	990.289	751.803
99.987	16.462	989.779	751.043
101.001	16.529	988.549	750.341
102.016	16.411	987.905	749.264
103.030	16.502	987.293	749.134
104.045	16.514	986.468	748.497
105.060	16.451	985.513	747.426
106.074	16.251	984.544	745.742
107.089	16.084	983.443	744.108
108.103	16.033	982.606	743.182
109.118	15.983	981.472	742.040
110.133	15.941	980.558	741.096
111.147	15.966	979.708	740.497
112.162	16.070	978.852	740.242
113.176	16.198	978.415	740.410
114.191	16.139	977.501	739.393
115.206	16.278	976.565	739.228
116.220	16.066	976.219	737.973
117.235	16.035	974.971	736.829
118.249	16.070	974.483	736.547
119.264	16.088	973.039	735.471
120.279	15.994	972.464	734.562
121.293	15.982	971.778	733.925
122.308	15.887	970.746	732.668
123.322	15.831	969.740	731.601
124.337	16.005	968.421	731.297
125.352	15.897	967.707	730.222
126.366	15.918	966.389	729.253
127.381	15.896	965.829	728.671
128.395	15.981	964.803	728.201
129.410	15.982	963.597	727.230
130.424	16.006	963.174	726.952
131.439	16.117	962.821	727.100
132.454	16.140	961.936	726.464
133.468	16.214	960.868	725.912
134.483	16.145	960.129	724.992
135.497	16.156	959.248	724.313
136.512	16.182	958.255	723.611
137.527	16.168	957.283	722.751
138.541	16.146	957.159	722.499
139.556	16.249	956.447	722.338
140.570	16.526	955.411	722.678
141.585	16.580	955.087	722.600
142.600	16.529	954.143	721.604
143.614	16.603	953.336	721.245
144.629	16.745	952.628	721.250
145.643	16.445	951.732	719.229
146.658	16.507	950.400	718.426
147.673	16.431	949.210	717.139
148.687	16.280	949.021	716.293
149.702	16.310	947.955	715.550
150.716	16.230	947.292	714.648
151.731	16.407	946.325	714.604
152.746	16.240	945.863	713.485
153.760	16.396	944.836	713.306
154.775	16.568	944.108	713.420
155.789	16.522	943.815	712.941
156.804	16.576	942.900	712.414
157.819	16.486	942.648	711.781
158.833	16.588	941.874	711.562
159.848	16.763	941.078	711.634
160.862	16.598	940.108	710.144
161.877	16.325	939.248	708.289
162.892	16.314	937.971	707.217
163.906	16.306	937.375	706.671
164.921	16.326	936.362	705.927
165.935	16.381	935.617	705.534
166.950	16.576	934.661	705.565
167.964	16.503	933.778	704.531
168.979	16.339	932.991	703.191
169.994	16.379	932.255	702.741
171.008	16.562	931.257	702.688
172.023	16.668	931.021	702.889
173.037	16.622	930.590	702.307
174.052	16.626	929.727	701.611
175.067	16.444	928.716	700.032
176.081	16.402	927.913	699.192
177.096	16.347	927.621	698.685
178.110	16.400	927.113	698.458
179.125	16.448	926.409	698.063
180.140	16.566	925.883	698.094
181.154	16.615	925.910	698.253
182.169	16.808	925.036	698.329
183.183	16.748	924.718	697.776
184.198	16.707	923.590	696.697
185.213	16.667	923.242	696.210
186.227	16.766	922.570	696.047
187.242	16.793	922.221	695.830
188.256	16.918	921.454	695.705
189.271	16.894	920.954	695.167
190.286	16.655	919.815	693.268
191.300	16.255	918.771	690.782
192.315	16.370	917.738	690.415
193.329	16.346	917.768	690.280
194.344	16.523	917.135	690.466
195.359	16.733	916.221	690.570
196.373	16.765	916.280	690.684
197.388	16.833	916.058	690.733
198.402	17.022	915.120	690.735
199.417	17.156	914.366	690.651
200.432	17.177	913.888	690.311
201.446	17.157	913.366	689.775
202.461	17.203	913.606	690.085
203.475	17.009	912.430	688.346
204.490	16.945	911.850	687.589
205.504	16.916	910.813	686.630
206.519	16.886	910.080	685.893
207.534	16.897	909.589	685.506
208.548	16.904	909.002	685.033
209.563	16.991	908.373	684.852
210.577	17.080	907.766	684.691
211.592	17.116	907.198	684.346
212.607	17.089	906.517	683.664
213.621	16.996	905.922	682.779
214.636	16.996	905.222	682.192
215.650	17.270	903.952	682.275
216.665	17.190	903.596	681.626
217.680	17.255	903.143	681.484
218.694	17.403	902.141	681.261
219.709	17.434	901.043	680.493
220.723	17.210	900.795	679.353
221.738	17.194	900.239	678.806
222.753	17.222	899.452	678.266
223.767	17.333	899.231	678.481
224.782	17.440	898.725	678.467
225.796	17.504	898.209	678.271
226.811	17.437	897.158	677.151
227.826	17.362	896.390	676.216
228.840	17.275	895.462	675.108
229.855	17.272	894.792	674.532
230.869	17.322	894.343	674.334
231.884	17.213	893.593	673.274
232.899	17.212	892.718	672.554
233.913	17.158	891.993	671.734
234.928	17.183	891.261	671.223
235.942	17.017	891.124	670.403
236.957	16.963	890.492	669.656
237.972	17.136	889.726	669.702
238.986	17.261	889.071	669.642
240.001	17.215	888.441	668.926
241.015	17.229	888.352	668.857
242.030	17.340	887.530	668.617
243.045	17.322	886.860	667.980
244.059	17.300	886.413	667.498
245.074	17.348	885.793	667.161
246.088	17.431	885.046	666.863
247.103	17.714	884.309	667.357
248.117	17.521	884.462	666.659
249.132	17.709	883.792	666.832
250.147	17.837	883.515	667.063
251.161	17.947	882.863	666.941
252.176	18.035	882.028	666.593
253.190	18.079	881.325	666.176
254.205	18.069	880.750	665.643
255.220	17.946	880.401	664.841
256.234	18.077	879.426	664.554
257.249	17.949	878.945	663.635
258.263	17.978	878.266	663.175
259.278	18.042	877.470	662.765
260.293	17.979	877.081	662.170
261.307	18.019	876.562	661.875
262.322	18.193	875.841	661.946
263.336	18.281	875.029	661.613
264.351	18.229	874.370	660.856
265.366	18.315	873.716	660.635
266.380	18.302	873.036	660.011
267.395	18.232	872.438	659.231
268.409	18.106	871.386	657.891
269.424	17.979	870.887	656.968
270.439	18.100	870.299	656.933
271.453	18.043	869.203	655.827
272.468	17.953	869.272	655.478
273.482	18.053	868.389	655.135
274.497	17.977	868.623	654.964
275.512	18.107	867.423	654.500
276.526	17.981	867.290	653.857
277.541	18.256	866.134	653.981
278.555	18.367	865.919	654.184
279.570	18.456	865.281	653.982
280.585	18.353	864.848	653.205
281.599	18.311	863.822	652.212
282.614	18.111	863.115	650.859
283.628	18.237	862.465	650.792
284.643	18.134	862.062	650.040
285.657	18.227	861.113	649.617
286.672	18.218	860.877	649.346
287.687	18.345	860.124	649.205
288.701	18.222	859.484	648.196
289.716	18.319	859.184	648.281
290.730	18.253	858.622	647.548
291.745	18.405	857.560	647.267
292.760	18.325	857.512	646.871
293.774	18.476	856.584	646.682
294.789	18.432	855.771	645.845
295.803	18.386	855.002	645.034
296.818	18.312	854.441	644.276
297.833	18.344	853.642	643.740
298.847	18.280	853.414	643.268
299.862	18.401	852.727	643.149
300.876	18.557	852.181	643.265
301.891	18.699	851.618	643.314
302.906	18.661	851.337	642.902
303.920	18.591	851.216	642.491
304.935	18.902	850.304	642.913
305.949	18.858	849.521	642.096
306.964	18.740	848.740	641.010
307.979	18.673	848.337	640.400
308.993	18.867	847.554	640.475
310.008	18.768	847.016	639.644
311.022	18.631	846.500	638.687
312.037	18.634	845.946	638.221
313.052	18.461	845.541	637.219
314.066	18.433	845.015	636.660
315.081	18.484	844.302	636.258
316.095	18.536	843.341	635.668
317.110	18.479	843.136	635.246
318.125	18.517	842.554	634.894
319.139	18.515	842.001	634.412
320.154	18.521	841.611	634.086
321.168	18.561	841.142	633.824
322.183	18.623	840.376	633.419
323.197	18.666	840.234	633.413
324.212	18.802	839.155	633.046
325.227	18.646	838.667	632.046
326.241	18.537	838.189	631.229
327.256	18.505	837.699	630.688
328.270	18.658	836.950	630.630
329.285	18.613	836.481	630.056
330.300	18.717	835.884	629.933
331.314	18.671	835.373	629.322
332.329	18.764	835.007	629.333
333.343	18.681	834.956	628.934
334.358	18.773	834.509	628.879
335.373	18.842	833.894	628.612
336.387	18.972	833.736	628.911
337.402	18.989	833.156	628.482
338.416	18.848	833.165	627.916
339.431	19.108	832.793	628.531
340.446	19.178	832.345	628.391
341.460	19.183	831.740	627.897
342.475	19.203	831.630	627.832
343.489	19.166	831.604	627.623
344.504	19.395	830.722	627.736
345.519	19.403	830.210	627.321
346.533	19.231	829.920	626.420
347.548	19.072	829.342	625.351
348.562	18.977	828.421	624.259
349.577	18.973	827.677	623.627
350.592	18.912	827.216	623.004
351.606	19.124	826.175	622.931
352.621	19.002	825.537	621.955
353.635	19.013	825.137	621.639
354.650	19.037	824.688	621.329
355.665	19.244	823.934	621.456
356.679	19.170	823.567	620.855
357.694	19.269	822.783	620.568
358.708	19.276	822.173	620.078
359.723	19.154	821.490	619.067
360.738	19.245	820.851	618.857
361.752	19.114	820.566	618.120
362.767	19.382	819.597	618.295
363.781	19.449	819.508	618.412
364.796	19.631	819.211	618.785
365.810	19.747	818.352	618.498
366.825	19.712	818.610	618.512
367.840	19.624	817.587	617.370
368.854	19.681	816.736	616.877
369.869	19.607	816.734	616.556
370.883	19.597	816.247	616.098
371.898	19.657	816.010	616.079
372.913	19.636	815.571	615.621
373.927	19.473	815.407	614.860
374.942	19.586	814.712	614.684
375.956	19.776	814.090	614.837
376.971	19.802	813.931	614.755
377.986	19.823	813.620	614.540
379.000	19.810	813.088	614.038
380.015	19.876	812.376	613.680
381.029	19.829	811.815	613.035
382.044	19.998	811.137	613.065
383.059	19.971	810.659	612.555
384.073	19.876	809.816	611.529
385.088	19.674	809.345	610.405
386.102	19.707	808.632	609.931
387.117	19.810	807.767	609.588
388.132	19.586	807.668	608.667
389.146	19.658	807.160	608.486
390.161	19.782	806.686	608.512
391.175	19.914	806.616	608.868
392.190	19.825	805.842	607.915
393.205	19.799	805.042	607.168
394.219	19.751	804.955	606.880
395.234	19.840	804.293	606.641
396.248	19.604	803.735	605.338
397.263	19.654	803.127	605.003
398.278	19.518	803.055	604.417
399.292	19.700	802.461	604.555
400.307	19.742	801.791	604.143
401.321	19.697	801.638	603.817
402.336	19.585	801.535	603.296
403.350	19.712	801.000	603.282
404.365	19.852	800.461	603.309
405.380	19.931	800.118	603.273
406.394	20.135	799.396	603.387
407.409	20.068	799.298	603.025
408.423	20.166	798.680	602.848
409.438	20.336	798.341	603.128
410.453	20.403	798.068	603.102
411.467	20.281	797.572	602.251
412.482	20.366	797.433	602.386
413.496	20.486	796.852	602.310
414.511	20.422	796.404	601.698
415.526	20.199	796.342	600.822
416.540	20.204	795.714	600.315
417.555	20.304	795.130	600.165
418.569	20.279	795.049	599.965
419.584	20.308	794.196	599.369
420.599	20.229	794.165	599.020
421.613	162.317	1372.184	1797.147
422.628	140.737	1456.373	1797.227
