DTS Sentinel unit serial number:	SN413079Multiplexer serial number:	ORYXHardware model number:	OX4-SRSoftware version number:	ORYX F/W v4.00 Oryx Data Collector v3.7.2.0data status	okinstallation	princeton_trtdifferential loss correction	single-endedforward channel	channel 1reverse channel	N/Adate	2019/09/17time	16:58:35forward acquisition time	60.00reverse acquisition time	0.00gamma	496.2192k internal	0.2292k external	0.2292temperature offset calibration	0.9955default loss term (dB/km)	0.3790temperature slope calibration	1.0000multiplexer offset coefficient	1.0000multiplexer slope coefficient	1.0000fibre end	0.00T internal ref (°C)	42.48T ext. ref 1 (°C)	0.36T ext. ref 2 (°C)	39.06length (m)	temperature (°C)	Stokes	anti-Stokes-747.200	180.811	0.123	0.185
-746.185	13.893	-0.148	-0.118
-745.171	57.337	0.108	-0.108
-744.156	-136.639	0.045	0.005
-743.142	29.334	-0.054	-0.047
-742.127	44.500	-0.123	0.116
-741.112	46.769	0.107	-0.102
-740.098	164.814	-0.164	0.236
-739.083	17.708	-0.267	-0.217
-738.069	-200.000	0.009	-0.204
-737.054	-155.888	0.232	0.015
-736.039	800.000	-0.046	-0.195
-735.025	-200.000	-0.062	-0.321
-734.010	800.000	-0.114	-0.485
-732.996	-58.246	-0.312	-0.139
-731.981	222.754	-0.243	-0.401
-730.966	23.220	-0.103	0.087
-729.952	-8.109	-0.286	-0.197
-728.937	800.000	-0.053	0.221
-727.923	-102.308	-0.288	0.071
-726.908	-38.798	-0.297	0.160
-725.894	800.000	0.041	0.133
-724.879	-109.579	0.213	-0.046
-723.864	-96.975	0.086	-0.023
-722.850	-200.000	0.013	0.117
-721.835	-96.284	-0.409	0.111
-720.821	-25.589	0.057	0.035
-719.806	-98.978	0.319	-0.083
-718.791	31.758	0.107	-0.094
-717.777	-94.519	-0.231	-0.064
-716.762	800.000	-0.040	0.177
-715.748	-200.000	0.030	-0.206
-714.733	-86.897	-0.137	-0.043
-713.718	-2.160	0.199	-0.143
-712.704	17.136	0.052	0.042
-711.689	-14.092	-0.212	0.140
-710.675	-41.431	-0.174	0.092
-709.660	-200.000	0.025	-0.214
-708.645	-25.348	-0.228	0.138
-707.631	13.995	-0.247	0.196
-706.616	800.000	-0.024	-0.071
-705.602	-154.651	0.019	0.001
-704.587	-72.337	0.216	-0.082
-703.572	-96.629	0.423	-0.114
-702.558	-200.000	-0.026	0.149
-701.543	-186.125	0.111	-0.002
-700.529	32.119	0.064	-0.057
-699.514	193.263	-0.166	0.257
-698.499	-200.000	0.079	-0.384
-697.485	-113.603	0.066	-0.013
-696.470	0.052	-0.211	0.154
-695.456	-150.035	-0.037	0.003
-694.441	-186.355	0.334	-0.005
-693.426	-12.719	0.245	0.163
-692.412	103.654	-0.152	0.183
-691.397	-94.960	-0.345	0.095
-690.383	-19.903	0.306	-0.193
-689.368	-200.000	-0.009	-0.241
-688.354	-200.000	-0.027	0.126
-687.339	-79.493	0.100	0.034
-686.324	-200.000	0.035	-0.352
-685.310	-72.078	0.205	0.078
-684.295	17.240	-0.257	-0.208
-683.281	135.480	-0.096	0.127
-682.266	-124.323	-0.111	0.018
-681.251	-47.877	-0.287	-0.142
-680.237	-74.782	0.084	-0.031
-679.222	779.164	-0.142	0.397
-678.208	233.945	-0.166	0.279
-677.193	-87.189	0.264	-0.082
-676.178	118.398	0.054	0.069
-675.164	-200.000	-0.006	0.279
-674.149	-111.086	-0.277	0.058
-673.135	-95.984	-0.132	-0.036
-672.120	-16.834	0.277	-0.179
-671.105	72.060	-0.230	0.244
-670.091	391.591	-0.053	-0.112
-669.076	223.985	-0.175	-0.288
-668.062	-97.555	-0.348	0.092
-667.047	5.956	0.400	-0.302
-666.032	-13.586	-0.285	0.188
-665.018	-8.175	-0.310	0.213
-664.003	-200.000	0.020	-0.207
-662.989	-140.718	-0.043	0.005
-661.974	78.277	0.046	-0.050
-660.959	54.042	-0.074	0.072
-659.945	800.000	0.018	0.063
-658.930	-151.719	-0.224	-0.017
-657.916	63.485	-0.327	-0.335
-656.901	-17.225	0.177	-0.114
-655.886	314.684	0.046	-0.088
-654.872	-2.762	-0.347	-0.247
-653.857	-157.934	-0.182	0.011
-652.843	800.000	0.015	0.047
-651.828	-174.799	0.381	0.011
-650.814	-24.755	-0.185	-0.112
-649.799	-200.000	-0.014	0.191
-648.784	-97.881	0.113	0.030
-647.770	173.324	0.141	0.207
-646.755	-131.028	0.296	0.040
-645.741	800.000	-0.071	-0.212
-644.726	-166.691	0.365	0.015
-643.711	-44.831	-0.151	-0.077
-642.697	40.125	0.121	0.110
-641.682	-66.684	0.280	-0.113
-640.668	-200.000	-0.006	-0.064
-639.653	-92.856	0.368	0.105
-638.638	-21.519	-0.250	-0.155
-637.624	281.368	-0.148	0.271
-636.609	-200.000	0.035	0.266
-635.595	451.304	-0.027	-0.061
-634.580	-66.466	0.016	0.007
-633.565	-200.000	-0.009	0.101
-632.551	-8.999	0.117	0.080
-631.536	130.685	0.114	0.149
-630.522	115.177	0.056	-0.070
-629.507	800.000	-0.054	0.216
-628.492	-20.388	-0.032	0.020
-627.478	-134.774	-0.307	0.038
-626.463	-200.000	-0.018	-0.120
-625.449	-157.113	-0.339	0.021
-624.434	-200.000	-0.063	0.356
-623.419	25.957	0.081	-0.069
-622.405	-182.710	-0.130	-0.002
-621.390	88.558	-0.149	-0.169
-620.376	339.381	0.163	-0.324
-619.361	-200.000	0.015	-0.386
-618.346	97.605	-0.186	-0.218
-617.332	-145.289	-0.202	-0.019
-616.317	-200.000	-0.007	-0.068
-615.303	-128.521	0.354	-0.051
-614.288	60.739	0.148	-0.149
-613.273	4.492	0.154	-0.115
-612.259	800.000	-0.013	-0.042
-611.244	131.577	0.068	-0.089
-610.230	-59.345	-0.104	-0.046
-609.215	800.000	-0.037	-0.112
-608.201	29.928	-0.403	-0.349
-607.186	395.565	0.089	0.189
-606.171	-200.000	-0.013	-0.108
-605.157	23.334	0.239	-0.200
-604.142	-66.149	-0.049	0.020
-603.128	10.875	0.259	-0.201
-602.113	137.504	0.218	-0.290
-601.098	103.387	-0.151	-0.181
-600.084	-200.000	-0.005	-0.128
-599.069	-200.000	0.028	-0.233
-598.055	-77.566	0.301	0.106
-597.040	-200.000	-0.019	-0.331
-596.025	-200.000	0.039	0.289
-595.011	459.743	-0.045	0.102
-593.996	-200.000	0.009	-0.131
-592.982	-133.069	0.253	0.033
-591.967	-73.822	-0.209	-0.077
-590.952	115.773	0.082	-0.101
-589.938	-153.157	-0.242	-0.017
-588.923	206.742	0.122	-0.194
-587.909	434.394	-0.093	-0.205
-586.894	-146.309	-0.088	-0.008
-585.879	-38.934	-0.069	-0.037
-584.865	-121.727	0.039	0.007
-583.850	69.955	-0.033	-0.034
-582.836	-98.573	0.349	0.091
-581.821	-144.222	-0.247	0.023
-580.806	3.949	-0.426	0.317
-579.792	158.272	0.052	-0.074
-578.777	-200.000	0.011	-0.134
-577.763	-63.520	-0.233	-0.097
-576.748	43.687	-0.187	0.174
-575.733	-54.103	-0.181	0.084
-574.719	160.492	-0.071	-0.100
-573.704	-45.519	-0.329	-0.166
-572.690	-35.895	-0.293	0.161
-571.675	334.360	0.026	0.052
-570.661	-200.000	0.056	0.314
-569.646	800.000	0.073	0.281
-568.631	-172.245	-0.283	-0.009
-567.617	386.398	0.090	-0.188
-566.602	-147.225	-0.545	-0.047
-565.588	414.051	-0.090	0.195
-564.573	-3.236	0.343	0.243
-563.558	-129.982	0.102	0.014
-562.544	-173.720	-0.332	0.010
-561.529	82.811	0.037	-0.041
-560.515	15.578	0.177	0.142
-559.500	103.142	0.253	0.302
-558.485	104.174	-0.019	-0.023
-557.471	800.000	-0.093	-0.269
-556.456	-152.859	-0.363	-0.026
-555.442	800.000	0.046	0.144
-554.427	-124.886	-0.292	0.046
-553.412	-8.410	0.091	-0.062
-552.398	800.000	0.062	-0.254
-551.383	-158.168	0.099	0.006
-550.369	-152.700	-0.256	0.019
-549.354	-200.000	0.035	0.334
-548.339	-99.373	0.239	-0.061
-547.325	93.739	0.123	-0.142
-546.310	-200.000	0.002	-0.033
-545.296	-159.653	0.296	-0.017
-544.281	-197.575	0.240	-0.002
-543.266	-200.000	-0.017	-0.145
-542.252	-200.000	0.032	-0.276
-541.237	800.000	-0.125	0.392
-540.223	-123.947	-0.174	-0.028
-539.208	358.735	0.071	-0.144
-538.193	-108.729	0.129	0.028
-537.179	139.688	-0.207	0.277
-536.164	-0.643	-0.225	0.162
-535.150	-150.757	0.186	0.014
-534.135	148.772	-0.053	-0.072
-533.121	-3.186	-0.177	0.125
-532.106	-146.689	0.211	-0.019
-531.091	14.120	-0.249	-0.197
-530.077	31.207	0.139	-0.121
-529.062	-151.654	0.264	-0.020
-528.048	-135.544	0.151	-0.018
-527.033	-200.000	-0.037	0.239
-526.018	159.619	0.248	0.350
-525.004	-200.000	-0.039	0.288
-523.989	800.000	-0.045	0.152
-522.975	-200.000	-0.030	-0.182
-521.960	793.460	-0.046	-0.129
-520.945	-31.414	-0.249	-0.142
-519.931	83.715	-0.040	-0.044
-518.916	-133.527	0.312	-0.040
-517.902	-200.000	-0.009	0.271
-516.887	-59.014	-0.037	-0.016
-515.872	43.891	0.226	0.210
-514.858	-200.000	0.031	-0.205
-513.843	378.521	0.170	-0.354
-512.829	-87.242	-0.187	0.058
-511.814	-12.816	0.139	0.092
-510.799	131.793	0.065	0.085
-509.785	-200.000	0.079	0.390
-508.770	170.988	0.052	0.076
-507.756	-64.210	-0.092	-0.038
-506.741	-33.985	-0.190	0.106
-505.726	800.000	-0.017	0.056
-504.712	-200.000	0.013	-0.217
-503.697	-200.000	0.012	-0.201
-502.683	16.298	-0.200	0.160
-501.668	-200.000	-0.024	-0.140
-500.653	77.676	-0.105	0.114
-499.639	-133.337	-0.154	0.020
-498.624	48.612	0.155	0.147
-497.610	4.694	0.347	0.259
-496.595	119.011	0.244	0.306
-495.581	-113.403	-0.127	0.025
-494.566	-200.000	-0.013	-0.237
-493.551	-200.000	-0.007	-0.264
-492.537	242.974	0.180	0.306
-491.522	9.313	0.314	0.240
-490.508	-200.000	-0.008	0.125
-489.493	59.630	-0.054	-0.054
-488.478	800.000	-0.053	0.197
-487.464	214.914	0.076	-0.122
-486.449	-13.914	-0.186	-0.122
-485.435	-164.219	-0.156	-0.007
-484.420	392.701	0.019	0.039
-483.405	-174.534	0.137	0.004
-482.391	-96.443	0.223	0.060
-481.376	57.777	-0.286	0.284
-480.362	26.170	0.191	-0.162
-479.347	-55.882	0.036	0.016
-478.332	-166.876	-0.092	0.004
-477.318	-39.058	0.260	0.138
-476.303	431.194	-0.072	0.158
-475.289	43.188	0.241	-0.223
-474.274	-200.000	-0.004	-0.217
-473.259	-110.643	-0.465	-0.097
-472.245	-132.139	0.211	-0.028
-471.230	800.000	-0.027	0.087
-470.216	4.872	-0.121	0.090
-469.201	-119.109	0.130	0.023
-468.186	53.613	0.192	-0.186
-467.172	-200.000	0.009	-0.176
-466.157	800.000	0.029	0.100
-465.143	-42.600	-0.272	-0.140
-464.128	39.644	-0.136	0.123
-463.113	800.000	-0.041	-0.176
-462.099	80.027	-0.411	-0.448
-461.084	-69.288	-0.317	-0.123
-460.070	-67.587	0.226	-0.090
-459.055	412.781	-0.011	-0.024
-458.040	-185.576	-0.224	-0.003
-457.026	347.102	-0.129	-0.256
-456.011	-105.349	-0.119	-0.027
-454.997	-42.676	0.231	-0.119
-453.982	-200.000	0.014	-0.144
-452.968	-151.848	-0.212	-0.016
-451.953	-200.000	-0.021	0.463
-450.938	-65.730	0.111	0.045
-449.924	294.283	-0.072	0.134
-448.909	208.156	0.040	0.063
-447.895	-124.315	-0.201	-0.032
-446.880	-161.967	-0.343	-0.018
-445.865	197.132	0.057	-0.088
-444.851	-200.000	0.032	-0.154
-443.836	82.803	0.271	0.298
-442.822	-199.961	0.025	0.000
-441.807	81.265	-0.063	0.069
-440.792	-200.000	0.033	-0.307
-439.778	-163.961	0.224	-0.011
-438.763	-5.108	-0.353	-0.246
-437.749	49.133	-0.293	-0.278
-436.734	469.880	0.042	0.095
-435.719	800.000	-0.067	-0.287
-434.705	-34.669	-0.087	0.048
-433.690	184.120	-0.268	-0.401
-432.676	-7.097	0.064	0.044
-431.661	60.896	0.054	0.054
-430.646	412.742	0.093	0.200
-429.632	-86.103	0.210	-0.065
-428.617	-65.101	0.190	-0.077
-427.603	103.888	0.065	-0.077
-426.588	-58.520	0.234	0.103
-425.573	27.519	0.172	0.147
-424.559	-124.769	-0.203	0.032
-423.544	800.000	0.069	0.248
-422.530	503.647	0.080	-0.188
-421.515	69.242	0.150	0.156
-420.500	316.119	-0.040	0.076
-419.486	-95.223	0.096	0.026
-418.471	192.249	0.109	-0.167
-417.457	-200.000	-0.051	0.255
-416.442	382.661	-0.188	0.390
-415.428	-174.303	0.295	-0.009
-414.413	29.779	-0.251	-0.216
-413.398	107.494	-0.281	-0.338
-412.384	800.000	-0.062	0.200
-411.369	557.276	0.083	-0.202
-410.355	-52.488	0.341	0.159
-409.340	-88.401	-0.245	-0.074
-408.325	-117.867	-0.277	0.050
-407.311	-150.068	0.371	-0.029
-406.296	75.303	-0.187	0.199
-405.282	-9.055	0.206	0.139
-404.267	488.511	0.068	-0.157
-403.252	-200.000	-0.018	-0.393
-402.238	211.436	0.062	0.098
-401.223	-183.655	0.384	0.007
-400.209	800.000	-0.058	-0.180
-399.194	-200.000	-0.013	-0.320
-398.179	-4.456	-0.240	0.168
-397.165	-18.001	-0.207	0.131
-396.150	-200.000	0.032	0.263
-395.136	-91.105	0.165	0.048
-394.121	367.708	0.063	-0.128
-393.106	800.000	0.069	-0.284
-392.092	-200.000	-0.254	0.001
-391.077	97.227	0.266	0.308
-390.063	28.807	-0.196	-0.167
-389.048	203.377	0.196	0.305
-388.033	-67.912	-0.326	0.129
-387.019	-200.000	-0.025	0.113
-386.004	-121.145	-0.218	-0.037
-384.990	-200.000	0.007	0.116
-383.975	-186.464	0.094	-0.001
-382.960	38.535	0.265	0.239
-381.946	-200.000	0.053	0.491
-380.931	174.388	-0.080	0.116
-379.917	448.356	0.120	0.267
-378.902	-111.379	-0.286	-0.059
-377.888	200.342	-0.136	0.210
-376.873	-65.470	0.080	-0.033
-375.858	124.781	-0.100	0.127
-374.844	148.708	-0.096	0.131
-373.829	-124.953	0.128	0.020
-372.815	317.994	-0.315	-0.601
-371.800	-200.000	-0.003	-0.180
-370.785	64.881	-0.110	0.112
-369.771	544.828	-0.056	0.134
-368.756	-1.352	-0.134	0.096
-367.742	-88.578	0.151	0.045
-366.727	-107.344	-0.084	0.019
-365.712	-200.000	0.002	0.294
-364.698	-116.899	-0.311	0.057
-363.683	3.131	0.163	-0.119
-362.669	42.762	-0.154	0.141
-361.654	800.000	0.082	0.260
-360.639	-26.213	0.138	0.082
-359.625	-122.333	-0.168	-0.028
-358.610	-137.289	-0.136	-0.016
-357.596	-145.905	-0.137	0.012
-356.581	4.701	0.062	0.046
-355.566	-200.000	0.014	-0.105
-354.552	283.514	-0.318	-0.576
-353.537	-34.954	-0.332	-0.183
-352.523	-189.443	-0.242	-0.003
-351.508	-200.000	0.016	-0.138
-350.493	-78.842	0.130	-0.045
-349.479	-19.902	-0.112	0.070
-348.464	784.538	0.087	-0.240
-347.450	-32.306	0.362	-0.204
-346.435	190.549	-0.091	-0.138
-345.420	-200.000	0.053	0.255
-344.406	800.000	-0.111	0.351
-343.391	-136.643	0.273	-0.032
-342.377	800.000	0.032	-0.119
-341.362	-200.000	-0.052	-0.282
-340.348	-200.000	-0.032	-0.258
-339.333	-148.837	0.068	-0.006
-338.318	311.730	0.046	-0.087
-337.304	-151.851	0.271	0.020
-336.289	-104.869	0.096	0.022
-335.275	-170.890	0.275	0.009
-334.260	-140.092	-0.124	0.013
-333.245	-35.392	0.253	-0.138
-332.231	233.855	0.114	0.190
-331.216	-200.000	-0.012	0.118
-330.202	-200.000	0.001	0.103
-329.187	41.960	-0.066	0.060
-328.172	-178.088	0.194	-0.005
-327.158	22.164	-0.104	-0.086
-326.143	-144.243	0.273	0.026
-325.129	38.757	-0.390	-0.351
-324.114	192.565	0.068	0.104
-323.099	-88.070	0.275	-0.083
-322.085	407.453	-0.113	-0.241
-321.070	-9.128	-0.414	-0.279
-320.056	-115.823	0.358	0.067
-319.041	-58.950	-0.410	-0.178
-318.026	5.487	-0.089	0.066
-317.012	85.094	0.076	0.084
-315.997	-81.231	-0.088	0.029
-314.983	-79.482	-0.154	0.052
-313.968	11.046	-0.151	-0.116
-312.953	800.000	-0.142	-0.410
-311.939	-178.255	-0.478	-0.011
-310.924	627.888	0.065	-0.165
-309.910	-36.638	0.230	0.124
-308.895	-46.200	0.247	0.122
-307.880	-200.000	0.024	0.143
-306.866	-200.000	-0.004	0.141
-305.851	101.941	-0.129	-0.151
-304.837	439.861	0.051	0.111
-303.822	-125.415	0.127	-0.019
-302.807	-75.877	0.118	-0.042
-301.793	162.579	-0.194	-0.273
-300.778	-200.000	0.010	0.155
-299.764	-170.110	0.377	0.013
-298.749	-150.211	0.115	-0.009
-297.735	65.373	0.238	0.242
-296.720	-200.000	0.023	0.122
-295.705	-200.000	0.037	0.218
-294.691	197.573	-0.136	-0.209
-293.676	-200.000	0.001	-0.015
-292.662	-200.000	0.009	-0.081
-291.647	-97.886	-0.276	0.072
-290.632	-200.000	0.000	-0.156
-289.618	744.905	0.080	0.216
-288.603	98.900	-0.089	-0.104
-287.589	133.834	0.117	-0.153
-286.574	-200.000	-0.025	0.232
-285.559	385.081	-0.137	0.285
-284.545	-124.147	-0.425	-0.067
-283.530	-124.528	-0.372	0.058
-282.516	341.842	-0.165	-0.325
-281.501	-200.000	-0.015	-0.104
-280.486	187.956	0.140	0.210
-279.472	-8.791	-0.094	0.064
-278.457	-171.472	0.212	0.007
-277.443	-101.265	0.193	0.047
-276.428	-73.145	0.162	-0.060
-275.413	-150.423	0.133	-0.010
-274.399	-200.000	-0.023	-0.277
-273.384	16.023	0.144	0.114
-272.370	-22.383	-0.253	0.154
-271.355	-110.167	0.124	0.026
-270.340	-37.969	-0.532	-0.284
-269.326	-200.000	0.013	0.173
-268.311	-200.000	-0.004	0.383
-267.297	-64.905	-0.373	-0.152
-266.282	-111.314	-0.064	0.013
-265.267	-200.000	0.018	0.274
-264.253	-54.056	0.260	-0.119
-263.238	-32.335	-0.173	0.097
-262.224	-75.524	-0.186	0.066
-261.209	-142.305	0.362	0.036
-260.195	103.645	-0.154	0.182
-259.180	-189.603	0.139	0.002
-258.165	-200.000	0.027	0.283
-257.151	-191.726	0.137	-0.001
-256.136	440.812	0.081	0.179
-255.122	-157.774	0.077	0.005
-254.107	-60.532	0.276	0.118
-253.092	-176.612	-0.174	-0.004
-252.078	-200.000	0.058	-0.258
-251.063	800.000	0.027	-0.106
-250.049	92.564	0.203	-0.230
-249.034	182.110	-0.132	-0.195
-248.019	-51.736	0.405	-0.190
-247.005	40.965	0.141	0.127
-245.990	-40.816	0.270	-0.141
-244.976	-18.897	-0.154	0.096
-243.961	-90.010	0.528	0.155
-242.946	-200.000	0.047	-0.520
-241.932	1.515	0.023	-0.017
-240.917	-82.777	-0.317	0.103
-239.903	181.221	0.091	0.135
-238.888	38.745	0.143	-0.128
-237.873	800.000	0.055	-0.201
-236.859	-130.999	-0.332	-0.045
-235.844	-40.833	-0.157	-0.082
-234.830	800.000	0.049	-0.140
-233.815	-200.000	-0.013	0.316
-232.800	-113.977	0.197	-0.038
-231.786	296.867	-0.107	-0.198
-230.771	-69.164	0.153	0.059
-229.757	-30.597	-0.139	-0.079
-228.742	800.000	-0.090	0.277
-227.727	-62.041	0.204	-0.086
-226.713	-73.924	0.287	-0.105
-225.698	-61.350	0.335	0.142
-224.684	-200.000	0.006	-0.147
-223.669	-200.000	-0.002	0.287
-222.655	-138.777	-0.038	0.004
-221.640	-74.663	0.215	-0.077
-220.625	-152.543	0.355	0.025
-219.611	77.295	-0.315	0.335
-218.596	19.994	-0.127	0.102
-217.582	14.610	-0.149	-0.117
-216.567	-128.290	-0.335	-0.048
-215.552	26.039	0.060	0.050
-214.538	-50.936	-0.221	0.104
-213.523	-22.719	0.067	-0.041
-212.509	62.449	0.127	0.127
-211.494	51.359	0.026	-0.025
-210.479	-49.894	0.245	0.117
-209.465	145.985	0.184	0.248
-208.450	165.539	-0.077	0.109
-207.436	800.000	-0.080	0.246
-206.421	614.489	-0.062	-0.156
-205.406	-84.166	-0.102	-0.032
-204.392	264.477	0.146	0.254
-203.377	-46.278	0.298	0.147
-202.363	-200.000	0.034	-0.344
-201.348	-52.968	-0.207	0.095
-200.333	345.601	0.030	-0.059
-199.319	-4.393	-0.164	0.114
-198.304	307.008	-0.106	0.198
-197.290	77.187	0.080	0.086
-196.275	-166.429	-0.261	0.011
-195.260	-118.776	0.220	0.039
-194.246	290.461	0.152	0.277
-193.231	800.000	0.057	0.211
-192.217	800.000	-0.039	-0.158
-191.202	-200.000	-0.016	-0.170
-190.187	253.062	0.269	0.459
-189.173	-20.896	-0.406	-0.249
-188.158	-200.000	-0.004	-0.182
-187.144	394.863	0.098	-0.204
-186.129	617.391	0.087	-0.218
-185.114	48.867	0.155	0.145
-184.100	42.538	0.065	0.059
-183.085	-154.405	0.029	-0.002
-182.071	-4.657	-0.057	-0.039
-181.056	-40.713	0.209	0.108
-180.042	-101.753	0.186	0.045
-179.027	-123.551	-0.254	0.040
-178.012	17.032	0.084	0.067
-176.998	-200.000	-0.066	-0.342
-175.983	800.000	-0.053	-0.167
-174.969	-68.669	-0.195	-0.076
-173.954	-164.281	-0.368	-0.017
-172.939	800.000	-0.106	0.439
-171.925	-119.257	-0.184	-0.032
-170.910	53.801	0.176	0.169
-169.896	800.000	0.054	0.212
-168.881	-200.000	0.080	-0.366
-167.866	127.130	0.318	-0.403
-166.852	30.718	-0.120	-0.103
-165.837	244.888	-0.058	-0.097
-164.823	-148.003	0.129	-0.011
-163.808	-12.863	0.166	0.108
-162.793	-125.118	0.326	-0.050
-161.779	124.264	-0.084	-0.106
-160.764	800.000	0.067	0.212
-159.750	-104.289	-0.228	-0.053
-158.735	137.179	0.098	-0.128
-157.720	-34.914	-0.164	0.089
-156.706	-200.000	-0.008	0.127
-155.691	-176.255	-0.086	-0.002
-154.677	766.043	0.128	-0.347
-153.662	800.000	0.050	-0.141
-152.647	464.237	0.107	0.238
-151.633	-126.198	-0.075	-0.011
-150.618	800.000	-0.035	-0.113
-149.604	800.000	0.133	-0.413
-148.589	-200.000	-0.091	0.549
-147.574	800.000	0.071	0.250
-146.560	-100.279	-0.102	-0.025
-145.545	-76.738	0.046	-0.016
-144.531	368.319	-0.142	0.288
-143.516	218.510	0.086	0.138
-142.502	-200.000	0.003	0.451
-141.487	763.225	0.024	-0.065
-140.472	800.000	0.032	-0.128
-139.458	-125.773	-0.073	0.011
-138.443	33.875	0.107	-0.093
-137.429	23.173	0.150	0.123
-136.414	234.170	0.151	0.249
-135.399	-75.335	0.135	-0.048
-134.385	-104.922	-0.045	0.010
-133.370	-119.163	0.171	-0.030
-132.356	-104.221	0.096	0.022
-131.341	-200.000	-0.035	-0.163
-130.326	-200.000	-0.012	0.078
-129.312	132.086	0.150	0.193
-128.297	-97.187	-0.146	0.038
-127.283	133.510	0.173	-0.224
-126.268	-200.000	0.064	0.301
-125.253	313.432	0.075	-0.141
-124.239	-200.000	0.054	-0.467
-123.224	443.271	-0.115	-0.251
-122.210	-114.125	0.107	0.021
-121.195	800.000	-0.106	0.314
-120.180	-43.792	0.342	-0.172
-119.166	-119.462	-0.347	0.060
-118.151	800.000	0.055	-0.180
-117.137	-44.379	0.407	-0.204
-116.122	-60.359	0.221	0.094
-115.107	-106.097	0.070	-0.016
-114.093	342.318	-0.182	0.356
-113.078	492.013	-0.106	-0.243
-112.064	-200.000	0.019	-0.147
-111.049	-118.097	-0.276	-0.049
-110.034	-189.828	0.260	0.003
-109.020	-114.508	-0.303	0.058
-108.005	-144.476	0.184	0.017
-106.991	109.602	0.151	-0.181
-105.976	446.875	0.035	-0.076
-104.962	-3.039	0.078	-0.054
-103.947	170.990	0.132	-0.189
-102.932	266.230	0.089	0.156
-101.918	-200.000	-0.036	-0.214
-100.903	-200.000	-0.002	0.170
-99.889	584.578	0.063	0.155
-98.874	132.804	-0.153	0.197
-97.859	-200.000	-0.018	0.505
-96.845	800.000	0.076	0.317
-95.830	-130.717	0.109	0.015
-94.816	-200.000	-0.035	-0.334
-93.801	-200.000	-0.009	-0.210
-92.786	-65.782	0.322	0.129
-91.772	800.000	-0.054	-0.165
-90.757	462.685	0.092	0.204
-89.743	110.076	0.188	0.225
-88.728	800.000	-0.079	-0.296
-87.713	-74.454	-0.100	0.036
-86.699	-180.614	0.240	-0.005
-85.684	-200.000	-0.010	-0.177
-84.670	800.000	0.047	0.205
-83.655	206.952	-0.127	-0.197
-82.640	82.786	0.207	0.224
-81.626	-200.000	0.026	0.265
-80.611	-72.568	-0.169	0.062
-79.597	113.096	-0.152	-0.183
-78.582	-200.000	-0.068	-0.409
-77.567	687.543	-0.024	0.062
-76.553	83.162	0.094	0.102
-75.538	800.000	-0.072	0.231
-74.524	-134.767	0.228	-0.028
-73.509	-21.054	-0.226	-0.138
-72.494	251.676	0.042	0.071
-71.480	740.392	0.014	0.037
-70.465	-200.000	0.035	-0.167
-69.451	-200.000	0.048	-0.376
-68.436	-141.249	0.194	0.020
-67.422	270.487	-0.109	0.191
-66.407	-97.164	-0.221	0.058
-65.392	-174.710	0.498	0.014
-64.378	-156.801	-0.239	0.015
-63.363	-200.000	-0.018	0.332
-62.349	-61.081	-0.302	-0.127
-61.334	63.986	-0.556	-0.558
-60.319	-176.070	0.114	-0.003
-59.305	-200.000	-0.013	-1.055
-58.290	-200.000	0.235	1.052
-57.276	800.000	0.496	1.756
-56.261	-200.000	75.179	557.776
-55.246	521.583	1355.065	3168.259
-54.232	135.340	2607.954	3378.664
-53.217	119.449	2263.769	2791.936
-52.203	55.401	1688.119	1627.245
-51.188	46.523	1403.198	1296.982
-50.173	42.654	1355.351	1229.110
-49.159	60.967	1389.150	1373.011
-48.144	69.183	1407.676	1441.750
-47.130	47.070	1369.994	1269.456
-46.115	42.636	1354.266	1227.824
-45.100	42.468	1349.486	1222.415
-44.086	42.363	1347.082	1219.552
-43.071	42.259	1344.470	1216.509
-42.057	42.241	1342.503	1214.572
-41.042	42.235	1340.598	1212.762
-40.027	42.230	1339.003	1211.239
-39.013	42.393	1336.887	1210.261
-37.998	42.413	1334.873	1208.513
-36.984	42.415	1333.214	1206.976
-35.969	42.653	1331.006	1206.356
-34.954	42.538	1329.651	1204.392
-33.940	42.535	1328.282	1203.087
-32.925	42.562	1326.897	1201.943
-31.911	42.597	1325.532	1200.869
-30.896	42.647	1323.447	1199.232
-29.881	42.590	1322.493	1197.979
-28.867	42.654	1320.791	1196.770
-27.852	42.656	1318.679	1194.822
-26.838	42.724	1316.764	1193.440
-25.823	42.617	1316.253	1192.298
-24.809	42.527	1314.906	1190.498
-23.794	42.567	1313.267	1189.201
-22.779	42.533	1312.086	1187.883
-21.765	42.438	1310.949	1186.249
-20.750	42.649	1309.241	1185.900
-19.736	42.468	1308.042	1183.699
-18.721	42.365	1307.330	1182.400
-17.706	42.479	1305.956	1181.784
-16.692	42.445	1304.779	1180.470
-15.677	42.404	1303.308	1178.852
-14.663	42.464	1302.248	1178.195
-13.648	42.365	1301.012	1176.452
-12.633	42.410	1299.749	1175.528
-11.619	42.407	1298.835	1174.636
-10.604	42.416	1297.772	1173.684
-9.590	42.371	1297.016	1172.690
-8.575	42.286	1296.165	1171.375
-7.560	42.366	1295.052	1170.789
-6.546	42.349	1294.273	1169.939
-5.531	42.413	1292.925	1169.047
-4.517	42.386	1292.519	1168.480
-3.502	42.495	1291.377	1168.031
-2.487	42.410	1290.631	1166.819
-1.473	42.558	1287.470	1164.774
-0.458	41.835	1272.444	1146.988
0.556	36.312	1252.662	1104.420
1.571	31.129	1255.024	1076.591
2.586	28.598	1268.396	1073.185
3.600	26.648	1256.028	1051.320
4.615	18.985	1177.930	943.978
5.629	6.963	1092.415	813.824
6.644	0.805	1067.886	764.426
7.659	0.279	1065.029	759.661
8.673	0.153	1063.906	758.161
9.688	0.195	1062.127	757.039
10.702	0.388	1061.107	757.211
11.717	5.990	1069.323	791.295
12.731	15.233	1081.304	847.005
13.746	18.294	1083.274	863.943
14.761	17.299	1081.664	857.565
15.775	16.108	1079.534	849.802
16.790	15.110	1077.649	843.221
17.804	14.289	1076.016	837.742
18.819	14.176	1074.734	836.099
19.834	13.718	1073.730	832.943
20.848	13.476	1072.497	830.699
21.863	13.391	1071.554	829.470
22.877	13.054	1071.345	827.549
23.892	13.103	1070.185	826.821
24.907	13.088	1069.670	826.275
25.921	13.027	1069.321	825.628
26.936	13.111	1068.531	825.367
27.950	13.225	1066.732	824.472
28.965	13.228	1065.911	823.782
29.980	13.392	1064.496	823.429
30.994	13.168	1063.690	821.620
32.009	13.348	1062.506	821.524
33.023	13.304	1061.500	820.457
34.038	13.381	1060.735	820.172
35.053	13.276	1059.869	818.913
36.067	13.273	1059.090	818.223
37.082	13.205	1058.218	817.141
38.096	13.390	1057.269	817.249
39.111	13.302	1056.882	816.445
40.126	13.244	1055.460	814.986
41.140	13.100	1054.325	813.328
42.155	13.092	1053.309	812.432
43.169	13.173	1051.844	811.631
44.184	13.048	1051.090	810.365
45.199	13.032	1050.256	809.572
46.213	13.123	1049.052	809.018
47.228	13.215	1047.941	808.537
48.242	13.224	1046.583	807.461
49.257	13.131	1045.951	806.448
50.271	13.198	1045.056	806.016
51.286	13.146	1044.424	805.205
52.301	13.189	1043.525	804.648
53.315	13.245	1042.021	803.689
54.330	13.020	1041.549	802.163
55.344	13.079	1040.718	801.738
56.359	13.230	1039.485	801.449
57.374	13.222	1038.533	800.603
58.388	13.016	1037.968	799.101
59.403	13.044	1037.031	798.444
60.417	13.009	1036.526	797.816
61.432	13.073	1035.356	797.153
62.447	13.099	1034.170	796.295
63.461	13.007	1033.935	795.601
64.476	12.917	1032.977	794.360
65.490	12.885	1032.266	793.589
66.505	13.029	1031.464	793.594
67.520	13.173	1030.870	793.760
68.534	12.981	1030.040	792.127
69.549	12.996	1029.156	791.450
70.563	13.101	1028.071	791.050
71.578	12.963	1027.783	790.096
72.593	13.011	1027.132	789.754
73.607	13.024	1026.151	788.994
74.622	13.086	1025.456	788.684
75.636	12.945	1025.063	787.638
76.651	12.828	1023.930	786.141
77.666	12.912	1023.777	786.356
78.680	12.886	1023.337	785.823
79.695	13.083	1022.166	785.793
80.709	13.128	1021.113	785.125
81.724	13.151	1020.977	785.064
82.739	13.116	1020.333	784.330
83.753	13.158	1019.144	783.545
84.768	13.208	1018.414	783.153
85.782	13.199	1017.617	782.430
86.797	13.241	1016.341	781.575
87.812	13.126	1015.938	780.655
88.826	13.143	1014.740	779.745
89.841	13.316	1013.480	779.522
90.855	13.299	1012.715	778.785
91.870	13.305	1011.783	778.028
92.884	13.249	1011.193	777.243
93.899	13.291	1010.155	776.571
94.914	13.346	1009.313	776.114
95.928	13.378	1008.969	775.931
96.943	13.240	1007.966	774.445
97.957	13.360	1006.740	773.998
98.972	13.259	1006.142	772.996
99.987	13.214	1005.319	772.085
101.001	13.359	1004.238	771.862
102.016	13.315	1003.351	770.909
103.030	13.273	1002.546	770.026
104.045	13.299	1001.857	769.552
105.060	13.195	1000.771	768.164
106.074	13.215	999.850	767.481
107.089	13.125	999.009	766.351
108.103	13.283	997.974	766.220
109.118	13.127	997.072	764.739
110.133	13.136	996.425	764.216
111.147	13.056	995.571	763.124
112.162	13.309	994.006	763.024
113.176	13.332	993.792	762.898
114.191	13.196	992.895	761.517
115.206	13.295	992.239	761.402
116.220	13.198	991.396	760.242
117.235	13.171	990.433	759.310
118.249	13.165	989.633	758.601
119.264	13.286	988.751	758.416
120.279	13.270	988.145	757.808
121.293	13.100	987.345	756.351
122.308	13.227	986.629	756.318
123.322	13.099	985.307	754.650
124.337	13.034	984.256	753.481
125.352	13.146	983.471	753.324
126.366	13.145	982.122	752.223
127.381	13.298	981.259	752.188
128.395	13.257	980.167	751.099
129.410	13.275	979.431	750.551
130.424	13.269	978.492	749.739
131.439	13.285	977.909	749.298
132.454	13.351	976.937	748.787
133.468	13.400	975.969	748.198
134.483	13.221	975.519	746.979
135.497	13.342	974.524	746.697
136.512	13.359	973.554	745.962
137.527	13.292	973.384	745.467
138.541	13.371	972.043	744.727
139.556	13.411	971.720	744.594
140.570	13.455	970.772	743.998
141.585	13.485	970.123	743.570
142.600	13.546	968.927	742.865
143.614	13.482	968.151	741.917
144.629	13.373	967.430	740.810
145.643	13.450	966.928	740.703
146.658	13.382	965.383	739.153
147.673	13.480	964.295	738.691
148.687	13.318	963.648	737.409
149.702	13.340	962.913	736.876
150.716	13.424	961.991	736.481
151.731	13.330	961.420	735.559
152.746	13.313	960.668	734.843
153.760	13.550	959.813	735.179
154.775	13.443	959.337	734.274
155.789	13.381	959.059	733.721
156.804	13.592	957.961	733.749
157.819	13.507	957.916	733.276
158.833	13.564	957.141	732.870
159.848	13.506	955.887	731.585
160.862	13.497	955.102	730.880
161.877	13.537	954.105	730.231
162.892	13.473	953.166	729.167
163.906	13.330	952.305	727.811
164.921	13.476	951.577	727.832
165.935	13.395	950.573	726.645
166.950	13.527	949.445	726.298
167.964	13.494	948.947	725.706
168.979	13.577	947.779	725.112
169.994	13.428	947.321	724.048
171.008	13.545	946.450	723.831
172.023	13.528	945.586	723.032
173.037	13.763	944.916	723.480
174.052	13.700	944.067	722.489
175.067	13.635	943.377	721.615
176.081	13.524	942.840	720.658
177.096	13.618	942.060	720.405
178.110	13.563	941.614	719.762
179.125	13.525	941.333	719.320
180.140	13.579	940.798	719.080
181.154	13.607	940.073	718.583
182.169	13.645	940.041	718.663
183.183	13.816	939.257	718.741
184.198	13.797	938.264	717.833
185.213	13.783	937.248	716.933
186.227	13.800	937.311	716.991
187.242	13.778	936.542	716.241
188.256	13.959	935.757	716.359
189.271	13.803	935.055	715.089
190.286	13.733	934.043	713.948
191.300	13.656	933.299	712.985
192.315	13.674	932.678	712.524
193.329	13.710	932.053	712.140
194.344	13.693	931.660	711.704
195.359	13.620	931.371	711.107
196.373	13.788	930.263	710.920
197.388	13.930	929.920	711.200
198.402	13.926	929.405	710.725
199.417	14.017	928.597	710.434
200.432	14.009	928.273	710.089
201.446	14.051	927.363	709.512
202.461	14.018	927.216	709.193
203.475	14.018	926.795	708.809
204.490	14.151	925.406	708.253
205.504	14.038	924.919	707.335
206.519	14.067	924.158	706.814
207.534	14.066	923.515	706.257
208.548	13.970	922.878	705.298
209.563	13.951	922.382	704.775
210.577	14.055	921.483	704.466
211.592	14.156	920.949	704.427
212.607	14.270	919.901	704.043
213.621	14.127	919.329	702.939
214.636	14.096	919.012	702.501
215.650	14.084	917.949	701.578
216.665	14.287	917.218	701.812
217.680	14.280	916.517	701.185
218.694	14.269	916.056	700.723
219.709	14.278	915.204	700.047
220.723	14.245	914.955	699.658
221.738	14.237	914.420	699.154
222.753	14.424	913.038	698.816
223.767	14.400	912.606	698.323
224.782	14.384	912.340	697.993
225.796	14.477	911.598	697.753
226.811	14.328	911.000	696.607
227.826	14.350	910.323	696.122
228.840	14.305	909.664	695.369
229.855	14.490	908.208	694.966
230.869	14.378	907.817	694.137
231.884	14.401	907.552	693.971
232.899	14.350	906.660	693.014
233.913	14.447	905.617	692.560
234.928	14.398	904.894	691.740
235.942	14.455	904.490	691.610
236.957	14.255	904.341	690.604
237.972	14.421	903.295	690.432
238.986	14.385	902.926	689.936
240.001	14.335	902.304	689.193
241.015	14.422	901.495	688.874
242.030	14.431	900.787	688.313
243.045	14.347	900.421	687.625
244.059	14.464	899.756	687.538
245.074	14.506	899.082	687.136
246.088	14.528	898.299	686.565
247.103	14.631	897.730	686.496
248.117	14.627	897.047	685.895
249.132	14.746	896.381	685.813
250.147	14.761	896.172	685.654
251.161	14.815	895.364	685.199
252.176	14.779	894.672	684.459
253.190	14.851	894.021	684.197
254.205	14.781	893.561	683.496
255.220	15.011	892.613	683.649
256.234	14.911	892.150	682.828
257.249	14.759	891.613	681.735
258.263	14.968	890.634	681.779
259.278	14.926	890.041	681.095
260.293	14.899	889.638	680.613
261.307	15.081	888.677	680.559
262.322	15.213	887.895	680.437
263.336	14.990	887.364	679.064
264.351	15.134	886.644	679.039
265.366	15.125	886.190	678.591
266.380	15.143	885.481	678.064
267.395	15.193	884.805	677.688
268.409	15.087	884.242	676.769
269.424	14.999	883.457	675.751
270.439	15.094	882.616	675.431
271.453	15.237	881.686	675.237
272.468	15.086	881.577	674.484
273.482	14.963	881.461	673.840
274.497	15.189	880.400	673.877
275.512	15.216	880.109	673.706
276.526	15.134	879.663	672.977
277.541	15.183	878.900	672.530
278.555	15.213	878.317	672.144
279.570	15.159	877.826	671.493
280.585	15.196	876.916	670.886
281.599	15.296	875.805	670.373
282.614	15.355	875.334	670.192
283.628	15.280	874.726	669.366
284.643	15.422	873.938	669.272
285.657	15.222	873.689	668.223
286.672	15.383	873.063	668.328
287.687	15.372	871.949	667.373
288.701	15.325	871.886	667.076
289.716	15.346	871.620	666.898
290.730	15.356	870.515	666.034
291.745	15.434	869.837	665.764
292.760	15.421	869.446	665.353
293.774	15.545	868.863	665.343
294.789	15.497	868.126	664.530
295.803	15.330	867.311	663.184
296.818	15.401	866.532	662.812
297.833	15.500	866.021	662.754
298.847	15.585	865.199	662.401
299.862	15.633	864.713	662.157
300.876	15.530	864.438	661.482
301.891	15.537	863.916	661.054
302.906	15.590	863.328	660.753
303.920	15.771	862.250	660.580
304.935	15.697	862.115	660.128
305.949	15.717	861.439	659.629
306.964	15.663	860.762	658.844
307.979	15.757	860.210	658.728
308.993	15.720	860.003	658.368
310.008	15.832	858.855	657.869
311.022	15.846	858.338	657.469
312.037	15.703	857.793	656.435
313.052	15.615	857.481	655.795
314.066	15.733	856.812	655.684
315.081	15.725	855.951	654.938
316.095	15.613	855.917	654.418
317.110	15.786	854.785	654.166
318.125	15.772	854.551	653.876
319.139	15.736	854.202	653.410
320.154	15.769	853.605	653.025
321.168	15.778	852.877	652.444
322.183	15.858	852.870	652.690
323.197	15.747	852.376	651.824
324.212	15.896	851.586	651.740
325.227	15.885	850.806	651.043
326.241	15.894	850.364	650.681
327.256	15.785	849.776	649.753
328.270	15.859	849.575	649.829
329.285	15.894	848.878	649.371
330.300	15.894	847.896	648.563
331.314	15.901	847.683	648.370
332.329	15.888	846.786	647.575
333.343	16.004	846.407	647.677
334.358	16.106	845.933	647.648
335.373	15.989	846.092	647.263
336.387	15.960	845.644	646.753
337.402	16.186	845.204	647.227
338.416	16.175	844.915	646.902
339.431	16.086	844.724	646.358
340.446	16.146	844.136	646.082
341.460	16.291	843.765	646.295
342.475	16.199	843.446	645.642
343.489	16.342	842.865	645.686
344.504	16.240	842.354	644.850
345.519	16.246	841.778	644.374
346.533	16.309	841.422	644.283
347.548	16.187	840.908	643.369
348.562	16.082	840.456	642.565
349.577	16.281	839.657	642.657
350.592	16.266	839.090	642.107
351.606	16.286	838.326	641.543
352.621	16.227	837.771	640.838
353.635	16.258	837.165	640.433
354.650	16.376	836.249	640.124
355.665	16.277	835.876	639.408
356.679	16.457	835.333	639.618
357.694	16.406	834.428	638.674
358.708	16.343	833.929	637.998
359.723	16.297	833.581	637.501
360.738	16.420	832.960	637.435
361.752	16.454	832.227	636.943
362.767	16.428	831.544	636.266
363.781	16.630	830.742	636.357
364.796	16.533	830.403	635.676
365.810	16.692	830.324	636.156
366.825	16.635	830.087	635.704
367.840	16.699	829.318	635.300
368.854	16.688	828.998	634.959
369.869	16.509	828.791	634.070
370.883	16.656	827.940	633.916
371.898	16.663	827.819	633.793
372.913	16.687	827.535	633.611
373.927	16.670	827.012	633.090
374.942	16.770	826.304	632.864
375.956	16.796	825.861	632.567
376.971	16.917	825.401	632.608
377.986	16.811	825.208	632.009
379.000	16.889	824.674	631.838
380.015	16.866	823.942	631.135
381.029	16.950	823.252	630.861
382.044	16.815	822.959	630.079
383.059	16.926	822.293	629.925
384.073	16.979	821.786	629.679
385.088	16.911	821.406	629.081
386.102	16.915	820.502	628.348
387.117	16.899	820.046	627.884
388.132	16.869	819.546	627.332
389.146	16.909	819.027	627.028
390.161	16.960	818.661	626.880
391.175	17.110	817.851	626.761
392.190	16.898	817.554	625.695
393.205	16.884	817.231	625.338
394.219	16.959	816.653	625.118
395.234	17.003	816.192	624.872
396.248	16.897	815.699	624.049
397.263	16.913	815.546	623.935
398.278	16.996	815.136	623.873
399.292	16.876	814.801	623.120
400.307	17.032	814.184	623.166
401.321	17.001	813.737	622.653
402.336	16.953	813.480	622.225
403.350	17.072	812.808	622.095
404.365	17.108	812.111	621.636
405.380	17.324	811.421	621.845
406.394	17.319	810.774	621.276
407.409	17.185	810.668	620.647
408.423	17.282	810.315	620.678
409.438	17.169	810.250	620.162
410.453	17.429	809.129	620.197
411.467	17.411	809.066	620.027
412.482	17.333	808.664	619.380
413.496	17.496	808.446	619.752
414.511	17.369	807.994	618.889
415.526	17.458	807.374	618.684
416.540	17.384	807.249	618.264
417.555	17.365	806.611	617.652
418.569	17.427	806.299	617.583
419.584	17.503	805.604	617.269
420.599	17.474	804.956	616.613
421.613	86.040	1253.977	1330.583
422.628	73.328	1319.417	1330.710
