DTS Sentinel unit serial number:	SN413079Multiplexer serial number:	ORYXHardware model number:	OX4-SRSoftware version number:	ORYX F/W v4.00 Oryx Data Collector v3.7.2.0data status	okinstallation	princeton_trtdifferential loss correction	single-endedforward channel	channel 1reverse channel	N/Adate	2019/09/12time	09:40:11forward acquisition time	60.00reverse acquisition time	0.00gamma	496.2192k internal	0.2300k external	0.2300temperature offset calibration	1.0041default loss term (dB/km)	0.3790temperature slope calibration	1.0000multiplexer offset coefficient	1.0000multiplexer slope coefficient	1.0000fibre end	0.00T internal ref (°C)	35.75T ext. ref 1 (°C)	1.81T ext. ref 2 (°C)	32.44length (m)	temperature (°C)	Stokes	anti-Stokes-747.200	-49.716	-0.046	-0.023
-746.185	-200.000	-0.031	0.246
-745.171	-200.000	0.019	0.337
-744.156	-18.841	-0.387	0.246
-743.142	-12.738	-0.145	0.097
-742.127	-16.639	0.413	0.267
-741.112	800.000	-0.056	-0.203
-740.098	-200.000	-0.014	0.142
-739.083	228.598	-0.082	0.136
-738.069	-200.000	0.013	0.681
-737.054	463.589	-0.036	-0.083
-736.039	21.968	0.113	0.094
-735.025	-113.191	0.156	-0.031
-734.010	193.868	0.166	0.256
-732.996	-11.560	-0.270	-0.181
-731.981	471.400	0.135	0.309
-730.966	118.502	0.199	0.250
-729.952	-33.771	-0.547	-0.307
-728.937	66.275	0.119	-0.124
-727.923	272.495	-0.120	-0.217
-726.908	-200.000	0.036	0.305
-725.894	-47.977	-0.039	0.019
-724.879	324.576	-0.041	0.080
-723.864	-144.076	-0.199	0.019
-722.850	286.126	0.087	-0.159
-721.835	68.340	0.225	0.234
-720.821	-200.000	0.008	0.173
-719.806	-17.925	-0.069	0.044
-718.791	220.154	0.088	-0.143
-717.777	-136.984	-0.126	0.015
-716.762	140.161	0.111	0.149
-715.748	-200.000	0.015	0.307
-714.733	-88.087	0.210	-0.064
-713.718	290.602	-0.218	-0.404
-712.704	-111.240	0.367	0.076
-711.689	-49.496	0.167	0.081
-710.675	-200.000	-0.002	0.015
-709.660	-129.989	-0.154	-0.021
-708.645	-200.000	0.033	-0.150
-707.631	-72.247	-0.377	-0.142
-706.616	800.000	-0.041	-0.179
-705.602	39.779	0.193	-0.176
-704.587	188.315	-0.049	0.075
-703.572	-42.607	-0.109	0.057
-702.558	300.754	0.037	0.070
-701.543	632.000	-0.062	-0.160
-700.529	-148.388	0.108	-0.009
-699.514	356.220	-0.029	0.059
-698.499	-200.000	-0.010	-0.389
-697.485	-200.000	-0.067	0.308
-696.470	-200.000	-0.010	0.367
-695.456	-21.763	0.113	-0.070
-694.441	100.988	-0.244	-0.289
-693.426	800.000	-0.117	-0.478
-692.412	121.452	-0.051	0.065
-691.397	-57.953	0.029	0.013
-690.383	279.730	-0.040	-0.072
-689.368	-200.000	0.002	-0.136
-688.354	-5.187	0.038	0.027
-687.339	-200.000	-0.013	0.058
-686.324	-5.700	-0.104	0.072
-685.310	-41.329	-0.303	0.159
-684.295	138.158	-0.187	0.249
-683.281	-142.761	-0.182	-0.018
-682.266	-200.000	-0.031	0.166
-681.251	-32.658	-0.183	-0.104
-680.237	-17.354	0.364	-0.233
-679.222	-134.640	0.415	0.051
-678.208	336.019	0.041	0.081
-677.193	661.062	-0.010	0.027
-676.178	-102.694	-0.275	-0.067
-675.164	-69.287	0.043	0.017
-674.149	40.450	-0.186	-0.170
-673.135	-75.062	0.223	-0.081
-672.120	4.088	-0.210	0.156
-671.105	-57.078	-0.237	-0.106
-670.091	59.370	-0.196	-0.197
-669.076	-82.993	0.185	-0.061
-668.062	-3.412	-0.169	-0.120
-667.047	375.840	-0.067	0.139
-666.032	-106.972	0.290	-0.065
-665.018	-200.000	0.015	0.212
-664.003	-111.514	0.207	0.043
-662.989	130.544	0.033	-0.043
-661.974	14.746	0.066	0.052
-660.959	448.823	0.067	0.150
-659.945	150.300	-0.124	-0.171
-658.930	253.777	-0.121	-0.210
-657.916	-18.650	0.157	-0.100
-656.901	8.945	0.271	-0.207
-655.886	46.155	0.136	0.128
-654.872	-88.767	0.036	-0.011
-653.857	65.628	-0.119	-0.123
-652.843	800.000	-0.026	0.100
-651.828	-200.000	0.008	0.128
-650.814	-200.000	0.029	-0.276
-649.799	-18.780	-0.082	0.052
-648.784	715.068	-0.059	-0.158
-647.770	293.323	-0.146	0.271
-646.755	-39.679	-0.222	0.118
-645.741	-151.028	-0.163	-0.012
-644.726	-0.877	-0.124	0.089
-643.711	114.180	-0.162	0.200
-642.697	54.341	0.083	0.081
-641.682	-200.000	0.014	0.293
-640.668	-179.448	0.210	-0.005
-639.653	-149.040	0.300	0.024
-638.638	-200.000	0.004	0.179
-637.624	-16.912	0.254	0.163
-636.609	458.978	-0.044	-0.100
-635.595	-200.000	-0.018	-0.108
-634.580	589.041	0.055	0.138
-633.565	-9.264	0.102	0.069
-632.551	-74.094	-0.528	-0.194
-631.536	694.195	-0.034	0.092
-630.522	-99.731	-0.209	-0.053
-629.507	-77.666	0.345	0.121
-628.492	1.431	0.248	-0.181
-627.478	800.000	0.025	0.084
-626.463	-200.000	0.001	0.261
-625.449	-20.906	0.160	-0.100
-624.434	129.603	0.040	-0.052
-623.419	-200.000	0.062	0.366
-622.405	-110.603	0.086	0.018
-621.390	106.805	-0.071	-0.086
-620.376	-112.472	0.433	-0.088
-619.361	-154.378	0.298	0.020
-618.346	44.982	-0.111	-0.104
-617.332	-200.000	-0.003	-0.225
-616.317	-200.000	-0.002	-0.279
-615.303	84.240	-0.122	-0.135
-614.288	111.846	0.217	-0.265
-613.273	800.000	0.083	-0.247
-612.259	91.911	-0.023	0.026
-611.244	77.351	0.175	-0.189
-610.230	-29.723	-0.131	-0.076
-609.215	190.961	0.017	-0.026
-608.201	39.857	0.263	0.239
-607.186	501.899	0.053	0.123
-606.171	-200.000	0.024	-0.114
-605.157	-200.000	-0.021	-0.336
-604.142	161.838	0.257	-0.364
-603.128	-117.123	-0.170	-0.031
-602.113	44.248	0.180	-0.167
-601.098	-145.085	-0.135	-0.012
-600.084	40.568	-0.167	-0.152
-599.069	201.728	0.246	-0.385
-598.055	-200.000	0.001	0.243
-597.040	25.492	0.233	0.196
-596.025	-200.000	0.022	-0.207
-595.011	800.000	0.046	0.184
-593.996	-70.121	-0.050	0.019
-592.982	-69.226	0.097	0.038
-591.967	-80.652	0.225	-0.076
-590.952	6.347	-0.342	0.257
-589.938	-143.935	-0.177	-0.017
-588.923	62.015	-0.064	-0.065
-587.909	-200.000	-0.082	0.378
-586.894	-83.355	-0.250	-0.081
-585.879	328.712	0.090	0.174
-584.865	-200.000	0.009	-0.236
-583.850	-20.469	-0.156	0.097
-582.836	-200.000	-0.002	-0.252
-581.821	-145.902	-0.114	0.010
-580.806	800.000	0.131	0.449
-579.792	-40.058	-0.192	0.102
-578.777	-65.079	-0.077	-0.031
-577.763	321.028	0.079	-0.153
-576.748	-45.172	-0.034	0.017
-575.733	94.598	0.231	0.266
-574.719	-200.000	-0.068	0.358
-573.704	-109.567	0.188	0.040
-572.690	183.190	-0.147	0.219
-571.675	-65.528	-0.220	0.090
-570.661	-73.997	-0.355	-0.130
-569.646	-200.000	-0.031	0.263
-568.631	-200.000	-0.016	0.074
-567.617	6.572	-0.114	0.085
-566.602	-10.659	0.108	-0.073
-565.588	95.491	-0.256	0.296
-564.573	-200.000	-0.037	0.268
-563.558	16.836	0.083	0.067
-562.544	800.000	-0.029	0.093
-561.529	397.729	0.052	-0.111
-560.515	-200.000	0.018	-0.135
-559.500	213.795	0.015	-0.024
-558.485	94.324	0.116	-0.134
-557.471	134.476	-0.116	-0.152
-556.456	-113.123	0.159	-0.032
-555.442	237.788	-0.124	-0.209
-554.427	-128.410	-0.415	-0.060
-553.412	-200.000	-0.019	-0.143
-552.398	8.848	-0.218	-0.167
-551.383	-45.711	0.176	0.088
-550.369	-200.000	-0.042	0.301
-549.354	-180.434	-0.386	-0.008
-548.339	42.986	-0.084	-0.077
-547.325	-100.597	-0.306	0.077
-546.310	486.616	0.078	-0.181
-545.296	800.000	-0.085	0.258
-544.281	-153.325	-0.135	-0.009
-543.266	-71.752	-0.376	-0.142
-542.252	666.936	0.128	-0.336
-541.237	316.864	-0.151	0.289
-540.223	-200.000	0.008	0.328
-539.208	-200.000	0.018	-0.322
-538.193	-88.273	0.245	-0.074
-537.179	139.883	0.279	0.371
-536.164	-194.633	-0.111	-0.001
-535.150	800.000	-0.067	0.198
-534.135	-109.487	0.033	0.007
-533.121	52.127	0.206	-0.199
-532.106	354.288	-0.095	-0.191
-531.091	-168.999	0.207	-0.008
-530.077	285.576	-0.030	-0.055
-529.062	800.000	0.056	0.191
-528.048	112.729	0.077	-0.094
-527.033	-7.527	0.349	0.239
-526.018	16.673	-0.243	0.194
-525.004	-87.922	0.064	-0.019
-523.989	34.170	0.138	0.122
-522.975	-81.630	0.290	0.096
-521.960	-17.582	-0.135	0.086
-520.945	19.125	-0.065	-0.053
-519.931	-200.000	-0.020	0.331
-518.916	800.000	-0.042	-0.143
-517.902	-113.629	0.389	-0.077
-516.887	52.655	0.182	-0.176
-515.872	-144.973	-0.294	-0.027
-514.858	800.000	-0.045	0.150
-513.843	-200.000	0.002	-0.136
-512.829	-85.020	0.217	0.069
-511.814	127.494	-0.067	0.086
-510.799	85.475	-0.371	-0.412
-509.785	-92.601	0.218	-0.062
-508.770	-140.213	0.431	-0.046
-507.756	800.000	0.026	0.116
-506.741	-200.000	0.000	0.075
-505.726	99.971	0.318	0.372
-504.712	64.757	0.341	0.348
-503.697	246.257	-0.155	-0.264
-502.683	6.555	-0.269	-0.202
-501.668	-200.000	-0.008	-0.352
-500.653	-3.417	0.118	0.083
-499.639	329.487	-0.176	0.342
-498.624	-200.000	-0.010	0.095
-497.610	50.163	0.355	0.339
-496.595	-49.559	-0.179	0.086
-495.581	147.703	0.129	0.175
-494.566	-49.464	0.159	0.077
-493.551	-55.810	0.127	-0.057
-492.537	-86.934	-0.394	0.121
-491.522	-84.083	0.222	-0.071
-490.508	-120.313	0.130	0.022
-489.493	385.214	0.048	-0.100
-488.478	118.720	-0.062	0.078
-487.464	-34.950	0.198	-0.109
-486.449	243.944	-0.099	0.168
-485.435	-102.351	-0.072	0.018
-484.420	-200.000	-0.070	0.358
-483.405	-200.000	0.021	-0.384
-482.391	107.600	0.182	-0.218
-481.376	-120.951	-0.206	0.035
-480.362	800.000	-0.039	-0.130
-479.347	-54.700	-0.560	0.255
-478.332	-200.000	0.058	-0.351
-477.318	-120.963	0.168	0.028
-476.303	-113.078	-0.243	-0.048
-475.289	-200.000	-0.059	-0.296
-474.274	-120.197	0.074	-0.013
-473.259	-200.000	-0.033	-0.216
-472.245	-72.792	-0.093	0.034
-471.230	142.605	-0.186	0.250
-470.216	-200.000	0.090	-0.637
-469.201	-133.667	-0.348	-0.044
-468.186	-40.692	-0.087	-0.045
-467.172	468.489	-0.166	0.375
-466.157	-200.000	-0.077	0.536
-465.143	-67.437	0.063	0.025
-464.128	665.840	-0.032	-0.084
-463.113	-200.000	0.007	0.072
-462.099	800.000	0.054	0.187
-461.084	-200.000	-0.022	-0.147
-460.070	-168.457	0.229	-0.009
-459.055	-111.013	-0.057	-0.012
-458.040	800.000	-0.097	0.281
-457.026	198.856	0.100	-0.155
-456.011	47.010	-0.268	0.251
-454.997	-28.667	-0.095	0.055
-453.982	676.827	-0.089	-0.233
-452.968	-200.000	-0.017	0.218
-451.953	-200.000	-0.029	0.135
-450.938	238.136	-0.117	-0.196
-449.924	-69.809	-0.177	-0.068
-448.909	-95.137	0.151	-0.041
-447.895	-122.012	-0.132	0.022
-446.880	-200.000	0.001	-0.347
-445.865	155.186	-0.135	-0.187
-444.851	-57.639	0.192	-0.085
-443.836	-130.846	-0.109	0.015
-442.822	-25.410	-0.066	0.039
-441.807	12.337	0.088	-0.068
-440.792	-133.554	-0.140	-0.018
-439.778	128.484	-0.165	-0.212
-438.763	-92.397	-0.078	0.022
-437.749	309.708	0.137	0.259
-436.734	-200.000	-0.027	0.321
-435.719	-69.159	0.266	-0.103
-434.705	-200.000	0.028	0.379
-433.690	-200.000	0.003	0.165
-432.676	-69.058	0.096	-0.037
-431.661	552.827	-0.061	0.149
-430.646	-200.000	0.001	-0.306
-429.632	-49.749	-0.081	-0.039
-428.617	-165.253	0.080	0.004
-427.603	81.015	-0.143	0.155
-426.588	300.128	0.084	0.157
-425.573	-49.933	-0.026	0.012
-424.559	219.257	0.070	0.112
-423.544	569.964	-0.076	0.187
-422.530	-90.115	-0.238	0.070
-421.515	43.289	0.045	0.041
-420.500	152.099	0.078	0.107
-419.486	800.000	-0.092	-0.369
-418.471	214.150	-0.138	0.220
-417.457	-57.537	-0.070	0.031
-416.442	-41.516	0.117	0.061
-415.428	333.639	0.044	-0.085
-414.413	-147.219	-0.119	-0.010
-413.398	256.710	0.044	0.076
-412.384	-200.000	-0.038	0.171
-411.369	-200.000	-0.037	-0.191
-410.355	88.519	-0.135	-0.151
-409.340	123.658	-0.057	0.073
-408.325	-200.000	-0.004	0.102
-407.311	-96.990	-0.333	0.088
-406.296	330.113	-0.139	0.270
-405.282	-120.756	0.073	0.012
-404.267	-45.085	-0.198	0.099
-403.252	-77.226	-0.123	-0.043
-402.238	-157.059	0.070	0.004
-401.223	255.772	0.037	-0.064
-400.209	350.110	0.017	0.033
-399.194	-104.916	-0.327	-0.076
-398.179	640.523	0.024	-0.061
-397.165	-200.000	0.079	0.393
-396.150	-180.616	0.172	0.004
-395.136	-69.027	-0.032	0.012
-394.121	800.000	-0.151	0.486
-393.106	-200.000	-0.005	0.417
-392.092	-48.171	-0.074	0.036
-391.077	-98.500	-0.134	-0.035
-390.063	-13.515	-0.220	0.143
-389.048	87.764	-0.315	-0.351
-388.033	24.453	0.098	0.082
-387.019	231.804	0.013	0.022
-386.004	-200.000	0.021	-0.207
-384.990	-104.041	0.043	0.010
-383.975	57.583	-0.090	0.088
-382.960	-200.000	-0.011	0.194
-381.946	-118.229	-0.125	0.022
-380.931	-117.292	0.246	0.045
-379.917	-131.508	0.208	-0.028
-378.902	800.000	0.055	-0.171
-377.888	55.779	0.278	0.271
-376.873	48.037	-0.118	-0.111
-375.858	-143.750	-0.056	0.005
-374.844	710.464	0.082	-0.219
-373.829	70.762	0.071	-0.074
-372.815	800.000	-0.110	0.395
-371.800	31.681	-0.025	0.021
-370.785	-111.114	-0.152	-0.031
-369.771	312.983	-0.150	0.284
-368.756	158.478	-0.118	0.165
-367.742	800.000	0.079	0.287
-366.727	-200.000	0.016	-0.360
-365.712	88.234	-0.286	-0.319
-364.698	-37.516	-0.234	-0.126
-363.683	104.964	-0.089	0.105
-362.669	79.602	-0.249	0.269
-361.654	800.000	-0.064	0.183
-360.639	376.976	0.109	0.223
-359.625	-141.516	0.221	0.022
-358.610	-145.766	-0.264	0.024
-357.596	-200.000	0.033	-0.179
-356.581	786.759	-0.028	-0.077
-355.566	159.127	-0.119	-0.166
-354.552	-200.000	-0.069	-0.346
-353.537	542.163	-0.014	-0.034
-352.523	-28.977	0.165	-0.095
-351.508	718.149	0.182	-0.486
-350.493	175.563	-0.138	0.202
-349.479	583.512	0.128	-0.316
-348.464	-187.164	-0.191	-0.003
-347.450	-79.149	0.258	0.088
-346.435	77.421	-0.163	-0.174
-345.420	-133.540	-0.012	-0.001
-344.406	35.095	0.283	-0.249
-343.391	317.854	-0.072	0.137
-342.377	-200.000	0.040	0.279
-341.362	216.287	-0.188	0.301
-340.348	639.481	-0.102	0.262
-339.333	-96.229	0.060	-0.016
-338.318	-57.224	0.088	0.039
-337.304	-82.872	-0.265	-0.086
-336.289	-45.903	0.214	-0.106
-335.275	800.000	0.089	0.266
-334.260	57.597	0.306	0.300
-333.245	116.750	0.179	-0.220
-332.231	-103.591	-0.013	0.003
-331.216	-108.042	0.218	0.047
-330.202	-39.989	-0.186	-0.097
-329.187	652.532	0.092	-0.236
-328.172	8.728	-0.152	0.115
-327.158	206.164	-0.256	-0.400
-326.143	328.699	0.145	-0.279
-325.129	-21.531	-0.108	0.066
-324.114	709.738	0.043	-0.115
-323.099	51.757	0.064	-0.061
-322.085	-200.000	0.025	0.229
-321.070	166.361	-0.023	-0.032
-320.056	484.163	0.079	-0.180
-319.041	159.071	0.150	0.209
-318.026	-200.000	0.041	0.201
-317.012	800.000	0.068	-0.220
-315.997	33.760	-0.023	0.020
-314.983	-200.000	0.071	-0.327
-313.968	97.108	0.154	-0.177
-312.953	88.215	-0.280	-0.312
-311.939	-108.935	0.161	0.034
-310.924	201.364	-0.169	-0.262
-309.910	-155.615	-0.381	0.025
-308.895	128.695	0.029	0.037
-307.880	-200.000	-0.025	-0.120
-306.866	-158.219	-0.041	0.002
-305.851	-72.505	-0.151	-0.056
-304.837	-147.644	-0.218	-0.018
-303.822	-37.872	-0.179	-0.095
-302.807	96.276	0.087	-0.100
-301.793	413.673	0.166	-0.354
-300.778	65.467	0.219	0.222
-299.764	674.760	0.117	-0.304
-298.749	-149.248	0.198	-0.016
-297.735	30.225	0.187	0.160
-296.720	800.000	-0.105	-0.431
-295.705	165.670	0.311	-0.441
-294.691	284.298	-0.138	-0.248
-293.676	29.462	0.154	-0.131
-292.662	-200.000	-0.020	-0.100
-291.647	-117.602	-0.238	-0.043
-290.632	66.987	0.167	0.171
-289.618	-200.000	-0.043	0.220
-288.603	-114.255	-0.280	-0.054
-287.589	-82.246	0.250	-0.082
-286.574	-200.000	-0.012	-0.156
-285.559	-93.856	-0.043	-0.012
-284.545	517.859	0.044	-0.104
-283.530	-98.161	0.246	-0.063
-282.516	-200.000	0.056	-0.299
-281.501	-84.927	-0.085	-0.027
-280.486	-115.500	0.268	0.050
-279.472	800.000	-0.088	0.343
-278.457	-96.192	-0.315	0.084
-277.443	-200.000	0.023	-0.245
-276.428	-101.495	0.233	-0.057
-275.413	-200.000	0.024	0.122
-274.399	-60.157	-0.135	0.058
-273.384	193.449	0.164	-0.248
-272.370	-72.533	0.075	-0.028
-271.355	-107.743	0.123	-0.027
-270.340	-97.509	-0.394	0.103
-269.326	-126.982	-0.370	-0.054
-268.311	-71.553	0.240	-0.090
-267.297	-142.646	0.157	-0.015
-266.282	127.102	0.107	-0.136
-265.267	-173.415	-0.219	-0.007
-264.253	244.902	-0.025	-0.042
-263.238	-200.000	0.020	0.193
-262.224	33.110	-0.257	-0.223
-261.209	-58.080	-0.177	0.077
-260.195	-21.561	0.332	-0.202
-259.180	-200.000	-0.005	0.087
-258.165	664.480	0.042	0.108
-257.151	568.031	0.050	0.122
-256.136	-148.562	0.149	-0.012
-255.122	-160.881	0.201	0.011
-254.107	-156.547	-0.105	-0.007
-253.092	-18.524	0.131	0.082
-252.078	-200.000	0.005	-0.125
-251.063	-112.506	0.248	0.049
-250.049	-200.000	-0.019	0.105
-249.034	20.805	0.182	0.148
-248.019	2.306	-0.095	0.069
-247.005	-47.152	0.129	-0.063
-245.990	20.912	-0.106	-0.086
-244.976	-136.612	-0.141	-0.016
-243.961	-24.952	-0.110	0.065
-242.946	-131.103	0.130	0.017
-241.932	65.650	0.153	-0.155
-240.917	21.227	-0.183	-0.149
-239.903	578.465	0.081	0.198
-238.888	-25.728	0.155	0.091
-237.873	40.264	-0.095	0.085
-236.859	123.363	0.324	0.406
-235.844	142.101	-0.162	-0.215
-234.830	-200.000	-0.021	-0.179
-233.815	-200.000	0.026	-0.247
-232.800	-30.041	-0.027	0.015
-231.786	159.236	0.205	-0.286
-230.771	800.000	-0.033	-0.126
-229.757	254.141	0.056	-0.095
-228.742	-200.000	-0.000	0.161
-227.727	22.124	0.237	-0.194
-226.713	-58.365	0.345	-0.150
-225.698	-17.350	0.096	-0.060
-224.684	275.201	0.054	-0.096
-223.669	349.655	0.070	0.138
-222.655	-2.543	-0.103	0.072
-221.640	800.000	0.133	-0.402
-220.625	800.000	0.086	-0.296
-219.611	76.088	-0.017	-0.018
-218.596	-16.989	0.082	-0.052
-217.582	-200.000	0.005	-0.059
-216.567	513.545	0.096	-0.224
-215.552	-200.000	-0.032	0.143
-214.538	70.622	0.067	-0.069
-213.523	-200.000	-0.006	0.116
-212.509	31.428	0.228	-0.196
-211.494	-200.000	-0.000	0.421
-210.479	-94.355	0.062	-0.017
-209.465	516.756	-0.070	0.163
-208.450	800.000	-0.081	0.282
-207.436	-200.000	0.002	0.298
-206.421	-200.000	0.002	0.051
-205.406	50.020	0.215	-0.203
-204.392	-115.219	0.229	0.043
-203.377	207.187	-0.122	-0.189
-202.363	-200.000	-0.015	-0.077
-201.348	-156.420	-0.250	0.016
-200.333	-67.207	0.200	0.079
-199.319	-200.000	-0.006	0.348
-198.304	48.838	0.260	-0.244
-197.290	-200.000	-0.035	0.162
-196.275	-76.294	-0.287	-0.101
-195.260	-200.000	-0.024	0.125
-194.246	43.846	0.068	0.062
-193.231	-124.744	0.215	0.033
-192.217	-92.511	-0.394	0.110
-191.202	162.025	-0.064	-0.089
-190.187	-200.000	-0.090	0.490
-189.173	-84.552	-0.092	0.029
-188.158	196.964	0.193	-0.293
-187.144	-140.376	-0.209	-0.022
-186.129	-20.122	-0.114	0.070
-185.114	120.203	0.204	-0.253
-184.100	-80.284	0.199	-0.066
-183.085	-71.901	0.319	-0.118
-182.071	180.946	0.031	-0.046
-181.056	-97.726	0.006	0.002
-180.042	747.455	-0.033	0.090
-179.027	418.421	0.098	-0.209
-178.012	-82.542	0.250	0.081
-176.998	3.751	0.283	0.206
-175.983	-105.134	0.322	-0.073
-174.969	800.000	0.043	0.160
-173.954	-195.729	-0.131	0.001
-172.939	-48.979	0.135	0.065
-171.925	-200.000	0.043	-0.279
-170.910	53.197	0.131	-0.125
-169.896	800.000	0.069	0.265
-168.881	-14.778	0.055	0.035
-167.866	-200.000	-0.041	-0.434
-166.852	800.000	0.044	0.137
-165.837	-200.000	0.031	0.241
-164.823	-27.643	-0.156	0.090
-163.808	-150.605	-0.221	0.017
-162.793	-200.000	-0.001	0.102
-161.779	-200.000	-0.022	-0.304
-160.764	-63.129	-0.056	-0.023
-159.750	-71.163	-0.234	0.088
-158.735	315.565	-0.073	-0.137
-157.720	33.704	0.072	-0.063
-156.706	-51.100	-0.069	-0.032
-155.691	-200.000	0.018	-0.161
-154.677	800.000	0.060	-0.167
-153.662	70.119	-0.128	0.132
-152.647	71.375	-0.236	0.244
-151.633	-26.486	-0.058	-0.034
-150.618	-104.897	-0.295	-0.067
-149.604	319.076	-0.026	-0.049
-148.589	171.241	-0.139	-0.198
-147.574	-99.619	0.239	0.060
-146.560	41.892	0.224	-0.203
-145.545	593.753	0.097	-0.239
-144.531	-162.674	-0.173	-0.008
-143.516	173.948	-0.135	0.195
-142.502	349.398	0.064	0.126
-141.487	75.069	-0.179	-0.188
-140.472	507.654	-0.084	0.194
-139.458	571.121	-0.051	0.123
-138.443	-106.108	-0.207	0.046
-137.429	800.000	0.086	0.272
-136.414	1.629	0.089	0.064
-135.399	76.212	0.158	0.166
-134.385	-82.846	0.168	-0.054
-133.370	136.863	0.079	0.103
-132.356	-141.783	0.169	-0.017
-131.341	-67.417	0.081	0.032
-130.326	-200.000	-0.038	0.176
-129.312	-21.660	0.143	-0.087
-128.297	148.266	0.161	-0.217
-127.283	-103.169	-0.408	0.096
-126.268	-28.435	-0.179	-0.103
-125.253	57.535	0.168	-0.164
-124.239	46.647	-0.181	0.167
-123.224	-165.465	0.493	-0.021
-122.210	-59.489	-0.131	-0.056
-121.195	-17.238	-0.336	0.211
-120.180	800.000	0.076	-0.240
-119.166	54.091	-0.236	0.226
-118.151	-32.043	-0.153	0.085
-117.137	-200.000	-0.002	-0.341
-116.122	133.673	0.090	0.116
-115.107	800.000	-0.065	0.256
-114.093	-200.000	-0.026	0.119
-113.078	-173.072	-0.337	-0.010
-112.064	-105.845	-0.218	-0.049
-111.049	91.110	0.158	0.176
-110.034	-19.110	-0.223	-0.138
-109.020	-55.328	-0.078	-0.035
-108.005	-168.429	-0.331	0.013
-106.991	800.000	0.043	0.159
-105.976	259.058	-0.158	-0.272
-104.962	308.913	0.139	-0.258
-103.947	800.000	-0.099	-0.352
-102.932	-108.228	0.073	0.016
-101.918	-200.000	-0.028	0.125
-100.903	-127.764	0.248	0.036
-99.889	-200.000	0.006	0.291
-98.874	67.913	-0.218	-0.222
-97.859	-27.366	-0.049	0.028
-96.845	-111.863	0.169	0.034
-95.830	64.243	-0.087	-0.088
-94.816	38.296	-0.203	-0.180
-93.801	-124.707	0.306	0.047
-92.786	-200.000	-0.062	0.366
-91.772	-53.422	-0.173	0.079
-90.757	-130.472	0.423	-0.057
-89.743	800.000	0.020	0.064
-88.728	-76.296	0.241	-0.084
-87.713	-16.703	-0.119	0.075
-86.699	286.006	0.095	-0.170
-85.684	-134.652	0.153	0.019
-84.670	543.231	-0.045	-0.107
-83.655	-21.865	-0.113	0.068
-82.640	230.559	0.049	0.080
-81.626	800.000	-0.063	0.235
-80.611	32.582	0.078	0.067
-79.597	182.958	0.249	0.366
-78.582	98.900	0.063	-0.072
-77.567	800.000	-0.041	0.168
-76.553	-173.452	-0.087	-0.003
-75.538	63.992	-0.063	0.063
-74.524	-156.975	0.165	-0.010
-73.509	-178.946	-0.192	-0.004
-72.494	-200.000	-0.039	-0.236
-71.480	120.560	-0.042	-0.052
-70.465	-155.930	-0.140	-0.009
-69.451	-77.672	0.177	0.061
-68.436	-125.299	0.253	0.038
-67.422	-8.683	0.111	0.074
-66.407	-200.000	0.020	-0.186
-65.392	-50.086	-0.222	-0.105
-64.378	-200.000	-0.077	0.334
-63.363	293.835	-0.256	0.464
-62.349	-143.944	-0.360	-0.034
-61.334	31.366	-0.995	-0.849
-60.319	-11.828	0.372	0.242
-59.305	800.000	-0.278	-1.080
-58.290	490.459	0.373	0.848
-57.276	454.297	0.821	1.807
-56.261	-200.000	91.174	527.862
-55.246	491.810	1386.074	3151.867
-54.232	148.400	2596.252	3480.252
-53.217	112.069	2200.043	2639.147
-52.203	46.875	1648.519	1521.052
-51.188	39.171	1381.072	1226.414
-50.173	35.885	1338.069	1168.274
-49.159	55.868	1384.123	1332.229
-48.144	60.124	1402.760	1376.365
-47.130	39.627	1358.467	1208.945
-46.115	35.931	1341.143	1171.056
-45.100	35.637	1336.450	1165.129
-44.086	35.577	1334.217	1162.770
-43.071	35.625	1331.139	1160.333
-42.057	35.552	1328.838	1157.839
-41.042	35.640	1327.469	1157.133
-40.027	35.603	1325.842	1155.443
-39.013	35.661	1324.047	1154.183
-37.998	35.656	1321.992	1152.315
-36.984	35.713	1320.249	1151.092
-35.969	35.714	1318.419	1149.458
-34.954	35.797	1316.476	1148.216
-33.940	35.825	1315.364	1147.366
-32.925	35.852	1313.885	1146.191
-31.911	35.875	1312.436	1145.019
-30.896	35.869	1311.264	1143.914
-29.881	35.757	1310.235	1142.307
-28.867	35.961	1307.921	1141.452
-27.852	35.975	1306.253	1140.037
-26.838	35.940	1305.066	1138.746
-25.823	35.939	1303.553	1137.375
-24.809	35.870	1302.130	1135.681
-23.794	35.787	1300.937	1134.108
-22.779	35.837	1299.084	1132.738
-21.765	35.793	1298.367	1131.809
-20.750	35.847	1296.833	1130.749
-19.736	35.748	1295.573	1129.022
-18.721	35.624	1294.552	1127.361
-17.706	35.692	1293.053	1126.410
-16.692	35.676	1291.844	1125.216
-15.677	35.803	1290.322	1124.588
-14.663	35.660	1289.765	1123.221
-13.648	35.740	1288.243	1122.322
-12.633	35.720	1287.476	1121.492
-11.619	35.745	1286.825	1121.022
-10.604	35.689	1285.429	1119.437
-9.590	35.658	1284.773	1118.640
-8.575	35.594	1284.001	1117.553
-7.560	35.541	1283.199	1116.501
-6.546	35.663	1282.410	1116.479
-5.531	35.521	1281.455	1114.780
-4.517	35.705	1279.937	1114.484
-3.502	35.655	1279.228	1113.530
-2.487	35.681	1278.563	1113.059
-1.473	35.849	1273.917	1109.941
-0.458	34.663	1259.304	1090.394
0.556	31.198	1241.154	1052.381
1.571	27.677	1245.877	1036.327
2.586	26.733	1261.712	1043.970
3.600	25.596	1250.277	1027.919
4.615	18.270	1173.551	925.300
5.629	7.010	1092.494	804.339
6.644	2.238	1070.637	764.357
7.659	1.814	1067.837	760.176
8.673	1.678	1066.295	758.332
9.688	1.512	1065.142	756.617
10.702	1.840	1063.565	757.061
11.717	8.429	1073.386	796.934
12.731	19.257	1089.273	863.190
13.746	24.318	1095.695	893.636
14.761	25.089	1096.116	897.761
15.775	24.927	1095.698	896.530
16.790	24.789	1095.223	895.373
17.804	24.759	1094.106	894.230
18.819	24.864	1093.997	894.582
19.834	25.077	1093.287	894.986
20.848	24.991	1093.265	894.460
21.863	25.083	1092.397	894.129
22.877	25.118	1091.545	893.528
23.892	24.930	1091.380	892.378
24.907	24.980	1090.186	891.572
25.921	24.895	1089.223	890.282
26.936	24.863	1087.851	888.922
27.950	24.794	1086.649	887.521
28.965	24.654	1084.890	885.315
29.980	24.812	1083.193	884.629
30.994	25.010	1082.166	884.690
32.009	25.052	1081.299	884.112
33.023	24.803	1079.598	881.414
34.038	24.916	1079.045	881.442
35.053	24.901	1079.077	881.315
36.067	25.000	1078.031	880.871
37.082	25.071	1076.896	880.213
38.096	25.258	1076.284	880.553
39.111	25.327	1075.612	880.266
40.126	25.110	1074.516	878.229
41.140	24.728	1072.324	874.489
42.155	24.461	1071.193	872.185
43.169	24.512	1070.153	871.511
44.184	24.577	1069.197	870.972
45.199	24.542	1068.176	869.893
46.213	24.611	1067.529	869.626
47.228	24.728	1066.756	869.485
48.242	24.885	1065.683	869.301
49.257	24.955	1065.034	869.032
50.271	24.969	1064.641	868.702
51.286	25.054	1063.532	868.132
52.301	24.907	1062.941	866.860
53.315	24.933	1061.645	865.856
54.330	24.831	1061.183	864.909
55.344	24.928	1060.531	864.766
56.359	24.956	1058.972	863.556
57.374	24.723	1058.092	861.640
58.388	24.754	1057.588	861.300
59.403	24.607	1056.504	859.636
60.417	24.414	1055.786	858.046
61.432	24.599	1054.871	858.117
62.447	24.696	1054.592	858.280
63.461	24.822	1053.832	858.189
64.476	24.624	1052.951	856.446
65.490	24.573	1051.571	855.003
66.505	24.759	1050.823	855.210
67.520	24.719	1050.895	855.000
68.534	24.434	1049.686	852.581
69.549	24.237	1048.032	850.224
70.563	24.161	1047.778	849.580
71.578	24.203	1046.840	848.941
72.593	24.072	1045.872	847.461
73.607	24.238	1045.458	847.838
74.622	24.460	1045.125	848.548
75.636	24.515	1044.221	847.999
76.651	24.314	1043.118	846.076
77.666	24.344	1042.680	845.790
78.680	24.423	1041.864	845.427
79.695	24.475	1041.222	845.076
80.709	24.616	1040.893	845.402
81.724	24.458	1040.072	843.914
82.739	24.687	1038.986	844.040
83.753	24.977	1038.479	844.922
84.768	25.246	1037.816	845.576
85.782	25.339	1037.385	845.588
86.797	25.381	1035.629	844.279
87.812	25.157	1034.570	842.289
88.826	25.144	1034.193	841.845
89.841	25.181	1033.135	841.083
90.855	25.309	1032.067	840.738
91.870	25.217	1030.951	839.324
92.884	25.021	1030.262	837.774
93.899	24.997	1029.269	836.778
94.914	25.245	1028.410	837.164
95.928	25.009	1027.412	835.178
96.943	24.850	1026.076	833.279
97.957	24.419	1025.188	830.476
98.972	24.374	1023.854	829.116
99.987	24.761	1023.130	830.250
101.001	24.927	1022.482	830.424
102.016	24.859	1021.549	829.278
103.030	24.872	1020.724	828.593
104.045	24.755	1019.286	826.813
105.060	24.569	1018.560	825.291
106.074	24.641	1018.024	825.117
107.089	24.965	1017.718	826.288
108.103	24.903	1016.916	825.278
109.118	24.593	1015.157	822.351
110.133	24.750	1014.271	822.285
111.147	24.569	1012.697	820.103
112.162	24.346	1011.677	818.183
113.176	24.555	1011.691	819.080
114.191	24.473	1010.513	817.678
115.206	24.220	1009.318	815.481
116.220	24.164	1008.384	814.398
117.235	24.422	1007.819	815.049
118.249	24.294	1007.394	814.047
119.264	24.281	1006.042	812.827
120.279	24.349	1005.501	812.626
121.293	24.315	1004.715	811.765
122.308	24.237	1004.083	810.826
123.322	24.307	1002.660	809.922
124.337	24.177	1001.351	808.204
125.352	23.797	999.303	804.760
126.366	23.661	999.077	803.893
127.381	24.426	999.192	807.374
128.395	24.768	998.579	808.353
129.410	24.910	997.478	808.033
130.424	24.803	996.736	806.879
131.439	24.916	995.687	806.466
132.454	24.899	994.767	805.572
133.468	24.917	993.960	804.928
134.483	24.954	993.214	804.419
135.497	25.140	992.732	804.793
136.512	25.162	991.869	804.119
137.527	25.157	991.129	803.426
138.541	25.145	989.865	802.276
139.556	25.192	989.558	802.167
140.570	25.150	988.888	801.366
141.585	25.359	987.440	801.054
142.600	25.264	986.512	799.808
143.614	25.372	986.295	800.041
144.629	25.507	985.241	799.717
145.643	25.341	983.830	797.765
146.658	25.219	982.310	795.920
147.673	25.149	981.221	794.659
148.687	25.001	980.498	793.347
149.702	24.832	979.580	791.785
150.716	24.906	978.256	790.971
151.731	25.119	977.943	791.589
152.746	25.299	977.372	791.850
153.760	25.372	976.814	791.649
154.775	25.283	976.042	790.564
155.789	25.367	974.984	790.004
156.804	25.287	974.218	788.965
157.819	25.418	973.619	788.983
158.833	25.471	972.738	788.433
159.848	25.502	971.751	787.697
160.862	25.255	971.035	785.965
161.877	25.272	969.534	784.756
162.892	25.305	968.685	784.144
163.906	25.081	967.818	782.393
164.921	25.164	966.601	781.705
165.935	25.354	965.949	781.937
166.950	25.417	965.006	781.379
167.964	25.264	964.074	779.889
168.979	25.017	962.967	777.851
169.994	25.058	962.095	777.255
171.008	25.264	961.942	777.956
172.023	25.266	960.880	777.037
173.037	25.161	959.608	775.487
174.052	24.944	958.839	773.860
175.067	24.893	958.455	773.258
176.081	25.072	957.996	773.593
177.096	25.020	957.247	772.696
178.110	24.830	956.090	770.875
179.125	24.540	955.378	768.985
180.140	24.759	954.918	769.489
181.154	24.944	954.729	770.063
182.169	25.246	954.626	771.210
183.183	25.204	954.617	770.955
184.198	25.172	953.479	769.831
185.213	25.260	952.176	769.088
186.227	25.370	951.761	769.157
187.242	25.259	951.285	768.229
188.256	25.409	950.455	768.130
189.271	25.446	949.843	767.726
190.286	24.986	948.942	764.965
191.300	24.479	947.286	761.402
192.315	23.567	945.653	756.139
193.329	23.462	945.210	755.268
194.344	24.526	945.617	760.057
195.359	25.162	945.387	762.513
196.373	25.252	945.150	762.636
197.388	25.117	944.312	761.320
198.402	25.170	944.077	761.286
199.417	25.159	943.334	760.573
200.432	24.985	941.924	758.631
201.446	24.707	941.611	757.135
202.461	24.856	940.786	757.036
203.475	24.002	938.986	751.915
204.490	23.243	937.492	747.448
205.504	24.059	937.915	751.166
206.519	24.680	938.096	753.861
207.534	24.934	937.171	754.123
208.548	25.202	937.345	755.325
209.563	24.919	936.219	753.158
210.577	24.986	935.687	752.944
211.592	25.313	935.297	753.937
212.607	25.307	934.572	753.265
213.621	25.386	934.117	753.160
214.636	25.394	933.169	752.363
215.650	25.381	932.460	751.672
216.665	25.436	932.130	751.568
217.680	25.279	931.420	750.274
218.694	24.990	930.194	748.013
219.709	24.787	929.447	746.500
220.723	25.074	929.184	747.418
221.738	25.275	928.308	747.486
222.753	25.175	927.703	746.514
223.767	25.330	927.318	746.784
224.782	25.519	927.038	747.279
225.796	25.392	926.518	746.267
226.811	24.839	924.770	742.501
227.826	24.155	923.768	738.793
228.840	24.315	923.383	739.082
229.855	24.500	922.479	739.060
230.869	24.111	921.388	736.512
231.884	24.504	921.252	737.960
232.899	25.263	921.568	741.286
233.913	25.166	920.996	740.360
234.928	24.968	920.602	739.159
235.942	24.962	919.829	738.450
236.957	24.656	918.784	736.287
237.972	24.831	918.203	736.476
238.986	24.809	917.842	736.029
240.001	24.815	917.012	735.323
241.015	24.870	916.615	735.164
242.030	25.186	916.297	736.144
243.045	25.131	916.006	735.618
244.059	25.341	915.276	735.829
245.074	25.226	914.151	734.389
246.088	24.822	913.216	731.919
247.103	25.235	912.936	733.318
248.117	25.645	913.363	735.271
249.132	25.765	913.020	735.420
250.147	25.804	912.630	735.202
251.161	26.026	912.228	735.718
252.176	25.955	911.252	734.577
253.190	26.115	910.654	734.681
254.205	26.366	909.964	735.078
255.220	26.178	909.243	733.670
256.234	26.010	909.007	732.729
257.249	25.895	908.240	731.583
258.263	26.043	907.441	731.472
259.278	26.048	906.853	730.956
260.293	26.197	906.100	730.886
261.307	26.009	905.356	729.459
262.322	25.942	904.453	728.398
263.336	25.193	902.478	723.722
264.351	24.192	900.424	717.982
265.366	24.214	900.550	718.106
266.380	25.219	901.312	722.699
267.395	25.712	901.152	724.491
268.409	25.750	899.968	723.629
269.424	25.953	899.625	724.104
270.439	25.878	899.151	723.360
271.453	25.857	898.841	722.959
272.468	26.220	897.916	723.609
273.482	26.320	897.153	723.331
274.497	25.718	896.482	720.314
275.512	25.440	895.397	718.268
276.526	25.841	895.536	719.919
277.541	25.879	895.693	720.133
278.555	25.655	894.604	718.302
279.570	25.610	893.454	717.133
280.585	25.736	893.333	717.478
281.599	25.653	892.599	716.492
282.614	25.038	890.698	712.457
283.628	25.057	890.283	712.139
284.643	25.439	890.561	713.816
285.657	25.194	888.889	711.441
286.672	24.794	888.603	709.563
287.687	25.417	888.045	711.524
288.701	25.514	887.630	711.511
289.716	25.194	886.469	709.256
290.730	25.154	886.369	708.954
291.745	24.801	885.205	706.564
292.760	25.125	884.980	707.602
293.774	25.998	886.163	711.935
294.789	26.368	885.343	712.670
295.803	26.353	884.772	712.090
296.818	26.559	883.533	711.840
297.833	26.065	882.699	709.164
298.847	25.743	882.272	707.492
299.862	26.270	881.572	708.935
300.876	26.460	881.541	709.595
301.891	26.308	880.672	708.235
302.906	25.978	879.952	706.302
303.920	26.024	879.669	706.194
304.935	26.426	879.342	707.441
305.949	26.319	878.347	706.159
306.964	26.076	877.640	704.581
307.979	26.104	877.687	704.665
308.993	26.470	877.384	705.786
310.008	26.526	876.364	705.122
311.022	26.379	875.529	703.813
312.037	26.037	875.023	702.017
313.052	25.894	874.451	700.939
314.066	24.975	872.405	695.668
315.081	24.477	872.047	693.388
316.095	25.400	872.323	697.129
317.110	26.005	872.013	699.165
318.125	25.208	870.405	694.731
319.139	24.275	868.796	689.775
320.154	24.137	868.647	689.065
321.168	24.777	869.494	692.152
322.183	25.771	869.020	695.554
323.197	25.973	868.535	695.886
324.212	26.259	868.244	696.694
325.227	26.193	867.695	695.936
326.241	26.150	866.834	695.018
327.256	25.932	866.681	693.995
328.270	25.803	866.074	692.953
329.285	25.584	864.782	691.015
330.300	25.365	864.492	689.882
331.314	25.718	863.567	690.439
332.329	26.241	863.526	692.350
333.343	26.226	863.367	692.104
334.358	26.105	863.246	691.480
335.373	26.330	862.900	692.005
336.387	26.605	862.727	692.856
337.402	26.758	862.531	693.221
338.416	26.489	862.279	691.930
339.431	26.724	861.855	692.426
340.446	26.880	861.194	692.428
341.460	26.699	860.928	691.465
342.475	26.609	859.991	690.307
343.489	26.782	859.563	690.562
344.504	27.006	859.507	691.307
345.519	27.121	859.580	691.744
346.533	27.178	858.682	691.178
347.548	27.063	857.914	690.062
348.562	26.994	857.612	689.492
349.577	26.977	857.097	688.954
350.592	26.889	856.545	688.115
351.606	27.052	855.726	688.016
352.621	26.817	854.745	686.276
353.635	26.660	854.502	685.428
354.650	26.148	852.326	681.688
355.665	25.262	850.731	677.012
356.679	25.590	850.942	678.355
357.694	26.210	850.541	680.314
358.708	25.933	849.982	678.762
359.723	26.366	849.884	680.255
360.738	26.658	849.309	680.832
361.752	26.837	849.112	681.286
362.767	27.093	848.740	681.888
363.781	27.321	848.346	682.366
364.796	27.460	848.059	682.596
365.810	27.529	847.589	682.417
366.825	27.383	846.911	681.264
367.840	26.959	846.538	679.318
368.854	26.598	845.419	677.008
369.869	26.798	844.783	677.186
370.883	26.908	844.063	676.959
371.898	26.723	843.777	675.979
372.913	26.937	843.444	676.451
373.927	26.952	842.931	676.036
374.942	26.889	843.299	676.037
375.956	27.141	842.356	676.160
376.971	27.194	842.310	676.258
377.986	27.495	841.703	676.831
379.000	27.337	841.227	675.803
380.015	27.203	840.460	674.629
381.029	27.315	839.833	674.481
382.044	27.286	839.622	674.145
383.059	27.359	838.863	673.745
384.073	27.346	838.212	673.113
385.088	27.397	837.460	672.639
386.102	27.087	836.922	671.003
387.117	27.101	836.207	670.423
388.132	26.698	835.025	667.930
389.146	26.389	833.914	665.844
390.161	26.853	833.969	667.538
391.175	27.181	833.869	668.604
392.190	26.886	832.934	666.711
393.205	25.483	830.595	659.636
394.219	23.885	828.700	652.218
395.234	23.817	828.725	651.930
396.248	25.312	830.215	658.531
397.263	26.967	830.970	665.143
398.278	26.825	831.062	664.638
399.292	26.633	829.782	662.851
400.307	26.726	829.152	662.631
401.321	26.753	829.260	662.755
402.336	27.107	828.742	663.579
403.350	27.515	828.718	664.987
404.365	27.885	828.761	666.315
405.380	28.138	828.303	666.809
406.394	28.200	827.614	666.421
407.409	28.179	827.224	665.974
408.423	27.925	826.845	664.683
409.438	27.999	826.860	664.906
410.453	28.127	826.397	664.942
411.467	28.036	825.675	663.970
412.482	28.035	825.349	663.645
413.496	28.218	825.047	664.009
414.511	28.147	824.938	663.605
415.526	28.267	823.960	663.194
416.540	27.866	823.407	661.239
417.555	27.540	822.617	659.367
418.569	27.754	821.952	659.550
419.584	27.729	821.918	659.372
420.599	27.560	820.980	657.951
421.613	103.561	1281.184	1432.251
422.628	89.552	1348.258	1432.339
