DTS Sentinel unit serial number:	SN413079Multiplexer serial number:	ORYXHardware model number:	OX4-SRSoftware version number:	ORYX F/W v4.00 Oryx Data Collector v3.7.2.0data status	okinstallation	princeton_trtdifferential loss correction	single-endedforward channel	channel 1reverse channel	N/Adate	2019/09/16time	07:54:35forward acquisition time	60.00reverse acquisition time	0.00gamma	496.2192k internal	0.2328k external	0.2328temperature offset calibration	0.9980default loss term (dB/km)	0.3790temperature slope calibration	1.0000multiplexer offset coefficient	1.0000multiplexer slope coefficient	1.0000fibre end	0.00T internal ref (°C)	28.30T ext. ref 1 (°C)	11.74T ext. ref 2 (°C)	24.69length (m)	temperature (°C)	Stokes	anti-Stokes-747.200	558.220	0.114	0.277
-746.185	11.345	-0.354	0.274
-745.171	-200.000	-0.015	0.375
-744.156	135.605	0.167	0.219
-743.142	-11.266	-0.320	-0.213
-742.127	-200.000	-0.015	-0.147
-741.112	-148.024	-0.232	0.019
-740.098	800.000	0.048	0.180
-739.083	-200.000	0.003	0.064
-738.069	-137.179	-0.285	-0.033
-737.054	-7.529	-0.213	0.145
-736.039	-200.000	0.058	-0.344
-735.025	-110.044	0.511	-0.108
-734.010	-3.775	-0.272	-0.191
-732.996	51.271	-0.100	0.095
-731.981	143.848	-0.091	-0.122
-730.966	-45.893	-0.257	0.128
-729.952	-200.000	0.034	-0.158
-728.937	505.176	-0.087	0.203
-727.923	0.893	-0.031	-0.022
-726.908	800.000	-0.061	-0.213
-725.894	92.396	-0.097	-0.110
-724.879	683.446	-0.084	-0.219
-723.864	800.000	-0.065	0.277
-722.850	194.191	0.076	0.116
-721.835	-131.921	-0.139	0.018
-720.821	36.286	0.143	-0.127
-719.806	-60.546	-0.180	0.077
-718.791	218.627	-0.192	0.308
-717.777	-72.608	0.018	-0.007
-716.762	87.801	-0.370	0.413
-715.748	120.921	0.045	-0.056
-714.733	-200.000	0.064	0.293
-713.718	800.000	0.029	-0.099
-712.704	-197.487	0.160	0.001
-711.689	78.989	-0.274	0.295
-710.675	-112.771	0.162	-0.032
-709.660	-66.678	0.121	0.048
-708.645	-106.483	-0.180	-0.040
-707.631	-11.622	0.090	-0.059
-706.616	-45.478	-0.389	0.194
-705.602	800.000	0.037	-0.118
-704.587	-98.045	-0.136	-0.035
-703.572	158.371	0.137	-0.191
-702.558	-200.000	-0.027	0.187
-701.543	-111.902	0.389	0.079
-700.529	800.000	0.062	-0.267
-699.514	-97.792	0.272	-0.071
-698.499	-47.150	-0.068	0.033
-697.485	96.209	-0.282	0.324
-696.470	-42.926	0.363	0.186
-695.456	-200.000	0.034	0.374
-694.441	142.054	-0.117	0.156
-693.426	78.150	-0.270	0.289
-692.412	800.000	0.039	0.129
-691.397	800.000	-0.083	0.295
-690.383	-200.000	0.082	0.397
-689.368	-144.459	0.160	0.015
-688.354	-136.326	-0.333	0.039
-687.339	-200.000	-0.010	-0.198
-686.324	-148.998	0.307	0.025
-685.310	-36.530	0.214	-0.116
-684.295	184.211	-0.146	0.217
-683.281	-107.739	0.305	-0.067
-682.266	800.000	-0.092	0.316
-681.251	-200.000	-0.032	-0.191
-680.237	-200.000	0.011	0.134
-679.222	504.712	0.091	0.213
-678.208	14.682	-0.083	-0.065
-677.193	-200.000	-0.024	-0.142
-676.178	5.721	0.152	-0.113
-675.164	-92.829	0.409	-0.115
-674.149	-66.083	-0.286	0.115
-673.135	0.856	-0.323	-0.233
-672.120	413.822	-0.108	0.230
-671.105	800.000	0.034	0.142
-670.091	-11.025	0.375	-0.249
-669.076	3.930	0.188	0.138
-668.062	150.580	0.168	-0.229
-667.047	-200.000	0.011	0.538
-666.032	-15.209	0.166	-0.107
-665.018	185.396	0.092	0.138
-664.003	371.013	-0.165	-0.337
-662.989	-51.626	-0.047	0.022
-661.974	157.805	-0.235	0.327
-660.959	-22.521	-0.177	0.108
-659.945	-160.846	-0.331	-0.018
-658.930	-67.646	-0.264	0.104
-657.916	240.106	0.121	0.203
-656.901	-31.726	0.057	-0.032
-655.886	95.457	0.120	0.138
-654.872	7.114	0.050	-0.037
-653.857	-135.508	0.180	0.021
-652.843	165.969	-0.134	0.190
-651.828	379.630	-0.249	0.511
-650.814	-200.000	-0.021	0.224
-649.799	-122.389	-0.212	-0.035
-648.784	768.412	0.115	-0.314
-647.770	800.000	-0.053	-0.182
-646.755	106.639	0.063	-0.075
-645.741	345.234	0.218	0.429
-644.726	-15.217	-0.167	-0.107
-643.711	-19.785	-0.094	0.059
-642.697	-28.576	0.194	0.112
-641.682	-6.043	-0.056	0.038
-640.668	460.678	-0.081	0.181
-639.653	-132.106	-0.126	0.016
-638.638	-85.116	0.124	0.039
-637.624	164.226	-0.253	0.358
-636.609	-164.197	-0.057	0.003
-635.595	622.581	-0.033	0.083
-634.580	-200.000	0.009	-0.117
-633.565	800.000	-0.046	0.170
-632.551	-8.373	0.158	-0.106
-631.536	-114.023	-0.292	0.057
-630.522	-41.072	0.117	-0.061
-629.507	521.356	-0.075	-0.177
-628.492	-134.053	0.143	0.018
-627.478	319.006	0.028	-0.053
-626.463	-166.504	0.113	0.005
-625.449	-112.743	-0.237	0.047
-624.434	-88.275	-0.124	-0.037
-623.419	-79.624	-0.186	0.063
-622.405	10.530	-0.024	-0.018
-621.390	17.210	-0.043	-0.034
-620.376	-166.366	0.158	0.007
-619.361	97.245	-0.142	0.163
-618.346	-145.742	-0.431	0.039
-617.332	588.603	-0.066	0.163
-616.317	251.941	-0.160	0.273
-615.303	-162.491	-0.313	0.016
-614.288	80.251	-0.171	0.185
-613.273	-109.345	-0.354	-0.075
-612.259	800.000	-0.082	-0.329
-611.244	-200.000	-0.003	-0.204
-610.230	-86.885	-0.341	-0.104
-609.215	197.546	0.139	0.213
-608.201	3.922	-0.075	0.055
-607.186	800.000	0.060	0.172
-606.171	-60.506	-0.090	0.038
-605.157	-43.408	-0.072	0.036
-604.142	82.128	0.024	0.027
-603.128	148.407	-0.109	-0.147
-602.113	623.920	0.117	0.295
-601.098	234.219	0.086	0.142
-600.084	155.677	0.086	-0.119
-599.069	281.606	0.031	-0.055
-598.055	-76.678	-0.371	0.130
-597.040	-64.680	-0.229	0.093
-596.025	389.405	0.076	-0.158
-595.011	15.802	0.199	0.156
-593.996	13.733	-0.302	-0.235
-592.982	46.696	-0.148	0.138
-591.967	-119.030	-0.204	-0.036
-590.952	-168.152	-0.171	0.007
-589.938	0.313	0.174	0.124
-588.923	-3.749	-0.227	0.158
-587.909	497.624	-0.066	-0.151
-586.894	704.707	0.118	-0.311
-585.879	-110.818	-0.086	0.018
-584.865	66.717	-0.352	0.359
-583.850	7.366	0.233	0.174
-582.836	193.430	0.161	-0.244
-581.821	-190.983	-0.125	0.001
-580.806	800.000	-0.094	0.275
-579.792	9.162	-0.089	0.067
-578.777	328.964	-0.208	0.400
-577.763	-63.674	-0.134	-0.055
-576.748	31.057	0.096	0.082
-575.733	242.953	-0.107	-0.180
-574.719	455.649	0.060	0.133
-573.704	-21.729	0.141	0.086
-572.690	-53.645	-0.153	-0.070
-571.675	800.000	-0.076	0.275
-570.661	405.586	-0.083	-0.174
-569.646	800.000	0.101	-0.280
-568.631	17.053	-0.007	0.006
-567.617	-144.443	-0.300	0.028
-566.602	52.042	0.114	-0.109
-565.588	18.043	-0.184	-0.147
-564.573	29.860	-0.184	0.157
-563.558	800.000	0.013	0.043
-562.544	508.936	-0.062	0.145
-561.529	98.052	0.171	-0.196
-560.515	202.854	-0.054	-0.083
-559.500	28.544	-0.118	-0.100
-558.485	20.979	-0.109	-0.089
-557.471	52.256	-0.331	-0.316
-556.456	523.629	0.137	-0.323
-555.442	800.000	-0.121	0.403
-554.427	-42.332	-0.349	0.178
-553.412	800.000	0.137	0.427
-552.398	166.706	-0.304	0.432
-551.383	217.114	-0.071	-0.113
-550.369	98.957	-0.198	0.228
-549.354	800.000	0.098	-0.325
-548.339	-200.000	0.021	-0.107
-547.325	-200.000	-0.072	-0.369
-546.310	-76.694	-0.183	-0.064
-545.296	-1.525	0.331	0.233
-544.281	33.278	-0.109	0.095
-543.266	27.961	-0.094	0.080
-542.252	800.000	-0.084	0.276
-541.237	-83.713	-0.237	-0.076
-540.223	69.717	-0.154	0.158
-539.208	-104.526	0.063	0.015
-538.193	-2.907	-0.106	0.074
-537.179	-126.957	0.128	0.019
-536.164	-11.642	-0.123	-0.081
-535.150	334.932	0.088	0.170
-534.135	82.138	0.117	0.126
-533.121	452.399	-0.067	0.148
-532.106	314.266	-0.112	-0.210
-531.091	-128.750	-0.195	0.027
-530.077	178.484	0.122	0.178
-529.062	-200.000	-0.017	-0.098
-528.048	222.267	0.132	0.212
-527.033	-45.226	-0.106	-0.053
-526.018	299.946	0.052	0.095
-525.004	-200.000	-0.014	0.129
-523.989	22.715	-0.233	-0.190
-522.975	-111.450	-0.215	-0.044
-521.960	99.176	0.072	-0.083
-520.945	127.714	-0.114	-0.145
-519.931	-0.865	0.164	-0.116
-518.916	-30.190	-0.027	-0.015
-517.902	-61.899	-0.074	0.031
-516.887	393.645	0.167	0.347
-515.872	124.968	-0.197	0.247
-514.858	-79.354	-0.286	-0.097
-513.843	-185.194	-0.270	-0.004
-512.829	232.058	0.118	0.194
-511.814	25.799	0.203	-0.169
-510.799	-200.000	-0.005	-0.146
-509.785	-36.078	-0.291	-0.157
-508.770	495.735	0.103	-0.235
-507.756	800.000	-0.130	0.440
-506.741	-48.452	-0.174	-0.084
-505.726	-187.468	0.092	-0.001
-504.712	-200.000	-0.034	0.163
-503.697	800.000	0.075	0.260
-502.683	-79.413	0.089	0.030
-501.668	-6.670	-0.102	-0.069
-500.653	-32.156	-0.230	0.128
-499.639	-171.441	0.099	-0.003
-498.624	-184.124	0.296	-0.005
-497.610	-200.000	-0.299	-0.001
-496.595	89.841	-0.178	-0.199
-495.581	-200.000	0.032	-0.366
-494.566	-121.515	0.219	-0.036
-493.551	800.000	0.083	0.259
-492.537	-99.703	-0.213	-0.053
-491.522	-40.523	0.298	-0.154
-490.508	800.000	-0.018	-0.058
-489.493	-200.000	-0.003	0.163
-488.478	390.933	0.104	0.215
-487.464	242.614	-0.123	0.205
-486.449	109.611	-0.067	0.080
-485.435	-200.000	-0.093	-0.472
-484.420	40.973	0.170	-0.153
-483.405	601.787	0.050	-0.125
-482.391	-92.108	0.242	0.068
-481.376	800.000	0.125	-0.461
-480.362	43.816	0.205	0.188
-479.347	-182.951	0.173	0.003
-478.332	800.000	-0.110	0.464
-477.318	134.274	-0.080	0.103
-476.303	0.002	0.224	0.159
-475.289	800.000	-0.069	-0.260
-474.274	80.497	0.035	0.037
-473.259	32.358	-0.076	-0.065
-472.245	30.757	-0.272	-0.232
-471.230	-65.674	-0.387	-0.154
-470.216	719.895	0.104	-0.276
-469.201	800.000	0.044	-0.131
-468.186	333.671	0.117	0.226
-467.172	-77.276	0.206	0.071
-466.157	290.140	-0.127	0.230
-465.143	-97.864	-0.235	0.060
-464.128	-42.392	0.298	-0.152
-463.113	-30.035	-0.285	-0.161
-462.099	23.024	-0.169	0.138
-461.084	-154.003	0.075	-0.005
-460.070	-23.147	0.035	-0.021
-459.055	800.000	-0.029	0.099
-458.040	6.378	-0.133	-0.098
-457.026	27.555	0.189	0.159
-456.011	-145.552	-0.126	0.011
-454.997	36.587	0.330	0.290
-453.982	340.658	-0.065	-0.126
-452.968	800.000	0.032	-0.113
-451.953	-43.545	-0.199	-0.100
-450.938	-103.561	0.379	-0.089
-449.924	-4.951	0.232	0.159
-448.909	-200.000	-0.031	0.220
-447.895	-200.000	0.023	-0.150
-446.880	800.000	-0.057	0.179
-445.865	-200.000	0.030	0.357
-444.851	135.154	-0.061	-0.079
-443.836	137.513	0.170	0.222
-442.822	625.780	0.062	-0.156
-441.807	229.444	-0.146	-0.237
-440.792	32.371	-0.181	-0.156
-439.778	268.500	-0.122	-0.214
-438.763	40.792	0.104	0.093
-437.749	11.921	-0.126	-0.096
-436.734	-107.505	-0.399	0.087
-435.719	-200.000	0.025	0.155
-434.705	-116.084	0.143	0.027
-433.690	-183.109	-0.144	-0.003
-432.676	70.697	-0.093	-0.096
-431.661	-68.280	0.182	0.070
-430.646	-46.485	-0.271	0.133
-429.632	800.000	0.084	0.297
-428.617	-105.953	0.385	0.086
-427.603	-116.365	0.224	-0.041
-426.588	-168.312	0.243	0.009
-425.573	800.000	0.072	-0.250
-424.559	99.099	0.238	-0.273
-423.544	486.353	0.051	-0.116
-422.530	800.000	0.032	-0.131
-421.515	800.000	0.120	-0.397
-420.500	-92.531	0.326	-0.091
-419.486	-0.616	0.145	-0.102
-418.471	117.136	-0.100	0.123
-417.457	419.424	0.045	-0.095
-416.442	-76.492	0.187	-0.065
-415.428	76.659	-0.234	0.247
-414.413	328.955	0.042	-0.079
-413.398	9.528	0.254	-0.192
-412.384	-135.909	0.352	-0.041
-411.369	23.925	-0.290	0.238
-410.355	-200.000	-0.002	-0.042
-409.340	-200.000	-0.040	0.320
-408.325	81.403	0.160	-0.172
-407.311	800.000	0.039	-0.147
-406.296	-200.000	0.007	0.123
-405.282	101.745	0.127	-0.147
-404.267	334.469	-0.141	0.271
-403.252	800.000	0.029	-0.084
-402.238	144.400	-0.145	0.193
-401.223	389.895	-0.143	-0.294
-400.209	145.706	0.063	-0.083
-399.194	415.119	0.055	-0.117
-398.179	-120.429	-0.302	-0.051
-397.165	76.146	0.066	0.069
-396.150	34.765	-0.185	0.161
-395.136	800.000	-0.121	-0.347
-394.121	-33.500	0.118	-0.065
-393.106	125.822	0.053	0.067
-392.092	-26.688	-0.321	-0.187
-391.077	-200.000	0.056	-0.320
-390.063	-146.212	-0.346	0.030
-389.048	736.620	0.138	0.368
-388.033	130.785	0.111	0.141
-387.019	-115.251	0.085	0.016
-386.004	-132.628	0.136	0.017
-384.990	200.021	-0.204	-0.311
-383.975	-10.078	-0.105	-0.069
-382.960	-125.694	0.363	0.055
-381.946	800.000	-0.016	0.063
-380.931	800.000	0.051	-0.178
-379.917	-200.000	-0.046	0.207
-378.902	800.000	0.068	0.205
-377.888	197.553	-0.088	-0.133
-376.873	74.577	0.151	-0.157
-375.858	-200.000	0.033	-0.265
-374.844	-200.000	-0.015	-0.147
-373.829	800.000	-0.035	-0.111
-372.815	-157.176	0.256	-0.015
-371.800	800.000	-0.065	-0.180
-370.785	-200.000	-0.018	-0.368
-369.771	-101.815	0.185	-0.044
-368.756	-33.293	0.116	-0.064
-367.742	522.927	0.096	0.224
-366.727	-7.720	-0.143	0.096
-365.712	-64.019	0.173	0.070
-364.698	-200.000	-0.004	-0.191
-363.683	-115.203	0.057	0.011
-362.669	-74.069	-0.159	-0.057
-361.654	-200.000	0.009	0.100
-360.639	-6.130	0.031	-0.021
-359.625	-132.514	-0.041	-0.005
-358.610	-56.676	-0.333	0.147
-357.596	133.937	0.099	-0.128
-356.581	-42.358	-0.058	0.030
-355.566	-126.840	0.263	-0.038
-354.552	-16.102	0.277	-0.175
-353.537	-200.000	0.045	0.353
-352.523	-200.000	-0.027	0.323
-351.508	74.962	-0.136	0.142
-350.493	237.186	0.093	0.153
-349.479	-109.688	-0.260	-0.054
-348.464	-108.783	0.223	0.047
-347.450	38.496	0.222	0.196
-346.435	-144.252	-0.325	0.030
-345.420	-97.702	-0.142	-0.037
-344.406	191.447	-0.086	0.128
-343.391	800.000	0.162	-0.482
-342.377	-200.000	-0.041	0.188
-341.362	56.449	0.141	-0.136
-340.348	86.471	-0.215	-0.235
-339.333	-200.000	-0.047	-0.341
-338.318	296.650	-0.021	-0.038
-337.304	-200.000	-0.035	0.237
-336.289	800.000	-0.055	0.162
-335.275	361.145	0.110	0.219
-334.260	-58.929	-0.132	0.057
-333.245	217.269	0.190	-0.300
-332.231	-200.000	0.007	0.217
-331.216	-58.055	0.334	0.145
-330.202	518.586	0.067	-0.155
-329.187	800.000	0.077	-0.315
-328.172	-46.762	0.194	-0.094
-327.158	-105.926	-0.196	-0.044
-326.143	-26.434	0.198	-0.115
-325.129	-31.599	0.230	-0.128
-324.114	-200.000	0.038	0.253
-323.099	-200.000	0.004	-0.132
-322.085	800.000	-0.069	0.281
-321.070	122.573	0.077	-0.095
-320.056	800.000	-0.073	-0.214
-319.041	-200.000	-0.311	0.001
-318.026	662.473	-0.127	0.326
-317.012	-34.646	0.283	0.154
-315.997	94.126	0.101	-0.113
-314.983	-89.634	0.328	0.095
-313.968	-117.497	-0.146	0.026
-312.953	40.649	0.118	0.106
-311.939	800.000	-0.062	0.215
-310.924	800.000	-0.106	0.344
-309.910	-81.830	-0.011	0.004
-308.895	-200.000	-0.018	0.176
-307.880	56.105	0.240	0.231
-306.866	202.173	0.091	0.139
-305.851	-100.617	0.208	-0.051
-304.837	-117.118	0.162	-0.029
-303.822	-141.397	0.396	0.040
-302.807	14.923	-0.187	0.145
-301.793	37.599	0.160	0.141
-300.778	190.374	-0.098	0.146
-299.764	227.310	0.064	-0.104
-298.749	-16.118	0.430	-0.271
-297.735	46.403	-0.168	-0.154
-296.720	-101.812	-0.065	-0.016
-295.705	437.830	-0.108	-0.234
-294.691	57.704	0.074	-0.071
-293.676	91.502	0.114	-0.127
-292.662	-30.951	-0.079	-0.044
-291.647	800.000	0.080	0.297
-290.632	-33.656	0.150	0.082
-289.618	46.242	-0.164	-0.151
-288.603	-200.000	-0.014	0.181
-287.589	150.788	-0.281	-0.379
-286.574	-53.931	0.257	0.116
-285.559	191.171	-0.146	-0.218
-284.545	-200.000	-0.077	-0.353
-283.530	577.585	-0.057	0.139
-282.516	348.496	-0.099	-0.194
-281.501	-20.432	0.100	0.061
-280.486	-125.430	0.078	0.012
-279.472	-18.842	0.260	-0.160
-278.457	-126.311	0.131	0.019
-277.443	229.277	0.144	0.233
-276.428	-16.515	0.252	-0.158
-275.413	-138.492	-0.165	-0.018
-274.399	-32.776	0.419	-0.230
-273.384	35.411	-0.148	-0.128
-272.370	-66.756	-0.163	-0.064
-271.355	-140.111	0.273	-0.028
-270.340	-200.000	-0.012	0.094
-269.326	800.000	0.112	0.343
-268.311	-95.427	0.090	-0.024
-267.297	155.892	-0.119	-0.162
-266.282	-200.000	0.048	0.447
-265.267	-111.816	0.300	0.060
-264.253	-200.000	-0.003	0.089
-263.238	93.490	0.059	-0.066
-262.224	468.515	-0.157	0.348
-261.209	188.850	0.160	0.236
-260.195	-161.160	0.053	-0.003
-259.180	66.404	-0.071	0.072
-258.165	-76.478	0.133	0.046
-257.151	-27.479	0.291	0.167
-256.136	16.926	-0.110	0.086
-255.122	62.607	-0.131	-0.129
-254.107	332.701	-0.062	0.118
-253.092	-68.612	0.208	0.080
-252.078	-113.560	-0.229	0.044
-251.063	-80.619	0.177	0.058
-250.049	-200.000	0.001	-0.332
-249.034	800.000	0.058	0.162
-248.019	-28.680	0.358	-0.203
-247.005	45.180	0.083	-0.075
-245.990	-9.370	0.106	-0.070
-244.976	82.034	0.357	0.383
-243.961	800.000	-0.145	-0.425
-242.946	102.239	0.076	-0.088
-241.932	76.114	0.158	0.165
-240.917	-200.000	0.036	-0.233
-239.903	-40.548	0.073	-0.037
-238.888	326.784	0.195	0.370
-237.873	247.629	0.116	-0.193
-236.859	800.000	-0.030	0.104
-235.844	-127.986	-0.061	0.009
-234.830	-118.922	0.071	-0.012
-233.815	-93.324	-0.255	0.070
-232.800	-200.000	0.021	0.138
-231.786	-82.193	0.125	0.040
-230.771	800.000	-0.103	0.405
-229.757	-126.472	0.187	-0.027
-228.742	84.836	0.071	0.077
-227.727	-200.000	-0.037	0.321
-226.713	800.000	0.063	-0.186
-225.698	-100.204	0.192	0.047
-224.684	-28.867	-0.103	-0.058
-223.669	81.269	0.344	-0.367
-222.655	145.463	0.145	-0.192
-221.640	800.000	-0.049	-0.155
-220.625	-55.577	-0.145	-0.064
-219.611	30.942	0.361	-0.306
-218.596	-123.053	-0.263	0.042
-217.582	-134.019	-0.389	0.048
-216.567	7.521	0.371	-0.274
-215.552	-200.000	0.013	0.063
-214.538	49.955	0.167	-0.156
-213.523	-100.659	0.574	0.140
-212.509	143.909	-0.110	-0.145
-211.494	-38.250	0.053	0.028
-210.479	-200.000	0.038	0.338
-209.465	800.000	-0.074	-0.283
-208.450	71.572	0.131	0.134
-207.436	-91.340	-0.100	-0.028
-206.421	379.104	0.105	0.212
-205.406	-61.143	0.396	-0.165
-204.392	541.378	-0.070	-0.164
-203.377	-15.149	-0.121	-0.077
-202.363	-200.000	-0.001	0.097
-201.348	584.547	-0.163	-0.394
-200.333	59.187	0.333	-0.324
-199.319	164.645	-0.118	0.165
-198.304	-38.798	-0.239	0.124
-197.290	22.020	-0.120	0.097
-196.275	-200.000	0.022	-0.299
-195.260	61.309	-0.143	-0.140
-194.246	140.906	-0.241	0.314
-193.231	49.190	0.201	-0.186
-192.217	57.567	0.180	0.174
-191.202	-137.995	-0.011	-0.001
-190.187	-81.399	0.212	-0.069
-189.173	-200.000	-0.024	0.117
-188.158	800.000	0.032	-0.119
-187.144	236.999	0.214	-0.350
-186.129	255.944	-0.112	0.190
-185.114	557.819	-0.080	-0.190
-184.100	-112.214	-0.179	-0.035
-183.085	-123.067	-0.151	0.024
-182.071	800.000	-0.132	-0.386
-181.056	10.279	0.073	-0.055
-180.042	-102.794	-0.263	-0.062
-179.027	74.991	-0.156	0.162
-178.012	-141.534	0.030	-0.003
-176.998	-179.459	0.218	0.005
-175.983	39.317	0.140	0.123
-174.969	-200.000	-0.024	0.118
-173.954	45.446	0.187	-0.170
-172.939	-169.183	-0.119	-0.004
-171.925	-138.334	-0.386	-0.042
-170.910	-106.244	-0.121	-0.027
-169.896	-95.696	-0.096	-0.025
-168.881	-111.837	0.139	-0.028
-167.866	-193.185	0.082	0.001
-166.852	-159.476	0.139	-0.008
-165.837	800.000	-0.065	0.236
-164.823	327.417	0.102	-0.192
-163.808	74.154	-0.079	0.082
-162.793	34.896	0.417	-0.360
-161.779	-53.719	0.214	0.096
-160.764	-88.361	-0.100	0.029
-159.750	-38.087	-0.193	0.101
-158.735	-73.808	0.106	0.038
-157.720	-69.003	-0.460	-0.175
-156.706	-10.495	-0.099	-0.065
-155.691	47.351	-0.131	0.120
-154.677	-123.832	0.078	-0.012
-153.662	-41.082	-0.225	0.115
-152.647	82.720	0.174	-0.186
-151.633	-200.000	-0.074	-0.355
-150.618	-147.957	0.324	0.027
-149.604	-74.014	0.198	0.071
-148.589	-52.052	0.155	-0.071
-147.574	53.896	0.441	0.417
-146.560	-129.292	-0.191	-0.026
-145.545	-126.230	0.085	-0.012
-144.531	-117.339	0.188	0.034
-143.516	-17.315	0.243	-0.151
-142.502	800.000	0.019	-0.057
-141.487	9.332	0.120	0.089
-140.472	-116.927	-0.256	0.046
-139.458	-200.000	0.100	-0.494
-138.443	721.397	0.032	-0.085
-137.429	-37.577	-0.150	-0.079
-136.414	-53.835	0.215	-0.097
-135.399	47.662	-0.408	0.374
-134.385	-167.626	-0.139	0.005
-133.370	-200.000	-0.188	0.000
-132.356	-23.960	-0.159	-0.094
-131.341	-200.000	0.015	0.222
-130.326	63.855	-0.099	0.097
-129.312	-9.138	0.307	-0.202
-128.297	800.000	0.063	-0.249
-127.283	-28.668	0.287	0.163
-126.268	-89.319	0.234	0.068
-125.253	-104.995	-0.159	0.036
-124.239	-31.898	-0.268	0.147
-123.224	-83.070	-0.080	0.025
-122.210	409.972	-0.082	0.170
-121.195	-121.481	-0.295	-0.048
-120.180	75.432	0.077	0.080
-119.166	1.951	0.105	-0.075
-118.151	-39.625	0.199	0.102
-117.137	-115.735	0.217	0.040
-116.122	-200.000	0.027	0.208
-115.107	-198.102	-0.107	-0.001
-114.093	290.348	0.089	0.159
-113.078	-179.818	0.160	0.003
-112.064	533.776	0.059	-0.137
-111.049	-151.752	0.364	-0.026
-110.034	334.168	-0.160	0.304
-109.020	-200.000	0.015	-0.089
-108.005	-31.946	0.092	0.051
-106.991	555.070	-0.073	-0.173
-105.976	171.409	-0.077	0.109
-104.962	7.087	-0.128	0.094
-103.947	517.659	-0.090	-0.206
-102.932	701.125	-0.241	-0.624
-101.918	-200.000	0.011	0.108
-100.903	-107.333	-0.325	-0.070
-99.889	800.000	-0.019	0.053
-98.874	-109.114	0.229	-0.048
-97.859	-200.000	-0.018	-0.114
-96.845	-25.103	-0.225	0.131
-95.830	90.391	-0.284	0.312
-94.816	183.839	0.088	0.128
-93.801	-41.608	0.292	-0.147
-92.786	-200.000	0.059	0.327
-91.772	-96.467	0.101	0.026
-90.757	-115.515	-0.097	-0.018
-89.743	726.540	0.029	0.076
-88.728	-44.132	-0.141	-0.069
-87.713	419.986	-0.042	-0.087
-86.699	800.000	0.018	-0.064
-85.684	-71.944	-0.536	-0.196
-84.670	218.341	-0.101	-0.159
-83.655	-200.000	-0.038	0.438
-82.640	-69.171	-0.093	0.035
-81.626	-13.481	0.275	-0.175
-80.611	-83.861	0.188	0.059
-79.597	-200.000	0.006	0.124
-78.582	489.344	0.050	-0.113
-77.567	141.248	-0.116	0.151
-76.553	98.674	0.121	0.137
-75.538	-3.678	-0.180	0.123
-74.524	-200.000	-0.007	-0.047
-73.509	674.199	0.062	-0.158
-72.494	-200.000	0.017	0.131
-71.480	141.545	-0.075	-0.098
-70.465	508.867	0.020	-0.046
-69.451	-100.853	0.299	-0.072
-68.436	-200.000	0.004	-0.027
-67.422	22.724	-0.091	-0.073
-66.407	35.319	-0.347	-0.299
-65.392	54.023	-0.195	-0.184
-64.378	99.409	0.137	0.156
-63.363	-104.017	-0.112	-0.026
-62.349	27.934	0.183	0.151
-61.334	37.709	-1.008	-0.878
-60.319	134.160	0.614	0.780
-59.305	800.000	-0.391	-1.163
-58.290	188.458	0.756	1.110
-57.276	230.467	0.871	1.398
-56.261	-200.000	109.892	590.604
-55.246	430.646	1512.692	3212.986
-54.232	143.475	2695.154	3520.983
-53.217	103.830	2170.059	2501.137
-52.203	39.701	1612.056	1418.560
-51.188	31.732	1353.239	1142.407
-50.173	28.740	1313.923	1091.423
-49.159	52.877	1369.613	1284.852
-48.144	52.997	1384.093	1299.108
-47.130	31.906	1339.183	1131.406
-46.115	28.538	1321.470	1096.308
-45.100	28.336	1316.251	1090.735
-44.086	28.218	1314.005	1088.126
-43.071	28.156	1311.343	1085.514
-42.057	28.230	1309.226	1084.154
-41.042	28.103	1308.004	1082.352
-40.027	28.117	1306.715	1081.323
-39.013	28.259	1304.510	1080.293
-37.998	28.222	1302.214	1078.131
-36.984	28.245	1300.764	1077.020
-35.969	28.259	1298.927	1075.542
-34.954	28.283	1297.351	1074.336
-33.940	28.325	1296.138	1073.536
-32.925	28.352	1294.337	1072.158
-31.911	28.409	1292.766	1071.146
-30.896	28.421	1291.313	1069.967
-29.881	28.403	1290.357	1069.031
-28.867	28.449	1289.173	1068.275
-27.852	28.499	1287.294	1066.964
-26.838	28.379	1286.191	1065.309
-25.823	28.362	1285.155	1064.313
-24.809	28.355	1283.694	1063.021
-23.794	28.369	1282.496	1062.068
-22.779	28.419	1280.679	1060.810
-21.765	28.472	1279.199	1059.848
-20.750	28.341	1278.162	1058.190
-19.736	28.273	1276.760	1056.593
-18.721	28.168	1275.776	1055.135
-17.706	28.203	1274.881	1054.550
-16.692	28.308	1273.289	1053.800
-15.677	28.193	1272.748	1052.649
-14.663	28.215	1271.627	1051.804
-13.648	28.270	1270.029	1050.757
-12.633	28.298	1268.980	1050.005
-11.619	28.161	1268.745	1048.983
-10.604	28.311	1267.772	1048.998
-9.590	28.177	1266.842	1047.423
-8.575	28.235	1265.574	1046.662
-7.560	28.163	1264.884	1045.638
-6.546	28.256	1263.902	1045.316
-5.531	28.260	1263.120	1044.651
-4.517	28.289	1262.408	1044.185
-3.502	28.306	1261.496	1043.490
-2.487	28.194	1260.579	1042.051
-1.473	28.284	1256.399	1039.065
-0.458	27.223	1241.316	1020.599
0.556	22.898	1226.172	987.549
1.571	19.657	1233.088	974.776
2.586	18.885	1248.378	982.368
3.600	18.931	1237.294	973.816
4.615	17.151	1170.772	911.832
5.629	13.642	1103.299	841.422
6.644	11.782	1086.690	819.377
7.659	11.630	1084.233	816.690
8.673	11.800	1082.458	816.127
9.688	11.759	1081.155	814.869
10.702	11.928	1078.851	813.904
11.717	13.945	1081.560	825.911
12.731	17.194	1085.409	844.964
13.746	18.207	1086.207	850.547
14.761	17.687	1084.900	846.866
15.775	16.610	1083.018	839.981
16.790	15.673	1080.284	833.145
17.804	14.881	1079.220	828.327
18.819	14.452	1078.242	825.379
19.834	14.165	1076.901	822.860
20.848	13.927	1075.961	820.892
21.863	13.664	1075.628	819.269
22.877	13.685	1074.241	818.242
23.892	13.528	1073.796	817.057
24.907	13.580	1073.064	816.685
25.921	13.485	1072.061	815.381
26.936	13.676	1070.380	814.965
27.950	13.756	1068.983	814.225
28.965	13.696	1067.648	812.845
29.980	13.722	1066.420	811.960
30.994	13.797	1065.167	811.303
32.009	13.811	1064.335	810.665
33.023	13.740	1063.353	809.498
34.038	13.781	1062.104	808.677
35.053	13.736	1061.059	807.589
36.067	13.729	1060.392	806.978
37.082	13.780	1059.546	806.513
38.096	13.791	1059.203	806.234
39.111	13.769	1057.895	805.058
40.126	13.614	1056.902	803.481
41.140	13.468	1055.670	801.767
42.155	13.539	1054.289	800.988
43.169	13.555	1053.203	800.168
44.184	13.413	1052.336	798.756
45.199	13.503	1051.427	798.430
46.213	13.532	1050.204	797.568
47.228	13.589	1049.357	797.128
48.242	13.624	1048.371	796.477
49.257	13.702	1046.893	795.659
50.271	13.571	1046.662	794.787
51.286	13.663	1045.161	794.015
52.301	13.665	1044.366	793.349
53.315	13.637	1043.058	792.155
54.330	13.593	1042.231	791.244
55.344	13.551	1041.332	790.294
56.359	13.563	1040.443	789.606
57.374	13.451	1039.536	788.314
58.388	13.479	1038.906	787.900
59.403	13.438	1038.102	787.026
60.417	13.484	1036.998	786.336
61.432	13.413	1035.971	785.152
62.447	13.308	1035.339	784.104
63.461	13.443	1034.362	783.934
64.476	13.383	1033.475	782.911
65.490	13.397	1032.638	782.274
66.505	13.477	1032.244	782.280
67.520	13.613	1031.040	781.941
68.534	13.329	1031.011	780.511
69.549	13.448	1030.135	780.342
70.563	13.332	1029.336	779.118
71.578	13.430	1028.259	778.695
72.593	13.353	1027.896	777.990
73.607	13.361	1026.938	777.235
74.622	13.480	1026.261	777.211
75.636	13.417	1025.042	775.925
76.651	13.384	1024.660	775.411
77.666	13.371	1024.434	775.114
78.680	13.314	1023.942	774.402
79.695	13.449	1022.847	774.137
80.709	13.489	1022.483	773.981
81.724	13.527	1021.772	773.550
82.739	13.484	1020.927	772.644
83.753	13.716	1019.826	772.823
84.768	13.790	1019.029	772.495
85.782	13.864	1017.803	771.841
86.797	13.816	1016.979	770.924
87.812	13.680	1016.470	769.840
88.826	13.651	1015.016	768.538
89.841	13.590	1014.561	767.840
90.855	13.709	1013.567	767.570
91.870	13.761	1012.846	767.197
92.884	13.754	1012.038	766.485
93.899	13.819	1010.769	765.758
94.914	13.792	1009.983	764.968
95.928	13.907	1009.129	764.783
96.943	13.810	1008.781	764.005
97.957	13.687	1008.001	762.782
98.972	13.680	1006.849	761.810
99.987	13.776	1005.625	761.258
101.001	13.738	1005.114	760.631
102.016	13.746	1004.419	760.073
103.030	13.675	1003.773	759.192
104.045	13.743	1002.672	758.602
105.060	13.770	1002.021	758.164
106.074	13.691	1000.955	756.933
107.089	13.510	999.799	755.167
108.103	13.433	998.841	754.026
109.118	13.503	997.817	753.504
110.133	13.515	997.149	752.988
111.147	13.456	996.255	751.977
112.162	13.687	995.205	752.166
113.176	13.663	995.101	751.911
114.191	13.631	993.846	750.754
115.206	13.659	993.254	750.365
116.220	13.615	992.272	749.359
117.235	13.627	991.554	748.805
118.249	13.556	990.507	747.625
119.264	13.616	989.503	747.074
120.279	13.538	989.204	746.429
121.293	13.591	988.274	745.899
122.308	13.508	987.551	744.917
123.322	13.503	986.180	743.792
124.337	13.497	985.233	742.985
125.352	13.561	983.756	742.091
126.366	13.532	983.207	741.483
127.381	13.546	981.916	740.507
128.395	13.701	981.181	740.578
129.410	13.532	980.407	739.174
130.424	13.688	979.197	738.891
131.439	13.608	978.785	738.162
132.454	13.629	977.714	737.381
133.468	13.729	977.220	737.390
134.483	13.746	976.392	736.773
135.497	13.738	975.460	735.968
136.512	13.689	974.423	734.907
137.527	13.737	973.497	734.354
138.541	13.700	972.684	733.514
139.556	13.653	972.739	733.282
140.570	13.761	971.492	732.752
141.585	13.889	970.613	732.590
142.600	13.808	970.318	731.946
143.614	13.856	968.952	731.060
144.629	13.945	968.228	730.842
145.643	13.934	967.224	729.969
146.658	13.934	966.027	729.004
147.673	13.762	965.341	727.666
148.687	13.701	964.845	726.961
149.702	13.661	963.775	725.918
150.716	13.655	963.270	725.445
151.731	13.860	962.211	725.479
152.746	13.690	961.603	724.216
153.760	13.828	960.963	724.269
154.775	13.883	960.558	724.141
155.789	13.933	959.950	723.836
156.804	13.891	959.399	723.175
157.819	13.910	958.458	722.482
158.833	13.946	957.693	722.000
159.848	13.981	956.682	721.325
160.862	13.987	955.787	720.610
161.877	13.902	954.837	719.464
162.892	13.834	954.050	718.511
163.906	13.724	953.682	717.698
164.921	13.806	952.290	716.941
165.935	13.811	951.298	716.152
166.950	13.851	950.810	715.891
167.964	13.990	949.361	715.336
168.979	13.800	948.819	714.048
169.994	13.843	947.717	713.341
171.008	13.818	947.263	712.829
172.023	14.007	946.603	713.079
173.037	14.115	945.646	712.759
174.052	14.053	944.885	711.856
175.067	14.023	944.354	711.264
176.081	13.905	943.656	710.170
177.096	13.990	943.291	710.197
178.110	14.015	942.635	709.747
179.125	14.045	941.893	709.252
180.140	14.066	941.491	708.976
181.154	14.112	940.616	708.452
182.169	14.113	940.407	708.238
183.183	14.169	940.098	708.180
184.198	14.164	938.703	707.045
185.213	14.210	937.952	706.613
186.227	14.120	937.924	706.148
187.242	14.267	937.087	706.077
188.256	14.348	936.120	705.629
189.271	14.281	935.486	704.805
190.286	14.104	934.776	703.459
191.300	13.910	933.823	701.859
192.315	13.976	933.037	701.486
193.329	14.129	932.725	701.835
194.344	14.157	932.050	701.384
195.359	14.094	931.229	700.436
196.373	14.168	930.993	700.511
197.388	14.314	930.249	700.503
198.402	14.361	929.907	700.381
199.417	14.449	928.740	699.810
200.432	14.471	928.358	699.552
201.446	14.498	928.389	699.627
202.461	14.564	927.734	699.347
203.475	14.482	927.078	698.447
204.490	14.433	926.052	697.407
205.504	14.380	925.378	696.615
206.519	14.458	924.360	696.116
207.534	14.411	924.130	695.682
208.548	14.435	923.122	694.962
209.563	14.475	922.716	694.763
210.577	14.503	921.744	694.087
211.592	14.575	921.186	693.905
212.607	14.639	920.354	693.481
213.621	14.510	919.807	692.473
214.636	14.755	919.074	692.875
215.650	14.623	918.303	691.687
216.665	14.635	917.797	691.293
217.680	14.710	917.218	691.104
218.694	14.672	916.285	690.187
219.709	14.578	915.857	689.413
220.723	14.584	915.363	689.007
221.738	14.709	914.578	688.870
222.753	14.736	913.905	688.412
223.767	14.708	913.349	687.819
224.782	14.824	912.511	687.604
225.796	14.910	912.141	687.615
226.811	14.773	911.400	686.436
227.826	14.815	910.485	685.856
228.840	14.875	910.094	685.747
229.855	14.742	908.757	684.134
230.869	14.798	908.493	684.105
231.884	14.709	907.793	683.155
232.899	14.670	907.409	682.646
233.913	14.628	906.307	681.584
234.928	14.711	905.610	681.336
235.942	14.776	905.029	681.106
236.957	14.739	904.561	680.541
237.972	14.784	903.741	680.050
238.986	14.622	903.289	678.987
240.001	14.788	902.587	679.077
241.015	14.851	902.045	678.865
242.030	14.703	901.623	677.883
243.045	14.852	900.993	677.956
244.059	14.929	900.619	677.928
245.074	15.038	899.403	677.391
246.088	15.062	898.592	676.820
247.103	14.962	898.179	676.043
248.117	15.007	897.966	676.004
249.132	15.135	897.181	675.870
250.147	15.114	896.735	675.390
251.161	15.374	895.997	675.824
252.176	15.258	895.005	674.546
253.190	15.527	893.954	674.775
254.205	15.239	894.012	673.605
255.220	15.269	893.510	673.287
256.234	15.257	892.825	672.661
257.249	15.371	891.895	672.358
258.263	15.386	891.122	671.777
259.278	15.339	890.587	671.128
260.293	15.288	890.072	670.474
261.307	15.498	889.494	670.821
262.322	15.379	888.912	669.845
263.336	15.584	887.874	669.822
264.351	15.527	887.205	669.031
265.366	15.654	886.252	668.760
266.380	15.502	886.560	668.325
267.395	15.499	885.485	667.447
268.409	15.469	884.679	666.659
269.424	15.606	883.232	666.054
270.439	15.575	883.058	665.742
271.453	15.570	882.458	665.208
272.468	15.501	881.718	664.320
273.482	15.468	881.247	663.776
274.497	15.525	880.795	663.603
275.512	15.496	880.262	663.027
276.526	15.404	879.791	662.249
277.541	15.476	879.203	662.035
278.555	15.667	878.575	662.255
279.570	15.630	878.266	661.817
280.585	15.540	877.215	660.611
281.599	15.628	876.520	660.376
282.614	15.615	875.876	659.783
283.628	15.738	875.307	659.779
284.643	15.644	874.303	658.594
285.657	15.651	873.952	658.299
286.672	15.792	873.096	658.149
287.687	15.697	872.578	657.328
288.701	15.791	872.083	657.262
289.716	15.796	871.534	656.810
290.730	15.725	870.900	655.996
291.745	15.799	870.497	655.923
292.760	15.856	869.716	655.502
293.774	15.911	869.227	655.288
294.789	15.883	868.506	654.577
295.803	15.802	867.718	653.610
296.818	15.877	866.994	653.297
297.833	15.844	866.173	652.495
298.847	15.913	866.176	652.706
299.862	15.906	865.057	651.777
300.876	15.991	864.739	651.810
301.891	16.041	864.126	651.484
302.906	16.052	863.560	651.043
303.920	16.227	863.094	651.307
304.935	16.259	862.545	650.959
305.949	16.097	861.933	649.814
306.964	16.059	860.905	648.836
307.979	16.129	860.579	648.805
308.993	16.173	859.903	648.406
310.008	16.125	859.684	648.000
311.022	16.255	858.854	647.814
312.037	16.019	858.818	646.822
313.052	15.922	858.107	645.860
314.066	16.036	857.321	645.647
315.081	16.125	856.388	645.229
316.095	16.065	856.027	644.669
317.110	16.067	855.532	644.248
318.125	15.992	855.328	643.749
319.139	16.131	854.471	643.580
320.154	16.098	853.824	642.909
321.168	16.214	853.217	642.839
322.183	16.220	852.669	642.389
323.197	16.144	852.593	641.987
324.212	16.201	851.660	641.442
325.227	16.198	851.110	640.960
326.241	16.380	850.723	641.303
327.256	16.204	850.302	640.263
328.270	16.220	849.649	639.776
329.285	16.273	849.049	639.466
330.300	16.187	848.526	638.689
331.314	16.206	848.178	638.444
332.329	16.262	847.395	638.010
333.343	16.308	846.922	637.769
334.358	16.473	846.476	638.001
335.373	16.376	846.210	637.380
336.387	16.374	846.048	637.192
337.402	16.383	845.714	636.918
338.416	16.486	845.062	636.759
339.431	16.624	844.721	636.966
340.446	16.528	844.656	636.500
341.460	16.483	844.225	635.949
342.475	16.511	844.017	635.842
343.489	16.629	843.165	635.588
344.504	16.628	842.533	635.050
345.519	16.676	842.125	634.865
346.533	16.650	841.823	634.485
347.548	16.547	841.224	633.591
348.562	16.700	840.631	633.660
349.577	16.673	839.679	632.789
350.592	16.533	838.958	631.666
351.606	16.657	838.563	631.773
352.621	16.654	838.166	631.410
353.635	16.512	837.522	630.337
354.650	16.533	837.074	630.023
355.665	16.686	836.083	629.791
356.679	16.715	835.504	629.407
357.694	16.855	834.609	629.196
358.708	16.880	833.877	628.683
359.723	16.783	833.686	628.123
360.738	16.765	832.893	627.401
361.752	16.796	832.539	627.193
362.767	16.872	832.024	627.033
363.781	16.815	831.346	626.256
364.796	16.925	831.231	626.518
365.810	16.929	830.278	625.762
366.825	17.110	830.311	626.400
367.840	16.974	829.915	625.544
368.854	17.054	829.105	625.170
369.869	17.022	828.986	624.908
370.883	16.964	828.617	624.361
371.898	17.101	828.086	624.410
372.913	17.117	827.739	624.151
373.927	17.090	827.188	623.581
374.942	17.004	826.820	622.933
375.956	17.244	826.054	623.182
376.971	17.309	825.629	623.044
377.986	17.318	825.289	622.766
379.000	17.210	824.972	622.077
380.015	17.158	824.085	621.163
381.029	17.327	823.535	621.309
382.044	17.434	822.564	620.913
383.059	17.292	822.614	620.379
384.073	17.418	821.938	620.272
385.088	17.333	821.062	619.247
386.102	17.202	820.651	618.405
387.117	17.177	820.129	617.866
388.132	17.349	819.286	617.802
389.146	17.296	818.919	617.276
390.161	17.316	818.895	617.277
391.175	17.247	818.620	616.763
392.190	17.254	817.685	616.032
393.205	17.286	817.468	615.930
394.219	17.234	817.123	615.425
395.234	17.185	816.800	614.951
396.248	17.444	815.671	614.983
397.263	17.176	815.908	614.137
398.278	17.356	815.375	614.333
399.292	17.167	815.125	613.409
400.307	17.286	814.464	613.285
401.321	17.256	813.701	612.547
402.336	17.383	813.514	612.811
403.350	17.398	813.180	612.560
404.365	17.476	812.474	612.255
405.380	17.461	812.030	611.811
406.394	17.477	811.766	611.614
407.409	17.636	810.917	611.494
408.423	17.687	811.108	611.764
409.438	17.561	810.554	610.841
410.453	17.815	809.717	611.066
411.467	17.908	809.239	610.984
412.482	17.869	808.883	610.522
413.496	17.802	808.674	610.072
414.511	17.841	808.350	609.910
415.526	17.654	808.085	608.991
416.540	17.805	807.535	609.060
417.555	17.705	807.348	608.508
418.569	17.766	806.587	608.100
419.584	17.840	806.095	607.938
420.599	18.034	805.571	608.181
421.613	110.570	1293.887	1473.209
422.628	95.360	1365.013	1473.280
