DTS Sentinel unit serial number:	SN413079Multiplexer serial number:	ORYXHardware model number:	OX4-SRSoftware version number:	ORYX F/W v4.00 Oryx Data Collector v3.7.2.0data status	okinstallation	princeton_trtdifferential loss correction	single-endedforward channel	channel 1reverse channel	N/Adate	2019/09/15time	01:10:35forward acquisition time	60.00reverse acquisition time	0.00gamma	496.2192k internal	0.2321k external	0.2321temperature offset calibration	0.9986default loss term (dB/km)	0.3790temperature slope calibration	1.0000multiplexer offset coefficient	1.0000multiplexer slope coefficient	1.0000fibre end	0.00T internal ref (°C)	31.98T ext. ref 1 (°C)	4.52T ext. ref 2 (°C)	26.86length (m)	temperature (°C)	Stokes	anti-Stokes-747.200	-81.352	-0.090	0.030
-746.185	-81.229	0.227	0.076
-745.171	-200.000	-0.034	-0.163
-744.156	-152.055	-0.241	0.018
-743.142	46.274	0.149	-0.140
-742.127	451.192	0.129	-0.287
-741.112	1.168	-0.215	-0.156
-740.098	171.249	-0.111	-0.160
-739.083	-135.783	-0.186	0.022
-738.069	-118.698	-0.277	0.049
-737.054	94.811	0.148	0.170
-736.039	47.289	0.137	-0.129
-735.025	14.956	-0.141	0.111
-734.010	-139.658	-0.202	0.022
-732.996	1.766	0.102	0.074
-731.981	210.343	-0.226	-0.358
-730.966	-107.483	-0.263	-0.058
-729.952	74.587	-0.131	-0.139
-728.937	-160.580	-0.269	0.014
-727.923	-150.320	-0.334	-0.026
-726.908	-118.891	-0.276	0.049
-725.894	18.670	-0.361	-0.292
-724.879	483.831	-0.033	0.075
-723.864	369.063	0.082	0.168
-722.850	731.562	0.152	0.410
-721.835	-200.000	0.057	0.258
-720.821	-88.695	-0.379	-0.114
-719.806	-39.227	0.106	0.056
-718.791	76.642	-0.133	0.142
-717.777	17.100	0.239	0.191
-716.762	-200.000	-0.009	0.333
-715.748	563.792	-0.084	0.206
-714.733	-200.000	0.025	-0.185
-713.718	773.456	-0.107	-0.296
-712.704	103.073	-0.157	-0.186
-711.689	334.295	-0.078	-0.153
-710.675	-58.452	-0.240	0.105
-709.660	-200.000	0.014	-0.139
-708.645	-121.896	-0.189	-0.031
-707.631	11.361	0.171	0.132
-706.616	438.432	0.026	-0.058
-705.602	-110.710	-0.275	-0.057
-704.587	800.000	-0.086	0.265
-703.572	139.479	0.265	-0.352
-702.558	-108.907	0.281	-0.061
-701.543	-46.481	-0.236	0.117
-700.529	701.853	-0.041	-0.109
-699.514	-114.255	-0.039	-0.008
-698.499	355.844	-0.129	0.260
-697.485	-158.081	0.162	-0.010
-696.470	-47.057	-0.130	-0.064
-695.456	800.000	-0.038	0.126
-694.441	-87.123	-0.275	-0.084
-693.426	183.989	0.095	-0.142
-692.412	201.574	-0.109	0.169
-691.397	355.914	-0.072	0.145
-690.383	638.953	-0.099	-0.253
-689.368	-134.341	-0.059	-0.007
-688.354	159.542	0.115	-0.161
-687.339	-200.000	-0.006	0.035
-686.324	-28.449	-0.092	0.054
-685.310	-200.000	-0.012	-0.226
-684.295	31.856	-0.150	-0.130
-683.281	-34.877	-0.223	-0.123
-682.266	800.000	0.072	-0.284
-681.251	800.000	-0.082	0.249
-680.237	-103.199	0.364	-0.087
-679.222	64.709	-0.194	0.198
-678.208	-101.095	0.237	0.059
-677.193	-84.035	-0.101	0.032
-676.178	-200.000	-0.043	-0.372
-675.164	-200.000	0.045	0.367
-674.149	-55.551	0.029	-0.013
-673.135	248.870	-0.113	0.193
-672.120	426.598	-0.113	-0.245
-671.105	-200.000	0.021	0.133
-670.091	439.922	-0.048	-0.106
-669.076	464.649	-0.022	-0.049
-668.062	-87.027	0.127	-0.039
-667.047	160.126	-0.090	-0.126
-666.032	-200.000	0.012	0.213
-665.018	800.000	-0.077	0.274
-664.003	-200.000	0.004	0.034
-662.989	-129.503	0.144	-0.020
-661.974	28.189	-0.052	0.044
-660.959	-33.525	-0.380	-0.212
-659.945	237.481	-0.127	0.212
-658.930	-143.537	-0.231	0.022
-657.916	-10.630	0.223	0.149
-656.901	415.101	0.034	-0.072
-655.886	-63.628	0.320	-0.132
-654.872	-108.176	-0.088	0.019
-653.857	69.442	-0.159	0.165
-652.843	-126.843	-0.269	0.040
-651.828	32.555	0.398	0.347
-650.814	-111.212	-0.313	0.065
-649.799	723.204	0.016	-0.042
-648.784	259.138	-0.062	0.108
-647.770	21.609	-0.410	-0.336
-646.755	-70.333	0.067	0.026
-645.741	-78.487	0.252	-0.087
-644.726	-61.660	-0.387	-0.164
-643.711	-29.354	0.249	0.143
-642.697	-124.834	-0.350	0.054
-641.682	399.829	0.075	-0.158
-640.668	43.535	0.174	0.160
-639.653	-200.000	0.007	0.062
-638.638	-200.000	0.009	0.177
-637.624	733.612	0.021	-0.057
-636.609	800.000	0.039	-0.120
-635.595	-84.221	0.186	0.059
-634.580	-94.976	0.189	-0.051
-633.565	118.241	-0.024	-0.030
-632.551	22.719	-0.119	0.098
-631.536	59.024	-0.257	0.254
-630.522	-139.079	-0.365	-0.040
-629.507	447.914	0.220	-0.488
-628.492	-6.764	-0.218	0.149
-627.478	800.000	-0.012	-0.047
-626.463	-27.405	0.335	0.196
-625.449	41.594	-0.292	-0.266
-624.434	111.406	-0.234	0.284
-623.419	148.872	0.165	-0.225
-622.405	-200.000	-0.001	0.209
-621.390	-88.018	-0.235	0.071
-620.376	392.182	-0.077	-0.161
-619.361	-200.000	0.054	0.309
-618.346	289.222	-0.135	0.246
-617.332	-150.995	0.211	0.016
-616.317	-70.410	0.190	-0.072
-615.303	-200.000	0.034	0.406
-614.288	8.234	-0.109	-0.082
-613.273	-103.857	0.160	0.038
-612.259	53.290	-0.211	-0.204
-611.244	800.000	0.121	-0.357
-610.230	259.800	0.088	-0.153
-609.215	-165.842	-0.095	0.004
-608.201	5.683	0.252	-0.187
-607.186	800.000	0.088	-0.317
-606.171	454.454	-0.048	0.106
-605.157	-114.594	-0.048	0.009
-604.142	125.865	0.390	-0.495
-603.128	665.991	0.171	-0.445
-602.113	144.569	-0.097	-0.130
-601.098	-200.000	0.008	-0.270
-600.084	285.682	-0.033	-0.060
-599.069	91.602	0.240	-0.271
-598.055	-200.000	0.029	0.136
-597.040	-75.409	-0.354	0.127
-596.025	-144.375	0.050	-0.005
-595.011	-101.958	-0.349	-0.085
-593.996	-153.426	0.305	-0.021
-592.982	112.414	0.136	-0.165
-591.967	277.757	0.089	-0.160
-590.952	-127.016	-0.179	-0.026
-589.938	800.000	-0.028	0.119
-588.923	-39.879	0.110	0.058
-587.909	-17.791	-0.330	0.208
-586.894	183.831	-0.111	0.166
-585.879	-27.873	0.144	-0.084
-584.865	129.193	-0.150	-0.193
-583.850	-137.332	-0.274	-0.031
-582.836	-3.195	0.146	-0.103
-581.821	2.657	-0.271	-0.197
-580.806	-7.307	0.115	-0.078
-579.792	-58.933	-0.240	-0.104
-578.777	-76.093	-0.100	-0.035
-577.763	312.365	-0.088	0.166
-576.748	362.026	-0.105	-0.212
-575.733	-37.560	-0.260	0.139
-574.719	-200.000	0.012	-0.059
-573.704	-79.924	0.488	-0.165
-572.690	800.000	0.006	-0.026
-571.675	-200.000	-0.010	0.190
-570.661	-91.206	-0.126	-0.036
-569.646	160.336	-0.250	-0.350
-568.631	76.269	0.091	-0.096
-567.617	-87.378	-0.187	-0.057
-566.602	-119.176	0.386	0.068
-565.588	-141.495	-0.214	0.022
-564.573	-124.165	0.278	0.044
-563.558	-104.918	0.120	-0.028
-562.544	800.000	0.067	0.202
-561.529	35.787	0.172	0.152
-560.515	-200.000	-0.039	0.189
-559.500	-200.000	0.020	-0.091
-558.485	63.178	-0.015	0.015
-557.471	-19.691	0.129	0.080
-556.456	422.591	-0.070	-0.152
-555.442	800.000	0.080	-0.318
-554.427	353.933	-0.050	0.099
-553.412	-54.457	-0.214	0.097
-552.398	-39.727	0.341	-0.179
-551.383	-172.064	-0.455	-0.015
-550.369	-110.805	0.176	0.036
-549.354	-86.901	0.117	-0.036
-548.339	142.494	-0.256	0.341
-547.325	22.404	0.220	0.181
-546.310	-200.000	-0.018	-0.119
-545.296	-200.000	0.049	0.307
-544.281	244.770	-0.131	0.221
-543.266	566.471	-0.036	0.088
-542.252	144.138	0.188	0.251
-541.237	-53.780	-0.221	-0.101
-540.223	-55.830	-0.222	0.099
-539.208	11.519	-0.277	0.213
-538.193	-41.356	0.128	0.066
-537.179	-77.139	-0.010	0.004
-536.164	-200.000	0.027	0.242
-535.150	-147.048	0.103	0.009
-534.135	-80.961	-0.532	0.177
-533.121	491.477	0.073	0.169
-532.106	67.553	0.197	-0.202
-531.091	-200.000	-0.058	-0.287
-530.077	43.594	-0.080	-0.073
-529.062	-167.549	-0.076	-0.003
-528.048	800.000	-0.039	-0.148
-527.033	-185.866	-0.364	0.005
-526.018	409.679	-0.109	-0.231
-525.004	266.934	-0.115	0.201
-523.989	-48.774	-0.198	0.095
-522.975	337.898	0.102	0.198
-521.960	552.317	0.099	-0.239
-520.945	264.714	-0.108	-0.188
-519.931	-93.302	-0.122	0.034
-518.916	-114.347	0.294	0.057
-517.902	-12.401	-0.164	-0.107
-516.887	-115.797	0.587	-0.110
-515.872	-13.833	-0.298	0.193
-514.858	91.886	0.083	0.093
-513.843	17.326	0.061	-0.048
-512.829	139.123	-0.265	-0.349
-511.814	437.851	-0.014	0.031
-510.799	800.000	0.034	0.104
-509.785	-121.009	0.329	-0.055
-508.770	-9.588	0.177	-0.118
-507.756	-47.024	-0.059	0.029
-506.741	-42.441	0.272	-0.139
-505.726	236.885	0.071	0.118
-504.712	773.048	0.050	0.138
-503.697	-26.134	-0.053	-0.031
-502.683	166.306	0.096	-0.136
-501.668	704.416	0.037	0.098
-500.653	-200.000	-0.012	0.286
-499.639	-200.000	-0.045	-0.237
-498.624	-4.316	0.270	0.187
-497.610	-112.458	0.064	-0.013
-496.595	460.852	0.059	0.131
-495.581	-43.318	0.181	0.092
-494.566	-200.000	-0.007	-0.228
-493.551	-126.681	-0.235	-0.035
-492.537	153.009	0.178	-0.244
-491.522	-200.000	-0.001	0.059
-490.508	204.567	-0.045	0.069
-489.493	-200.000	-0.013	0.108
-488.478	37.192	0.084	-0.074
-487.464	19.535	-0.082	0.066
-486.449	157.551	-0.085	0.118
-485.435	106.144	0.054	0.064
-484.420	203.048	0.040	-0.061
-483.405	148.773	-0.060	-0.081
-482.391	224.764	0.178	0.289
-481.376	-20.329	-0.280	-0.172
-480.362	122.866	-0.189	-0.236
-479.347	93.063	0.237	-0.268
-478.332	114.951	0.078	0.095
-477.318	-106.797	-0.097	0.022
-476.303	6.627	-0.162	-0.121
-475.289	-24.267	-0.123	-0.074
-474.274	439.818	0.121	-0.265
-473.259	11.230	-0.334	-0.256
-472.245	113.543	0.265	0.322
-471.230	-195.671	-0.151	-0.001
-470.216	800.000	-0.103	-0.324
-469.201	800.000	0.053	-0.184
-468.186	-123.252	0.301	-0.048
-467.172	-126.837	0.188	-0.028
-466.157	66.598	-0.063	-0.064
-465.143	-65.005	0.204	0.083
-464.128	-46.446	0.142	0.070
-463.113	-17.049	-0.101	-0.064
-462.099	800.000	-0.016	-0.066
-461.084	-111.084	-0.106	-0.022
-460.070	-165.392	0.432	0.019
-459.055	-54.952	0.217	-0.098
-458.040	2.658	0.216	-0.157
-457.026	79.630	0.087	-0.093
-456.011	99.062	-0.162	-0.187
-454.997	-46.519	-0.144	0.071
-453.982	-53.579	-0.311	-0.142
-452.968	15.867	0.098	-0.077
-451.953	19.517	-0.391	0.314
-450.938	-5.522	-0.110	-0.075
-449.924	-128.653	0.253	-0.036
-448.909	-118.764	0.186	0.033
-447.895	114.114	-0.042	0.051
-446.880	-26.184	-0.085	-0.050
-445.865	-109.602	0.331	-0.070
-444.851	800.000	-0.102	0.366
-443.836	-16.871	-0.102	0.065
-442.822	-49.882	0.186	0.088
-441.807	-96.699	-0.381	-0.100
-440.792	800.000	-0.017	-0.061
-439.778	746.726	0.077	-0.206
-438.763	-200.000	0.016	-0.105
-437.749	513.153	0.120	-0.279
-436.734	-200.000	-0.001	-0.054
-435.719	-39.546	-0.264	0.138
-434.705	445.672	0.064	0.141
-433.690	-127.361	0.196	0.028
-432.676	-113.297	-0.320	-0.063
-431.661	-50.062	-0.191	0.090
-430.646	-21.120	0.097	0.059
-429.632	-200.000	0.035	0.241
-428.617	-68.713	0.391	-0.151
-427.603	-97.307	-0.125	-0.033
-426.588	420.661	0.094	0.200
-425.573	-162.286	0.225	-0.011
-424.559	-200.000	-0.024	0.149
-423.544	-98.900	-0.208	0.053
-422.530	193.121	0.215	0.324
-421.515	124.077	-0.192	-0.241
-420.500	-141.394	-0.196	-0.020
-419.486	-200.000	0.004	-0.069
-418.471	-183.318	-0.097	-0.002
-417.457	-120.621	0.394	-0.067
-416.442	116.027	-0.325	0.397
-415.428	-60.587	-0.384	-0.163
-414.413	107.846	0.028	-0.033
-413.398	286.352	0.045	0.080
-412.384	-23.958	-0.187	0.111
-411.369	65.845	0.179	-0.181
-410.355	174.247	0.112	0.161
-409.340	85.096	-0.278	0.304
-408.325	-68.463	0.212	0.082
-407.311	53.094	0.228	-0.218
-406.296	800.000	-0.033	0.132
-405.282	-106.304	0.346	-0.077
-404.267	-96.379	0.079	0.021
-403.252	800.000	-0.021	-0.074
-402.238	15.034	0.025	-0.019
-401.223	-200.000	0.032	0.311
-400.209	222.168	0.101	-0.162
-399.194	800.000	0.068	0.251
-398.179	-200.000	-0.017	0.224
-397.165	-140.682	0.078	-0.008
-396.150	-200.000	-0.026	0.209
-395.136	198.359	-0.075	0.114
-394.121	800.000	0.119	0.362
-393.106	76.770	0.212	-0.224
-392.092	-200.000	0.029	-0.261
-391.077	800.000	0.094	-0.379
-390.063	406.632	-0.067	-0.141
-389.048	-8.089	-0.290	-0.195
-388.033	193.120	0.099	-0.149
-387.019	401.232	-0.075	0.158
-386.004	5.189	-0.118	-0.087
-384.990	24.186	0.088	-0.073
-383.975	39.314	0.054	-0.049
-382.960	34.752	-0.226	0.197
-381.946	800.000	-0.046	0.140
-380.931	200.336	-0.034	0.052
-379.917	800.000	-0.138	0.395
-378.902	-200.000	0.010	0.048
-377.888	-200.000	-0.002	0.080
-376.873	-19.227	-0.262	-0.162
-375.858	800.000	-0.089	-0.360
-374.844	86.117	0.197	-0.216
-373.829	-61.336	-0.144	0.061
-372.815	129.490	-0.114	0.145
-371.800	-142.604	0.170	-0.017
-370.785	-200.000	-0.006	-0.186
-369.771	129.642	0.024	0.030
-368.756	-76.938	0.118	0.041
-367.742	-200.000	0.003	0.450
-366.727	-200.000	-0.065	0.286
-365.712	87.886	0.245	0.271
-364.698	-106.417	0.401	0.089
-363.683	-34.033	0.192	0.105
-362.669	-182.938	-0.080	0.001
-361.654	-75.248	-0.113	0.040
-360.639	-200.000	0.054	-0.359
-359.625	373.788	-0.186	0.376
-358.610	-99.586	0.225	0.056
-357.596	-3.119	-0.258	-0.179
-356.581	194.902	-0.135	-0.204
-355.566	-85.369	-0.466	0.145
-354.552	234.533	0.199	-0.327
-353.537	304.982	0.168	-0.311
-352.523	-44.247	0.048	0.024
-351.508	775.463	-0.057	-0.154
-350.493	105.094	0.204	0.240
-349.479	-108.044	0.177	-0.038
-348.464	-130.797	-0.295	0.039
-347.450	35.639	0.236	-0.206
-346.435	57.378	-0.240	-0.233
-345.420	13.256	0.171	-0.132
-344.406	291.994	-0.216	0.391
-343.391	-200.000	0.023	0.341
-342.377	800.000	0.170	0.559
-341.362	-96.580	-0.142	-0.037
-340.348	-200.000	-0.018	-0.172
-339.333	1.254	0.149	-0.107
-338.318	-15.850	0.127	0.080
-337.304	-58.547	-0.376	0.162
-336.289	458.370	0.075	0.166
-335.275	343.182	0.087	0.170
-334.260	-200.000	-0.012	-0.376
-333.245	-132.736	-0.151	-0.019
-332.231	-200.000	0.001	-0.288
-331.216	-14.556	-0.150	-0.096
-330.202	-8.365	0.197	-0.132
-329.187	50.696	-0.214	0.201
-328.172	800.000	-0.030	0.115
-327.158	155.857	-0.276	-0.378
-326.143	202.109	-0.212	-0.325
-325.129	-200.000	0.009	-0.181
-324.114	-200.000	-0.014	0.182
-323.099	-200.000	-0.038	-0.171
-322.085	-200.000	0.013	0.062
-321.070	-45.290	0.283	0.140
-320.056	-30.983	-0.539	-0.302
-319.041	18.458	-0.213	0.169
-318.026	27.134	0.041	0.035
-317.012	-200.000	-0.010	0.166
-315.997	-56.781	-0.169	-0.074
-314.983	-105.614	-0.170	-0.038
-313.968	189.996	-0.133	-0.198
-312.953	474.710	0.113	-0.253
-311.939	-72.424	-0.334	-0.123
-310.924	-185.279	0.431	0.007
-309.910	454.231	-0.105	0.231
-308.895	627.492	0.051	0.128
-307.880	-99.529	-0.313	-0.078
-306.866	-95.723	0.135	0.036
-305.851	-200.000	0.033	0.237
-304.837	104.740	0.254	-0.297
-303.822	-200.000	-0.018	-0.080
-302.807	-200.000	0.025	0.131
-301.793	-29.432	-0.100	-0.057
-300.778	-200.000	0.034	-0.217
-299.764	44.473	-0.249	-0.227
-298.749	-87.085	-0.280	0.085
-297.735	-16.652	-0.172	-0.108
-296.720	-200.000	-0.006	-0.118
-295.705	-92.786	0.139	-0.039
-294.691	178.256	0.107	-0.156
-293.676	12.481	-0.083	0.063
-292.662	103.881	-0.093	-0.108
-291.647	125.380	0.175	0.219
-290.632	48.121	-0.267	-0.248
-289.618	93.227	0.098	-0.110
-288.603	-68.581	0.108	0.042
-287.589	-53.861	0.398	0.180
-286.574	800.000	-0.004	-0.017
-285.559	104.258	0.058	0.068
-284.545	-90.121	0.212	-0.061
-283.530	176.019	-0.181	-0.261
-282.516	800.000	-0.024	0.098
-281.501	0.114	-0.138	0.098
-280.486	-20.786	0.139	-0.085
-279.472	58.138	0.098	0.095
-278.457	538.195	0.085	0.201
-277.443	8.622	-0.198	-0.148
-276.428	136.529	0.207	-0.267
-275.413	408.238	0.045	-0.094
-274.399	298.402	0.203	-0.371
-273.384	-26.963	-0.182	0.106
-272.370	93.458	0.162	-0.182
-271.355	-200.000	-0.033	-0.184
-270.340	-200.000	0.044	-0.322
-269.326	-56.716	0.247	0.108
-268.311	-21.344	0.326	-0.198
-267.297	33.687	0.180	0.155
-266.282	-1.584	0.197	-0.138
-265.267	-91.436	-0.248	0.070
-264.253	800.000	-0.127	0.348
-263.238	-200.000	-0.307	0.000
-262.224	-200.000	0.009	0.263
-261.209	704.818	0.058	-0.151
-260.195	103.618	0.219	0.255
-259.180	800.000	0.023	0.076
-258.165	111.505	-0.078	0.094
-257.151	-200.000	0.009	-0.231
-256.136	-200.000	-0.027	0.117
-255.122	-91.258	-0.111	-0.032
-254.107	317.834	-0.115	0.215
-253.092	-175.673	-0.231	0.006
-252.078	-43.424	-0.279	-0.140
-251.063	-200.000	0.002	-0.270
-250.049	17.339	0.082	0.064
-249.034	-96.148	0.417	0.110
-248.019	126.534	0.102	0.128
-247.005	266.604	0.228	-0.396
-245.990	65.147	0.201	-0.201
-244.976	87.150	0.056	0.061
-243.961	20.085	0.042	0.034
-242.946	-65.183	0.217	0.087
-241.932	19.236	-0.149	0.119
-240.917	-49.337	-0.125	-0.059
-239.903	-158.240	-0.407	0.024
-238.888	-200.000	0.041	0.381
-237.873	-29.643	-0.161	-0.091
-236.859	174.784	-0.118	-0.169
-235.844	16.335	0.224	0.175
-234.830	-31.864	0.130	0.072
-233.815	107.610	-0.177	0.209
-232.800	-151.783	0.373	0.027
-231.786	407.939	0.018	0.039
-230.771	-50.884	0.193	0.090
-229.757	191.437	-0.223	0.332
-228.742	-12.172	-0.232	-0.150
-227.727	152.536	-0.119	-0.161
-226.713	800.000	0.126	0.396
-225.698	-200.000	0.046	0.208
-224.684	95.126	-0.304	-0.343
-223.669	-138.274	-0.177	-0.019
-222.655	-200.000	0.008	-0.180
-221.640	305.730	-0.089	-0.163
-220.625	535.796	-0.100	0.235
-219.611	-200.000	-0.051	-0.246
-218.596	-40.169	0.138	-0.071
-217.582	11.848	0.237	0.180
-216.567	-28.841	-0.065	-0.037
-215.552	108.239	0.037	0.043
-214.538	7.785	0.274	0.203
-213.523	251.767	-0.189	0.318
-212.509	-200.000	-0.016	0.103
-211.494	800.000	-0.056	0.209
-210.479	32.335	-0.531	0.454
-209.465	217.828	0.099	-0.157
-208.450	-200.000	0.007	0.277
-207.436	-59.250	-0.060	-0.025
-206.421	63.920	0.034	0.034
-205.406	440.521	-0.213	0.461
-204.392	-200.000	-0.339	-0.000
-203.377	360.825	-0.207	-0.411
-202.363	-169.425	0.330	0.012
-201.348	-200.000	-0.020	-0.203
-200.333	246.850	0.155	0.258
-199.319	48.441	-0.104	0.096
-198.304	-128.703	-0.121	-0.017
-197.290	-200.000	-0.010	0.146
-196.275	483.954	0.017	-0.037
-195.260	-85.489	0.320	-0.099
-194.246	-90.156	0.226	0.065
-193.231	-7.461	0.102	0.068
-192.217	105.995	0.043	0.051
-191.202	-98.898	0.222	-0.056
-190.187	800.000	0.039	0.131
-189.173	137.506	-0.122	-0.158
-188.158	-162.144	0.274	-0.014
-187.144	773.461	0.060	-0.161
-186.129	35.337	-0.230	0.200
-185.114	-92.076	0.053	-0.015
-184.100	-200.000	-0.074	-0.344
-183.085	306.664	-0.024	-0.044
-182.071	-100.182	-0.073	0.018
-181.056	-114.405	-0.149	-0.028
-180.042	99.833	0.039	-0.044
-179.027	-28.047	-0.081	-0.046
-178.012	-200.000	0.028	-0.171
-176.998	119.733	0.063	0.077
-175.983	159.739	-0.135	0.185
-174.969	-200.000	-0.054	0.342
-173.954	-93.961	0.325	-0.088
-172.939	-124.557	0.077	-0.012
-171.925	181.324	0.083	0.120
-170.910	-136.391	0.269	0.031
-169.896	-200.000	-0.040	-0.348
-168.881	293.599	0.047	-0.085
-167.866	-83.188	0.103	-0.033
-166.852	-200.000	-0.002	0.158
-165.837	778.746	0.124	0.335
-164.823	-136.347	0.084	-0.010
-163.808	-29.155	0.223	0.126
-162.793	-51.124	0.106	0.049
-161.779	268.401	-0.159	0.275
-160.764	93.035	0.136	0.152
-159.750	70.944	-0.052	0.054
-158.735	-200.000	-0.017	0.314
-157.720	-200.000	0.034	0.373
-156.706	-133.787	-0.233	-0.029
-155.691	778.390	-0.118	-0.318
-154.677	-68.440	-0.107	-0.041
-153.662	22.870	0.308	0.249
-152.647	-30.775	0.162	-0.090
-151.633	27.975	0.388	0.323
-150.618	132.624	0.137	0.175
-149.604	800.000	-0.086	0.267
-148.589	550.984	0.030	-0.070
-147.574	47.989	-0.190	-0.175
-146.560	-139.431	-0.039	0.004
-145.545	-191.875	-0.147	0.001
-144.531	-99.512	0.162	0.040
-143.516	144.048	-0.073	0.096
-142.502	261.064	0.056	0.095
-141.487	800.000	-0.068	0.210
-140.472	397.707	-0.049	-0.101
-139.458	153.326	-0.062	-0.084
-138.443	-42.899	-0.132	0.066
-137.429	-200.000	-0.008	-0.061
-136.414	-200.000	-0.258	-0.001
-135.399	75.964	-0.167	0.174
-134.385	-45.068	0.376	0.185
-133.370	560.233	0.162	-0.387
-132.356	243.938	-0.077	-0.127
-131.341	-108.930	-0.499	-0.105
-130.326	-96.563	0.244	-0.063
-129.312	-200.000	-0.002	-0.222
-128.297	-60.036	-0.102	0.043
-127.283	-2.705	0.390	-0.269
-126.268	-26.548	-0.108	0.062
-125.253	224.835	-0.066	-0.105
-124.239	127.536	0.127	0.159
-123.224	-200.000	0.008	0.109
-122.210	-102.597	-0.035	-0.008
-121.195	361.901	0.006	0.012
-120.180	771.452	0.055	0.148
-119.166	-200.000	0.009	0.122
-118.151	230.345	-0.068	0.109
-117.137	-200.000	-0.007	-0.089
-116.122	433.928	-0.138	-0.296
-115.107	-126.538	-0.104	0.015
-114.093	-25.481	0.156	0.091
-113.078	-115.580	0.166	0.031
-112.064	-153.008	0.225	-0.016
-111.049	-40.530	-0.016	-0.008
-110.034	-200.000	-0.021	-0.329
-109.020	144.757	0.081	-0.106
-108.005	467.971	-0.047	0.105
-106.991	68.346	0.332	-0.336
-105.976	71.090	-0.287	-0.293
-104.962	800.000	0.033	0.109
-103.947	205.857	0.105	0.161
-102.932	138.110	0.143	0.184
-101.918	13.422	0.233	0.178
-100.903	-141.432	0.349	0.035
-99.889	-132.405	0.345	-0.044
-98.874	-200.000	-0.024	-0.159
-97.859	-10.135	0.078	0.051
-96.845	-3.907	-0.206	-0.141
-95.830	-43.482	-0.422	-0.210
-94.816	-51.484	0.106	-0.049
-93.801	283.532	-0.145	0.256
-92.786	-200.000	-0.009	0.232
-91.772	-94.820	0.146	-0.039
-90.757	-200.000	0.036	0.275
-89.743	-152.204	-0.332	-0.024
-88.728	217.173	0.131	0.206
-87.713	-64.740	-0.067	0.027
-86.699	-75.419	0.459	0.161
-85.684	-68.912	-0.115	0.044
-84.670	800.000	-0.067	-0.221
-83.655	481.937	0.011	-0.025
-82.640	-200.000	0.012	-0.142
-81.626	-200.000	0.005	0.213
-80.611	-200.000	0.001	0.064
-79.597	-82.727	-0.159	0.051
-78.582	-200.000	-0.043	-0.215
-77.567	341.524	0.070	-0.135
-76.553	-55.652	-0.027	-0.012
-75.538	68.661	0.223	-0.226
-74.524	-200.000	-0.064	0.279
-73.509	-200.000	-0.014	0.101
-72.494	-168.634	0.228	-0.009
-71.480	-72.795	0.266	-0.096
-70.465	-31.157	-0.190	-0.105
-69.451	444.050	-0.142	-0.306
-68.436	-45.113	-0.052	-0.026
-67.422	5.845	0.071	-0.052
-66.407	-132.920	-0.072	0.009
-65.392	-94.991	0.142	0.038
-64.378	47.476	-0.282	-0.259
-63.363	800.000	-0.069	0.201
-62.349	-24.390	-0.178	0.104
-61.334	24.910	-1.277	-1.042
-60.319	800.000	-0.188	0.677
-59.305	-200.000	-0.135	-0.885
-58.290	202.802	0.829	1.260
-57.276	284.083	0.987	1.746
-56.261	-200.000	95.850	594.265
-55.246	652.025	1370.690	3456.034
-54.232	199.923	2544.590	3842.651
-53.217	120.589	2138.017	2613.484
-52.203	44.008	1601.814	1444.261
-51.188	35.595	1340.069	1157.784
-50.173	32.409	1298.000	1102.756
-49.159	54.701	1345.405	1276.427
-48.144	56.718	1361.980	1304.115
-47.130	35.778	1320.751	1141.998
-46.115	32.282	1303.212	1106.261
-45.100	32.038	1298.585	1100.858
-44.086	31.980	1296.069	1098.344
-43.071	31.934	1294.178	1096.431
-42.057	31.872	1292.090	1094.255
-41.042	31.957	1289.874	1092.830
-40.027	31.881	1288.657	1091.311
-39.013	32.000	1286.568	1090.190
-37.998	31.865	1285.048	1088.077
-36.984	31.929	1283.260	1086.893
-35.969	31.957	1281.518	1085.532
-34.954	32.104	1279.744	1084.839
-33.940	32.132	1278.502	1083.903
-32.925	32.053	1277.237	1082.333
-31.911	31.964	1275.959	1080.696
-30.896	32.109	1273.858	1079.707
-29.881	32.038	1272.523	1078.124
-28.867	32.043	1271.378	1077.139
-27.852	32.088	1270.093	1076.263
-26.838	32.157	1268.465	1075.238
-25.823	32.147	1266.956	1073.862
-24.809	32.055	1265.523	1072.076
-23.794	32.122	1264.463	1071.518
-22.779	32.116	1263.528	1070.651
-21.765	32.170	1261.663	1069.332
-20.750	32.086	1260.689	1067.989
-19.736	31.932	1259.924	1066.422
-18.721	31.972	1258.376	1065.299
-17.706	32.008	1257.533	1064.743
-16.692	31.970	1256.100	1063.273
-15.677	31.881	1255.113	1061.894
-14.663	31.873	1254.091	1060.943
-13.648	31.890	1252.881	1059.971
-12.633	31.862	1252.252	1059.239
-11.619	31.893	1251.307	1058.570
-10.604	31.929	1250.153	1057.756
-9.590	31.884	1249.275	1056.720
-8.575	31.877	1248.190	1055.719
-7.560	31.819	1247.845	1055.059
-6.546	31.917	1246.435	1054.379
-5.531	31.858	1245.554	1053.256
-4.517	31.928	1244.515	1052.731
-3.502	31.973	1243.702	1052.255
-2.487	32.000	1242.756	1051.561
-1.473	31.918	1238.410	1047.388
-0.458	30.482	1224.110	1027.315
0.556	25.793	1206.591	989.856
1.571	22.103	1211.835	973.662
2.586	21.090	1226.401	979.591
3.600	20.510	1215.652	967.689
4.615	15.674	1144.600	885.634
5.629	8.076	1071.868	791.673
6.644	4.653	1052.974	760.923
7.659	4.466	1050.320	758.026
8.673	4.467	1049.393	757.296
9.688	4.504	1047.826	756.278
10.702	4.644	1045.910	755.508
11.717	9.000	1051.901	781.011
12.731	15.972	1061.512	822.222
13.746	18.744	1064.500	838.009
14.761	17.883	1063.186	832.704
15.775	17.007	1060.716	826.429
16.790	15.780	1059.217	819.217
17.804	15.267	1057.031	814.960
18.819	14.809	1056.072	811.926
19.834	14.547	1055.460	810.110
20.848	14.361	1054.639	808.506
21.863	14.226	1053.516	806.918
22.877	13.946	1053.218	805.263
23.892	14.060	1052.030	804.835
24.907	13.970	1051.872	804.204
25.921	14.033	1050.539	803.423
26.936	14.141	1049.015	802.706
27.950	14.085	1048.258	801.786
28.965	14.198	1046.420	800.849
29.980	14.297	1045.075	800.228
30.994	14.273	1043.920	799.157
32.009	14.504	1042.231	798.902
33.023	14.389	1041.724	797.889
34.038	14.253	1040.566	796.282
35.053	14.088	1040.059	795.034
36.067	14.174	1039.096	794.638
37.082	14.189	1037.945	793.760
38.096	14.250	1037.457	793.608
39.111	14.239	1036.867	793.032
40.126	14.125	1035.590	791.445
41.140	13.993	1034.260	789.728
42.155	13.918	1033.292	788.564
43.169	13.936	1031.837	787.470
44.184	14.010	1030.859	787.004
45.199	13.984	1029.825	786.024
46.213	14.050	1028.454	785.216
47.228	14.041	1028.278	784.973
48.242	14.155	1026.784	784.302
49.257	14.066	1025.811	783.068
50.271	14.048	1025.077	782.355
51.286	14.103	1024.516	782.116
52.301	14.070	1023.166	780.859
53.315	14.066	1022.187	780.027
54.330	14.074	1021.122	779.179
55.344	14.021	1020.316	778.250
56.359	14.115	1019.081	777.676
57.374	13.967	1018.397	776.396
58.388	13.937	1017.460	775.473
59.403	13.963	1016.340	774.672
60.417	13.841	1016.568	774.207
61.432	13.908	1015.415	773.574
62.447	13.842	1014.732	772.676
63.461	13.868	1013.854	772.063
64.476	13.879	1012.624	771.108
65.490	13.889	1011.997	770.610
66.505	13.925	1011.471	770.306
67.520	13.924	1010.668	769.620
68.534	13.940	1010.013	769.129
69.549	13.907	1009.228	768.312
70.563	13.726	1008.843	767.111
71.578	13.751	1007.758	766.333
72.593	13.836	1006.834	765.955
73.607	13.663	1006.182	764.594
74.622	13.769	1005.689	764.643
75.636	13.797	1005.047	764.215
76.651	13.768	1004.374	763.501
77.666	13.795	1003.922	763.216
78.680	13.788	1002.933	762.363
79.695	13.844	1002.548	762.262
80.709	13.923	1002.081	762.201
81.724	14.019	1000.923	761.693
82.739	13.939	1000.581	760.999
83.753	14.240	999.329	761.358
84.768	14.187	998.827	760.664
85.782	14.468	997.855	761.138
86.797	14.323	997.093	759.831
87.812	14.167	996.127	758.314
88.826	14.083	995.333	757.261
89.841	14.156	994.657	757.012
90.855	14.280	993.540	756.656
91.870	14.341	992.552	756.118
92.884	14.270	991.583	754.987
93.899	14.281	990.852	754.417
94.914	14.317	990.323	754.107
95.928	14.204	989.782	753.116
96.943	14.346	988.201	752.490
97.957	14.262	987.509	751.516
98.972	14.257	986.981	751.029
99.987	14.297	986.247	750.581
101.001	14.190	985.750	749.655
102.016	14.291	984.557	749.138
103.030	14.331	983.716	748.610
104.045	14.193	982.982	747.364
105.060	14.258	981.885	746.756
106.074	14.091	981.066	745.317
107.089	13.922	980.096	743.762
108.103	13.890	979.188	742.862
109.118	13.989	977.978	742.319
110.133	13.884	977.243	741.229
111.147	13.973	976.128	740.716
112.162	13.878	975.650	739.860
113.176	14.014	974.964	739.884
114.191	14.126	974.160	739.706
115.206	14.098	973.543	739.045
116.220	14.049	972.141	737.698
117.235	14.048	971.654	737.261
118.249	14.079	970.493	736.450
119.264	13.960	970.042	735.517
120.279	13.904	969.145	734.526
121.293	13.922	968.370	733.952
122.308	13.874	967.450	732.978
123.322	14.018	965.823	732.315
124.337	13.909	965.076	731.204
125.352	13.921	963.975	730.357
126.366	13.842	963.542	729.615
127.381	13.772	962.476	728.438
128.395	13.880	961.248	727.916
129.410	14.093	960.057	727.885
130.424	14.014	959.790	727.271
131.439	13.984	959.083	726.539
132.454	14.048	958.366	726.211
133.468	14.118	957.328	725.669
134.483	14.028	957.117	725.052
135.497	14.017	956.074	724.150
136.512	14.150	954.898	723.774
137.527	14.284	953.438	723.181
138.541	14.202	953.249	722.618
139.556	14.227	952.454	722.062
140.570	14.230	951.929	721.614
141.585	14.436	951.001	721.740
142.600	14.178	950.653	720.294
143.614	14.356	949.636	720.228
144.629	14.430	948.766	719.823
145.643	14.398	947.902	718.968
146.658	14.196	946.998	717.346
147.673	14.216	945.925	716.558
148.687	14.076	945.298	715.415
149.702	14.247	943.938	715.057
150.716	14.255	943.214	714.481
151.731	14.185	942.788	713.795
152.746	14.231	942.223	713.502
153.760	14.123	941.794	712.649
154.775	14.216	941.004	712.389
155.789	14.372	940.510	712.616
156.804	14.380	939.629	711.922
157.819	14.349	939.112	711.335
158.833	14.557	938.066	711.366
159.848	14.418	937.807	710.516
160.862	14.400	936.129	709.105
161.877	14.216	935.268	707.606
162.892	14.153	934.416	706.632
163.906	14.327	933.444	706.571
164.921	14.199	933.056	705.674
165.935	14.323	931.769	705.163
166.950	14.309	930.815	704.321
167.964	14.313	930.154	703.772
168.979	14.102	929.446	702.286
169.994	14.274	928.383	702.143
171.008	14.396	927.912	702.239
172.023	14.216	927.504	701.110
173.037	14.546	926.349	701.564
174.052	14.486	925.643	700.715
175.067	14.372	924.736	699.488
176.081	14.284	924.180	698.637
177.096	14.267	923.745	698.172
178.110	14.281	922.976	697.591
179.125	14.289	922.390	697.118
180.140	14.308	921.948	696.802
181.154	14.384	921.791	696.939
182.169	14.522	920.981	696.844
183.183	14.641	920.478	696.898
184.198	14.662	919.560	696.230
185.213	14.625	918.652	695.327
186.227	14.688	918.322	695.277
187.242	14.586	917.914	694.483
188.256	14.716	917.452	694.613
189.271	14.727	916.172	693.625
190.286	14.490	915.602	692.150
191.300	14.370	914.615	690.843
192.315	14.222	913.875	689.610
193.329	14.330	913.294	689.557
194.344	14.363	912.998	689.412
195.359	14.497	912.278	689.359
196.373	14.677	911.814	689.691
197.388	14.834	911.389	689.956
198.402	14.776	910.916	689.300
199.417	14.969	910.103	689.421
200.432	14.888	909.637	688.671
201.446	14.868	909.516	688.436
202.461	14.997	908.984	688.502
203.475	15.000	908.240	687.890
204.490	14.907	907.487	686.880
205.504	14.823	906.193	685.495
206.519	14.818	905.710	685.049
207.534	14.911	904.649	684.564
208.548	14.757	904.847	684.025
209.563	14.953	903.722	683.913
210.577	14.940	902.981	683.239
211.592	15.027	902.440	683.124
212.607	15.038	901.839	682.655
213.621	14.916	901.028	681.483
214.636	14.930	900.329	680.952
215.650	15.121	899.543	681.073
216.665	15.158	899.094	680.822
217.680	15.155	898.492	680.296
218.694	15.208	897.483	679.688
219.709	15.206	896.775	679.083
220.723	15.068	896.547	678.292
221.738	15.154	895.764	677.986
222.753	15.129	895.248	677.433
223.767	15.294	894.386	677.390
224.782	15.314	893.988	677.107
225.796	15.221	893.618	676.390
226.811	15.126	893.212	675.640
227.826	15.161	892.105	674.887
228.840	15.155	891.467	674.319
229.855	15.177	890.471	673.595
230.869	15.333	889.780	673.638
231.884	15.099	889.413	672.362
232.899	15.056	888.612	671.524
233.913	15.090	887.711	670.921
234.928	15.137	887.129	670.609
235.942	14.979	886.666	669.568
236.957	15.074	886.235	669.562
237.972	14.986	885.583	668.660
238.986	15.103	884.870	668.530
240.001	15.103	884.315	668.053
241.015	15.092	883.977	667.693
242.030	15.258	883.091	667.627
243.045	15.394	882.124	667.374
244.059	15.291	881.859	666.705
245.074	15.276	881.341	666.195
246.088	15.348	880.780	666.001
247.103	15.310	880.164	665.323
248.117	15.384	880.223	665.604
249.132	15.644	879.234	665.828
250.147	15.598	878.999	665.406
251.161	15.739	878.025	665.169
252.176	15.736	877.156	664.441
253.190	15.646	876.766	663.733
254.205	15.689	876.370	663.541
255.220	15.778	875.549	663.214
256.234	15.822	874.598	662.608
257.249	15.780	874.232	662.107
258.263	15.802	873.258	661.396
259.278	15.799	872.514	660.761
260.293	15.851	872.301	660.745
261.307	15.878	871.787	660.403
262.322	16.031	870.700	660.120
263.336	15.949	870.184	659.352
264.351	15.990	869.377	658.843
265.366	16.034	868.726	658.461
266.380	16.085	868.514	658.441
267.395	15.882	867.882	657.111
268.409	16.006	866.713	656.654
269.424	16.039	866.226	656.355
270.439	15.855	865.704	655.186
271.453	15.941	865.115	655.014
272.468	15.842	864.576	654.166
273.482	15.908	864.017	653.940
274.497	15.888	863.515	653.425
275.512	15.875	863.081	652.987
276.526	15.983	862.327	652.778
277.541	16.039	861.673	652.443
278.555	16.185	860.779	652.271
279.570	16.233	860.630	652.286
280.585	16.116	859.830	651.170
281.599	16.109	858.991	650.452
282.614	16.005	858.266	649.444
283.628	16.070	858.093	649.507
284.643	16.045	857.464	648.878
285.657	16.144	856.684	648.609
286.672	16.248	855.700	648.207
287.687	16.150	855.558	647.664
288.701	16.177	855.001	647.291
289.716	16.254	854.124	646.863
290.730	16.254	853.568	646.387
291.745	16.150	852.947	645.459
292.760	16.253	853.001	645.839
293.774	16.403	851.826	645.464
294.789	16.168	851.545	644.296
295.803	16.173	850.328	643.336
296.818	16.239	849.798	643.132
297.833	16.262	849.215	642.719
298.847	16.266	848.992	642.511
299.862	16.388	848.018	642.179
300.876	16.355	847.695	641.754
301.891	16.442	846.970	641.477
302.906	16.502	846.640	641.398
303.920	16.506	846.121	640.963
304.935	16.598	845.433	640.736
305.949	16.539	845.003	640.128
306.964	16.529	844.174	639.407
307.979	16.603	843.791	639.339
308.993	16.604	843.210	638.845
310.008	16.753	842.447	638.775
311.022	16.547	841.937	637.554
312.037	16.555	841.466	637.169
313.052	16.541	840.590	636.397
314.066	16.623	840.101	636.279
315.081	16.401	840.035	635.339
316.095	16.382	839.224	634.598
317.110	16.391	838.623	634.122
318.125	16.465	838.110	633.955
319.139	16.332	837.925	633.262
320.154	16.476	837.324	633.288
321.168	16.621	836.496	633.149
322.183	16.634	835.961	632.736
323.197	16.573	835.658	632.225
324.212	16.468	835.201	631.430
325.227	16.596	834.599	631.395
326.241	16.614	833.517	630.588
327.256	16.635	833.258	630.416
328.270	16.664	832.718	630.059
329.285	16.629	831.795	629.175
330.300	16.430	831.676	628.290
331.314	16.592	831.173	628.457
332.329	16.585	830.805	628.099
333.343	16.726	830.249	628.143
334.358	16.761	829.682	627.788
335.373	16.642	829.794	627.377
336.387	16.773	829.047	627.240
337.402	16.887	829.152	627.686
338.416	16.828	828.605	627.001
339.431	16.971	828.057	627.059
340.446	17.014	827.695	626.888
341.460	16.959	827.611	626.567
342.475	17.161	826.744	626.598
343.489	17.204	826.397	626.438
344.504	16.988	826.328	625.534
345.519	17.140	825.833	625.665
346.533	17.283	824.713	625.288
347.548	17.035	824.028	623.799
348.562	17.053	823.625	623.507
349.577	16.831	823.396	622.464
350.592	16.931	822.637	622.202
351.606	16.904	821.937	621.518
352.621	17.053	821.107	621.380
353.635	17.018	820.655	620.855
354.650	17.092	819.955	620.540
355.665	17.080	819.336	619.974
356.679	17.148	818.848	619.799
357.694	17.195	818.372	619.554
358.708	17.035	817.965	618.610
359.723	17.020	817.289	617.988
360.738	17.019	816.640	617.438
361.752	17.217	815.684	617.381
362.767	17.338	815.645	617.734
363.781	17.310	815.159	617.212
364.796	17.400	814.794	617.208
365.810	17.621	813.702	617.124
366.825	17.561	813.787	616.917
367.840	17.553	813.627	616.714
368.854	17.356	813.162	615.594
369.869	17.374	812.404	615.031
370.883	17.375	811.951	614.637
371.898	17.420	811.973	614.760
372.913	17.621	811.483	615.061
373.927	17.413	810.775	613.719
374.942	17.565	810.392	613.923
375.956	17.639	810.367	614.119
376.971	17.613	809.574	613.369
377.986	17.798	809.028	613.566
379.000	17.801	808.675	613.254
380.015	17.645	808.072	612.182
381.029	17.572	807.964	611.785
382.044	17.586	806.797	610.898
383.059	17.797	806.460	611.346
384.073	17.637	805.832	610.239
385.088	17.637	805.148	609.670
386.102	17.571	804.777	609.098
387.117	17.576	804.075	608.530
388.132	17.660	803.128	608.059
389.146	17.610	803.010	607.741
390.161	17.766	802.508	607.862
391.175	17.832	801.995	607.653
392.190	17.852	801.318	607.158
393.205	17.534	801.201	605.884
394.219	17.640	801.136	606.159
395.234	17.630	800.604	605.669
396.248	17.683	799.872	605.247
397.263	17.691	799.557	604.986
398.278	17.599	799.046	604.219
399.292	17.664	798.541	604.012
400.307	17.587	798.266	603.480
401.321	17.584	797.851	603.100
402.336	17.774	797.090	603.144
403.350	17.745	796.907	602.849
404.365	17.684	796.738	602.455
405.380	17.943	796.246	602.943
406.394	17.868	795.711	602.218
407.409	17.993	795.103	602.147
408.423	18.060	794.922	602.193
409.438	18.148	794.466	602.102
410.453	18.093	794.135	601.606
411.467	18.082	793.494	601.027
412.482	18.106	793.045	600.720
413.496	18.169	793.181	600.991
414.511	18.183	792.454	600.435
415.526	18.156	792.096	600.018
416.540	18.278	791.372	599.843
417.555	18.089	791.145	598.957
418.569	18.215	791.071	599.288
419.584	18.196	790.341	598.615
420.599	18.208	790.103	598.425
421.613	156.574	1370.003	1795.435
422.628	135.448	1454.489	1795.520
