DTS Sentinel unit serial number:	SN413079Multiplexer serial number:	ORYXHardware model number:	OX4-SRSoftware version number:	ORYX F/W v4.00 Oryx Data Collector v3.7.2.0data status	okinstallation	princeton_trtdifferential loss correction	single-endedforward channel	channel 1reverse channel	N/Adate	2019/09/14time	02:42:35forward acquisition time	60.00reverse acquisition time	0.00gamma	496.2192k internal	0.2336k external	0.2336temperature offset calibration	1.0075default loss term (dB/km)	0.3790temperature slope calibration	1.0000multiplexer offset coefficient	1.0000multiplexer slope coefficient	1.0000fibre end	0.00T internal ref (°C)	26.55T ext. ref 1 (°C)	3.23T ext. ref 2 (°C)	21.60length (m)	temperature (°C)	Stokes	anti-Stokes-747.200	-200.000	-0.001	0.194
-746.185	800.000	0.054	0.157
-745.171	253.388	0.036	-0.062
-744.156	472.750	-0.118	-0.267
-743.142	800.000	0.052	-0.188
-742.127	-200.000	-0.014	-0.095
-741.112	-200.000	-0.006	0.145
-740.098	-200.000	-0.034	0.184
-739.083	800.000	0.056	0.221
-738.069	100.060	-0.186	0.216
-737.054	109.563	-0.087	0.105
-736.039	-23.578	-0.266	-0.160
-735.025	-108.448	-0.305	0.066
-734.010	49.497	-0.145	-0.137
-732.996	-153.636	-0.220	-0.015
-731.981	-142.616	0.143	0.014
-730.966	0.565	0.104	0.075
-729.952	-109.462	-0.232	-0.049
-728.937	-200.000	0.006	-0.053
-727.923	-200.000	0.014	-0.192
-726.908	-200.000	-0.012	-0.138
-725.894	131.765	-0.145	-0.188
-724.879	-29.640	0.057	0.033
-723.864	3.936	-0.226	0.165
-722.850	-177.286	-0.296	0.007
-721.835	25.798	-0.145	0.121
-720.821	-110.081	0.269	0.056
-719.806	717.853	0.047	-0.125
-718.791	464.835	0.117	-0.263
-717.777	-99.128	-0.063	-0.016
-716.762	-200.000	-0.030	0.227
-715.748	-21.628	-0.075	-0.046
-714.733	-57.712	-0.184	0.081
-713.718	-200.000	-0.053	0.469
-712.704	-32.939	-0.122	0.068
-711.689	121.567	0.241	-0.301
-710.675	26.308	-0.272	-0.228
-709.660	-106.747	0.302	0.067
-708.645	54.362	-0.170	-0.164
-707.631	-15.484	-0.235	-0.150
-706.616	-200.000	-0.017	-0.092
-705.602	-134.759	-0.275	0.033
-704.587	19.662	-0.107	0.086
-703.572	-23.906	0.232	-0.139
-702.558	-151.456	-0.206	0.015
-701.543	-162.409	0.172	0.009
-700.529	156.340	-0.145	-0.201
-699.514	66.015	-0.158	-0.160
-698.499	-155.363	-0.458	0.030
-697.485	76.985	0.231	-0.246
-696.470	719.602	0.076	-0.202
-695.456	-200.000	-0.013	-0.087
-694.441	34.614	-0.165	0.145
-693.426	-22.525	-0.049	-0.029
-692.412	-200.000	0.011	0.096
-691.397	-129.050	-0.274	-0.038
-690.383	-59.096	0.126	-0.054
-689.368	800.000	0.132	-0.448
-688.354	-2.939	-0.060	-0.042
-687.339	115.443	-0.132	0.162
-686.324	150.368	-0.168	-0.229
-685.310	800.000	-0.097	0.375
-684.295	-160.945	-0.061	-0.003
-683.281	83.057	0.117	-0.127
-682.266	-200.000	-0.021	0.106
-681.251	-32.278	-0.164	-0.092
-680.237	38.911	-0.218	-0.195
-679.222	466.278	0.036	0.081
-678.208	-200.000	0.026	0.302
-677.193	69.293	-0.064	-0.066
-676.178	-129.634	0.172	0.024
-675.164	-98.411	0.288	0.074
-674.149	-171.368	0.077	0.003
-673.135	-90.717	-0.193	0.056
-672.120	-200.000	0.044	-0.225
-671.105	-200.000	0.073	-0.380
-670.091	-194.636	0.046	0.000
-669.076	-61.272	-0.190	0.080
-668.062	-80.418	-0.154	0.052
-667.047	-57.382	-0.373	0.164
-666.032	470.048	-0.047	-0.106
-665.018	2.837	-0.245	0.178
-664.003	-125.168	0.027	-0.004
-662.989	288.874	0.097	0.175
-661.974	-101.452	0.069	0.017
-660.959	-15.583	0.203	0.130
-659.945	-200.000	0.002	0.180
-658.930	206.734	-0.095	-0.148
-657.916	-76.409	0.135	-0.047
-656.901	578.266	-0.091	0.222
-655.886	608.216	-0.109	-0.273
-654.872	677.062	0.080	-0.207
-653.857	800.000	0.024	0.089
-652.843	-72.655	0.216	-0.080
-651.828	347.906	0.088	-0.173
-650.814	120.687	0.103	-0.129
-649.799	-36.371	-0.169	0.091
-648.784	-60.284	-0.209	-0.089
-647.770	97.895	0.226	-0.260
-646.755	53.513	-0.287	0.276
-645.741	64.893	-0.206	0.208
-644.726	238.284	0.129	0.215
-643.711	-1.830	-0.173	0.122
-642.697	-77.854	-0.210	-0.073
-641.682	730.365	0.067	-0.180
-640.668	494.567	0.128	0.293
-639.653	193.919	-0.042	0.063
-638.638	-169.902	0.201	0.007
-637.624	800.000	-0.044	0.158
-636.609	123.588	-0.108	-0.135
-635.595	-8.917	0.154	0.103
-634.580	424.526	-0.119	0.257
-633.565	-200.000	-0.010	0.124
-632.551	54.022	-0.281	-0.270
-631.536	-95.771	-0.318	-0.085
-630.522	800.000	-0.037	-0.141
-629.507	123.582	-0.065	-0.082
-628.492	185.789	0.116	-0.172
-627.478	-200.000	-0.015	0.154
-626.463	-200.000	0.026	0.138
-625.449	800.000	-0.108	0.420
-624.434	800.000	-0.113	-0.386
-623.419	-71.466	-0.195	0.073
-622.405	4.131	0.145	0.106
-621.390	65.191	0.086	0.087
-620.376	-169.192	0.271	-0.010
-619.361	-67.288	0.072	0.028
-618.346	64.358	-0.071	0.071
-617.332	-170.277	-0.150	-0.005
-616.317	800.000	0.091	-0.383
-615.303	-41.617	-0.195	-0.100
-614.288	-133.182	-0.471	-0.059
-613.273	85.954	0.096	0.105
-612.259	-132.738	-0.630	0.081
-611.244	145.642	-0.171	-0.228
-610.230	800.000	-0.074	-0.273
-609.215	-98.022	0.232	0.060
-608.201	-54.886	0.135	-0.061
-607.186	800.000	0.123	0.361
-606.171	192.218	-0.086	0.129
-605.157	-38.792	-0.493	-0.259
-604.142	221.622	-0.049	0.078
-603.128	262.463	0.118	0.205
-602.113	283.277	-0.086	0.154
-601.098	-126.165	-0.221	-0.033
-600.084	116.969	-0.050	-0.061
-599.069	-155.613	-0.131	-0.008
-598.055	-179.310	-0.178	0.004
-597.040	-68.504	-0.194	-0.075
-596.025	63.859	0.076	0.076
-595.011	508.449	-0.073	0.169
-593.996	4.287	-0.295	0.216
-592.982	-200.000	0.039	-0.186
-591.967	139.007	0.116	0.153
-590.952	-65.235	0.379	-0.152
-589.938	-126.979	-0.208	0.031
-588.923	-200.000	0.016	0.145
-587.909	-200.000	-0.002	-0.475
-586.894	276.036	0.179	-0.318
-585.879	-155.474	0.383	0.025
-584.865	800.000	0.204	-0.563
-583.850	-116.611	0.188	-0.035
-582.836	28.012	0.162	0.137
-581.821	157.256	0.152	-0.209
-580.806	-200.000	0.037	-0.208
-579.792	-21.417	0.149	0.091
-578.777	-72.354	-0.110	-0.041
-577.763	-96.150	-0.446	-0.118
-576.748	114.164	0.182	-0.221
-575.733	-57.622	-0.228	-0.100
-574.719	-92.505	-0.251	0.070
-573.704	-100.275	0.292	-0.072
-572.690	-200.000	-0.042	-0.545
-571.675	-11.525	-0.098	0.064
-570.661	-61.377	-0.061	0.025
-569.646	-116.633	-0.133	0.024
-568.631	161.342	0.079	-0.111
-567.617	-200.000	0.027	-0.152
-566.602	29.460	-0.351	-0.297
-565.588	800.000	-0.020	0.056
-564.573	54.239	0.385	0.370
-563.558	38.766	-0.204	0.182
-562.544	-121.990	0.125	0.021
-561.529	89.191	-0.059	0.066
-560.515	89.596	0.165	-0.184
-559.500	-200.000	-0.034	-0.314
-558.485	113.619	0.114	0.138
-557.471	-71.611	-0.246	-0.092
-556.456	97.139	-0.193	-0.221
-555.442	-53.484	-0.221	-0.101
-554.427	-171.970	0.112	-0.004
-553.412	-10.884	0.279	0.184
-552.398	103.850	-0.122	-0.143
-551.383	-200.000	-0.003	0.120
-550.369	152.414	0.055	-0.075
-549.354	-200.000	-0.031	-0.152
-548.339	800.000	-0.130	0.406
-547.325	-48.309	0.155	0.074
-546.310	-200.000	-0.029	-0.229
-545.296	-138.548	-0.116	0.013
-544.281	-200.000	0.031	-0.185
-543.266	13.373	-0.166	-0.128
-542.252	164.588	0.130	-0.183
-541.237	61.324	-0.166	-0.164
-540.223	-90.364	0.180	-0.052
-539.208	322.568	0.193	-0.367
-538.193	-114.070	0.105	0.020
-537.179	800.000	-0.110	-0.330
-536.164	739.321	-0.035	0.094
-535.150	100.156	-0.213	-0.247
-534.135	-113.400	-0.109	-0.021
-533.121	331.551	0.124	-0.238
-532.106	-88.794	0.494	0.146
-531.091	129.713	0.079	0.100
-530.077	-200.000	0.028	0.366
-529.062	59.874	0.082	0.081
-528.048	-32.641	-0.190	0.105
-527.033	-91.402	0.084	-0.024
-526.018	800.000	0.035	0.114
-525.004	279.994	0.060	-0.107
-523.989	-200.000	-0.072	0.331
-522.975	-37.294	-0.292	0.156
-521.960	-200.000	-0.018	-0.220
-520.945	-6.266	0.131	0.089
-519.931	800.000	0.028	0.114
-518.916	77.631	-0.114	0.121
-517.902	-91.350	0.160	-0.046
-516.887	800.000	0.060	0.170
-515.872	-62.504	-0.230	0.095
-514.858	-200.000	-0.014	-0.176
-513.843	-146.603	0.216	-0.019
-512.829	-20.476	0.066	0.040
-511.814	259.993	-0.226	0.389
-510.799	261.901	-0.081	-0.139
-509.785	144.307	-0.114	-0.152
-508.770	-47.961	0.338	0.163
-507.756	-97.698	-0.188	0.048
-506.741	-80.156	0.309	-0.103
-505.726	-198.930	0.149	0.001
-504.712	132.172	0.227	0.291
-503.697	-185.651	-0.154	-0.002
-502.683	201.895	0.152	-0.232
-501.668	-25.648	0.346	-0.203
-500.653	693.080	-0.109	0.283
-499.639	-200.000	0.022	0.103
-498.624	390.426	0.080	-0.165
-497.610	-9.928	0.092	-0.061
-496.595	800.000	0.099	0.317
-495.581	122.014	0.264	0.327
-494.566	-97.515	0.293	0.076
-493.551	164.000	-0.033	0.047
-492.537	67.598	-0.105	-0.107
-491.522	-66.938	-0.069	0.027
-490.508	1.391	-0.268	0.191
-489.493	-149.002	-0.174	-0.014
-488.478	-170.292	-0.129	0.005
-487.464	-82.284	0.076	-0.025
-486.449	-82.405	0.291	0.094
-485.435	-120.431	0.080	-0.014
-484.420	-89.038	0.214	-0.063
-483.405	77.358	-0.181	-0.191
-482.391	-47.327	0.022	0.010
-481.376	60.100	-0.163	0.160
-480.362	-89.277	-0.028	0.008
-479.347	-81.443	-0.358	-0.117
-478.332	391.137	0.096	0.199
-477.318	191.462	0.171	0.255
-476.303	800.000	0.024	0.069
-475.289	220.876	-0.172	-0.275
-474.274	265.872	0.092	-0.159
-473.259	-67.322	0.505	-0.197
-472.245	-200.000	0.050	-0.331
-471.230	285.073	-0.101	0.182
-470.216	282.654	0.105	-0.188
-469.201	-151.217	-0.205	-0.015
-468.186	-113.481	-0.038	0.007
-467.172	-200.000	-0.010	-0.063
-466.157	-5.556	-0.023	0.016
-465.143	-200.000	0.048	-0.328
-464.128	47.232	0.224	-0.207
-463.113	-200.000	-0.041	-0.300
-462.099	230.001	0.020	0.033
-461.084	649.194	-0.148	0.375
-460.070	-200.000	0.003	0.182
-459.055	87.451	-0.228	0.250
-458.040	81.214	0.147	0.157
-457.026	159.305	0.175	-0.242
-456.011	221.578	-0.045	-0.072
-454.997	-200.000	0.046	-0.249
-453.982	125.619	0.130	-0.163
-452.968	-62.098	-0.040	0.016
-451.953	140.212	0.270	-0.353
-450.938	117.205	-0.078	-0.095
-449.924	17.873	0.154	0.122
-448.909	113.969	-0.147	0.177
-447.895	-134.065	0.287	0.035
-446.880	674.568	-0.034	0.088
-445.865	800.000	0.033	0.141
-444.851	362.953	-0.131	0.261
-443.836	-66.790	-0.062	-0.024
-442.822	800.000	-0.076	0.237
-441.807	225.189	0.142	0.228
-440.792	64.428	-0.272	0.272
-439.778	-36.683	-0.100	-0.053
-438.763	597.356	-0.085	-0.208
-437.749	-161.664	-0.177	0.009
-436.734	693.614	-0.008	-0.021
-435.719	371.376	-0.032	-0.064
-434.705	-65.827	-0.272	-0.108
-433.690	800.000	0.041	-0.160
-432.676	5.176	-0.358	0.262
-431.661	-79.254	0.112	0.038
-430.646	-200.000	0.080	-0.419
-429.632	-26.839	0.134	0.078
-428.617	204.951	-0.113	0.174
-427.603	532.185	-0.015	0.035
-426.588	-7.571	0.229	-0.153
-425.573	-75.902	0.119	0.042
-424.559	3.794	0.412	0.298
-423.544	-200.000	0.059	-0.297
-422.530	-200.000	-0.011	-0.194
-421.515	392.286	0.078	0.160
-420.500	116.722	-0.158	0.192
-419.486	580.866	0.087	-0.211
-418.471	-51.787	-0.343	0.159
-417.457	-200.000	-0.079	0.520
-416.442	-200.000	0.000	0.086
-415.428	-134.103	-0.282	-0.035
-414.413	-48.439	-0.330	-0.158
-413.398	-200.000	-0.013	-0.238
-412.384	-200.000	0.029	-0.263
-411.369	7.086	-0.359	0.266
-410.355	72.202	0.239	0.246
-409.340	800.000	-0.080	-0.233
-408.325	75.637	0.164	0.172
-407.311	-200.000	0.009	-0.093
-406.296	188.453	0.035	-0.052
-405.282	-36.746	0.104	-0.055
-404.267	-200.000	-0.035	-0.288
-403.252	-200.000	-0.039	-0.442
-402.238	211.686	-0.164	0.256
-401.223	-174.272	0.287	-0.008
-400.209	-109.376	-0.194	-0.041
-399.194	-49.357	0.133	0.063
-398.179	153.590	0.163	0.221
-397.165	765.955	-0.036	-0.096
-396.150	-200.000	0.003	0.236
-395.136	800.000	0.123	-0.404
-394.121	-200.000	-0.066	-0.352
-393.106	-200.000	-0.013	-0.234
-392.092	-58.251	0.317	0.137
-391.077	800.000	-0.074	0.318
-390.063	111.254	0.282	-0.337
-389.048	-200.000	-0.004	-0.056
-388.033	800.000	-0.163	0.523
-387.019	-44.128	0.043	-0.021
-386.004	-115.523	0.384	-0.072
-384.990	25.398	-0.177	-0.146
-383.975	-65.457	-0.120	-0.048
-382.960	63.213	0.219	-0.217
-381.946	528.833	0.152	0.355
-380.931	45.350	-0.232	-0.212
-379.917	-200.000	-0.026	-0.147
-378.902	-135.203	-0.128	-0.015
-377.888	90.428	0.349	0.387
-376.873	383.600	0.197	0.402
-375.858	238.195	0.062	-0.102
-374.844	414.834	0.062	-0.130
-373.829	173.243	-0.229	-0.326
-372.815	104.112	0.169	0.197
-371.800	475.760	-0.044	-0.098
-370.785	312.313	-0.026	-0.049
-369.771	-43.565	0.053	-0.027
-368.756	61.742	0.114	0.112
-367.742	-95.252	0.257	0.069
-366.727	98.461	0.049	0.056
-365.712	-125.346	0.348	0.052
-364.698	98.159	0.147	-0.167
-363.683	-65.146	0.281	-0.112
-362.669	-99.360	-0.094	0.024
-361.654	-1.789	0.024	-0.017
-360.639	733.818	0.103	-0.272
-359.625	-54.035	0.042	-0.019
-358.610	-99.681	-0.243	0.060
-357.596	602.852	-0.087	-0.213
-356.581	800.000	-0.051	-0.150
-355.566	-0.578	-0.245	-0.172
-354.552	-200.000	-0.023	-0.136
-353.537	292.667	0.108	0.195
-352.523	-200.000	0.014	0.244
-351.508	-29.024	-0.188	-0.107
-350.493	-200.000	-0.001	-0.066
-349.479	-200.000	0.056	-0.319
-348.464	-200.000	-0.002	0.110
-347.450	96.395	0.128	-0.145
-346.435	33.624	-0.153	0.132
-345.420	-200.000	-0.049	0.341
-344.406	-200.000	-0.035	0.359
-343.391	-141.747	0.113	0.011
-342.377	200.895	-0.057	-0.087
-341.362	-200.000	0.025	0.171
-340.348	800.000	-0.068	-0.223
-339.333	-47.020	0.276	0.133
-338.318	800.000	-0.059	-0.162
-337.304	-24.211	0.162	0.096
-336.289	-93.905	-0.338	-0.092
-335.275	22.973	-0.082	0.066
-334.260	-30.425	-0.262	-0.147
-333.245	176.373	0.160	0.230
-332.231	-56.364	0.142	-0.062
-331.216	-68.785	0.125	-0.048
-330.202	274.620	0.089	0.156
-329.187	-114.128	0.268	0.051
-328.172	-79.233	0.195	0.065
-327.158	-29.323	0.082	-0.046
-326.143	15.857	-0.061	-0.047
-325.129	-48.270	0.156	-0.074
-324.114	103.721	0.072	-0.084
-323.099	398.620	-0.045	-0.092
-322.085	-200.000	0.004	0.151
-321.070	-97.738	-0.145	0.037
-320.056	-58.910	-0.127	0.054
-319.041	-61.182	-0.152	0.063
-318.026	53.713	-0.117	-0.111
-317.012	34.073	0.126	0.108
-315.997	-34.601	0.368	-0.199
-314.983	-65.257	-0.142	0.056
-313.968	-135.087	0.265	0.032
-312.953	-132.099	-0.402	0.052
-311.939	36.630	0.232	0.202
-310.924	166.417	-0.122	-0.171
-309.910	32.810	-0.199	-0.170
-308.895	-97.831	-0.289	-0.074
-307.880	-127.045	0.432	-0.063
-306.866	-200.000	-0.064	-0.566
-305.851	-200.000	0.081	0.359
-304.837	-95.914	0.233	0.061
-303.822	-143.777	0.244	0.023
-302.807	14.548	0.181	-0.140
-301.793	185.422	0.165	0.242
-300.778	-72.806	0.361	-0.131
-299.764	113.144	0.114	0.137
-298.749	-76.515	-0.159	-0.055
-297.735	-200.000	0.018	0.135
-296.720	33.812	0.152	0.131
-295.705	-29.716	-0.410	-0.231
-294.691	-200.000	0.004	-0.022
-293.676	-86.712	-0.159	-0.048
-292.662	-34.320	-0.207	-0.112
-291.647	-137.518	-0.177	-0.020
-290.632	-87.786	-0.132	0.039
-289.618	-200.000	0.002	-0.262
-288.603	-200.000	-0.007	-0.042
-287.589	114.178	-0.138	0.165
-286.574	-152.428	-0.121	-0.009
-285.559	-100.412	-0.262	0.064
-284.545	202.570	0.122	-0.185
-283.530	-16.013	0.237	-0.149
-282.516	394.231	-0.101	0.208
-281.501	800.000	-0.019	-0.073
-280.486	-22.320	-0.244	-0.146
-279.472	243.712	0.061	-0.100
-278.457	-127.814	0.345	0.049
-277.443	-200.000	0.030	0.138
-276.428	195.495	-0.040	0.060
-275.413	-200.000	0.021	-0.123
-274.399	-72.302	-0.034	0.012
-273.384	-68.565	-0.055	0.021
-272.370	-20.848	0.082	-0.050
-271.355	245.104	-0.095	-0.158
-270.340	722.644	-0.022	0.058
-269.326	108.582	0.058	0.069
-268.311	121.892	0.160	-0.197
-267.297	-200.000	0.026	-0.203
-266.282	627.750	-0.012	-0.030
-265.267	-53.550	0.123	-0.056
-264.253	-61.562	-0.230	0.095
-263.238	-117.875	-0.293	-0.052
-262.224	-200.000	0.039	-0.177
-261.209	0.860	0.141	-0.100
-260.195	-9.103	-0.241	-0.159
-259.180	-191.369	-0.245	-0.002
-258.165	94.859	0.142	0.159
-257.151	-30.437	-0.098	-0.055
-256.136	124.362	0.147	-0.182
-255.122	-61.646	0.246	-0.101
-254.107	-131.793	0.484	-0.062
-253.092	-5.106	0.198	0.134
-252.078	-164.112	0.324	0.015
-251.063	-82.883	-0.178	0.056
-250.049	-157.812	-0.192	0.011
-249.034	-119.959	-0.106	-0.018
-248.019	-160.539	0.207	0.011
-247.005	613.826	0.190	-0.469
-245.990	-200.000	0.026	-0.221
-244.976	154.817	0.026	0.036
-243.961	-35.584	0.230	-0.123
-242.946	263.194	-0.101	0.172
-241.932	-169.576	-0.280	-0.010
-240.917	87.472	0.231	0.252
-239.903	212.934	-0.235	0.365
-238.888	-125.512	-0.285	0.043
-237.873	58.357	-0.095	-0.092
-236.859	-200.000	0.020	0.170
-235.844	4.828	0.376	0.272
-234.830	47.536	0.171	-0.157
-233.815	212.049	-0.218	0.338
-232.800	2.453	-0.425	0.303
-231.786	9.136	0.074	0.055
-230.771	-113.157	0.224	-0.043
-229.757	507.535	0.072	0.165
-228.742	-2.816	0.330	0.227
-227.727	744.726	-0.032	-0.085
-226.713	-200.000	-0.039	-0.185
-225.698	-151.594	-0.201	0.015
-224.684	-200.000	-0.019	0.096
-223.669	382.091	-0.090	0.183
-222.655	-200.000	-0.026	0.326
-221.640	-200.000	0.050	0.322
-220.625	302.086	-0.073	-0.134
-219.611	-26.503	-0.212	-0.122
-218.596	226.955	-0.146	-0.233
-217.582	800.000	0.094	0.260
-216.567	-200.000	-0.047	0.224
-215.552	-103.143	0.307	-0.071
-214.538	288.669	-0.243	0.434
-213.523	-200.000	0.003	0.132
-212.509	112.799	-0.082	-0.098
-211.494	-72.152	0.191	0.070
-210.479	213.168	0.154	0.239
-209.465	-18.426	0.150	-0.092
-208.450	-154.514	-0.051	-0.003
-207.436	-170.181	0.117	0.004
-206.421	77.162	0.380	0.398
-205.406	-87.241	0.277	-0.083
-204.392	-200.000	-0.007	0.126
-203.377	-174.224	-0.200	0.006
-202.363	800.000	-0.076	0.231
-201.348	52.020	-0.129	0.121
-200.333	-57.268	-0.254	0.110
-199.319	-131.847	-0.100	0.013
-198.304	96.954	0.221	-0.249
-197.290	-114.193	0.246	-0.047
-196.275	-78.170	0.325	0.110
-195.260	91.045	0.143	-0.158
-194.246	-146.530	-0.329	-0.028
-193.231	-9.668	-0.084	0.055
-192.217	800.000	0.101	0.327
-191.202	-84.034	-0.492	-0.154
-190.187	800.000	0.110	-0.395
-189.173	-200.000	-0.033	-0.148
-188.158	233.623	-0.087	0.140
-187.144	-88.406	0.138	0.040
-186.129	115.206	-0.282	0.339
-185.114	-18.068	-0.213	0.131
-184.100	-200.000	-0.017	0.130
-183.085	-200.000	0.007	0.074
-182.071	-119.882	-0.240	-0.041
-181.056	565.269	-0.065	-0.155
-180.042	-57.708	0.179	-0.077
-179.027	-200.000	0.017	-0.313
-178.012	-39.115	0.177	-0.091
-176.998	2.923	-0.138	0.099
-175.983	15.416	0.141	-0.109
-174.969	567.084	-0.023	0.055
-173.954	-22.902	-0.132	0.078
-172.939	-86.390	0.172	0.052
-171.925	-22.958	-0.096	-0.057
-170.910	-79.978	0.276	0.091
-169.896	800.000	-0.101	0.282
-168.881	280.085	-0.074	-0.129
-167.866	-200.000	0.019	0.154
-166.852	-121.125	-0.236	0.039
-165.837	-62.919	0.269	0.109
-164.823	-108.581	-0.131	-0.028
-163.808	34.325	-0.289	0.247
-162.793	607.822	-0.115	-0.281
-161.779	-200.000	-0.007	-0.093
-160.764	-73.104	0.037	-0.013
-159.750	-57.288	-0.209	0.090
-158.735	-172.509	0.361	0.011
-157.720	-200.000	0.038	0.373
-156.706	-71.469	-0.537	-0.197
-155.691	-137.171	0.391	0.044
-154.677	273.515	-0.086	0.149
-153.662	-194.255	-0.214	0.002
-152.647	-113.599	-0.082	-0.016
-151.633	14.251	-0.172	0.131
-150.618	373.003	-0.016	-0.031
-149.604	43.888	0.027	0.024
-148.589	-104.266	-0.366	0.083
-147.574	473.643	-0.115	0.254
-146.560	-200.000	-0.017	0.185
-145.545	-200.000	0.034	0.280
-144.531	224.163	0.053	-0.084
-143.516	-200.000	0.070	0.304
-142.502	-30.660	0.305	-0.170
-141.487	-101.175	0.269	-0.065
-140.472	-200.000	-0.034	0.303
-139.458	-80.071	-0.234	0.077
-138.443	41.671	0.027	0.024
-137.429	523.558	-0.081	-0.186
-136.414	-200.000	0.016	0.228
-135.399	-200.000	-0.068	0.339
-134.385	-200.000	-0.012	0.060
-133.370	28.281	-0.216	0.179
-132.356	-162.813	-0.184	0.009
-131.341	206.642	-0.065	0.099
-130.326	-200.000	0.007	0.158
-129.312	-165.191	0.187	-0.008
-128.297	178.730	-0.129	0.184
-127.283	563.081	0.078	-0.185
-126.268	7.923	-0.100	-0.074
-125.253	-200.000	0.001	-0.420
-124.239	-42.924	0.238	0.119
-123.224	134.860	0.113	-0.144
-122.210	-176.679	-0.293	0.007
-121.195	-38.921	0.275	-0.142
-120.180	800.000	-0.044	-0.148
-119.166	705.554	-0.118	-0.305
-118.151	-200.000	0.005	-0.098
-117.137	800.000	0.053	0.167
-116.122	-93.567	0.320	0.087
-115.107	-40.874	-0.123	-0.063
-114.093	-200.000	0.020	0.459
-113.078	-55.967	-0.312	0.136
-112.064	-66.628	-0.074	0.029
-111.049	-101.108	0.183	-0.044
-110.034	-124.388	0.301	0.046
-109.020	-200.000	-0.019	0.217
-108.005	-60.863	0.167	-0.069
-106.991	-84.465	0.435	-0.135
-105.976	378.530	0.020	-0.041
-104.962	295.229	0.104	0.186
-103.947	-82.141	-0.160	-0.051
-102.932	0.310	0.064	0.045
-101.918	-65.742	-0.071	-0.028
-100.903	-103.681	-0.408	-0.094
-99.889	200.100	0.284	-0.427
-98.874	-187.846	-0.424	0.005
-97.859	289.167	-0.148	0.262
-96.845	-125.127	-0.287	-0.043
-95.830	-1.095	-0.131	0.091
-94.816	-200.000	-0.004	0.155
-93.801	-107.676	0.097	-0.021
-92.786	152.248	0.119	0.159
-91.772	136.156	-0.305	0.389
-90.757	102.615	0.195	-0.223
-89.743	-6.926	-0.086	0.058
-88.728	-16.542	0.158	0.098
-87.713	-81.166	-0.448	0.145
-86.699	0.411	-0.129	0.090
-85.684	-200.000	0.001	-0.490
-84.670	-97.309	-0.049	-0.012
-83.655	225.269	-0.109	-0.173
-82.640	-90.891	0.186	-0.052
-81.626	-200.000	-0.003	0.232
-80.611	-200.000	0.019	0.154
-79.597	-19.548	-0.163	0.099
-78.582	264.304	0.166	0.283
-77.567	-200.000	0.014	0.090
-76.553	-35.773	-0.380	-0.201
-75.538	800.000	-0.098	-0.353
-74.524	60.515	0.125	-0.121
-73.509	376.978	-0.129	-0.257
-72.494	-154.452	0.133	-0.009
-71.480	-61.513	-0.450	0.185
-70.465	-78.763	0.216	-0.072
-69.451	-200.000	0.015	-0.238
-68.436	-184.601	-0.503	0.008
-67.422	131.714	-0.092	0.116
-66.407	-0.970	-0.162	0.112
-65.392	72.565	-0.059	-0.060
-64.378	800.000	-0.079	-0.237
-63.363	-200.000	-0.078	0.381
-62.349	-36.411	-0.271	0.143
-61.334	145.458	-0.809	-1.059
-60.319	52.745	0.591	0.552
-59.305	-200.000	-0.214	-1.521
-58.290	225.861	0.688	1.091
-57.276	-200.000	0.099	1.520
-56.261	-200.000	116.418	649.649
-55.246	511.246	1538.563	3500.982
-54.232	175.568	2710.884	3842.732
-53.217	106.485	2156.308	2499.349
-52.203	38.404	1589.682	1384.723
-51.188	29.837	1332.237	1109.326
-50.173	27.025	1293.560	1060.681
-49.159	53.563	1351.324	1267.231
-48.144	51.846	1365.476	1270.216
-47.130	30.071	1319.841	1100.219
-46.115	26.750	1301.399	1065.317
-45.100	26.344	1296.651	1059.012
-44.086	26.354	1294.019	1056.879
-43.071	26.419	1291.214	1054.924
-42.057	26.359	1289.414	1053.063
-41.042	26.457	1287.418	1051.961
-40.027	26.438	1285.809	1050.498
-39.013	26.503	1283.930	1049.294
-37.998	26.397	1282.924	1047.816
-36.984	26.494	1281.075	1046.829
-35.969	26.453	1279.069	1044.908
-34.954	26.560	1276.845	1043.666
-33.940	26.583	1276.063	1043.122
-32.925	26.650	1274.046	1041.814
-31.911	26.682	1272.815	1040.952
-30.896	26.617	1271.417	1039.395
-29.881	26.659	1270.081	1038.503
-28.867	26.689	1268.653	1037.464
-27.852	26.607	1267.649	1036.131
-26.838	26.717	1265.995	1035.368
-25.823	26.663	1264.753	1034.005
-24.809	26.591	1263.404	1032.448
-23.794	26.592	1262.506	1031.682
-22.779	26.662	1260.763	1030.612
-21.765	26.578	1259.936	1029.417
-20.750	26.563	1258.565	1028.171
-19.736	26.572	1257.210	1027.076
-18.721	26.584	1255.722	1025.887
-17.706	26.478	1254.800	1024.493
-16.692	26.479	1253.970	1023.780
-15.677	26.489	1252.934	1022.950
-14.663	26.585	1251.475	1022.258
-13.648	26.528	1250.262	1020.905
-12.633	26.525	1249.306	1020.067
-11.619	26.463	1248.139	1018.725
-10.604	26.474	1247.624	1018.330
-9.590	26.488	1246.782	1017.677
-8.575	26.333	1246.193	1016.285
-7.560	26.523	1244.981	1016.324
-6.546	26.507	1244.447	1015.760
-5.531	26.526	1243.490	1015.043
-4.517	26.565	1242.214	1014.179
-3.502	26.567	1241.245	1013.358
-2.487	26.563	1240.110	1012.370
-1.473	26.561	1235.864	1008.851
-0.458	24.968	1222.126	988.814
0.556	21.889	1205.424	952.834
1.571	18.318	1211.984	938.401
2.586	17.592	1226.944	945.869
3.600	17.136	1215.028	934.090
4.615	12.789	1144.065	856.898
5.629	6.046	1073.818	771.203
6.644	3.352	1055.793	745.173
7.659	3.209	1053.402	742.732
8.673	3.195	1052.806	742.177
9.688	3.164	1051.253	740.868
10.702	3.430	1049.097	740.561
11.717	7.210	1054.254	762.353
12.731	14.488	1064.673	805.080
13.746	18.998	1069.867	830.769
14.761	19.645	1070.356	834.201
15.775	18.795	1068.786	828.801
16.790	17.671	1067.329	822.180
17.804	17.087	1064.899	817.426
18.819	16.712	1064.338	815.116
19.834	16.669	1063.330	814.068
20.848	16.561	1062.371	812.743
21.863	16.258	1061.989	810.920
22.877	16.070	1061.376	809.481
23.892	16.102	1060.204	808.668
24.907	16.116	1059.734	808.303
25.921	16.154	1058.197	807.242
26.936	16.088	1057.632	806.425
27.950	16.298	1055.376	805.633
28.965	16.225	1054.491	804.541
29.980	16.404	1052.973	804.165
30.994	16.491	1052.224	803.932
32.009	16.441	1051.094	802.760
33.023	16.316	1049.848	801.146
34.038	16.213	1049.211	800.099
35.053	16.286	1048.083	799.515
36.067	16.181	1047.768	798.705
37.082	16.301	1046.889	798.534
38.096	16.405	1045.927	798.222
39.111	16.450	1044.860	797.549
40.126	16.263	1043.842	795.817
41.140	15.960	1042.347	793.182
42.155	15.938	1041.420	792.304
43.169	15.967	1039.814	791.150
44.184	15.995	1038.701	790.363
45.199	15.891	1038.070	789.324
46.213	15.990	1037.238	789.087
47.228	16.255	1036.168	789.442
48.242	16.218	1035.202	788.462
49.257	16.219	1033.896	787.403
50.271	16.304	1033.375	787.333
51.286	16.291	1032.671	786.665
52.301	16.257	1031.468	785.524
53.315	16.061	1030.385	783.715
54.330	16.124	1029.128	782.983
55.344	16.056	1028.780	782.335
56.359	16.000	1027.972	781.392
57.374	16.103	1027.030	781.085
58.388	15.939	1025.962	779.445
59.403	15.899	1024.902	778.383
60.417	16.022	1024.226	778.371
61.432	15.879	1023.224	776.878
62.447	15.892	1022.257	776.137
63.461	15.767	1021.827	775.164
64.476	15.823	1020.789	774.567
65.490	15.830	1019.803	773.782
66.505	15.845	1019.202	773.328
67.520	15.793	1018.805	772.717
68.534	15.776	1017.823	771.827
69.549	15.770	1017.291	771.327
70.563	15.871	1016.495	771.121
71.578	15.807	1015.056	769.665
72.593	15.679	1014.822	768.837
73.607	15.597	1013.987	767.759
74.622	15.647	1013.632	767.653
75.636	15.729	1012.312	766.960
76.651	15.638	1011.955	766.206
77.666	15.713	1011.139	765.860
78.680	15.666	1010.869	765.375
79.695	15.715	1010.157	764.990
80.709	16.001	1008.855	765.237
81.724	16.094	1008.600	765.397
82.739	16.138	1007.950	765.035
83.753	16.223	1007.659	765.135
84.768	16.499	1006.360	765.329
85.782	16.390	1006.045	764.526
86.797	16.412	1005.151	763.882
87.812	16.188	1004.141	762.035
88.826	16.473	1002.956	762.350
89.841	16.357	1002.020	761.052
90.855	16.541	1001.092	761.107
91.870	16.429	1000.463	760.057
92.884	16.461	999.962	759.755
93.899	16.553	998.644	759.098
94.914	16.513	998.224	758.531
95.928	16.536	997.000	757.637
96.943	16.432	996.257	756.540
97.957	16.313	995.261	755.187
98.972	16.390	994.546	754.921
99.987	16.358	994.164	754.419
101.001	16.287	992.653	752.889
102.016	16.303	991.933	752.351
103.030	16.455	990.871	752.153
104.045	16.404	989.970	751.177
105.060	16.339	989.236	750.265
106.074	16.153	988.236	748.613
107.089	15.981	987.201	747.000
108.103	16.035	986.069	746.316
109.118	15.986	985.052	745.265
110.133	15.919	984.291	744.328
111.147	15.880	983.657	743.610
112.162	15.930	983.008	743.276
113.176	16.171	981.871	743.411
114.191	16.224	980.985	742.909
115.206	16.105	980.484	741.939
116.220	16.057	979.698	741.067
117.235	16.069	978.832	740.401
118.249	15.940	978.090	739.206
119.264	16.008	977.455	738.961
120.279	15.934	976.549	737.883
121.293	15.862	975.578	736.770
122.308	15.835	974.453	735.738
123.322	15.795	973.222	734.567
124.337	15.794	972.495	733.952
125.352	15.861	971.511	733.436
126.366	15.759	970.389	732.079
127.381	15.988	969.212	732.120
128.395	15.822	968.729	730.969
129.410	15.871	968.196	730.718
130.424	15.902	966.859	729.778
131.439	16.058	966.146	729.850
132.454	16.037	965.525	729.226
133.468	16.062	964.748	728.681
134.483	16.094	963.881	728.100
135.497	16.118	963.104	727.553
136.512	16.152	962.063	726.849
137.527	16.206	961.227	726.385
138.541	16.050	960.875	725.385
139.556	16.201	960.133	725.409
140.570	16.366	959.487	725.566
141.585	16.303	958.633	724.588
142.600	16.403	957.613	724.180
143.614	16.479	956.983	723.963
144.629	16.471	956.593	723.569
145.643	16.354	955.679	722.313
146.658	16.328	954.696	721.397
147.673	16.256	953.070	719.797
148.687	16.232	952.305	719.053
149.702	16.108	951.614	717.941
150.716	16.253	950.784	717.866
151.731	16.214	950.438	717.376
152.746	16.121	949.855	716.480
153.760	16.287	949.131	716.574
154.775	16.342	949.101	716.719
155.789	16.444	947.849	716.146
156.804	16.421	947.175	715.474
157.819	16.402	946.459	714.791
158.833	16.673	945.613	715.231
159.848	16.522	945.449	714.406
160.862	16.427	944.398	713.151
161.877	16.347	943.171	711.821
162.892	16.263	941.997	710.519
163.906	16.154	941.305	709.476
164.921	16.295	940.420	709.337
165.935	16.490	939.049	709.060
166.950	16.462	938.405	708.396
167.964	16.355	937.562	707.246
168.979	16.185	937.100	706.126
169.994	16.352	935.711	705.714
171.008	16.239	935.403	704.948
172.023	16.622	934.635	705.902
173.037	16.625	933.977	705.358
174.052	16.567	932.823	704.180
175.067	16.367	932.089	702.734
176.081	16.239	931.772	701.900
177.096	16.355	930.812	701.598
178.110	16.386	930.270	701.255
179.125	16.329	929.952	700.718
180.140	16.456	929.456	700.805
181.154	16.390	929.343	700.385
182.169	16.495	928.448	700.085
183.183	16.521	928.396	700.091
184.198	16.559	927.492	699.503
185.213	16.568	926.813	698.967
186.227	16.619	925.923	698.447
187.242	16.648	925.289	698.026
188.256	16.902	924.761	698.610
189.271	16.804	923.889	697.489
190.286	16.439	922.829	695.125
191.300	16.301	922.264	694.072
192.315	16.245	921.477	693.188
193.329	16.173	921.281	692.683
194.344	16.380	920.497	692.882
195.359	16.578	919.799	693.103
196.373	16.671	919.041	692.855
197.388	16.773	918.724	692.969
198.402	16.854	918.437	693.024
199.417	16.936	917.919	692.906
200.432	16.886	917.177	692.079
201.446	17.128	916.849	692.760
202.461	17.057	916.350	692.032
203.475	16.994	915.494	691.066
204.490	16.906	914.823	690.143
205.504	16.832	914.092	689.230
206.519	16.835	913.065	688.404
207.534	16.690	912.803	687.558
208.548	16.819	911.660	687.161
209.563	16.855	910.995	686.743
210.577	17.103	910.117	687.023
211.592	16.990	910.010	686.427
212.607	17.097	909.288	686.253
213.621	16.935	908.171	684.695
214.636	17.085	907.621	684.824
215.650	17.003	907.330	684.214
216.665	17.221	906.350	684.291
217.680	17.091	906.217	683.606
218.694	17.155	905.141	682.992
219.709	17.108	904.523	682.276
220.723	17.142	903.835	681.833
221.738	17.065	903.209	680.993
222.753	17.261	902.517	681.196
223.767	17.231	902.437	680.955
224.782	17.265	901.698	680.476
225.796	17.352	901.335	680.487
226.811	17.298	900.231	679.380
227.826	17.118	899.671	678.176
228.840	17.176	898.409	677.397
229.855	17.168	897.723	676.788
230.869	17.210	897.043	676.383
231.884	17.109	896.405	675.438
232.899	17.042	896.021	674.826
233.913	17.033	894.650	673.698
234.928	16.959	894.415	673.165
235.942	16.939	894.150	672.825
236.957	17.092	893.344	672.767
237.972	17.093	892.908	672.383
238.986	16.986	892.130	671.317
240.001	17.111	891.535	671.302
241.015	17.182	890.858	671.014
242.030	17.122	890.261	670.267
243.045	17.212	889.979	670.351
244.059	17.092	889.313	669.317
245.074	17.423	888.252	669.765
246.088	17.381	887.878	669.258
247.103	17.496	887.436	669.318
248.117	17.511	887.202	669.140
249.132	17.669	886.540	669.200
250.147	17.886	886.158	669.706
251.161	17.820	885.664	669.015
252.176	17.862	884.499	668.241
253.190	17.858	884.306	668.016
254.205	17.909	883.751	667.738
255.220	17.977	882.653	667.117
256.234	17.976	882.248	666.746
257.249	18.057	881.175	666.192
258.263	17.828	880.630	664.829
259.278	17.909	880.184	664.752
260.293	17.987	879.663	664.601
261.307	17.974	878.864	663.890
262.322	18.090	878.520	664.021
263.336	18.097	877.562	663.263
264.351	18.089	877.173	662.882
265.366	17.997	876.843	662.215
266.380	18.043	876.031	661.721
267.395	18.111	875.268	661.350
268.409	17.958	874.193	659.888
269.424	18.017	873.488	659.527
270.439	17.819	873.308	658.566
271.453	17.891	872.179	657.934
272.468	17.907	871.835	657.681
273.482	17.916	870.886	656.941
274.497	17.812	870.477	656.171
275.512	18.003	869.945	656.449
276.526	18.089	869.318	656.247
277.541	18.026	868.891	655.627
278.555	18.020	868.517	655.263
279.570	18.295	867.814	655.725
280.585	18.215	867.162	654.872
281.599	18.211	865.959	653.889
282.614	18.031	865.541	652.827
283.628	18.140	864.917	652.716
284.643	18.046	864.530	652.008
285.657	18.190	863.892	652.015
286.672	18.050	863.593	651.200
287.687	18.213	862.562	650.986
288.701	18.141	862.320	650.470
289.716	18.214	861.527	650.093
290.730	18.235	861.059	649.762
291.745	18.221	860.497	649.227
292.760	18.332	859.986	649.206
293.774	18.471	859.083	648.992
294.789	18.262	858.914	648.016
295.803	18.095	858.042	646.670
296.818	18.309	856.877	646.542
297.833	18.128	856.433	645.468
298.847	18.244	855.930	645.467
299.862	18.259	855.765	645.342
300.876	18.385	855.234	645.361
301.891	18.432	854.591	644.997
302.906	18.483	854.028	644.704
303.920	18.753	853.513	645.272
304.935	18.698	853.168	644.748
305.949	18.658	852.271	643.866
306.964	18.423	851.636	642.446
307.979	18.471	851.231	642.265
308.993	18.605	850.866	642.432
310.008	18.579	850.001	641.627
311.022	18.615	849.019	640.964
312.037	18.433	848.729	640.008
313.052	18.348	847.984	639.074
314.066	18.331	847.424	638.530
315.081	18.217	847.045	637.762
316.095	18.357	846.454	637.782
317.110	18.363	845.372	636.935
318.125	18.346	845.045	636.568
319.139	18.386	845.220	636.790
320.154	18.497	844.238	636.409
321.168	18.360	844.253	635.853
322.183	18.486	843.456	635.666
323.197	18.428	843.031	635.073
324.212	18.613	841.989	634.915
325.227	18.450	841.977	634.247
326.241	18.537	840.924	633.722
327.256	18.412	840.483	632.870
328.270	18.553	840.009	632.978
329.285	18.438	839.300	631.964
330.300	18.554	838.948	632.069
331.314	18.464	838.528	631.368
332.329	18.678	837.923	631.644
333.343	18.791	837.694	631.830
334.358	18.635	837.110	630.762
335.373	18.766	836.274	630.554
336.387	18.702	836.347	630.319
337.402	18.799	836.111	630.441
338.416	18.930	836.018	630.795
339.431	19.060	835.754	631.019
340.446	18.925	835.287	630.116
341.460	19.118	834.760	630.369
342.475	19.069	834.450	629.901
343.489	19.171	833.778	629.711
344.504	19.251	833.394	629.655
345.519	19.388	833.012	629.813
346.533	19.235	832.272	628.637
347.548	19.012	831.545	627.219
348.562	18.940	831.056	626.536
349.577	18.858	830.453	625.725
350.592	18.838	829.703	625.034
351.606	18.772	829.329	624.456
352.621	18.895	828.434	624.174
353.635	18.865	828.113	623.768
354.650	18.946	827.256	623.360
355.665	18.942	826.914	623.034
356.679	19.066	826.016	622.751
357.694	19.247	825.250	622.770
358.708	19.026	825.109	621.811
359.723	19.020	824.464	621.248
360.738	19.133	823.788	621.090
361.752	19.188	823.154	620.756
362.767	19.291	822.712	620.740
363.781	19.293	822.094	620.224
364.796	19.542	821.634	620.721
365.810	19.591	821.474	620.718
366.825	19.520	821.201	620.203
367.840	19.509	820.707	619.735
368.854	19.458	820.047	619.001
369.869	19.347	819.906	618.441
370.883	19.524	819.184	618.473
371.898	19.546	818.931	618.308
372.913	19.473	818.509	617.673
373.927	19.411	818.178	617.146
374.942	19.410	817.621	616.669
375.956	19.524	817.242	616.736
376.971	19.648	816.565	616.612
377.986	19.781	816.328	616.853
379.000	19.740	815.977	616.389
380.015	19.755	815.167	615.775
381.029	19.651	814.691	614.992
382.044	19.786	813.949	614.858
383.059	19.810	813.276	614.377
384.073	19.600	812.899	613.294
385.088	19.483	812.377	612.430
386.102	19.555	811.640	612.077
387.117	19.619	811.120	611.857
388.132	19.545	810.733	611.248
389.146	19.557	810.311	610.918
390.161	19.710	809.814	611.030
391.175	19.669	809.571	610.650
392.190	19.513	808.532	609.261
393.205	19.524	808.105	608.922
394.219	19.567	807.757	608.760
395.234	19.604	807.376	608.548
396.248	19.456	806.947	607.650
397.263	19.472	806.450	607.278
398.278	19.402	806.011	606.649
399.292	19.419	805.857	606.537
400.307	19.561	804.998	606.335
401.321	19.564	804.650	606.030
402.336	19.655	804.293	606.027
403.350	19.469	803.855	604.992
404.365	19.787	803.382	605.697
405.380	19.854	803.014	605.601
406.394	20.010	802.445	605.662
407.409	20.067	802.196	605.621
408.423	20.104	801.926	605.492
409.438	20.113	801.510	605.155
410.453	20.230	801.262	605.325
411.467	20.076	801.070	604.587
412.482	20.235	800.465	604.631
413.496	20.330	799.775	604.388
414.511	20.292	799.565	604.043
415.526	20.304	798.908	603.536
416.540	20.259	798.343	602.898
417.555	20.137	798.243	602.344
418.569	20.193	797.483	601.912
419.584	20.147	797.400	601.637
420.599	20.354	796.390	601.542
421.613	162.394	1371.295	1797.567
422.628	140.894	1455.055	1797.639
