DTS Sentinel unit serial number:	SN413079Multiplexer serial number:	ORYXHardware model number:	OX4-SRSoftware version number:	ORYX F/W v4.00 Oryx Data Collector v3.7.2.0data status	okinstallation	princeton_trtdifferential loss correction	single-endedforward channel	channel 1reverse channel	N/Adate	2019/09/17time	12:50:35forward acquisition time	60.00reverse acquisition time	0.00gamma	496.2192k internal	0.2314k external	0.2314temperature offset calibration	0.9968default loss term (dB/km)	0.3790temperature slope calibration	1.0000multiplexer offset coefficient	1.0000multiplexer slope coefficient	1.0000fibre end	0.00T internal ref (°C)	32.83T ext. ref 1 (°C)	0.43T ext. ref 2 (°C)	31.09length (m)	temperature (°C)	Stokes	anti-Stokes-747.200	12.610	0.235	0.184
-746.185	-34.984	0.139	0.077
-745.171	-200.000	0.059	0.509
-744.156	-200.000	0.013	0.139
-743.142	504.810	0.101	-0.237
-742.127	38.297	-0.283	-0.256
-741.112	12.215	-0.035	0.027
-740.098	280.428	-0.071	0.129
-739.083	800.000	-0.039	-0.133
-738.069	800.000	-0.050	0.209
-737.054	395.903	0.131	0.276
-736.039	456.425	-0.149	-0.335
-735.025	24.956	0.301	-0.253
-734.010	494.683	-0.055	-0.129
-732.996	-81.662	0.286	0.095
-731.981	310.855	-0.181	-0.344
-730.966	-122.715	0.235	0.039
-729.952	44.889	-0.228	-0.213
-728.937	-64.304	-0.184	-0.076
-727.923	20.655	-0.220	0.181
-726.908	-56.519	-0.286	-0.128
-725.894	-45.876	0.186	-0.093
-724.879	633.785	0.064	0.165
-723.864	43.496	-0.123	0.114
-722.850	-200.000	0.033	-0.351
-721.835	451.654	0.023	-0.051
-720.821	-70.644	0.300	0.115
-719.806	-200.000	0.056	0.266
-718.791	800.000	-0.054	0.193
-717.777	100.509	0.068	0.080
-716.762	481.317	-0.074	-0.170
-715.748	32.353	0.246	0.215
-714.733	-102.554	0.398	-0.096
-713.718	-97.890	0.291	-0.076
-712.704	-39.936	-0.330	-0.174
-711.689	134.493	0.171	0.224
-710.675	-96.075	-0.427	-0.115
-709.660	-123.438	-0.146	-0.024
-708.645	462.139	0.028	-0.064
-707.631	275.229	0.076	0.136
-706.616	476.945	0.161	-0.369
-705.602	39.148	-0.247	-0.224
-704.587	113.407	-0.122	-0.150
-703.572	-200.000	0.013	0.085
-702.558	148.833	-0.188	0.257
-701.543	91.054	-0.077	-0.088
-700.529	-14.823	-0.018	0.012
-699.514	800.000	0.032	-0.106
-698.499	438.483	0.159	0.350
-697.485	-200.000	0.006	-0.229
-696.470	800.000	-0.064	0.187
-695.456	-133.831	-0.424	-0.053
-694.441	-182.864	0.118	-0.002
-693.426	46.397	0.163	-0.153
-692.412	-200.000	-0.033	-0.339
-691.397	-200.000	-0.103	-0.474
-690.383	158.692	-0.180	0.252
-689.368	-155.576	-0.155	0.010
-688.354	-200.000	-0.046	0.285
-687.339	-167.647	-0.085	-0.003
-686.324	-38.723	-0.212	-0.113
-685.310	-65.717	-0.135	-0.055
-684.295	-121.955	0.181	-0.030
-683.281	723.479	-0.079	0.212
-682.266	130.379	0.151	0.195
-681.251	340.826	-0.082	-0.162
-680.237	257.995	0.159	-0.277
-679.222	-97.652	0.620	0.163
-678.208	314.933	-0.070	0.133
-677.193	-110.097	0.520	0.110
-676.178	-50.579	-0.281	-0.134
-675.164	-9.932	-0.241	0.162
-674.149	800.000	-0.075	-0.236
-673.135	-200.000	0.005	0.055
-672.120	-200.000	-0.020	-0.250
-671.105	-151.099	-0.221	0.017
-670.091	23.747	-0.188	0.156
-669.076	-142.648	-0.407	0.040
-668.062	190.617	0.129	0.196
-667.047	-200.000	0.018	0.173
-666.032	800.000	0.060	-0.236
-665.018	-200.000	-0.017	-0.221
-664.003	288.408	0.114	0.209
-662.989	79.752	0.024	0.026
-661.974	-19.181	0.385	-0.242
-660.959	-200.000	-0.064	-0.348
-659.945	432.772	-0.082	-0.179
-658.930	800.000	-0.079	-0.224
-657.916	76.286	-0.093	0.100
-656.901	50.143	-0.104	0.099
-655.886	96.215	0.159	0.183
-654.872	800.000	0.067	-0.224
-653.857	44.231	-0.246	-0.228
-652.843	35.550	-0.282	0.250
-651.828	202.383	0.091	0.142
-650.814	-44.898	-0.150	0.075
-649.799	800.000	-0.060	-0.249
-648.784	-4.046	0.170	0.119
-647.770	39.348	0.200	-0.181
-646.755	-102.084	-0.298	-0.073
-645.741	-200.000	-0.017	0.288
-644.726	-14.503	0.410	0.267
-643.711	-98.181	-0.208	-0.054
-642.697	-200.000	0.044	-0.271
-641.682	27.865	-0.218	-0.186
-640.668	-200.000	0.015	0.266
-639.653	-117.367	-0.232	-0.043
-638.638	-42.265	-0.158	-0.081
-637.624	114.066	0.060	0.074
-636.609	-200.000	-0.017	0.267
-635.595	332.789	-0.129	0.252
-634.580	-18.476	0.181	-0.114
-633.565	457.897	-0.120	-0.269
-632.551	-200.000	-0.025	0.161
-631.536	-15.449	0.193	0.125
-630.522	282.013	-0.102	0.184
-629.507	303.538	0.013	0.025
-628.492	-65.933	-0.213	-0.086
-627.478	800.000	0.040	0.155
-626.463	800.000	0.022	-0.082
-625.449	432.329	-0.086	0.189
-624.434	-145.488	0.195	-0.018
-623.419	176.226	0.169	0.248
-622.405	38.646	0.252	0.227
-621.390	-55.909	-0.114	-0.051
-620.376	-84.133	-0.297	0.095
-619.361	-200.000	-0.007	-0.075
-618.346	-48.812	0.182	0.088
-617.332	-200.000	-0.014	-0.301
-616.317	-51.425	-0.059	-0.028
-615.303	-91.420	-0.247	0.071
-614.288	-101.768	0.340	0.083
-613.273	800.000	-0.120	-0.337
-612.259	4.430	0.274	-0.203
-611.244	190.277	-0.089	-0.135
-610.230	-200.000	0.071	-0.418
-609.215	413.179	0.100	0.215
-608.201	-59.943	-0.191	-0.082
-607.186	-100.760	-0.171	0.042
-606.171	113.586	-0.030	-0.037
-605.157	26.519	-0.369	-0.311
-604.142	193.345	-0.058	-0.089
-603.128	-85.195	-0.298	-0.094
-602.113	-200.000	-0.018	-0.120
-601.098	276.232	0.223	-0.398
-600.084	-136.946	-0.299	0.035
-599.069	-112.461	-0.345	-0.070
-598.055	-200.000	-0.039	-0.185
-597.040	77.944	-0.266	0.286
-596.025	170.289	0.081	-0.117
-595.011	331.421	0.115	0.223
-593.996	-200.000	-0.006	-0.145
-592.982	68.308	0.219	0.226
-591.967	180.816	0.274	0.406
-590.952	-45.318	-0.267	-0.134
-589.938	109.169	0.209	-0.252
-588.923	194.373	-0.040	0.061
-587.909	-100.969	-0.347	-0.086
-586.894	800.000	-0.034	0.113
-585.879	-98.933	0.280	0.072
-584.865	17.265	-0.434	0.347
-583.850	-145.450	0.264	-0.024
-582.836	-178.877	0.198	-0.005
-581.821	137.402	0.132	0.174
-580.806	-142.715	-0.019	0.002
-579.792	-59.764	-0.235	0.101
-578.777	-143.735	-0.306	-0.029
-577.763	467.307	-0.096	-0.217
-576.748	-200.000	-0.002	-0.166
-575.733	-36.642	-0.120	0.065
-574.719	-82.068	0.479	-0.158
-573.704	64.836	-0.313	0.318
-572.690	338.074	0.046	0.090
-571.675	-200.000	-0.003	0.032
-570.661	-200.000	-0.036	-0.296
-569.646	-23.365	0.138	-0.083
-568.631	-41.467	0.296	-0.154
-567.617	3.233	0.058	-0.042
-566.602	33.279	0.041	-0.036
-565.588	109.533	-0.129	-0.156
-564.573	419.326	-0.137	-0.295
-563.558	-200.000	-0.031	-0.184
-562.544	346.590	0.027	0.054
-561.529	-119.747	-0.160	-0.028
-560.515	527.648	0.061	0.146
-559.500	-71.507	0.255	0.096
-558.485	395.704	0.073	0.154
-557.471	71.118	-0.152	-0.159
-556.456	-48.082	-0.127	-0.062
-555.442	-103.687	0.021	-0.005
-554.427	-163.575	0.270	-0.013
-553.412	106.935	-0.148	-0.177
-552.398	32.183	-0.259	-0.224
-551.383	-146.208	-0.297	-0.026
-550.369	-112.180	0.230	0.047
-549.354	76.088	-0.444	-0.473
-548.339	108.892	-0.202	-0.243
-547.325	-11.150	0.277	0.184
-546.310	299.394	-0.080	-0.148
-545.296	256.815	0.089	-0.153
-544.281	-167.271	-0.060	-0.002
-543.266	286.238	0.124	0.225
-542.252	-102.191	-0.312	0.075
-541.237	-143.733	-0.355	-0.034
-540.223	451.212	0.114	-0.254
-539.208	800.000	-0.124	0.401
-538.193	177.992	0.188	-0.276
-537.179	-160.963	-0.171	-0.009
-536.164	194.396	-0.123	0.188
-535.150	19.233	-0.217	0.175
-534.135	-15.908	0.259	-0.166
-533.121	-70.175	0.286	-0.109
-532.106	-200.000	-0.006	0.033
-531.091	800.000	0.002	-0.005
-530.077	174.186	-0.101	0.147
-529.062	227.834	0.132	-0.216
-528.048	800.000	-0.088	0.365
-527.033	-196.606	0.285	-0.002
-526.018	-131.876	0.275	-0.036
-525.004	138.215	-0.056	-0.073
-523.989	173.886	0.192	0.278
-522.975	-200.000	0.075	0.507
-521.960	23.946	-0.212	0.176
-520.945	-121.523	-0.101	0.017
-519.931	144.729	0.202	0.271
-518.916	-79.454	0.179	-0.061
-517.902	11.261	0.154	0.118
-516.887	-11.214	0.198	0.131
-515.872	-69.688	-0.162	0.062
-514.858	5.209	0.179	-0.132
-513.843	-200.000	0.016	-0.101
-512.829	-149.251	-0.217	0.017
-511.814	13.228	0.147	-0.115
-510.799	800.000	-0.071	0.290
-509.785	-9.183	-0.221	0.149
-508.770	-120.662	-0.286	-0.049
-507.756	97.793	-0.146	-0.168
-506.741	800.000	0.069	-0.229
-505.726	45.075	0.030	0.028
-504.712	800.000	0.074	-0.281
-503.697	760.335	0.040	-0.108
-502.683	-53.700	-0.376	-0.172
-501.668	800.000	0.090	0.249
-500.653	-185.030	-0.170	0.003
-499.639	13.715	-0.290	-0.226
-498.624	-128.790	0.152	-0.022
-497.610	-66.560	-0.134	-0.053
-496.595	-200.000	-0.054	-0.637
-495.581	28.559	0.025	-0.021
-494.566	-48.072	0.482	0.234
-493.551	-40.353	0.170	-0.089
-492.537	517.494	-0.062	-0.145
-491.522	-95.287	-0.282	-0.076
-490.508	74.073	0.279	0.294
-489.493	800.000	-0.057	0.172
-488.478	800.000	0.044	0.154
-487.464	-101.497	-0.202	-0.049
-486.449	219.679	0.102	0.164
-485.435	-75.415	0.206	-0.074
-484.420	407.079	-0.225	0.477
-483.405	313.230	0.124	-0.233
-482.391	-200.000	0.020	0.304
-481.376	309.374	-0.091	0.171
-480.362	141.767	-0.224	-0.298
-479.347	800.000	0.041	-0.167
-478.332	3.430	0.156	-0.114
-477.318	-127.445	-0.338	0.049
-476.303	-13.641	0.156	0.101
-475.289	62.006	-0.258	0.258
-474.274	800.000	0.028	-0.078
-473.259	319.586	-0.170	0.324
-472.245	-42.541	0.246	0.126
-471.230	-65.416	0.198	0.080
-470.216	800.000	0.061	-0.252
-469.201	800.000	-0.107	-0.365
-468.186	-200.000	0.021	-0.168
-467.172	-12.596	-0.122	-0.080
-466.157	621.991	-0.076	-0.191
-465.143	624.999	0.057	0.145
-464.128	45.694	-0.169	-0.157
-463.113	12.022	0.062	0.048
-462.099	8.055	0.203	-0.153
-461.084	-78.320	0.068	-0.024
-460.070	30.368	0.100	-0.086
-459.055	139.805	-0.153	-0.202
-458.040	-35.304	-0.083	0.045
-457.026	-148.743	-0.171	0.014
-456.011	44.936	0.082	-0.076
-454.997	-84.535	-0.186	-0.059
-453.982	181.259	-0.127	0.188
-452.968	-74.982	-0.179	0.064
-451.953	516.435	-0.065	0.152
-450.938	-138.515	-0.207	-0.023
-449.924	-87.554	-0.245	0.074
-448.909	396.478	0.015	-0.031
-447.895	68.717	0.127	-0.131
-446.880	167.836	0.190	0.271
-445.865	46.653	-0.203	0.189
-444.851	183.022	-0.091	-0.135
-443.836	591.159	0.224	0.553
-442.822	233.714	-0.062	-0.102
-441.807	-200.000	0.003	0.075
-440.792	11.359	-0.336	0.258
-439.778	303.221	-0.142	-0.263
-438.763	391.648	0.111	-0.231
-437.749	-134.180	0.089	-0.011
-436.734	-108.522	0.062	0.013
-435.719	-9.470	-0.250	-0.167
-434.705	444.615	0.103	-0.226
-433.690	-200.000	0.007	-0.047
-432.676	-89.778	0.265	0.078
-431.661	54.649	0.045	0.044
-430.646	180.061	-0.024	-0.035
-429.632	56.014	0.177	-0.172
-428.617	167.390	0.234	-0.333
-427.603	31.521	0.271	-0.234
-426.588	-108.885	-0.313	-0.067
-425.573	-200.000	0.079	-0.382
-424.559	-33.434	-0.127	0.070
-423.544	800.000	-0.044	0.156
-422.530	737.653	-0.103	-0.277
-421.515	800.000	0.066	-0.280
-420.500	268.767	-0.132	-0.232
-419.486	56.229	-0.094	-0.091
-418.471	113.403	0.062	0.075
-417.457	-110.051	-0.352	0.074
-416.442	56.057	0.177	-0.172
-415.428	-200.000	0.029	-0.388
-414.413	-200.000	-0.003	0.343
-413.398	800.000	-0.011	0.038
-412.384	-107.824	-0.201	-0.044
-411.369	-27.811	-0.062	-0.036
-410.355	800.000	0.057	-0.206
-409.340	123.687	0.052	-0.066
-408.325	164.747	0.100	-0.141
-407.311	-177.175	-0.179	0.004
-406.296	800.000	0.070	-0.199
-405.282	37.581	0.097	0.086
-404.267	269.523	-0.132	-0.232
-403.252	800.000	0.047	-0.170
-402.238	-152.344	-0.258	-0.019
-401.223	-69.728	0.071	0.027
-400.209	295.456	0.098	-0.180
-399.194	-43.017	-0.230	0.117
-398.179	534.990	0.082	-0.194
-397.165	228.964	-0.099	0.161
-396.150	45.382	-0.233	-0.215
-395.136	-200.000	-0.022	-0.186
-394.121	-158.487	-0.391	0.023
-393.106	162.560	-0.303	0.425
-392.092	-67.635	0.296	0.116
-391.077	-200.000	-0.046	0.292
-390.063	-62.390	0.092	-0.038
-389.048	608.896	-0.019	0.048
-388.033	256.502	0.195	0.335
-387.019	278.731	-0.063	-0.113
-386.004	800.000	0.096	0.343
-384.990	36.990	-0.174	0.154
-383.975	-110.394	0.252	0.052
-382.960	-117.126	0.207	0.038
-381.946	95.475	-0.132	-0.150
-380.931	-96.061	-0.022	-0.006
-379.917	1.781	0.305	-0.220
-378.902	164.963	0.089	0.125
-377.888	167.610	0.134	-0.190
-376.873	-19.058	0.356	-0.221
-375.858	308.467	-0.115	-0.215
-374.844	-200.000	0.399	-0.002
-373.829	-90.247	0.223	0.065
-372.815	32.737	-0.317	-0.274
-371.800	800.000	-0.148	-0.569
-370.785	-155.194	-0.109	0.007
-369.771	-200.000	0.001	-0.189
-368.756	-121.681	-0.132	-0.022
-367.742	196.485	-0.030	-0.045
-366.727	-200.000	0.025	0.194
-365.712	19.928	0.276	0.223
-364.698	26.616	-0.212	-0.177
-363.683	-200.000	0.002	0.259
-362.669	-73.113	0.308	0.113
-361.654	800.000	-0.149	-0.429
-360.639	82.923	0.090	-0.098
-359.625	-200.000	-0.059	0.353
-358.610	-200.000	0.031	0.225
-357.596	-98.622	0.189	0.048
-356.581	-50.042	-0.326	-0.154
-355.566	332.889	0.173	-0.335
-354.552	638.523	-0.054	0.137
-353.537	-81.968	-0.285	-0.093
-352.523	-179.475	-0.211	0.005
-351.508	-200.000	0.106	0.521
-350.493	206.228	-0.077	-0.119
-349.479	52.381	0.135	-0.128
-348.464	96.334	0.207	0.236
-347.450	-27.945	-0.112	0.065
-346.435	-200.000	0.056	0.352
-345.420	-82.121	0.134	0.044
-344.406	60.964	-0.221	0.219
-343.391	205.513	0.054	-0.084
-342.377	214.077	0.068	-0.108
-341.362	242.783	0.082	-0.136
-340.348	-200.000	0.018	0.392
-339.333	235.187	-0.293	0.482
-338.318	-26.705	-0.168	0.098
-337.304	-15.461	0.359	-0.229
-336.289	632.524	0.089	-0.225
-335.275	-48.755	0.343	0.164
-334.260	603.120	0.102	0.253
-333.245	-27.885	0.281	0.162
-332.231	-150.811	0.357	0.027
-331.216	-63.422	-0.052	0.021
-330.202	527.950	-0.106	0.249
-329.187	235.661	0.171	0.283
-328.172	169.758	-0.224	-0.320
-327.158	-58.714	0.276	0.119
-326.143	10.744	-0.182	0.139
-325.129	-91.960	-0.291	-0.082
-324.114	124.764	0.131	-0.164
-323.099	-178.742	0.147	0.003
-322.085	320.071	0.159	0.302
-321.070	-28.361	-0.110	0.063
-320.056	800.000	-0.046	-0.158
-319.041	37.322	0.117	0.104
-318.026	475.472	-0.152	0.343
-317.012	-38.425	-0.177	-0.093
-315.997	313.842	0.096	-0.180
-314.983	-200.000	0.057	0.313
-313.968	57.605	-0.083	0.081
-312.953	22.525	-0.212	-0.173
-311.939	800.000	-0.059	-0.164
-310.924	800.000	0.098	0.284
-309.910	-52.839	-0.112	0.051
-308.895	800.000	-0.027	0.083
-307.880	-131.998	0.126	-0.016
-306.866	52.845	-0.120	0.114
-305.851	92.214	-0.056	-0.063
-304.837	-160.199	-0.166	-0.009
-303.822	-10.500	-0.204	-0.135
-302.807	338.384	-0.195	0.377
-301.793	2.226	-0.186	0.134
-300.778	96.053	0.196	0.223
-299.764	411.225	-0.031	-0.066
-298.749	64.631	0.093	-0.093
-297.735	-39.197	0.109	-0.057
-296.720	-200.000	0.055	0.343
-295.705	337.960	-0.164	0.318
-294.691	-171.708	-0.129	0.004
-293.676	-200.000	-0.020	0.260
-292.662	800.000	-0.054	0.187
-291.647	178.021	-0.093	0.136
-290.632	-103.501	0.201	-0.047
-289.618	195.614	0.191	-0.290
-288.603	-66.759	-0.227	-0.089
-287.589	800.000	-0.038	-0.113
-286.574	-200.000	-0.043	0.253
-285.559	-163.863	0.039	0.002
-284.545	-45.798	-0.297	0.146
-283.530	-69.612	0.236	-0.090
-282.516	-46.588	0.373	-0.182
-281.501	76.799	-0.048	-0.051
-280.486	0.840	-0.181	-0.129
-279.472	422.821	-0.119	-0.255
-278.457	-16.465	0.315	-0.199
-277.443	-54.809	0.236	-0.106
-276.428	-100.911	0.286	-0.070
-275.413	800.000	-0.092	-0.340
-274.399	-109.703	0.163	0.034
-273.384	-87.445	-0.198	0.060
-272.370	152.516	-0.051	0.070
-271.355	235.337	-0.119	0.195
-270.340	-200.000	0.023	-0.113
-269.326	107.330	-0.124	0.146
-268.311	200.607	-0.149	0.228
-267.297	-26.419	0.222	0.129
-266.282	-54.229	-0.095	0.043
-265.267	337.137	0.056	-0.109
-264.253	-145.523	-0.056	0.005
-263.238	-87.063	-0.126	-0.038
-262.224	201.789	0.021	-0.032
-261.209	800.000	-0.071	0.287
-260.195	49.723	-0.068	0.064
-259.180	-111.790	-0.092	0.019
-258.165	-57.492	-0.133	-0.058
-257.151	183.168	0.119	0.175
-256.136	800.000	-0.037	-0.107
-255.122	800.000	-0.032	-0.137
-254.107	6.724	0.122	-0.090
-253.092	-129.713	-0.025	0.003
-252.078	646.814	-0.094	0.240
-251.063	800.000	-0.044	0.157
-250.049	163.456	0.111	0.155
-249.034	-26.264	0.153	0.089
-248.019	-23.200	0.097	-0.058
-247.005	-79.322	-0.265	-0.089
-245.990	70.161	-0.112	-0.115
-244.976	34.995	0.303	0.264
-243.961	800.000	0.045	-0.193
-242.946	329.516	0.058	-0.110
-241.932	-68.182	0.138	0.053
-240.917	800.000	0.006	-0.016
-239.903	28.568	0.120	-0.101
-238.888	-141.021	0.045	-0.005
-237.873	-21.174	0.463	0.281
-236.859	800.000	-0.126	-0.377
-235.844	89.911	-0.279	0.310
-234.830	-200.000	-0.009	-0.108
-233.815	-125.657	0.376	0.057
-232.800	197.202	0.062	0.094
-231.786	341.563	-0.070	-0.137
-230.771	-200.000	-0.039	-0.273
-229.757	-29.905	0.241	0.136
-228.742	15.859	-0.198	0.155
-227.727	127.987	-0.036	0.045
-226.713	23.919	0.255	-0.209
-225.698	-1.982	0.222	-0.155
-224.684	800.000	0.098	-0.403
-223.669	400.804	-0.040	0.083
-222.655	772.475	-0.010	-0.027
-221.640	239.128	0.089	0.147
-220.625	-200.000	-0.036	0.329
-219.611	-31.408	0.196	0.110
-218.596	603.896	0.043	0.107
-217.582	-31.094	0.171	0.096
-216.567	-10.659	0.286	-0.188
-215.552	169.230	-0.184	-0.261
-214.538	-166.893	-0.240	-0.010
-213.523	-200.000	-0.013	0.172
-212.509	58.974	-0.230	0.225
-211.494	-200.000	-0.019	-0.360
-210.479	62.730	0.198	0.197
-209.465	64.569	0.162	0.162
-208.450	-114.112	0.340	-0.065
-207.436	57.948	0.195	-0.190
-206.421	103.609	0.194	-0.226
-205.406	-18.477	-0.179	-0.111
-204.392	-67.685	-0.152	-0.059
-203.377	-57.186	0.233	0.102
-202.363	-0.377	0.406	0.286
-201.348	118.901	-0.231	-0.284
-200.333	-118.634	0.213	-0.037
-199.319	54.038	0.260	-0.248
-198.304	-200.000	-0.025	0.335
-197.290	-200.000	0.082	0.369
-196.275	-200.000	0.050	0.226
-195.260	-200.000	0.304	-0.001
-194.246	35.004	-0.127	-0.111
-193.231	-75.438	0.377	-0.133
-192.217	-60.745	-0.201	0.084
-191.202	-122.884	-0.097	0.016
-190.187	-200.000	-0.008	-0.270
-189.173	-200.000	0.011	-0.080
-188.158	-79.146	0.126	0.042
-187.144	-12.708	0.046	-0.030
-186.129	63.203	-0.162	-0.161
-185.114	-191.232	0.081	0.001
-184.100	-84.210	-0.292	-0.092
-183.085	-200.000	0.033	-0.224
-182.071	117.969	-0.116	0.142
-181.056	-129.694	-0.106	0.014
-180.042	9.316	-0.155	0.116
-179.027	31.859	-0.166	0.141
-178.012	800.000	0.006	-0.019
-176.998	-68.665	-0.097	0.037
-175.983	-64.380	0.358	0.144
-174.969	-120.234	-0.174	-0.029
-173.954	172.961	0.084	0.121
-172.939	140.071	0.096	0.126
-171.925	-28.054	0.112	0.064
-170.910	192.048	0.110	0.164
-169.896	-3.962	0.144	-0.099
-168.881	800.000	0.063	0.260
-167.866	-53.206	0.228	0.104
-166.852	-200.000	-0.047	0.358
-165.837	-138.152	0.347	-0.038
-164.823	185.745	0.165	-0.244
-163.808	313.969	0.057	-0.107
-162.793	24.821	-0.061	0.050
-161.779	-64.064	-0.185	0.075
-160.764	-200.000	0.016	-0.206
-159.750	67.565	-0.180	-0.182
-158.735	523.397	-0.151	0.351
-157.720	-200.000	0.001	-0.024
-156.706	31.858	-0.107	0.091
-155.691	314.658	0.063	-0.118
-154.677	124.094	-0.178	-0.221
-153.662	800.000	-0.101	-0.296
-152.647	85.151	0.185	0.201
-151.633	90.644	-0.101	0.112
-150.618	-200.000	0.032	-0.337
-149.604	-84.860	0.132	0.041
-148.589	-9.254	0.123	-0.082
-147.574	-68.320	0.215	-0.083
-146.560	-170.651	-0.115	-0.004
-145.545	-33.536	0.249	0.136
-144.531	-6.551	-0.166	0.112
-143.516	-200.000	-0.014	-0.083
-142.502	-20.305	0.102	0.062
-141.487	-200.000	-0.008	0.215
-140.472	-200.000	0.027	0.196
-139.458	-200.000	-0.041	0.322
-138.443	-200.000	-0.019	-0.480
-137.429	192.055	-0.085	0.127
-136.414	-200.000	-0.032	0.283
-135.399	500.811	-0.173	0.396
-134.385	-200.000	0.015	-0.416
-133.370	800.000	-0.104	-0.302
-132.356	21.849	0.342	-0.276
-131.341	-200.000	-0.033	0.229
-130.326	-200.000	0.003	-0.330
-129.312	449.701	-0.116	0.254
-128.297	144.494	0.275	-0.363
-127.283	-200.000	0.052	0.400
-126.268	-52.682	0.076	0.035
-125.253	312.189	0.119	0.220
-124.239	-106.299	0.372	0.082
-123.224	800.000	-0.101	0.349
-122.210	-200.000	-0.036	-0.245
-121.195	80.832	0.067	-0.072
-120.180	-200.000	0.043	-0.265
-119.166	-200.000	0.012	-0.218
-118.151	-117.782	-0.217	0.039
-117.137	-200.000	0.047	-0.298
-116.122	33.032	0.187	0.160
-115.107	83.804	-0.083	-0.090
-114.093	-174.263	-0.080	0.002
-113.078	-79.578	0.632	0.211
-112.064	13.249	0.177	0.135
-111.049	-127.723	-0.161	0.023
-110.034	-169.995	-0.179	-0.006
-109.020	193.845	0.182	0.273
-108.005	-24.789	0.116	-0.068
-106.991	-86.729	-0.141	-0.043
-105.976	-200.000	-0.037	0.193
-104.962	-69.272	-0.171	0.065
-103.947	-166.965	0.240	-0.010
-102.932	88.812	-0.123	-0.135
-101.918	-181.523	-0.189	0.004
-100.903	285.429	0.182	0.324
-99.889	-60.262	0.382	-0.161
-98.874	-80.052	0.135	-0.045
-97.859	-200.000	-0.010	-0.220
-96.845	-125.070	0.201	-0.031
-95.830	800.000	0.044	-0.155
-94.816	-132.467	0.132	0.017
-93.801	-129.782	0.378	-0.051
-92.786	-7.245	0.211	0.141
-91.772	-107.989	0.177	0.038
-90.757	44.561	0.022	-0.020
-89.743	800.000	0.040	-0.163
-88.728	354.856	0.093	-0.183
-87.713	163.391	-0.244	-0.339
-86.699	480.629	0.081	0.180
-85.684	199.193	0.076	0.114
-84.670	800.000	-0.101	0.334
-83.655	-126.305	0.140	-0.021
-82.640	-124.884	-0.159	0.024
-81.626	-74.599	0.022	-0.008
-80.611	175.999	-0.185	-0.265
-79.597	-200.000	-0.041	-0.242
-78.582	693.273	-0.030	0.079
-77.567	73.837	0.146	0.151
-76.553	144.913	0.112	0.148
-75.538	800.000	-0.034	0.108
-74.524	-185.065	0.229	-0.004
-73.509	115.547	0.051	0.061
-72.494	800.000	-0.058	0.217
-71.480	800.000	0.051	-0.201
-70.465	-132.210	0.312	-0.040
-69.451	800.000	-0.083	-0.280
-68.436	-200.000	-0.027	-0.377
-67.422	800.000	-0.108	-0.322
-66.407	-116.259	-0.059	-0.011
-65.392	-200.000	0.003	0.112
-64.378	-180.349	0.087	0.002
-63.363	800.000	-0.074	-0.246
-62.349	-167.035	0.427	-0.017
-61.334	228.855	-0.654	-1.053
-60.319	25.952	0.453	0.373
-59.305	325.840	-0.331	-0.626
-58.290	112.212	0.796	0.950
-57.276	312.744	0.896	1.661
-56.261	-200.000	96.910	569.889
-55.246	505.248	1435.748	3281.731
-54.232	147.607	2633.356	3500.987
-53.217	111.153	2198.914	2613.885
-52.203	44.603	1640.598	1488.044
-51.188	36.301	1372.579	1193.820
-50.173	33.109	1329.660	1137.281
-49.159	55.311	1376.535	1313.593
-48.144	57.766	1393.914	1345.114
-47.130	36.594	1351.329	1176.937
-46.115	33.124	1333.427	1140.409
-45.100	32.894	1328.994	1135.188
-44.086	32.686	1326.888	1132.096
-43.071	32.744	1324.247	1130.146
-42.057	32.645	1322.635	1128.135
-41.042	32.789	1320.489	1127.117
-40.027	32.801	1318.940	1125.825
-39.013	32.785	1317.405	1124.376
-37.998	32.851	1315.589	1123.170
-36.984	32.825	1313.506	1121.196
-35.969	32.780	1312.506	1120.029
-34.954	32.873	1309.954	1118.361
-33.940	32.853	1309.347	1117.677
-32.925	32.965	1307.698	1116.888
-31.911	32.927	1306.299	1115.424
-30.896	32.949	1304.229	1113.740
-29.881	32.952	1303.246	1112.874
-28.867	33.013	1301.430	1111.641
-27.852	32.870	1300.461	1109.927
-26.838	32.890	1298.601	1108.411
-25.823	32.977	1297.538	1107.970
-24.809	32.924	1296.240	1106.508
-23.794	32.897	1295.012	1105.260
-22.779	32.926	1293.241	1103.874
-21.765	32.999	1291.969	1103.169
-20.750	32.839	1291.431	1101.735
-19.736	32.729	1289.798	1099.654
-18.721	32.757	1288.549	1098.707
-17.706	32.795	1287.716	1098.176
-16.692	32.896	1286.265	1097.484
-15.677	32.851	1285.261	1096.323
-14.663	32.725	1284.150	1094.602
-13.648	32.779	1283.069	1093.947
-12.633	32.739	1282.037	1092.789
-11.619	32.633	1281.551	1091.722
-10.604	32.664	1280.705	1091.134
-9.590	32.630	1279.264	1089.670
-8.575	32.776	1278.255	1089.609
-7.560	32.780	1277.170	1088.667
-6.546	32.744	1276.546	1087.881
-5.531	32.787	1275.996	1087.618
-4.517	32.732	1274.898	1086.318
-3.502	32.826	1273.838	1085.916
-2.487	32.743	1273.509	1085.112
-1.473	32.865	1269.436	1082.299
-0.458	32.142	1254.955	1065.814
0.556	27.650	1238.600	1031.538
1.571	24.014	1244.719	1015.829
2.586	22.676	1259.458	1020.033
3.600	21.661	1248.059	1004.889
4.615	15.928	1171.618	912.294
5.629	5.732	1092.127	798.595
6.644	0.830	1070.428	758.136
7.659	0.410	1067.974	754.232
8.673	0.253	1067.284	752.894
9.688	0.219	1065.603	751.469
10.702	0.596	1063.669	751.917
11.717	6.341	1071.818	786.375
12.731	15.115	1083.907	839.328
13.746	18.147	1086.376	856.368
14.761	17.409	1084.845	851.395
15.775	16.291	1082.652	844.012
16.790	15.321	1080.213	837.195
17.804	14.505	1078.918	832.052
18.819	14.207	1077.993	829.779
19.834	13.838	1077.534	827.511
20.848	13.692	1076.084	825.597
21.863	13.355	1075.362	823.296
22.877	13.240	1074.397	821.907
23.892	13.192	1073.561	820.958
24.907	13.315	1073.221	821.236
25.921	13.198	1072.500	820.032
26.936	13.265	1071.764	819.729
27.950	13.362	1070.319	819.033
28.965	13.381	1069.470	818.406
29.980	13.553	1067.934	818.006
30.994	13.545	1066.945	817.137
32.009	13.545	1065.924	816.283
33.023	13.471	1065.509	815.528
34.038	13.386	1064.510	814.270
35.053	13.475	1063.002	813.481
36.067	13.308	1062.487	812.197
37.082	13.509	1061.404	812.281
38.096	13.446	1060.740	811.392
39.111	13.383	1060.284	810.664
40.126	13.370	1059.148	809.664
41.140	13.249	1057.865	808.018
42.155	13.344	1056.681	807.506
43.169	13.305	1055.777	806.553
44.184	13.239	1054.676	805.321
45.199	13.133	1053.849	804.102
46.213	13.206	1052.912	803.670
47.228	13.311	1051.665	803.159
48.242	13.351	1050.934	802.721
49.257	13.412	1049.983	802.219
50.271	13.494	1048.649	801.525
51.286	13.410	1048.367	800.834
52.301	13.431	1047.098	799.895
53.315	13.272	1046.438	798.552
54.330	13.301	1045.244	797.710
55.344	13.350	1044.284	797.141
56.359	13.252	1043.653	796.121
57.374	13.249	1042.935	795.486
58.388	13.317	1041.841	794.906
59.403	13.286	1040.876	793.955
60.417	13.268	1039.755	792.939
61.432	13.201	1039.271	792.180
62.447	13.274	1038.093	791.560
63.461	13.131	1037.484	790.343
64.476	13.179	1036.733	789.933
65.490	13.191	1035.811	789.217
66.505	13.219	1035.308	788.897
67.520	13.265	1034.536	788.459
68.534	13.416	1033.147	788.049
69.549	13.093	1033.193	786.476
70.563	13.224	1032.313	786.360
71.578	13.249	1031.277	785.622
72.593	13.210	1030.458	784.739
73.607	13.179	1029.914	784.110
74.622	13.121	1029.412	783.383
75.636	13.224	1028.771	783.315
76.651	13.104	1028.153	782.206
77.666	13.239	1026.919	781.838
78.680	13.135	1026.565	781.007
79.695	13.161	1026.218	780.796
80.709	13.167	1025.165	779.952
81.724	13.225	1024.580	779.714
82.739	13.258	1024.131	779.460
83.753	13.473	1022.700	779.315
84.768	13.379	1022.124	778.362
85.782	13.443	1021.311	777.975
86.797	13.291	1020.499	776.572
87.812	13.258	1019.582	775.654
88.826	13.362	1018.226	775.043
89.841	13.402	1017.330	774.477
90.855	13.461	1016.645	774.162
91.870	13.496	1016.023	773.783
92.884	13.518	1015.247	773.228
93.899	13.417	1014.286	771.956
94.914	13.663	1013.329	772.304
95.928	13.496	1012.891	771.128
96.943	13.413	1011.968	769.971
97.957	13.384	1011.170	769.160
98.972	13.410	1010.250	768.511
99.987	13.571	1009.015	768.253
101.001	13.360	1008.802	767.041
102.016	13.449	1007.232	766.195
103.030	13.390	1006.753	765.486
104.045	13.457	1006.122	765.250
105.060	13.458	1004.758	764.151
106.074	13.339	1004.287	763.176
107.089	13.305	1003.124	762.065
108.103	13.362	1002.125	761.503
109.118	13.267	1001.116	760.230
110.133	13.166	1000.338	759.109
111.147	13.304	999.572	759.097
112.162	13.342	998.659	758.506
113.176	13.546	997.386	758.407
114.191	13.448	996.779	757.433
115.206	13.351	996.370	756.611
116.220	13.282	995.743	755.753
117.235	13.323	994.634	755.028
118.249	13.463	993.665	754.869
119.264	13.461	992.732	754.079
120.279	13.425	992.085	753.359
121.293	13.449	991.314	752.819
122.308	13.352	990.618	751.780
123.322	13.484	989.192	751.232
124.337	13.361	988.610	750.163
125.352	13.412	987.114	749.195
126.366	13.350	986.280	748.214
127.381	13.409	985.233	747.619
128.395	13.321	984.796	746.824
129.410	13.546	982.882	746.320
130.424	13.318	982.462	744.911
131.439	13.470	981.775	745.005
132.454	13.582	981.019	744.869
133.468	13.526	980.294	744.003
134.483	13.496	979.270	743.026
135.497	13.439	978.312	741.979
136.512	13.536	977.319	741.595
137.527	13.454	976.554	740.582
138.541	13.497	976.093	740.359
139.556	13.499	975.171	739.600
140.570	13.553	974.424	739.211
141.585	13.634	973.878	739.094
142.600	13.704	972.145	738.023
143.614	13.760	971.556	737.761
144.629	13.652	971.151	736.908
145.643	13.588	970.334	735.939
146.658	13.624	969.150	735.132
147.673	13.480	968.109	733.642
148.687	13.545	967.527	733.424
149.702	13.555	966.775	732.834
150.716	13.577	965.794	732.123
151.731	13.467	964.974	730.950
152.746	13.554	964.577	730.966
153.760	13.555	963.718	730.258
154.775	13.603	963.308	730.092
155.789	13.771	962.318	730.019
156.804	13.596	961.838	728.818
157.819	13.660	961.364	728.676
158.833	13.900	960.213	728.792
159.848	13.612	960.134	727.403
160.862	13.751	958.811	726.945
161.877	13.787	957.632	726.148
162.892	13.762	956.724	725.284
163.906	13.678	956.017	724.319
164.921	13.693	955.266	723.751
165.935	13.618	954.253	722.590
166.950	13.633	953.527	722.042
167.964	13.668	952.300	721.203
168.979	13.669	951.809	720.772
169.994	13.670	951.250	720.287
171.008	13.762	950.061	719.724
172.023	13.803	949.500	719.414
173.037	13.823	948.739	718.858
174.052	13.716	948.346	718.035
175.067	13.744	947.415	717.385
176.081	13.776	946.876	717.053
177.096	13.829	946.231	716.732
178.110	13.876	945.517	716.327
179.125	13.798	944.699	715.311
180.140	13.802	944.415	715.050
181.154	13.824	944.176	714.899
182.169	13.873	943.537	714.563
183.183	13.969	942.644	714.236
184.198	13.971	941.772	713.521
185.213	13.966	941.513	713.239
186.227	14.055	940.389	712.705
187.242	14.002	939.704	711.900
188.256	14.097	939.266	711.909
189.271	13.922	938.477	710.500
190.286	13.934	937.428	709.696
191.300	13.781	936.993	708.649
192.315	13.866	936.503	708.578
193.329	13.917	936.042	708.386
194.344	13.823	935.198	707.284
195.359	13.829	934.872	707.000
196.373	13.946	934.413	707.087
197.388	14.027	933.843	706.938
198.402	14.142	932.745	706.533
199.417	14.311	932.023	706.639
200.432	14.233	931.397	705.772
201.446	14.260	931.170	705.651
202.461	14.301	930.765	705.459
203.475	14.203	930.202	704.552
204.490	14.186	929.562	703.933
205.504	14.175	928.935	703.352
206.519	14.250	928.059	702.942
207.534	14.244	927.360	702.325
208.548	14.252	926.650	701.756
209.563	14.393	925.976	701.779
210.577	14.245	925.068	700.408
211.592	14.409	924.458	700.574
212.607	14.303	923.812	699.575
213.621	14.380	923.074	699.276
214.636	14.369	922.201	698.509
215.650	14.415	921.442	698.067
216.665	14.375	920.590	697.189
217.680	14.451	920.362	697.275
218.694	14.434	919.446	696.445
219.709	14.420	918.807	695.841
220.723	14.458	918.466	695.681
221.738	14.433	917.782	695.000
222.753	14.450	916.844	694.297
223.767	14.536	916.122	694.048
224.782	14.594	915.670	693.886
225.796	14.575	915.606	693.694
226.811	14.492	914.657	692.570
227.826	14.568	913.729	692.119
228.840	14.568	912.843	691.388
229.855	14.589	912.070	690.829
230.869	14.489	911.245	689.730
231.884	14.614	910.670	689.751
232.899	14.645	909.688	689.075
233.913	14.488	909.583	688.285
234.928	14.552	908.830	687.918
235.942	14.628	908.433	687.868
236.957	14.540	907.602	686.818
237.972	14.661	907.043	686.833
238.986	14.581	906.435	685.980
240.001	14.656	905.826	685.770
241.015	14.588	905.093	684.873
242.030	14.596	904.615	684.483
243.045	14.735	904.008	684.534
244.059	14.635	903.506	683.682
245.074	14.825	902.347	683.523
246.088	14.722	902.044	682.814
247.103	14.889	901.249	682.833
248.117	14.679	900.865	681.625
249.132	14.839	900.105	681.639
250.147	14.979	899.604	681.771
251.161	14.934	899.114	681.157
252.176	15.018	898.090	680.663
253.190	15.018	897.555	680.196
254.205	15.066	896.879	679.818
255.220	15.057	896.018	679.069
256.234	15.115	895.814	679.091
257.249	15.164	894.960	678.582
258.263	15.080	894.234	677.631
259.278	15.087	893.258	676.860
260.293	15.272	892.814	677.212
261.307	15.150	892.244	676.227
262.322	15.071	891.930	675.609
263.336	15.127	890.818	674.932
264.351	15.216	890.164	674.737
265.366	15.215	889.699	674.321
266.380	15.285	889.343	674.273
267.395	15.350	888.406	673.762
268.409	15.240	887.619	672.667
269.424	15.240	886.797	671.984
270.439	15.264	886.255	671.609
271.453	15.340	885.570	671.335
272.468	15.369	884.916	670.897
273.482	15.391	884.377	670.516
274.497	15.402	883.438	669.786
275.512	15.407	883.273	669.624
276.526	15.369	882.744	669.012
277.541	15.453	882.410	669.036
278.555	15.374	881.878	668.257
279.570	15.437	881.072	667.839
280.585	15.503	880.164	667.353
281.599	15.329	879.531	666.123
282.614	15.511	878.656	666.124
283.628	15.364	878.438	665.317
284.643	15.445	877.508	664.872
285.657	15.448	877.249	664.628
286.672	15.571	876.685	664.629
287.687	15.485	875.879	663.622
288.701	15.577	875.241	663.441
289.716	15.584	874.606	662.928
290.730	15.549	874.047	662.309
291.745	15.545	873.440	661.773
292.760	15.675	872.717	661.680
293.774	15.654	872.352	661.262
294.789	15.561	871.653	660.308
295.803	15.641	870.845	659.954
296.818	15.426	870.371	658.689
297.833	15.636	869.757	658.990
298.847	15.682	869.336	658.794
299.862	15.663	868.290	657.870
300.876	15.711	867.779	657.612
301.891	15.817	867.370	657.658
302.906	15.766	866.447	656.700
303.920	15.823	866.188	656.669
304.935	15.858	865.906	656.533
305.949	15.847	865.004	655.750
306.964	15.814	864.172	654.930
307.979	15.780	863.929	654.558
308.993	15.850	863.429	654.392
310.008	15.870	862.520	653.721
311.022	15.967	861.709	653.428
312.037	15.926	861.059	652.715
313.052	15.845	860.975	652.281
314.066	16.015	859.936	652.095
315.081	15.868	859.872	651.418
316.095	15.884	859.074	650.818
317.110	16.034	858.270	650.731
318.125	15.857	858.035	649.812
319.139	15.911	857.678	649.695
320.154	15.902	857.047	649.125
321.168	16.047	856.415	649.145
322.183	16.022	855.832	648.549
323.197	16.007	855.321	648.048
324.212	16.056	854.759	647.752
325.227	15.937	854.389	646.959
326.241	16.019	853.469	646.520
327.256	16.095	852.665	646.144
328.270	16.025	852.144	645.425
329.285	16.022	851.940	645.199
330.300	15.916	851.546	644.439
331.314	15.990	850.668	644.000
332.329	16.027	850.347	643.843
333.343	16.252	849.572	644.056
334.358	16.258	849.066	643.638
335.373	16.166	849.006	643.185
336.387	16.114	849.068	642.977
337.402	16.133	848.763	642.762
338.416	16.272	848.280	642.869
339.431	16.244	847.830	642.365
340.446	16.296	847.556	642.298
341.460	16.466	846.866	642.365
342.475	16.427	846.536	641.908
343.489	16.371	845.917	641.169
344.504	16.425	845.510	641.009
345.519	16.560	844.790	640.920
346.533	16.621	844.289	640.713
347.548	16.381	843.859	639.422
348.562	16.358	843.363	638.904
349.577	16.363	842.672	638.340
350.592	16.467	841.788	638.009
351.606	16.497	841.104	637.547
352.621	16.405	840.483	636.673
353.635	16.529	839.836	636.592
354.650	16.600	839.233	636.347
355.665	16.551	838.674	635.680
356.679	16.421	838.445	634.964
357.694	16.624	837.440	634.906
358.708	16.649	836.977	634.593
359.723	16.621	836.324	633.939
360.738	16.585	835.890	633.418
361.752	16.591	835.286	632.928
362.767	16.660	834.786	632.752
363.781	16.776	834.247	632.718
364.796	16.787	833.810	632.375
365.810	16.744	833.640	632.029
366.825	16.836	832.675	631.583
367.840	16.972	832.231	631.696
368.854	16.848	831.662	630.748
369.869	16.893	831.599	630.810
370.883	16.879	831.202	630.402
371.898	16.756	831.022	629.752
372.913	16.968	830.258	629.905
373.927	17.025	829.795	629.708
374.942	16.931	829.203	628.857
375.956	16.982	828.804	628.686
376.971	16.890	828.345	627.945
377.986	17.095	828.178	628.518
379.000	16.996	827.555	627.624
380.015	17.017	826.861	627.121
381.029	17.113	825.897	626.687
382.044	17.175	825.346	626.444
383.059	17.070	824.908	625.669
384.073	17.025	824.758	625.334
385.088	17.182	823.830	625.151
386.102	17.140	823.343	624.573
387.117	17.031	822.886	623.771
388.132	17.202	822.214	623.834
389.146	17.051	821.946	623.022
390.161	17.113	821.246	622.663
391.175	17.235	820.488	622.479
392.190	17.216	820.380	622.272
393.205	17.185	819.949	621.776
394.219	17.159	819.905	621.594
395.234	17.122	819.075	620.775
396.248	17.049	818.575	620.073
397.263	17.035	818.071	619.588
398.278	17.207	817.494	619.722
399.292	17.176	817.496	619.557
400.307	17.047	817.089	618.723
401.321	17.156	816.438	618.571
402.336	17.262	815.724	618.360
403.350	17.260	815.464	618.100
404.365	17.283	814.976	617.763
405.380	17.293	814.546	617.417
406.394	17.394	814.080	617.374
407.409	17.457	813.563	617.159
408.423	17.359	813.393	616.618
409.438	17.556	812.739	616.781
410.453	17.614	812.246	616.562
411.467	17.402	812.009	615.563
412.482	17.531	811.428	615.531
413.496	17.472	811.336	615.195
414.511	17.569	810.852	615.124
415.526	17.558	810.127	614.480
416.540	17.729	809.617	614.656
417.555	17.626	809.043	613.793
418.569	17.551	809.024	613.457
419.584	17.577	808.890	613.395
420.599	17.716	807.978	613.148
421.613	105.904	1287.487	1452.930
422.628	91.238	1357.371	1453.042
