DTS Sentinel unit serial number:	SN413079Multiplexer serial number:	ORYXHardware model number:	OX4-SRSoftware version number:	ORYX F/W v4.00 Oryx Data Collector v3.7.2.0data status	okinstallation	princeton_trtdifferential loss correction	single-endedforward channel	channel 1reverse channel	N/Adate	2019/09/19time	10:38:35forward acquisition time	60.00reverse acquisition time	0.00gamma	496.2192k internal	0.2338k external	0.2338temperature offset calibration	1.0008default loss term (dB/km)	0.3790temperature slope calibration	1.0000multiplexer offset coefficient	1.0000multiplexer slope coefficient	1.0000fibre end	0.00T internal ref (°C)	24.52T ext. ref 1 (°C)	0.73T ext. ref 2 (°C)	20.01length (m)	temperature (°C)	Stokes	anti-Stokes-747.200	-54.833	-0.141	-0.064
-746.185	-39.784	-0.104	-0.054
-745.171	118.249	-0.071	-0.088
-744.156	-39.190	-0.183	0.096
-743.142	114.214	0.181	0.221
-742.127	-53.130	-0.483	0.223
-741.112	221.973	0.250	-0.403
-740.098	-66.560	-0.276	0.110
-739.083	283.986	0.166	-0.300
-738.069	-200.000	-0.046	-0.308
-737.054	116.685	-0.100	0.123
-736.039	14.247	-0.070	0.055
-735.025	8.295	-0.037	0.028
-734.010	800.000	0.087	0.285
-732.996	79.888	-0.278	-0.300
-731.981	-155.660	-0.392	-0.025
-730.966	800.000	0.101	-0.314
-729.952	-200.000	-0.056	-0.417
-728.937	128.225	-0.071	0.091
-727.923	-12.835	0.121	-0.079
-726.908	800.000	-0.110	-0.459
-725.894	800.000	0.076	0.270
-724.879	-200.000	0.023	-0.181
-723.864	800.000	-0.038	-0.153
-722.850	-200.000	-0.006	0.040
-721.835	24.258	-0.089	-0.073
-720.821	800.000	-0.088	0.251
-719.806	478.897	0.057	0.129
-718.791	720.145	0.100	-0.265
-717.777	-83.239	0.270	-0.087
-716.762	71.335	-0.161	-0.167
-715.748	27.756	-0.188	0.159
-714.733	-36.026	-0.168	-0.091
-713.718	-200.000	0.022	0.181
-712.704	-125.977	-0.020	0.003
-711.689	-200.000	-0.004	0.036
-710.675	374.636	0.098	0.199
-709.660	693.248	-0.100	-0.262
-708.645	-9.006	0.208	-0.140
-707.631	113.586	0.068	0.083
-706.616	800.000	-0.037	-0.161
-705.602	-47.717	0.275	-0.134
-704.587	484.243	0.096	0.219
-703.572	-60.770	0.339	0.144
-702.558	578.192	-0.086	0.212
-701.543	163.072	0.153	0.215
-700.529	433.399	-0.017	-0.037
-699.514	63.686	0.046	0.046
-698.499	-200.000	0.035	-0.190
-697.485	-200.000	-0.043	0.442
-696.470	328.416	-0.095	0.182
-695.456	124.251	0.092	0.116
-694.441	-111.475	-0.284	0.058
-693.426	800.000	-0.055	0.167
-692.412	149.360	-0.140	-0.189
-691.397	100.807	0.255	-0.297
-690.383	-178.279	-0.171	-0.004
-689.368	408.881	-0.118	-0.250
-688.354	-105.146	0.336	-0.077
-687.339	800.000	0.039	-0.153
-686.324	-170.673	-0.338	0.012
-685.310	-101.112	-0.200	-0.049
-684.295	49.824	0.200	0.189
-683.281	665.988	0.024	0.061
-682.266	800.000	0.054	-0.149
-681.251	161.468	0.036	0.050
-680.237	239.941	-0.079	-0.131
-679.222	800.000	-0.065	-0.222
-678.208	12.169	0.142	-0.109
-677.193	-200.000	0.034	0.285
-676.178	103.144	-0.324	0.380
-675.164	-122.686	-0.455	0.074
-674.149	145.934	-0.207	-0.278
-673.135	800.000	0.073	0.302
-672.120	-44.120	0.263	0.132
-671.105	-200.000	-0.001	-0.133
-670.091	194.964	-0.050	-0.075
-669.076	-133.330	-0.109	0.014
-668.062	-75.077	0.178	-0.064
-667.047	298.688	0.034	0.063
-666.032	286.959	-0.098	-0.176
-665.018	-114.849	-0.225	0.043
-664.003	800.000	-0.106	0.312
-662.989	222.189	0.083	-0.134
-661.974	-75.873	0.355	0.126
-660.959	225.016	0.215	0.348
-659.945	-200.000	-0.031	0.367
-658.930	-200.000	0.043	0.418
-657.916	29.804	-0.242	0.206
-656.901	-74.008	-0.206	-0.075
-655.886	141.607	0.202	0.268
-654.872	251.446	-0.119	-0.202
-653.857	1.348	-0.334	-0.240
-652.843	7.213	0.010	-0.008
-651.828	-200.000	-0.091	0.404
-650.814	-33.905	-0.179	0.099
-649.799	535.384	-0.059	-0.140
-648.784	-97.133	0.164	-0.043
-647.770	-200.000	0.013	-0.249
-646.755	98.410	-0.168	-0.194
-645.741	-116.398	-0.339	-0.063
-644.726	800.000	-0.007	-0.022
-643.711	174.360	0.194	-0.281
-642.697	-46.472	-0.375	0.184
-641.682	32.128	0.258	-0.222
-640.668	-35.615	-0.194	0.105
-639.653	167.159	0.303	0.429
-638.638	-200.000	0.008	0.304
-637.624	8.351	-0.131	0.098
-636.609	-200.000	0.067	-0.357
-635.595	-200.000	-0.004	-0.319
-634.580	109.233	0.051	0.061
-633.565	-133.626	0.181	0.023
-632.551	800.000	0.054	-0.185
-631.536	76.854	-0.178	-0.189
-630.522	-3.402	0.108	-0.075
-629.507	80.310	0.024	-0.026
-628.492	-130.145	0.091	-0.012
-627.478	-200.000	-0.066	0.358
-626.463	47.748	0.057	0.053
-625.449	44.832	-0.199	-0.183
-624.434	216.188	0.091	-0.144
-623.419	-105.668	-0.052	0.012
-622.405	-177.332	0.188	0.005
-621.390	-27.293	-0.140	0.082
-620.376	3.657	-0.188	-0.137
-619.361	117.428	0.083	0.102
-618.346	-46.931	-0.208	0.102
-617.332	-128.573	-0.235	0.033
-616.317	239.034	-0.158	0.262
-615.303	529.818	-0.100	0.236
-614.288	368.499	-0.131	0.264
-613.273	-200.000	0.008	0.184
-612.259	-200.000	-0.028	0.234
-611.244	-200.000	0.002	0.326
-610.230	-200.000	-0.018	0.201
-609.215	-200.000	-0.005	-0.035
-608.201	207.791	-0.051	-0.079
-607.186	-66.954	-0.082	-0.032
-606.171	32.890	-0.217	-0.187
-605.157	-7.893	0.187	-0.126
-604.142	-132.357	-0.262	0.034
-603.128	-200.000	-0.002	-0.194
-602.113	-200.000	0.017	-0.140
-601.098	-139.543	0.204	-0.022
-600.084	46.504	-0.270	0.250
-599.069	-164.049	-0.080	0.004
-598.055	386.079	0.103	-0.212
-597.040	178.903	-0.037	-0.053
-596.025	-200.000	-0.051	-0.249
-595.011	-186.674	-0.033	-0.000
-593.996	-111.772	0.310	0.063
-592.982	191.229	0.148	-0.223
-591.967	-12.587	-0.157	0.102
-590.952	172.565	-0.067	-0.097
-589.938	95.023	0.214	0.243
-588.923	77.484	-0.063	0.067
-587.909	800.000	0.101	-0.312
-586.894	308.696	-0.132	-0.246
-585.879	-200.000	-0.024	-0.131
-584.865	-200.000	-0.017	-0.220
-583.850	-200.000	-0.031	-0.220
-582.836	34.059	0.278	-0.241
-581.821	-79.540	-0.266	-0.089
-580.806	-122.008	0.129	0.021
-579.792	-163.084	-0.164	0.008
-578.777	800.000	-0.007	-0.022
-577.763	-108.712	-0.408	-0.087
-576.748	212.153	0.253	0.398
-575.733	606.257	-0.056	-0.139
-574.719	502.196	0.042	-0.096
-573.704	74.011	-0.129	0.135
-572.690	800.000	0.082	0.233
-571.675	-86.720	0.148	0.045
-570.661	-38.885	0.247	-0.130
-569.646	-119.636	0.060	0.010
-568.631	60.743	-0.170	0.168
-567.617	179.665	-0.147	-0.215
-566.602	-200.000	-0.045	-0.199
-565.588	-87.552	-0.065	0.019
-564.573	119.582	-0.248	0.306
-563.558	-139.815	0.168	-0.018
-562.544	-81.798	0.325	-0.106
-561.529	217.771	-0.198	0.314
-560.515	-105.473	-0.264	0.060
-559.500	-147.247	0.166	-0.014
-558.485	800.000	-0.068	0.282
-557.471	-200.000	0.009	-0.215
-556.456	293.088	0.084	0.153
-555.442	550.546	-0.058	-0.139
-554.427	-46.177	0.266	0.130
-553.412	340.408	0.004	0.008
-552.398	40.030	0.059	-0.053
-551.383	-107.822	0.113	-0.025
-550.369	745.987	-0.045	0.121
-549.354	62.181	-0.206	0.205
-548.339	-97.301	0.114	-0.030
-547.325	149.507	-0.261	0.352
-546.310	120.778	0.056	0.069
-545.296	800.000	0.083	-0.241
-544.281	800.000	-0.090	0.277
-543.266	800.000	0.078	-0.324
-542.252	-135.170	0.111	-0.013
-541.237	-183.949	0.211	-0.004
-540.223	-200.000	-0.025	-0.437
-539.208	174.925	0.136	-0.196
-538.193	239.799	0.110	-0.183
-537.179	800.000	0.061	0.185
-536.164	-136.897	0.147	-0.017
-535.150	-187.196	-0.123	0.002
-534.135	66.482	0.001	-0.001
-533.121	-179.237	0.270	0.006
-532.106	174.048	0.042	-0.061
-531.091	491.404	0.088	-0.201
-530.077	-200.000	-0.018	0.242
-529.062	235.476	-0.148	-0.244
-528.048	256.490	-0.141	0.241
-527.033	91.966	0.082	-0.092
-526.018	-200.000	0.049	-0.345
-525.004	-52.805	-0.404	0.185
-523.989	-81.515	-0.324	-0.106
-522.975	-103.852	0.266	0.062
-521.960	-200.000	0.010	0.188
-520.945	-19.363	0.310	0.191
-519.931	-179.851	0.507	0.011
-518.916	-161.719	-0.292	-0.015
-517.902	84.987	-0.180	-0.196
-516.887	800.000	-0.168	-0.472
-515.872	47.108	0.351	-0.325
-514.858	-115.320	-0.133	0.025
-513.843	-117.044	-0.117	-0.021
-512.829	-38.863	0.084	0.044
-511.814	102.847	-0.157	0.183
-510.799	-22.687	-0.276	-0.166
-509.785	271.767	0.089	-0.156
-508.770	-200.000	0.003	-0.301
-507.756	140.668	-0.255	0.335
-506.741	-200.000	-0.036	0.167
-505.726	0.692	-0.115	0.082
-504.712	-23.071	0.075	-0.045
-503.697	-200.000	-0.017	0.114
-502.683	-200.000	-0.043	0.545
-501.668	28.125	-0.095	0.080
-500.653	112.536	0.184	0.221
-499.639	800.000	-0.033	0.134
-498.624	301.966	-0.038	0.070
-497.610	201.594	-0.079	0.122
-496.595	-63.594	0.522	0.213
-495.581	-63.935	0.107	-0.044
-494.566	-200.000	-0.004	-0.153
-493.551	385.618	-0.073	-0.149
-492.537	52.944	0.160	-0.152
-491.522	214.063	0.062	-0.098
-490.508	-200.000	0.002	0.062
-489.493	800.000	-0.015	0.043
-488.478	-200.000	-0.052	0.333
-487.464	-200.000	-0.013	0.083
-486.449	-85.837	-0.097	-0.030
-485.435	215.139	0.105	0.165
-484.420	-200.000	0.009	-0.149
-483.405	-49.371	0.207	0.098
-482.391	141.418	0.042	0.056
-481.376	-17.157	-0.050	0.032
-480.362	-75.613	0.180	-0.064
-479.347	-200.000	-0.030	-0.196
-478.332	-200.000	-0.012	-0.227
-477.318	-144.536	0.071	0.007
-476.303	-102.788	0.167	0.040
-475.289	800.000	0.144	0.613
-474.274	180.609	0.117	-0.171
-473.259	4.237	-0.249	-0.181
-472.245	-12.574	-0.028	0.018
-471.230	52.847	0.222	-0.210
-470.216	15.444	0.226	-0.176
-469.201	-42.953	-0.165	-0.083
-468.186	-23.732	0.136	-0.081
-467.172	241.487	0.033	-0.055
-466.157	525.293	0.138	-0.322
-465.143	800.000	-0.081	0.235
-464.128	-200.000	0.051	0.291
-463.113	371.515	0.186	-0.375
-462.099	271.497	0.024	0.042
-461.084	510.066	-0.104	0.240
-460.070	-200.000	-0.090	0.402
-459.055	174.356	-0.061	-0.087
-458.040	8.366	0.171	-0.127
-457.026	16.695	-0.047	-0.037
-456.011	210.598	-0.077	0.120
-454.997	-98.603	0.144	-0.036
-453.982	-200.000	0.026	-0.369
-452.968	581.201	-0.030	0.074
-451.953	-53.886	-0.260	0.118
-450.938	-200.000	-0.045	0.210
-449.924	197.078	0.231	-0.349
-448.909	-93.698	-0.061	0.017
-447.895	-84.771	0.380	0.119
-446.880	111.013	-0.194	-0.232
-445.865	260.402	0.117	-0.200
-444.851	97.613	-0.212	-0.242
-443.836	204.645	-0.096	0.147
-442.822	360.931	-0.030	-0.060
-441.807	-106.850	0.245	0.054
-440.792	-17.883	0.307	0.191
-439.778	52.338	0.033	0.032
-438.763	-200.000	0.000	0.106
-437.749	87.623	-0.086	0.094
-436.734	19.054	-0.014	0.011
-435.719	-200.000	-0.067	0.342
-434.705	-200.000	-0.000	0.136
-433.690	-139.805	0.348	0.037
-432.676	441.420	-0.112	-0.243
-431.661	-129.884	0.142	0.019
-430.646	-200.000	-0.030	0.145
-429.632	-132.979	-0.077	0.010
-428.617	-107.726	-0.074	-0.016
-427.603	44.439	0.168	-0.153
-426.588	-125.557	-0.090	0.013
-425.573	1.941	0.127	-0.091
-424.559	-17.895	-0.201	0.125
-423.544	153.630	0.062	-0.084
-422.530	511.902	-0.040	0.091
-421.515	-42.308	0.079	-0.040
-420.500	-97.229	-0.203	0.052
-419.486	690.882	0.206	0.535
-418.471	800.000	0.027	0.083
-417.457	-143.375	0.250	-0.024
-416.442	199.191	-0.172	-0.262
-415.428	-49.641	0.134	-0.063
-414.413	140.120	-0.126	-0.165
-413.398	175.299	-0.214	-0.307
-412.384	467.755	0.073	-0.161
-411.369	279.984	0.081	0.143
-410.355	-106.232	-0.120	0.027
-409.340	196.349	0.127	-0.192
-408.325	-79.889	0.236	0.079
-407.311	800.000	0.089	-0.287
-406.296	-41.425	-0.271	-0.138
-405.282	74.926	-0.056	-0.059
-404.267	-14.973	-0.217	-0.138
-403.252	466.229	0.082	0.182
-402.238	-200.000	0.038	-0.387
-401.223	460.394	-0.075	0.164
-400.209	-31.770	0.119	0.066
-399.194	159.814	-0.173	0.239
-398.179	-70.469	0.035	-0.013
-397.165	158.233	-0.158	0.216
-396.150	-19.907	0.180	-0.110
-395.136	-0.691	-0.167	0.117
-394.121	-200.000	0.043	-0.311
-393.106	-67.934	0.151	0.059
-392.092	-200.000	0.009	-0.105
-391.077	-112.453	0.275	0.054
-390.063	5.728	0.263	-0.193
-389.048	19.948	0.068	0.055
-388.033	1.117	0.029	0.021
-387.019	-23.120	-0.151	0.090
-386.004	-200.000	-0.003	-0.159
-384.990	245.939	0.121	-0.202
-383.975	-200.000	0.049	0.224
-382.960	-200.000	0.016	-0.126
-381.946	-98.067	-0.226	-0.057
-380.931	-83.788	-0.374	0.118
-379.917	129.280	0.215	-0.272
-378.902	800.000	-0.092	-0.290
-377.888	122.129	0.039	-0.048
-376.873	-200.000	-0.010	0.128
-375.858	-49.518	0.286	0.135
-374.844	64.872	0.051	-0.051
-373.829	87.599	0.004	0.005
-372.815	800.000	0.030	-0.122
-371.800	-127.017	0.146	0.021
-370.785	-94.925	-0.206	-0.055
-369.771	34.336	0.210	0.181
-368.756	53.375	0.268	-0.254
-367.742	88.693	-0.153	0.168
-366.727	226.286	-0.140	-0.225
-365.712	-65.544	0.226	-0.090
-364.698	-165.900	-0.225	0.010
-363.683	-189.984	0.132	0.001
-362.669	625.672	-0.148	-0.370
-361.654	135.841	0.089	0.115
-360.639	2.991	0.118	-0.085
-359.625	-48.065	0.193	0.092
-358.610	-99.064	-0.544	0.136
-357.596	32.023	0.037	-0.031
-356.581	-128.987	0.249	-0.035
-355.566	800.000	0.035	0.108
-354.552	464.769	0.034	-0.075
-353.537	-87.757	0.110	-0.033
-352.523	-25.122	0.234	0.137
-351.508	-200.000	-0.012	-0.290
-350.493	-125.527	-0.486	-0.073
-349.479	-44.413	0.058	0.028
-348.464	233.989	0.241	0.392
-347.450	55.623	-0.086	0.082
-346.435	-162.539	-0.127	-0.006
-345.420	-24.792	0.144	-0.084
-344.406	-119.802	-0.065	-0.011
-343.391	800.000	-0.019	-0.070
-342.377	-19.056	-0.165	0.102
-341.362	-162.229	-0.105	0.005
-340.348	-60.388	0.230	-0.097
-339.333	-200.000	0.037	0.252
-338.318	93.295	-0.096	0.107
-337.304	-152.791	-0.098	-0.007
-336.289	-200.000	-0.060	0.301
-335.275	-155.559	-0.278	-0.018
-334.260	-80.059	0.202	-0.067
-333.245	232.952	-0.341	0.554
-332.231	-77.546	0.374	0.128
-331.216	-60.576	-0.068	0.028
-330.202	688.714	-0.093	0.240
-329.187	68.885	0.001	-0.001
-328.172	2.853	-0.208	-0.149
-327.158	1.180	-0.145	-0.102
-326.143	-124.131	-0.100	-0.015
-325.129	-87.429	-0.297	-0.089
-324.114	160.172	-0.117	-0.160
-323.099	402.766	0.150	-0.312
-322.085	-200.000	-0.023	-0.235
-321.070	22.196	-0.259	-0.209
-320.056	107.000	0.140	0.164
-319.041	-100.871	-0.098	-0.024
-318.026	134.434	0.190	-0.243
-317.012	-164.973	-0.294	-0.013
-315.997	-200.000	-0.060	-0.298
-314.983	144.434	-0.080	0.106
-313.968	170.726	-0.083	-0.117
-312.953	696.400	0.042	0.109
-311.939	-200.000	0.003	0.067
-310.924	-200.000	-0.014	0.283
-309.910	-200.000	0.060	0.310
-308.895	-56.270	0.078	-0.034
-307.880	-200.000	-0.011	0.236
-306.866	110.828	-0.068	-0.080
-305.851	-113.751	0.356	0.068
-304.837	-200.000	-0.001	0.128
-303.822	800.000	-0.112	0.353
-302.807	4.830	-0.239	0.173
-301.793	103.866	-0.063	0.073
-300.778	-41.314	-0.113	-0.057
-299.764	-80.723	0.266	-0.087
-298.749	307.645	-0.071	-0.130
-297.735	-45.433	0.185	0.090
-296.720	87.843	-0.095	-0.104
-295.705	-194.701	0.253	0.002
-294.691	193.229	-0.078	0.117
-293.676	-105.844	-0.327	-0.073
-292.662	800.000	-0.119	0.507
-291.647	-200.000	-0.013	0.137
-290.632	-187.455	0.314	0.004
-289.618	744.277	0.137	0.363
-288.603	-49.082	-0.394	0.186
-287.589	800.000	-0.052	-0.224
-286.574	-50.300	0.555	-0.259
-285.559	-62.592	0.250	0.102
-284.545	-86.717	0.147	0.044
-283.530	-124.463	0.061	-0.009
-282.516	553.284	-0.124	-0.294
-281.501	-200.000	-0.039	-0.261
-280.486	-50.180	0.097	0.045
-279.472	-128.789	0.151	0.021
-278.457	-30.138	-0.334	0.187
-277.443	-186.384	0.365	-0.005
-276.428	-101.263	0.188	-0.045
-275.413	800.000	-0.062	0.223
-274.399	-101.965	0.211	-0.050
-273.384	2.718	-0.211	0.150
-272.370	454.559	0.136	0.297
-271.355	-138.174	-0.197	-0.021
-270.340	-200.000	0.077	-0.361
-269.326	-200.000	-0.030	-0.291
-268.311	-200.000	-0.006	-0.186
-267.297	9.833	-0.076	0.057
-266.282	135.655	0.142	-0.182
-265.267	-37.351	0.237	0.125
-264.253	-133.725	-0.364	-0.045
-263.238	-10.980	-0.111	-0.072
-262.224	800.000	0.061	-0.211
-261.209	-97.601	0.301	-0.077
-260.195	-200.000	0.024	-0.201
-259.180	31.756	-0.109	0.093
-258.165	43.034	-0.270	-0.242
-257.151	-129.549	0.130	0.018
-256.136	800.000	0.090	0.359
-255.122	-116.019	-0.143	0.026
-254.107	147.258	-0.194	0.257
-253.092	-49.628	-0.131	-0.061
-252.078	-200.000	-0.010	0.152
-251.063	64.375	-0.310	0.308
-250.049	-156.993	0.351	-0.021
-249.034	29.803	-0.414	-0.347
-248.019	557.118	-0.088	0.208
-247.005	361.295	-0.028	-0.056
-245.990	-200.000	0.046	-0.314
-244.976	-200.000	-0.005	0.031
-243.961	695.270	0.111	0.286
-242.946	-200.000	-0.047	-0.299
-241.932	25.096	0.048	-0.039
-240.917	294.640	0.060	-0.107
-239.903	-145.879	-0.129	0.011
-238.888	800.000	0.084	-0.331
-237.873	-79.963	0.109	-0.036
-236.859	-31.468	-0.187	0.104
-235.844	-12.359	-0.214	0.137
-234.830	58.935	0.177	0.171
-233.815	-48.084	-0.050	-0.024
-232.800	26.432	-0.183	-0.150
-231.786	151.211	0.140	0.187
-230.771	-60.359	-0.181	-0.076
-229.757	-118.789	-0.280	0.049
-228.742	37.887	0.100	0.088
-227.727	-150.393	-0.198	0.015
-226.713	-116.855	-0.199	0.036
-225.698	-45.105	0.202	0.099
-224.684	-85.835	-0.069	-0.021
-223.669	-69.571	0.381	0.144
-222.655	-86.403	-0.149	0.045
-221.640	296.199	-0.055	0.098
-220.625	800.000	0.125	0.381
-219.611	-84.266	0.127	-0.040
-218.596	-200.000	-0.036	0.206
-217.582	-26.164	0.093	-0.054
-216.567	219.286	0.191	0.300
-215.552	-77.740	0.173	0.059
-214.538	59.934	-0.224	0.217
-213.523	-84.069	0.220	0.069
-212.509	362.211	-0.104	0.205
-211.494	775.002	-0.066	-0.176
-210.479	-64.651	0.187	-0.074
-209.465	80.897	-0.181	0.192
-208.450	-157.377	-0.265	-0.016
-207.436	-111.339	0.271	0.054
-206.421	222.811	0.289	0.458
-205.406	-200.000	-0.040	0.305
-204.392	13.754	-0.107	-0.082
-203.377	322.085	-0.094	-0.177
-202.363	49.565	-0.165	-0.153
-201.348	-179.787	-0.224	0.005
-200.333	-59.957	0.318	0.133
-199.319	285.787	-0.049	0.087
-198.304	-139.478	-0.264	-0.028
-197.290	800.000	0.044	-0.170
-196.275	234.712	-0.024	-0.038
-195.260	35.614	-0.125	0.108
-194.246	-43.765	-0.353	-0.174
-193.231	-123.911	0.220	0.034
-192.217	42.310	-0.110	-0.098
-191.202	-40.916	0.193	-0.098
-190.187	-200.000	0.016	0.109
-189.173	210.469	-0.172	-0.265
-188.158	376.490	-0.119	0.239
-187.144	-102.278	0.209	-0.049
-186.129	-200.000	-0.035	0.195
-185.114	-200.000	-0.005	0.145
-184.100	-171.146	-0.075	-0.002
-183.085	767.619	0.069	-0.185
-182.071	42.981	-0.193	-0.173
-181.056	800.000	-0.027	-0.106
-180.042	-140.774	0.230	-0.023
-179.027	14.485	0.145	0.111
-178.012	189.250	0.171	-0.251
-176.998	134.821	-0.102	0.130
-175.983	-165.378	0.327	-0.014
-174.969	102.940	-0.169	0.194
-173.954	-45.399	-0.138	-0.067
-172.939	266.081	0.030	0.051
-171.925	800.000	-0.083	-0.280
-170.910	800.000	0.055	-0.162
-169.896	-80.248	-0.182	0.060
-168.881	-74.656	0.323	-0.114
-167.866	-31.519	0.036	0.020
-166.852	-21.495	-0.242	0.145
-165.837	-87.991	-0.122	0.036
-164.823	233.003	0.105	-0.170
-163.808	-13.726	0.298	-0.189
-162.793	-119.271	0.084	0.014
-161.779	-81.094	0.138	-0.045
-160.764	-200.000	-0.047	-0.000
-159.750	76.139	0.253	-0.262
-158.735	800.000	0.067	-0.241
-157.720	-78.466	-0.218	0.073
-156.706	800.000	-0.069	0.200
-155.691	-144.934	-0.170	-0.015
-154.677	384.107	-0.033	-0.066
-153.662	-172.386	0.134	0.004
-152.647	-110.029	-0.380	-0.078
-151.633	-200.000	-0.013	0.163
-150.618	-16.954	-0.122	0.076
-149.604	19.407	-0.053	0.042
-148.589	-200.000	-0.494	-0.001
-147.574	371.980	-0.073	0.145
-146.560	135.248	0.198	-0.252
-145.545	-200.000	0.031	-0.167
-144.531	783.281	0.078	-0.210
-143.516	-200.000	-0.026	-0.388
-142.502	234.906	-0.021	0.034
-141.487	0.981	0.213	-0.150
-140.472	-53.856	0.085	0.038
-139.458	-76.317	0.140	0.048
-138.443	-12.831	0.229	0.146
-137.429	371.749	-0.135	-0.268
-136.414	-26.108	0.220	-0.127
-135.399	-200.000	0.032	0.336
-134.385	2.995	-0.273	-0.194
-133.370	800.000	-0.109	-0.362
-132.356	-170.228	0.322	0.011
-131.341	54.592	-0.115	0.109
-130.326	-0.507	-0.125	-0.087
-129.312	12.793	0.175	0.132
-128.297	-173.756	0.152	0.004
-127.283	108.840	-0.135	0.159
-126.268	350.405	-0.095	0.184
-125.253	800.000	0.119	0.439
-124.239	138.665	-0.243	0.312
-123.224	296.448	0.132	0.236
-122.210	235.962	-0.039	0.064
-121.195	800.000	0.046	0.142
-120.180	-161.090	0.137	-0.007
-119.166	-77.682	-0.255	0.086
-118.151	137.446	0.226	-0.289
-117.137	-94.924	0.056	-0.015
-116.122	102.995	0.282	-0.324
-115.107	800.000	-0.031	0.116
-114.093	-121.389	-0.111	-0.018
-113.078	198.311	0.163	-0.243
-112.064	45.129	-0.079	-0.071
-111.049	800.000	0.016	0.049
-110.034	572.526	0.106	0.254
-109.020	-118.336	-0.231	-0.040
-108.005	52.985	-0.198	-0.185
-106.991	-40.342	0.238	-0.121
-105.976	-59.746	-0.350	-0.147
-104.962	-13.714	-0.017	-0.011
-103.947	-19.088	-0.217	0.132
-102.932	-80.051	0.431	-0.142
-101.918	-31.452	0.340	0.187
-100.903	389.182	-0.071	-0.144
-99.889	-121.664	-0.335	-0.054
-98.874	267.593	0.154	0.264
-97.859	800.000	-0.059	0.163
-96.845	587.279	0.062	0.150
-95.830	108.394	0.165	-0.193
-94.816	351.817	-0.309	0.599
-93.801	800.000	0.046	0.129
-92.786	71.039	0.026	-0.026
-91.772	-101.741	-0.429	-0.102
-90.757	-200.000	-0.020	-0.174
-89.743	800.000	0.042	-0.156
-88.728	-200.000	-0.094	0.448
-87.713	239.705	-0.071	0.115
-86.699	224.825	-0.151	-0.239
-85.684	-200.000	0.061	0.346
-84.670	-3.400	-0.076	0.052
-83.655	-11.548	-0.156	-0.100
-82.640	-200.000	0.037	-0.258
-81.626	45.128	0.108	0.097
-80.611	9.310	-0.138	0.102
-79.597	-59.958	-0.030	-0.012
-78.582	50.681	-0.246	-0.227
-77.567	-28.979	-0.405	0.227
-76.553	-8.521	0.229	-0.150
-75.538	451.958	-0.093	-0.201
-74.524	800.000	-0.100	0.285
-73.509	447.356	0.144	0.309
-72.494	-35.956	-0.270	0.143
-71.480	-68.570	0.451	-0.171
-70.465	-98.978	-0.085	0.021
-69.451	-65.789	0.029	0.011
-68.436	-84.325	-0.070	0.022
-67.422	23.027	-0.071	0.057
-66.407	232.530	0.083	-0.133
-65.392	189.078	0.116	-0.170
-64.378	117.559	-0.098	-0.118
-63.363	-139.391	0.052	0.005
-62.349	-200.000	0.017	0.285
-61.334	11.526	-1.203	-0.901
-60.319	21.688	0.718	0.571
-59.305	701.559	-0.569	-1.464
-58.290	367.475	0.658	1.298
-57.276	423.910	0.926	1.943
-56.261	-200.000	122.746	629.087
-55.246	381.951	1585.546	3180.818
-54.232	139.080	2751.708	3532.896
-53.217	95.413	2184.270	2431.530
-52.203	36.213	1612.310	1387.115
-51.188	27.832	1354.790	1114.607
-50.173	25.071	1317.445	1067.418
-49.159	50.723	1383.451	1278.750
-48.144	48.531	1396.476	1277.327
-47.130	27.866	1345.274	1106.808
-46.115	24.762	1326.300	1072.571
-45.100	24.536	1321.221	1067.073
-44.086	24.453	1319.121	1064.837
-43.071	24.294	1316.856	1062.019
-42.057	24.267	1314.810	1060.167
-41.042	24.356	1313.064	1059.245
-40.027	24.436	1311.136	1058.122
-39.013	24.327	1309.793	1056.349
-37.998	24.457	1307.653	1055.353
-36.984	24.428	1306.036	1053.831
-35.969	24.520	1304.011	1052.703
-34.954	24.517	1302.344	1051.293
-33.940	24.601	1301.213	1050.833
-32.925	24.601	1299.924	1049.752
-31.911	24.552	1298.685	1048.421
-30.896	24.542	1297.141	1047.075
-29.881	24.624	1295.744	1046.390
-28.867	24.657	1294.260	1045.340
-27.852	24.725	1292.666	1044.407
-26.838	24.658	1291.326	1042.891
-25.823	24.594	1290.241	1041.601
-24.809	24.652	1288.498	1040.490
-23.794	24.470	1287.739	1038.780
-22.779	24.606	1286.093	1038.202
-21.765	24.680	1284.662	1037.433
-20.750	24.610	1283.679	1036.191
-19.736	24.526	1282.669	1034.849
-18.721	24.571	1281.335	1033.992
-17.706	24.506	1280.255	1032.705
-16.692	24.506	1279.198	1031.807
-15.677	24.445	1278.167	1030.584
-14.663	24.477	1277.102	1029.868
-13.648	24.371	1276.321	1028.590
-12.633	24.467	1274.620	1027.730
-11.619	24.437	1274.009	1027.025
-10.604	24.469	1273.107	1026.441
-9.590	24.434	1271.905	1025.230
-8.575	24.486	1270.854	1024.636
-7.560	24.512	1269.750	1023.855
-6.546	24.365	1269.461	1022.739
-5.531	24.365	1268.372	1021.823
-4.517	24.411	1267.286	1021.169
-3.502	24.439	1266.596	1020.737
-2.487	24.554	1265.454	1020.433
-1.473	24.562	1261.688	1017.397
-0.458	23.138	1246.792	997.323
0.556	18.772	1231.336	961.276
1.571	15.297	1238.306	947.036
2.586	14.511	1254.021	954.473
3.600	14.456	1241.785	944.769
4.615	10.835	1168.805	869.817
5.629	4.105	1096.007	781.702
6.644	0.973	1078.361	753.481
7.659	0.722	1076.424	750.814
8.673	0.631	1075.617	749.730
9.688	0.595	1074.554	748.744
10.702	1.029	1072.091	749.110
11.717	5.085	1077.267	772.783
12.731	11.903	1086.590	813.369
13.746	16.070	1091.657	837.838
14.761	17.249	1092.698	844.427
15.775	16.485	1091.144	839.360
16.790	15.522	1088.990	832.853
17.804	14.868	1087.225	828.192
18.819	14.517	1086.039	825.480
19.834	14.250	1084.991	823.288
20.848	14.062	1084.293	821.757
21.863	13.750	1083.227	819.335
22.877	13.577	1082.869	818.137
23.892	13.588	1082.011	817.469
24.907	13.571	1080.982	816.539
25.921	13.616	1080.321	816.187
26.936	13.705	1079.397	815.853
27.950	13.694	1078.488	815.042
28.965	13.669	1077.500	814.102
29.980	13.735	1076.087	813.286
30.994	13.788	1074.959	812.620
32.009	13.815	1074.007	811.958
33.023	13.740	1072.790	810.599
34.038	13.696	1072.114	809.805
35.053	13.690	1071.054	808.905
36.067	13.738	1070.181	808.404
37.082	13.779	1069.661	808.141
38.096	13.857	1068.025	807.215
39.111	13.852	1067.851	806.985
40.126	13.775	1066.283	805.357
41.140	13.535	1065.670	803.655
42.155	13.536	1063.983	802.321
43.169	13.617	1062.992	801.891
44.184	13.540	1062.413	801.012
45.199	13.627	1061.317	800.537
46.213	13.630	1060.043	799.519
47.228	13.684	1059.271	799.124
48.242	13.486	1058.049	797.177
49.257	13.628	1057.038	797.032
50.271	13.674	1055.897	796.318
51.286	13.737	1055.375	796.156
52.301	13.725	1054.080	795.051
53.315	13.585	1053.367	793.773
54.330	13.692	1052.073	793.243
55.344	13.563	1051.049	791.785
56.359	13.647	1050.348	791.588
57.374	13.612	1049.443	790.667
58.388	13.554	1048.513	789.621
59.403	13.556	1047.493	788.792
60.417	13.529	1046.727	788.016
61.432	13.554	1045.901	787.441
62.447	13.391	1045.572	786.350
63.461	13.426	1044.410	785.573
64.476	13.536	1043.369	785.244
65.490	13.477	1042.843	784.498
66.505	13.562	1041.665	783.946
67.520	13.619	1040.894	783.566
68.534	13.621	1040.431	783.156
69.549	13.496	1039.826	782.040
70.563	13.509	1039.049	781.447
71.578	13.535	1038.166	780.839
72.593	13.489	1037.546	780.086
73.607	13.411	1036.903	779.168
74.622	13.470	1036.175	778.828
75.636	13.488	1035.418	778.275
76.651	13.411	1034.989	777.522
77.666	13.511	1033.700	776.954
78.680	13.453	1033.360	776.359
79.695	13.537	1032.560	776.081
80.709	13.568	1032.086	775.803
81.724	13.531	1031.520	775.135
82.739	13.568	1030.932	774.797
83.753	13.633	1029.589	774.024
84.768	13.697	1028.979	773.794
85.782	13.721	1027.789	772.941
86.797	13.747	1026.796	772.247
87.812	13.651	1026.027	771.156
88.826	13.732	1024.785	770.529
89.841	13.713	1023.830	769.655
90.855	13.808	1022.656	769.144
91.870	13.671	1022.481	768.309
92.884	13.667	1021.608	767.571
93.899	13.708	1020.810	767.092
94.914	13.772	1019.997	766.707
95.928	13.729	1018.768	765.518
96.943	13.615	1018.133	764.447
97.957	13.805	1017.181	764.541
98.972	13.686	1016.162	763.157
99.987	13.789	1015.002	762.693
101.001	13.820	1014.243	762.197
102.016	13.682	1013.294	760.783
103.030	13.824	1012.636	760.873
104.045	13.705	1011.868	759.684
105.060	13.743	1010.968	759.117
106.074	13.751	1010.084	758.421
107.089	13.658	1009.316	757.353
108.103	13.672	1008.024	756.380
109.118	13.753	1006.733	755.712
110.133	13.702	1006.029	754.887
111.147	13.724	1005.527	754.542
112.162	13.654	1004.629	753.483
113.176	13.729	1003.905	753.215
114.191	13.704	1003.332	752.603
115.206	13.688	1002.229	751.639
116.220	13.709	1001.721	751.284
117.235	13.814	1000.394	750.701
118.249	13.669	999.583	749.370
119.264	13.777	998.941	749.311
120.279	13.713	997.973	748.229
121.293	13.618	997.305	747.234
122.308	13.711	996.560	747.026
123.322	13.629	995.304	745.650
124.337	13.666	994.426	745.093
125.352	13.673	993.032	744.014
126.366	13.728	992.356	743.689
127.381	13.723	990.951	742.549
128.395	13.731	990.100	741.878
129.410	13.787	988.698	741.015
130.424	13.832	988.006	740.629
131.439	13.708	987.531	739.657
132.454	13.731	986.824	739.164
133.468	13.695	986.033	738.345
134.483	13.750	985.328	737.997
135.497	13.836	984.059	737.363
136.512	13.879	983.448	737.029
137.527	13.532	982.819	734.955
138.541	13.738	981.609	734.898
139.556	13.744	981.202	734.556
140.570	13.826	980.684	734.465
141.585	13.866	979.627	733.784
142.600	13.959	978.488	733.275
143.614	13.944	977.785	732.619
144.629	13.862	977.247	731.792
145.643	13.839	976.250	730.877
146.658	13.978	975.010	730.495
147.673	13.833	974.223	729.205
148.687	13.889	973.215	728.630
149.702	13.812	972.461	727.667
150.716	13.840	972.122	727.471
151.731	13.743	971.537	726.544
152.746	13.857	970.818	726.439
153.760	13.980	969.879	726.212
154.775	14.005	969.441	725.925
155.789	13.980	968.482	725.034
156.804	13.907	967.865	724.191
157.819	13.943	966.826	723.506
158.833	13.976	966.607	723.424
159.848	13.938	965.882	722.649
160.862	14.016	964.896	722.190
161.877	13.992	963.793	721.196
162.892	13.897	963.160	720.244
163.906	13.947	962.187	719.668
164.921	13.873	961.812	719.004
165.935	13.985	960.483	718.432
166.950	13.964	959.803	717.769
167.964	13.998	958.659	716.998
168.979	14.131	957.452	716.604
169.994	14.069	956.344	715.443
171.008	14.157	956.528	715.896
172.023	14.093	955.300	714.643
173.037	13.989	954.632	713.631
174.052	14.253	953.776	714.059
175.067	14.165	953.416	713.349
176.081	14.139	952.364	712.388
177.096	14.233	952.320	712.696
178.110	14.194	951.370	711.753
179.125	14.164	951.328	711.532
180.140	14.226	950.554	711.153
181.154	14.172	949.945	710.405
182.169	14.251	949.270	710.176
183.183	14.265	948.486	709.587
184.198	14.364	947.651	709.319
185.213	14.320	947.057	708.623
186.227	14.398	946.549	708.516
187.242	14.438	946.169	708.337
188.256	14.407	945.013	707.276
189.271	14.375	944.525	706.715
190.286	14.331	943.863	705.971
191.300	14.234	943.251	705.038
192.315	14.253	942.189	704.262
193.329	14.259	941.788	703.926
194.344	14.257	941.154	703.381
195.359	14.227	940.555	702.743
196.373	14.449	939.790	703.049
197.388	14.325	939.519	702.260
198.402	14.467	938.770	702.236
199.417	14.620	937.772	702.072
200.432	14.498	937.533	701.318
201.446	14.720	937.174	701.918
202.461	14.594	936.175	700.581
203.475	14.525	936.320	700.335
204.490	14.651	934.640	699.545
205.504	14.521	934.561	698.879
206.519	14.468	933.868	698.079
207.534	14.560	932.805	697.607
208.548	14.647	931.797	697.156
209.563	14.494	931.533	696.258
210.577	14.641	930.647	696.147
211.592	14.662	929.837	695.567
212.607	14.597	929.426	694.926
213.621	14.567	928.760	694.242
214.636	14.687	927.756	693.928
215.650	14.762	926.706	693.392
216.665	14.637	926.608	692.738
217.680	14.767	925.476	692.372
218.694	14.850	924.949	692.258
219.709	14.784	924.508	691.595
220.723	14.866	923.418	691.056
221.738	14.829	923.058	690.575
222.753	14.925	921.978	690.101
223.767	14.814	921.441	689.179
224.782	14.869	921.063	689.065
225.796	14.891	920.359	688.566
226.811	14.855	919.683	687.853
227.826	14.826	919.125	687.254
228.840	14.856	918.186	686.615
229.855	14.907	917.002	685.879
230.869	14.829	916.455	685.088
231.884	14.834	916.128	684.802
232.899	14.935	915.318	684.551
233.913	14.883	914.309	683.523
234.928	14.943	913.804	683.328
235.942	14.949	913.232	682.867
236.957	14.894	912.652	682.145
237.972	14.890	912.282	681.793
238.986	14.837	911.598	681.007
240.001	14.910	910.800	680.646
241.015	14.957	910.392	680.474
242.030	14.900	909.648	679.625
243.045	14.921	909.306	679.396
244.059	15.137	908.240	679.413
245.074	15.108	907.588	678.749
246.088	15.122	906.893	678.225
247.103	15.096	906.382	677.681
248.117	15.075	905.925	677.191
249.132	15.147	905.590	677.172
250.147	15.273	904.622	676.900
251.161	15.305	903.888	676.418
252.176	15.265	903.262	675.731
253.190	15.301	902.666	675.366
254.205	15.322	901.846	674.778
255.220	15.349	901.528	674.589
256.234	15.333	900.427	673.643
257.249	15.386	899.939	673.432
258.263	15.328	899.410	672.741
259.278	15.421	898.646	672.484
260.293	15.518	897.530	671.977
261.307	15.493	897.438	671.748
262.322	15.565	896.567	671.324
263.336	15.525	895.894	670.603
264.351	15.578	895.107	670.166
265.366	15.555	894.502	669.562
266.380	15.550	894.028	669.129
267.395	15.594	893.131	668.575
268.409	15.544	892.764	668.040
269.424	15.497	892.197	667.370
270.439	15.528	891.431	666.860
271.453	15.600	890.308	666.246
272.468	15.652	890.127	666.258
273.482	15.650	889.502	665.723
274.497	15.680	888.723	665.203
275.512	15.604	888.056	664.344
276.526	15.664	887.408	664.037
277.541	15.675	887.016	663.726
278.555	15.775	886.419	663.618
279.570	15.837	885.707	663.270
280.585	15.920	884.668	662.757
281.599	15.768	884.352	661.866
282.614	15.852	883.482	661.485
283.628	15.916	882.937	661.269
284.643	15.862	882.350	660.560
285.657	15.844	881.694	659.940
286.672	15.787	881.441	659.470
287.687	15.672	880.954	658.595
288.701	15.850	879.954	658.487
289.716	16.025	879.115	658.484
290.730	15.950	878.737	657.851
291.745	15.982	878.406	657.667
292.760	15.945	877.430	656.735
293.774	16.127	876.994	657.060
294.789	15.949	876.313	655.799
295.803	15.963	875.582	655.247
296.818	16.052	874.591	654.795
297.833	15.918	874.280	653.981
298.847	15.951	873.544	653.502
299.862	16.035	873.162	653.486
300.876	16.104	872.354	653.092
301.891	16.173	871.333	652.536
302.906	16.173	871.039	652.256
303.920	16.230	870.620	652.105
304.935	16.272	869.914	651.680
305.949	16.141	869.736	650.986
306.964	16.132	869.125	650.434
307.979	16.183	868.312	649.965
308.993	16.228	867.789	649.690
310.008	16.334	867.238	649.626
311.022	16.283	866.624	648.915
312.037	16.197	865.879	647.970
313.052	16.249	865.348	647.712
314.066	16.296	864.936	647.528
315.081	16.252	864.514	646.984
316.095	16.286	863.660	646.421
317.110	16.267	863.054	645.835
318.125	16.201	862.509	645.120
319.139	16.358	862.012	645.289
320.154	16.312	861.635	644.775
321.168	16.310	860.975	644.217
322.183	16.431	860.201	644.043
323.197	16.416	859.689	643.544
324.212	16.469	859.016	643.184
325.227	16.349	858.824	642.530
326.241	16.488	858.078	642.440
327.256	16.615	857.051	642.099
328.270	16.328	857.263	641.111
329.285	16.481	856.214	640.851
330.300	16.384	855.620	639.980
331.314	16.432	855.380	639.924
332.329	16.539	854.923	639.931
333.343	16.527	854.199	639.289
334.358	16.510	853.844	638.902
335.373	16.508	853.463	638.551
336.387	16.637	853.246	638.822
337.402	16.695	853.055	638.839
338.416	16.798	852.300	638.607
339.431	16.635	852.288	637.927
340.446	16.705	852.100	637.993
341.460	16.544	851.290	636.723
342.475	16.702	850.845	636.931
343.489	16.809	850.572	637.071
344.504	16.950	849.643	636.847
345.519	16.883	849.407	636.363
346.533	16.795	849.026	635.694
347.548	16.835	848.615	635.477
348.562	16.679	848.064	634.423
349.577	16.675	847.710	634.089
350.592	16.848	846.591	633.843
351.606	16.917	845.992	633.595
352.621	16.880	845.341	632.915
353.635	16.922	844.441	632.342
354.650	16.851	844.082	631.751
355.665	16.952	843.306	631.489
356.679	16.915	842.844	630.952
357.694	16.978	842.468	630.850
358.708	17.019	841.734	630.395
359.723	16.963	841.252	629.772
360.738	17.016	840.266	629.173
361.752	17.045	839.473	628.633
362.767	17.131	839.270	628.743
363.781	17.271	838.512	628.638
364.796	17.048	838.501	627.749
365.810	17.146	837.643	627.412
366.825	17.221	837.516	627.537
367.840	17.294	836.924	627.310
368.854	17.057	836.704	626.212
369.869	17.284	836.168	626.593
370.883	17.135	835.584	625.552
371.898	17.194	835.095	625.348
372.913	17.177	835.011	625.168
373.927	17.232	834.261	624.750
374.942	17.203	834.075	624.450
375.956	17.206	833.489	623.969
376.971	17.334	832.867	623.917
377.986	17.391	832.491	623.788
379.000	17.376	832.081	623.372
380.015	17.386	831.594	622.989
381.029	17.558	830.850	623.004
382.044	17.521	829.969	622.155
383.059	17.416	829.981	621.724
384.073	17.321	829.320	620.828
385.088	17.518	828.348	620.763
386.102	17.579	827.840	620.550
387.117	17.590	827.312	620.139
388.132	17.554	826.757	619.538
389.146	17.615	826.332	619.383
390.161	17.561	826.039	618.913
391.175	17.404	825.435	617.839
392.190	17.623	824.554	617.919
393.205	17.447	824.537	617.213
394.219	17.466	824.175	616.957
395.234	17.465	823.901	616.691
396.248	17.517	823.337	616.404
397.263	17.529	822.841	616.020
398.278	17.549	822.441	615.741
399.292	17.661	821.714	615.545
400.307	17.682	821.432	615.356
401.321	17.586	821.070	614.684
402.336	17.699	820.342	614.492
403.350	17.647	820.216	614.156
404.365	17.871	819.545	614.405
405.380	17.802	818.751	613.506
406.394	17.804	818.502	613.272
407.409	17.715	818.033	612.549
408.423	17.923	817.984	613.205
409.438	17.933	817.401	612.750
410.453	17.912	817.216	612.480
411.467	17.864	816.377	611.625
412.482	17.933	816.270	611.740
413.496	17.936	815.746	611.301
414.511	18.027	815.557	611.433
415.526	17.879	815.482	610.791
416.540	17.769	814.947	609.946
417.555	17.984	813.772	609.778
418.569	17.997	813.507	609.572
419.584	17.965	813.159	609.143
420.599	18.005	812.860	609.008
421.613	114.340	1298.145	1485.623
422.628	98.980	1368.812	1485.715
