DTS Sentinel unit serial number:	SN413079Multiplexer serial number:	ORYXHardware model number:	OX4-SRSoftware version number:	ORYX F/W v4.00 Oryx Data Collector v3.7.2.0data status	okinstallation	princeton_trtdifferential loss correction	single-endedforward channel	channel 1reverse channel	N/Adate	2019/09/18time	22:38:35forward acquisition time	60.00reverse acquisition time	0.00gamma	496.2192k internal	0.2341k external	0.2341temperature offset calibration	1.0012default loss term (dB/km)	0.3790temperature slope calibration	1.0000multiplexer offset coefficient	1.0000multiplexer slope coefficient	1.0000fibre end	0.00T internal ref (°C)	24.16T ext. ref 1 (°C)	0.78T ext. ref 2 (°C)	17.98length (m)	temperature (°C)	Stokes	anti-Stokes-747.200	721.949	-0.005	-0.013
-746.185	5.851	0.173	0.129
-745.171	17.901	-0.144	0.115
-744.156	-200.000	0.067	0.388
-743.142	-200.000	-0.013	-0.156
-742.127	-141.087	-0.428	-0.044
-741.112	-182.562	0.091	-0.002
-740.098	-24.689	-0.190	0.113
-739.083	-50.556	0.313	0.148
-738.069	440.508	-0.068	0.149
-737.054	-200.000	-0.009	-0.459
-736.039	-56.377	0.152	-0.068
-735.025	-200.000	0.040	0.247
-734.010	800.000	-0.061	-0.233
-732.996	-140.144	-0.320	0.034
-731.981	417.430	0.162	-0.347
-730.966	-75.233	0.268	-0.096
-729.952	423.993	-0.070	-0.151
-728.937	-128.136	-0.109	-0.016
-727.923	-200.000	0.005	-0.031
-726.908	-65.302	-0.171	-0.069
-725.894	-19.569	-0.360	-0.223
-724.879	-200.000	-0.006	-0.057
-723.864	168.555	-0.253	0.361
-722.850	-86.624	-0.339	-0.104
-721.835	107.222	-0.165	0.196
-720.821	-43.471	0.177	-0.089
-719.806	-15.757	0.339	0.217
-718.791	-83.027	0.079	-0.026
-717.777	800.000	-0.062	-0.180
-716.762	181.494	-0.243	-0.357
-715.748	55.021	-0.071	-0.069
-714.733	-25.108	-0.219	-0.130
-713.718	217.961	-0.042	0.066
-712.704	342.089	-0.077	0.150
-711.689	283.071	0.047	-0.084
-710.675	-192.372	-0.216	0.002
-709.660	-194.147	0.101	0.001
-708.645	800.000	0.037	0.160
-707.631	-126.879	0.214	-0.032
-706.616	-97.863	-0.102	-0.026
-705.602	213.756	0.151	-0.238
-704.587	-153.505	0.342	0.024
-703.572	6.476	-0.289	-0.215
-702.558	-110.447	0.052	-0.011
-701.543	104.449	-0.109	-0.128
-700.529	-59.237	0.163	0.070
-699.514	-151.042	-0.265	-0.020
-698.499	-78.893	-0.289	-0.098
-697.485	-124.461	0.405	-0.063
-696.470	363.530	-0.008	-0.017
-695.456	382.453	-0.162	0.333
-694.441	222.398	-0.065	-0.104
-693.426	-160.260	0.150	0.008
-692.412	578.944	0.071	-0.174
-691.397	51.947	-0.199	-0.189
-690.383	-102.852	0.167	-0.040
-689.368	-23.639	-0.248	-0.149
-688.354	-21.854	-0.142	-0.086
-687.339	27.568	0.216	-0.182
-686.324	199.577	-0.277	-0.425
-685.310	-139.411	0.248	-0.027
-684.295	-200.000	-0.014	0.143
-683.281	648.246	0.140	0.358
-682.266	800.000	0.127	-0.427
-681.251	7.928	0.093	-0.070
-680.237	800.000	0.016	-0.054
-679.222	512.076	-0.042	0.099
-678.208	-126.405	-0.145	-0.022
-677.193	19.735	0.138	-0.111
-676.178	103.375	-0.121	0.142
-675.164	19.222	-0.050	0.040
-674.149	-200.000	0.019	0.357
-673.135	-200.000	-0.018	0.300
-672.120	-200.000	0.046	0.216
-671.105	27.867	-0.115	-0.097
-670.091	13.017	0.230	-0.178
-669.076	800.000	-0.045	0.192
-668.062	289.590	-0.121	0.219
-667.047	-8.558	-0.183	0.123
-666.032	-200.000	0.054	0.295
-665.018	311.489	0.097	0.181
-664.003	-29.608	-0.128	0.073
-662.989	-200.000	0.087	0.485
-661.974	800.000	0.032	0.104
-660.959	-135.812	0.243	-0.029
-659.945	-200.000	0.017	0.090
-658.930	-200.000	-0.026	0.114
-657.916	125.017	-0.149	0.187
-656.901	-200.000	0.002	-0.432
-655.886	-81.557	0.178	-0.059
-654.872	-61.702	-0.126	-0.053
-653.857	511.624	0.036	-0.083
-652.843	-83.543	0.209	0.067
-651.828	105.471	-0.108	-0.127
-650.814	199.605	0.092	-0.141
-649.799	-2.803	-0.055	0.038
-648.784	-200.000	-0.004	-0.084
-647.770	137.733	-0.159	-0.208
-646.755	33.210	-0.064	0.055
-645.741	116.658	-0.117	0.144
-644.726	-200.000	0.001	-0.189
-643.711	-200.000	-0.033	-0.190
-642.697	800.000	0.019	0.062
-641.682	-27.710	-0.386	-0.224
-640.668	-107.429	0.362	0.079
-639.653	32.356	-0.046	0.040
-638.638	80.922	-0.259	-0.279
-637.624	-55.408	-0.624	-0.280
-636.609	231.430	-0.014	-0.022
-635.595	800.000	0.029	0.102
-634.580	800.000	-0.081	0.330
-633.565	79.297	0.145	-0.156
-632.551	85.670	-0.180	0.198
-631.536	800.000	-0.027	0.081
-630.522	-98.535	-0.061	0.016
-629.507	-27.202	-0.055	0.032
-628.492	9.050	0.066	-0.049
-627.478	-78.380	0.045	0.016
-626.463	-200.000	-0.041	-0.187
-625.449	108.312	0.138	-0.165
-624.434	57.420	-0.118	0.115
-623.419	-200.000	0.030	0.185
-622.405	225.552	-0.103	0.167
-621.390	-24.945	-0.185	0.109
-620.376	-1.041	0.062	0.044
-619.361	800.000	0.024	0.082
-618.346	750.029	0.089	-0.239
-617.332	-69.243	0.134	-0.052
-616.317	-184.701	-0.182	0.003
-615.303	80.689	-0.160	-0.172
-614.288	800.000	-0.046	-0.161
-613.273	-46.417	0.034	0.016
-612.259	107.151	-0.227	-0.269
-611.244	-31.427	0.112	-0.063
-610.230	326.101	0.079	-0.151
-609.215	-131.485	-0.450	-0.059
-608.201	34.111	-0.021	-0.019
-607.186	22.020	-0.121	-0.098
-606.171	76.287	0.168	0.178
-605.157	42.111	-0.264	0.239
-604.142	-25.055	0.221	-0.131
-603.128	644.323	0.017	-0.044
-602.113	-200.000	-0.007	0.196
-601.098	-200.000	0.017	-0.175
-600.084	-86.512	-0.152	0.046
-599.069	-84.903	-0.100	0.031
-598.055	-42.246	0.120	0.061
-597.040	-1.521	0.138	0.097
-596.025	387.487	0.080	0.166
-595.011	-22.031	-0.029	0.018
-593.996	100.425	0.101	0.116
-592.982	800.000	0.086	-0.259
-591.967	-156.367	0.094	0.006
-590.952	-13.570	-0.136	-0.088
-589.938	-94.298	0.063	0.017
-588.923	287.350	0.189	0.340
-587.909	-22.572	-0.050	-0.030
-586.894	380.229	0.067	-0.138
-585.879	-34.410	-0.232	0.127
-584.865	-61.715	0.293	-0.122
-583.850	-200.000	-0.041	0.577
-582.836	-56.355	0.217	-0.096
-581.821	30.796	-0.258	-0.220
-580.806	-200.000	0.038	-0.325
-579.792	139.714	-0.046	-0.060
-578.777	121.218	0.194	0.241
-577.763	727.565	0.139	-0.369
-576.748	44.475	0.236	-0.216
-575.733	-125.123	0.122	0.019
-574.719	-50.526	-0.045	0.021
-573.704	-97.194	0.164	-0.043
-572.690	-191.539	0.353	0.004
-571.675	612.119	-0.084	0.208
-570.661	-187.680	-0.388	-0.005
-569.646	-200.000	-0.034	0.235
-568.631	-200.000	-0.007	-0.250
-567.617	49.390	0.333	-0.312
-566.602	800.000	0.059	0.229
-565.588	-51.186	-0.144	-0.067
-564.573	-8.389	0.198	0.132
-563.558	-108.287	0.277	-0.060
-562.544	324.024	0.186	0.354
-561.529	-81.970	0.151	0.049
-560.515	-200.000	-0.020	0.267
-559.500	-200.000	0.011	0.169
-558.485	-157.049	0.112	0.007
-557.471	-185.955	0.558	-0.008
-556.456	-200.000	-0.013	0.229
-555.442	277.672	-0.105	0.187
-554.427	800.000	0.057	0.159
-553.412	239.889	-0.220	-0.364
-552.398	-106.907	0.099	-0.022
-551.383	-144.658	-0.174	0.016
-550.369	-157.134	-0.237	0.014
-549.354	72.045	-0.077	-0.079
-548.339	27.074	0.243	0.203
-547.325	800.000	-0.102	-0.303
-546.310	148.734	-0.148	-0.199
-545.296	-16.288	0.293	0.185
-544.281	-200.000	-0.074	0.408
-543.266	-133.601	0.146	0.018
-542.252	29.350	0.197	-0.166
-541.237	-20.549	-0.211	0.129
-540.223	-200.000	0.031	-0.214
-539.208	-200.000	0.036	-0.244
-538.193	259.227	0.047	-0.081
-537.179	-148.865	0.520	-0.042
-536.164	201.081	-0.131	-0.200
-535.150	-92.989	-0.252	0.070
-534.135	-31.549	-0.064	0.036
-533.121	-200.000	-0.045	0.241
-532.106	-44.964	0.025	0.012
-531.091	81.183	0.296	0.317
-530.077	0.315	-0.197	0.139
-529.062	357.973	0.122	0.242
-528.048	-37.665	0.153	0.081
-527.033	-200.000	0.002	0.019
-526.018	-106.380	-0.181	-0.040
-525.004	210.733	-0.040	0.063
-523.989	159.943	0.132	0.183
-522.975	-137.564	-0.056	0.006
-521.960	241.654	0.095	0.157
-520.945	99.662	-0.158	-0.182
-519.931	312.424	-0.204	-0.380
-518.916	-200.000	-0.067	-0.309
-517.902	271.364	-0.123	-0.216
-516.887	-200.000	-0.019	-0.445
-515.872	-57.223	-0.254	0.111
-514.858	-72.314	-0.218	-0.080
-513.843	-87.544	0.131	-0.039
-512.829	800.000	0.056	-0.183
-511.814	-124.632	-0.143	-0.022
-510.799	102.754	-0.272	0.316
-509.785	-122.498	0.127	0.021
-508.770	243.999	0.017	-0.029
-507.756	-176.489	-0.245	-0.006
-506.741	393.749	-0.064	0.132
-505.726	44.680	0.190	0.173
-504.712	-137.542	0.325	0.036
-503.697	-52.621	0.040	-0.018
-502.683	-200.000	-0.007	0.206
-501.668	-111.014	-0.324	0.066
-500.653	-125.123	0.365	0.056
-499.639	415.447	0.030	-0.063
-498.624	479.503	-0.117	-0.262
-497.610	-4.509	-0.235	0.161
-496.595	-200.000	0.042	0.377
-495.581	-200.000	0.020	0.121
-494.566	152.614	0.126	-0.171
-493.551	-84.241	-0.256	-0.080
-492.537	800.000	-0.065	-0.226
-491.522	-108.837	0.162	0.034
-490.508	-160.880	-0.070	0.004
-489.493	800.000	-0.117	-0.323
-488.478	-170.513	0.149	0.005
-487.464	-93.636	-0.147	0.040
-486.449	160.725	0.072	0.100
-485.435	397.064	-0.117	-0.243
-484.420	-83.492	-0.271	0.086
-483.405	-124.571	0.138	-0.021
-482.391	600.871	-0.113	-0.278
-481.376	-137.178	-0.204	0.023
-480.362	-126.717	0.290	-0.042
-479.347	4.168	-0.214	-0.155
-478.332	800.000	0.027	-0.094
-477.318	-76.691	-0.358	-0.124
-476.303	-200.000	0.024	-0.140
-475.289	-41.492	0.296	-0.151
-474.274	57.201	0.197	-0.190
-473.259	763.619	-0.042	0.113
-472.245	23.792	-0.128	0.104
-471.230	452.024	-0.099	0.216
-470.216	105.643	0.111	0.130
-469.201	345.238	0.052	0.101
-468.186	-130.152	0.222	-0.030
-467.172	-200.000	-0.019	-0.087
-466.157	-200.000	-0.003	-0.214
-465.143	-50.295	-0.112	-0.052
-464.128	-142.414	-0.113	-0.011
-463.113	-58.659	-0.074	-0.032
-462.099	-52.916	0.159	-0.073
-461.084	-97.051	-0.076	-0.020
-460.070	-56.671	0.225	-0.099
-459.055	20.552	-0.232	-0.186
-458.040	-18.698	0.127	0.078
-457.026	-39.893	-0.333	0.172
-456.011	-97.298	0.155	0.040
-454.997	98.359	-0.222	0.253
-453.982	297.106	0.028	-0.050
-452.968	-64.658	0.108	0.043
-451.953	-75.830	0.226	0.079
-450.938	-82.600	-0.387	-0.124
-449.924	108.888	-0.089	-0.105
-448.909	198.575	0.154	0.234
-447.895	615.613	-0.051	0.127
-446.880	-121.604	-0.258	0.042
-445.865	-30.109	-0.161	-0.091
-444.851	53.502	-0.061	-0.058
-443.836	411.133	-0.076	-0.159
-442.822	219.826	-0.126	-0.200
-441.807	800.000	-0.026	0.074
-440.792	-200.000	0.060	-0.364
-439.778	107.600	0.056	0.067
-438.763	-100.045	-0.152	0.037
-437.749	66.531	-0.117	0.118
-436.734	800.000	0.089	-0.314
-435.719	-68.522	0.475	0.182
-434.705	-150.321	0.244	-0.019
-433.690	-2.180	0.268	-0.186
-432.676	203.879	0.091	0.139
-431.661	598.142	-0.148	-0.364
-430.646	-127.452	0.281	0.040
-429.632	130.266	-0.113	0.144
-428.617	168.618	0.130	-0.183
-427.603	-200.000	0.010	0.161
-426.588	187.328	-0.140	-0.206
-425.573	-94.067	-0.266	-0.072
-424.559	-68.792	-0.275	0.105
-423.544	-161.110	-0.348	-0.018
-422.530	-36.408	-0.374	0.199
-421.515	800.000	-0.013	0.038
-420.500	-48.640	0.153	-0.073
-419.486	55.796	-0.101	0.097
-418.471	-110.816	-0.368	-0.075
-417.457	-38.704	-0.119	-0.062
-416.442	-55.931	0.179	-0.079
-415.428	-136.492	-0.367	0.042
-414.413	-71.575	0.209	-0.077
-413.398	-200.000	0.033	0.143
-412.384	-200.000	0.052	0.476
-411.369	800.000	0.162	0.468
-410.355	-64.720	-0.033	0.013
-409.340	-63.626	-0.079	0.032
-408.325	541.757	0.061	0.143
-407.311	154.205	0.024	0.032
-406.296	800.000	-0.066	-0.272
-405.282	23.297	-0.433	0.351
-404.267	75.037	-0.155	0.162
-403.252	463.984	-0.030	-0.067
-402.238	800.000	0.102	0.315
-401.223	-17.276	-0.079	-0.049
-400.209	9.032	-0.172	0.128
-399.194	-105.823	-0.228	-0.051
-398.179	23.267	0.125	0.102
-397.165	800.000	0.102	0.368
-396.150	-200.000	-0.038	-0.169
-395.136	-200.000	0.028	-0.153
-394.121	106.147	-0.080	-0.094
-393.106	-108.841	-0.397	0.084
-392.092	263.605	-0.178	0.306
-391.077	-83.853	-0.223	0.070
-390.063	-116.931	-0.133	0.024
-389.048	270.868	-0.083	0.144
-388.033	67.870	0.277	0.280
-387.019	758.444	-0.107	0.286
-386.004	104.291	0.186	0.216
-384.990	378.899	0.107	0.217
-383.975	-55.782	0.086	0.038
-382.960	-122.605	0.267	0.043
-381.946	12.008	0.124	0.094
-380.931	395.095	-0.133	0.275
-379.917	-95.219	-0.193	0.051
-378.902	-200.000	-0.055	0.282
-377.888	112.018	0.073	0.088
-376.873	78.670	0.143	0.151
-375.858	-121.915	0.252	0.041
-374.844	145.617	-0.182	-0.241
-373.829	-200.000	-0.019	0.250
-372.815	-200.000	0.017	-0.098
-371.800	-200.000	-0.021	-0.119
-370.785	-200.000	0.013	0.144
-369.771	800.000	0.061	-0.197
-368.756	-47.442	-0.206	0.099
-367.742	-51.825	-0.065	0.030
-366.727	-65.982	-0.166	0.065
-365.712	-73.383	0.047	0.017
-364.698	-54.437	-0.094	-0.042
-363.683	-13.881	0.113	-0.072
-362.669	-26.780	-0.077	0.044
-361.654	-116.261	-0.051	-0.009
-360.639	-200.000	-0.050	-0.265
-359.625	-200.000	-0.046	-0.289
-358.610	-171.761	0.081	0.003
-357.596	800.000	0.068	0.222
-356.581	-200.000	-0.034	0.149
-355.566	-200.000	0.038	0.301
-354.552	550.325	-0.078	0.186
-353.537	-3.868	-0.166	-0.114
-352.523	-21.798	0.268	0.161
-351.508	355.667	-0.113	-0.222
-350.493	17.227	-0.101	-0.079
-349.479	-200.000	-0.010	-0.257
-348.464	-28.709	0.141	0.080
-347.450	-106.427	0.267	-0.059
-346.435	-54.980	0.093	0.041
-345.420	424.025	0.103	0.219
-344.406	-58.056	-0.164	-0.070
-343.391	-65.587	0.173	0.069
-342.377	-119.966	-0.365	-0.062
-341.362	78.330	-0.117	0.123
-340.348	587.423	-0.125	0.304
-339.333	-87.897	-0.116	-0.034
-338.318	641.970	0.094	0.236
-337.304	-170.135	0.256	-0.009
-336.289	90.517	0.087	-0.096
-335.275	-200.000	-0.059	-0.293
-334.260	120.950	-0.121	-0.149
-333.245	249.666	0.148	-0.248
-332.231	800.000	0.077	-0.211
-331.216	-100.268	0.328	0.080
-330.202	155.572	-0.068	0.092
-329.187	800.000	-0.024	-0.097
-328.172	-34.983	0.060	0.032
-327.158	-200.000	0.020	0.229
-326.143	800.000	0.055	-0.211
-325.129	590.777	0.117	0.284
-324.114	135.931	0.045	0.058
-323.099	-3.123	-0.292	-0.201
-322.085	87.598	0.170	-0.186
-321.070	478.300	-0.112	0.251
-320.056	-200.000	0.004	0.198
-319.041	345.529	0.113	0.219
-318.026	-46.429	0.053	0.025
-317.012	-8.316	-0.282	-0.187
-315.997	43.180	0.127	0.114
-314.983	-200.000	0.001	0.265
-313.968	-81.430	-0.170	0.055
-312.953	-200.000	-0.053	-0.313
-311.939	800.000	-0.093	0.269
-310.924	-200.000	-0.011	-0.206
-309.910	232.048	0.131	0.212
-308.895	800.000	-0.064	0.193
-307.880	481.170	0.068	-0.152
-306.866	48.070	0.080	0.073
-305.851	17.517	-0.246	-0.193
-304.837	102.366	0.174	0.201
-303.822	309.897	-0.036	-0.067
-302.807	-200.000	-0.013	0.198
-301.793	-69.721	0.399	0.150
-300.778	-200.000	0.023	0.576
-299.764	145.209	0.041	0.054
-298.749	136.110	-0.072	-0.092
-297.735	800.000	-0.090	0.364
-296.720	89.236	0.080	-0.087
-295.705	42.040	-0.148	-0.132
-294.691	-200.000	0.026	-0.231
-293.676	-200.000	-0.091	0.413
-292.662	142.194	-0.126	0.165
-291.647	5.685	-0.141	-0.102
-290.632	19.823	0.118	-0.094
-289.618	-35.628	0.258	-0.138
-288.603	-9.124	0.128	0.084
-287.589	-11.379	0.223	0.144
-286.574	2.758	0.109	0.078
-285.559	-59.350	-0.159	0.067
-284.545	199.244	0.159	0.240
-283.530	230.691	-0.102	-0.164
-282.516	-93.045	-0.110	0.030
-281.501	-110.067	-0.233	-0.048
-280.486	-200.000	-0.020	0.133
-279.472	-37.033	0.192	-0.101
-278.457	-200.000	0.004	-0.371
-277.443	357.867	0.143	-0.280
-276.428	478.914	0.177	-0.394
-275.413	-98.707	-0.011	-0.003
-274.399	-144.609	0.444	0.040
-273.384	447.922	-0.044	-0.096
-272.370	-134.887	-0.295	0.035
-271.355	800.000	-0.027	0.090
-270.340	263.493	0.089	-0.152
-269.326	-200.000	0.007	-0.060
-268.311	-200.000	0.007	-0.175
-267.297	800.000	-0.041	-0.176
-266.282	-128.901	-0.167	-0.023
-265.267	-200.000	0.032	-0.226
-264.253	800.000	0.038	-0.133
-263.238	130.073	-0.206	-0.259
-262.224	147.003	-0.226	0.299
-261.209	-160.084	0.478	-0.026
-260.195	70.670	0.175	0.178
-259.180	630.060	0.069	0.171
-258.165	800.000	0.023	0.073
-257.151	293.042	0.082	0.146
-256.136	800.000	0.111	0.424
-255.122	-81.168	0.220	0.072
-254.107	358.158	-0.037	-0.073
-253.092	-200.000	0.060	-0.285
-252.078	-109.031	-0.222	-0.046
-251.063	-200.000	-0.026	0.199
-250.049	31.783	0.093	-0.079
-249.034	800.000	0.040	-0.156
-248.019	-33.604	-0.160	0.087
-247.005	595.794	0.073	-0.178
-245.990	800.000	0.039	0.107
-244.976	-149.349	0.225	-0.018
-243.961	-200.000	0.030	-0.143
-242.946	800.000	-0.084	-0.283
-241.932	-136.031	0.264	0.031
-240.917	616.306	-0.114	-0.281
-239.903	87.937	0.070	-0.076
-238.888	215.680	0.129	0.202
-237.873	146.538	-0.084	0.110
-236.859	-29.928	0.198	-0.111
-235.844	30.333	0.233	0.195
-234.830	800.000	0.143	-0.420
-233.815	100.169	-0.165	-0.188
-232.800	-200.000	-0.000	0.150
-231.786	99.839	-0.069	-0.079
-230.771	-200.000	0.045	0.215
-229.757	37.355	-0.064	-0.055
-228.742	64.329	-0.121	-0.119
-227.727	-38.896	-0.148	0.077
-226.713	-89.400	0.251	0.072
-225.698	122.666	-0.178	-0.219
-224.684	94.644	-0.142	-0.158
-223.669	17.774	-0.328	-0.257
-222.655	-28.568	-0.127	-0.072
-221.640	-90.779	-0.103	-0.029
-220.625	-200.000	0.030	0.169
-219.611	583.552	0.046	-0.110
-218.596	-50.386	-0.304	0.141
-217.582	-37.128	0.214	0.112
-216.567	-97.943	-0.390	-0.099
-215.552	7.979	0.097	-0.072
-214.538	535.134	0.126	0.292
-213.523	-8.026	-0.148	-0.098
-212.509	-200.000	-0.006	-0.191
-211.494	-88.069	0.171	0.050
-210.479	-65.308	0.055	0.022
-209.465	800.000	-0.056	0.198
-208.450	-200.000	0.010	0.055
-207.436	-13.681	0.370	-0.235
-206.421	800.000	0.065	-0.227
-205.406	800.000	-0.043	-0.118
-204.392	-113.479	-0.024	-0.005
-203.377	-200.000	0.010	-0.066
-202.363	-172.361	-0.253	-0.008
-201.348	447.835	0.077	0.165
-200.333	-76.376	-0.237	-0.082
-199.319	52.673	0.189	-0.177
-198.304	488.644	0.095	-0.213
-197.290	488.767	0.093	0.209
-196.275	53.188	0.172	-0.161
-195.260	270.794	-0.126	0.218
-194.246	213.851	-0.107	-0.166
-193.231	31.621	-0.047	0.039
-192.217	800.000	-0.125	-0.365
-191.202	800.000	0.012	0.042
-190.187	108.634	0.195	-0.228
-189.173	-74.028	0.170	0.060
-188.158	54.021	-0.038	0.036
-187.144	-143.937	0.249	0.023
-186.129	-200.000	0.003	-0.181
-185.114	374.799	0.213	-0.425
-184.100	-14.303	-0.060	-0.038
-183.085	29.532	0.284	-0.237
-182.071	-37.809	-0.060	-0.031
-181.056	-78.539	0.237	0.080
-180.042	23.268	0.099	-0.080
-179.027	-40.964	0.182	-0.092
-178.012	123.624	-0.120	-0.148
-176.998	244.274	-0.083	0.137
-175.983	36.196	0.050	-0.043
-174.969	-21.489	-0.054	-0.033
-173.954	-79.875	0.160	-0.053
-172.939	800.000	0.042	-0.162
-171.925	-200.000	0.030	0.175
-170.910	800.000	0.051	-0.152
-169.896	577.790	0.127	0.305
-168.881	800.000	0.123	0.343
-167.866	629.042	-0.075	0.185
-166.852	-123.951	0.145	-0.022
-165.837	211.204	-0.138	0.213
-164.823	-68.252	0.206	0.078
-163.808	205.549	-0.067	0.103
-162.793	-63.450	0.301	-0.121
-161.779	19.554	-0.168	-0.132
-160.764	-142.553	0.360	0.035
-159.750	-106.433	0.170	-0.037
-158.735	-200.000	-0.047	-0.251
-157.720	-200.000	0.022	-0.201
-156.706	-60.248	0.042	-0.017
-155.691	-200.000	0.070	0.345
-154.677	22.125	-0.222	-0.178
-153.662	-110.238	0.025	0.005
-152.647	800.000	0.006	-0.024
-151.633	-200.000	0.009	-0.433
-150.618	158.854	-0.081	0.110
-149.604	-200.000	0.035	0.237
-148.589	348.483	-0.069	0.132
-147.574	-171.530	-0.248	-0.008
-146.560	-65.032	0.143	-0.056
-145.545	800.000	0.097	-0.408
-144.531	-67.312	-0.268	0.103
-143.516	214.742	0.016	0.025
-142.502	383.584	-0.027	-0.053
-141.487	239.079	-0.088	-0.144
-140.472	-85.743	-0.190	-0.058
-139.458	-200.000	-0.060	-0.261
-138.443	800.000	-0.057	-0.158
-137.429	-24.085	-0.126	-0.074
-136.414	-174.127	0.220	-0.006
-135.399	-200.000	0.044	0.240
-134.385	-100.078	0.276	0.067
-133.370	-200.000	-0.002	0.132
-132.356	83.367	-0.089	-0.095
-131.341	-101.372	-0.356	0.085
-130.326	-200.000	-0.002	0.270
-129.312	-65.724	-0.068	-0.027
-128.297	-200.000	-0.049	0.252
-127.283	149.744	0.082	0.109
-126.268	800.000	0.132	0.468
-125.253	95.590	-0.014	-0.016
-124.239	-200.000	-0.037	-0.386
-123.224	-136.470	-0.223	-0.025
-122.210	525.878	0.064	0.148
-121.195	226.844	-0.101	-0.160
-120.180	275.595	-0.161	-0.279
-119.166	144.795	0.112	0.147
-118.151	-144.283	0.132	-0.012
-117.137	-18.793	-0.023	-0.014
-116.122	-200.000	-0.031	-0.323
-115.107	800.000	0.080	-0.285
-114.093	-111.162	0.069	0.014
-113.078	185.551	0.124	-0.180
-112.064	435.292	-0.132	-0.282
-111.049	377.015	0.030	0.060
-110.034	-200.000	0.010	-0.087
-109.020	266.095	0.160	0.273
-108.005	93.067	0.090	0.100
-106.991	188.658	-0.214	0.313
-105.976	292.480	0.142	0.253
-104.962	-110.231	-0.379	-0.077
-103.947	82.024	-0.181	0.192
-102.932	134.898	-0.171	0.216
-101.918	-15.817	0.127	0.079
-100.903	-62.056	-0.138	0.056
-99.889	281.331	0.134	-0.235
-98.874	-123.020	0.448	0.070
-97.859	-36.595	-0.159	0.084
-96.845	-200.000	-0.012	-0.062
-95.830	-200.000	0.041	0.301
-94.816	800.000	0.007	0.022
-93.801	-42.087	0.214	-0.107
-92.786	-200.000	-0.029	-0.144
-91.772	17.165	0.168	0.130
-90.757	-107.481	0.077	0.016
-89.743	-35.671	0.239	-0.127
-88.728	-96.740	0.219	0.056
-87.713	509.016	0.119	-0.269
-86.699	800.000	-0.035	-0.120
-85.684	725.278	0.063	-0.165
-84.670	-172.916	0.247	-0.007
-83.655	254.184	-0.131	0.218
-82.640	-113.610	0.266	-0.051
-81.626	64.884	-0.337	-0.333
-80.611	123.544	0.128	0.157
-79.597	67.968	-0.257	0.256
-78.582	61.918	-0.294	0.286
-77.567	-200.000	-0.003	-0.224
-76.553	158.361	0.174	0.236
-75.538	620.765	0.134	0.330
-74.524	-13.728	0.304	0.192
-73.509	-117.366	-0.071	0.013
-72.494	58.111	-0.053	0.051
-71.480	44.673	0.083	0.075
-70.465	139.948	-0.104	-0.133
-69.451	-200.000	-0.017	0.100
-68.436	-38.257	0.014	-0.007
-67.422	-200.000	-0.037	-0.249
-66.407	-193.471	0.165	-0.001
-65.392	-52.144	0.249	0.113
-64.378	20.239	0.213	0.168
-63.363	315.355	-0.098	-0.180
-62.349	-97.420	-0.174	0.044
-61.334	57.842	-1.202	-1.147
-60.319	453.652	0.380	0.822
-59.305	-200.000	-0.196	-1.511
-58.290	264.852	0.871	1.480
-57.276	287.233	0.900	1.586
-56.261	-200.000	121.348	643.344
-55.246	437.151	1538.694	3270.118
-54.232	147.932	2690.374	3538.488
-53.217	99.357	2137.888	2411.209
-52.203	35.780	1580.639	1355.207
-51.188	27.484	1325.663	1087.278
-50.173	24.782	1288.069	1040.706
-49.159	51.426	1356.419	1256.440
-48.144	49.035	1368.617	1253.388
-47.130	27.476	1317.220	1080.134
-46.115	24.279	1297.851	1045.491
-45.100	24.189	1292.686	1040.763
-44.086	24.080	1290.422	1038.267
-43.071	24.035	1288.065	1036.062
-42.057	24.041	1286.038	1034.426
-41.042	24.052	1284.558	1033.258
-40.027	24.020	1283.237	1031.971
-39.013	24.077	1281.320	1030.719
-37.998	23.951	1279.441	1028.438
-36.984	24.118	1277.730	1027.986
-35.969	24.091	1276.277	1026.623
-34.954	24.164	1274.086	1025.237
-33.940	24.160	1273.225	1024.483
-32.925	24.211	1271.512	1023.353
-31.911	24.207	1270.520	1022.493
-30.896	24.298	1268.782	1021.577
-29.881	24.295	1267.492	1020.478
-28.867	24.318	1266.164	1019.502
-27.852	24.233	1264.952	1017.998
-26.838	24.339	1263.328	1017.258
-25.823	24.340	1262.154	1016.277
-24.809	24.282	1261.097	1015.053
-23.794	24.220	1259.958	1013.742
-22.779	24.209	1258.539	1012.500
-21.765	24.185	1257.280	1011.312
-20.750	24.255	1256.106	1010.724
-19.736	24.174	1254.849	1009.210
-18.721	24.126	1254.070	1008.272
-17.706	24.063	1252.949	1006.979
-16.692	24.090	1251.670	1006.060
-15.677	24.174	1250.349	1005.431
-14.663	24.072	1249.104	1003.819
-13.648	24.085	1248.109	1003.050
-12.633	24.013	1247.719	1002.295
-11.619	24.158	1246.562	1002.138
-10.604	24.219	1245.445	1001.545
-9.590	24.071	1244.656	1000.040
-8.575	24.105	1243.753	999.467
-7.560	24.086	1242.728	998.496
-6.546	24.072	1242.033	997.818
-5.531	24.072	1241.400	997.272
-4.517	24.072	1241.067	996.963
-3.502	24.142	1239.597	996.135
-2.487	24.100	1238.967	995.354
-1.473	24.068	1234.308	991.395
-0.458	22.459	1219.567	970.654
0.556	18.117	1203.981	934.819
1.571	14.521	1211.351	920.646
2.586	13.836	1226.113	927.951
3.600	13.827	1214.429	918.976
4.615	10.336	1143.159	846.748
5.629	3.913	1073.270	763.297
6.644	0.924	1055.700	736.215
7.659	0.710	1054.078	733.979
8.673	0.736	1052.913	733.230
9.688	0.760	1051.797	732.505
10.702	0.884	1049.311	731.307
11.717	4.709	1053.956	753.018
12.731	11.782	1062.885	793.749
13.746	16.196	1068.747	819.544
14.761	17.202	1069.740	825.120
15.775	16.529	1068.019	820.458
16.790	15.634	1065.887	814.410
17.804	14.936	1063.842	809.398
18.819	14.579	1063.352	807.230
19.834	14.257	1062.334	804.827
20.848	14.160	1061.397	803.576
21.863	13.861	1060.356	801.273
22.877	13.768	1059.605	800.186
23.892	13.652	1059.151	799.215
24.907	13.606	1058.518	798.444
25.921	13.739	1057.295	798.091
26.936	13.818	1056.678	797.938
27.950	13.709	1056.041	796.861
28.965	13.729	1054.898	796.023
29.980	13.796	1053.518	795.231
30.994	13.867	1052.392	794.652
32.009	13.868	1051.765	794.112
33.023	13.794	1050.574	792.790
34.038	13.855	1049.438	792.155
35.053	13.885	1048.526	791.539
36.067	13.734	1047.574	790.031
37.082	13.753	1047.179	789.755
38.096	13.950	1045.769	789.558
39.111	13.910	1045.128	788.813
40.126	13.753	1044.144	787.255
41.140	13.654	1043.107	785.937
42.155	13.818	1041.414	785.364
43.169	13.511	1041.175	783.662
44.184	13.573	1039.850	782.891
45.199	13.630	1039.510	782.833
46.213	13.658	1037.748	781.569
47.228	13.685	1036.784	780.900
48.242	13.791	1035.979	780.724
49.257	13.728	1034.951	779.588
50.271	13.883	1033.625	779.247
51.286	13.851	1032.748	778.366
52.301	13.768	1031.992	777.335
53.315	13.726	1031.082	776.385
54.330	13.782	1030.018	775.781
55.344	13.714	1029.374	774.909
56.359	13.777	1028.436	774.427
57.374	13.666	1027.659	773.255
58.388	13.721	1026.848	772.833
59.403	13.747	1025.673	771.999
60.417	13.636	1024.976	770.893
61.432	13.566	1024.332	770.014
62.447	13.588	1023.655	769.539
63.461	13.698	1022.623	769.206
64.476	13.587	1021.883	768.068
65.490	13.624	1021.220	767.672
66.505	13.700	1020.065	767.085
67.520	13.567	1019.731	766.152
68.534	13.787	1018.861	766.450
69.549	13.703	1018.372	765.624
70.563	13.576	1017.371	764.218
71.578	13.526	1016.800	763.491
72.593	13.446	1016.264	762.653
73.607	13.581	1015.528	762.655
74.622	13.598	1014.915	762.203
75.636	13.552	1014.238	761.419
76.651	13.683	1012.913	760.955
77.666	13.523	1013.063	760.267
78.680	13.440	1012.156	759.137
79.695	13.632	1011.455	759.425
80.709	13.662	1010.865	759.051
81.724	13.646	1010.097	758.336
82.739	13.711	1009.342	757.999
83.753	13.661	1009.213	757.605
84.768	13.833	1007.814	757.273
85.782	13.832	1006.772	756.417
86.797	13.767	1006.175	755.607
87.812	13.710	1005.152	754.512
88.826	13.769	1003.959	753.819
89.841	13.828	1003.084	753.364
90.855	13.756	1002.529	752.554
91.870	13.789	1001.729	752.036
92.884	13.884	1000.933	751.801
93.899	13.890	1000.148	751.174
94.914	13.949	998.887	750.424
95.928	13.900	998.191	749.615
96.943	13.823	997.618	748.771
97.957	13.855	996.642	748.116
98.972	13.817	996.174	747.529
99.987	13.914	994.855	746.910
101.001	13.844	993.761	745.709
102.016	13.791	993.148	744.943
103.030	13.843	992.662	744.746
104.045	13.902	991.703	744.225
105.060	13.712	991.200	742.929
106.074	13.838	989.664	742.277
107.089	13.734	988.902	741.173
108.103	13.617	988.232	740.087
109.118	13.770	987.258	739.972
110.133	13.732	986.360	739.063
111.147	13.686	985.717	738.312
112.162	13.874	984.391	738.089
113.176	13.761	983.972	737.209
114.191	13.787	983.093	736.601
115.206	13.797	982.402	736.060
116.220	13.760	981.482	735.144
117.235	13.975	980.179	735.054
118.249	13.886	979.762	734.281
119.264	13.836	978.903	733.352
120.279	13.678	978.294	732.134
121.293	13.862	977.062	731.956
122.308	13.829	976.704	731.481
123.322	13.889	975.354	730.670
124.337	13.601	974.596	728.770
125.352	13.769	973.241	728.427
126.366	13.876	971.956	727.874
127.381	13.776	971.174	726.785
128.395	13.753	970.624	726.207
129.410	13.952	969.089	725.865
130.424	13.760	968.922	724.837
131.439	13.859	967.589	724.205
132.454	13.935	967.086	724.099
133.468	13.948	966.269	723.481
134.483	13.850	965.300	722.262
135.497	13.909	964.484	721.846
136.512	13.805	963.525	720.609
137.527	13.815	962.684	719.964
138.541	13.849	962.092	719.602
139.556	13.944	961.009	719.143
140.570	13.961	960.605	718.850
141.585	13.982	959.607	718.129
142.600	13.987	958.933	717.583
143.614	13.905	958.149	716.579
144.629	14.058	957.193	716.460
145.643	14.142	956.117	715.954
146.658	13.868	955.317	714.113
147.673	13.934	954.150	713.460
148.687	13.923	953.545	712.898
149.702	13.958	952.666	712.329
150.716	13.990	951.809	711.759
151.731	14.049	951.092	711.415
152.746	13.926	950.607	710.463
153.760	14.163	949.540	710.613
154.775	14.084	949.261	710.006
155.789	14.042	948.467	709.169
156.804	14.182	947.945	709.313
157.819	14.084	947.301	708.349
158.833	14.142	946.494	707.931
159.848	14.103	945.798	707.184
160.862	14.120	944.691	706.364
161.877	14.019	944.176	705.490
162.892	14.047	942.934	704.617
163.906	14.063	941.978	703.907
164.921	14.107	941.529	703.696
165.935	14.113	940.726	703.060
166.950	14.208	939.211	702.263
167.964	14.200	938.881	701.921
168.979	14.181	937.877	701.029
169.994	14.258	936.721	700.427
171.008	14.219	936.112	699.745
172.023	14.303	935.437	699.534
173.037	14.120	935.319	698.613
174.052	14.343	933.823	698.371
175.067	14.294	933.376	697.769
176.081	14.142	933.414	697.099
177.096	14.238	932.312	696.613
178.110	14.318	931.690	696.422
179.125	14.266	931.177	695.762
180.140	14.260	930.966	695.516
181.154	14.328	930.533	695.416
182.169	14.314	930.316	695.133
183.183	14.298	929.505	694.400
184.198	14.476	928.013	693.964
185.213	14.249	927.922	692.892
186.227	14.352	927.478	692.927
187.242	14.465	926.511	692.613
188.256	14.497	925.949	692.262
189.271	14.447	924.899	691.211
190.286	14.346	924.435	690.382
191.300	14.303	923.952	689.783
192.315	14.359	923.034	689.269
193.329	14.325	922.772	688.869
194.344	14.264	922.164	688.104
195.359	14.391	921.449	688.033
196.373	14.357	920.700	687.275
197.388	14.490	920.117	687.326
198.402	14.576	919.532	687.181
199.417	14.717	918.829	687.177
200.432	14.680	918.020	686.357
201.446	14.578	918.075	685.920
202.461	14.755	917.147	685.892
203.475	14.721	916.636	685.311
204.490	14.706	916.168	684.838
205.504	14.673	914.982	683.754
206.519	14.662	914.310	683.147
207.534	14.607	913.892	682.552
208.548	14.636	913.260	682.135
209.563	14.770	912.510	682.065
210.577	14.709	911.770	681.201
211.592	14.683	911.543	680.865
212.607	14.800	910.738	680.681
213.621	14.739	910.024	679.839
214.636	14.733	909.401	679.290
215.650	14.805	908.760	679.041
216.665	14.876	907.809	678.561
217.680	14.884	907.071	677.979
218.694	14.780	906.749	677.257
219.709	14.910	905.871	677.068
220.723	14.941	905.179	676.616
221.738	14.941	904.585	676.111
222.753	14.932	903.640	675.310
223.767	14.992	902.985	675.002
224.782	14.897	902.990	674.564
225.796	14.969	902.214	674.214
226.811	14.919	901.945	673.753
227.826	15.010	900.665	673.103
228.840	15.069	899.857	672.677
229.855	15.036	899.391	672.135
230.869	14.989	898.694	671.367
231.884	14.929	898.225	670.717
232.899	15.071	897.159	670.431
233.913	14.996	896.521	669.595
234.928	15.033	895.963	669.267
235.942	15.055	895.437	668.901
236.957	15.047	895.013	668.494
237.972	14.973	894.392	667.675
238.986	15.091	893.696	667.566
240.001	15.095	892.806	666.858
241.015	15.127	892.234	666.500
242.030	15.221	891.571	666.318
243.045	15.204	890.830	665.640
244.059	15.246	890.495	665.497
245.074	15.259	889.945	665.080
246.088	15.109	889.433	664.041
247.103	15.213	888.643	663.808
248.117	15.234	887.999	663.349
249.132	15.372	887.494	663.460
250.147	15.480	886.685	663.223
251.161	15.361	885.799	662.032
252.176	15.387	885.511	661.860
253.190	15.332	885.089	661.271
254.205	15.496	884.027	661.062
255.220	15.536	883.709	660.923
256.234	15.610	882.622	660.343
257.249	15.556	882.433	659.934
258.263	15.454	881.525	658.793
259.278	15.461	880.740	658.177
260.293	15.580	879.926	657.977
261.307	15.619	879.407	657.682
262.322	15.616	879.217	657.468
263.336	15.650	878.319	656.874
264.351	15.695	877.545	656.414
265.366	15.693	876.907	655.871
266.380	15.713	876.215	655.373
267.395	15.673	875.725	654.792
268.409	15.821	874.952	654.733
269.424	15.744	874.093	653.731
270.439	15.751	873.527	653.276
271.453	15.754	872.695	652.611
272.468	15.772	872.052	652.138
273.482	15.837	871.462	651.894
274.497	15.839	871.182	651.634
275.512	15.868	870.294	651.023
276.526	15.775	870.227	650.556
277.541	15.823	869.715	650.300
278.555	16.011	868.969	650.410
279.570	15.853	868.428	649.341
280.585	15.979	867.525	649.095
281.599	16.093	866.600	648.784
282.614	15.902	866.189	647.684
283.628	16.067	865.327	647.615
284.643	16.103	864.802	647.301
285.657	16.072	864.138	646.631
286.672	16.017	863.969	646.233
287.687	15.968	862.925	645.210
288.701	16.097	862.353	645.217
289.716	16.073	861.822	644.670
290.730	15.974	861.510	644.004
291.745	16.136	860.912	644.116
292.760	16.047	860.510	643.418
293.774	16.299	859.265	643.391
294.789	16.144	859.180	642.682
295.803	16.163	857.961	641.784
296.818	16.159	857.611	641.451
297.833	16.248	856.954	641.242
298.847	16.303	856.068	640.732
299.862	16.235	855.913	640.301
300.876	16.139	855.317	639.432
301.891	16.129	854.893	639.023
302.906	16.337	853.952	639.048
303.920	16.190	853.874	638.379
304.935	16.273	853.046	638.015
305.949	16.446	852.088	637.896
306.964	16.379	852.045	637.556
307.979	16.360	851.222	636.810
308.993	16.375	850.927	636.591
310.008	16.402	850.067	635.993
311.022	16.359	849.521	635.367
312.037	16.491	848.728	635.214
313.052	16.514	847.924	634.641
314.066	16.307	847.554	633.533
315.081	16.366	847.080	633.342
316.095	16.422	846.459	633.030
317.110	16.321	846.270	632.455
318.125	16.469	845.421	632.320
319.139	16.305	845.594	631.781
320.154	16.358	844.845	631.363
321.168	16.376	844.364	631.015
322.183	16.613	843.157	630.940
323.197	16.494	842.831	630.196
324.212	16.448	842.478	629.704
325.227	16.504	841.793	629.345
326.241	16.566	841.155	629.043
327.256	16.447	840.955	628.395
328.270	16.459	840.136	627.774
329.285	16.553	838.922	627.158
330.300	16.540	838.721	626.904
331.314	16.515	838.342	626.473
332.329	16.534	837.837	626.110
333.343	16.663	837.598	626.353
334.358	16.756	837.007	626.202
335.373	16.558	836.993	625.405
336.387	16.528	836.705	625.021
337.402	16.600	836.309	624.935
338.416	16.777	835.543	624.960
339.431	16.811	835.361	624.897
340.446	16.995	834.794	625.095
341.460	16.793	834.647	624.185
342.475	16.984	834.144	624.456
343.489	16.902	833.618	623.707
344.504	16.994	833.073	623.582
345.519	17.006	832.909	623.449
346.533	17.129	831.998	623.160
347.548	16.919	831.369	621.865
348.562	16.929	831.235	621.748
349.577	16.818	830.572	620.789
350.592	16.938	830.070	620.797
351.606	16.927	829.556	620.318
352.621	16.956	828.940	619.910
353.635	16.952	828.030	619.161
354.650	17.009	827.567	618.965
355.665	16.947	826.978	618.244
356.679	16.961	826.123	617.603
357.694	17.028	825.608	617.407
358.708	17.096	825.288	617.358
359.723	16.926	824.856	616.363
360.738	17.083	823.954	616.205
361.752	17.108	823.026	615.548
362.767	17.191	822.650	615.512
363.781	17.129	822.706	615.275
364.796	17.131	821.645	614.434
365.810	17.274	821.220	614.578
366.825	17.322	820.790	614.375
367.840	17.241	820.735	613.988
368.854	17.370	819.847	613.736
369.869	17.335	819.407	613.227
370.883	17.273	819.307	612.873
371.898	17.380	818.785	612.813
372.913	17.603	818.071	613.028
373.927	17.420	817.527	611.906
374.942	17.383	817.283	611.537
375.956	17.385	817.161	611.399
376.971	17.541	816.512	611.422
377.986	17.421	816.182	610.690
379.000	17.535	815.784	610.746
380.015	17.540	815.404	610.426
381.029	17.641	814.476	610.037
382.044	17.483	814.239	609.239
383.059	17.581	813.305	608.838
384.073	17.630	812.739	608.537
385.088	17.566	812.296	607.922
386.102	17.647	811.792	607.781
387.117	17.667	811.008	607.212
388.132	17.574	810.605	606.523
389.146	17.637	809.947	606.200
390.161	17.628	809.547	605.817
391.175	17.717	809.097	605.741
392.190	17.713	808.436	605.180
393.205	17.721	807.898	604.753
394.219	17.583	807.793	604.130
395.234	17.687	807.522	604.243
396.248	17.715	807.108	603.977
397.263	17.549	806.737	603.059
398.278	17.636	806.381	603.050
399.292	17.663	805.786	602.645
400.307	17.641	805.445	602.257
401.321	17.687	804.811	601.894
402.336	17.707	804.351	601.566
403.350	17.709	804.363	601.532
404.365	17.648	803.594	600.688
405.380	17.803	802.728	600.533
406.394	17.876	802.420	600.507
407.409	17.870	801.853	600.005
408.423	18.048	801.492	600.311
409.438	17.911	801.792	599.999
410.453	17.858	801.133	599.266
411.467	18.030	800.227	599.139
412.482	18.012	800.032	598.876
413.496	18.138	799.423	598.810
414.511	18.207	799.477	599.040
415.526	18.249	798.049	598.061
416.540	18.025	798.409	597.495
417.555	18.050	798.053	597.266
418.569	18.004	797.571	596.690
419.584	18.161	797.076	596.813
420.599	18.081	796.642	596.159
421.613	116.215	1297.115	1491.217
422.628	100.234	1370.011	1491.274
