DTS Sentinel unit serial number:	SN413079Multiplexer serial number:	ORYXHardware model number:	OX4-SRSoftware version number:	ORYX F/W v4.00 Oryx Data Collector v3.7.2.0data status	okinstallation	princeton_trtdifferential loss correction	single-endedforward channel	channel 1reverse channel	N/Adate	2019/09/10time	21:12:11forward acquisition time	60.00reverse acquisition time	0.00gamma	496.2192k internal	0.2329k external	0.2329temperature offset calibration	0.9937default loss term (dB/km)	0.3790temperature slope calibration	1.0000multiplexer offset coefficient	1.0000multiplexer slope coefficient	1.0000fibre end	0.00T internal ref (°C)	31.42T ext. ref 1 (°C)	-0.31T ext. ref 2 (°C)	24.52length (m)	temperature (°C)	Stokes	anti-Stokes-747.200	712.426	0.025	0.068
-746.185	146.403	-0.037	-0.050
-745.171	-83.656	-0.082	0.026
-744.156	31.448	0.149	-0.129
-743.142	91.193	-0.141	-0.159
-742.127	800.000	0.128	0.356
-741.112	-6.187	0.441	0.304
-740.098	13.413	-0.283	-0.221
-739.083	-200.000	0.021	0.246
-738.069	-96.116	-0.245	0.066
-737.054	-144.642	0.280	-0.026
-736.039	-69.446	-0.244	-0.094
-735.025	-139.041	0.286	-0.031
-734.010	-72.554	0.113	-0.042
-732.996	-200.000	-0.001	0.325
-731.981	15.147	-0.346	-0.273
-730.966	-33.094	0.027	-0.015
-729.952	538.252	-0.069	-0.164
-728.937	-8.070	-0.257	-0.175
-727.923	270.494	0.130	-0.231
-726.908	-106.539	0.292	-0.066
-725.894	-140.535	0.174	0.018
-724.879	-200.000	0.007	0.090
-723.864	55.174	0.102	0.099
-722.850	170.643	-0.197	-0.284
-721.835	-55.017	0.252	-0.114
-720.821	83.139	0.296	-0.325
-719.806	173.761	-0.243	-0.353
-718.791	-15.015	-0.403	-0.260
-717.777	-3.043	-0.215	-0.151
-716.762	-132.478	0.088	0.011
-715.748	-200.000	0.043	0.327
-714.733	-111.671	-0.292	0.060
-713.718	-200.000	0.000	0.222
-712.704	88.842	-0.201	0.225
-711.689	800.000	-0.044	0.127
-710.675	-80.469	0.165	0.055
-709.660	-200.000	-0.006	-0.234
-708.645	45.962	-0.141	0.131
-707.631	120.636	-0.191	-0.238
-706.616	96.791	0.151	0.174
-705.602	-89.454	0.117	-0.035
-704.587	93.698	-0.214	-0.244
-703.572	-40.276	-0.101	-0.053
-702.558	800.000	0.120	0.388
-701.543	-57.949	0.240	-0.105
-700.529	-105.501	0.065	0.015
-699.514	-59.777	0.147	-0.063
-698.499	112.987	-0.017	-0.020
-697.485	-81.030	0.196	0.065
-696.470	-200.000	0.007	-0.262
-695.456	269.954	0.082	-0.144
-694.441	800.000	-0.072	-0.204
-693.426	31.197	0.138	0.119
-692.412	-144.820	-0.133	0.012
-691.397	122.518	0.040	0.050
-690.383	133.191	0.102	0.132
-689.368	411.851	0.056	-0.119
-688.354	-64.386	-0.310	0.127
-687.339	449.833	-0.107	0.236
-686.324	-200.000	-0.038	-0.286
-685.310	-200.000	0.031	-0.253
-684.295	-121.064	-0.227	0.038
-683.281	-44.390	0.281	0.141
-682.266	236.213	-0.074	-0.123
-681.251	-27.883	0.225	0.131
-680.237	-200.000	-0.006	-0.045
-679.222	56.173	-0.281	-0.274
-678.208	-129.259	0.097	0.014
-677.193	800.000	-0.032	-0.122
-676.178	-200.000	-0.029	-0.164
-675.164	-181.461	0.028	-0.001
-674.149	-200.000	0.012	0.174
-673.135	-126.095	-0.113	-0.017
-672.120	-200.000	-0.042	0.314
-671.105	-71.058	0.108	0.041
-670.091	800.000	0.042	-0.167
-669.076	-200.000	-0.038	-0.295
-668.062	-30.963	-0.141	0.080
-667.047	128.245	0.187	0.239
-666.032	-91.897	0.165	0.047
-665.018	-200.000	0.032	-0.236
-664.003	702.547	-0.041	-0.108
-662.989	230.969	0.192	-0.315
-661.974	-200.000	0.033	-0.215
-660.959	-98.006	0.384	0.099
-659.945	-51.694	-0.431	0.201
-658.930	97.372	-0.272	-0.314
-657.916	-61.777	0.048	-0.020
-656.901	49.069	0.121	0.114
-655.886	-119.085	-0.204	0.036
-654.872	-200.000	0.015	0.075
-653.857	-200.000	0.017	0.151
-652.843	186.256	-0.076	0.113
-651.828	161.171	-0.237	-0.333
-650.814	19.807	-0.072	0.059
-649.799	104.248	-0.096	-0.113
-648.784	-34.304	0.181	-0.100
-647.770	-120.569	-0.341	-0.058
-646.755	-97.176	-0.276	-0.072
-645.741	-96.188	-0.277	-0.074
-644.726	229.065	-0.269	-0.440
-643.711	-3.674	0.085	0.059
-642.697	-200.000	-0.014	-0.115
-641.682	407.971	-0.178	-0.379
-640.668	-32.746	0.281	-0.157
-639.653	-200.000	0.034	0.178
-638.638	205.842	-0.118	0.184
-637.624	-60.459	0.202	0.086
-636.609	-108.348	-0.242	0.052
-635.595	-60.326	0.279	-0.119
-634.580	0.966	0.203	-0.146
-633.565	-200.000	0.020	-0.106
-632.551	239.564	-0.086	0.143
-631.536	-200.000	-0.000	-0.175
-630.522	-200.000	-0.019	-0.240
-629.507	-163.320	-0.360	-0.017
-628.492	-20.338	0.402	-0.248
-627.478	-66.415	0.174	0.069
-626.463	-25.689	-0.253	-0.150
-625.449	475.524	-0.090	0.203
-624.434	-67.945	-0.157	0.062
-623.419	273.645	0.099	0.175
-622.405	-12.065	-0.063	-0.041
-621.390	-200.000	-0.022	0.371
-620.376	-67.975	0.196	-0.077
-619.361	-36.565	0.243	-0.131
-618.346	-200.000	-0.019	0.129
-617.332	125.743	0.177	-0.223
-616.317	-24.501	-0.047	0.028
-615.303	-105.410	0.026	-0.006
-614.288	203.360	0.210	0.325
-613.273	104.483	-0.189	0.223
-612.259	-156.359	-0.261	0.016
-611.244	-184.139	0.135	-0.002
-610.230	-95.239	-0.104	0.028
-609.215	-141.517	-0.145	-0.015
-608.201	800.000	-0.086	-0.242
-607.186	-200.000	-0.025	-0.110
-606.171	255.513	-0.010	0.018
-605.157	75.477	-0.242	-0.256
-604.142	9.112	-0.094	0.071
-603.128	-86.482	0.226	-0.069
-602.113	278.918	0.132	0.236
-601.098	25.087	-0.169	-0.141
-600.084	-166.320	0.069	-0.003
-599.069	149.003	0.081	-0.109
-598.055	800.000	0.041	0.165
-597.040	-200.000	0.041	-0.216
-596.025	376.662	0.054	0.111
-595.011	46.529	-0.058	0.054
-593.996	-87.474	-0.212	0.064
-592.982	265.354	-0.056	-0.098
-591.967	-130.336	-0.144	-0.020
-590.952	22.360	-0.160	-0.131
-589.938	-39.904	-0.285	0.149
-588.923	-108.375	0.219	0.047
-587.909	-58.208	-0.211	0.092
-586.894	416.296	0.090	-0.191
-585.879	104.946	0.112	0.132
-584.865	332.999	-0.071	0.138
-583.850	250.621	-0.061	0.103
-582.836	-21.264	0.377	0.231
-581.821	800.000	0.044	0.171
-580.806	-77.500	-0.179	0.062
-579.792	-38.464	-0.341	-0.181
-578.777	92.704	-0.082	-0.093
-577.763	-90.688	-0.242	-0.070
-576.748	188.912	0.156	-0.233
-575.733	-200.000	-0.010	-0.056
-574.719	-17.134	-0.259	-0.163
-573.704	-118.223	-0.259	0.046
-572.690	-14.762	0.165	-0.106
-571.675	5.073	0.099	0.073
-570.661	-68.986	0.182	-0.070
-569.646	-200.000	0.074	0.496
-568.631	-85.437	-0.149	0.046
-567.617	-64.034	-0.119	0.048
-566.602	131.990	-0.238	0.306
-565.588	127.095	-0.081	-0.102
-564.573	-100.708	0.010	0.002
-563.558	-89.235	0.092	-0.027
-562.544	-179.508	0.225	-0.005
-561.529	-36.945	0.097	-0.052
-560.515	-200.000	-0.035	0.261
-559.500	-58.626	0.296	0.128
-558.485	32.667	-0.293	-0.253
-557.471	-4.290	0.147	0.102
-556.456	-178.519	-0.198	0.005
-555.442	-142.436	-0.203	-0.020
-554.427	624.695	-0.057	-0.143
-553.412	-200.000	-0.004	0.173
-552.398	30.332	-0.148	-0.126
-551.383	60.601	0.113	-0.112
-550.369	270.587	-0.094	0.166
-549.354	85.727	-0.082	-0.090
-548.339	-159.397	0.465	0.026
-547.325	375.847	0.155	0.316
-546.310	305.880	-0.150	0.278
-545.296	-200.000	0.023	-0.190
-544.281	800.000	0.066	-0.221
-543.266	38.765	0.219	-0.196
-542.252	-36.810	0.192	-0.103
-541.237	280.869	0.108	0.194
-540.223	-200.000	-0.007	-0.135
-539.208	-200.000	-0.033	0.305
-538.193	-58.213	0.324	-0.141
-537.179	39.413	-0.191	0.171
-536.164	208.156	0.021	0.032
-535.150	-7.715	0.280	0.189
-534.135	168.551	0.015	0.021
-533.121	-43.751	-0.276	0.139
-532.106	26.177	-0.124	0.104
-531.091	277.050	0.061	0.109
-530.077	-136.493	0.324	-0.038
-529.062	-105.769	0.112	-0.025
-528.048	-21.150	0.305	0.186
-527.033	800.000	-0.047	-0.173
-526.018	800.000	-0.034	-0.128
-525.004	-30.924	-0.133	-0.075
-523.989	386.691	-0.144	-0.298
-522.975	38.620	0.005	0.005
-521.960	800.000	-0.038	0.114
-520.945	-115.200	-0.331	0.063
-519.931	-119.072	-0.279	0.049
-518.916	-117.801	-0.275	-0.049
-517.902	-200.000	0.006	0.460
-516.887	103.398	-0.112	-0.131
-515.872	-77.372	-0.113	0.039
-514.858	17.458	-0.180	-0.142
-513.843	228.843	-0.171	-0.278
-512.829	-10.685	-0.331	0.218
-511.814	-45.038	-0.134	0.067
-510.799	48.691	0.288	0.270
-509.785	-104.695	-0.136	-0.031
-508.770	-49.137	-0.178	-0.085
-507.756	121.923	0.219	-0.273
-506.741	271.135	0.130	-0.228
-505.726	306.432	0.268	-0.499
-504.712	53.005	-0.159	-0.151
-503.697	46.350	0.079	-0.073
-502.683	-200.000	0.021	0.144
-501.668	158.819	0.096	0.133
-500.653	-200.000	0.007	0.140
-499.639	15.592	0.218	0.171
-498.624	436.266	0.117	0.254
-497.610	-170.271	0.342	0.012
-496.595	-54.972	0.317	0.142
-495.581	-37.621	0.161	0.086
-494.566	800.000	-0.077	0.305
-493.551	-120.781	0.071	0.012
-492.537	81.639	-0.242	-0.261
-491.522	-152.255	-0.208	0.015
-490.508	-200.000	0.044	-0.333
-489.493	-34.919	0.182	0.099
-488.478	1.575	0.112	0.081
-487.464	25.571	0.153	0.127
-486.449	-164.289	0.072	0.003
-485.435	77.432	0.078	-0.083
-484.420	-200.000	-0.023	-0.123
-483.405	344.743	-0.011	-0.022
-482.391	-54.651	0.171	0.077
-481.376	194.716	0.066	0.099
-480.362	-82.682	0.373	-0.120
-479.347	235.314	-0.043	-0.071
-478.332	-200.000	0.012	0.207
-477.318	800.000	0.063	-0.244
-476.303	-4.818	-0.223	-0.153
-475.289	127.131	0.062	-0.078
-474.274	37.743	0.187	-0.165
-473.259	-170.960	0.136	-0.005
-472.245	-102.896	0.391	-0.093
-471.230	-148.037	-0.197	0.016
-470.216	-139.960	0.212	0.022
-469.201	7.853	-0.096	-0.072
-468.186	178.141	0.071	-0.103
-467.172	-200.000	0.011	0.272
-466.157	45.883	-0.247	0.228
-465.143	89.696	0.110	-0.122
-464.128	-51.268	-0.204	-0.095
-463.113	-156.164	0.083	-0.005
-462.099	-46.201	0.207	0.101
-461.084	8.360	0.108	0.081
-460.070	-133.399	-0.091	-0.011
-459.055	-116.509	0.221	0.041
-458.040	-200.000	0.031	-0.146
-457.026	-61.521	0.184	-0.077
-456.011	41.570	0.085	-0.077
-454.997	800.000	-0.059	-0.175
-453.982	800.000	0.101	0.305
-452.968	-200.000	0.042	-0.221
-451.953	94.881	-0.094	-0.106
-450.938	77.136	-0.120	0.127
-449.924	169.731	0.077	0.110
-448.909	800.000	0.086	0.240
-447.895	112.816	0.096	0.116
-446.880	36.940	0.140	0.123
-445.865	2.967	-0.205	-0.149
-444.851	-200.000	-0.036	0.311
-443.836	800.000	0.105	0.344
-442.822	78.142	-0.039	-0.042
-441.807	36.450	0.063	0.055
-440.792	-130.105	0.178	-0.024
-439.778	-176.651	-0.231	-0.006
-438.763	89.766	-0.153	-0.170
-437.749	-200.000	-0.031	0.211
-436.734	-200.000	0.007	-0.077
-435.719	107.006	-0.297	0.352
-434.705	-149.722	-0.349	-0.027
-433.690	-200.000	-0.013	0.305
-432.676	-200.000	-0.058	0.391
-431.661	-200.000	0.032	-0.302
-430.646	33.164	-0.060	-0.052
-429.632	5.001	-0.129	-0.095
-428.617	335.478	-0.011	-0.021
-427.603	562.624	0.014	-0.035
-426.588	104.771	0.108	-0.127
-425.573	-5.881	-0.123	-0.084
-424.559	339.417	-0.120	0.233
-423.544	800.000	0.044	0.165
-422.530	-132.043	0.114	-0.015
-421.515	-134.583	0.369	-0.045
-420.500	-34.867	0.031	-0.017
-419.486	114.896	0.112	-0.136
-418.471	-37.081	0.122	0.065
-417.457	-60.093	0.098	0.042
-416.442	365.184	-0.166	-0.333
-415.428	-200.000	0.011	-0.341
-414.413	-75.311	0.200	0.071
-413.398	-123.277	-0.067	0.011
-412.384	-93.832	-0.247	0.068
-411.369	-149.706	-0.314	-0.025
-410.355	-89.387	0.067	-0.019
-409.340	-117.344	-0.160	-0.029
-408.325	74.527	0.128	-0.134
-407.311	11.074	-0.029	-0.022
-406.296	800.000	-0.037	0.149
-405.282	-78.279	0.262	-0.089
-404.267	-200.000	-0.060	0.433
-403.252	521.564	0.064	-0.149
-402.238	469.550	-0.080	-0.178
-401.223	193.729	0.178	-0.268
-400.209	-200.000	0.032	0.217
-399.194	-200.000	-0.005	0.138
-398.179	11.738	0.038	-0.029
-397.165	-200.000	0.009	0.073
-396.150	-108.134	-0.132	0.028
-395.136	694.334	0.069	0.179
-394.121	151.665	-0.219	0.296
-393.106	61.656	-0.281	-0.278
-392.092	700.744	0.093	0.244
-391.077	685.612	0.049	0.128
-390.063	-89.296	-0.071	-0.021
-389.048	-40.639	0.062	0.032
-388.033	-36.147	-0.276	-0.148
-387.019	800.000	-0.074	0.228
-386.004	800.000	0.037	0.115
-384.990	-115.130	-0.288	-0.054
-383.975	-70.031	-0.168	-0.063
-382.960	353.744	0.128	-0.252
-381.946	126.539	-0.112	0.141
-380.931	-200.000	0.043	-0.231
-379.917	334.753	-0.043	-0.083
-378.902	-200.000	-0.064	-0.345
-377.888	800.000	0.067	-0.253
-376.873	14.790	0.381	-0.296
-375.858	-200.000	-0.041	0.277
-374.844	62.370	0.141	-0.140
-373.829	-74.382	-0.166	0.060
-372.815	-99.948	0.368	-0.091
-371.800	32.614	0.066	0.057
-370.785	-200.000	-0.002	0.148
-369.771	-17.185	0.260	-0.163
-368.756	800.000	0.074	-0.276
-367.742	94.166	0.062	-0.070
-366.727	130.300	-0.141	-0.179
-365.712	7.280	-0.189	0.140
-364.698	-25.681	0.125	0.073
-363.683	50.790	-0.172	0.162
-362.669	362.418	0.152	0.303
-361.654	387.673	-0.048	-0.098
-360.639	-72.377	-0.329	-0.121
-359.625	-41.401	-0.422	-0.216
-358.610	183.438	-0.267	-0.391
-357.596	114.413	0.243	-0.294
-356.581	722.778	0.159	-0.419
-355.566	-25.675	-0.171	0.100
-354.552	45.771	-0.060	-0.055
-353.537	11.777	-0.200	-0.152
-352.523	-153.824	-0.093	-0.006
-351.508	64.268	0.109	-0.109
-350.493	-96.522	-0.153	0.040
-349.479	-200.000	0.002	-0.077
-348.464	258.257	0.064	0.110
-347.450	-117.818	0.175	-0.031
-346.435	-200.000	0.041	-0.287
-345.420	-106.730	0.222	-0.049
-344.406	-148.115	0.312	0.026
-343.391	800.000	-0.141	0.392
-342.377	91.953	-0.094	-0.105
-341.362	-0.254	-0.125	0.088
-340.348	90.082	-0.109	0.121
-339.333	109.432	-0.228	-0.271
-338.318	210.937	0.170	0.265
-337.304	108.638	-0.140	0.165
-336.289	228.227	-0.228	0.368
-335.275	-200.000	0.013	0.161
-334.260	77.907	-0.128	-0.135
-333.245	204.345	-0.052	-0.079
-332.231	6.633	0.134	0.098
-331.216	227.747	-0.256	-0.413
-330.202	-78.209	0.116	0.040
-329.187	-127.321	-0.284	0.041
-328.172	-26.007	0.162	0.094
-327.158	265.593	-0.077	0.133
-326.143	-186.457	-0.140	0.002
-325.129	-111.312	0.309	0.062
-324.114	-79.679	-0.087	0.029
-323.099	-134.862	-0.157	-0.019
-322.085	14.074	-0.196	0.151
-321.070	0.504	0.232	-0.165
-320.056	-98.048	-0.215	-0.055
-319.041	-21.995	-0.314	0.189
-318.026	-135.395	-0.133	-0.016
-317.012	185.128	0.060	-0.088
-315.997	458.753	-0.136	0.301
-314.983	-104.191	-0.270	0.062
-313.968	56.835	-0.186	-0.179
-312.953	-100.996	-0.309	0.075
-311.939	263.661	0.093	-0.159
-310.924	-0.632	0.060	0.042
-309.910	-32.035	0.212	0.118
-308.895	108.897	-0.158	-0.187
-307.880	-200.000	0.061	0.294
-306.866	129.751	-0.142	-0.180
-305.851	238.052	-0.063	0.103
-304.837	800.000	0.083	0.290
-303.822	4.539	0.380	0.276
-302.807	-108.066	-0.300	-0.064
-301.793	-28.838	0.111	-0.063
-300.778	-77.822	-0.224	-0.077
-299.764	800.000	0.057	-0.245
-298.749	541.700	-0.104	-0.245
-297.735	-200.000	0.046	0.238
-296.720	113.077	-0.097	0.116
-295.705	255.089	-0.117	0.198
-294.691	503.663	-0.077	-0.176
-293.676	-64.792	0.256	0.103
-292.662	800.000	0.028	0.095
-291.647	-147.673	-0.244	0.020
-290.632	-81.835	0.036	-0.012
-289.618	15.762	0.181	-0.141
-288.603	800.000	0.068	-0.224
-287.589	121.288	0.164	-0.202
-286.574	-66.078	0.015	-0.006
-285.559	416.205	-0.196	0.414
-284.545	703.929	0.061	0.158
-283.530	-172.589	-0.321	0.010
-282.516	53.817	-0.160	0.152
-281.501	-127.538	-0.021	-0.003
-280.486	-200.000	0.035	0.595
-279.472	-200.000	-0.048	-0.227
-278.457	41.766	0.096	-0.086
-277.443	-117.825	-0.227	-0.040
-276.428	800.000	0.046	0.178
-275.413	158.545	0.105	-0.145
-274.399	179.483	-0.111	0.161
-273.384	13.057	-0.322	0.247
-272.370	61.558	0.113	0.111
-271.355	-31.886	-0.109	-0.061
-270.340	-7.031	0.109	-0.073
-269.326	-29.120	0.306	-0.174
-268.311	43.413	-0.178	0.161
-267.297	-200.000	0.003	-0.077
-266.282	241.277	0.043	0.071
-265.267	425.072	0.092	-0.197
-264.253	-200.000	-0.032	-0.171
-263.238	-7.730	-0.146	0.097
-262.224	108.184	0.182	0.214
-261.209	-87.759	0.119	0.035
-260.195	-77.660	-0.475	-0.162
-259.180	800.000	0.017	0.054
-258.165	-59.665	0.280	0.118
-257.151	246.786	-0.149	-0.248
-256.136	-39.693	0.183	0.095
-255.122	-115.063	0.028	-0.005
-254.107	340.464	-0.182	0.350
-253.092	84.159	-0.050	-0.054
-252.078	51.646	-0.093	0.087
-251.063	-200.000	-0.004	0.105
-250.049	800.000	-0.074	-0.226
-249.034	-73.023	0.194	0.070
-248.019	37.673	-0.342	-0.300
-247.005	-200.000	0.079	0.347
-245.990	70.740	0.132	-0.135
-244.976	3.568	0.165	0.119
-243.961	-92.401	-0.238	-0.066
-242.946	-142.969	0.541	0.052
-241.932	42.075	-0.254	0.227
-240.917	53.013	0.272	0.257
-239.903	-108.348	0.277	0.059
-238.888	386.842	0.188	-0.383
-237.873	-121.253	0.177	0.029
-236.859	49.814	-0.194	0.181
-235.844	-200.000	0.015	-0.094
-234.830	177.829	0.136	0.195
-233.815	217.125	0.211	0.332
-232.800	464.450	0.020	0.045
-231.786	110.853	0.155	-0.184
-230.771	-35.730	-0.237	-0.127
-229.757	-94.127	-0.094	-0.025
-228.742	-200.000	-0.061	-0.443
-227.727	3.250	0.188	-0.135
-226.713	-125.994	0.155	-0.023
-225.698	-73.921	0.153	0.055
-224.684	-71.961	-0.156	-0.057
-223.669	153.881	0.169	0.229
-222.655	75.773	0.113	-0.118
-221.640	-101.467	0.302	-0.072
-220.625	491.280	0.066	-0.150
-219.611	-84.759	-0.044	-0.014
-218.596	800.000	-0.119	0.329
-217.582	-93.930	0.380	0.103
-216.567	800.000	-0.017	-0.049
-215.552	48.795	-0.062	0.057
-214.538	800.000	-0.028	-0.104
-213.523	-200.000	0.036	-0.204
-212.509	123.592	-0.136	0.168
-211.494	-155.873	-0.232	-0.015
-210.479	450.317	-0.115	0.250
-209.465	174.195	0.021	-0.030
-208.450	490.635	0.133	0.299
-207.436	-127.722	0.135	0.019
-206.421	-102.260	0.321	-0.076
-205.406	362.061	-0.112	-0.221
-204.392	83.775	0.171	0.184
-203.377	-60.411	0.097	-0.041
-202.363	-91.795	-0.154	-0.043
-201.348	-29.351	-0.425	-0.240
-200.333	800.000	0.028	0.098
-199.319	100.239	0.160	-0.183
-198.304	-94.830	0.186	0.050
-197.290	81.074	-0.178	0.190
-196.275	-64.986	-0.390	0.156
-195.260	-91.106	0.442	-0.125
-194.246	-66.447	-0.271	0.106
-193.231	33.725	0.370	-0.317
-192.217	173.900	-0.083	0.119
-191.202	470.082	-0.099	0.219
-190.187	220.079	-0.085	-0.134
-189.173	7.123	0.205	-0.151
-188.158	88.580	0.160	-0.175
-187.144	-200.000	0.028	0.190
-186.129	-110.195	0.120	-0.025
-185.114	-200.000	0.030	0.582
-184.100	-200.000	-0.018	-0.271
-183.085	10.366	-0.154	0.115
-182.071	-200.000	0.028	0.136
-181.056	217.079	-0.071	-0.112
-180.042	185.734	-0.077	-0.113
-179.027	-77.216	-0.225	-0.077
-178.012	-43.130	0.369	0.184
-176.998	-27.511	0.178	0.102
-175.983	69.694	-0.201	0.205
-174.969	90.564	-0.195	0.215
-173.954	-14.547	0.198	-0.126
-172.939	561.142	0.116	-0.275
-171.925	288.206	-0.030	0.054
-170.910	7.561	-0.096	-0.071
-169.896	31.766	-0.105	-0.089
-168.881	-126.894	0.107	-0.015
-167.866	-200.000	-0.088	-0.445
-166.852	16.641	-0.167	0.130
-165.837	29.570	0.127	-0.107
-164.823	-200.000	-0.014	0.131
-163.808	-200.000	-0.012	-0.124
-162.793	387.442	0.077	0.157
-161.779	-200.000	-0.008	-0.279
-160.764	-134.274	0.353	-0.043
-159.750	-28.383	-0.125	0.071
-158.735	101.820	0.204	-0.234
-157.720	-28.855	0.270	-0.153
-156.706	-22.711	0.361	0.215
-155.691	-200.000	-0.046	-0.212
-154.677	160.423	0.141	-0.193
-153.662	-200.000	0.044	-0.232
-152.647	-3.443	0.111	-0.076
-151.633	29.474	0.245	-0.205
-150.618	-200.000	-0.001	0.061
-149.604	429.031	0.098	-0.208
-148.589	-10.250	-0.166	0.108
-147.574	-200.000	-0.014	-0.188
-146.560	-200.000	-0.010	0.111
-145.545	-122.039	-0.209	0.034
-144.531	21.374	0.174	0.139
-143.516	-193.411	0.388	0.003
-142.502	-34.276	-0.318	0.172
-141.487	-200.000	-0.043	-0.235
-140.472	-200.000	-0.034	0.200
-139.458	131.086	0.213	-0.269
-138.443	-106.986	-0.123	0.027
-137.429	-63.838	0.118	-0.047
-136.414	800.000	0.019	-0.059
-135.399	177.508	0.151	-0.217
-134.385	-77.258	-0.178	0.061
-133.370	17.576	-0.051	-0.040
-132.356	-200.000	0.005	-0.190
-131.341	800.000	0.037	0.148
-130.326	89.715	-0.138	-0.151
-129.312	286.500	0.221	0.392
-128.297	-151.404	0.187	-0.014
-127.283	-173.547	-0.429	0.013
-126.268	-134.647	0.235	0.028
-125.253	64.796	0.255	0.253
-124.239	40.265	-0.223	0.197
-123.224	-88.582	0.283	-0.083
-122.210	-50.576	0.279	0.129
-121.195	-200.000	0.033	-0.211
-120.180	240.670	0.051	0.083
-119.166	226.535	0.018	0.028
-118.151	321.637	-0.058	-0.109
-117.137	272.798	0.072	-0.125
-116.122	-51.668	-0.164	-0.075
-115.107	82.339	-0.160	0.171
-114.093	-200.000	-0.025	0.125
-113.078	135.703	0.199	0.255
-112.064	23.120	-0.197	-0.159
-111.049	740.605	0.155	-0.408
-110.034	-200.000	0.060	0.302
-109.020	-200.000	0.017	-0.088
-108.005	-159.273	-0.274	0.015
-106.991	-200.000	0.014	0.343
-105.976	-36.073	0.226	0.120
-104.962	-119.152	-0.504	-0.087
-103.947	38.147	-0.162	-0.142
-102.932	800.000	0.029	-0.093
-101.918	-5.259	0.153	0.103
-100.903	-200.000	-0.007	-0.139
-99.889	132.174	0.067	0.085
-98.874	275.666	-0.094	-0.164
-97.859	-45.065	-0.164	-0.080
-96.845	-92.622	0.297	-0.082
-95.830	-200.000	-0.043	-0.186
-94.816	427.894	-0.065	-0.139
-93.801	-83.545	-0.214	-0.067
-92.786	-116.090	0.130	0.024
-91.772	180.217	0.109	0.156
-90.757	727.746	0.025	0.065
-89.743	-82.021	0.144	-0.046
-88.728	-67.924	0.336	0.129
-87.713	-200.000	0.027	-0.272
-86.699	123.178	0.080	0.099
-85.684	-200.000	0.009	-0.041
-84.670	596.361	0.158	0.385
-83.655	-107.569	0.317	-0.068
-82.640	-200.000	-0.031	-0.179
-81.626	55.066	-0.213	-0.202
-80.611	-106.557	-0.125	0.027
-79.597	618.249	0.086	0.212
-78.582	-200.000	-0.017	-0.160
-77.567	-54.318	0.071	0.032
-76.553	-200.000	0.031	-0.342
-75.538	800.000	-0.072	-0.273
-74.524	800.000	0.081	-0.276
-73.509	9.658	0.077	0.057
-72.494	-200.000	0.028	0.193
-71.480	-200.000	0.067	-0.306
-70.465	578.515	-0.137	0.328
-69.451	-57.372	0.210	-0.090
-68.436	-161.697	-0.307	-0.015
-67.422	-200.000	0.006	0.071
-66.407	361.480	-0.120	-0.235
-65.392	-171.637	-0.221	-0.007
-64.378	-118.562	-0.260	-0.045
-63.363	-3.880	-0.061	0.041
-62.349	33.485	0.558	0.475
-61.334	62.441	-1.048	-1.027
-60.319	-57.769	0.482	0.207
-59.305	-200.000	-0.107	-1.145
-58.290	201.016	0.643	0.970
-57.276	464.296	0.624	1.368
-56.261	-200.000	98.104	606.075
-55.246	595.930	1402.241	3403.044
-54.232	192.528	2597.043	3843.249
-53.217	117.716	2143.760	2587.035
-52.203	43.516	1597.641	1431.849
-51.188	34.942	1335.394	1145.698
-50.173	31.854	1293.823	1092.036
-49.159	54.292	1342.987	1267.168
-48.144	56.478	1359.054	1295.228
-47.130	35.171	1316.844	1130.960
-46.115	31.607	1299.345	1095.080
-45.100	31.402	1294.961	1090.147
-44.086	31.348	1292.242	1087.499
-43.071	31.256	1290.150	1085.159
-42.057	31.261	1288.383	1083.663
-41.042	31.283	1286.527	1082.183
-40.027	31.316	1285.184	1081.204
-39.013	31.363	1282.965	1079.561
-37.998	31.321	1281.485	1078.031
-36.984	31.354	1279.327	1076.367
-35.969	31.379	1277.258	1074.729
-34.954	31.493	1275.867	1074.168
-33.940	31.407	1275.005	1072.905
-32.925	31.447	1273.316	1071.668
-31.911	31.504	1272.016	1070.861
-30.896	31.617	1270.391	1070.095
-29.881	31.533	1269.116	1068.501
-28.867	31.627	1267.979	1068.038
-27.852	31.526	1266.452	1066.134
-26.838	31.504	1265.189	1064.904
-25.823	31.591	1263.772	1064.160
-24.809	31.509	1261.882	1062.060
-23.794	31.451	1261.486	1061.357
-22.779	31.576	1259.379	1060.249
-21.765	31.577	1258.327	1059.329
-20.750	31.514	1256.940	1057.764
-19.736	31.327	1255.802	1055.708
-18.721	31.294	1254.796	1054.633
-17.706	31.386	1253.611	1054.115
-16.692	31.322	1252.564	1052.831
-15.677	31.320	1251.548	1051.922
-14.663	31.223	1250.208	1050.213
-13.648	31.352	1248.564	1049.513
-12.633	31.448	1247.801	1049.369
-11.619	31.387	1247.437	1048.676
-10.604	31.393	1246.724	1048.070
-9.590	31.382	1245.458	1046.904
-8.575	31.348	1244.206	1045.619
-7.560	31.375	1243.344	1045.005
-6.546	31.340	1242.463	1044.026
-5.531	31.380	1241.542	1043.435
-4.517	31.441	1240.688	1043.016
-3.502	31.433	1239.710	1042.107
-2.487	31.328	1239.374	1041.199
-1.473	31.350	1234.698	1037.351
-0.458	29.730	1219.942	1016.019
0.556	23.787	1201.784	976.231
1.571	20.027	1206.940	959.543
2.586	19.201	1221.023	966.024
3.600	18.886	1210.949	956.214
4.615	13.664	1139.492	872.303
5.629	4.447	1063.704	768.761
6.644	-0.080	1043.885	732.343
7.659	-0.278	1041.188	729.421
8.673	-0.408	1040.069	727.941
9.688	-0.473	1038.763	726.651
10.702	-0.038	1036.842	727.345
11.717	5.783	1045.434	761.646
12.731	14.672	1057.902	814.188
13.746	18.756	1062.717	837.787
14.761	19.022	1062.896	839.154
15.775	18.928	1061.957	837.879
16.790	18.685	1061.358	836.151
17.804	18.596	1060.681	835.107
18.819	18.712	1060.365	835.350
19.834	18.762	1059.880	835.136
20.848	18.760	1059.299	834.595
21.863	18.900	1058.713	834.741
22.877	18.592	1058.332	832.871
23.892	18.698	1057.423	832.596
24.907	18.779	1056.404	832.111
25.921	18.701	1055.765	831.158
26.936	18.817	1053.996	830.254
27.950	18.748	1052.506	828.672
28.965	18.542	1050.712	826.195
29.980	18.629	1048.711	824.964
30.994	18.876	1047.581	825.192
32.009	18.852	1046.694	824.304
33.023	18.596	1045.517	822.075
34.038	18.658	1044.965	821.866
35.053	18.830	1044.202	822.018
36.067	18.965	1042.785	821.473
37.082	18.899	1042.176	820.605
38.096	19.111	1041.479	820.994
39.111	19.129	1040.920	820.570
40.126	18.901	1039.493	818.288
41.140	18.624	1037.828	815.587
42.155	18.526	1035.976	813.597
43.169	18.515	1035.544	813.133
44.184	18.588	1034.328	812.451
45.199	18.505	1033.452	811.296
46.213	18.549	1032.192	810.445
47.228	18.561	1031.456	809.851
48.242	18.582	1030.504	809.134
49.257	18.729	1029.484	808.949
50.271	18.851	1028.205	808.448
51.286	18.744	1027.576	807.380
52.301	18.821	1026.144	806.546
53.315	18.865	1025.433	806.119
54.330	18.851	1024.559	805.299
55.344	18.893	1023.698	804.748
56.359	18.868	1022.497	803.614
57.374	18.677	1021.838	802.132
58.388	18.691	1020.869	801.363
59.403	18.549	1020.186	800.097
60.417	18.581	1018.988	799.233
61.432	18.623	1018.232	798.766
62.447	18.723	1017.836	798.853
63.461	18.737	1016.960	798.156
64.476	18.701	1015.612	796.864
65.490	18.574	1014.889	795.637
66.505	18.678	1014.263	795.555
67.520	18.743	1013.188	794.945
68.534	18.489	1012.317	793.014
69.549	18.178	1011.211	790.642
70.563	18.306	1010.427	790.548
71.578	18.238	1009.720	789.612
72.593	18.093	1009.346	788.582
73.607	18.282	1008.721	788.894
74.622	18.488	1008.476	789.581
75.636	18.611	1006.824	788.785
76.651	18.431	1006.037	787.269
77.666	18.399	1005.444	786.591
78.680	18.393	1004.998	786.144
79.695	18.572	1004.205	786.275
80.709	18.522	1003.399	785.346
81.724	18.447	1002.443	784.184
82.739	18.530	1002.169	784.280
83.753	18.897	1001.537	785.392
84.768	19.017	1000.383	784.967
85.782	19.036	998.970	783.874
86.797	19.035	998.216	783.207
87.812	18.839	997.187	781.440
88.826	18.986	996.231	781.292
89.841	19.111	995.229	781.003
90.855	18.863	994.496	779.236
91.870	18.825	993.827	778.469
92.884	18.848	992.434	777.415
93.899	18.868	990.826	776.176
94.914	19.032	990.328	776.458
95.928	18.801	989.284	774.529
96.943	18.687	987.931	772.888
97.957	18.405	986.783	770.650
98.972	18.302	985.525	769.140
99.987	18.529	985.229	769.857
101.001	18.717	984.344	769.941
102.016	18.804	983.224	769.389
103.030	18.647	982.607	768.133
104.045	18.444	981.249	766.098
105.060	18.338	980.330	764.840
106.074	18.482	980.114	765.246
107.089	18.909	979.139	766.322
108.103	18.840	978.138	765.163
109.118	18.750	976.953	763.767
110.133	18.793	975.626	762.852
111.147	18.546	974.335	760.680
112.162	18.269	973.728	758.912
113.176	18.581	972.951	759.622
114.191	18.585	971.657	758.561
115.206	18.232	971.152	756.540
116.220	18.303	969.860	755.777
117.235	18.455	968.972	755.692
118.249	18.396	968.246	754.797
119.264	18.293	967.535	753.724
120.279	18.312	966.827	753.187
121.293	18.624	965.689	753.608
122.308	18.528	964.548	752.229
123.322	18.513	963.245	751.080
124.337	18.207	962.727	749.270
125.352	17.898	960.537	746.150
126.366	17.886	959.405	745.150
127.381	18.567	959.304	747.979
128.395	18.757	959.039	748.534
129.410	18.855	957.984	748.067
130.424	18.916	956.520	747.127
131.439	18.826	956.064	746.313
132.454	18.720	954.977	744.936
133.468	18.701	953.653	743.757
134.483	18.854	953.037	743.873
135.497	18.884	952.445	743.474
136.512	19.157	950.896	743.377
137.527	18.964	950.791	742.397
138.541	19.124	949.766	742.222
139.556	19.171	948.437	741.318
140.570	19.120	947.730	740.481
141.585	18.972	946.774	739.033
142.600	19.034	945.456	738.206
143.614	19.230	944.967	738.598
144.629	19.275	944.002	737.973
145.643	19.167	942.963	736.631
146.658	19.080	941.644	735.165
147.673	18.855	941.102	733.718
148.687	18.974	939.925	733.242
149.702	18.815	938.976	731.758
150.716	18.835	938.146	731.131
151.731	18.994	937.206	731.009
152.746	19.229	936.705	731.553
153.760	19.438	936.178	731.966
154.775	19.221	935.485	730.439
155.789	19.121	934.393	729.095
156.804	19.145	933.744	728.627
157.819	19.238	932.889	728.290
158.833	19.288	932.183	727.884
159.848	19.303	930.862	726.854
160.862	19.124	930.066	725.412
161.877	19.283	928.970	725.162
162.892	19.160	928.864	724.499
163.906	19.239	927.072	723.367
164.921	19.321	926.278	723.028
165.935	19.324	925.180	722.121
166.950	19.261	924.739	721.447
167.964	19.170	923.791	720.265
168.979	19.050	922.691	718.842
169.994	19.004	922.310	718.288
171.008	19.271	920.902	718.240
172.023	19.303	919.979	717.593
173.037	18.939	919.318	715.499
174.052	18.915	918.089	714.377
175.067	19.098	918.018	715.019
176.081	19.246	916.997	714.776
177.096	19.025	916.558	713.453
178.110	18.963	915.327	712.176
179.125	18.715	914.773	710.656
180.140	18.693	914.471	710.268
181.154	18.740	914.231	710.212
182.169	18.997	914.018	711.045
183.183	19.146	913.666	711.325
184.198	19.176	912.565	710.530
185.213	19.076	911.730	709.404
186.227	19.133	911.073	709.063
187.242	19.410	910.102	709.385
188.256	19.264	909.519	708.268
189.271	19.290	908.751	707.713
190.286	19.088	907.248	705.651
191.300	18.590	905.999	702.579
192.315	17.845	905.185	698.836
193.329	17.786	905.039	698.420
194.344	18.760	904.937	702.264
195.359	19.141	904.542	703.453
196.373	19.141	904.320	703.219
197.388	18.925	903.278	701.465
198.402	18.956	902.942	701.269
199.417	18.886	902.008	700.196
200.432	18.676	900.880	698.405
201.446	18.510	900.481	697.359
202.461	18.578	899.668	696.943
203.475	17.786	898.063	692.425
204.490	17.302	896.517	689.209
205.504	18.201	897.239	693.347
206.519	18.818	897.113	695.690
207.534	18.790	896.498	695.038
208.548	19.188	896.367	696.484
209.563	19.004	895.506	695.010
210.577	18.992	894.569	694.172
211.592	19.312	894.427	695.293
212.607	19.410	892.984	694.505
213.621	19.190	892.804	693.416
214.636	19.255	892.467	693.356
215.650	19.260	891.446	692.519
216.665	19.331	890.868	692.295
217.680	19.237	889.868	691.081
218.694	18.852	888.545	688.447
219.709	18.869	887.288	687.482
220.723	19.022	887.874	688.489
221.738	19.108	887.229	688.269
222.753	19.185	886.448	687.913
223.767	19.139	885.891	687.235
224.782	19.329	885.366	687.524
225.796	19.302	885.020	687.088
226.811	18.750	883.461	683.619
227.826	18.192	882.301	680.442
228.840	18.363	881.778	680.658
229.855	18.520	880.985	680.611
230.869	18.140	879.636	678.001
231.884	18.472	879.908	679.465
232.899	19.278	879.588	682.350
233.913	19.224	878.709	681.395
234.928	19.218	878.483	681.135
235.942	19.049	877.977	680.015
236.957	18.850	876.835	678.285
237.972	18.850	876.151	677.697
238.986	18.866	875.850	677.468
240.001	18.913	874.957	676.903
241.015	19.118	874.467	677.270
242.030	19.135	873.948	676.873
243.045	19.154	873.780	676.761
244.059	19.330	872.921	676.725
245.074	19.038	872.457	675.159
246.088	18.687	871.306	672.834
247.103	18.969	870.964	673.614
248.117	19.534	870.856	675.683
249.132	19.797	869.863	675.882
250.147	19.716	869.354	675.109
251.161	19.783	869.237	675.222
252.176	19.705	868.484	674.273
253.190	19.776	868.071	674.169
254.205	20.026	867.191	674.399
255.220	20.066	866.726	674.133
256.234	19.911	865.660	672.640
257.249	19.953	864.643	671.954
258.263	19.779	864.063	670.770
259.278	19.864	863.989	670.983
260.293	19.923	862.829	670.252
261.307	19.932	861.825	669.446
262.322	19.703	860.925	667.803
263.336	18.899	859.052	663.190
264.351	17.939	857.417	658.170
265.366	18.145	856.822	658.450
266.380	19.114	857.724	662.817
267.395	19.604	857.292	664.309
268.409	19.488	856.659	663.314
269.424	19.631	856.057	663.340
270.439	19.780	855.502	663.424
271.453	19.863	855.076	663.353
272.468	20.055	854.409	663.512
273.482	20.127	854.333	663.668
274.497	19.745	852.574	660.785
275.512	19.265	852.102	658.525
276.526	19.849	852.027	660.639
277.541	19.961	851.009	660.221
278.555	19.528	850.274	657.939
279.570	19.288	850.229	656.933
280.585	19.673	848.995	657.389
281.599	19.639	847.723	656.215
282.614	19.082	847.075	653.539
283.628	19.270	846.490	653.746
284.643	19.455	846.141	654.118
285.657	19.287	844.952	652.506
286.672	18.918	844.082	650.380
287.687	19.433	844.431	652.540
288.701	19.425	843.524	651.749
289.716	19.211	842.566	650.147
290.730	19.102	842.021	649.255
291.745	18.716	841.495	647.339
292.760	19.074	841.161	648.371
293.774	19.988	841.434	651.969
294.789	20.286	841.156	652.817
295.803	20.352	840.607	652.580
296.818	20.474	839.809	652.361
297.833	19.976	838.266	649.237
298.847	19.965	837.583	648.611
299.862	20.328	837.518	649.862
300.876	20.470	837.042	649.969
301.891	20.219	836.357	648.440
302.906	19.728	835.483	645.870
303.920	19.760	835.313	645.800
304.935	20.206	834.578	646.842
305.949	20.272	833.969	646.556
306.964	20.038	833.232	645.056
307.979	20.265	832.973	645.645
308.993	20.430	833.065	646.274
310.008	20.379	831.960	645.167
311.022	20.116	831.181	643.533
312.037	20.057	831.115	643.206
313.052	19.710	830.162	641.121
314.066	19.093	828.769	637.707
315.081	18.817	828.107	636.118
316.095	19.749	827.944	639.385
317.110	20.083	827.914	640.541
318.125	19.291	826.189	636.226
319.139	18.485	825.052	632.323
320.154	18.545	824.673	632.195
321.168	19.247	824.873	634.883
322.183	19.912	824.898	637.292
323.197	19.912	824.627	637.028
324.212	20.164	824.162	637.541
325.227	20.204	823.568	637.171
326.241	20.180	822.725	636.374
327.256	20.023	822.253	635.375
328.270	20.091	821.278	634.814
329.285	19.815	821.028	633.555
330.300	19.758	819.870	632.398
331.314	19.819	819.697	632.429
332.329	20.218	819.375	633.583
333.343	20.226	819.120	633.360
334.358	20.191	818.692	632.844
335.373	20.350	818.152	632.951
336.387	20.542	818.241	633.666
337.402	20.532	818.343	633.650
338.416	20.413	817.403	632.435
339.431	20.585	817.075	632.751
340.446	20.747	816.622	632.934
341.460	20.586	816.321	632.057
342.475	20.385	815.504	630.641
343.489	20.485	815.293	630.785
344.504	20.854	814.811	631.694
345.519	20.796	814.591	631.256
346.533	20.838	814.288	631.117
347.548	20.938	813.725	630.989
348.562	20.856	813.141	630.184
349.577	20.801	812.646	629.546
350.592	21.088	811.736	629.820
351.606	20.850	811.082	628.399
352.621	20.812	810.113	627.456
353.635	20.762	809.333	626.614
354.650	20.155	808.024	623.364
355.665	19.380	806.732	619.532
356.679	19.610	806.712	620.287
357.694	20.086	806.066	621.442
358.708	20.113	805.167	620.791
359.723	20.502	805.212	622.164
360.738	20.771	805.312	623.147
361.752	20.744	804.340	622.246
362.767	20.932	804.542	623.016
363.781	21.151	803.919	623.263
364.796	21.296	803.233	623.194
365.810	21.215	802.932	622.616
366.825	21.253	802.439	622.313
367.840	20.879	801.869	620.484
368.854	20.570	801.144	618.768
369.869	20.585	801.073	618.712
370.883	20.697	800.497	618.611
371.898	20.534	799.944	617.550
372.913	20.611	799.405	617.353
373.927	20.923	798.915	618.027
374.942	20.871	799.407	618.167
375.956	20.871	798.742	617.599
376.971	21.059	797.829	617.505
377.986	21.230	797.772	618.012
379.000	21.185	797.129	617.299
380.015	21.090	796.211	616.197
381.029	21.124	796.030	616.123
382.044	21.154	795.648	615.876
383.059	21.218	794.694	615.313
384.073	21.415	794.072	615.470
385.088	21.331	793.546	614.710
386.102	21.128	793.204	613.676
387.117	21.049	792.713	612.966
388.132	20.799	791.146	610.825
389.146	20.281	790.484	608.441
390.161	20.571	790.568	609.468
391.175	20.912	790.179	610.312
392.190	20.834	789.449	609.418
393.205	19.648	787.160	603.460
394.219	18.283	785.938	597.704
395.234	18.205	785.997	597.426
396.248	19.719	787.171	603.556
397.263	20.999	787.737	608.405
398.278	21.020	787.278	608.070
399.292	20.828	786.546	606.782
400.307	20.847	786.093	606.445
401.321	21.105	785.593	606.903
402.336	21.384	785.295	607.590
403.350	21.668	785.003	608.296
404.365	21.678	785.357	608.549
405.380	21.997	784.656	609.061
406.394	21.848	784.429	608.313
407.409	21.770	783.609	607.355
408.423	21.858	782.987	607.122
409.438	21.820	783.450	607.295
410.453	21.921	782.562	606.904
411.467	21.978	781.528	606.246
412.482	21.764	781.822	605.680
413.496	21.797	781.484	605.477
414.511	21.827	781.052	605.195
415.526	21.975	780.359	605.113
416.540	21.747	779.846	603.875
417.555	21.570	779.234	602.738
418.569	21.635	778.558	602.388
419.584	21.525	778.189	601.670
420.599	21.431	777.426	600.704
421.613	158.649	1361.418	1796.525
422.628	137.049	1446.509	1796.570
