DTS Sentinel unit serial number:	SN413079Multiplexer serial number:	ORYXHardware model number:	OX4-SRSoftware version number:	ORYX F/W v4.00 Oryx Data Collector v3.7.2.0data status	okinstallation	princeton_trtdifferential loss correction	single-endedforward channel	channel 1reverse channel	N/Adate	2019/09/12time	20:34:35forward acquisition time	60.00reverse acquisition time	0.00gamma	496.2192k internal	0.2324k external	0.2324temperature offset calibration	1.0155default loss term (dB/km)	0.3790temperature slope calibration	1.0000multiplexer offset coefficient	1.0000multiplexer slope coefficient	1.0000fibre end	0.00T internal ref (°C)	31.19T ext. ref 1 (°C)	3.64T ext. ref 2 (°C)	25.77length (m)	temperature (°C)	Stokes	anti-Stokes-747.200	-200.000	-0.005	0.087
-746.185	-61.530	-0.574	0.243
-745.171	-126.324	0.319	-0.048
-744.156	-200.000	-0.066	0.336
-743.142	199.329	0.205	0.318
-742.127	-200.000	-0.016	0.098
-741.112	-157.479	0.473	0.029
-740.098	-83.042	-0.227	-0.074
-739.083	-89.768	0.482	0.142
-738.069	-145.138	-0.143	0.013
-737.054	-60.671	0.111	0.048
-736.039	-58.343	-0.382	0.168
-735.025	53.745	0.355	0.344
-734.010	-78.035	0.206	0.072
-732.996	-23.799	-0.510	-0.308
-731.981	-200.000	-0.064	-0.351
-730.966	89.697	0.146	0.165
-729.952	-200.000	0.019	-0.291
-728.937	800.000	0.126	-0.495
-727.923	-100.732	-0.429	-0.107
-726.908	-67.098	-0.103	0.041
-725.894	-200.000	0.031	-0.174
-724.879	-200.000	0.012	-0.112
-723.864	-152.585	-0.149	0.011
-722.850	-137.641	-0.310	-0.035
-721.835	-174.361	0.103	0.003
-720.821	511.245	0.069	0.162
-719.806	-200.000	0.043	-0.286
-718.791	-200.000	0.008	0.063
-717.777	-200.000	-0.001	0.070
-716.762	-87.603	0.162	0.049
-715.748	-92.630	0.163	-0.046
-714.733	-151.205	0.405	0.031
-713.718	-200.000	-0.017	0.121
-712.704	-31.104	0.188	-0.107
-711.689	28.009	-0.128	-0.109
-710.675	223.429	0.091	-0.147
-709.660	-200.000	-0.003	-0.088
-708.645	-168.378	0.238	0.009
-707.631	-55.032	-0.221	0.100
-706.616	-200.000	-0.019	0.277
-705.602	-75.332	0.211	0.076
-704.587	800.000	0.093	-0.293
-703.572	-200.000	0.044	-0.204
-702.558	-200.000	0.014	0.193
-701.543	208.419	0.154	-0.242
-700.529	58.543	-0.208	0.206
-699.514	464.132	-0.043	-0.097
-698.499	-135.551	-0.264	0.032
-697.485	-177.317	-0.192	0.005
-696.470	-200.000	0.066	-0.345
-695.456	800.000	0.082	0.256
-694.441	-118.766	-0.136	0.024
-693.426	-72.922	0.130	-0.048
-692.412	-200.000	0.038	0.280
-691.397	-43.471	-0.283	-0.144
-690.383	-117.034	0.043	-0.008
-689.368	44.461	0.119	0.110
-688.354	-200.000	-0.030	0.134
-687.339	-100.168	0.199	-0.050
-686.324	477.770	0.059	-0.135
-685.310	70.847	0.306	-0.319
-684.295	-52.680	-0.057	-0.027
-683.281	517.167	-0.084	-0.197
-682.266	-35.377	0.125	-0.068
-681.251	741.660	0.103	0.278
-680.237	681.342	-0.131	0.343
-679.222	800.000	0.127	0.421
-678.208	-200.000	-0.032	-0.198
-677.193	212.471	-0.099	-0.158
-676.178	-100.445	0.091	0.023
-675.164	-153.530	-0.170	-0.012
-674.149	-37.253	0.237	0.128
-673.135	-200.000	-0.002	0.038
-672.120	-173.775	0.263	0.008
-671.105	69.159	0.098	0.101
-670.091	-191.697	0.267	-0.003
-669.076	-27.126	0.180	0.105
-668.062	-4.347	-0.163	-0.114
-667.047	59.053	0.258	0.255
-666.032	-12.362	-0.181	-0.119
-665.018	-200.000	-0.022	-0.230
-664.003	-200.000	0.033	0.333
-662.989	-140.893	-0.304	0.032
-661.974	-65.420	-0.456	-0.184
-660.959	61.937	-0.154	-0.154
-659.945	-105.295	0.403	0.093
-658.930	-57.728	-0.167	-0.074
-657.916	800.000	0.015	-0.059
-656.901	362.190	0.163	-0.329
-655.886	-155.218	0.258	0.017
-654.872	757.223	0.023	-0.064
-653.857	239.019	0.090	-0.150
-652.843	-146.824	0.040	0.003
-651.828	365.602	0.183	-0.372
-650.814	-61.071	-0.343	0.146
-649.799	590.239	-0.116	0.289
-648.784	516.250	0.112	0.264
-647.770	307.355	0.077	0.144
-646.755	-195.365	0.096	-0.001
-645.741	-67.695	0.143	-0.056
-644.726	93.680	0.120	0.136
-643.711	5.216	0.075	-0.056
-642.697	-170.408	-0.130	-0.005
-641.682	562.616	0.130	-0.315
-640.668	25.243	-0.258	0.216
-639.653	-189.525	-0.292	-0.003
-638.638	639.822	-0.042	-0.108
-637.624	-180.309	0.495	0.010
-636.609	-200.000	-0.033	-0.221
-635.595	-200.000	-0.017	0.305
-634.580	-125.724	0.117	0.018
-633.565	150.799	-0.031	0.043
-632.551	-0.297	-0.192	0.137
-631.536	-200.000	0.044	-0.332
-630.522	232.450	-0.046	-0.076
-629.507	311.797	0.064	0.121
-628.492	84.949	0.189	0.208
-627.478	-200.000	0.089	0.427
-626.463	-21.492	0.165	-0.101
-625.449	-58.121	0.375	0.164
-624.434	-51.051	-0.222	0.105
-623.419	-80.162	-0.519	-0.175
-622.405	210.317	0.138	0.218
-621.390	800.000	0.023	0.102
-620.376	-126.547	0.168	0.025
-619.361	139.042	0.159	0.210
-618.346	787.071	0.139	0.384
-617.332	-0.979	0.233	-0.165
-616.317	800.000	-0.059	0.183
-615.303	800.000	-0.142	-0.419
-614.288	-200.000	-0.007	-0.281
-613.273	-22.550	0.175	0.107
-612.259	800.000	-0.013	-0.046
-611.244	-22.066	-0.154	0.094
-610.230	-13.296	0.243	-0.159
-609.215	130.291	0.061	-0.078
-608.201	473.715	-0.105	-0.238
-607.186	-141.621	0.082	-0.008
-606.171	-200.000	0.042	0.297
-605.157	-125.936	0.111	0.017
-604.142	-102.159	0.187	0.045
-603.128	-200.000	0.035	-0.315
-602.113	-89.706	-0.079	0.023
-601.098	-105.354	-0.276	-0.063
-600.084	-200.000	-0.007	0.514
-599.069	218.462	0.080	0.129
-598.055	-200.000	0.043	0.373
-597.040	-80.978	-0.370	0.123
-596.025	-153.590	-0.396	-0.027
-595.011	-200.000	-0.011	0.071
-593.996	297.777	0.079	0.146
-592.982	108.368	0.240	-0.287
-591.967	-83.193	0.225	-0.072
-590.952	800.000	-0.083	0.281
-589.938	-180.503	0.073	0.002
-588.923	-124.444	0.211	0.033
-587.909	147.551	0.144	0.194
-586.894	-146.085	0.208	-0.018
-585.879	-13.516	-0.145	-0.094
-584.865	800.000	-0.049	-0.215
-583.850	-166.993	-0.162	-0.007
-582.836	-200.000	0.047	-0.378
-581.821	-25.617	-0.352	-0.208
-580.806	207.702	0.264	0.414
-579.792	-123.132	0.303	0.049
-578.777	800.000	0.022	0.065
-577.763	-200.000	0.000	-0.017
-576.748	-56.732	-0.217	-0.096
-575.733	53.023	-0.202	0.194
-574.719	-67.896	0.219	-0.086
-573.704	19.271	-0.203	-0.163
-572.690	136.917	0.111	-0.145
-571.675	158.428	-0.082	0.115
-570.661	-133.216	-0.158	0.020
-569.646	168.789	0.054	0.077
-568.631	342.129	0.187	-0.367
-567.617	-103.110	-0.172	-0.041
-566.602	-150.399	0.069	-0.005
-565.588	-110.924	-0.167	0.034
-564.573	-65.450	0.100	0.040
-563.558	-200.000	-0.108	-0.525
-562.544	-100.711	-0.257	0.063
-561.529	-83.874	0.023	-0.007
-560.515	800.000	0.010	0.045
-559.500	464.594	-0.124	-0.279
-558.485	-126.455	-0.455	0.068
-557.471	94.058	-0.153	0.174
-556.456	133.252	-0.058	-0.075
-555.442	110.686	-0.210	-0.253
-554.427	-3.978	-0.080	-0.056
-553.412	-55.102	-0.399	-0.180
-552.398	519.320	-0.073	0.170
-551.383	-52.388	0.042	-0.019
-550.369	-69.096	0.179	0.069
-549.354	-200.000	-0.044	0.340
-548.339	-200.000	-0.004	0.326
-547.325	307.334	0.207	-0.387
-546.310	-72.014	0.122	-0.045
-545.296	482.706	-0.168	-0.383
-544.281	800.000	0.097	0.368
-543.266	375.217	-0.016	0.032
-542.252	258.212	-0.084	-0.145
-541.237	-200.000	0.038	-0.184
-540.223	-200.000	0.064	-0.309
-539.208	256.216	0.131	0.226
-538.193	-33.365	-0.206	-0.114
-537.179	-131.554	0.270	-0.036
-536.164	640.197	0.076	-0.193
-535.150	450.380	0.051	-0.114
-534.135	800.000	-0.053	-0.171
-533.121	-33.040	-0.357	0.198
-532.106	115.707	-0.038	-0.046
-531.091	800.000	-0.066	-0.279
-530.077	-173.510	0.098	-0.003
-529.062	-200.000	-0.010	0.174
-528.048	-46.384	0.388	-0.191
-527.033	304.653	-0.115	-0.214
-526.018	-34.810	-0.436	0.238
-525.004	-200.000	0.019	0.186
-523.989	72.785	0.050	-0.052
-522.975	800.000	0.064	0.184
-521.960	153.139	0.042	0.058
-520.945	273.473	0.275	-0.486
-519.931	596.916	-0.072	0.178
-518.916	699.876	-0.137	0.360
-517.902	49.357	0.098	0.092
-516.887	-200.000	-0.067	0.453
-515.872	4.516	-0.140	0.103
-514.858	-200.000	0.003	-0.148
-513.843	-200.000	0.002	0.107
-512.829	800.000	-0.085	-0.296
-511.814	211.922	0.101	0.159
-510.799	788.977	-0.036	-0.098
-509.785	-53.664	0.157	-0.072
-508.770	-112.029	-0.159	0.032
-507.756	-32.576	-0.156	-0.087
-506.741	-85.545	0.147	0.046
-505.726	-90.556	0.201	-0.058
-504.712	56.941	0.142	-0.138
-503.697	-2.660	0.136	-0.095
-502.683	-72.205	0.254	-0.094
-501.668	-93.668	-0.584	0.161
-500.653	-200.000	-0.006	-0.311
-499.639	256.740	-0.027	-0.047
-498.624	180.469	0.099	-0.145
-497.610	-9.574	0.265	0.176
-496.595	-200.000	-0.034	0.205
-495.581	800.000	-0.062	0.175
-494.566	106.373	-0.074	0.088
-493.551	-200.000	-0.004	0.085
-492.537	43.381	0.034	0.031
-491.522	-128.091	-0.095	-0.014
-490.508	40.031	0.244	-0.219
-489.493	-200.000	-0.017	-0.080
-488.478	56.018	-0.038	0.037
-487.464	-200.000	0.009	-0.228
-486.449	340.429	0.174	0.340
-485.435	-13.004	-0.103	-0.067
-484.420	800.000	-0.010	0.031
-483.405	22.110	0.216	-0.176
-482.391	53.430	-0.198	0.189
-481.376	209.313	-0.104	0.163
-480.362	-117.552	-0.268	0.048
-479.347	-83.079	0.135	0.043
-478.332	-149.772	0.617	0.048
-477.318	-31.427	0.224	-0.126
-476.303	-200.000	-0.015	-0.196
-475.289	156.687	-0.036	-0.049
-474.274	74.943	0.036	-0.038
-473.259	35.694	0.154	-0.135
-472.245	34.180	0.148	0.129
-471.230	-37.333	0.210	0.112
-470.216	800.000	-0.091	0.392
-469.201	-147.455	-0.086	0.007
-468.186	-43.648	0.032	-0.016
-467.172	-200.000	-0.001	-0.018
-466.157	79.172	-0.213	0.228
-465.143	15.817	-0.040	0.031
-464.128	-200.000	-0.003	0.032
-463.113	-26.989	0.313	-0.182
-462.099	-200.000	-0.053	-0.430
-461.084	160.757	-0.237	-0.331
-460.070	-200.000	-0.020	-0.163
-459.055	-82.956	0.245	-0.079
-458.040	-65.871	0.233	-0.093
-457.026	-20.481	-0.040	-0.024
-456.011	49.283	-0.050	0.047
-454.997	-162.660	-0.385	0.019
-453.982	-200.000	-0.006	-0.033
-452.968	-175.027	0.186	-0.005
-451.953	-200.000	0.013	0.173
-450.938	800.000	0.053	0.186
-449.924	27.773	0.029	0.024
-448.909	173.341	-0.110	0.158
-447.895	-200.000	0.036	0.380
-446.880	130.629	-0.105	-0.135
-445.865	292.850	0.165	0.299
-444.851	209.928	-0.098	0.153
-443.836	384.194	-0.071	0.146
-442.822	17.251	-0.282	0.223
-441.807	-200.000	-0.014	0.312
-440.792	102.682	0.041	0.048
-439.778	761.349	0.064	-0.174
-438.763	-49.144	-0.056	-0.027
-437.749	-127.103	-0.337	0.049
-436.734	-200.000	0.019	0.231
-435.719	201.667	0.129	-0.199
-434.705	-126.412	0.088	-0.013
-433.690	-197.601	-0.367	0.002
-432.676	122.299	-0.229	-0.286
-431.661	-52.213	0.124	0.057
-430.646	-97.458	0.258	-0.067
-429.632	239.722	0.279	0.464
-428.617	-73.738	-0.187	-0.068
-427.603	20.207	0.268	-0.216
-426.588	-154.191	0.055	0.004
-425.573	273.040	0.085	-0.150
-424.559	184.681	-0.095	-0.141
-423.544	-105.065	0.165	0.038
-422.530	-142.532	-0.332	-0.033
-421.515	-200.000	-0.049	0.241
-420.500	800.000	0.098	-0.356
-419.486	-10.790	-0.143	0.094
-418.471	-40.037	0.222	-0.115
-417.457	380.691	-0.108	0.220
-416.442	-9.067	-0.212	-0.141
-415.428	90.725	-0.084	0.094
-414.413	149.222	-0.099	0.133
-413.398	-185.250	0.277	-0.004
-412.384	-11.786	-0.240	-0.157
-411.369	-156.560	0.192	0.012
-410.355	-81.195	-0.343	0.113
-409.340	-25.300	-0.174	0.103
-408.325	168.575	-0.092	-0.130
-407.311	303.603	0.074	-0.137
-406.296	363.871	0.059	0.118
-405.282	-151.896	-0.273	-0.020
-404.267	-68.465	0.156	-0.060
-403.252	45.130	0.200	-0.183
-402.238	-117.037	-0.107	0.019
-401.223	114.114	0.234	-0.283
-400.209	66.587	-0.114	0.116
-399.194	-8.676	0.093	0.062
-398.179	44.199	-0.147	-0.134
-397.165	7.413	0.209	-0.155
-396.150	800.000	-0.077	0.228
-395.136	-200.000	-0.056	-0.611
-394.121	-51.747	0.312	0.145
-393.106	-200.000	0.015	0.258
-392.092	-200.000	0.018	0.146
-391.077	800.000	-0.068	0.198
-390.063	-65.345	-0.073	-0.029
-389.048	273.930	-0.196	0.346
-388.033	266.159	0.097	-0.169
-387.019	-200.000	-0.007	-0.097
-386.004	-200.000	-0.002	-0.294
-384.990	-200.000	0.019	-0.087
-383.975	800.000	0.084	0.289
-382.960	92.464	-0.066	0.074
-381.946	800.000	0.045	0.132
-380.931	800.000	-0.075	0.327
-379.917	174.115	-0.076	0.109
-378.902	-127.744	0.093	-0.013
-377.888	264.131	-0.089	-0.154
-376.873	-200.000	0.016	-0.306
-375.858	7.107	-0.065	-0.048
-374.844	800.000	0.068	0.230
-373.829	-200.000	0.036	0.183
-372.815	-200.000	-0.052	0.262
-371.800	-63.863	-0.235	-0.096
-370.785	-117.273	0.415	0.075
-369.771	-200.000	-0.030	0.317
-368.756	-194.981	0.113	-0.001
-367.742	320.104	0.078	-0.148
-366.727	95.758	0.316	0.358
-365.712	-64.557	0.012	0.005
-364.698	-43.464	-0.208	-0.104
-363.683	-200.000	-0.001	0.127
-362.669	101.995	0.108	-0.125
-361.654	-100.811	0.179	-0.044
-360.639	42.979	0.152	-0.138
-359.625	218.325	0.100	0.159
-358.610	-98.060	0.282	-0.072
-357.596	-200.000	-0.012	-0.320
-356.581	-200.000	-0.040	0.326
-355.566	-121.056	-0.219	0.037
-354.552	-129.131	-0.152	-0.021
-353.537	-10.291	0.368	0.243
-352.523	24.634	0.321	-0.264
-351.508	-129.497	0.162	0.022
-350.493	-200.000	-0.012	-0.110
-349.479	-34.463	-0.232	-0.126
-348.464	-136.571	-0.204	0.023
-347.450	-200.000	0.015	0.117
-346.435	741.779	-0.095	0.253
-345.420	191.267	0.073	-0.109
-344.406	-200.000	-0.019	-0.195
-343.391	5.817	0.159	-0.117
-342.377	-200.000	-0.113	-0.735
-341.362	-87.577	-0.125	-0.038
-340.348	230.351	0.045	-0.074
-339.333	-200.000	0.039	0.448
-338.318	-200.000	0.010	-0.282
-337.304	-200.000	0.030	-0.299
-336.289	254.161	-0.046	0.078
-335.275	-200.000	0.007	0.074
-334.260	-23.904	0.116	0.069
-333.245	-200.000	-0.010	-0.162
-332.231	10.380	0.165	-0.125
-331.216	-60.381	-0.402	0.170
-330.202	101.083	-0.098	0.114
-329.187	53.634	0.108	-0.103
-328.172	-151.892	0.129	0.009
-327.158	-94.323	-0.306	0.083
-326.143	-80.669	0.146	-0.048
-325.129	-104.226	0.357	0.082
-324.114	193.736	0.113	0.170
-323.099	25.663	-0.083	-0.069
-322.085	-161.251	-0.123	-0.006
-321.070	-43.150	-0.123	0.062
-320.056	63.590	-0.216	0.216
-319.041	436.001	0.158	0.341
-318.026	665.574	-0.047	0.121
-317.012	-33.429	0.199	0.109
-315.997	-123.023	0.329	-0.053
-314.983	-80.725	0.404	-0.133
-313.968	-200.000	-0.027	0.196
-312.953	-16.775	0.201	-0.126
-311.939	-50.638	-0.205	-0.096
-310.924	85.432	0.152	-0.166
-309.910	-5.724	-0.114	0.077
-308.895	40.532	0.196	-0.175
-307.880	-200.000	-0.016	-0.246
-306.866	-112.540	-0.108	-0.021
-305.851	-138.192	-0.127	0.014
-304.837	-9.052	-0.040	0.026
-303.822	-200.000	-0.014	-0.279
-302.807	251.927	-0.034	0.057
-301.793	-200.000	0.021	0.137
-300.778	46.649	-0.093	-0.085
-299.764	-50.129	0.255	0.120
-298.749	-79.978	0.151	0.050
-297.735	14.139	-0.148	-0.114
-296.720	-200.000	0.009	-0.143
-295.705	-17.396	-0.067	-0.042
-294.691	159.718	-0.105	0.145
-293.676	-149.820	-0.273	-0.021
-292.662	550.305	-0.119	-0.284
-291.647	-9.592	0.219	-0.145
-290.632	-19.994	-0.239	0.146
-289.618	-138.101	-0.157	-0.017
-288.603	800.000	-0.076	-0.298
-287.589	-90.932	0.237	-0.068
-286.574	-200.000	0.021	0.191
-285.559	90.791	-0.131	0.146
-284.545	27.741	-0.142	-0.118
-283.530	545.737	0.111	-0.264
-282.516	-200.000	-0.019	0.107
-281.501	560.540	-0.080	0.193
-280.486	87.299	-0.118	-0.130
-279.472	-200.000	0.021	-0.249
-278.457	-186.890	-0.141	0.002
-277.443	397.699	0.024	0.051
-276.428	450.656	0.024	0.052
-275.413	-105.136	0.403	0.091
-274.399	-72.453	0.252	0.092
-273.384	800.000	-0.045	0.133
-272.370	365.476	0.127	-0.253
-271.355	424.969	0.060	0.128
-270.340	4.639	-0.152	-0.111
-269.326	-200.000	0.005	-0.104
-268.311	3.867	0.096	0.070
-267.297	9.271	-0.205	-0.154
-266.282	-177.037	0.180	0.004
-265.267	37.347	0.059	-0.052
-264.253	-79.540	0.465	-0.156
-263.238	-130.287	-0.273	-0.037
-262.224	108.922	-0.138	0.164
-261.209	280.483	-0.164	0.291
-260.195	-66.549	-0.247	0.097
-259.180	-174.051	0.118	0.003
-258.165	59.252	-0.018	0.018
-257.151	-36.359	-0.298	-0.159
-256.136	86.010	0.073	-0.079
-255.122	-125.045	-0.241	-0.037
-254.107	-58.191	0.125	0.054
-253.092	26.978	0.166	0.138
-252.078	175.427	-0.091	0.131
-251.063	800.000	0.099	-0.291
-250.049	190.934	-0.064	0.095
-249.034	800.000	0.031	-0.096
-248.019	-200.000	-0.007	0.080
-247.005	-67.865	-0.142	0.055
-245.990	-123.430	-0.129	-0.020
-244.976	91.631	-0.081	-0.091
-243.961	800.000	0.059	0.245
-242.946	-82.344	0.103	-0.033
-241.932	302.343	0.079	0.145
-240.917	-132.111	-0.147	0.019
-239.903	-35.609	-0.052	-0.028
-238.888	92.426	-0.172	0.192
-237.873	-159.606	0.322	0.018
-236.859	734.039	0.033	0.087
-235.844	-7.009	-0.135	-0.090
-234.830	283.713	0.034	0.060
-233.815	299.349	-0.113	-0.206
-232.800	170.177	0.022	-0.031
-231.786	4.178	0.057	-0.041
-230.771	-25.793	0.056	0.032
-229.757	90.820	-0.122	-0.136
-228.742	165.546	0.193	-0.271
-227.727	206.191	-0.110	0.170
-226.713	-30.133	0.099	0.056
-225.698	-25.672	-0.328	-0.192
-224.684	-73.134	0.173	0.063
-223.669	52.785	0.126	-0.119
-222.655	-200.000	-0.011	0.217
-221.640	221.210	0.078	-0.124
-220.625	-24.824	-0.163	-0.096
-219.611	746.354	0.088	-0.234
-218.596	435.409	0.090	0.194
-217.582	13.729	-0.101	-0.078
-216.567	-10.586	-0.179	0.117
-215.552	-43.479	-0.031	-0.016
-214.538	8.569	-0.062	-0.046
-213.523	-29.103	0.279	-0.158
-212.509	-200.000	-0.007	0.080
-211.494	156.140	0.107	0.146
-210.479	-200.000	-0.024	-0.239
-209.465	-200.000	0.019	-0.112
-208.450	800.000	-0.058	0.214
-207.436	100.616	-0.289	0.332
-206.421	-52.448	-0.274	0.125
-205.406	-99.720	-0.112	0.028
-204.392	156.203	-0.182	-0.248
-203.377	-84.894	0.136	-0.042
-202.363	-24.112	0.241	-0.142
-201.348	-52.119	0.160	0.073
-200.333	39.426	0.029	-0.026
-199.319	-44.014	-0.201	-0.100
-198.304	-82.240	-0.226	-0.073
-197.290	-200.000	-0.014	-0.098
-196.275	144.110	0.206	-0.271
-195.260	-59.054	0.081	0.035
-194.246	-70.981	0.313	0.117
-193.231	598.360	-0.050	-0.122
-192.217	18.880	0.213	-0.169
-191.202	-83.753	-0.335	0.105
-190.187	-7.310	-0.139	0.093
-189.173	-117.984	0.124	0.022
-188.158	-18.035	-0.178	0.110
-187.144	-200.000	-0.052	0.377
-186.129	332.523	0.106	0.202
-185.114	-200.000	0.015	-0.100
-184.100	-56.959	-0.291	-0.127
-183.085	259.466	0.092	0.157
-182.071	-18.942	0.249	-0.153
-181.056	-128.508	0.086	0.012
-180.042	-2.626	0.181	0.125
-179.027	-200.000	-0.036	0.161
-178.012	-70.612	-0.159	-0.059
-176.998	-200.000	0.037	-0.248
-175.983	800.000	-0.059	0.174
-174.969	114.183	0.181	0.218
-173.954	-90.559	-0.166	0.048
-172.939	350.465	-0.115	-0.225
-171.925	800.000	0.031	-0.103
-170.910	-200.000	0.034	0.182
-169.896	-200.000	-0.011	-0.126
-168.881	520.218	0.125	0.290
-167.866	800.000	0.033	-0.139
-166.852	-150.731	-0.498	-0.037
-165.837	234.214	-0.163	-0.265
-164.823	58.350	-0.157	0.152
-163.808	168.775	-0.163	-0.230
-162.793	-67.263	-0.141	-0.055
-161.779	-200.000	-0.007	-0.036
-160.764	-200.000	0.042	-0.240
-159.750	-200.000	-0.029	-0.167
-158.735	-70.743	0.060	0.022
-157.720	73.117	0.062	0.064
-156.706	169.748	-0.097	0.137
-155.691	195.023	0.055	-0.083
-154.677	-85.273	-0.292	0.090
-153.662	154.615	-0.141	-0.192
-152.647	-106.960	0.388	0.085
-151.633	69.360	-0.137	-0.139
-150.618	-200.000	-0.055	-0.486
-149.604	67.450	0.125	-0.126
-148.589	326.141	0.062	0.117
-147.574	-65.467	0.285	-0.113
-146.560	63.149	0.210	0.207
-145.545	800.000	0.025	0.081
-144.531	49.723	-0.241	0.224
-143.516	-200.000	-0.013	-0.231
-142.502	-43.400	0.047	-0.024
-141.487	800.000	-0.068	0.263
-140.472	800.000	0.058	-0.160
-139.458	300.958	-0.053	0.096
-138.443	-84.573	0.170	-0.053
-137.429	165.086	0.258	0.359
-136.414	-79.195	0.280	0.094
-135.399	-125.242	0.170	-0.026
-134.385	596.524	-0.010	-0.024
-133.370	-169.324	0.335	-0.012
-132.356	-115.859	0.190	-0.035
-131.341	-32.575	0.085	0.047
-130.326	-200.000	-0.036	-0.222
-129.312	-100.092	-0.191	0.047
-128.297	-200.000	0.224	0.001
-127.283	140.109	0.145	-0.189
-126.268	32.161	0.468	0.398
-125.253	-200.000	-0.003	0.025
-124.239	-126.630	-0.197	0.029
-123.224	800.000	0.036	0.123
-122.210	-29.112	-0.083	0.047
-121.195	-55.614	-0.148	-0.065
-120.180	719.520	0.091	0.237
-119.166	206.624	0.037	0.056
-118.151	-45.780	-0.170	-0.083
-117.137	-77.079	0.249	-0.085
-116.122	-47.624	0.109	-0.052
-115.107	-200.000	-0.001	0.235
-114.093	160.022	-0.108	-0.148
-113.078	-101.731	0.325	-0.077
-112.064	15.184	-0.149	-0.115
-111.049	95.864	-0.233	0.262
-110.034	84.338	0.112	0.121
-109.020	24.220	-0.095	-0.077
-108.005	-62.874	-0.392	-0.160
-106.991	-94.484	-0.045	-0.012
-105.976	565.932	-0.093	-0.222
-104.962	-41.434	-0.103	0.052
-103.947	-119.152	0.170	0.029
-102.932	-119.592	0.159	0.027
-101.918	-191.072	0.130	-0.001
-100.903	413.366	-0.001	0.001
-99.889	-69.039	0.020	-0.008
-98.874	22.667	-0.098	-0.079
-97.859	-116.347	0.373	0.068
-96.845	-27.609	0.299	-0.171
-95.830	-25.321	0.105	0.061
-94.816	613.018	0.012	0.031
-93.801	118.574	0.103	0.125
-92.786	800.000	-0.085	-0.252
-91.772	-74.600	0.107	0.038
-90.757	800.000	-0.057	-0.166
-89.743	-62.842	0.242	0.098
-88.728	800.000	-0.094	-0.307
-87.713	-56.341	0.064	-0.028
-86.699	240.926	-0.070	0.116
-85.684	5.522	0.222	0.161
-84.670	313.427	0.053	0.099
-83.655	-200.000	0.010	0.090
-82.640	288.691	0.127	0.226
-81.626	71.536	0.173	0.177
-80.611	-200.000	-0.082	0.408
-79.597	-200.000	-0.047	0.242
-78.582	-40.085	0.339	-0.174
-77.567	-2.718	-0.321	0.221
-76.553	-200.000	-0.075	0.429
-75.538	-94.996	0.271	0.072
-74.524	-60.968	0.151	0.063
-73.509	85.755	0.075	0.081
-72.494	158.204	0.135	-0.184
-71.480	-200.000	-0.023	0.139
-70.465	800.000	-0.154	0.439
-69.451	16.862	0.218	0.169
-68.436	42.780	0.104	0.093
-67.422	-104.066	-0.365	0.083
-66.407	43.408	0.123	0.110
-65.392	229.665	-0.180	-0.288
-64.378	800.000	0.079	-0.220
-63.363	-200.000	0.012	0.294
-62.349	-148.037	0.293	0.024
-61.334	22.701	-1.130	-0.910
-60.319	14.891	0.501	0.385
-59.305	800.000	-0.202	-0.849
-58.290	263.304	0.585	0.999
-57.276	518.331	0.656	1.510
-56.261	-200.000	100.173	601.631
-55.246	592.190	1400.399	3398.370
-54.232	194.584	2577.179	3840.997
-53.217	117.813	2129.072	2576.315
-52.203	42.933	1586.869	1421.507
-51.188	34.714	1323.400	1136.791
-50.173	31.567	1281.386	1082.489
-49.159	54.805	1331.985	1262.807
-48.144	56.423	1349.197	1288.611
-47.130	34.912	1305.420	1122.329
-46.115	31.376	1287.834	1086.652
-45.100	31.255	1283.092	1081.904
-44.086	31.051	1280.922	1078.854
-43.071	31.120	1278.408	1077.089
-42.057	30.931	1276.679	1074.503
-41.042	31.062	1274.761	1073.600
-40.027	30.987	1273.812	1072.325
-39.013	31.117	1271.276	1070.895
-37.998	31.185	1269.709	1069.923
-36.984	31.175	1267.810	1068.225
-35.969	31.121	1266.488	1066.756
-34.954	31.157	1264.465	1065.218
-33.940	31.133	1263.335	1064.084
-32.925	31.234	1262.390	1063.822
-31.911	31.266	1260.419	1062.301
-30.896	31.293	1259.399	1061.554
-29.881	31.390	1257.186	1060.199
-28.867	31.274	1256.203	1058.667
-27.852	31.353	1254.903	1057.975
-26.838	31.346	1253.534	1056.744
-25.823	31.323	1252.313	1055.544
-24.809	31.311	1250.714	1054.081
-23.794	31.245	1249.624	1052.750
-22.779	31.287	1248.275	1051.811
-21.765	31.323	1246.965	1050.868
-20.750	31.231	1245.592	1049.151
-19.736	31.228	1244.008	1047.757
-18.721	31.055	1243.345	1046.190
-17.706	31.097	1242.110	1045.344
-16.692	31.135	1240.802	1044.414
-15.677	31.156	1239.820	1043.660
-14.663	31.101	1238.672	1042.350
-13.648	31.170	1237.279	1041.520
-12.633	31.153	1236.416	1040.655
-11.619	31.184	1235.666	1040.156
-10.604	31.248	1234.838	1039.777
-9.590	31.117	1234.189	1038.459
-8.575	31.031	1233.610	1037.450
-7.560	31.051	1232.566	1036.643
-6.546	31.063	1231.386	1035.675
-5.531	31.040	1230.537	1034.794
-4.517	31.083	1229.946	1034.494
-3.502	31.104	1229.230	1033.968
-2.487	31.096	1228.002	1032.846
-1.473	31.126	1223.878	1029.503
-0.458	29.373	1209.347	1007.672
0.556	27.528	1192.067	969.763
1.571	23.646	1196.127	952.203
2.586	22.659	1210.572	958.256
3.600	22.130	1199.695	946.712
4.615	16.816	1128.444	863.405
5.629	8.026	1054.855	764.988
6.644	4.050	1035.364	732.020
7.659	3.574	1032.953	728.005
8.673	3.440	1031.336	726.172
9.688	3.487	1030.130	725.478
10.702	4.017	1028.447	726.718
11.717	9.493	1036.583	758.252
12.731	18.632	1048.621	810.344
13.746	23.560	1054.610	838.249
14.761	24.269	1055.374	842.130
15.775	23.874	1054.241	839.289
16.790	23.235	1052.486	834.805
17.804	22.910	1051.836	832.684
18.819	22.751	1050.977	831.179
19.834	22.847	1050.700	831.342
20.848	22.926	1050.370	831.378
21.863	22.820	1049.901	830.435
22.877	22.638	1049.140	828.905
23.892	22.546	1048.327	827.753
24.907	22.507	1046.884	826.362
25.921	22.503	1046.197	825.726
26.936	22.402	1044.737	824.026
27.950	22.461	1042.935	822.808
28.965	22.489	1041.946	822.085
29.980	22.533	1040.890	821.384
30.994	22.770	1039.629	821.423
32.009	22.789	1039.021	820.956
33.023	22.641	1038.175	819.527
34.038	22.653	1037.157	818.707
35.053	22.439	1036.144	816.843
36.067	22.393	1035.192	815.806
37.082	22.465	1034.377	815.426
38.096	22.667	1033.804	815.836
39.111	22.744	1033.137	815.593
40.126	22.514	1031.962	813.530
41.140	22.244	1030.256	810.869
42.155	21.835	1029.360	808.211
43.169	21.822	1028.018	807.024
44.184	21.913	1027.187	806.719
45.199	21.899	1026.331	805.910
46.213	22.075	1025.490	805.988
47.228	22.480	1025.389	807.693
48.242	22.695	1024.412	807.838
49.257	22.560	1023.698	806.584
50.271	22.626	1022.982	806.252
51.286	22.805	1022.491	806.612
52.301	22.923	1020.940	805.855
53.315	22.636	1020.263	803.938
54.330	22.466	1019.273	802.314
55.344	22.441	1018.391	801.433
56.359	22.430	1017.111	800.307
57.374	22.253	1016.848	799.225
58.388	22.096	1015.895	797.691
59.403	21.866	1015.154	795.999
60.417	21.929	1014.733	795.883
61.432	21.972	1013.720	795.212
62.447	21.837	1012.889	793.881
63.461	21.937	1011.708	793.334
64.476	21.845	1011.243	792.486
65.490	21.805	1009.889	791.173
66.505	21.861	1009.548	791.089
67.520	21.861	1009.120	790.680
68.534	21.739	1007.884	789.096
69.549	21.631	1007.079	787.908
70.563	21.360	1006.624	786.266
71.578	21.138	1005.516	784.331
72.593	20.975	1004.314	782.596
73.607	21.262	1003.704	783.337
74.622	21.381	1003.352	783.527
75.636	21.448	1002.387	783.004
76.651	21.382	1002.014	782.346
77.666	21.660	1001.249	782.923
78.680	21.544	1000.544	781.784
79.695	21.432	1000.336	781.053
80.709	21.765	999.632	781.919
81.724	21.768	999.211	781.535
82.739	22.032	998.865	782.369
83.753	22.385	998.694	783.739
84.768	22.935	997.863	785.466
85.782	23.109	997.376	785.784
86.797	23.103	996.499	784.999
87.812	22.885	995.323	783.037
88.826	22.748	994.796	781.943
89.841	22.926	994.002	782.038
90.855	22.984	992.826	781.298
91.870	23.066	991.761	780.756
92.884	23.043	990.688	779.739
93.899	22.962	989.670	778.512
94.914	23.020	988.994	778.169
95.928	23.018	987.864	777.199
96.943	22.730	987.016	775.200
97.957	22.648	986.468	774.343
98.972	22.692	985.763	773.911
99.987	22.786	984.771	773.477
101.001	22.693	983.753	772.200
102.016	22.632	982.722	771.057
103.030	22.801	982.386	771.463
104.045	22.866	981.590	771.053
105.060	22.830	980.323	769.834
106.074	22.435	979.443	767.353
107.089	22.296	978.290	765.778
108.103	22.168	976.715	763.921
109.118	21.777	976.097	761.673
110.133	21.597	974.611	759.665
111.147	21.546	973.928	758.845
112.162	21.697	973.465	759.068
113.176	21.834	972.845	759.114
114.191	21.927	972.392	759.092
115.206	21.905	971.384	758.143
116.220	21.806	970.534	756.987
117.235	21.937	968.837	756.160
118.249	21.645	968.791	754.799
119.264	21.570	967.670	753.535
120.279	21.406	966.965	752.215
121.293	21.468	966.099	751.741
122.308	21.393	964.995	750.496
123.322	21.152	964.167	748.752
124.337	21.339	962.925	748.521
125.352	21.335	962.046	747.756
126.366	21.371	961.053	747.067
127.381	21.449	960.917	747.231
128.395	21.634	960.128	747.341
129.410	21.579	959.436	746.503
130.424	21.867	958.329	746.799
131.439	21.982	957.804	746.814
132.454	22.179	957.035	746.987
133.468	21.979	956.495	745.648
134.483	22.127	955.245	745.238
135.497	22.129	954.520	744.615
136.512	22.130	954.046	744.181
137.527	22.172	953.204	743.637
138.541	22.132	952.677	742.989
139.556	22.221	952.155	742.896
140.570	22.582	951.549	743.880
141.585	22.789	950.876	744.160
142.600	22.854	950.365	743.970
143.614	22.984	949.634	743.879
144.629	22.955	948.829	743.062
145.643	22.944	947.427	741.848
146.658	22.604	945.612	738.938
147.673	22.481	944.803	737.725
148.687	22.351	943.848	736.370
149.702	22.070	942.853	734.355
150.716	21.993	942.060	733.349
151.731	22.100	941.665	733.425
152.746	22.277	941.092	733.652
153.760	22.278	940.728	733.307
154.775	22.520	939.855	733.569
155.789	22.556	939.138	733.094
156.804	22.612	937.767	732.191
157.819	22.585	937.612	731.896
158.833	22.812	937.128	732.395
159.848	23.141	935.988	732.800
160.862	22.741	935.066	730.361
161.877	22.254	933.579	727.118
162.892	22.119	932.293	725.497
163.906	22.041	931.142	724.216
164.921	22.099	930.666	724.022
165.935	22.070	930.030	723.342
166.950	22.212	928.996	723.058
167.964	22.295	928.519	722.963
168.979	22.141	927.108	721.169
169.994	22.131	926.205	720.362
171.008	22.277	925.879	720.645
172.023	22.644	925.598	721.861
173.037	22.965	924.609	722.342
174.052	22.589	923.806	720.114
175.067	22.231	922.489	717.564
176.081	21.827	921.966	715.443
177.096	21.770	921.495	714.783
178.110	21.866	920.634	714.442
179.125	21.988	919.964	714.355
180.140	22.155	919.641	714.719
181.154	22.489	919.779	716.123
182.169	22.659	919.378	716.437
183.183	22.738	918.895	716.317
184.198	22.476	918.280	714.712
185.213	22.559	917.283	714.212
186.227	22.535	916.857	713.718
187.242	22.703	916.315	713.914
188.256	22.878	915.567	713.974
189.271	22.821	915.072	713.296
190.286	22.621	913.623	711.297
191.300	22.146	912.107	708.140
192.315	21.641	911.631	705.674
193.329	21.740	911.207	705.681
194.344	21.928	910.906	706.143
195.359	22.304	910.113	706.975
196.373	22.362	910.122	707.154
197.388	22.682	909.750	708.088
198.402	23.009	909.970	709.509
199.417	23.123	908.998	709.145
200.432	23.245	909.012	709.583
201.446	23.138	908.573	708.748
202.461	23.276	907.900	708.713
203.475	22.967	906.738	706.506
204.490	22.635	905.728	704.333
205.504	22.536	905.270	703.517
206.519	22.594	904.414	703.022
207.534	22.570	903.486	702.142
208.548	22.755	902.569	702.106
209.563	22.648	902.258	701.376
210.577	22.632	901.910	700.979
211.592	23.098	901.181	702.202
212.607	23.146	901.160	702.313
213.621	23.097	899.911	701.082
214.636	23.042	899.504	700.485
215.650	22.946	898.449	699.223
216.665	22.921	898.230	698.891
217.680	23.097	897.442	698.911
218.694	23.190	896.878	698.780
219.709	22.895	896.186	697.011
220.723	22.855	895.847	696.531
221.738	22.561	895.203	694.808
222.753	22.616	894.585	694.482
223.767	22.972	893.963	695.341
224.782	23.032	893.728	695.331
225.796	23.094	893.566	695.387
226.811	22.982	892.128	693.768
227.826	22.510	891.435	691.317
228.840	22.664	890.145	690.859
229.855	22.571	889.745	690.122
230.869	22.448	889.162	689.129
231.884	22.483	888.544	688.725
232.899	22.506	887.728	688.122
233.913	22.310	887.325	686.983
234.928	22.187	886.093	685.490
235.942	22.071	885.758	684.717
236.957	22.110	885.150	684.337
237.972	22.104	884.903	684.064
238.986	22.132	884.028	683.435
240.001	22.201	883.561	683.280
241.015	22.281	882.905	683.024
242.030	22.465	882.467	683.340
243.045	22.625	882.023	683.554
244.059	22.561	881.645	682.956
245.074	22.795	880.931	683.247
246.088	22.823	880.593	683.033
247.103	23.093	880.363	683.839
248.117	23.297	880.333	684.542
249.132	23.823	880.090	686.324
250.147	24.154	879.421	687.018
251.161	24.058	879.431	686.596
252.176	24.208	878.531	686.411
253.190	24.175	877.961	685.777
254.205	24.116	877.285	684.961
255.220	23.946	876.495	683.629
256.234	23.901	875.837	682.885
257.249	23.796	875.613	682.246
258.263	23.781	874.493	681.257
259.278	23.775	873.819	680.646
260.293	23.839	873.278	680.412
261.307	23.935	873.365	680.787
262.322	24.049	872.124	680.192
263.336	23.931	871.524	679.215
264.351	23.717	870.587	677.609
265.366	23.894	869.777	677.591
266.380	24.003	869.896	678.039
267.395	23.997	869.041	677.291
268.409	23.835	868.039	675.832
269.424	23.696	867.450	674.787
270.439	23.822	866.477	674.450
271.453	23.681	865.671	673.227
272.468	23.476	865.512	672.269
273.482	23.637	864.999	672.421
274.497	23.635	864.299	671.808
275.512	23.569	863.717	671.046
276.526	23.536	863.807	670.932
277.541	23.712	862.944	670.868
278.555	23.959	862.725	671.571
279.570	24.238	862.200	672.156
280.585	24.147	861.651	671.326
281.599	23.852	860.347	669.138
282.614	23.566	859.763	667.549
283.628	23.372	859.495	666.552
284.643	23.519	858.637	666.383
285.657	23.500	858.156	665.878
286.672	23.566	857.182	665.311
287.687	23.743	856.583	665.450
288.701	23.603	856.594	664.873
289.716	23.667	855.563	664.256
290.730	23.729	855.513	664.391
291.745	23.814	854.651	663.979
292.760	24.090	853.941	664.398
293.774	24.197	854.158	664.907
294.789	24.138	853.299	663.961
295.803	23.773	852.692	662.070
296.818	23.700	851.479	660.798
297.833	23.693	850.708	660.114
298.847	23.746	850.169	659.833
299.862	23.841	849.616	659.699
300.876	23.981	849.670	660.204
301.891	24.186	849.712	660.937
302.906	24.331	848.910	660.793
303.920	24.425	848.836	661.024
304.935	24.591	848.275	661.145
305.949	24.417	847.049	659.487
306.964	24.051	846.527	657.668
307.979	24.076	845.571	656.962
308.993	24.197	845.446	657.254
310.008	24.234	845.061	657.031
311.022	24.129	844.280	655.979
312.037	23.935	843.544	654.635
313.052	23.654	842.555	652.779
314.066	23.402	841.872	651.263
315.081	23.326	841.175	650.387
316.095	23.510	840.914	650.803
317.110	23.537	840.431	650.473
318.125	23.350	839.703	649.168
319.139	23.216	838.829	647.943
320.154	23.237	838.513	647.717
321.168	23.353	838.249	647.882
322.183	23.522	837.554	647.905
323.197	23.540	837.288	647.708
324.212	23.527	837.026	647.398
325.227	23.450	836.286	646.487
326.241	23.557	835.347	646.094
327.256	23.443	834.587	645.036
328.270	23.441	833.960	644.488
329.285	23.372	833.534	643.850
330.300	23.270	832.727	642.797
331.314	23.244	832.752	642.667
332.329	23.698	832.870	644.348
333.343	23.983	832.254	644.849
334.358	24.018	831.760	644.534
335.373	23.830	831.769	643.804
336.387	24.020	831.556	644.271
337.402	24.236	830.974	644.543
338.416	24.400	831.032	645.125
339.431	24.511	831.355	645.719
340.446	24.628	830.633	645.526
341.460	24.707	830.077	645.322
342.475	24.699	829.993	645.169
343.489	24.884	829.448	645.356
344.504	24.907	829.224	645.207
345.519	25.123	828.744	645.552
346.533	24.901	827.987	644.109
347.548	24.581	826.996	642.131
348.562	24.184	826.502	640.265
349.577	24.277	825.488	639.755
350.592	24.119	824.931	638.700
351.606	23.969	823.901	637.308
352.621	24.058	823.413	637.196
353.635	24.063	822.642	636.560
354.650	23.950	822.260	635.805
355.665	24.099	821.520	635.705
356.679	24.320	821.166	636.164
357.694	24.278	820.739	635.627
358.708	24.258	819.757	634.739
359.723	24.285	818.989	634.186
360.738	24.063	818.634	633.065
361.752	24.263	818.023	633.248
362.767	24.682	817.921	634.599
363.781	24.745	817.888	634.740
364.796	24.959	817.606	635.226
365.810	25.115	817.176	635.389
366.825	25.096	816.788	634.962
367.840	24.974	815.911	633.794
368.854	24.788	814.919	632.309
369.869	24.710	814.607	631.737
370.883	24.657	814.014	631.033
371.898	24.848	813.888	631.553
372.913	24.964	813.706	631.767
373.927	24.609	813.077	629.968
374.942	24.761	812.650	630.119
375.956	24.824	812.420	630.107
376.971	25.116	812.000	630.754
377.986	25.318	811.593	631.090
379.000	25.142	811.069	630.008
380.015	25.163	810.215	629.363
381.029	25.099	809.590	628.597
382.044	25.054	809.584	628.381
383.059	25.326	808.899	628.746
384.073	25.041	808.201	627.150
385.088	24.665	806.930	624.796
386.102	24.494	806.065	623.470
387.117	24.368	805.989	622.919
388.132	24.353	805.208	622.207
389.146	24.418	805.160	622.341
390.161	24.896	804.781	623.659
391.175	24.949	804.819	623.816
392.190	24.914	803.397	622.540
393.205	24.521	802.637	620.530
394.219	24.284	801.956	619.126
395.234	24.033	801.847	618.115
396.248	24.300	801.197	618.485
397.263	24.354	801.020	618.481
398.278	24.228	800.273	617.415
399.292	24.001	799.709	616.137
400.307	24.023	799.364	615.893
401.321	23.949	799.242	615.490
402.336	24.376	798.691	616.487
403.350	24.663	798.695	617.427
404.365	25.067	798.562	618.663
405.380	25.350	798.000	619.149
406.394	25.407	797.766	619.111
407.409	25.410	797.296	618.699
408.423	25.443	796.904	618.455
409.438	25.526	796.927	618.704
410.453	25.507	796.123	617.958
411.467	25.620	795.573	617.867
412.482	25.583	795.396	617.549
413.496	25.817	794.713	617.765
414.511	25.703	794.852	617.426
415.526	25.558	794.200	616.370
416.540	25.462	793.497	615.440
417.555	25.397	792.994	614.772
418.569	25.470	792.305	614.433
419.584	25.359	792.234	613.945
420.599	25.409	791.558	613.537
421.613	163.053	1370.051	1794.017
422.628	141.353	1454.321	1794.103
