DTS Sentinel unit serial number:	SN413079Multiplexer serial number:	ORYXHardware model number:	OX4-SRSoftware version number:	ORYX F/W v4.00 Oryx Data Collector v3.7.2.0data status	okinstallation	princeton_trtdifferential loss correction	single-endedforward channel	channel 1reverse channel	N/Adate	2019/09/19time	09:54:35forward acquisition time	60.00reverse acquisition time	0.00gamma	496.2192k internal	0.2339k external	0.2339temperature offset calibration	1.0005default loss term (dB/km)	0.3790temperature slope calibration	1.0000multiplexer offset coefficient	1.0000multiplexer slope coefficient	1.0000fibre end	0.00T internal ref (°C)	23.56T ext. ref 1 (°C)	0.66T ext. ref 2 (°C)	19.42length (m)	temperature (°C)	Stokes	anti-Stokes-747.200	-132.379	0.317	-0.041
-746.185	148.647	0.095	0.129
-745.171	144.885	-0.039	-0.052
-744.156	44.156	-0.284	0.261
-743.142	157.975	0.073	-0.102
-742.127	381.157	0.087	0.180
-741.112	-66.904	0.467	0.185
-740.098	-83.787	0.150	0.048
-739.083	-200.000	0.014	-0.196
-738.069	-200.000	-0.018	0.162
-737.054	-200.000	-0.011	-0.147
-736.039	-40.114	-0.109	-0.057
-735.025	800.000	-0.057	0.231
-734.010	52.021	-0.083	0.079
-732.996	166.312	0.045	0.063
-731.981	-188.563	0.127	0.002
-730.966	800.000	-0.063	-0.193
-729.952	-200.000	-0.035	0.236
-728.937	25.465	-0.238	-0.199
-727.923	-200.000	-0.016	-0.122
-726.908	683.692	0.092	-0.241
-725.894	-2.360	-0.273	-0.192
-724.879	-123.399	0.149	0.024
-723.864	-77.823	-0.352	0.122
-722.850	-83.558	0.227	0.073
-721.835	800.000	0.066	-0.212
-720.821	89.916	-0.106	0.119
-719.806	-41.007	0.052	-0.027
-718.791	263.871	0.082	0.143
-717.777	708.862	0.037	-0.098
-716.762	800.000	-0.039	-0.157
-715.748	800.000	0.043	-0.135
-714.733	-200.000	0.009	-0.129
-713.718	-91.357	0.223	0.064
-712.704	-13.433	0.195	-0.127
-711.689	-130.337	0.091	0.012
-710.675	800.000	0.015	-0.049
-709.660	-150.891	-0.161	-0.012
-708.645	-121.608	0.270	-0.045
-707.631	-200.000	-0.036	0.436
-706.616	-31.196	0.213	-0.120
-705.602	-56.852	-0.322	-0.142
-704.587	-200.000	0.020	-0.253
-703.572	120.759	-0.213	0.265
-702.558	-89.505	-0.216	-0.063
-701.543	-9.526	-0.254	0.170
-700.529	-200.000	0.003	-0.052
-699.514	-139.642	0.183	0.020
-698.499	453.817	-0.128	0.285
-697.485	-200.000	-0.007	-0.208
-696.470	23.992	0.256	0.211
-695.456	-76.116	0.265	0.094
-694.441	-10.792	0.213	0.141
-693.426	-81.758	-0.235	-0.077
-692.412	160.904	0.102	-0.143
-691.397	-200.000	0.026	-0.281
-690.383	-76.877	0.263	-0.092
-689.368	-73.824	-0.473	-0.172
-688.354	-200.000	0.000	-0.165
-687.339	-81.339	-0.329	-0.109
-686.324	171.107	0.091	0.131
-685.310	773.416	0.107	0.292
-684.295	800.000	-0.043	-0.169
-683.281	-151.360	-0.206	-0.015
-682.266	36.880	0.204	-0.180
-681.251	-200.000	-0.012	-0.342
-680.237	-58.063	0.052	-0.022
-679.222	800.000	-0.010	0.029
-678.208	181.126	0.161	-0.237
-677.193	-189.790	-0.491	0.006
-676.178	-81.758	-0.295	-0.097
-675.164	-32.217	0.234	-0.131
-674.149	-130.261	-0.232	-0.032
-673.135	800.000	-0.057	-0.214
-672.120	-200.000	0.047	0.451
-671.105	-39.844	0.223	0.116
-670.091	-200.000	-0.048	0.228
-669.076	35.224	0.055	0.048
-668.062	-165.503	-0.162	0.007
-667.047	130.937	-0.030	-0.038
-666.032	200.479	-0.113	0.173
-665.018	368.919	0.098	-0.199
-664.003	-200.000	0.019	-0.160
-662.989	-200.000	-0.013	0.217
-661.974	-115.240	-0.218	-0.041
-660.959	132.957	0.117	0.151
-659.945	220.553	0.138	0.221
-658.930	-200.000	0.022	0.190
-657.916	-99.646	0.408	0.102
-656.901	800.000	0.070	-0.278
-655.886	62.290	0.211	-0.210
-654.872	-156.998	0.279	0.017
-653.857	47.357	-0.069	-0.064
-652.843	-200.000	-0.002	-0.221
-651.828	473.913	0.126	0.284
-650.814	39.142	0.187	-0.167
-649.799	-67.303	-0.178	0.070
-648.784	-152.801	-0.032	-0.002
-647.770	24.518	-0.163	-0.134
-646.755	-200.000	0.010	0.232
-645.741	800.000	-0.062	-0.189
-644.726	800.000	-0.061	-0.183
-643.711	-97.071	-0.284	-0.074
-642.697	-32.803	0.292	0.162
-641.682	-56.968	-0.303	0.133
-640.668	-18.530	0.081	0.050
-639.653	-7.103	0.167	-0.113
-638.638	-200.000	-0.052	-0.479
-637.624	-161.506	-0.264	-0.014
-636.609	-104.814	0.185	-0.042
-635.595	800.000	-0.043	0.174
-634.580	-108.792	0.177	-0.038
-633.565	203.596	-0.103	-0.160
-632.551	-75.033	-0.202	-0.072
-631.536	-84.330	-0.429	-0.136
-630.522	-150.168	-0.258	0.020
-629.507	-61.910	-0.113	-0.047
-628.492	-61.140	0.095	0.040
-627.478	-50.833	0.220	0.103
-626.463	348.137	0.115	0.227
-625.449	-127.295	-0.174	-0.025
-624.434	-43.944	-0.229	-0.115
-623.419	383.811	0.084	0.173
-622.405	62.273	0.111	-0.110
-621.390	800.000	0.069	-0.198
-620.376	60.252	-0.118	0.117
-619.361	23.056	0.372	0.304
-618.346	163.634	0.146	0.205
-617.332	-200.000	0.026	-0.116
-616.317	-200.000	-0.017	-0.102
-615.303	-92.696	-0.266	-0.074
-614.288	-52.597	0.162	-0.075
-613.273	40.839	0.035	-0.031
-612.259	-148.085	-0.220	0.018
-611.244	-94.268	-0.321	0.088
-610.230	-143.720	0.368	-0.035
-609.215	151.435	0.262	-0.356
-608.201	800.000	-0.097	0.335
-607.186	393.180	-0.033	-0.069
-606.171	51.824	0.190	-0.180
-605.157	43.268	-0.045	-0.041
-604.142	430.535	-0.113	0.244
-603.128	-130.613	0.249	-0.033
-602.113	552.809	0.064	-0.154
-601.098	-62.939	-0.303	0.125
-600.084	-73.683	0.310	0.113
-599.069	260.652	-0.176	0.304
-598.055	355.872	0.071	-0.141
-597.040	-200.000	0.037	0.210
-596.025	800.000	-0.054	0.208
-595.011	-17.633	-0.361	0.226
-593.996	-16.523	-0.212	-0.134
-592.982	-200.000	0.009	-0.087
-591.967	83.662	-0.151	0.164
-590.952	714.616	-0.042	0.111
-589.938	-113.216	-0.053	0.010
-588.923	-200.000	-0.060	0.326
-587.909	-78.408	-0.097	-0.033
-586.894	91.779	-0.141	0.159
-585.879	-51.588	-0.210	0.098
-584.865	181.776	-0.102	-0.150
-583.850	315.725	0.120	0.226
-582.836	-62.912	0.064	-0.026
-581.821	604.337	0.075	0.187
-580.806	-29.211	-0.248	0.142
-579.792	-71.848	0.133	-0.050
-578.777	442.493	-0.106	0.231
-577.763	-142.165	-0.064	-0.006
-576.748	161.943	-0.122	-0.170
-575.733	337.003	0.069	0.133
-574.719	65.550	0.267	-0.269
-573.704	-145.187	-0.160	-0.014
-572.690	-90.557	0.070	0.020
-571.675	800.000	0.045	0.131
-570.661	-147.230	0.220	0.019
-569.646	-200.000	0.000	0.144
-568.631	112.435	0.117	0.140
-567.617	142.813	0.061	-0.080
-566.602	256.648	0.188	-0.321
-565.588	71.600	-0.021	0.021
-564.573	477.687	-0.155	-0.349
-563.558	85.663	0.129	-0.141
-562.544	-76.775	0.259	-0.090
-561.529	-79.362	0.207	0.070
-560.515	-90.815	-0.179	-0.051
-559.500	-123.109	0.136	-0.022
-558.485	-128.265	0.501	0.071
-557.471	359.021	0.218	0.433
-556.456	-44.608	0.266	-0.133
-555.442	-136.090	0.382	-0.045
-554.427	-107.517	-0.376	-0.082
-553.412	-180.700	-0.090	-0.002
-552.398	-200.000	-0.079	0.466
-551.383	-146.712	0.275	0.024
-550.369	49.199	-0.212	-0.198
-549.354	800.000	0.101	0.349
-548.339	-72.399	0.007	-0.003
-547.325	126.894	0.178	0.224
-546.310	-117.241	-0.124	0.022
-545.296	79.025	0.259	-0.275
-544.281	198.989	-0.066	0.101
-543.266	-200.000	0.057	-0.283
-542.252	-200.000	0.058	-0.278
-541.237	229.089	0.189	0.307
-540.223	-136.724	-0.288	-0.033
-539.208	164.455	-0.070	-0.098
-538.193	-200.000	0.026	-0.210
-537.179	-158.152	0.419	-0.024
-536.164	156.212	-0.132	-0.181
-535.150	-200.000	0.000	0.196
-534.135	-165.397	-0.243	-0.011
-533.121	-199.379	-0.245	0.001
-532.106	-89.830	-0.081	-0.024
-531.091	-87.637	-0.277	-0.083
-530.077	-53.094	0.189	0.086
-529.062	-71.336	-0.381	0.142
-528.048	-200.000	0.036	0.430
-527.033	-24.143	-0.114	0.068
-526.018	10.907	0.239	-0.181
-525.004	-90.135	-0.437	-0.126
-523.989	-200.000	0.010	-0.139
-522.975	276.008	0.060	-0.106
-521.960	-99.599	-0.061	0.015
-520.945	-200.000	-0.042	-0.244
-519.931	152.998	0.042	0.057
-518.916	65.953	-0.209	-0.211
-517.902	-200.000	-0.045	-0.288
-516.887	136.484	0.294	-0.382
-515.872	-126.140	-0.217	0.032
-514.858	800.000	0.049	-0.182
-513.843	800.000	-0.091	0.288
-512.829	123.084	0.188	-0.234
-511.814	510.336	0.109	0.253
-510.799	14.746	-0.389	0.302
-509.785	-41.463	0.063	0.032
-508.770	-36.890	0.232	0.124
-507.756	-33.314	0.111	0.061
-506.741	207.736	-0.074	0.114
-505.726	-200.000	0.043	-0.213
-504.712	98.202	-0.191	-0.219
-503.697	338.416	-0.043	-0.083
-502.683	-123.665	-0.077	-0.012
-501.668	145.829	0.189	-0.252
-500.653	-66.995	-0.356	0.139
-499.639	222.797	0.122	0.196
-498.624	-5.268	0.072	0.049
-497.610	800.000	0.094	0.359
-496.595	-44.761	-0.344	0.171
-495.581	-0.092	0.198	-0.140
-494.566	109.943	0.114	-0.136
-493.551	-200.000	0.013	0.322
-492.537	164.806	0.145	0.203
-491.522	-160.078	0.196	-0.011
-490.508	197.756	0.038	0.058
-489.493	169.067	0.251	0.356
-488.478	66.072	-0.248	-0.249
-487.464	-200.000	-0.018	-0.296
-486.449	313.959	-0.165	-0.308
-485.435	-91.275	-0.439	0.125
-484.420	604.122	-0.128	-0.316
-483.405	-112.965	-0.137	-0.027
-482.391	800.000	-0.046	-0.150
-481.376	-83.177	-0.137	0.044
-480.362	23.831	0.064	-0.053
-479.347	-200.000	-0.012	0.136
-478.332	69.040	0.107	0.109
-477.318	-137.995	0.192	0.021
-476.303	218.946	-0.126	-0.200
-475.289	-3.750	0.209	-0.144
-474.274	318.782	0.169	-0.318
-473.259	24.100	0.060	0.049
-472.245	789.358	-0.054	-0.146
-471.230	-129.148	-0.080	-0.011
-470.216	-135.645	0.103	0.012
-469.201	-89.352	-0.143	-0.042
-468.186	67.767	0.236	0.240
-467.172	143.484	0.231	0.305
-466.157	-131.846	0.195	0.025
-465.143	272.506	-0.132	-0.231
-464.128	50.300	0.129	0.121
-463.113	-87.950	0.444	-0.132
-462.099	-58.418	-0.216	0.093
-461.084	-172.485	-0.422	-0.013
-460.070	-12.037	-0.107	0.070
-459.055	-87.339	0.170	-0.051
-458.040	-200.000	0.026	0.136
-457.026	-200.000	0.005	0.031
-456.011	-200.000	0.011	-0.351
-454.997	-134.700	-0.394	0.047
-453.982	-80.816	0.378	0.124
-452.968	-40.602	0.367	-0.189
-451.953	800.000	0.037	-0.136
-450.938	-32.283	-0.362	-0.200
-449.924	-86.423	0.204	0.062
-448.909	-42.247	0.190	0.096
-447.895	-70.069	-0.320	0.121
-446.880	-4.230	-0.145	-0.100
-445.865	47.192	-0.091	0.084
-444.851	55.090	-0.126	-0.121
-443.836	-66.244	-0.309	0.122
-442.822	-73.128	-0.136	0.050
-441.807	188.787	-0.108	0.159
-440.792	-134.673	0.193	0.023
-439.778	-200.000	-0.015	-0.069
-438.763	429.522	-0.076	-0.162
-437.749	1.710	-0.188	-0.134
-436.734	98.131	-0.191	-0.218
-435.719	-65.027	0.187	0.075
-434.705	22.996	0.382	0.310
-433.690	205.738	-0.091	-0.140
-432.676	-125.750	-0.127	0.019
-431.661	-105.179	-0.052	-0.012
-430.646	-128.192	-0.146	-0.021
-429.632	-15.310	0.124	-0.079
-428.617	-136.778	-0.175	-0.020
-427.603	-200.000	0.036	-0.237
-426.588	800.000	0.069	0.269
-425.573	-59.315	-0.331	0.141
-424.559	258.399	-0.104	0.177
-423.544	-130.543	0.367	-0.049
-422.530	800.000	0.083	0.319
-421.515	268.504	-0.069	0.120
-420.500	645.516	-0.061	0.154
-419.486	5.347	0.101	-0.074
-418.471	104.822	-0.290	-0.339
-417.457	-64.509	0.181	-0.073
-416.442	-62.345	0.294	0.121
-415.428	203.836	0.091	-0.139
-414.413	-200.000	0.002	0.094
-413.398	-164.505	-0.200	0.009
-412.384	800.000	-0.024	-0.101
-411.369	-98.304	0.353	0.090
-410.355	-200.000	-0.003	-0.056
-409.340	144.178	0.248	0.327
-408.325	800.000	0.061	0.216
-407.311	-53.702	0.154	-0.070
-406.296	-137.383	-0.214	-0.024
-405.282	-199.808	0.070	-0.000
-404.267	-86.518	-0.214	0.065
-403.252	-168.398	-0.155	0.006
-402.238	-15.308	-0.230	0.146
-401.223	-200.000	-0.031	0.231
-400.209	-95.965	-0.085	-0.022
-399.194	13.130	0.169	0.129
-398.179	157.601	-0.175	-0.240
-397.165	-23.274	-0.291	-0.173
-396.150	-70.972	0.180	-0.067
-395.136	-93.224	-0.193	0.053
-394.121	61.724	-0.183	0.180
-393.106	-106.643	-0.018	-0.004
-392.092	-109.708	0.079	0.016
-391.077	-72.313	-0.099	0.036
-390.063	128.638	-0.230	0.289
-389.048	-105.731	0.281	-0.063
-388.033	-200.000	0.012	-0.199
-387.019	-50.465	-0.122	0.057
-386.004	-200.000	0.007	0.131
-384.990	196.737	-0.148	-0.224
-383.975	-15.691	0.303	-0.191
-382.960	-164.138	-0.226	0.010
-381.946	6.537	0.191	0.140
-380.931	-200.000	-0.042	0.186
-379.917	-181.310	0.277	-0.005
-378.902	52.746	0.212	0.200
-377.888	800.000	-0.043	0.158
-376.873	118.239	0.210	0.256
-375.858	22.729	0.128	-0.104
-374.844	-64.024	-0.176	-0.071
-373.829	-76.793	0.318	0.110
-372.815	800.000	0.110	0.469
-371.800	-35.542	0.032	0.017
-370.785	-48.693	-0.307	0.146
-369.771	560.237	-0.013	-0.031
-368.756	3.367	0.084	0.060
-367.742	651.335	-0.071	0.179
-366.727	800.000	0.048	-0.147
-365.712	98.407	-0.084	-0.095
-364.698	-26.510	0.203	0.118
-363.683	208.283	-0.132	-0.203
-362.669	54.351	-0.319	0.303
-361.654	-11.495	0.075	0.049
-360.639	-76.811	-0.065	-0.022
-359.625	41.011	-0.405	-0.361
-358.610	156.719	0.227	-0.309
-357.596	-82.127	-0.256	-0.082
-356.581	-41.995	-0.031	0.016
-355.566	704.614	-0.098	0.255
-354.552	33.604	0.096	0.083
-353.537	-144.488	0.306	0.028
-352.523	67.275	0.184	-0.186
-351.508	-200.000	-0.024	-0.219
-350.493	57.852	-0.165	-0.160
-349.479	-200.000	-0.061	-0.312
-348.464	-61.005	0.248	0.104
-347.450	-142.741	-0.161	-0.015
-346.435	-116.822	-0.358	0.065
-345.420	-200.000	-0.017	-0.206
-344.406	-153.835	-0.263	0.018
-343.391	800.000	0.056	0.193
-342.377	58.512	0.248	-0.240
-341.362	79.013	-0.016	-0.017
-340.348	-29.321	-0.285	0.161
-339.333	-38.121	0.274	0.144
-338.318	-200.000	0.058	-0.386
-337.304	800.000	0.068	0.249
-336.289	-39.902	0.173	-0.089
-335.275	-152.117	0.071	-0.005
-334.260	800.000	-0.048	0.203
-333.245	-41.247	0.197	0.100
-332.231	268.965	0.048	-0.082
-331.216	-200.000	-0.016	0.166
-330.202	-42.690	-0.269	0.135
-329.187	110.500	-0.079	0.094
-328.172	374.088	-0.158	0.317
-327.158	82.438	-0.026	0.028
-326.143	-200.000	-0.001	0.066
-325.129	800.000	-0.065	-0.262
-324.114	101.314	-0.114	0.131
-323.099	381.248	0.035	-0.070
-322.085	91.458	0.117	-0.129
-321.070	715.952	0.067	0.175
-320.056	-200.000	-0.017	0.086
-319.041	189.107	0.101	0.149
-318.026	-25.931	0.102	0.059
-317.012	-93.687	0.158	-0.043
-315.997	-200.000	0.029	-0.157
-314.983	169.346	0.113	0.159
-313.968	-57.883	-0.122	0.053
-312.953	-44.778	-0.153	-0.075
-311.939	-200.000	-0.048	-0.255
-310.924	-89.835	0.363	0.105
-309.910	13.114	-0.123	0.094
-308.895	-34.840	0.364	0.196
-307.880	-96.988	-0.079	0.020
-306.866	800.000	-0.126	0.401
-305.851	24.169	-0.091	0.074
-304.837	-168.348	-0.281	0.011
-303.822	-200.000	0.015	-0.083
-302.807	-200.000	0.140	-0.000
-301.793	539.780	0.178	-0.417
-300.778	336.194	0.034	-0.066
-299.764	-106.690	-0.172	-0.038
-298.749	-85.905	-0.218	-0.066
-297.735	293.794	-0.193	0.347
-296.720	285.647	0.081	0.144
-295.705	32.618	0.276	0.235
-294.691	-200.000	0.004	0.306
-293.676	189.241	0.054	0.080
-292.662	75.198	0.140	-0.145
-291.647	452.378	0.146	-0.319
-290.632	26.258	-0.092	-0.076
-289.618	-67.407	-0.242	-0.094
-288.603	-98.135	-0.071	0.018
-287.589	-183.444	-0.177	-0.003
-286.574	123.537	0.165	0.203
-285.559	744.306	-0.049	-0.131
-284.545	-200.000	0.094	0.429
-283.530	800.000	0.022	0.062
-282.516	800.000	0.035	-0.095
-281.501	649.188	-0.035	0.087
-280.486	-200.000	-0.019	0.223
-279.472	-124.436	-0.128	-0.020
-278.457	-43.357	0.121	0.060
-277.443	314.661	-0.256	-0.476
-276.428	-200.000	0.018	-0.214
-275.413	800.000	0.034	-0.114
-274.399	114.975	0.134	-0.161
-273.384	228.901	0.218	0.351
-272.370	90.586	0.115	-0.127
-271.355	77.844	0.116	0.122
-270.340	-103.308	0.469	0.109
-269.326	-200.000	0.002	-0.071
-268.311	1.492	-0.071	0.050
-267.297	-83.857	-0.392	-0.123
-266.282	184.611	-0.036	-0.053
-265.267	13.970	-0.135	-0.104
-264.253	-3.635	0.183	0.125
-263.238	-156.829	-0.232	-0.014
-262.224	-27.430	-0.108	0.062
-261.209	187.869	-0.119	-0.176
-260.195	85.796	-0.058	-0.063
-259.180	-200.000	0.027	-0.295
-258.165	-200.000	-0.036	-0.162
-257.151	70.798	0.202	0.205
-256.136	-133.663	-0.122	-0.015
-255.122	380.671	0.059	0.118
-254.107	-131.202	-0.043	0.006
-253.092	-200.000	-0.005	0.080
-252.078	121.149	0.196	0.240
-251.063	492.606	0.068	0.154
-250.049	-200.000	0.007	0.076
-249.034	393.714	0.080	-0.165
-248.019	-200.000	0.009	-0.193
-247.005	-167.277	-0.272	0.011
-245.990	-56.875	-0.166	-0.072
-244.976	-150.621	0.046	-0.003
-243.961	283.477	0.057	-0.100
-242.946	-17.343	0.256	0.158
-241.932	-133.629	-0.334	-0.041
-240.917	20.508	0.236	-0.187
-239.903	-200.000	-0.010	-0.048
-238.888	523.223	0.137	-0.317
-237.873	51.182	0.063	-0.059
-236.859	327.541	0.177	-0.334
-235.844	-118.760	-0.297	0.052
-234.830	149.080	0.102	0.136
-233.815	458.712	0.214	-0.468
-232.800	750.106	0.097	-0.259
-231.786	265.167	0.043	-0.073
-230.771	240.889	0.133	-0.219
-229.757	-56.216	0.367	0.161
-228.742	-53.210	-0.198	-0.089
-227.727	204.754	0.164	-0.249
-226.713	28.195	0.235	-0.195
-225.698	12.337	-0.111	-0.084
-224.684	-122.032	-0.284	0.046
-223.669	-138.969	0.121	0.013
-222.655	-145.163	0.064	0.006
-221.640	-49.640	0.296	-0.138
-220.625	-144.516	-0.311	-0.028
-219.611	800.000	-0.144	-0.455
-218.596	800.000	0.026	0.109
-217.582	77.391	-0.059	-0.062
-216.567	48.823	-0.012	0.011
-215.552	113.719	0.195	-0.233
-214.538	-96.509	-0.217	0.056
-213.523	-23.728	0.080	-0.047
-212.509	-200.000	0.022	0.138
-211.494	2.131	0.200	-0.142
-210.479	-71.517	0.130	-0.048
-209.465	-200.000	-0.048	-0.241
-208.450	800.000	-0.021	-0.083
-207.436	67.085	0.097	-0.097
-206.421	-99.460	-0.373	-0.092
-205.406	-200.000	-0.010	0.253
-204.392	57.734	0.198	-0.190
-203.377	-91.469	-0.102	-0.029
-202.363	-96.812	0.225	-0.058
-201.348	800.000	0.110	0.436
-200.333	-200.000	-0.003	0.096
-199.319	29.993	-0.126	0.106
-198.304	-200.000	-0.063	-0.343
-197.290	-200.000	0.004	-0.168
-196.275	-86.255	0.346	0.105
-195.260	126.079	0.161	0.200
-194.246	298.929	0.150	-0.271
-193.231	800.000	0.089	-0.375
-192.217	-200.000	-0.009	0.235
-191.202	800.000	0.008	-0.025
-190.187	800.000	0.074	0.207
-189.173	128.924	-0.157	-0.197
-188.158	412.306	-0.058	0.121
-187.144	-61.775	-0.102	-0.042
-186.129	-48.308	0.353	0.167
-185.114	286.790	-0.114	-0.203
-184.100	-49.418	0.217	0.102
-183.085	-200.000	-0.028	0.132
-182.071	-200.000	-0.021	0.154
-181.056	708.635	0.040	0.105
-180.042	-200.000	-0.043	-0.198
-179.027	-111.870	0.167	-0.033
-178.012	-200.000	-0.035	0.184
-176.998	800.000	-0.021	-0.092
-175.983	-200.000	0.013	-0.251
-174.969	-2.908	0.197	0.135
-173.954	344.351	-0.074	0.143
-172.939	-200.000	-0.044	0.362
-171.925	-198.961	0.212	0.001
-170.910	-127.022	-0.331	-0.048
-169.896	-125.150	-0.189	0.028
-168.881	492.731	-0.098	-0.219
-167.866	-163.958	0.158	0.007
-166.852	34.630	0.157	-0.135
-165.837	173.635	-0.077	0.109
-164.823	597.445	-0.136	-0.329
-163.808	-104.096	-0.164	0.037
-162.793	-200.000	0.003	0.061
-161.779	800.000	-0.075	-0.219
-160.764	166.901	0.077	0.107
-159.750	-161.822	0.213	-0.011
-158.735	-120.717	0.336	-0.056
-157.720	25.071	-0.110	-0.090
-156.706	-200.000	0.002	-0.088
-155.691	-200.000	-0.000	0.178
-154.677	396.297	0.132	0.270
-153.662	-185.049	-0.506	-0.008
-152.647	-162.482	-0.042	0.002
-151.633	548.550	-0.157	0.370
-150.618	44.166	0.024	0.021
-149.604	800.000	0.116	0.375
-148.589	800.000	0.064	-0.203
-147.574	-166.498	0.238	0.010
-146.560	-87.019	-0.104	-0.031
-145.545	-62.408	-0.078	0.032
-144.531	-78.844	0.018	-0.006
-143.516	572.388	0.077	0.184
-142.502	25.326	-0.058	-0.047
-141.487	7.290	0.213	0.156
-140.472	-26.183	0.308	0.177
-139.458	189.618	0.160	0.235
-138.443	-113.251	0.220	-0.042
-137.429	330.279	-0.166	0.313
-136.414	-62.447	-0.078	0.032
-135.399	380.726	0.120	0.240
-134.385	357.723	0.171	0.334
-133.370	-200.000	-0.006	-0.261
-132.356	-2.570	-0.363	-0.249
-131.341	-3.524	0.318	-0.217
-130.326	800.000	0.084	-0.305
-129.312	136.798	0.100	-0.128
-128.297	266.535	-0.035	0.060
-127.283	40.486	0.166	0.147
-126.268	-118.962	-0.462	-0.079
-125.253	-158.035	0.140	-0.008
-124.239	-63.018	-0.182	0.074
-123.224	-54.289	0.133	0.059
-122.210	-200.000	-0.007	-0.648
-121.195	-5.646	0.135	-0.091
-120.180	-70.763	-0.302	0.112
-119.166	21.187	0.238	-0.189
-118.151	-26.051	0.358	-0.206
-117.137	-66.709	0.259	-0.100
-116.122	-104.133	0.250	-0.057
-115.107	-200.000	-0.011	-0.124
-114.093	-124.558	-0.083	-0.013
-113.078	-160.434	-0.310	0.016
-112.064	443.821	-0.007	0.016
-111.049	505.819	-0.161	0.364
-110.034	25.636	0.271	0.220
-109.020	-114.914	-0.340	-0.063
-108.005	-200.000	-0.247	0.000
-106.991	-200.000	-0.036	0.203
-105.976	800.000	-0.050	0.211
-104.962	118.027	0.077	0.093
-103.947	244.689	-0.051	-0.083
-102.932	-103.000	0.148	0.034
-101.918	153.980	0.122	0.164
-100.903	-111.119	-0.145	-0.029
-99.889	-79.214	0.353	0.117
-98.874	-92.909	-0.175	0.048
-97.859	-165.764	0.214	0.009
-96.845	-101.023	0.200	-0.048
-95.830	-200.000	0.033	0.213
-94.816	559.021	0.055	-0.130
-93.801	-200.000	-0.015	0.078
-92.786	800.000	0.050	-0.200
-91.772	-12.329	0.349	-0.223
-90.757	151.990	-0.102	0.135
-89.743	44.517	0.104	-0.094
-88.728	-200.000	0.010	-0.182
-87.713	-193.336	-0.058	-0.000
-86.699	800.000	0.055	0.210
-85.684	-200.000	-0.023	-0.127
-84.670	102.505	-0.373	0.426
-83.655	800.000	0.063	0.188
-82.640	-200.000	0.025	0.114
-81.626	-55.632	-0.303	0.132
-80.611	283.354	-0.048	-0.083
-79.597	71.590	0.124	-0.126
-78.582	-200.000	0.037	-0.311
-77.567	1.866	-0.123	-0.087
-76.553	-91.486	-0.298	0.083
-75.538	800.000	-0.027	0.100
-74.524	800.000	0.104	0.285
-73.509	138.940	-0.144	-0.185
-72.494	68.167	0.117	-0.117
-71.480	-17.083	0.344	0.212
-70.465	225.868	-0.072	0.114
-69.451	800.000	-0.020	0.072
-68.436	-200.000	0.026	-0.184
-67.422	-65.554	-0.364	-0.143
-66.407	-69.828	-0.071	-0.026
-65.392	4.959	0.164	0.118
-64.378	387.895	0.059	-0.120
-63.363	-200.000	0.041	-0.210
-62.349	800.000	-0.077	0.267
-61.334	174.107	-0.923	-1.303
-60.319	28.705	0.757	0.626
-59.305	-200.000	-0.189	-1.399
-58.290	770.373	0.538	1.431
-57.276	678.305	0.682	1.733
-56.261	-200.000	122.392	615.326
-55.246	386.634	1567.665	3160.932
-54.232	140.456	2741.461	3532.788
-53.217	93.854	2182.141	2414.570
-52.203	35.353	1608.487	1377.227
-51.188	26.850	1349.598	1104.019
-50.173	24.161	1312.501	1057.690
-49.159	50.651	1380.311	1275.021
-48.144	48.021	1392.143	1269.862
-47.130	26.903	1340.112	1096.406
-46.115	23.630	1321.249	1061.397
-45.100	23.663	1315.299	1056.769
-44.086	23.469	1313.435	1054.076
-43.071	23.413	1311.307	1051.992
-42.057	23.366	1309.528	1050.246
-41.042	23.549	1307.444	1049.617
-40.027	23.456	1306.116	1047.960
-39.013	23.447	1304.259	1046.372
-37.998	23.398	1302.303	1044.476
-36.984	23.626	1300.754	1044.532
-35.969	23.533	1299.009	1042.545
-34.954	23.635	1297.160	1041.616
-33.940	23.575	1296.345	1040.569
-32.925	23.624	1294.960	1039.701
-31.911	23.539	1293.107	1037.680
-30.896	23.824	1291.500	1038.013
-29.881	23.595	1290.683	1035.978
-28.867	23.727	1289.069	1035.409
-27.852	23.733	1287.322	1034.001
-26.838	23.626	1286.622	1032.777
-25.823	23.694	1285.015	1031.836
-24.809	23.597	1283.910	1030.348
-23.794	23.678	1282.250	1029.445
-22.779	23.676	1281.069	1028.443
-21.765	23.645	1280.101	1027.444
-20.750	23.638	1278.392	1025.993
-19.736	23.532	1277.593	1024.697
-18.721	23.471	1276.106	1023.113
-17.706	23.599	1274.972	1022.902
-16.692	23.466	1274.506	1021.722
-15.677	23.584	1273.099	1021.233
-14.663	23.538	1271.726	1019.823
-13.648	23.523	1270.914	1019.048
-12.633	23.488	1269.603	1017.756
-11.619	23.433	1269.419	1017.251
-10.604	23.463	1268.030	1016.269
-9.590	23.456	1267.604	1015.851
-8.575	23.552	1266.369	1015.370
-7.560	23.453	1264.905	1013.587
-6.546	23.524	1264.166	1013.359
-5.531	23.443	1263.530	1012.347
-4.517	23.547	1262.648	1012.194
-3.502	23.546	1262.115	1011.723
-2.487	23.476	1261.180	1010.532
-1.473	23.470	1256.710	1006.876
-0.458	22.354	1241.688	988.536
0.556	18.119	1226.798	954.103
1.571	14.766	1234.853	941.415
2.586	14.061	1250.054	948.901
3.600	13.879	1238.281	938.852
4.615	10.404	1164.883	864.610
5.629	3.857	1092.841	778.201
6.644	0.895	1075.539	751.130
7.659	0.646	1073.904	748.689
8.673	0.550	1072.720	747.322
9.688	0.559	1071.624	746.537
10.702	0.860	1069.316	746.348
11.717	4.782	1073.541	768.625
12.731	11.588	1082.984	809.118
13.746	15.956	1088.361	834.758
14.761	17.127	1089.380	841.270
15.775	16.512	1087.903	837.010
16.790	15.522	1086.169	830.710
17.804	14.667	1084.364	825.031
18.819	14.491	1083.221	823.217
19.834	14.182	1082.371	820.974
20.848	14.086	1080.996	819.387
21.863	13.698	1080.475	817.006
22.877	13.614	1079.456	815.749
23.892	13.407	1079.063	814.365
24.907	13.539	1078.318	814.379
25.921	13.619	1077.202	813.858
26.936	13.596	1076.341	813.021
27.950	13.679	1075.693	812.867
28.965	13.668	1074.581	811.899
29.980	13.766	1072.505	810.740
30.994	13.766	1072.051	810.323
32.009	13.818	1070.567	809.382
33.023	13.779	1069.642	808.424
34.038	13.623	1069.114	807.192
35.053	13.665	1068.224	806.656
36.067	13.729	1067.629	806.443
37.082	13.735	1066.713	805.713
38.096	13.692	1065.728	804.685
39.111	13.589	1064.953	803.531
40.126	13.654	1063.368	802.576
41.140	13.494	1062.568	801.127
42.155	13.473	1061.297	800.000
43.169	13.518	1060.244	799.353
44.184	13.543	1059.137	798.566
45.199	13.375	1058.484	797.195
46.213	13.483	1057.304	796.757
47.228	13.512	1055.490	795.456
48.242	13.653	1054.356	795.210
49.257	13.652	1053.659	794.610
50.271	13.678	1053.009	794.172
51.286	13.663	1052.240	793.448
52.301	13.658	1051.135	792.521
53.315	13.551	1049.953	791.051
54.330	13.625	1048.919	790.552
55.344	13.608	1048.530	790.108
56.359	13.631	1047.488	789.366
57.374	13.454	1046.625	787.801
58.388	13.473	1045.910	787.286
59.403	13.382	1045.170	786.223
60.417	13.372	1044.470	785.580
61.432	13.443	1043.340	784.997
62.447	13.412	1042.408	784.079
63.461	13.482	1041.773	783.867
64.476	13.550	1040.377	783.069
65.490	13.471	1039.567	782.017
66.505	13.466	1039.500	781.873
67.520	13.423	1038.902	781.150
68.534	13.420	1038.014	780.398
69.549	13.415	1037.388	779.838
70.563	13.512	1035.987	779.172
71.578	13.333	1035.711	778.052
72.593	13.476	1034.617	777.834
73.607	13.333	1034.309	776.862
74.622	13.334	1033.702	776.341
75.636	13.387	1032.955	775.958
76.651	13.304	1032.113	774.868
77.666	13.440	1031.457	774.944
78.680	13.372	1030.914	774.149
79.695	13.449	1029.963	773.730
80.709	13.332	1029.754	772.958
81.724	13.480	1028.775	772.845
82.739	13.544	1028.127	772.585
83.753	13.542	1027.234	771.837
84.768	13.711	1025.827	771.499
85.782	13.625	1024.962	770.379
86.797	13.595	1024.201	769.599
87.812	13.587	1023.496	768.965
88.826	13.613	1022.221	768.059
89.841	13.667	1021.263	767.523
90.855	13.638	1020.320	766.613
91.870	13.732	1019.316	766.223
92.884	13.676	1018.343	765.167
93.899	13.663	1018.119	764.869
94.914	13.728	1017.236	764.440
95.928	13.637	1016.333	763.272
96.943	13.697	1015.223	762.650
97.957	13.841	1014.358	762.593
98.972	13.700	1013.728	761.404
99.987	13.628	1012.921	760.402
101.001	13.720	1011.551	759.726
102.016	13.746	1010.688	759.129
103.030	13.628	1010.306	758.234
104.045	13.628	1009.212	757.347
105.060	13.694	1008.664	757.169
106.074	13.677	1007.708	756.308
107.089	13.532	1006.527	754.693
108.103	13.749	1005.136	754.573
109.118	13.504	1004.826	753.161
110.133	13.584	1003.133	752.187
111.147	13.611	1002.757	751.960
112.162	13.639	1001.867	751.354
113.176	13.667	1001.129	750.859
114.191	13.693	1000.194	750.211
115.206	13.604	999.308	749.078
116.220	13.524	999.010	748.426
117.235	13.714	997.133	747.810
118.249	13.623	996.517	746.872
119.264	13.707	996.010	746.804
120.279	13.627	995.066	745.672
121.293	13.702	993.695	744.915
122.308	13.650	993.307	744.323
123.322	13.658	992.168	743.440
124.337	13.646	991.405	742.752
125.352	13.722	989.867	741.871
126.366	13.716	989.019	741.142
127.381	13.654	987.911	739.969
128.395	13.532	987.426	739.000
129.410	13.701	986.497	738.990
130.424	13.730	985.049	737.968
131.439	13.674	984.810	737.475
132.454	13.736	983.993	737.073
133.468	13.706	982.866	736.031
134.483	13.700	982.226	735.462
135.497	13.580	981.341	734.202
136.512	13.728	980.320	734.026
137.527	13.723	979.263	733.150
138.541	13.716	978.602	732.560
139.556	13.774	978.039	732.330
140.570	13.704	977.603	731.630
141.585	13.694	976.683	730.830
142.600	13.842	975.254	730.349
143.614	13.909	974.757	730.206
144.629	13.893	973.851	729.393
145.643	13.938	972.925	728.831
146.658	13.722	972.314	727.362
147.673	13.855	971.738	727.449
148.687	13.820	970.298	726.152
149.702	13.701	969.897	725.271
150.716	13.765	969.195	724.962
151.731	13.825	968.256	724.455
152.746	13.718	968.070	723.787
153.760	14.033	966.491	723.915
154.775	13.836	966.397	722.919
155.789	13.850	965.955	722.586
156.804	13.902	964.855	721.928
157.819	14.001	964.387	721.941
158.833	13.968	963.544	721.104
159.848	13.917	963.013	720.420
160.862	13.994	961.977	719.915
161.877	13.867	961.035	718.601
162.892	13.959	959.866	718.059
163.906	13.876	959.565	717.411
164.921	13.821	958.648	716.426
165.935	13.920	957.708	716.086
166.950	14.098	956.397	715.806
167.964	13.885	955.995	714.528
168.979	13.936	955.311	714.171
169.994	14.017	954.314	713.714
171.008	13.854	953.562	712.389
172.023	14.041	952.736	712.509
173.037	14.147	951.611	712.056
174.052	14.062	951.603	711.627
175.067	13.913	950.774	710.306
176.081	13.994	950.231	710.184
177.096	14.084	949.560	710.001
178.110	13.932	949.450	709.209
179.125	13.963	948.212	708.354
180.140	14.059	948.102	708.616
181.154	14.162	947.307	708.399
182.169	14.093	946.829	707.684
183.183	14.321	945.975	707.955
184.198	14.265	945.314	707.159
185.213	14.251	944.341	706.311
186.227	14.283	943.820	705.995
187.242	14.271	943.373	705.544
188.256	14.360	942.356	705.097
189.271	14.253	941.684	704.082
190.286	14.215	941.212	703.503
191.300	14.218	940.557	702.964
192.315	14.208	939.626	702.167
193.329	14.202	939.655	702.099
194.344	14.225	938.685	701.408
195.359	14.345	937.962	701.314
196.373	14.232	937.606	700.507
197.388	14.299	937.234	700.450
198.402	14.445	936.262	700.274
199.417	14.365	935.661	699.428
200.432	14.459	935.112	699.349
201.446	14.459	934.466	698.806
202.461	14.472	934.342	698.706
203.475	14.396	933.561	697.740
204.490	14.533	932.479	697.445
205.504	14.488	932.009	696.844
206.519	14.422	930.983	695.738
207.534	14.597	930.240	695.851
208.548	14.512	929.723	695.050
209.563	14.478	929.209	694.464
210.577	14.581	928.413	694.234
211.592	14.621	927.694	693.803
212.607	14.676	926.728	693.245
213.621	14.637	925.783	692.315
214.636	14.652	925.413	692.040
215.650	14.705	924.523	691.534
216.665	14.629	924.090	690.834
217.680	14.770	923.413	690.850
218.694	14.658	922.696	689.787
219.709	14.667	922.301	689.470
220.723	14.784	921.505	689.298
221.738	14.812	920.549	688.636
222.753	14.825	919.352	687.732
223.767	14.820	919.059	687.431
224.782	14.946	918.329	687.344
225.796	14.863	918.477	687.052
226.811	14.827	917.680	686.245
227.826	14.741	916.924	685.267
228.840	14.740	916.230	684.683
229.855	14.894	915.004	684.338
230.869	14.819	914.523	683.612
231.884	14.872	913.797	683.223
232.899	14.920	912.867	682.663
233.913	14.796	912.654	681.941
234.928	14.746	911.974	681.166
235.942	14.857	911.427	681.151
236.957	14.881	910.789	680.711
237.972	14.928	910.009	680.258
238.986	14.742	909.852	679.323
240.001	14.909	908.786	679.145
241.015	14.876	908.293	678.585
242.030	14.969	907.346	678.195
243.045	14.905	907.043	677.649
244.059	14.893	906.307	676.989
245.074	14.976	905.448	676.624
246.088	14.872	905.254	676.000
247.103	14.948	904.611	675.766
248.117	15.123	903.543	675.615
249.132	15.060	903.228	675.065
250.147	15.062	902.259	674.290
251.161	15.209	901.611	674.335
252.176	15.232	901.051	673.952
253.190	15.257	900.462	673.552
254.205	15.279	899.856	673.129
255.220	15.380	898.763	672.653
256.234	15.337	898.273	672.055
257.249	15.287	898.138	671.694
258.263	15.296	897.125	670.915
259.278	15.448	896.117	670.708
260.293	15.407	895.943	670.354
261.307	15.378	895.624	669.941
262.322	15.299	894.873	669.005
263.336	15.414	893.830	668.625
264.351	15.465	893.526	668.540
265.366	15.325	892.561	667.201
266.380	15.571	891.802	667.555
267.395	15.646	891.026	667.211
268.409	15.607	890.121	666.321
269.424	15.666	889.547	666.064
270.439	15.522	888.843	664.908
271.453	15.591	888.070	664.543
272.468	15.630	887.891	664.505
273.482	15.481	887.597	663.638
274.497	15.484	887.182	663.282
275.512	15.585	886.081	662.797
276.526	15.665	885.689	662.763
277.541	15.689	885.139	662.388
278.555	15.655	884.448	661.675
279.570	15.644	883.803	661.094
280.585	15.722	882.826	660.611
281.599	15.849	882.369	660.707
282.614	15.749	881.749	659.793
283.628	15.650	881.501	659.162
284.643	15.737	880.586	658.758
285.657	15.819	879.738	658.386
286.672	15.731	879.434	657.755
287.687	15.692	878.841	657.103
288.701	15.832	878.036	656.991
289.716	15.773	877.865	656.575
290.730	15.828	877.063	656.131
291.745	15.925	876.194	655.797
292.760	15.847	875.739	655.098
293.774	16.048	875.146	655.378
294.789	15.943	874.409	654.358
295.803	15.888	873.583	653.470
296.818	15.908	873.451	653.392
297.833	15.996	872.552	653.001
298.847	15.982	871.808	652.334
299.862	16.050	870.846	651.817
300.876	15.934	870.584	651.116
301.891	15.950	869.993	650.680
302.906	16.091	869.417	650.733
303.920	16.249	868.827	650.846
304.935	16.343	868.330	650.778
305.949	16.141	867.774	649.523
306.964	16.266	867.127	649.463
307.979	16.173	866.778	648.788
308.993	16.223	866.115	648.427
310.008	16.128	865.352	647.431
311.022	16.130	865.063	647.167
312.037	16.244	864.394	647.044
313.052	16.174	863.425	645.996
314.066	16.124	863.366	645.704
315.081	16.078	862.959	645.164
316.095	16.284	861.876	645.084
317.110	16.171	861.328	644.188
318.125	16.207	860.514	643.657
319.139	16.311	860.614	644.074
320.154	16.283	860.056	643.492
321.168	16.186	859.591	642.716
322.183	16.314	858.677	642.463
323.197	16.404	858.117	642.328
324.212	16.271	857.717	641.470
325.227	16.259	857.405	641.131
326.241	16.235	856.865	640.582
327.256	16.194	856.392	640.017
328.270	16.394	855.356	639.940
329.285	16.353	854.874	639.369
330.300	16.327	854.057	638.603
331.314	16.388	853.631	638.458
332.329	16.400	852.987	637.968
333.343	16.608	852.624	638.423
334.358	16.487	852.406	637.745
335.373	16.428	852.135	637.265
336.387	16.464	851.525	636.889
337.402	16.558	851.219	636.956
338.416	16.518	851.260	636.780
339.431	16.631	850.505	636.584
340.446	16.631	850.059	636.196
341.460	16.620	849.955	636.019
342.475	16.575	849.377	635.362
343.489	16.697	849.114	635.566
344.504	16.632	848.437	634.760
345.519	16.734	847.992	634.753
346.533	16.722	847.344	634.168
347.548	16.606	846.831	633.292
348.562	16.719	846.116	633.125
349.577	16.653	845.720	632.525
350.592	16.742	844.904	632.190
351.606	16.722	844.375	631.665
352.621	16.800	843.735	631.422
353.635	16.753	843.179	630.774
354.650	16.893	842.295	630.579
355.665	16.833	841.987	630.067
356.679	16.821	841.331	629.478
357.694	16.800	840.745	628.905
358.708	16.792	840.163	628.384
359.723	16.825	839.848	628.217
360.738	16.859	839.171	627.778
361.752	16.949	838.605	627.635
362.767	17.090	837.616	627.357
363.781	16.953	837.045	626.369
364.796	17.022	836.527	626.182
365.810	17.124	836.233	626.283
366.825	17.077	836.117	625.967
367.840	17.067	835.479	625.398
368.854	17.218	834.666	625.290
369.869	17.091	834.638	624.743
370.883	17.168	834.171	624.625
371.898	17.097	833.623	623.896
372.913	17.177	833.147	623.778
373.927	17.181	832.953	623.595
374.942	17.141	832.231	622.852
375.956	17.143	832.214	622.792
376.971	17.297	831.148	622.503
377.986	17.290	830.786	622.151
379.000	17.394	830.351	622.148
380.015	17.202	830.240	621.310
381.029	17.311	829.331	620.972
382.044	17.378	828.615	620.626
383.059	17.402	828.400	620.495
384.073	17.570	827.299	620.227
385.088	17.485	826.725	619.434
386.102	17.265	826.888	618.699
387.117	17.301	826.216	618.276
388.132	17.324	825.413	617.702
389.146	17.459	824.946	617.787
390.161	17.407	824.622	617.303
391.175	17.430	824.214	617.025
392.190	17.588	823.244	616.816
393.205	17.546	822.789	616.269
394.219	17.570	822.571	616.140
395.234	17.686	822.026	616.094
396.248	17.512	821.770	615.219
397.263	17.430	821.095	614.365
398.278	17.508	820.779	614.355
399.292	17.444	820.357	613.754
400.307	17.580	819.899	613.849
401.321	17.557	819.370	613.315
402.336	17.538	819.490	613.280
403.350	17.535	818.863	612.747
404.365	17.593	818.030	612.278
405.380	17.480	817.824	611.662
406.394	17.749	816.861	611.853
407.409	17.635	816.998	611.493
408.423	17.802	816.259	611.484
409.438	17.753	816.046	611.094
410.453	17.747	815.807	610.840
411.467	17.904	814.720	610.536
412.482	17.986	814.449	610.569
413.496	17.988	814.298	610.410
414.511	17.804	814.147	609.587
415.526	17.820	813.658	609.222
416.540	18.026	813.072	609.465
417.555	17.937	812.837	608.916
418.569	18.018	812.086	608.588
419.584	17.995	811.418	607.953
420.599	18.038	810.983	607.725
421.613	114.282	1298.580	1485.854
422.628	98.863	1369.583	1485.946
