DTS Sentinel unit serial number:	SN413079Multiplexer serial number:	ORYXHardware model number:	OX4-SRSoftware version number:	ORYX F/W v4.00 Oryx Data Collector v3.7.2.0data status	okinstallation	princeton_trtdifferential loss correction	single-endedforward channel	channel 1reverse channel	N/Adate	2019/09/14time	21:50:35forward acquisition time	60.00reverse acquisition time	0.00gamma	496.2192k internal	0.2319k external	0.2319temperature offset calibration	1.0005default loss term (dB/km)	0.3790temperature slope calibration	1.0000multiplexer offset coefficient	1.0000multiplexer slope coefficient	1.0000fibre end	0.00T internal ref (°C)	32.75T ext. ref 1 (°C)	4.72T ext. ref 2 (°C)	27.69length (m)	temperature (°C)	Stokes	anti-Stokes-747.200	383.459	0.097	-0.201
-746.185	800.000	0.088	0.286
-745.171	-124.187	0.145	-0.023
-744.156	175.267	0.072	-0.105
-743.142	-70.815	0.403	-0.154
-742.127	381.872	-0.083	0.172
-741.112	-128.571	0.173	0.025
-740.098	-120.162	0.149	0.026
-739.083	467.913	-0.060	0.136
-738.069	800.000	-0.063	0.201
-737.054	-83.656	-0.037	0.012
-736.039	-34.143	0.004	-0.002
-735.025	478.334	-0.054	-0.124
-734.010	21.383	-0.154	-0.126
-732.996	291.036	-0.058	-0.106
-731.981	-97.677	0.399	-0.105
-730.966	5.124	-0.324	-0.241
-729.952	-73.152	-0.075	0.028
-728.937	41.367	0.316	-0.289
-727.923	68.426	-0.202	-0.210
-726.908	21.615	0.064	0.053
-725.894	-75.628	0.215	-0.077
-724.879	-125.947	0.145	-0.022
-723.864	800.000	-0.052	0.151
-722.850	800.000	-0.024	0.070
-721.835	-2.031	0.170	-0.121
-720.821	-124.421	-0.198	0.031
-719.806	-100.672	-0.154	-0.038
-718.791	349.334	0.086	0.172
-717.777	388.558	0.157	-0.328
-716.762	149.416	0.085	-0.117
-715.748	658.745	-0.089	0.233
-714.733	800.000	-0.099	-0.358
-713.718	-88.333	-0.096	-0.029
-712.704	-200.000	-0.032	-0.157
-711.689	-57.481	-0.155	0.069
-710.675	97.515	-0.118	-0.137
-709.660	-46.462	-0.187	-0.093
-708.645	86.072	-0.125	-0.139
-707.631	-200.000	0.039	0.356
-706.616	117.348	-0.020	0.025
-705.602	-200.000	0.007	0.166
-704.587	506.582	0.058	-0.137
-703.572	-200.000	-0.032	-0.390
-702.558	-32.727	0.470	-0.264
-701.543	-200.000	-0.072	-0.336
-700.529	5.473	-0.070	0.052
-699.514	-56.736	-0.150	-0.067
-698.499	-31.210	0.316	-0.180
-697.485	800.000	0.192	-0.597
-696.470	80.907	0.067	-0.073
-695.456	60.841	0.130	0.130
-694.441	-200.000	0.014	-0.318
-693.426	-104.230	-0.224	-0.052
-692.412	59.299	-0.286	0.285
-691.397	617.098	0.155	0.393
-690.383	-134.340	-0.257	0.032
-689.368	-200.000	-0.023	0.180
-688.354	800.000	-0.063	-0.218
-687.339	-200.000	-0.035	-0.237
-686.324	358.020	0.015	0.030
-685.310	79.777	-0.179	-0.194
-684.295	-47.631	-0.163	0.080
-683.281	35.994	-0.088	0.078
-682.266	-200.000	-0.041	-0.212
-681.251	127.566	0.051	-0.065
-680.237	-46.418	-0.342	0.169
-679.222	42.935	0.153	-0.141
-678.208	-43.925	0.177	0.090
-677.193	-37.077	-0.217	0.117
-676.178	103.861	-0.126	0.149
-675.164	352.098	0.135	-0.271
-674.149	32.774	-0.136	0.119
-673.135	29.621	0.064	-0.055
-672.120	613.342	0.078	-0.197
-671.105	-112.428	-0.129	0.026
-670.091	159.061	0.212	-0.297
-669.076	142.828	-0.148	-0.198
-668.062	201.399	-0.051	-0.080
-667.047	616.892	-0.073	0.186
-666.032	-41.993	-0.215	0.111
-665.018	-123.737	0.266	0.042
-664.003	194.737	-0.152	0.232
-662.989	234.578	-0.138	-0.229
-661.974	7.830	-0.313	-0.236
-660.959	335.824	-0.039	0.076
-659.945	-102.384	-0.064	0.015
-658.930	-200.000	-0.028	-0.331
-657.916	217.292	-0.170	-0.272
-656.901	-10.189	0.257	0.172
-655.886	-62.640	-0.101	0.042
-654.872	-200.000	0.034	0.208
-653.857	-200.000	0.007	0.152
-652.843	-34.447	0.235	-0.130
-651.828	-54.808	-0.156	0.071
-650.814	113.581	-0.078	-0.095
-649.799	-70.490	0.346	-0.132
-648.784	256.798	-0.123	-0.214
-647.770	30.586	0.137	0.118
-646.755	177.162	-0.069	-0.101
-645.741	-200.000	0.011	-0.085
-644.726	145.105	0.297	-0.401
-643.711	-34.051	-0.267	-0.148
-642.697	311.354	0.148	-0.280
-641.682	-200.000	0.004	-0.150
-640.668	-77.181	-0.176	0.062
-639.653	-41.439	-0.084	-0.043
-638.638	223.613	-0.179	-0.291
-637.624	41.575	0.362	-0.330
-636.609	11.196	-0.246	0.189
-635.595	-200.000	-0.002	-0.329
-634.580	452.665	0.064	0.143
-633.565	-123.393	0.138	-0.022
-632.551	-72.824	-0.177	0.066
-631.536	31.670	0.284	-0.246
-630.522	-150.401	0.161	-0.013
-629.507	-150.128	-0.138	-0.011
-628.492	-118.028	-0.273	0.049
-627.478	-3.368	-0.058	-0.041
-626.463	-41.048	-0.095	0.049
-625.449	-200.000	0.003	0.149
-624.434	108.479	0.009	-0.010
-623.419	-92.568	0.263	0.074
-622.405	-200.000	-0.023	0.292
-621.390	-41.399	-0.184	0.096
-620.376	133.856	0.137	0.179
-619.361	-62.431	-0.308	-0.129
-618.346	0.431	0.176	0.127
-617.332	-2.179	0.131	0.093
-616.317	133.098	0.069	-0.090
-615.303	149.883	-0.060	0.082
-614.288	-148.754	0.429	0.035
-613.273	800.000	-0.105	-0.354
-612.259	68.562	-0.127	-0.131
-611.244	-154.262	0.163	-0.011
-610.230	-36.894	-0.221	-0.120
-609.215	800.000	-0.030	-0.095
-608.201	-154.007	-0.281	0.019
-607.186	800.000	-0.083	-0.240
-606.171	800.000	-0.032	0.118
-605.157	119.307	0.192	-0.239
-604.142	524.301	0.048	0.114
-603.128	599.757	-0.057	0.144
-602.113	-127.767	0.120	-0.017
-601.098	-200.000	-0.007	0.094
-600.084	447.938	-0.065	0.145
-599.069	134.757	0.207	-0.270
-598.055	342.780	0.242	-0.476
-597.040	-200.000	0.101	-0.532
-596.025	-91.366	0.183	-0.053
-595.011	105.710	-0.101	0.121
-593.996	-36.064	0.382	0.208
-592.982	-85.953	-0.296	0.092
-591.967	-58.692	-0.097	-0.042
-590.952	-89.025	0.073	-0.022
-589.938	800.000	0.030	-0.105
-588.923	59.403	0.172	-0.170
-587.909	45.725	0.105	0.097
-586.894	210.257	-0.172	-0.272
-585.879	402.246	-0.025	-0.053
-584.865	-137.738	-0.039	0.004
-583.850	279.291	0.135	-0.242
-582.836	800.000	-0.011	0.043
-581.821	-193.508	0.175	-0.002
-580.806	22.156	-0.111	-0.091
-579.792	-29.028	0.128	0.074
-578.777	-200.000	-0.004	0.061
-577.763	123.030	0.054	-0.068
-576.748	398.751	-0.070	0.148
-575.733	-200.000	0.014	-0.109
-574.719	-74.590	-0.030	0.011
-573.704	-200.000	0.008	-0.333
-572.690	800.000	-0.015	-0.065
-571.675	-33.788	-0.221	-0.123
-570.661	34.668	0.098	0.086
-569.646	632.125	0.025	0.064
-568.631	-200.000	-0.011	0.055
-567.617	-40.295	-0.209	0.109
-566.602	-67.442	-0.148	-0.059
-565.588	307.035	-0.044	-0.082
-564.573	-76.957	0.117	-0.041
-563.558	633.436	0.055	0.140
-562.544	-31.054	-0.048	-0.027
-561.529	-102.440	0.261	-0.063
-560.515	-172.966	0.184	-0.006
-559.500	-112.019	-0.134	-0.027
-558.485	-71.133	-0.376	0.142
-557.471	160.161	0.138	-0.193
-556.456	-200.000	-0.020	0.229
-555.442	260.762	-0.088	-0.153
-554.427	12.286	-0.268	-0.207
-553.412	384.062	-0.168	-0.348
-552.398	-51.439	-0.382	-0.179
-551.383	10.486	-0.318	0.243
-550.369	149.380	-0.084	-0.114
-549.354	-80.385	0.208	-0.070
-548.339	-158.819	0.302	0.017
-547.325	-129.016	0.288	-0.041
-546.310	-200.000	-0.005	0.112
-545.296	-87.221	-0.310	0.094
-544.281	-101.837	-0.324	0.079
-543.266	-63.646	0.082	-0.034
-542.252	5.528	-0.204	-0.151
-541.237	-128.976	0.058	-0.008
-540.223	-164.521	-0.031	-0.001
-539.208	190.207	-0.050	-0.075
-538.193	14.302	-0.110	0.086
-537.179	650.247	0.072	-0.185
-536.164	-200.000	0.024	-0.124
-535.150	-98.134	0.254	-0.066
-534.135	470.299	0.091	0.205
-533.121	533.454	-0.057	-0.135
-532.106	-21.243	0.376	-0.231
-531.091	-69.786	-0.141	-0.054
-530.077	-200.000	0.005	0.025
-529.062	281.991	0.073	0.131
-528.048	124.124	0.088	-0.111
-527.033	-13.866	0.196	-0.127
-526.018	-155.693	-0.202	0.013
-525.004	-74.277	-0.237	0.086
-523.989	-75.024	-0.081	0.029
-522.975	512.816	-0.083	0.195
-521.960	-200.000	0.023	-0.347
-520.945	602.142	0.145	0.361
-519.931	-200.000	-0.088	0.535
-518.916	-200.000	0.062	-0.388
-517.902	800.000	-0.035	-0.145
-516.887	41.625	-0.179	0.163
-515.872	-51.085	0.405	-0.190
-514.858	361.293	-0.130	0.262
-513.843	546.828	-0.098	0.236
-512.829	800.000	0.146	0.482
-511.814	348.473	-0.187	-0.371
-510.799	-107.011	-0.370	0.082
-509.785	0.815	-0.223	0.160
-508.770	38.414	0.266	0.237
-507.756	-3.856	-0.076	-0.053
-506.741	-105.577	-0.438	0.100
-505.726	42.075	0.144	0.131
-504.712	-28.847	0.227	0.131
-503.697	554.699	0.119	-0.288
-502.683	800.000	0.071	0.264
-501.668	800.000	-0.082	0.357
-500.653	800.000	0.168	-0.485
-499.639	-147.919	0.037	-0.003
-498.624	-200.000	0.009	-0.193
-497.610	-86.368	-0.172	0.053
-496.595	-71.052	0.166	-0.063
-495.581	800.000	0.060	0.201
-494.566	-29.303	-0.334	-0.192
-493.551	-155.266	0.231	-0.015
-492.537	-200.000	0.004	0.053
-491.522	-200.000	0.001	0.300
-490.508	800.000	0.139	0.534
-489.493	-3.409	-0.196	0.136
-488.478	-11.788	0.172	-0.113
-487.464	70.797	0.066	-0.069
-486.449	-200.000	0.025	-0.139
-485.435	186.365	-0.181	-0.269
-484.420	-154.697	0.145	0.010
-483.405	-65.879	-0.205	0.082
-482.391	603.849	0.108	-0.270
-481.376	38.401	-0.221	-0.198
-480.362	65.371	-0.264	0.267
-479.347	-200.000	-0.028	0.179
-478.332	-43.820	-0.236	0.119
-477.318	-152.079	0.311	-0.023
-476.303	-200.000	-0.012	-0.169
-475.289	-11.234	-0.288	-0.190
-474.274	72.456	-0.050	-0.052
-473.259	-200.000	0.045	0.201
-472.245	14.804	-0.184	-0.144
-471.230	157.418	0.019	0.027
-470.216	-200.000	0.003	-0.155
-469.201	-164.377	-0.452	-0.021
-468.186	-20.027	-0.062	-0.038
-467.172	29.400	0.304	0.258
-466.157	-200.000	-0.014	0.111
-465.143	108.236	-0.356	-0.425
-464.128	-53.656	0.206	0.094
-463.113	-200.000	-0.002	0.087
-462.099	-116.265	-0.278	0.051
-461.084	-137.040	0.164	0.019
-460.070	-147.718	0.119	-0.010
-459.055	72.996	0.237	-0.248
-458.040	800.000	-0.047	-0.194
-457.026	268.978	0.085	0.150
-456.011	-148.506	-0.267	-0.022
-454.997	800.000	-0.052	-0.152
-453.982	800.000	-0.069	-0.222
-452.968	-200.000	-0.041	-0.303
-451.953	59.788	-0.039	-0.039
-450.938	-6.041	-0.334	-0.228
-449.924	800.000	0.097	0.395
-448.909	800.000	-0.072	0.261
-447.895	67.043	0.213	0.217
-446.880	95.093	0.136	-0.155
-445.865	519.030	-0.144	-0.338
-444.851	16.599	-0.394	0.312
-443.836	-97.057	0.217	-0.057
-442.822	492.347	0.016	-0.036
-441.807	-138.637	0.158	-0.017
-440.792	-200.000	-0.018	-0.325
-439.778	800.000	0.120	-0.389
-438.763	288.590	0.124	0.224
-437.749	-149.769	0.165	-0.013
-436.734	-175.058	0.275	0.008
-435.719	-68.148	0.290	-0.113
-434.705	-42.815	0.213	0.108
-433.690	-89.950	-0.276	-0.081
-432.676	-47.163	0.088	0.043
-431.661	507.626	0.087	-0.202
-430.646	-79.871	0.194	-0.065
-429.632	-148.173	-0.077	0.006
-428.617	39.933	-0.199	0.179
-427.603	-200.000	0.009	0.073
-426.588	-42.362	0.120	-0.061
-425.573	-111.411	-0.132	0.027
-424.559	-113.330	-0.221	0.043
-423.544	-200.000	0.072	0.322
-422.530	58.981	0.142	0.139
-421.515	444.474	0.145	-0.317
-420.500	111.190	0.116	0.140
-419.486	-29.050	-0.220	0.126
-418.471	231.457	0.142	0.233
-417.457	-200.000	0.011	-0.155
-416.442	84.398	0.246	0.269
-415.428	19.296	0.100	0.080
-414.413	85.013	-0.107	-0.117
-413.398	-38.244	0.145	0.077
-412.384	34.888	0.372	0.325
-411.369	526.167	0.181	-0.426
-410.355	800.000	0.087	-0.338
-409.340	-105.443	-0.283	-0.064
-408.325	-100.685	0.289	-0.071
-407.311	-135.019	-0.297	0.036
-406.296	121.583	0.205	-0.255
-405.282	-65.330	-0.101	-0.041
-404.267	-110.113	0.173	-0.036
-403.252	-30.556	0.128	0.072
-402.238	-200.000	-0.019	-0.119
-401.223	-64.290	0.361	-0.147
-400.209	-200.000	-0.062	-0.325
-399.194	184.631	0.129	-0.191
-398.179	580.264	-0.109	-0.265
-397.165	-200.000	0.017	-0.125
-396.150	-81.000	-0.281	0.093
-395.136	-141.560	0.021	-0.002
-394.121	-93.321	-0.320	-0.089
-393.106	-95.767	-0.354	-0.094
-392.092	-200.000	0.044	0.282
-391.077	-24.568	0.159	-0.094
-390.063	-87.821	0.327	0.098
-389.048	270.313	-0.091	0.160
-388.033	-71.482	0.277	0.103
-387.019	-200.000	-0.055	0.375
-386.004	25.471	0.068	-0.056
-384.990	15.781	0.230	0.181
-383.975	-200.000	-0.006	0.239
-382.960	113.769	-0.199	0.241
-381.946	-90.512	-0.111	0.032
-380.931	157.796	-0.085	-0.117
-379.917	126.581	0.105	0.133
-378.902	-200.000	0.030	-0.142
-377.888	-65.059	0.084	0.034
-376.873	-200.000	-0.007	0.090
-375.858	-128.475	-0.246	-0.035
-374.844	173.029	0.083	0.120
-373.829	-11.899	-0.345	0.225
-372.815	800.000	0.065	0.193
-371.800	-55.565	-0.053	0.024
-370.785	800.000	0.116	-0.461
-369.771	-106.172	-0.055	0.012
-368.756	800.000	-0.048	0.168
-367.742	-200.000	-0.011	0.132
-366.727	-77.717	-0.270	0.093
-365.712	-200.000	-0.032	-0.227
-364.698	221.462	-0.029	-0.047
-363.683	-200.000	0.001	0.030
-362.669	68.549	0.049	0.050
-361.654	126.740	0.166	0.209
-360.639	-200.000	-0.026	-0.342
-359.625	-200.000	0.007	0.035
-358.610	-55.336	0.035	-0.016
-357.596	-59.536	-0.278	-0.119
-356.581	-200.000	-0.028	-0.219
-355.566	609.213	0.118	-0.295
-354.552	127.314	0.043	0.054
-353.537	800.000	-0.032	0.112
-352.523	-200.000	0.027	0.358
-351.508	599.062	-0.131	0.324
-350.493	-66.254	-0.172	0.068
-349.479	247.808	0.088	-0.148
-348.464	-81.825	-0.252	-0.082
-347.450	342.969	0.192	0.374
-346.435	16.816	-0.224	0.177
-345.420	-49.710	0.023	0.011
-344.406	-200.000	-0.029	0.309
-343.391	-200.000	0.038	0.235
-342.377	-200.000	-0.013	0.301
-341.362	-131.585	-0.349	0.046
-340.348	-200.000	0.051	-0.259
-339.333	-175.956	0.177	0.005
-338.318	12.826	0.216	0.166
-337.304	-94.380	-0.170	-0.046
-336.289	-73.137	-0.154	0.056
-335.275	-100.472	-0.265	0.065
-334.260	-78.112	0.159	0.054
-333.245	106.601	0.130	-0.154
-332.231	192.419	0.092	-0.138
-331.216	-20.680	-0.099	0.061
-330.202	-62.496	0.092	-0.038
-329.187	-92.021	0.224	0.063
-328.172	-200.000	0.000	-0.031
-327.158	-200.000	0.011	0.242
-326.143	212.262	0.124	0.194
-325.129	-146.304	0.370	0.032
-324.114	183.173	0.255	-0.374
-323.099	93.317	-0.090	0.101
-322.085	-200.000	0.003	0.026
-321.070	-200.000	-0.014	-0.180
-320.056	-109.499	0.328	-0.069
-319.041	-200.000	-0.006	-0.054
-318.026	596.432	-0.079	-0.196
-317.012	-170.410	0.160	-0.006
-315.997	800.000	-0.071	-0.203
-314.983	800.000	-0.092	-0.275
-313.968	658.100	0.073	-0.186
-312.953	21.793	-0.121	-0.098
-311.939	-200.000	-0.012	-0.087
-310.924	-67.532	0.107	-0.042
-309.910	-200.000	0.024	-0.145
-308.895	-200.000	-0.031	0.202
-307.880	49.824	0.122	-0.114
-306.866	444.484	-0.143	-0.313
-305.851	-86.768	0.359	0.109
-304.837	-200.000	0.019	-0.108
-303.822	-45.481	-0.290	-0.143
-302.807	127.248	0.116	0.146
-301.793	270.353	-0.270	0.472
-300.778	411.575	0.031	0.066
-299.764	61.274	-0.153	-0.151
-298.749	-200.000	0.053	0.258
-297.735	54.876	-0.042	-0.040
-296.720	-137.830	0.150	-0.017
-295.705	-48.488	-0.128	-0.061
-294.691	-146.036	-0.106	0.009
-293.676	-83.456	0.095	-0.030
-292.662	53.227	0.138	-0.132
-291.647	241.375	-0.087	-0.144
-290.632	61.253	-0.282	0.278
-289.618	800.000	-0.066	0.242
-288.603	625.686	0.070	0.176
-287.589	800.000	0.034	-0.142
-286.574	-122.138	0.217	0.035
-285.559	168.457	-0.212	-0.300
-284.545	-91.853	-0.261	0.074
-283.530	217.621	-0.081	-0.128
-282.516	277.487	0.127	0.225
-281.501	312.920	0.073	-0.137
-280.486	84.215	-0.224	-0.243
-279.472	800.000	-0.055	0.177
-278.457	-21.411	0.073	-0.044
-277.443	216.854	0.146	0.232
-276.428	356.056	0.078	0.155
-275.413	-200.000	0.000	0.237
-274.399	800.000	-0.056	0.162
-273.384	-200.000	-0.041	0.230
-272.370	-132.543	0.166	0.021
-271.355	53.099	0.180	0.172
-270.340	-200.000	0.203	0.001
-269.326	-200.000	0.015	0.213
-268.311	458.426	-0.098	-0.216
-267.297	136.317	-0.165	0.213
-266.282	-200.000	0.005	0.130
-265.267	-122.923	-0.100	0.016
-264.253	-51.567	-0.203	-0.094
-263.238	-79.644	0.125	0.042
-262.224	131.524	-0.105	0.134
-261.209	15.702	-0.196	0.153
-260.195	46.053	0.100	-0.092
-259.180	800.000	-0.024	0.092
-258.165	-104.958	0.255	0.058
-257.151	437.385	0.070	-0.152
-256.136	-190.261	-0.048	-0.001
-255.122	-27.629	-0.459	0.265
-254.107	-56.780	0.168	-0.074
-253.092	125.719	-0.099	-0.125
-252.078	351.315	0.069	-0.135
-251.063	101.676	0.152	0.176
-250.049	288.057	0.042	0.075
-249.034	-200.000	0.018	-0.083
-248.019	-43.292	0.186	-0.093
-247.005	-124.575	-0.077	0.012
-245.990	-200.000	-0.014	-0.109
-244.976	113.917	-0.134	-0.162
-243.961	-200.000	0.019	0.386
-242.946	-128.068	0.145	-0.021
-241.932	111.868	-0.072	0.087
-240.917	-17.516	0.092	-0.057
-239.903	64.128	0.123	0.123
-238.888	61.474	-0.241	0.238
-237.873	20.125	0.261	0.209
-236.859	-200.000	0.053	0.346
-235.844	128.000	-0.266	-0.336
-234.830	42.751	-0.263	-0.238
-233.815	182.866	0.125	0.183
-232.800	518.244	-0.036	0.083
-231.786	-23.518	0.090	-0.053
-230.771	-0.827	-0.169	-0.119
-229.757	266.984	-0.113	0.196
-228.742	800.000	0.109	0.306
-227.727	20.870	0.173	0.139
-226.713	-36.786	-0.335	-0.178
-225.698	61.798	0.255	0.251
-224.684	-35.014	0.172	-0.093
-223.669	-112.086	-0.207	0.041
-222.655	-200.000	-0.023	-0.271
-221.640	800.000	0.054	0.179
-220.625	800.000	-0.056	-0.205
-219.611	14.080	-0.056	-0.043
-218.596	-77.376	-0.053	0.018
-217.582	9.087	-0.201	-0.151
-216.567	-84.702	0.175	0.054
-215.552	289.693	0.112	0.202
-214.538	-200.000	-0.046	0.216
-213.523	-54.466	-0.365	-0.164
-212.509	110.554	0.278	0.331
-211.494	-16.440	0.097	-0.061
-210.479	17.133	0.131	0.103
-209.465	800.000	0.066	-0.209
-208.450	-36.834	0.068	0.036
-207.436	19.272	-0.167	-0.133
-206.421	21.534	-0.075	-0.061
-205.406	-63.442	-0.267	-0.109
-204.392	532.652	0.094	-0.220
-203.377	456.114	0.090	-0.197
-202.363	-78.628	-0.139	0.047
-201.348	-200.000	-0.048	0.397
-200.333	25.335	-0.076	0.063
-199.319	-60.383	-0.342	-0.144
-198.304	-65.477	0.176	-0.070
-197.290	-9.367	-0.144	-0.096
-196.275	-200.000	-0.014	0.185
-195.260	800.000	-0.032	0.097
-194.246	26.066	0.090	0.075
-193.231	-145.268	0.424	0.038
-192.217	-159.708	-0.185	-0.010
-191.202	39.651	0.097	0.086
-190.187	-39.261	-0.030	0.015
-189.173	59.885	-0.150	0.147
-188.158	344.305	0.069	0.135
-187.144	-200.000	0.001	0.176
-186.129	71.872	0.258	0.266
-185.114	6.241	0.104	-0.076
-184.100	90.926	0.165	-0.183
-183.085	-180.230	0.389	0.008
-182.071	38.539	-0.161	-0.142
-181.056	-92.371	-0.364	-0.102
-180.042	312.555	0.053	0.098
-179.027	216.316	-0.108	0.170
-178.012	-20.758	-0.090	-0.055
-176.998	22.197	0.273	-0.221
-175.983	-112.431	0.169	0.034
-174.969	121.488	-0.110	0.135
-173.954	-159.908	0.340	-0.018
-172.939	800.000	0.138	-0.401
-171.925	-13.006	-0.096	0.062
-170.910	698.400	0.192	0.500
-169.896	-200.000	-0.017	0.166
-168.881	800.000	0.084	-0.242
-167.866	104.482	-0.167	0.194
-166.852	-99.413	-0.279	0.069
-165.837	-173.445	0.113	0.003
-164.823	800.000	-0.042	0.172
-163.808	-200.000	-0.004	-0.068
-162.793	745.311	-0.051	-0.135
-161.779	-50.959	-0.100	0.047
-160.764	294.384	-0.040	0.072
-159.750	800.000	0.002	-0.007
-158.735	402.961	0.150	0.311
-157.720	-200.000	-0.024	0.176
-156.706	-200.000	0.001	-0.159
-155.691	155.888	-0.046	-0.063
-154.677	294.062	-0.131	-0.237
-153.662	89.913	-0.225	0.249
-152.647	-116.740	-0.081	0.015
-151.633	-146.932	0.255	0.022
-150.618	106.993	0.125	0.147
-149.604	86.841	0.044	-0.048
-148.589	292.718	0.051	0.091
-147.574	411.952	0.087	0.182
-146.560	283.509	-0.220	-0.391
-145.545	0.620	0.117	-0.082
-144.531	139.586	-0.080	0.104
-143.516	1.090	-0.277	-0.197
-142.502	800.000	0.052	0.146
-141.487	105.319	-0.329	-0.384
-140.472	258.283	-0.288	-0.491
-139.458	20.654	-0.286	0.229
-138.443	-159.833	0.392	0.021
-137.429	-104.533	-0.049	0.011
-136.414	82.624	-0.013	0.014
-135.399	800.000	0.070	-0.200
-134.385	67.584	-0.238	0.240
-133.370	-79.419	-0.102	0.034
-132.356	-74.688	-0.166	0.059
-131.341	256.123	-0.282	-0.478
-130.326	-193.359	-0.147	-0.001
-129.312	-47.839	0.120	0.057
-128.297	68.739	-0.135	0.136
-127.283	-200.000	0.016	-0.151
-126.268	800.000	-0.084	0.281
-125.253	-41.191	0.024	0.012
-124.239	182.642	0.151	-0.220
-123.224	-128.143	0.367	-0.052
-122.210	126.779	0.131	0.164
-121.195	-200.000	-0.001	0.132
-120.180	432.009	0.070	-0.151
-119.166	-71.930	-0.072	0.027
-118.151	800.000	-0.040	-0.123
-117.137	-59.655	0.091	-0.038
-116.122	-200.000	-0.055	-0.276
-115.107	30.899	-0.073	0.062
-114.093	276.478	0.041	0.072
-113.078	-46.566	0.158	0.076
-112.064	-124.073	-0.380	-0.059
-111.049	-200.000	-0.009	-0.448
-110.034	-64.145	-0.591	0.238
-109.020	800.000	0.105	0.448
-108.005	24.537	-0.159	-0.130
-106.991	200.703	-0.170	0.257
-105.976	800.000	0.076	-0.308
-104.962	426.751	0.145	0.309
-103.947	276.423	-0.105	0.184
-102.932	-25.127	-0.053	-0.031
-101.918	-200.000	0.035	0.171
-100.903	28.594	0.189	0.158
-99.889	53.095	-0.093	0.087
-98.874	130.118	0.046	-0.058
-97.859	-86.102	0.187	0.057
-96.845	182.077	0.171	-0.248
-95.830	-134.748	-0.210	0.025
-94.816	33.046	0.200	-0.171
-93.801	-131.291	-0.237	0.031
-92.786	84.868	-0.193	-0.208
-91.772	5.102	-0.190	0.138
-90.757	800.000	0.071	0.216
-89.743	96.907	0.150	0.169
-88.728	-200.000	0.017	0.227
-87.713	14.628	-0.313	-0.241
-86.699	102.813	0.075	0.087
-85.684	-83.907	-0.157	0.049
-84.670	-47.319	0.300	-0.144
-83.655	-39.023	0.248	0.129
-82.640	-200.000	-0.005	-0.092
-81.626	70.096	-0.172	-0.175
-80.611	-40.339	0.124	0.064
-79.597	-44.457	0.399	0.197
-78.582	800.000	0.095	0.293
-77.567	-16.013	0.297	0.186
-76.553	-200.000	0.003	0.085
-75.538	17.706	-0.090	0.070
-74.524	-27.943	0.232	-0.132
-73.509	-163.493	-0.138	0.006
-72.494	-200.000	0.042	-0.320
-71.480	-13.373	0.192	-0.123
-70.465	222.279	0.014	0.022
-69.451	-107.958	0.237	-0.051
-68.436	-18.651	-0.056	0.034
-67.422	-83.320	0.091	0.029
-66.407	-172.352	0.401	0.013
-65.392	-104.555	0.233	0.053
-64.378	-52.743	0.303	0.137
-63.363	722.943	-0.074	0.193
-62.349	800.000	-0.104	0.297
-61.334	120.822	-0.859	-1.052
-60.319	609.822	0.199	0.489
-59.305	-200.000	-0.079	-1.189
-58.290	135.032	0.671	0.859
-57.276	800.000	0.656	1.843
-56.261	-200.000	95.137	572.494
-55.246	650.522	1374.646	3466.532
-54.232	199.022	2546.750	3842.148
-53.217	119.520	2142.323	2612.452
-52.203	44.368	1606.427	1452.474
-51.188	36.241	1344.106	1166.366
-50.173	33.002	1302.120	1110.878
-49.159	54.799	1348.084	1280.860
-48.144	57.066	1365.374	1310.780
-47.130	36.424	1324.164	1149.972
-46.115	32.877	1307.317	1114.397
-45.100	32.722	1302.747	1109.548
-44.086	32.696	1299.836	1106.868
-43.071	32.639	1297.732	1104.701
-42.057	32.606	1296.061	1103.041
-41.042	32.636	1294.025	1101.438
-40.027	32.664	1292.704	1100.432
-39.013	32.729	1290.472	1098.873
-37.998	32.644	1288.995	1097.074
-36.984	32.714	1287.535	1096.195
-35.969	32.783	1285.405	1094.741
-34.954	32.832	1283.144	1093.055
-33.940	32.775	1282.470	1092.104
-32.925	32.771	1280.980	1090.767
-31.911	32.792	1279.631	1089.698
-30.896	32.803	1277.893	1088.238
-29.881	32.921	1276.202	1087.439
-28.867	32.804	1275.716	1086.306
-27.852	32.982	1273.590	1085.476
-26.838	32.858	1272.446	1083.746
-25.823	32.776	1271.377	1082.322
-24.809	32.827	1269.351	1080.843
-23.794	32.853	1268.285	1080.041
-22.779	32.789	1267.152	1078.669
-21.765	32.738	1265.506	1076.934
-20.750	32.698	1264.660	1075.942
-19.736	32.693	1263.658	1075.023
-18.721	32.758	1262.342	1074.227
-17.706	32.676	1261.154	1072.708
-16.692	32.766	1259.647	1071.895
-15.677	32.752	1259.112	1071.320
-14.663	32.864	1257.608	1070.631
-13.648	32.636	1256.691	1068.518
-12.633	32.680	1255.778	1067.948
-11.619	32.702	1254.875	1067.260
-10.604	32.641	1253.940	1066.078
-9.590	32.712	1252.960	1065.601
-8.575	32.679	1251.729	1064.326
-7.560	32.696	1251.143	1063.884
-6.546	32.783	1250.380	1063.686
-5.531	32.615	1249.851	1062.246
-4.517	32.613	1248.635	1061.159
-3.502	32.674	1248.020	1060.934
-2.487	32.655	1246.704	1059.668
-1.473	32.589	1242.678	1055.833
-0.458	31.208	1228.036	1035.697
0.556	26.765	1210.068	997.206
1.571	23.081	1215.399	981.115
2.586	22.191	1230.070	987.868
3.600	21.684	1218.592	975.742
4.615	16.377	1148.027	891.237
5.629	8.332	1073.991	793.835
6.644	4.910	1054.394	762.556
7.659	4.607	1052.061	759.322
8.673	4.633	1051.225	758.779
9.688	4.719	1049.463	757.858
10.702	4.639	1047.945	756.304
11.717	9.197	1053.659	782.606
12.731	16.539	1064.008	826.218
13.746	19.309	1066.408	841.551
14.761	18.381	1065.229	836.018
15.775	17.263	1063.358	829.026
16.790	16.358	1060.796	822.550
17.804	15.462	1059.255	816.925
18.819	15.235	1058.512	815.172
19.834	14.960	1057.935	813.324
20.848	14.799	1057.062	811.797
21.863	14.619	1055.913	809.967
22.877	14.437	1055.054	808.356
23.892	14.370	1054.299	807.383
24.907	14.377	1053.897	807.033
25.921	14.436	1052.627	806.276
26.936	14.503	1051.392	805.584
27.950	14.652	1049.796	805.009
28.965	14.550	1048.364	803.347
29.980	14.579	1047.361	802.649
30.994	14.760	1045.847	802.285
32.009	14.799	1044.782	801.586
33.023	14.834	1043.746	800.884
34.038	14.656	1042.696	799.158
35.053	14.552	1042.178	798.192
36.067	14.568	1041.348	797.560
37.082	14.639	1040.412	797.115
38.096	14.689	1039.790	796.805
39.111	14.598	1039.033	795.723
40.126	14.483	1037.745	794.116
41.140	14.332	1036.365	792.272
42.155	14.335	1035.145	791.284
43.169	14.312	1034.006	790.236
44.184	14.324	1032.719	789.235
45.199	14.251	1032.111	788.356
46.213	14.457	1030.931	788.362
47.228	14.449	1030.009	787.550
48.242	14.416	1029.280	786.765
49.257	14.488	1027.825	785.924
50.271	14.589	1027.131	785.799
51.286	14.548	1026.341	784.931
52.301	14.439	1025.475	783.688
53.315	14.424	1024.441	782.756
54.330	14.332	1023.392	781.453
55.344	14.470	1022.098	781.042
56.359	14.439	1021.744	780.561
57.374	14.386	1020.645	779.400
58.388	14.267	1019.824	778.151
59.403	14.349	1018.777	777.666
60.417	14.213	1018.030	776.394
61.432	14.304	1017.159	776.084
62.447	14.246	1016.607	775.323
63.461	14.128	1015.958	774.209
64.476	14.151	1014.827	773.389
65.490	14.212	1014.068	773.022
66.505	14.209	1013.351	772.396
67.520	14.322	1012.676	772.336
68.534	14.222	1012.301	771.519
69.549	14.326	1011.503	771.323
70.563	14.193	1010.698	770.026
71.578	14.195	1009.876	769.341
72.593	14.193	1008.622	768.308
73.607	14.083	1008.430	767.588
74.622	14.168	1007.519	767.219
75.636	14.237	1006.995	767.066
76.651	14.174	1006.123	766.046
77.666	14.124	1005.866	765.554
78.680	14.193	1005.062	765.187
79.695	14.279	1004.099	764.785
80.709	14.281	1003.838	764.527
81.724	14.319	1003.396	764.297
82.739	14.379	1002.585	763.885
83.753	14.590	1001.933	764.290
84.768	14.679	1001.088	763.985
85.782	14.725	1000.184	763.436
86.797	14.679	998.997	762.254
87.812	14.542	998.265	761.004
88.826	14.504	997.203	759.952
89.841	14.584	996.287	759.550
90.855	14.641	995.655	759.259
91.870	14.669	994.950	758.785
92.884	14.726	993.837	758.129
93.899	14.711	993.077	757.411
94.914	14.765	992.166	756.896
95.928	14.814	991.251	756.352
96.943	14.707	990.638	755.331
97.957	14.746	989.576	754.631
98.972	14.657	988.811	753.581
99.987	14.716	988.425	753.488
101.001	14.610	987.397	752.160
102.016	14.672	986.090	751.376
103.030	14.773	985.196	751.082
104.045	14.647	984.733	750.096
105.060	14.614	984.005	749.329
106.074	14.531	983.212	748.282
107.089	14.273	982.445	746.478
108.103	14.298	981.299	745.651
109.118	14.187	980.260	744.299
110.133	14.204	979.863	744.010
111.147	14.252	978.463	743.092
112.162	14.424	977.529	743.088
113.176	14.524	976.842	742.943
114.191	14.576	976.456	742.817
115.206	14.392	975.573	741.259
116.220	14.289	974.833	740.173
117.235	14.429	973.147	739.451
118.249	14.413	972.970	739.178
119.264	14.383	972.132	738.342
120.279	14.308	971.749	737.655
121.293	14.389	970.234	736.797
122.308	14.283	969.640	735.812
123.322	14.273	968.552	734.878
124.337	14.337	968.045	734.712
125.352	14.226	966.869	733.267
126.366	14.414	965.534	733.016
127.381	14.330	964.847	732.057
128.395	14.315	963.962	731.259
129.410	14.360	963.268	730.865
130.424	14.443	962.561	730.627
131.439	14.415	961.902	729.940
132.454	14.532	960.752	729.511
133.468	14.723	960.073	729.770
134.483	14.609	959.293	728.612
135.497	14.540	958.300	727.493
136.512	14.513	957.562	726.751
137.527	14.475	956.633	725.818
138.541	14.628	956.316	726.176
139.556	14.620	955.358	725.350
140.570	14.733	954.621	725.216
141.585	14.689	953.993	724.485
142.600	14.808	952.797	724.026
143.614	14.776	952.270	723.424
144.629	14.868	951.881	723.465
145.643	14.727	950.774	721.949
146.658	14.680	949.765	720.916
147.673	14.626	948.352	719.548
148.687	14.547	947.766	718.699
149.702	14.604	946.603	717.997
150.716	14.642	945.808	717.497
151.731	14.693	945.042	717.070
152.746	14.511	944.687	715.957
153.760	14.537	944.232	715.657
154.775	14.662	943.495	715.574
155.789	14.658	943.114	715.205
156.804	14.740	942.222	714.816
157.819	14.738	941.644	714.305
158.833	14.868	940.860	714.201
159.848	14.927	940.091	713.807
160.862	14.837	938.671	712.282
161.877	14.661	937.952	710.925
162.892	14.736	936.740	710.261
163.906	14.585	936.329	709.246
164.921	14.610	935.748	708.849
165.935	14.670	934.662	708.218
166.950	14.733	934.026	707.939
167.964	14.783	933.087	707.377
168.979	14.670	932.019	706.026
169.994	14.657	930.924	705.079
171.008	14.854	930.351	705.416
172.023	14.947	930.069	705.532
173.037	14.889	929.186	704.555
174.052	14.868	928.336	703.760
175.067	14.722	927.509	702.459
176.081	14.624	927.431	701.922
177.096	14.704	926.581	701.554
178.110	14.813	925.757	701.326
179.125	14.655	925.650	700.519
180.140	14.745	924.934	700.294
181.154	14.915	924.410	700.547
182.169	14.872	924.095	700.067
183.183	14.957	923.524	699.928
184.198	14.951	922.773	699.269
185.213	14.932	921.942	698.499
186.227	15.073	921.149	698.426
187.242	15.072	920.701	698.021
188.256	15.260	919.718	697.997
189.271	15.050	919.304	696.744
190.286	14.920	918.281	695.369
191.300	14.731	917.491	693.925
192.315	14.618	916.933	692.971
193.329	14.614	916.653	692.680
194.344	14.799	915.855	692.782
195.359	14.979	915.187	692.962
196.373	15.039	914.876	692.915
197.388	15.094	914.583	692.858
198.402	15.170	914.194	692.818
199.417	15.305	913.113	692.493
200.432	15.415	912.431	692.368
201.446	15.403	912.261	692.128
202.461	15.387	911.675	691.560
203.475	15.530	910.957	691.541
204.490	15.397	910.227	690.377
205.504	15.303	909.322	689.244
206.519	15.281	908.644	688.579
207.534	15.224	907.864	687.693
208.548	15.261	907.459	687.479
209.563	15.151	907.097	686.692
210.577	15.287	906.247	686.543
211.592	15.364	905.659	686.353
212.607	15.331	904.796	685.502
213.621	15.443	904.040	685.326
214.636	15.425	903.433	684.735
215.650	15.418	902.586	684.004
216.665	15.451	901.834	683.505
217.680	15.421	901.707	683.228
218.694	15.453	900.998	682.760
219.709	15.483	899.891	681.984
220.723	15.480	899.417	681.551
221.738	15.643	898.395	681.378
222.753	15.475	898.055	680.377
223.767	15.604	897.470	680.395
224.782	15.864	896.402	680.577
225.796	15.692	896.277	679.729
226.811	15.577	895.875	678.896
227.826	15.534	894.716	677.784
228.840	15.554	894.039	677.296
229.855	15.700	893.122	677.129
230.869	15.434	892.893	675.821
231.884	15.415	892.180	675.149
232.899	15.514	891.351	674.857
233.913	15.409	890.519	673.748
234.928	15.506	889.420	673.245
235.942	15.492	888.955	672.778
236.957	15.557	888.512	672.641
237.972	15.501	887.986	671.959
238.986	15.405	888.182	671.664
240.001	15.577	886.807	671.253
241.015	15.525	886.175	670.507
242.030	15.767	885.281	670.738
243.045	15.547	885.668	670.094
244.059	15.630	884.617	669.569
245.074	15.643	884.215	669.258
246.088	15.786	883.841	669.484
247.103	15.705	883.158	668.587
248.117	15.837	882.500	668.552
249.132	16.076	882.161	669.185
250.147	16.204	881.269	668.957
251.161	16.097	880.716	668.053
252.176	16.199	880.128	667.953
253.190	16.056	879.851	667.117
254.205	16.206	878.728	666.799
255.220	16.303	878.017	666.583
256.234	16.106	877.692	665.504
257.249	16.150	877.247	665.278
258.263	16.069	876.362	664.229
259.278	16.175	875.610	664.017
260.293	16.263	874.809	663.697
261.307	16.438	874.337	663.968
262.322	16.407	873.619	663.242
263.336	16.309	872.913	662.265
264.351	16.346	872.147	661.770
265.366	16.383	871.735	661.545
266.380	16.512	870.936	661.385
267.395	16.454	870.076	660.445
268.409	16.349	869.524	659.559
269.424	16.443	868.616	659.175
270.439	16.160	868.169	657.677
271.453	16.154	867.326	656.954
272.468	16.151	866.893	656.556
273.482	16.391	866.091	656.826
274.497	16.315	865.619	656.116
275.512	16.311	865.071	655.625
276.526	16.337	864.837	655.489
277.541	16.345	864.506	655.213
278.555	16.442	863.737	654.949
279.570	16.582	863.582	655.316
280.585	16.593	862.359	654.373
281.599	16.394	861.991	653.265
282.614	16.332	861.317	652.458
283.628	16.356	860.666	651.998
284.643	16.583	859.492	651.928
285.657	16.508	859.252	651.399
286.672	16.587	858.619	651.165
287.687	16.607	858.093	650.786
288.701	16.541	857.293	649.868
289.716	16.513	856.923	649.422
290.730	16.524	856.293	648.930
291.745	16.556	855.697	648.541
292.760	16.769	854.976	648.754
293.774	16.774	854.447	648.316
294.789	16.811	853.396	647.601
295.803	16.639	852.772	646.414
296.818	16.585	852.707	646.100
297.833	16.657	852.065	645.830
298.847	16.736	851.061	645.316
299.862	16.611	850.786	644.574
300.876	16.642	850.348	644.302
301.891	16.874	849.769	644.691
302.906	16.886	849.045	644.128
303.920	16.990	848.786	644.271
304.935	17.008	848.058	643.729
305.949	16.878	847.780	642.968
306.964	16.879	846.761	642.141
307.979	16.938	846.156	641.848
308.993	16.853	846.062	641.399
310.008	16.992	845.109	641.145
311.022	17.151	844.158	640.969
312.037	16.903	843.761	639.675
313.052	16.794	843.170	638.757
314.066	16.836	842.599	638.427
315.081	16.749	842.417	637.905
316.095	16.715	842.009	637.414
317.110	16.729	841.553	637.064
318.125	16.904	840.769	637.072
319.139	16.792	840.415	636.326
320.154	16.916	839.913	636.355
321.168	16.898	839.149	635.653
322.183	16.947	838.617	635.376
323.197	16.928	838.166	634.909
324.212	16.735	837.951	633.965
325.227	16.976	836.993	634.085
326.241	17.039	836.470	633.868
327.256	16.894	835.894	632.835
328.270	16.960	835.342	632.606
329.285	16.942	834.796	632.073
330.300	17.010	834.100	631.743
331.314	17.096	833.265	631.372
332.329	17.075	833.204	631.191
333.343	17.060	833.067	630.976
334.358	17.041	832.770	630.626
335.373	17.016	832.324	630.140
336.387	17.154	832.032	630.374
337.402	17.243	831.522	630.262
338.416	17.262	831.209	630.041
339.431	17.406	830.901	630.285
340.446	17.338	830.325	629.540
341.460	17.385	829.890	629.327
342.475	17.551	829.483	629.579
343.489	17.463	828.978	628.813
344.504	17.352	828.713	628.147
345.519	17.588	828.281	628.635
346.533	17.430	827.474	627.384
347.548	17.334	827.329	626.865
348.562	17.203	826.684	625.837
349.577	17.269	825.808	625.361
350.592	17.263	825.062	624.720
351.606	17.414	824.405	624.723
352.621	17.371	823.756	624.016
353.635	17.403	823.375	623.793
354.650	17.339	822.955	623.183
355.665	17.268	822.838	622.780
356.679	17.471	821.355	622.345
357.694	17.371	820.998	621.654
358.708	17.436	820.291	621.301
359.723	17.357	819.776	620.566
360.738	17.575	818.942	620.675
361.752	17.634	818.512	620.509
362.767	17.496	818.254	619.754
363.781	17.748	817.519	620.062
364.796	17.918	816.644	619.961
365.810	17.930	816.609	619.922
366.825	17.938	816.441	619.768
367.840	17.810	815.817	618.774
368.854	17.669	815.650	618.084
369.869	17.871	814.710	618.046
370.883	17.918	814.356	617.892
371.898	17.766	814.456	617.364
372.913	17.955	813.746	617.457
373.927	17.849	813.302	616.683
374.942	17.725	812.945	615.907
375.956	17.860	812.561	616.049
376.971	17.979	812.132	616.099
377.986	18.111	811.581	616.103
379.000	17.997	810.972	615.175
380.015	17.965	810.592	614.718
381.029	17.975	809.947	614.210
382.044	18.238	809.126	614.478
383.059	18.098	808.637	613.549
384.073	18.011	808.272	612.907
385.088	18.042	807.595	612.449
386.102	17.893	807.152	611.525
387.117	17.924	806.460	611.057
388.132	17.900	806.129	610.668
389.146	17.951	805.231	610.117
390.161	18.100	805.007	610.423
391.175	18.168	804.643	610.338
392.190	18.065	803.808	609.283
393.205	18.024	803.695	608.995
394.219	18.007	803.372	608.636
395.234	18.071	802.800	608.379
396.248	17.859	802.853	607.609
397.263	17.944	801.698	606.984
398.278	17.835	801.532	606.416
399.292	18.057	800.503	606.371
400.307	17.899	800.730	605.930
401.321	17.994	800.007	605.668
402.336	18.140	799.591	605.814
403.350	18.061	799.060	605.081
404.365	18.149	798.936	605.243
405.380	18.091	798.692	604.801
406.394	18.285	797.786	604.747
407.409	18.199	797.828	604.419
408.423	18.451	797.091	604.698
409.438	18.577	796.628	604.736
410.453	18.517	796.386	604.290
411.467	18.487	795.757	603.653
412.482	18.738	795.288	604.127
413.496	18.562	795.368	603.513
414.511	18.615	795.085	603.432
415.526	18.585	794.539	602.859
416.540	18.362	794.377	601.899
417.555	18.522	793.569	601.794
418.569	18.504	793.289	601.466
419.584	18.698	792.650	601.610
420.599	18.616	791.913	600.711
421.613	156.557	1371.078	1795.219
422.628	135.478	1455.459	1795.338
