DTS Sentinel unit serial number:	SN413079Multiplexer serial number:	ORYXHardware model number:	OX4-SRSoftware version number:	ORYX F/W v4.00 Oryx Data Collector v3.7.2.0data status	okinstallation	princeton_trtdifferential loss correction	single-endedforward channel	channel 1reverse channel	N/Adate	2019/09/13time	23:30:35forward acquisition time	60.00reverse acquisition time	0.00gamma	496.2192k internal	0.2337k external	0.2337temperature offset calibration	1.0081default loss term (dB/km)	0.3790temperature slope calibration	1.0000multiplexer offset coefficient	1.0000multiplexer slope coefficient	1.0000fibre end	0.00T internal ref (°C)	26.84T ext. ref 1 (°C)	3.18T ext. ref 2 (°C)	20.97length (m)	temperature (°C)	Stokes	anti-Stokes-747.200	427.633	-0.117	-0.253
-746.185	-118.856	-0.395	0.070
-745.171	800.000	-0.036	-0.122
-744.156	455.724	0.115	-0.256
-743.142	-86.851	0.015	0.005
-742.127	-200.000	-0.015	-0.155
-741.112	-200.000	0.032	-0.147
-740.098	40.184	-0.160	0.144
-739.083	-145.550	-0.121	0.011
-738.069	-117.097	0.055	0.010
-737.054	-29.938	0.141	-0.080
-736.039	-161.892	-0.192	-0.010
-735.025	-200.000	0.002	0.306
-734.010	-33.559	-0.174	-0.096
-732.996	-63.332	0.094	-0.039
-731.981	475.322	0.106	-0.240
-730.966	434.129	-0.145	-0.315
-729.952	-200.000	0.019	-0.311
-728.937	-200.000	0.029	0.128
-727.923	-146.102	-0.225	-0.020
-726.908	-53.060	-0.465	-0.214
-725.894	-99.478	0.177	-0.045
-724.879	-10.470	-0.184	0.122
-723.864	-200.000	0.001	-0.105
-722.850	800.000	0.070	0.295
-721.835	800.000	-0.118	-0.387
-720.821	800.000	0.048	0.192
-719.806	-122.790	-0.362	0.059
-718.791	27.213	0.064	-0.054
-717.777	-39.075	0.181	0.095
-716.762	59.899	0.098	0.097
-715.748	-200.000	0.023	0.185
-714.733	729.998	-0.127	0.339
-713.718	800.000	-0.127	-0.382
-712.704	-200.000	0.051	0.637
-711.689	377.961	0.029	0.060
-710.675	135.120	-0.043	0.056
-709.660	-107.548	-0.339	-0.074
-708.645	-169.203	-0.222	-0.008
-707.631	86.401	0.154	-0.170
-706.616	6.180	-0.192	-0.142
-705.602	-200.000	-0.004	0.064
-704.587	-78.305	-0.098	-0.034
-703.572	35.920	0.245	0.216
-702.558	245.791	-0.255	0.430
-701.543	-114.108	-0.158	0.031
-700.529	-14.970	-0.214	0.137
-699.514	-200.000	-0.009	0.267
-698.499	272.065	0.199	-0.352
-697.485	-26.184	-0.190	-0.112
-696.470	308.727	-0.161	-0.302
-695.456	-200.000	-0.007	-0.447
-694.441	-96.095	-0.224	0.060
-693.426	308.631	-0.031	0.057
-692.412	299.606	-0.096	0.177
-691.397	154.699	-0.131	0.180
-690.383	330.955	-0.049	-0.094
-689.368	-174.863	0.258	-0.007
-688.354	800.000	0.107	0.376
-687.339	-80.834	0.313	-0.104
-686.324	140.276	-0.212	0.281
-685.310	480.940	-0.173	-0.392
-684.295	800.000	-0.082	-0.248
-683.281	126.737	-0.166	0.210
-682.266	276.342	0.044	-0.079
-681.251	26.600	0.114	-0.095
-680.237	122.563	-0.190	0.238
-679.222	206.865	0.159	-0.248
-678.208	93.726	-0.025	0.028
-677.193	-133.610	-0.335	-0.042
-676.178	-200.000	0.001	0.276
-675.164	28.993	0.016	-0.013
-674.149	115.481	-0.227	0.278
-673.135	159.581	-0.190	-0.265
-672.120	800.000	-0.023	-0.096
-671.105	599.198	0.025	-0.063
-670.091	117.384	0.139	0.171
-669.076	26.194	-0.139	-0.116
-668.062	316.482	0.049	-0.093
-667.047	-200.000	0.012	-0.138
-666.032	482.938	-0.060	-0.135
-665.018	-102.831	0.349	-0.083
-664.003	33.105	0.156	-0.136
-662.989	172.109	0.094	-0.135
-661.974	-200.000	-0.026	0.238
-660.959	-50.203	0.212	0.101
-659.945	-200.000	0.003	-0.228
-658.930	-111.652	-0.276	-0.056
-657.916	-200.000	0.004	-0.117
-656.901	-200.000	-0.017	0.117
-655.886	-113.445	-0.324	-0.064
-654.872	800.000	-0.038	-0.112
-653.857	69.998	-0.195	-0.201
-652.843	800.000	0.120	0.335
-651.828	-140.366	-0.626	-0.065
-650.814	114.389	-0.240	0.293
-649.799	800.000	0.038	0.155
-648.784	489.091	-0.175	-0.400
-647.770	-158.094	-0.264	0.016
-646.755	169.908	-0.150	0.214
-645.741	-200.000	0.119	0.000
-644.726	-200.000	0.002	-0.156
-643.711	209.109	-0.126	0.197
-642.697	-30.539	0.156	0.088
-641.682	-7.212	-0.103	0.070
-640.668	173.298	0.099	0.143
-639.653	-90.815	-0.433	-0.125
-638.638	-8.399	-0.044	-0.030
-637.624	-69.868	0.097	0.037
-636.609	437.790	-0.070	0.154
-635.595	-200.000	-0.011	-0.362
-634.580	33.658	-0.228	0.198
-633.565	-39.579	-0.117	-0.061
-632.551	-200.000	-0.019	0.215
-631.536	-200.000	0.002	0.026
-630.522	-200.000	0.059	-0.314
-629.507	101.114	-0.133	-0.155
-628.492	-200.000	-0.000	-0.220
-627.478	-200.000	-0.041	0.183
-626.463	-45.996	0.326	0.161
-625.449	53.265	-0.256	0.245
-624.434	-86.896	-0.202	-0.062
-623.419	-83.970	0.110	-0.035
-622.405	-107.987	-0.114	0.025
-621.390	543.561	-0.125	-0.298
-620.376	-30.330	0.040	0.023
-619.361	729.959	0.086	0.230
-618.346	111.583	0.033	0.039
-617.332	-76.964	-0.112	-0.039
-616.317	-14.806	-0.233	-0.149
-615.303	36.438	-0.190	0.168
-614.288	-94.183	0.104	-0.028
-613.273	800.000	0.081	-0.260
-612.259	-200.000	-0.033	-0.167
-611.244	150.780	-0.133	-0.181
-610.230	-200.000	0.018	-0.332
-609.215	-200.000	-0.009	-0.195
-608.201	-118.608	0.404	-0.071
-607.186	800.000	0.032	-0.133
-606.171	72.526	-0.144	-0.150
-605.157	465.485	0.164	0.367
-604.142	-109.796	-0.118	-0.025
-603.128	86.899	0.108	-0.119
-602.113	-200.000	0.003	0.014
-601.098	-157.460	0.206	-0.012
-600.084	476.727	0.067	0.151
-599.069	-8.491	-0.258	0.173
-598.055	319.597	0.077	0.146
-597.040	343.325	0.164	0.321
-596.025	800.000	0.010	-0.028
-595.011	537.766	0.037	-0.089
-593.996	505.830	-0.120	0.278
-592.982	-183.609	-0.100	0.002
-591.967	-188.207	0.246	0.003
-590.952	110.984	0.168	0.201
-589.938	67.388	-0.196	0.200
-588.923	-200.000	0.009	0.067
-587.909	175.180	0.089	0.128
-586.894	-44.790	-0.095	0.047
-585.879	-35.026	-0.196	0.107
-584.865	-58.443	0.158	0.068
-583.850	-128.076	0.102	0.015
-582.836	106.829	-0.240	0.285
-581.821	-200.000	-0.058	-0.466
-580.806	-78.492	-0.262	0.090
-579.792	-54.887	0.230	-0.104
-578.777	156.175	0.150	-0.206
-577.763	-181.450	0.183	0.004
-576.748	64.738	0.326	0.328
-575.733	150.979	0.215	0.291
-574.719	10.440	-0.238	0.181
-573.704	800.000	0.070	-0.206
-572.690	800.000	-0.057	-0.199
-571.675	138.689	0.033	-0.043
-570.661	-142.995	-0.267	0.026
-569.646	-200.000	0.011	-0.343
-568.631	-84.496	-0.117	-0.037
-567.617	55.581	0.061	-0.059
-566.602	15.062	0.040	0.031
-565.588	-89.497	0.269	-0.079
-564.573	-200.000	0.013	-0.060
-563.558	558.103	-0.099	0.238
-562.544	-200.000	-0.019	-0.173
-561.529	800.000	0.119	-0.335
-560.515	175.526	-0.127	-0.184
-559.500	197.140	0.144	-0.219
-558.485	-200.000	-0.000	-0.197
-557.471	275.256	0.211	0.372
-556.456	-31.384	0.281	0.158
-555.442	351.414	0.121	0.238
-554.427	-11.597	0.181	0.119
-553.412	-192.269	0.268	0.003
-552.398	800.000	0.092	0.277
-551.383	-3.221	0.260	-0.181
-550.369	-136.251	0.138	-0.016
-549.354	800.000	0.045	-0.125
-548.339	-200.000	-0.007	0.033
-547.325	800.000	-0.066	0.218
-546.310	-200.000	0.009	0.067
-545.296	-182.401	-0.387	0.007
-544.281	33.105	-0.203	-0.175
-543.266	38.494	0.154	-0.137
-542.252	115.953	0.144	-0.175
-541.237	24.744	0.240	-0.198
-540.223	350.218	0.058	0.114
-539.208	238.122	0.086	0.142
-538.193	-73.965	-0.095	0.034
-537.179	741.636	-0.074	-0.199
-536.164	88.016	-0.077	0.086
-535.150	275.912	-0.076	0.134
-534.135	-12.721	0.273	-0.177
-533.121	-53.680	-0.103	-0.047
-532.106	-200.000	-0.025	-0.383
-531.091	114.087	-0.141	0.171
-530.077	-200.000	-0.006	0.077
-529.062	-8.703	-0.054	0.036
-528.048	-200.000	-0.031	0.188
-527.033	325.990	-0.120	-0.229
-526.018	-200.000	-0.017	0.356
-525.004	385.403	-0.172	0.353
-523.989	46.656	0.218	-0.201
-522.975	443.964	-0.091	-0.198
-521.960	-176.107	-0.145	0.004
-520.945	-200.000	-0.052	0.254
-519.931	62.692	0.100	0.100
-518.916	-31.446	0.138	0.077
-517.902	13.938	-0.220	-0.171
-516.887	-35.191	0.165	0.089
-515.872	-178.789	0.225	-0.005
-514.858	440.328	0.128	-0.278
-513.843	-74.811	0.080	0.029
-512.829	205.711	0.210	0.325
-511.814	83.443	-0.174	0.188
-510.799	333.021	0.201	0.386
-509.785	-126.779	-0.429	0.063
-508.770	-50.347	-0.235	-0.110
-507.756	-200.000	0.021	0.206
-506.741	-6.303	0.207	-0.141
-505.726	-200.000	-0.003	-0.087
-504.712	-200.000	0.004	0.064
-503.697	800.000	0.024	-0.096
-502.683	-200.000	0.004	-0.046
-501.668	-146.190	0.109	-0.010
-500.653	-179.451	0.095	-0.002
-499.639	-200.000	-0.051	-0.224
-498.624	-200.000	0.151	0.000
-497.610	-59.995	0.092	-0.039
-496.595	-145.015	-0.268	-0.024
-495.581	488.233	0.027	-0.061
-494.566	800.000	-0.068	-0.285
-493.551	272.773	0.161	-0.282
-492.537	-200.000	0.036	-0.342
-491.522	197.357	-0.081	-0.123
-490.508	-140.046	-0.084	-0.009
-489.493	-200.000	0.007	0.043
-488.478	-40.723	-0.163	-0.084
-487.464	-9.676	-0.140	0.093
-486.449	26.265	-0.279	0.231
-485.435	66.856	-0.182	0.184
-484.420	60.985	0.215	0.212
-483.405	-200.000	0.011	-0.142
-482.391	-147.123	-0.173	0.015
-481.376	-66.100	-0.112	-0.044
-480.362	144.563	-0.067	0.089
-479.347	-71.846	0.095	0.035
-478.332	-181.966	0.299	-0.006
-477.318	-17.687	0.269	-0.168
-476.303	-200.000	0.016	-0.300
-475.289	-67.282	0.020	0.008
-474.274	299.318	-0.052	0.095
-473.259	-200.000	0.039	0.328
-472.245	-9.191	0.028	-0.019
-471.230	-200.000	-0.003	-0.093
-470.216	-101.713	0.074	-0.018
-469.201	-132.398	-0.104	0.013
-468.186	73.660	0.193	-0.201
-467.172	254.454	0.081	-0.138
-466.157	-200.000	-0.001	-0.081
-465.143	-124.152	0.121	0.019
-464.128	-200.000	-0.039	0.238
-463.113	-200.000	0.300	0.000
-462.099	90.687	0.101	-0.113
-461.084	169.662	0.334	-0.474
-460.070	326.351	-0.121	0.230
-459.055	72.114	-0.303	-0.313
-458.040	203.398	0.058	-0.088
-457.026	48.622	0.116	0.108
-456.011	69.843	0.283	0.289
-454.997	-1.613	0.191	0.134
-453.982	-73.674	-0.100	-0.036
-452.968	163.591	-0.127	-0.177
-451.953	202.833	0.044	-0.067
-450.938	155.595	-0.118	-0.162
-449.924	-124.947	-0.190	0.029
-448.909	40.526	0.065	-0.058
-447.895	131.897	-0.127	-0.163
-446.880	-200.000	0.001	-0.012
-445.865	76.748	0.222	0.234
-444.851	800.000	-0.027	-0.081
-443.836	-122.796	-0.165	0.026
-442.822	81.035	-0.112	0.120
-441.807	-200.000	0.047	-0.289
-440.792	-200.000	-0.000	-0.058
-439.778	110.860	0.132	0.158
-438.763	67.560	0.086	-0.087
-437.749	-13.237	0.141	0.091
-436.734	-78.070	-0.268	-0.091
-435.719	-182.489	-0.162	-0.003
-434.705	-110.536	0.156	0.032
-433.690	529.737	0.039	-0.091
-432.676	144.224	0.086	-0.114
-431.661	351.493	0.017	-0.034
-430.646	-200.000	-0.008	0.060
-429.632	-34.444	-0.116	-0.063
-428.617	-2.436	-0.376	0.261
-427.603	110.398	-0.146	0.174
-426.588	-136.815	0.261	0.030
-425.573	208.957	-0.075	0.116
-424.559	-200.000	-0.048	0.226
-423.544	-200.000	0.034	-0.249
-422.530	73.127	0.056	0.058
-421.515	-200.000	0.015	0.135
-420.500	-200.000	-0.004	-0.193
-419.486	-129.602	-0.291	-0.040
-418.471	-200.000	-0.017	0.184
-417.457	149.740	-0.160	-0.215
-416.442	122.330	-0.097	-0.121
-415.428	146.584	0.093	-0.124
-414.413	197.231	0.019	-0.029
-413.398	23.732	-0.265	0.216
-412.384	-107.113	-0.061	-0.013
-411.369	-54.972	0.207	0.092
-410.355	-145.028	-0.306	-0.028
-409.340	800.000	-0.038	0.163
-408.325	123.328	0.170	0.211
-407.311	32.298	0.088	-0.076
-406.296	37.402	0.147	-0.129
-405.282	-200.000	-0.015	-0.253
-404.267	-54.786	-0.385	-0.172
-403.252	-128.842	-0.045	-0.006
-402.238	-200.000	-0.048	0.368
-401.223	800.000	-0.049	0.146
-400.209	-30.256	0.396	0.223
-399.194	-183.210	-0.178	-0.003
-398.179	453.058	-0.033	-0.072
-397.165	270.739	-0.028	-0.048
-396.150	-20.962	-0.396	0.240
-395.136	145.113	0.155	-0.205
-394.121	-11.004	0.243	0.159
-393.106	-107.601	0.110	-0.024
-392.092	-89.099	0.182	0.053
-391.077	551.298	0.068	0.162
-390.063	-61.447	-0.111	0.046
-389.048	347.256	-0.167	0.325
-388.033	-118.228	-0.361	-0.064
-387.019	-6.884	0.190	-0.128
-386.004	800.000	-0.020	0.070
-384.990	-200.000	0.017	0.230
-383.975	-37.792	-0.097	0.051
-382.960	-103.687	0.155	-0.036
-381.946	366.288	0.120	0.240
-380.931	-200.000	0.042	0.291
-379.917	800.000	-0.091	-0.373
-378.902	37.926	-0.433	-0.381
-377.888	-63.980	0.161	0.065
-376.873	230.780	0.063	-0.102
-375.858	-200.000	0.019	0.137
-374.844	-200.000	-0.009	0.072
-373.829	-200.000	-0.022	-0.554
-372.815	800.000	0.066	-0.206
-371.800	800.000	-0.066	0.213
-370.785	-200.000	0.042	-0.202
-369.771	-200.000	0.034	0.191
-368.756	70.416	0.216	-0.221
-367.742	152.405	0.284	0.383
-366.727	800.000	0.109	0.366
-365.712	208.037	0.124	-0.192
-364.698	-200.000	0.022	-0.327
-363.683	-29.273	0.120	0.068
-362.669	238.359	0.059	-0.097
-361.654	183.533	-0.116	-0.169
-360.639	-59.755	-0.111	-0.047
-359.625	800.000	0.042	-0.137
-358.610	-200.000	-0.008	0.195
-357.596	49.152	0.171	-0.159
-356.581	414.010	0.041	-0.086
-355.566	97.933	0.117	-0.133
-354.552	-69.237	0.400	-0.152
-353.537	112.363	-0.077	0.092
-352.523	-83.983	-0.672	0.211
-351.508	-200.000	-0.039	-0.249
-350.493	198.856	0.225	0.340
-349.479	800.000	0.110	-0.375
-348.464	-200.000	0.009	-0.079
-347.450	323.788	0.021	-0.040
-346.435	-200.000	-0.029	-0.336
-345.420	103.717	-0.178	-0.206
-344.406	-200.000	-0.001	0.010
-343.391	-182.041	0.131	-0.002
-342.377	61.515	0.176	-0.173
-341.362	46.953	0.346	-0.318
-340.348	173.478	0.045	0.064
-339.333	796.046	0.038	-0.102
-338.318	-118.618	-0.146	0.026
-337.304	74.826	0.187	-0.194
-336.289	417.653	-0.022	-0.046
-335.275	635.112	-0.173	0.434
-334.260	156.659	0.172	-0.235
-333.245	364.440	-0.272	0.541
-332.231	8.830	-0.241	0.179
-331.216	-200.000	0.041	0.268
-330.202	233.204	-0.094	-0.153
-329.187	-8.626	-0.313	0.207
-328.172	345.680	0.056	0.108
-327.158	-16.138	0.241	0.151
-326.143	402.123	-0.066	0.136
-325.129	238.638	-0.151	-0.247
-324.114	-87.476	-0.300	-0.090
-323.099	156.996	-0.181	-0.246
-322.085	-110.376	-0.111	0.023
-321.070	-69.981	0.214	-0.080
-320.056	-200.000	-0.005	-0.105
-319.041	206.927	-0.005	-0.008
-318.026	-35.923	0.297	-0.159
-317.012	800.000	0.020	0.072
-315.997	216.225	-0.099	0.155
-314.983	133.835	0.217	0.277
-313.968	-116.469	0.325	0.059
-312.953	-200.000	-0.003	0.248
-311.939	-27.575	-0.120	-0.069
-310.924	557.155	-0.094	0.224
-309.910	-79.832	-0.254	0.084
-308.895	339.204	-0.082	0.158
-307.880	218.995	0.075	0.119
-306.866	-200.000	0.003	-0.084
-305.851	-200.000	-0.024	0.228
-304.837	-8.240	-0.017	-0.011
-303.822	800.000	-0.007	0.026
-302.807	-26.544	0.442	-0.256
-301.793	-160.272	-0.273	-0.015
-300.778	370.346	0.068	0.136
-299.764	639.238	-0.076	0.191
-298.749	-200.000	0.005	0.185
-297.735	57.429	0.150	0.145
-296.720	96.084	0.252	-0.284
-295.705	-200.000	-0.026	-0.377
-294.691	287.100	-0.159	0.284
-293.676	-61.195	-0.263	0.109
-292.662	318.354	-0.046	0.085
-291.647	-143.800	-0.240	-0.022
-290.632	126.004	0.203	-0.253
-289.618	-177.790	-0.194	0.005
-288.603	-110.390	0.172	-0.035
-287.589	-39.849	-0.174	0.089
-286.574	-200.000	0.002	-0.364
-285.559	800.000	0.051	-0.154
-284.545	20.805	-0.211	-0.168
-283.530	272.730	0.097	0.169
-282.516	-200.000	0.004	-0.182
-281.501	-200.000	0.003	-0.291
-280.486	800.000	0.087	0.273
-279.472	632.944	-0.206	-0.514
-278.457	8.630	-0.226	-0.167
-277.443	269.173	-0.084	-0.145
-276.428	-154.259	0.291	-0.019
-275.413	83.508	-0.264	0.284
-274.399	-84.235	0.274	-0.086
-273.384	73.055	-0.267	-0.275
-272.370	800.000	0.065	0.186
-271.355	256.388	0.086	0.146
-270.340	800.000	-0.030	0.110
-269.326	800.000	0.035	-0.113
-268.311	-20.145	0.386	0.235
-267.297	191.847	-0.192	0.286
-266.282	431.010	0.077	0.165
-265.267	54.831	-0.193	-0.184
-264.253	235.051	-0.047	-0.077
-263.238	-78.618	0.145	0.049
-262.224	-154.164	-0.319	0.021
-261.209	800.000	-0.077	-0.292
-260.195	1.042	-0.363	0.256
-259.180	-200.000	0.014	-0.211
-258.165	30.774	-0.053	-0.044
-257.151	-88.756	0.426	0.125
-256.136	214.386	0.050	-0.078
-255.122	251.824	-0.050	-0.084
-254.107	116.284	0.181	0.219
-253.092	-40.294	0.284	0.146
-252.078	-200.000	-0.045	0.192
-251.063	-175.647	-0.352	0.009
-250.049	-96.919	-0.081	0.021
-249.034	107.666	0.253	-0.297
-248.019	40.539	0.239	-0.212
-247.005	162.782	-0.115	-0.159
-245.990	120.306	0.037	-0.045
-244.976	113.509	0.021	0.025
-243.961	-43.136	0.183	-0.091
-242.946	-111.326	-0.369	-0.074
-241.932	-51.278	-0.025	-0.011
-240.917	-23.974	-0.114	0.067
-239.903	121.224	0.166	-0.204
-238.888	-200.000	0.006	0.053
-237.873	315.671	0.131	0.243
-236.859	800.000	-0.088	-0.274
-235.844	74.152	-0.190	0.196
-234.830	-200.000	-0.022	0.189
-233.815	800.000	0.080	0.282
-232.800	800.000	-0.092	0.253
-231.786	-47.162	0.088	-0.042
-230.771	-126.784	-0.057	0.008
-229.757	415.656	0.085	-0.177
-228.742	-200.000	0.114	0.513
-227.727	-80.125	-0.195	0.064
-226.713	-200.000	-0.018	-0.142
-225.698	-159.725	-0.288	-0.016
-224.684	2.034	0.206	-0.147
-223.669	800.000	-0.091	0.252
-222.655	145.905	-0.135	0.177
-221.640	-200.000	-0.002	-0.300
-220.625	-83.000	0.118	0.037
-219.611	800.000	0.133	-0.410
-218.596	20.967	0.275	0.220
-217.582	-154.950	-0.347	0.022
-216.567	-200.000	0.108	0.473
-215.552	82.916	0.365	0.391
-214.538	-200.000	-0.075	0.441
-213.523	49.568	0.099	-0.092
-212.509	-200.000	0.000	-0.475
-211.494	23.828	0.175	-0.142
-210.479	406.961	-0.147	-0.306
-209.465	-39.893	-0.196	0.101
-208.450	-87.258	-0.137	0.041
-207.436	-145.592	0.046	0.004
-206.421	145.624	0.161	0.212
-205.406	-76.281	0.252	-0.087
-204.392	301.759	0.062	0.114
-203.377	-94.668	0.167	0.045
-202.363	175.187	-0.117	-0.166
-201.348	-43.228	0.054	0.027
-200.333	-200.000	-0.017	-0.170
-199.319	-155.011	0.316	0.020
-198.304	-102.929	0.061	-0.014
-197.290	92.711	-0.058	-0.064
-196.275	800.000	-0.066	0.241
-195.260	-7.910	0.191	0.126
-194.246	281.754	-0.116	-0.204
-193.231	-173.561	-0.349	-0.010
-192.217	-149.429	0.085	-0.007
-191.202	-99.594	-0.366	-0.090
-190.187	-143.763	0.286	0.027
-189.173	-13.761	-0.007	0.005
-188.158	72.833	0.046	0.047
-187.144	-200.000	-0.016	-0.174
-186.129	-125.926	0.294	0.043
-185.114	172.148	-0.168	-0.238
-184.100	-189.190	0.268	0.003
-183.085	-200.000	0.011	0.304
-182.071	153.358	0.069	-0.093
-181.056	-27.235	0.113	0.065
-180.042	-88.511	-0.116	-0.034
-179.027	-55.006	-0.342	-0.151
-178.012	-7.114	0.125	0.083
-176.998	-52.475	-0.070	-0.032
-175.983	-110.342	0.172	0.035
-174.969	800.000	-0.043	0.120
-173.954	-57.068	-0.274	-0.119
-172.939	-200.000	0.046	-0.265
-171.925	800.000	0.066	0.215
-170.910	-93.400	-0.064	0.017
-169.896	477.079	-0.016	-0.036
-168.881	-200.000	-0.036	0.341
-167.866	544.989	-0.026	0.060
-166.852	-200.000	-0.021	0.279
-165.837	-123.391	-0.186	0.029
-164.823	791.630	0.089	-0.241
-163.808	-58.942	0.369	0.157
-162.793	-61.632	-0.522	-0.215
-161.779	-23.220	-0.100	0.059
-160.764	357.848	-0.024	-0.047
-159.750	-200.000	0.062	0.308
-158.735	-106.805	0.250	-0.055
-157.720	2.409	-0.105	0.075
-156.706	147.320	-0.070	-0.093
-155.691	-61.021	-0.278	-0.115
-154.677	622.216	-0.126	-0.310
-153.662	16.503	0.077	0.060
-152.647	115.308	-0.099	-0.119
-151.633	800.000	-0.094	0.259
-150.618	273.056	-0.057	-0.099
-149.604	83.416	0.051	-0.055
-148.589	-91.785	0.410	0.114
-147.574	-108.520	0.185	0.039
-146.560	-63.271	0.297	0.120
-145.545	800.000	-0.064	-0.187
-144.531	18.162	0.259	-0.202
-143.516	322.819	0.061	0.114
-142.502	-164.616	0.072	-0.003
-141.487	277.174	-0.065	0.114
-140.472	16.947	0.076	0.059
-139.458	117.137	0.095	-0.114
-138.443	13.353	0.164	0.125
-137.429	-71.100	-0.177	-0.065
-136.414	66.519	0.193	0.193
-135.399	-26.985	-0.309	0.177
-134.385	-200.000	0.027	-0.157
-133.370	-15.674	0.164	0.103
-132.356	-160.674	0.201	-0.010
-131.341	-120.778	0.271	0.045
-130.326	252.897	0.063	-0.105
-129.312	543.169	0.051	-0.120
-128.297	216.280	-0.062	-0.097
-127.283	-100.345	-0.325	0.079
-126.268	-116.873	0.216	0.039
-125.253	-200.000	0.010	0.183
-124.239	-86.233	0.037	-0.011
-123.224	-200.000	0.043	-0.245
-122.210	-200.000	0.060	-0.280
-121.195	53.212	0.188	0.177
-120.180	60.384	0.158	0.153
-119.166	647.090	-0.059	0.149
-118.151	106.253	-0.168	0.195
-117.137	800.000	0.103	-0.414
-116.122	82.498	0.256	0.273
-115.107	54.911	-0.226	0.214
-114.093	-200.000	0.005	-0.065
-113.078	-35.803	-0.113	0.060
-112.064	56.534	0.064	-0.061
-111.049	-94.878	0.482	-0.128
-110.034	187.934	0.061	-0.090
-109.020	-200.000	-0.029	0.137
-108.005	-95.681	-0.357	-0.093
-106.991	-111.278	0.102	0.020
-105.976	-117.956	0.116	-0.020
-104.962	-193.870	-0.378	-0.003
-103.947	136.475	0.252	0.322
-102.932	-39.768	-0.025	-0.013
-101.918	-161.167	-0.141	-0.007
-100.903	-200.000	-0.016	-0.093
-99.889	-44.888	0.177	-0.086
-98.874	-200.000	-0.040	-0.267
-97.859	511.697	0.172	0.392
-96.845	182.038	-0.036	0.052
-95.830	-69.561	0.112	0.042
-94.816	800.000	0.023	0.088
-93.801	-65.967	-0.332	0.130
-92.786	6.642	0.060	-0.043
-91.772	64.791	-0.174	-0.172
-90.757	668.699	-0.041	0.105
-89.743	30.962	-0.286	-0.240
-88.728	800.000	-0.104	0.331
-87.713	474.309	0.060	0.132
-86.699	-168.394	0.387	-0.015
-85.684	800.000	-0.089	0.243
-84.670	175.502	0.140	0.199
-83.655	-93.199	0.140	-0.038
-82.640	-200.000	-0.003	-0.084
-81.626	467.219	-0.130	-0.284
-80.611	-115.190	0.331	-0.061
-79.597	648.511	0.024	0.061
-78.582	-83.807	0.160	0.050
-77.567	800.000	-0.081	0.252
-76.553	3.187	-0.154	-0.109
-75.538	-3.631	0.244	0.166
-74.524	-200.000	0.000	-0.061
-73.509	121.898	0.311	0.380
-72.494	-86.660	0.261	0.078
-71.480	-200.000	0.002	-0.155
-70.465	-137.608	-0.259	0.028
-69.451	250.969	-0.056	-0.093
-68.436	72.339	-0.207	0.211
-67.422	-38.866	-0.292	-0.150
-66.407	-115.606	0.106	-0.019
-65.392	800.000	-0.112	0.464
-64.378	8.925	0.226	0.167
-63.363	-109.321	-0.009	-0.002
-62.349	-28.434	-0.174	-0.098
-61.334	65.111	-0.755	-0.746
-60.319	159.850	0.531	0.722
-59.305	142.193	-0.798	-1.035
-58.290	435.814	0.543	1.155
-57.276	545.269	0.675	1.577
-56.261	-200.000	115.352	645.945
-55.246	515.345	1527.778	3486.315
-54.232	178.017	2694.505	3840.768
-53.217	106.727	2143.755	2485.740
-52.203	38.549	1582.946	1379.251
-51.188	30.326	1327.185	1107.534
-50.173	27.247	1289.642	1058.281
-49.159	53.207	1347.187	1260.689
-48.144	51.772	1360.649	1264.711
-47.130	30.350	1315.607	1097.845
-46.115	27.017	1297.227	1062.990
-45.100	26.881	1292.202	1058.036
-44.086	26.774	1289.333	1055.023
-43.071	26.662	1287.401	1052.746
-42.057	26.558	1285.448	1050.502
-41.042	26.714	1283.812	1050.030
-40.027	26.680	1282.622	1048.821
-39.013	26.714	1279.703	1046.588
-37.998	26.684	1278.576	1045.451
-36.984	26.789	1276.948	1044.682
-35.969	26.959	1274.671	1043.757
-34.954	26.984	1272.984	1042.479
-33.940	26.921	1271.877	1041.167
-32.925	26.841	1270.912	1039.877
-31.911	26.889	1269.302	1038.791
-30.896	27.061	1267.574	1038.319
-29.881	27.004	1266.344	1036.947
-28.867	26.997	1265.090	1035.839
-27.852	26.879	1263.228	1033.599
-26.838	26.853	1262.450	1032.778
-25.823	26.930	1261.105	1032.071
-24.809	26.922	1259.510	1030.680
-23.794	26.922	1257.985	1029.394
-22.779	26.907	1256.927	1028.399
-21.765	26.911	1255.890	1027.535
-20.750	26.909	1254.774	1026.570
-19.736	26.862	1253.128	1024.917
-18.721	26.895	1251.910	1024.067
-17.706	26.838	1250.996	1022.957
-16.692	26.779	1250.021	1021.782
-15.677	26.792	1248.889	1020.891
-14.663	26.762	1247.573	1019.605
-13.648	26.777	1246.624	1018.875
-12.633	26.815	1245.475	1018.107
-11.619	26.858	1244.819	1017.771
-10.604	26.773	1243.869	1016.482
-9.590	26.714	1243.454	1015.772
-8.575	26.749	1242.621	1015.244
-7.560	26.838	1241.406	1014.710
-6.546	26.691	1240.432	1013.051
-5.531	26.691	1239.635	1012.361
-4.517	26.834	1238.458	1012.156
-3.502	26.929	1237.255	1011.666
-2.487	26.818	1236.673	1010.532
-1.473	26.769	1232.505	1006.812
-0.458	25.027	1217.682	985.097
0.556	21.837	1200.586	947.735
1.571	18.064	1206.658	931.911
2.586	17.122	1221.852	938.357
3.600	16.916	1209.785	927.882
4.615	12.759	1139.530	852.452
5.629	6.224	1068.949	767.768
6.644	3.341	1051.350	741.207
7.659	3.092	1049.413	738.581
8.673	3.132	1047.984	737.701
9.688	3.144	1047.297	737.210
10.702	3.352	1044.629	736.258
11.717	7.118	1049.474	757.662
12.731	14.347	1060.283	800.239
13.746	19.135	1065.831	827.426
14.761	19.834	1066.044	830.877
15.775	18.963	1064.800	825.653
16.790	18.038	1062.565	819.411
17.804	17.377	1061.204	815.125
18.819	16.925	1060.224	812.136
19.834	16.921	1059.585	811.555
20.848	16.672	1058.788	809.679
21.863	16.427	1058.088	807.901
22.877	16.496	1056.852	807.219
23.892	16.332	1056.655	806.213
24.907	16.475	1055.429	805.884
25.921	16.458	1054.528	805.044
26.936	16.514	1052.775	803.906
27.950	16.356	1051.907	802.417
28.965	16.502	1050.379	801.874
29.980	16.544	1049.150	801.063
30.994	16.512	1048.149	800.078
32.009	16.721	1046.912	800.051
33.023	16.584	1045.816	798.496
34.038	16.686	1044.449	797.864
35.053	16.593	1043.557	796.671
36.067	16.468	1042.977	795.569
37.082	16.501	1042.325	795.158
38.096	16.633	1041.157	794.815
39.111	16.604	1040.883	794.404
40.126	16.479	1039.589	792.757
41.140	16.203	1038.366	790.463
42.155	16.067	1037.200	788.870
43.169	16.172	1035.797	788.222
44.184	16.143	1034.854	787.297
45.199	16.136	1034.054	786.586
46.213	16.195	1032.965	785.964
47.228	16.387	1032.243	786.237
48.242	16.356	1031.288	785.298
49.257	16.415	1030.758	785.101
50.271	16.608	1029.274	784.793
51.286	16.520	1028.743	783.910
52.301	16.416	1027.905	782.722
53.315	16.314	1026.694	781.261
54.330	16.200	1025.898	780.056
55.344	16.255	1025.173	779.690
56.359	16.211	1024.132	778.627
57.374	16.163	1022.849	777.363
58.388	16.011	1022.501	776.328
59.403	16.151	1021.257	775.961
60.417	15.944	1020.754	774.557
61.432	16.082	1019.705	774.327
62.447	15.951	1018.634	772.844
63.461	15.940	1017.993	772.236
64.476	15.836	1017.315	771.179
65.490	15.966	1016.139	770.816
66.505	16.036	1015.524	770.599
67.520	16.109	1014.706	770.246
68.534	16.061	1013.900	769.344
69.549	16.025	1013.052	768.471
70.563	15.966	1012.337	767.591
71.578	15.894	1011.436	766.513
72.593	15.812	1010.361	765.256
73.607	15.795	1009.906	764.768
74.622	15.916	1009.379	764.849
75.636	15.913	1008.838	764.360
76.651	15.971	1007.742	763.724
77.666	15.957	1007.788	763.626
78.680	15.949	1006.744	762.733
79.695	15.959	1006.088	762.214
80.709	16.071	1005.447	762.168
81.724	16.268	1004.738	762.452
82.739	16.267	1003.896	761.740
83.753	16.414	1003.933	762.366
84.768	16.607	1002.995	762.456
85.782	16.745	1001.942	762.210
86.797	16.579	1001.301	760.905
87.812	16.420	1000.227	759.306
88.826	16.523	999.073	758.827
89.841	16.642	998.227	758.652
90.855	16.557	997.175	757.405
91.870	16.685	996.660	757.520
92.884	16.578	996.206	756.629
93.899	16.681	994.970	756.083
94.914	16.756	994.121	755.705
95.928	16.683	992.992	754.455
96.943	16.549	992.509	753.426
97.957	16.652	991.426	752.994
98.972	16.726	990.368	752.451
99.987	16.560	990.006	751.373
101.001	16.673	988.712	750.826
102.016	16.619	988.159	750.098
103.030	16.578	987.655	749.470
104.045	16.683	986.461	748.962
105.060	16.518	985.519	747.450
106.074	16.310	984.565	745.743
107.089	16.158	983.761	744.398
108.103	16.206	982.140	743.318
109.118	16.116	981.696	742.518
110.133	16.078	981.032	741.784
111.147	16.227	979.818	741.454
112.162	16.222	978.877	740.654
113.176	16.187	978.840	740.409
114.191	16.231	977.959	739.867
115.206	16.317	977.146	739.563
116.220	16.131	976.496	738.195
117.235	16.160	975.220	737.290
118.249	16.196	974.398	736.762
119.264	16.100	973.791	735.818
120.279	16.120	972.401	734.791
121.293	16.207	971.748	734.609
122.308	16.041	971.066	733.306
123.322	16.072	969.778	732.403
124.337	15.927	969.132	731.220
125.352	15.850	967.906	729.899
126.366	15.944	966.999	729.556
127.381	15.972	965.842	728.739
128.395	15.987	965.156	728.223
129.410	16.119	963.960	727.827
130.424	16.132	963.405	727.401
131.439	16.187	962.464	726.860
132.454	16.357	961.882	727.087
133.468	16.166	961.471	725.891
134.483	16.328	960.363	725.687
135.497	16.306	959.125	724.594
136.512	16.259	958.737	724.035
137.527	16.364	957.772	723.692
138.541	16.226	957.138	722.556
139.556	16.171	956.509	721.783
140.570	16.426	955.967	722.401
141.585	16.536	955.205	722.232
142.600	16.621	954.002	721.620
143.614	16.744	953.163	721.447
144.629	16.756	952.512	720.939
145.643	16.676	951.781	719.984
146.658	16.602	950.308	718.491
147.673	16.363	949.800	717.030
148.687	16.339	949.143	716.365
149.702	16.402	947.756	715.522
150.716	16.276	946.952	714.320
151.731	16.281	946.598	714.013
152.746	16.330	945.931	713.651
153.760	16.550	944.946	713.776
154.775	16.489	944.774	713.326
155.789	16.574	943.973	713.015
156.804	16.471	943.427	712.106
157.819	16.588	942.654	711.951
158.833	16.675	942.201	711.911
159.848	16.888	941.252	712.026
160.862	16.759	939.940	710.432
161.877	16.459	938.990	708.392
162.892	16.381	937.902	707.184
163.906	16.392	936.945	706.445
164.921	16.366	936.436	705.889
165.935	16.534	935.428	705.766
166.950	16.516	934.430	704.877
167.964	16.605	933.569	704.536
168.979	16.519	932.719	703.476
169.994	16.520	931.881	702.785
171.008	16.457	931.412	702.107
172.023	16.567	930.903	702.119
173.037	16.748	930.565	702.552
174.052	16.718	929.571	701.616
175.067	16.547	928.467	700.011
176.081	16.492	927.464	698.966
177.096	16.377	927.583	698.519
178.110	16.550	926.605	698.433
179.125	16.500	926.402	698.015
180.140	16.463	926.121	697.588
181.154	16.639	925.956	698.126
182.169	16.849	924.879	698.120
183.183	16.708	925.116	697.657
184.198	16.779	923.856	696.933
185.213	16.748	923.291	696.322
186.227	16.952	922.259	696.319
187.242	16.839	922.283	695.809
188.256	17.013	921.576	695.927
189.271	16.929	920.600	694.787
190.286	16.640	919.833	692.965
191.300	16.329	918.821	690.867
192.315	16.365	917.960	690.305
193.329	16.404	917.822	690.301
194.344	16.454	917.121	689.917
195.359	16.715	916.464	690.423
196.373	16.765	915.887	690.132
197.388	16.961	915.760	690.773
198.402	17.011	915.590	690.790
199.417	17.239	914.591	690.900
200.432	17.209	914.141	690.380
201.446	17.413	913.366	690.561
202.461	17.352	912.898	689.897
203.475	17.229	912.464	689.008
204.490	17.097	911.463	687.657
205.504	16.991	910.761	686.640
206.519	16.993	910.074	686.068
207.534	16.925	909.464	685.274
208.548	16.980	908.751	684.895
209.563	16.913	908.124	684.093
210.577	17.107	907.665	684.470
211.592	17.198	906.863	684.169
212.607	17.240	906.307	683.857
213.621	17.183	905.509	682.968
214.636	17.240	904.786	682.589
215.650	17.197	904.572	682.195
216.665	17.301	903.630	681.845
217.680	17.487	902.976	682.033
218.694	17.567	901.960	681.526
219.709	17.339	901.506	680.211
220.723	17.374	901.024	679.927
221.738	17.306	900.523	679.216
222.753	17.392	899.680	678.863
223.767	17.283	899.545	678.267
224.782	17.485	898.606	678.303
225.796	17.603	897.889	678.174
226.811	17.442	897.431	677.127
227.826	17.404	896.863	676.486
228.840	17.333	895.678	675.253
229.855	17.310	895.188	674.733
230.869	17.274	894.128	673.731
231.884	17.246	893.879	673.373
232.899	17.234	892.884	672.516
233.913	17.246	892.111	671.919
234.928	17.048	891.765	670.818
235.942	17.216	891.034	670.874
236.957	17.077	891.143	670.348
237.972	17.065	890.417	669.694
238.986	17.276	889.021	669.415
240.001	17.248	888.841	669.113
241.015	17.214	888.094	668.357
242.030	17.304	887.723	668.372
243.045	17.394	887.276	668.330
244.059	17.319	886.813	667.625
245.074	17.593	885.940	667.983
246.088	17.492	885.047	666.858
247.103	17.619	884.614	666.969
248.117	17.772	884.443	667.379
249.132	17.850	883.868	667.190
250.147	18.024	883.421	667.473
251.161	17.966	882.808	666.728
252.176	17.987	882.229	666.312
253.190	18.111	881.153	665.923
254.205	18.154	880.820	665.780
255.220	18.177	880.588	665.634
256.234	18.119	879.639	664.634
257.249	18.197	878.792	664.236
258.263	17.967	878.577	663.123
259.278	18.157	877.752	663.179
260.293	18.120	877.454	662.751
261.307	18.467	876.077	662.996
262.322	18.287	875.878	662.091
263.336	18.188	875.544	661.398
264.351	18.324	874.509	661.081
265.366	18.317	873.904	660.538
266.380	18.182	873.607	659.733
267.395	18.334	872.467	659.400
268.409	18.261	871.880	658.618
269.424	18.204	871.071	657.729
270.439	18.135	870.188	656.738
271.453	18.197	869.333	656.274
272.468	18.065	869.497	655.832
273.482	18.124	868.751	655.437
274.497	18.054	867.992	654.540
275.512	18.303	867.311	654.921
276.526	18.166	866.980	654.090
277.541	18.216	866.691	654.004
278.555	18.378	865.960	654.013
279.570	18.389	865.764	653.851
280.585	18.385	864.587	652.889
281.599	18.333	863.534	651.836
282.614	18.208	863.460	651.248
283.628	18.152	862.553	650.294
284.643	18.278	861.656	650.038
285.657	18.331	861.315	649.924
286.672	18.113	861.175	648.933
287.687	18.320	859.714	648.559
288.701	18.245	859.783	648.270
289.716	18.227	859.264	647.752
290.730	18.350	858.136	647.309
291.745	18.493	857.610	647.398
292.760	18.359	857.526	646.770
293.774	18.580	856.664	646.895
294.789	18.385	856.007	645.609
295.803	18.394	855.197	644.975
296.818	18.325	854.555	644.172
297.833	18.415	853.737	643.837
298.847	18.376	853.465	643.430
299.862	18.583	852.667	643.545
300.876	18.635	852.278	643.393
301.891	18.525	851.746	642.521
302.906	18.640	851.514	642.721
303.920	18.991	850.789	643.431
304.935	18.940	850.315	642.821
305.949	18.731	849.685	641.508
306.964	18.729	848.853	640.816
307.979	18.902	847.824	640.627
308.993	18.919	847.659	640.510
310.008	18.846	847.225	639.853
311.022	18.845	846.552	639.286
312.037	18.767	846.064	638.568
313.052	18.617	845.746	637.715
314.066	18.416	844.629	636.069
315.081	18.545	844.145	636.128
316.095	18.436	843.895	635.479
317.110	18.476	843.344	635.158
318.125	18.493	842.758	634.720
319.139	18.490	842.575	634.516
320.154	18.618	841.782	634.339
321.168	18.695	841.516	634.366
322.183	18.495	841.141	633.288
323.197	18.685	840.481	633.435
324.212	18.575	839.912	632.546
325.227	18.583	839.543	632.239
326.241	18.688	838.443	631.742
327.256	18.686	837.845	631.227
328.270	18.558	837.768	630.645
329.285	18.474	836.711	629.483
330.300	18.674	836.095	629.699
331.314	18.734	835.950	629.754
332.329	18.822	835.287	629.522
333.343	18.871	835.105	629.508
334.358	18.871	834.606	629.075
335.373	18.962	834.209	629.055
336.387	18.891	834.296	628.805
337.402	19.124	833.564	629.051
338.416	19.152	833.221	628.838
339.431	19.210	832.980	628.809
340.446	19.268	832.299	628.453
341.460	19.292	831.881	628.167
342.475	19.464	831.616	628.542
343.489	19.221	831.582	627.575
344.504	19.442	831.009	627.892
345.519	19.498	830.291	627.493
346.533	19.429	829.853	626.858
347.548	19.183	829.069	625.316
348.562	19.139	828.673	624.804
349.577	19.024	828.239	624.005
350.592	19.054	827.260	623.320
351.606	19.065	826.596	622.806
352.621	18.967	826.044	621.979
353.635	19.008	825.321	621.527
354.650	19.198	824.597	621.612
355.665	19.171	824.048	621.049
356.679	19.133	823.816	620.678
357.694	19.256	822.989	620.444
358.708	19.359	822.134	620.117
359.723	19.290	821.673	619.463
360.738	19.306	821.180	619.095
361.752	19.404	820.649	618.994
362.767	19.359	820.401	618.589
363.781	19.623	819.461	618.772
364.796	19.672	819.565	618.971
365.810	19.733	818.986	618.698
366.825	19.765	818.591	618.460
367.840	19.691	818.098	617.767
368.854	19.628	817.759	617.231
369.869	19.547	817.222	616.482
370.883	19.420	816.947	615.768
371.898	19.827	816.200	616.599
372.913	19.739	816.188	616.222
373.927	19.756	815.601	615.788
374.942	19.624	815.063	614.854
375.956	19.838	814.535	615.163
376.971	19.967	813.961	615.133
377.986	19.905	813.835	614.765
379.000	19.921	813.309	614.370
380.015	19.882	812.737	613.746
381.029	19.940	812.113	613.423
382.044	20.009	811.425	613.095
383.059	20.163	810.602	612.963
384.073	20.006	810.345	612.160
385.088	19.785	809.259	610.506
386.102	19.668	809.273	610.048
387.117	19.611	808.541	609.243
388.132	19.711	807.651	608.870
389.146	19.841	807.006	608.789
390.161	19.956	806.996	609.130
391.175	19.922	806.937	608.911
392.190	19.723	806.273	607.659
393.205	19.949	805.431	607.761
394.219	19.788	805.330	607.068
395.234	19.730	804.605	606.265
396.248	19.750	803.925	605.769
397.263	19.552	804.107	605.158
398.278	19.538	803.461	604.568
399.292	19.682	802.872	604.575
400.307	19.634	802.619	604.165
401.321	19.628	802.142	603.733
402.336	19.680	801.880	603.662
403.350	19.795	801.481	603.711
404.365	19.907	801.033	603.710
405.380	20.054	800.420	603.708
406.394	20.217	799.871	603.806
407.409	20.167	799.347	603.184
408.423	20.173	799.217	603.052
409.438	20.397	798.777	603.446
410.453	20.401	798.423	603.140
411.467	20.565	797.784	603.171
412.482	20.439	797.677	602.599
413.496	20.437	797.808	602.640
414.511	20.440	797.285	602.201
415.526	20.333	796.610	601.266
416.540	20.308	795.925	600.611
417.555	20.416	795.328	600.482
418.569	20.507	794.867	600.393
419.584	20.530	794.599	600.219
420.599	20.463	794.197	599.631
421.613	162.134	1372.338	1795.823
422.628	140.564	1456.570	1795.903
