DTS Sentinel unit serial number:	SN413079Multiplexer serial number:	ORYXHardware model number:	OX4-SRSoftware version number:	ORYX F/W v4.00 Oryx Data Collector v3.7.2.0data status	okinstallation	princeton_trtdifferential loss correction	single-endedforward channel	channel 1reverse channel	N/Adate	2019/09/11time	12:04:12forward acquisition time	60.00reverse acquisition time	0.00gamma	496.2192k internal	0.2291k external	0.2291temperature offset calibration	0.9943default loss term (dB/km)	0.3790temperature slope calibration	1.0000multiplexer offset coefficient	1.0000multiplexer slope coefficient	1.0000fibre end	0.00T internal ref (°C)	39.44T ext. ref 1 (°C)	0.20T ext. ref 2 (°C)	37.53length (m)	temperature (°C)	Stokes	anti-Stokes-747.200	-46.023	0.173	-0.087
-746.185	347.994	-0.122	0.247
-745.171	381.858	0.074	-0.156
-744.156	-113.062	-0.526	0.106
-743.142	136.170	-0.043	0.058
-742.127	800.000	0.020	0.074
-741.112	-23.628	0.414	-0.254
-740.098	-200.000	0.012	0.101
-739.083	119.241	0.227	0.288
-738.069	-67.163	0.259	0.104
-737.054	-105.983	-0.309	-0.071
-736.039	-127.436	-0.279	0.042
-735.025	-68.737	-0.133	0.053
-734.010	242.803	0.218	-0.373
-732.996	13.739	-0.503	-0.400
-731.981	117.733	0.073	-0.092
-730.966	744.338	-0.082	0.225
-729.952	-130.336	0.111	-0.015
-728.937	800.000	-0.096	-0.279
-727.923	-106.743	-0.133	-0.030
-726.908	459.961	-0.057	-0.130
-725.894	800.000	0.037	-0.156
-724.879	500.002	-0.164	0.386
-723.864	173.259	-0.157	0.232
-722.850	-116.010	0.108	-0.021
-721.835	-15.712	-0.223	0.146
-720.821	106.683	-0.078	0.094
-719.806	541.511	0.052	-0.127
-718.791	237.586	-0.124	-0.210
-717.777	-20.243	-0.079	0.050
-716.762	-106.590	0.242	0.055
-715.748	-95.228	-0.414	0.114
-714.733	-200.000	0.013	0.400
-713.718	3.414	-0.165	0.123
-712.704	-200.000	0.128	-0.000
-711.689	-200.000	-0.014	-0.064
-710.675	-94.691	-0.456	-0.127
-709.660	241.883	0.201	-0.343
-708.645	-57.665	-0.095	0.043
-707.631	800.000	-0.029	0.124
-706.616	-200.000	0.001	-0.185
-705.602	-190.425	0.238	0.003
-704.587	-41.403	-0.358	0.188
-703.572	-111.414	-0.208	0.043
-702.558	303.427	-0.120	-0.228
-701.543	50.891	0.263	-0.255
-700.529	-147.697	-0.133	-0.011
-699.514	-58.272	-0.162	-0.072
-698.499	800.000	-0.018	-0.066
-697.485	-200.000	0.001	-0.166
-696.470	-73.241	-0.127	0.048
-695.456	-19.538	-0.042	-0.026
-694.441	-126.780	-0.144	-0.022
-693.426	46.727	-0.145	-0.138
-692.412	-169.190	0.501	-0.019
-691.397	-50.992	-0.246	-0.118
-690.383	-52.688	-0.033	-0.015
-689.368	596.191	-0.102	-0.258
-688.354	-5.229	-0.212	-0.149
-687.339	-79.771	-0.413	0.142
-686.324	197.775	-0.059	0.092
-685.310	-20.409	0.181	0.114
-684.295	63.661	0.055	0.056
-683.281	-200.000	-0.033	0.321
-682.266	-200.000	-0.041	-0.232
-681.251	-200.000	0.020	-0.245
-680.237	-200.000	0.005	0.152
-679.222	-170.856	-0.247	-0.009
-678.208	52.460	-0.150	-0.146
-677.193	7.074	-0.189	0.144
-676.178	72.063	0.052	-0.056
-675.164	-68.702	0.178	0.070
-674.149	-130.316	-0.383	-0.053
-673.135	248.173	-0.107	0.184
-672.120	800.000	0.048	0.154
-671.105	33.753	0.223	0.198
-670.091	-200.000	0.019	-0.119
-669.076	-108.637	0.230	-0.050
-668.062	-29.339	0.356	-0.208
-667.047	18.768	0.121	0.099
-666.032	-117.691	-0.179	-0.033
-665.018	800.000	0.014	-0.042
-664.003	17.298	-0.089	-0.072
-662.989	37.971	0.082	0.074
-661.974	-91.602	0.242	0.070
-660.959	-126.545	0.172	-0.026
-659.945	-36.151	-0.286	-0.158
-658.930	-108.375	-0.140	-0.031
-657.916	-200.000	0.036	-0.249
-656.901	-113.574	-0.234	-0.047
-655.886	-200.000	0.039	-0.207
-654.872	398.989	0.124	0.264
-653.857	-27.813	0.265	0.157
-652.843	159.450	0.088	0.125
-651.828	-30.012	-0.284	-0.165
-650.814	-200.000	0.008	0.082
-649.799	-126.404	-0.433	0.066
-648.784	436.680	-0.033	0.073
-647.770	226.997	0.108	0.179
-646.755	-71.501	-0.182	0.070
-645.741	-63.860	0.443	-0.185
-644.726	-200.000	-0.019	-0.510
-643.711	149.963	-0.162	0.223
-642.697	800.000	-0.076	0.230
-641.682	-82.256	0.125	0.042
-640.668	-108.773	0.373	-0.081
-639.653	137.684	-0.118	-0.158
-638.638	150.119	0.076	-0.105
-637.624	-125.595	0.188	0.029
-636.609	311.178	0.080	0.153
-635.595	56.518	-0.284	0.281
-634.580	127.062	-0.270	-0.349
-633.565	-200.000	-0.013	-0.214
-632.551	36.845	-0.038	0.034
-631.536	-200.000	-0.095	-0.439
-630.522	163.516	-0.087	0.125
-629.507	439.753	-0.034	0.075
-628.492	65.211	-0.136	0.141
-627.478	-200.000	0.009	-0.415
-626.463	81.825	-0.095	-0.105
-625.449	-137.451	-0.431	0.050
-624.434	-45.773	-0.204	0.103
-623.419	489.775	-0.198	0.462
-622.405	-19.758	-0.107	-0.067
-621.390	63.538	0.113	-0.116
-620.376	-200.000	0.060	-0.310
-619.361	188.419	-0.154	-0.235
-618.346	699.574	-0.054	0.146
-617.332	431.995	-0.208	0.460
-616.317	-38.565	-0.105	-0.057
-615.303	236.817	0.077	-0.129
-614.288	210.158	-0.119	0.191
-613.273	-43.575	-0.343	-0.176
-612.259	-42.830	0.189	0.098
-611.244	16.050	0.036	0.029
-610.230	-158.104	0.039	0.002
-609.215	-200.000	0.024	-0.362
-608.201	-200.000	0.037	-0.203
-607.186	-94.865	0.273	0.075
-606.171	-188.094	-0.377	-0.005
-605.157	-200.000	0.026	-0.342
-604.142	-22.069	-0.220	0.136
-603.128	-75.587	-0.246	0.089
-602.113	110.527	0.145	-0.177
-601.098	5.910	0.381	0.287
-600.084	-20.728	-0.177	0.111
-599.069	-30.125	-0.061	0.035
-598.055	364.580	-0.041	-0.083
-597.040	40.743	-0.158	-0.145
-596.025	83.215	-0.123	0.137
-595.011	302.530	-0.155	0.292
-593.996	32.776	0.138	-0.122
-592.982	-78.532	-0.126	0.044
-591.967	20.264	-0.456	-0.375
-590.952	-121.253	-0.314	0.053
-589.938	67.241	-0.090	0.093
-588.923	390.545	0.069	-0.145
-587.909	-103.512	0.032	-0.008
-586.894	-103.125	-0.205	0.049
-585.879	-200.000	0.009	0.079
-584.865	-84.138	-0.088	-0.028
-583.850	88.556	-0.176	-0.199
-582.836	-126.422	-0.147	-0.022
-581.821	-94.912	-0.322	0.089
-580.806	-56.582	-0.051	-0.023
-579.792	-121.267	0.391	-0.066
-578.777	-200.000	0.004	0.174
-577.763	-150.069	0.216	0.017
-576.748	-200.000	-0.023	0.194
-575.733	530.553	-0.028	-0.067
-574.719	-126.239	-0.213	0.032
-573.704	360.601	0.145	0.295
-572.690	-200.000	-0.062	-0.385
-571.675	-90.237	-0.232	-0.068
-570.661	351.011	-0.166	0.335
-569.646	-76.415	0.212	0.076
-568.631	-71.962	-0.221	-0.084
-567.617	35.181	0.047	0.042
-566.602	-136.377	-0.088	-0.010
-565.588	-200.000	-0.008	-0.144
-564.573	-132.122	-0.028	0.004
-563.558	-68.364	-0.079	0.031
-562.544	143.922	0.060	0.081
-561.529	241.957	-0.091	-0.154
-560.515	211.936	0.022	-0.035
-559.500	800.000	-0.047	0.135
-558.485	4.420	0.020	0.015
-557.471	-139.189	-0.286	-0.031
-556.456	800.000	-0.019	0.068
-555.442	228.267	-0.049	0.081
-554.427	544.515	0.048	0.116
-553.412	-141.557	0.159	0.016
-552.398	34.727	0.274	-0.243
-551.383	-200.000	-0.045	-0.279
-550.369	31.585	0.243	-0.212
-549.354	-114.144	0.285	-0.056
-548.339	-83.636	-0.159	0.052
-547.325	-73.536	0.275	0.102
-546.310	-129.033	0.321	0.046
-545.296	-200.000	0.033	-0.164
-544.281	522.827	0.073	-0.174
-543.266	-80.922	0.336	-0.113
-542.252	-39.584	-0.146	-0.077
-541.237	-119.936	-0.148	-0.026
-540.223	-20.442	-0.126	-0.079
-539.208	-107.838	0.119	0.026
-538.193	20.814	0.094	-0.077
-537.179	-82.866	0.179	0.059
-536.164	800.000	0.003	-0.011
-535.150	-70.424	0.303	0.117
-534.135	-59.197	-0.295	-0.129
-533.121	-200.000	-0.012	0.205
-532.106	84.204	0.098	0.109
-531.091	-200.000	0.012	-0.240
-530.077	-109.837	0.072	-0.015
-529.062	-56.517	0.253	-0.114
-528.048	42.956	0.113	-0.105
-527.033	-139.750	0.373	-0.040
-526.018	-200.000	0.002	-0.144
-525.004	571.726	-0.052	-0.128
-523.989	-90.062	-0.145	0.043
-522.975	800.000	0.059	-0.169
-521.960	800.000	-0.037	-0.118
-520.945	800.000	0.140	0.410
-519.931	528.563	0.048	-0.116
-518.916	-200.000	-0.088	0.000
-517.902	-127.587	-0.497	0.073
-516.887	-200.000	0.051	0.271
-515.872	-200.000	-0.008	-0.141
-514.858	-22.307	-0.169	-0.104
-513.843	747.245	0.075	-0.204
-512.829	167.299	0.127	-0.182
-511.814	3.087	0.168	0.124
-510.799	49.753	-0.161	-0.154
-509.785	-200.000	0.006	0.090
-508.770	800.000	0.027	-0.079
-507.756	-171.913	0.148	-0.005
-506.741	800.000	-0.069	0.215
-505.726	-200.000	0.039	0.207
-504.712	491.271	-0.075	0.174
-503.697	-134.403	-0.253	0.031
-502.683	31.895	0.240	-0.210
-501.668	163.701	0.089	-0.127
-500.653	800.000	-0.031	0.096
-499.639	-23.958	-0.309	-0.187
-498.624	180.409	-0.094	-0.140
-497.610	-99.966	-0.277	0.070
-496.595	244.353	-0.106	-0.180
-495.581	-71.567	0.241	0.091
-494.566	206.580	-0.023	0.037
-493.551	30.579	0.100	-0.087
-492.537	-80.747	-0.285	-0.096
-491.522	140.620	-0.075	-0.100
-490.508	167.750	-0.084	0.121
-489.493	-170.676	-0.101	-0.004
-488.478	-77.286	-0.272	-0.096
-487.464	-38.709	0.316	0.169
-486.449	-47.465	0.187	0.092
-485.435	184.460	0.136	-0.204
-484.420	-12.722	-0.028	-0.018
-483.405	5.501	0.095	-0.071
-482.391	157.943	0.059	0.083
-481.376	800.000	-0.063	0.186
-480.362	64.056	-0.133	-0.135
-479.347	2.597	0.232	-0.170
-478.332	230.705	0.138	0.228
-477.318	-30.356	0.078	-0.045
-476.303	-45.275	-0.107	-0.054
-475.289	203.652	-0.028	0.043
-474.274	175.407	0.044	-0.065
-473.259	249.587	-0.037	-0.063
-472.245	-200.000	0.018	-0.154
-471.230	-99.860	0.382	-0.097
-470.216	-22.200	-0.543	-0.333
-469.201	146.787	0.072	0.098
-468.186	203.462	-0.112	0.176
-467.172	-63.968	0.288	-0.119
-466.157	-32.107	-0.183	0.104
-465.143	-200.000	-0.021	0.254
-464.128	624.440	-0.101	0.258
-463.113	-150.567	-0.201	0.016
-462.099	83.391	0.256	-0.283
-461.084	-40.505	0.467	0.246
-460.070	65.764	0.210	0.215
-459.055	-26.897	0.316	-0.187
-458.040	209.836	0.235	-0.373
-457.026	-91.206	0.119	0.035
-456.011	130.666	0.032	0.041
-454.997	273.381	-0.086	-0.153
-453.982	177.431	-0.121	-0.178
-452.968	12.704	0.207	0.162
-451.953	-90.889	-0.389	-0.113
-450.938	356.013	-0.186	-0.375
-449.924	-138.673	0.201	0.022
-448.909	100.953	-0.126	0.148
-447.895	800.000	-0.056	-0.229
-446.880	58.659	-0.180	-0.179
-445.865	93.776	0.081	-0.093
-444.851	-82.763	-0.095	-0.031
-443.836	-26.823	0.152	0.090
-442.822	-111.268	-0.110	-0.023
-441.807	-13.892	0.022	0.014
-440.792	-128.976	0.278	0.039
-439.778	-17.594	-0.136	0.086
-438.763	-149.535	-0.308	-0.025
-437.749	267.152	-0.206	-0.365
-436.734	-145.124	0.173	0.016
-435.719	133.912	0.165	0.216
-434.705	-200.000	-0.000	-0.150
-433.690	800.000	-0.058	-0.191
-432.676	779.599	-0.174	0.480
-431.661	-139.509	0.252	0.027
-430.646	-126.782	0.243	-0.036
-429.632	-24.836	0.135	0.081
-428.617	83.139	-0.101	-0.111
-427.603	37.031	0.091	0.081
-426.588	-200.000	0.063	-0.453
-425.573	94.877	0.141	0.162
-424.559	-200.000	-0.007	-0.095
-423.544	-104.158	0.306	-0.072
-422.530	-200.000	0.006	0.291
-421.515	-103.396	-0.337	0.080
-420.500	8.367	-0.009	0.007
-419.486	-200.000	-0.011	-0.168
-418.471	-95.662	0.128	-0.035
-417.457	-167.647	0.041	-0.002
-416.442	-141.102	0.105	0.011
-415.428	-17.556	0.133	-0.084
-414.413	568.041	0.090	-0.221
-413.398	-18.359	-0.326	-0.206
-412.384	51.346	-0.280	0.269
-411.369	-200.000	0.015	0.102
-410.355	-66.649	0.267	0.107
-409.340	-64.481	0.208	0.085
-408.325	6.316	-0.227	-0.170
-407.311	69.781	-0.214	0.222
-406.296	-45.740	-0.074	-0.037
-405.282	-177.368	-0.053	0.001
-404.267	-41.118	0.040	0.021
-403.252	446.229	0.026	-0.058
-402.238	-89.686	0.437	0.129
-401.223	-200.000	0.001	-0.097
-400.209	-28.577	0.184	0.107
-399.194	-200.000	0.017	-0.260
-398.179	-200.000	-0.016	0.227
-397.165	-83.449	-0.331	-0.107
-396.150	-149.489	-0.022	-0.002
-395.136	155.939	-0.117	-0.162
-394.121	144.124	-0.178	0.240
-393.106	800.000	-0.102	-0.385
-392.092	6.552	0.032	0.024
-391.077	259.829	-0.093	0.162
-390.063	-91.947	0.299	0.086
-389.048	43.102	0.338	0.311
-388.033	45.405	0.182	-0.170
-387.019	-200.000	0.001	-0.224
-386.004	-105.385	0.280	-0.064
-384.990	-148.145	-0.267	-0.022
-383.975	800.000	0.048	0.204
-382.960	-130.275	-0.405	0.056
-381.946	-97.128	-0.196	0.052
-380.931	-90.325	-0.029	0.008
-379.917	411.713	-0.103	0.221
-378.902	-114.467	-0.295	0.057
-377.888	128.310	0.112	-0.144
-376.873	-200.000	0.014	0.192
-375.858	-16.399	0.195	-0.125
-374.844	-20.724	0.327	-0.202
-373.829	659.953	0.069	0.179
-372.815	800.000	-0.057	0.222
-371.800	-56.772	0.290	0.130
-370.785	305.024	-0.076	-0.143
-369.771	-89.028	0.370	0.111
-368.756	-51.993	-0.140	-0.065
-367.742	64.044	-0.099	0.100
-366.727	-16.114	0.396	0.254
-365.712	5.416	0.308	-0.229
-364.698	99.729	-0.079	0.092
-363.683	77.712	-0.115	-0.123
-362.669	-24.243	0.117	-0.070
-361.654	-71.755	0.154	0.058
-360.639	-65.291	0.178	0.072
-359.625	-135.611	0.320	0.038
-358.610	-118.827	-0.167	-0.030
-357.596	800.000	0.020	-0.076
-356.581	448.112	0.057	-0.126
-355.566	8.382	-0.252	0.191
-354.552	-23.210	0.188	-0.114
-353.537	-32.854	0.124	-0.070
-352.523	237.317	0.167	-0.279
-351.508	800.000	0.038	0.113
-350.493	-129.796	0.191	0.027
-349.479	-200.000	0.043	0.216
-348.464	-135.070	0.384	0.047
-347.450	-64.408	0.386	-0.158
-346.435	-200.000	0.073	0.371
-345.420	-200.000	-0.011	0.097
-344.406	5.576	0.148	0.110
-343.391	534.477	0.052	0.125
-342.377	102.216	-0.200	0.235
-341.362	-71.614	0.090	0.034
-340.348	800.000	0.016	-0.064
-339.333	368.538	0.187	-0.382
-338.318	-200.000	-0.031	-0.223
-337.304	-173.096	-0.020	0.001
-336.289	-146.605	0.143	-0.012
-335.275	-56.522	-0.351	-0.157
-334.260	170.117	-0.090	-0.130
-333.245	-170.628	-0.422	0.015
-332.231	-58.075	0.103	0.045
-331.216	-200.000	0.008	0.216
-330.202	-158.206	0.196	0.012
-329.187	499.076	-0.143	0.333
-328.172	800.000	-0.115	0.348
-327.158	800.000	-0.068	-0.268
-326.143	-0.651	-0.037	0.026
-325.129	151.902	-0.127	0.174
-324.114	457.519	0.072	0.160
-323.099	-20.516	-0.128	0.079
-322.085	800.000	0.083	0.284
-321.070	-157.462	0.321	-0.019
-320.056	53.647	0.301	-0.291
-319.041	-130.138	-0.277	-0.038
-318.026	4.754	-0.090	0.066
-317.012	68.510	-0.067	-0.069
-315.997	-39.443	0.130	0.069
-314.983	-90.143	0.169	0.049
-313.968	-80.539	-0.196	0.066
-312.953	-200.000	0.071	0.438
-311.939	-53.159	0.258	0.119
-310.924	165.418	-0.152	0.217
-309.910	-139.704	-0.176	0.019
-308.895	800.000	0.109	-0.384
-307.880	181.340	0.057	0.085
-306.866	-6.448	0.036	-0.025
-305.851	271.848	-0.148	-0.262
-304.837	-63.108	-0.075	-0.031
-303.822	293.526	-0.109	0.201
-302.807	-200.000	0.011	-0.349
-301.793	-32.442	-0.079	-0.045
-300.778	-75.020	-0.164	0.059
-299.764	-98.905	-0.318	-0.081
-298.749	-79.733	-0.240	0.081
-297.735	-142.970	0.446	-0.044
-296.720	800.000	-0.060	-0.241
-295.705	307.264	0.091	-0.171
-294.691	800.000	-0.054	-0.170
-293.676	88.905	0.114	0.128
-292.662	616.559	0.102	0.257
-291.647	-168.538	0.271	-0.010
-290.632	159.058	0.099	-0.138
-289.618	800.000	-0.044	-0.185
-288.603	-30.153	-0.202	0.116
-287.589	-200.000	-0.013	0.114
-286.574	-42.049	0.174	0.090
-285.559	285.804	0.088	0.159
-284.545	-158.288	0.147	-0.009
-283.530	-151.388	0.038	-0.003
-282.516	-53.798	0.266	-0.122
-281.501	-87.908	-0.297	0.090
-280.486	-62.226	0.225	-0.094
-279.472	57.805	-0.091	0.090
-278.457	-140.834	0.179	-0.019
-277.443	-21.741	0.138	-0.084
-276.428	767.341	-0.095	0.259
-275.413	-33.718	0.195	0.108
-274.399	-200.000	-0.012	0.088
-273.384	330.615	-0.141	-0.273
-272.370	94.023	-0.228	0.260
-271.355	-104.481	0.432	0.100
-270.340	50.158	-0.053	0.050
-269.326	-155.307	-0.311	0.020
-268.311	19.162	-0.197	-0.158
-267.297	0.726	-0.284	-0.204
-266.282	-98.498	-0.028	0.007
-265.267	-8.162	-0.340	-0.230
-264.253	-200.000	-0.023	-0.253
-263.238	-146.952	0.400	0.035
-262.224	167.342	0.079	0.113
-261.209	153.678	0.064	-0.087
-260.195	-49.716	-0.092	-0.044
-259.180	-200.000	-0.001	-0.087
-258.165	800.000	-0.052	0.166
-257.151	-88.207	0.022	0.007
-256.136	-63.101	0.310	-0.129
-255.122	800.000	-0.009	-0.034
-254.107	-200.000	-0.002	-0.082
-253.092	-123.138	0.396	-0.064
-252.078	-108.447	-0.321	0.069
-251.063	-46.219	0.160	-0.079
-250.049	-70.749	-0.132	-0.050
-249.034	800.000	-0.118	-0.333
-248.019	60.445	-0.155	0.154
-247.005	-94.878	0.097	-0.026
-245.990	35.837	-0.118	-0.105
-244.976	-200.000	-0.021	0.275
-243.961	800.000	0.092	0.386
-242.946	-58.676	-0.344	0.150
-241.932	-200.000	-0.006	-0.378
-240.917	-26.956	-0.254	-0.149
-239.903	-200.000	-0.036	0.299
-238.888	-17.723	-0.258	0.162
-237.873	-49.402	0.366	-0.175
-236.859	392.848	-0.142	0.297
-235.844	324.761	0.154	0.295
-234.830	-1.273	-0.361	0.256
-233.815	-200.000	-0.003	-0.141
-232.800	267.773	-0.100	0.175
-231.786	-28.659	0.099	-0.057
-230.771	49.534	0.242	0.229
-229.757	81.959	0.106	-0.115
-228.742	480.363	0.142	0.323
-227.727	-103.243	-0.467	0.111
-226.713	188.762	-0.093	0.139
-225.698	206.904	-0.051	0.079
-224.684	-20.907	0.258	-0.158
-223.669	61.017	-0.118	-0.117
-222.655	14.574	-0.073	0.057
-221.640	-74.906	-0.057	-0.020
-220.625	-40.750	-0.063	0.033
-219.611	-95.905	-0.141	-0.038
-218.596	-200.000	-0.021	-0.276
-217.582	-107.935	0.199	-0.043
-216.567	800.000	-0.083	0.235
-215.552	124.385	-0.083	-0.104
-214.538	240.413	-0.185	0.309
-213.523	800.000	0.035	-0.108
-212.509	232.913	-0.123	-0.203
-211.494	458.273	0.048	-0.106
-210.479	-38.618	0.177	0.094
-209.465	-105.423	0.159	-0.036
-208.450	-101.591	-0.251	0.061
-207.436	-119.196	-0.382	-0.067
-206.421	-80.625	-0.076	0.025
-205.406	-172.182	0.133	-0.004
-204.392	41.294	-0.185	-0.168
-203.377	-93.103	0.218	-0.061
-202.363	-61.744	0.077	-0.032
-201.348	800.000	-0.034	-0.111
-200.333	800.000	0.064	0.269
-199.319	800.000	-0.033	0.102
-198.304	129.366	-0.035	-0.044
-197.290	-200.000	-0.012	-0.129
-196.275	-200.000	-0.003	-0.151
-195.260	-200.000	0.026	-0.136
-194.246	26.296	0.152	0.128
-193.231	800.000	-0.105	0.449
-192.217	-200.000	-0.023	0.240
-191.202	119.433	0.030	0.037
-190.187	-81.473	-0.252	-0.083
-189.173	225.486	-0.090	-0.146
-188.158	16.006	0.149	0.118
-187.144	-200.000	0.031	0.150
-186.129	-74.662	-0.096	-0.035
-185.114	112.331	0.095	0.115
-184.100	-100.818	0.177	0.044
-183.085	219.645	-0.137	0.219
-182.071	-40.705	0.178	0.092
-181.056	800.000	-0.048	-0.144
-180.042	71.684	-0.054	0.057
-179.027	-35.212	-0.118	0.064
-178.012	107.608	-0.281	0.335
-176.998	800.000	-0.079	0.252
-175.983	-101.951	-0.233	0.056
-174.969	117.898	0.073	-0.090
-173.954	-43.629	0.100	0.050
-172.939	-152.749	-0.125	-0.009
-171.925	-200.000	-0.038	0.183
-170.910	-200.000	-0.020	0.385
-169.896	63.010	-0.183	0.183
-168.881	-200.000	-0.015	-0.290
-167.866	394.716	-0.062	-0.130
-166.852	275.209	-0.089	-0.157
-165.837	-19.548	0.445	-0.276
-164.823	92.487	-0.064	0.073
-163.808	-101.742	0.111	-0.027
-162.793	-56.785	0.284	-0.126
-161.779	255.642	0.091	-0.157
-160.764	-127.460	-0.194	-0.028
-159.750	14.908	0.313	0.245
-158.735	-44.350	-0.211	-0.106
-157.720	41.599	0.182	-0.165
-156.706	-22.750	-0.205	-0.124
-155.691	-61.865	-0.039	0.016
-154.677	48.139	0.213	0.199
-153.662	-39.656	0.148	0.077
-152.647	-51.134	0.331	0.155
-151.633	-81.084	0.259	-0.086
-150.618	206.609	0.099	0.154
-149.604	-97.319	0.206	0.054
-148.589	-89.684	0.101	0.030
-147.574	-162.188	-0.195	0.010
-146.560	-170.537	-0.294	-0.010
-145.545	-32.653	-0.277	-0.154
-144.531	-0.279	0.159	-0.113
-143.516	-26.766	0.215	-0.126
-142.502	-113.176	0.090	0.018
-141.487	-78.820	0.121	0.041
-140.472	-128.945	-0.145	-0.020
-139.458	-96.053	0.085	-0.023
-138.443	-101.415	0.135	-0.033
-137.429	114.842	0.152	-0.185
-136.414	-82.366	0.078	-0.025
-135.399	-200.000	-0.026	-0.170
-134.385	-4.953	0.228	0.157
-133.370	-200.000	-0.015	0.216
-132.356	57.002	-0.263	-0.256
-131.341	800.000	-0.039	0.141
-130.326	38.595	0.192	0.171
-129.312	375.222	0.088	-0.180
-128.297	800.000	-0.030	-0.095
-127.283	-146.091	0.320	-0.028
-126.268	-200.000	-0.015	-0.079
-125.253	-116.047	-0.161	0.030
-124.239	132.332	0.287	0.370
-123.224	38.786	0.198	0.177
-122.210	-62.425	0.151	-0.063
-121.195	-200.000	-0.011	-0.288
-120.180	151.541	0.027	-0.036
-119.166	-25.882	0.255	-0.150
-118.151	800.000	-0.092	0.270
-117.137	-141.653	-0.094	0.009
-116.122	-200.000	0.042	-0.200
-115.107	66.092	0.095	0.097
-114.093	-37.852	0.169	-0.090
-113.078	201.843	-0.217	0.334
-112.064	185.843	-0.157	0.233
-111.049	158.106	0.080	0.111
-110.034	-97.952	0.072	-0.019
-109.020	-75.049	0.179	-0.064
-108.005	127.314	-0.194	0.246
-106.991	-200.000	0.018	0.345
-105.976	49.108	0.128	0.121
-104.962	777.763	-0.067	-0.183
-103.947	-200.000	0.041	0.336
-102.932	-106.925	0.106	0.023
-101.918	445.049	-0.122	-0.268
-100.903	-136.059	0.164	-0.019
-99.889	-200.000	0.029	0.135
-98.874	-134.383	-0.401	-0.049
-97.859	367.393	0.092	0.186
-96.845	-50.238	0.089	0.042
-95.830	65.178	0.091	0.091
-94.816	-200.000	-0.031	0.171
-93.801	800.000	-0.049	0.159
-92.786	167.068	-0.166	0.235
-91.772	634.595	0.156	0.394
-90.757	800.000	-0.055	0.218
-89.743	532.880	0.046	-0.108
-88.728	800.000	-0.032	0.128
-87.713	-200.000	-0.101	0.569
-86.699	-88.470	-0.066	-0.020
-85.684	461.609	0.086	-0.191
-84.670	22.458	-0.174	-0.142
-83.655	-97.960	0.181	-0.047
-82.640	216.498	-0.140	-0.222
-81.626	-44.040	0.133	-0.066
-80.611	-14.898	0.232	-0.148
-79.597	-99.174	-0.200	0.050
-78.582	12.088	-0.151	-0.116
-77.567	-153.020	0.383	0.027
-76.553	35.424	0.289	0.253
-75.538	2.843	0.327	-0.237
-74.524	-150.989	-0.256	0.019
-73.509	-200.000	-0.006	0.183
-72.494	113.214	0.304	0.368
-71.480	17.774	0.156	0.124
-70.465	96.468	-0.070	-0.079
-69.451	92.469	0.150	0.168
-68.436	228.792	-0.169	-0.275
-67.422	-105.544	0.258	0.058
-66.407	-25.279	0.179	0.106
-65.392	31.860	0.058	0.050
-64.378	48.176	-0.145	-0.135
-63.363	-200.000	0.012	-0.133
-62.349	550.336	0.150	-0.358
-61.334	-19.405	-0.543	-0.336
-60.319	800.000	0.155	0.531
-59.305	-200.000	-0.006	-0.925
-58.290	98.356	0.541	0.621
-57.276	563.785	0.729	1.758
-56.261	-200.000	77.965	499.221
-55.246	578.215	1361.510	3319.222
-54.232	179.292	2603.614	3796.537
-53.217	125.086	2252.994	2829.567
-52.203	51.244	1696.292	1604.209
-51.188	43.069	1420.425	1291.180
-50.173	39.525	1374.529	1227.389
-49.159	58.268	1409.828	1377.069
-48.144	64.343	1428.594	1433.456
-47.130	43.477	1391.628	1267.364
-46.115	39.622	1374.999	1228.215
-45.100	39.343	1370.611	1222.516
-44.086	39.169	1368.356	1219.375
-43.071	39.242	1366.145	1217.807
-42.057	39.157	1363.873	1215.207
-41.042	39.314	1361.485	1214.002
-40.027	39.365	1360.267	1213.180
-39.013	39.227	1358.523	1210.731
-37.998	39.269	1356.347	1209.003
-36.984	39.432	1354.689	1208.478
-35.969	39.501	1352.511	1206.904
-34.954	39.519	1350.849	1205.483
-33.940	39.557	1349.414	1204.391
-32.925	39.581	1347.940	1203.170
-31.911	39.604	1346.550	1202.024
-30.896	39.555	1344.752	1200.075
-29.881	39.534	1344.053	1199.277
-28.867	39.594	1341.965	1197.729
-27.852	39.590	1340.865	1196.673
-26.838	39.567	1339.490	1195.260
-25.823	39.513	1337.807	1193.385
-24.809	39.423	1336.731	1191.832
-23.794	39.527	1334.976	1190.848
-22.779	39.450	1333.759	1189.254
-21.765	39.505	1332.430	1188.351
-20.750	39.433	1331.615	1187.142
-19.736	39.400	1329.585	1185.086
-18.721	39.410	1328.039	1183.722
-17.706	39.417	1327.171	1182.946
-16.692	39.345	1325.965	1181.390
-15.677	39.555	1324.345	1181.156
-14.663	39.420	1323.416	1179.477
-13.648	39.414	1322.270	1178.370
-12.633	39.312	1321.505	1177.030
-11.619	39.338	1320.379	1176.139
-10.604	39.395	1319.471	1175.622
-9.590	39.364	1318.355	1174.397
-8.575	39.356	1317.631	1173.660
-7.560	39.351	1316.151	1172.264
-6.546	39.278	1315.671	1171.352
-5.531	39.372	1314.367	1170.705
-4.517	39.374	1313.825	1170.191
-3.502	39.291	1313.415	1169.284
-2.487	39.367	1311.659	1168.124
-1.473	39.468	1307.907	1165.334
-0.458	38.675	1293.762	1148.041
0.556	33.699	1274.935	1110.516
1.571	30.433	1279.871	1095.486
2.586	29.287	1296.035	1102.378
3.600	27.645	1283.152	1081.589
4.615	19.149	1203.048	966.506
5.629	6.263	1117.618	830.185
6.644	0.646	1092.667	782.543
7.659	0.157	1089.976	778.020
8.673	0.098	1088.601	776.667
9.688	-0.089	1087.550	774.881
10.702	0.625	1086.153	777.496
11.717	8.411	1098.416	826.611
12.731	19.493	1114.505	896.524
13.746	22.721	1118.101	916.135
14.761	22.435	1116.869	913.560
15.775	22.167	1116.871	912.088
16.790	22.011	1115.815	910.335
17.804	21.932	1114.851	909.058
18.819	21.976	1114.733	909.110
19.834	22.120	1114.074	909.236
20.848	22.146	1113.740	909.020
21.863	22.219	1112.600	908.384
22.877	22.108	1111.871	907.136
23.892	22.067	1111.228	906.324
24.907	22.122	1110.798	906.176
25.921	22.027	1109.787	904.778
26.936	22.047	1107.977	903.329
27.950	21.884	1106.847	901.490
28.965	21.863	1104.674	899.531
29.980	21.940	1102.774	898.297
30.994	22.197	1102.104	898.989
32.009	22.111	1101.035	897.594
33.023	21.848	1100.205	895.498
34.038	22.051	1098.985	895.462
35.053	22.104	1098.152	894.971
36.067	22.018	1097.447	893.882
37.082	22.039	1096.929	893.487
38.096	22.205	1096.426	893.842
39.111	22.414	1095.423	894.008
40.126	22.165	1093.951	891.462
41.140	21.932	1092.158	888.746
42.155	21.615	1090.529	885.737
43.169	21.672	1089.798	885.353
44.184	21.717	1089.017	884.867
45.199	21.680	1087.400	883.291
46.213	21.666	1086.564	882.463
47.228	21.784	1085.764	882.329
48.242	21.930	1084.880	882.265
49.257	21.942	1084.298	881.773
50.271	22.148	1083.602	882.164
51.286	22.210	1082.373	881.397
52.301	22.126	1081.489	880.175
53.315	22.025	1080.525	878.808
54.330	21.944	1079.875	877.801
55.344	22.103	1078.678	877.543
56.359	22.048	1077.722	876.413
57.374	21.826	1077.263	874.853
58.388	21.850	1076.478	874.261
59.403	21.817	1075.562	873.271
60.417	21.731	1074.285	871.729
61.432	21.839	1073.801	871.799
62.447	21.853	1073.233	871.328
63.461	21.875	1072.959	871.138
64.476	21.960	1071.228	870.079
65.490	21.689	1070.434	868.012
66.505	21.932	1069.644	868.499
67.520	21.917	1068.756	867.628
68.534	21.549	1068.323	865.377
69.549	21.406	1066.400	863.037
70.563	21.271	1066.229	862.156
71.578	21.458	1065.123	862.110
72.593	21.143	1064.061	859.624
73.607	21.384	1063.514	860.290
74.622	21.619	1063.361	861.246
75.636	21.671	1062.599	860.808
76.651	21.525	1061.105	858.804
77.666	21.488	1060.690	858.212
78.680	21.594	1059.788	857.928
79.695	21.555	1059.288	857.256
80.709	21.753	1058.499	857.508
81.724	21.607	1057.804	856.156
82.739	21.820	1056.807	856.316
83.753	22.151	1056.148	857.319
84.768	22.317	1055.598	857.608
85.782	22.327	1054.755	856.896
86.797	22.313	1053.641	855.846
87.812	22.306	1052.095	854.478
88.826	22.261	1051.545	853.738
89.841	22.356	1050.136	852.982
90.855	22.362	1049.337	852.284
91.870	22.371	1048.709	851.743
92.884	22.252	1047.406	850.035
93.899	22.141	1046.256	848.490
94.914	22.280	1045.558	848.519
95.928	22.205	1044.216	846.994
96.943	21.903	1043.391	844.797
97.957	21.723	1042.192	842.882
98.972	21.633	1040.660	841.137
99.987	21.825	1040.114	841.543
101.001	22.072	1039.531	842.183
102.016	21.955	1038.761	840.922
103.030	21.988	1037.599	840.067
104.045	21.823	1036.672	838.451
105.060	21.667	1035.776	836.909
106.074	21.755	1035.327	836.890
107.089	22.143	1034.200	837.755
108.103	22.108	1033.289	836.777
109.118	21.860	1031.941	834.432
110.133	21.845	1030.977	833.510
111.147	21.674	1029.793	831.666
112.162	21.465	1028.587	829.626
113.176	21.755	1028.146	830.572
114.191	21.765	1026.953	829.580
115.206	21.436	1026.215	827.358
116.220	21.441	1025.181	826.474
117.235	21.479	1024.640	826.144
118.249	21.545	1023.778	825.687
119.264	21.470	1022.824	824.489
120.279	21.440	1022.292	823.850
121.293	21.638	1021.018	823.681
122.308	21.700	1020.016	823.089
123.322	21.605	1018.657	821.474
124.337	21.329	1017.839	819.450
125.352	20.993	1015.799	816.160
126.366	20.872	1014.970	814.857
127.381	21.700	1014.740	818.469
128.395	22.090	1014.159	819.750
129.410	22.007	1013.570	818.813
130.424	22.110	1012.547	818.396
131.439	21.981	1011.993	817.272
132.454	22.055	1010.741	816.535
133.468	21.964	1009.764	815.250
134.483	22.154	1008.966	815.417
135.497	22.368	1008.073	815.613
136.512	22.480	1007.031	815.217
137.527	22.305	1006.389	813.817
138.541	22.464	1005.615	813.852
139.556	22.377	1004.705	812.643
140.570	22.498	1004.116	812.653
141.585	22.528	1002.759	811.620
142.600	22.395	1001.773	810.137
143.614	22.517	1001.161	810.135
144.629	22.823	999.957	810.493
145.643	22.460	999.075	808.039
146.658	22.311	997.467	805.985
147.673	22.340	996.479	805.250
148.687	22.138	995.760	803.673
149.702	22.028	994.403	802.005
150.716	21.974	993.652	801.080
151.731	22.293	992.973	801.915
152.746	22.391	992.790	802.146
153.760	22.568	991.981	802.227
154.775	22.515	991.216	801.296
155.789	22.384	990.506	800.057
156.804	22.418	989.378	799.229
157.819	22.518	988.343	798.773
158.833	22.609	987.840	798.709
159.848	22.697	986.378	797.855
160.862	22.448	985.428	795.893
161.877	22.489	984.485	795.245
162.892	22.520	983.568	794.571
163.906	22.403	982.388	793.023
164.921	22.444	981.242	792.213
165.935	22.432	980.946	791.847
166.950	22.443	979.373	790.556
167.964	22.376	979.171	790.023
168.979	22.258	977.719	788.254
169.994	22.250	976.701	787.327
171.008	22.360	976.502	787.592
172.023	22.608	975.206	787.581
173.037	22.343	974.150	785.478
174.052	22.142	972.998	783.584
175.067	22.221	972.725	783.646
176.081	22.335	972.278	783.723
177.096	22.267	971.248	782.523
178.110	21.882	970.461	780.109
179.125	21.742	969.520	778.661
180.140	21.796	969.417	778.747
181.154	22.007	969.251	779.482
182.169	22.368	968.705	780.575
183.183	22.471	968.447	780.758
184.198	22.241	967.446	778.864
185.213	22.275	966.822	778.441
186.227	22.415	965.773	778.147
187.242	22.477	964.905	777.652
188.256	22.454	964.450	777.114
189.271	22.454	963.995	776.681
190.286	22.107	962.887	774.190
191.300	21.622	961.057	770.516
192.315	21.030	959.370	766.493
193.329	20.905	959.006	765.586
194.344	21.800	959.470	769.820
195.359	22.292	959.737	772.129
196.373	22.508	958.939	772.364
197.388	22.266	958.533	770.908
198.402	22.414	957.118	770.348
199.417	22.383	956.673	769.785
200.432	22.195	955.518	767.968
201.446	21.905	954.970	766.194
202.461	21.913	954.469	765.757
203.475	21.236	952.405	761.084
204.490	20.382	951.415	756.509
205.504	21.185	951.809	760.251
206.519	21.962	951.317	763.171
207.534	22.008	950.818	762.903
208.548	22.527	950.528	764.858
209.563	22.107	949.875	762.445
210.577	22.096	949.382	761.932
211.592	22.516	949.053	763.422
212.607	22.536	947.924	762.534
213.621	22.354	947.361	761.224
214.636	22.470	946.495	760.961
215.650	22.483	945.312	760.000
216.665	22.523	945.501	760.259
217.680	22.498	944.221	759.053
218.694	22.247	942.788	756.754
219.709	21.933	942.466	755.077
220.723	22.342	942.401	756.718
221.738	22.206	941.608	755.429
222.753	22.296	940.861	755.149
223.767	22.367	940.649	755.219
224.782	22.687	939.830	755.863
225.796	22.687	939.230	755.314
226.811	22.087	937.668	751.428
227.826	21.257	936.905	747.200
228.840	21.541	935.993	747.622
229.855	21.545	935.339	747.048
230.869	21.459	933.666	745.282
231.884	21.701	934.026	746.535
232.899	22.335	934.362	749.436
233.913	22.358	933.117	748.471
234.928	22.254	932.700	747.626
235.942	22.175	932.193	746.817
236.957	21.946	931.162	744.955
237.972	22.036	930.305	744.586
238.986	22.195	929.832	744.814
240.001	22.092	929.474	744.024
241.015	22.279	928.640	744.085
242.030	22.343	928.488	744.167
243.045	22.533	927.942	744.466
244.059	22.419	927.798	743.803
245.074	22.232	926.601	741.987
246.088	21.994	925.403	739.959
247.103	22.323	925.023	740.978
248.117	22.679	925.253	742.595
249.132	22.920	924.633	743.045
250.147	23.135	924.272	743.594
251.161	23.253	923.759	743.610
252.176	23.143	922.878	742.375
253.190	23.223	922.397	742.258
254.205	23.399	921.783	742.432
255.220	23.423	921.166	741.970
256.234	23.349	920.240	740.852
257.249	23.143	919.573	739.389
258.263	23.118	918.760	738.562
259.278	23.302	918.214	738.827
260.293	23.304	917.436	738.146
261.307	23.255	916.794	737.356
262.322	23.083	915.663	735.666
263.336	22.240	914.189	730.918
264.351	21.196	911.850	724.649
265.366	21.326	911.873	725.144
266.380	22.388	912.430	729.929
267.395	22.891	912.234	731.792
268.409	22.799	911.620	730.855
269.424	22.992	910.849	730.971
270.439	23.088	910.667	731.155
271.453	23.039	909.930	730.297
272.468	23.233	909.573	730.746
273.482	23.329	909.260	730.829
274.497	23.016	907.866	728.353
275.512	22.459	906.810	725.148
276.526	22.827	907.119	726.848
277.541	23.160	906.656	727.782
278.555	22.857	905.492	725.537
279.570	22.783	904.678	724.516
280.585	22.882	904.435	724.664
281.599	22.848	902.933	723.260
282.614	22.372	901.957	720.464
283.628	22.279	901.421	719.594
284.643	22.739	901.153	721.194
285.657	22.291	899.936	718.328
286.672	22.037	898.836	716.351
287.687	22.615	899.034	718.804
288.701	22.675	898.505	718.559
289.716	22.381	897.273	716.316
290.730	22.247	897.139	715.602
291.745	22.091	895.681	713.738
292.760	22.277	895.922	714.623
293.774	23.191	896.293	718.569
294.789	23.506	896.201	719.712
295.803	23.572	895.501	719.354
296.818	23.574	894.408	718.420
297.833	23.232	892.945	715.798
298.847	23.037	892.748	714.788
299.862	23.303	892.623	715.700
300.876	23.413	892.852	716.267
301.891	23.568	891.102	715.421
302.906	23.040	890.390	712.661
303.920	23.129	890.271	712.862
304.935	23.463	889.846	713.804
305.949	23.477	888.901	713.039
306.964	23.382	887.909	711.796
307.979	23.331	888.106	711.686
308.993	23.694	887.726	712.777
310.008	23.559	887.595	712.065
311.022	23.435	886.111	710.318
312.037	23.293	885.439	709.145
313.052	23.041	884.477	707.307
314.066	22.179	883.047	702.653
315.081	21.730	882.562	700.413
316.095	22.625	883.094	704.351
317.110	23.138	882.651	705.981
318.125	22.455	880.836	701.749
319.139	21.414	879.081	696.144
320.154	21.406	878.690	695.742
321.168	22.362	879.014	699.740
322.183	22.767	879.795	701.911
323.197	23.031	879.417	702.596
324.212	23.249	879.197	703.226
325.227	23.237	878.519	702.574
326.241	23.306	877.426	701.909
327.256	23.082	876.766	700.431
328.270	23.075	875.974	699.711
329.285	22.796	875.566	698.218
330.300	22.669	874.783	697.029
331.314	22.901	874.127	697.361
332.329	23.297	874.248	698.960
333.343	23.487	873.441	699.001
334.358	23.418	873.260	698.522
335.373	23.426	873.107	698.370
336.387	23.791	872.777	699.481
337.402	23.904	872.489	699.635
338.416	23.848	872.441	699.312
339.431	23.780	872.046	698.669
340.446	24.051	871.641	699.346
341.460	23.863	870.921	697.970
342.475	23.831	870.156	697.170
343.489	23.799	870.035	696.885
344.504	24.006	869.964	697.577
345.519	24.123	869.543	697.634
346.533	24.434	868.719	698.130
347.548	24.349	868.213	697.330
348.562	24.083	867.618	695.750
349.577	24.090	866.966	695.196
350.592	23.974	866.720	694.484
351.606	24.289	865.591	694.742
352.621	23.969	864.890	692.873
353.635	23.964	864.114	692.172
354.650	23.375	862.289	688.359
355.665	22.299	860.850	682.976
356.679	22.805	860.493	684.596
357.694	23.219	860.162	685.875
358.708	23.070	859.795	684.944
359.723	23.498	859.671	686.443
360.738	23.880	859.578	687.785
361.752	23.943	859.003	687.510
362.767	24.077	858.561	687.611
363.781	24.507	858.089	688.833
364.796	24.502	857.773	688.498
365.810	24.543	857.424	688.315
366.825	24.575	856.940	687.989
367.840	24.348	855.895	686.216
368.854	23.877	854.962	683.597
369.869	23.960	854.399	683.406
370.883	23.935	854.390	683.239
371.898	23.811	853.923	682.330
372.913	23.878	853.656	682.316
373.927	23.942	853.038	682.007
374.942	24.268	852.484	682.752
375.956	24.354	852.063	682.684
376.971	24.301	851.637	682.078
377.986	24.664	851.033	682.921
379.000	24.523	850.841	682.167
380.015	24.340	850.036	680.765
381.029	24.364	849.556	680.413
382.044	24.537	848.822	680.421
383.059	24.511	848.372	679.901
384.073	24.676	847.719	679.947
385.088	24.491	847.284	678.835
386.102	24.395	846.271	677.599
387.117	24.261	845.751	676.612
388.132	23.839	844.884	674.259
389.146	23.356	844.018	671.679
390.161	23.790	843.589	672.922
391.175	24.235	843.648	674.595
392.190	23.857	842.740	672.378
393.205	22.486	840.589	665.428
394.219	21.209	838.381	658.804
395.234	21.031	838.255	657.977
396.248	22.562	839.901	664.991
397.263	24.194	840.862	671.854
398.278	24.103	840.305	671.009
399.292	23.896	839.321	669.383
400.307	23.817	838.839	668.641
401.321	24.035	838.572	669.188
402.336	24.302	838.589	670.145
403.350	24.757	838.211	671.496
404.365	24.934	838.162	672.059
405.380	25.156	837.649	672.420
406.394	25.290	837.295	672.581
407.409	25.033	836.825	671.181
408.423	25.066	836.495	670.979
409.438	25.230	835.866	671.029
410.453	25.299	835.431	670.879
411.467	25.213	834.914	670.081
412.482	25.189	834.423	669.540
413.496	25.232	834.479	669.685
414.511	25.167	834.105	669.085
415.526	25.256	833.235	668.660
416.540	25.130	832.653	667.662
417.555	24.895	831.769	666.020
418.569	25.014	831.306	666.033
419.584	24.823	831.120	665.115
420.599	24.614	830.623	663.884
421.613	143.974	1358.157	1748.632
422.628	125.570	1435.046	1748.757
