DTS Sentinel unit serial number:	SN413079Multiplexer serial number:	ORYXHardware model number:	OX4-SRSoftware version number:	ORYX F/W v4.00 Oryx Data Collector v3.7.2.0data status	okinstallation	princeton_trtdifferential loss correction	single-endedforward channel	channel 1reverse channel	N/Adate	2019/09/18time	15:34:35forward acquisition time	60.00reverse acquisition time	0.00gamma	496.2192k internal	0.2300k external	0.2300temperature offset calibration	0.9998default loss term (dB/km)	0.3790temperature slope calibration	1.0000multiplexer offset coefficient	1.0000multiplexer slope coefficient	1.0000fibre end	0.00T internal ref (°C)	36.31T ext. ref 1 (°C)	0.77T ext. ref 2 (°C)	31.41length (m)	temperature (°C)	Stokes	anti-Stokes-747.200	-111.962	0.148	0.030
-746.185	192.289	-0.057	0.087
-745.171	53.476	0.168	-0.164
-744.156	-107.500	-0.300	0.067
-743.142	56.634	0.238	0.236
-742.127	109.261	-0.201	0.245
-741.112	-46.097	-0.057	-0.029
-740.098	800.000	0.047	0.167
-739.083	140.975	-0.039	0.053
-738.069	-87.813	-0.074	0.023
-737.054	54.847	-0.125	-0.123
-736.039	-200.000	-0.067	-0.320
-735.025	-88.928	0.099	0.030
-734.010	-2.545	-0.150	-0.107
-732.996	-14.753	-0.147	-0.096
-731.981	800.000	0.024	-0.097
-730.966	-72.269	-0.079	-0.030
-729.952	-77.252	-0.340	0.121
-728.937	-200.000	-0.063	0.312
-727.923	-134.359	0.303	0.038
-726.908	242.615	-0.176	-0.300
-725.894	141.502	-0.101	0.136
-724.879	42.709	-0.266	0.247
-723.864	-200.000	0.026	-0.202
-722.850	696.331	0.060	-0.162
-721.835	65.711	0.280	-0.289
-720.821	-153.481	0.116	-0.008
-719.806	168.617	-0.127	-0.184
-718.791	-200.000	0.036	-0.180
-717.777	-200.000	0.041	-0.193
-716.762	224.366	-0.186	-0.307
-715.748	-139.321	-0.255	0.028
-714.733	-153.085	-0.228	-0.016
-713.718	47.181	-0.239	-0.226
-712.704	-9.242	-0.206	0.140
-711.689	800.000	0.035	0.104
-710.675	-86.860	-0.322	-0.100
-709.660	-45.341	-0.338	-0.171
-708.645	-70.260	-0.089	0.034
-707.631	245.257	0.194	0.333
-706.616	-200.000	-0.015	0.096
-705.602	51.651	0.171	0.165
-704.587	647.753	-0.036	-0.094
-703.572	-200.000	-0.016	-0.086
-702.558	-88.542	0.276	0.084
-701.543	-200.000	0.037	0.283
-700.529	800.000	0.070	0.222
-699.514	-200.000	-0.012	0.114
-698.499	46.039	0.331	0.312
-697.485	-95.131	0.546	0.150
-696.470	66.354	0.100	0.104
-695.456	196.539	0.022	-0.034
-694.441	257.833	-0.095	0.167
-693.426	-52.972	-0.078	-0.036
-692.412	-200.000	0.014	0.234
-691.397	-176.391	0.388	0.010
-690.383	157.533	-0.310	-0.437
-689.368	284.605	-0.087	-0.160
-688.354	800.000	-0.027	-0.084
-687.339	-133.971	0.155	-0.020
-686.324	104.721	-0.038	-0.045
-685.310	-200.000	0.027	0.221
-684.295	766.557	0.098	0.271
-683.281	-200.000	0.023	-0.396
-682.266	-200.000	0.008	0.051
-681.251	326.957	-0.127	0.247
-680.237	-131.482	-0.307	-0.041
-679.222	-143.231	0.354	0.035
-678.208	36.752	0.046	-0.042
-677.193	-96.990	-0.286	-0.076
-676.178	-49.645	0.181	0.088
-675.164	315.790	-0.165	-0.317
-674.149	226.773	0.073	0.120
-673.135	-200.000	-0.004	0.352
-672.120	0.923	0.057	0.042
-671.105	22.872	0.107	-0.090
-670.091	272.749	-0.112	-0.202
-669.076	-57.060	0.037	0.017
-668.062	-96.764	-0.068	0.018
-667.047	-200.000	0.001	0.196
-666.032	714.038	-0.123	-0.333
-665.018	800.000	-0.100	-0.291
-664.003	-102.021	-0.506	-0.124
-662.989	-44.128	0.317	-0.162
-661.974	22.671	-0.156	-0.130
-660.959	-146.425	-0.083	-0.007
-659.945	-77.227	0.458	-0.162
-658.930	759.486	0.069	0.190
-657.916	228.228	0.084	0.139
-656.901	-7.168	0.143	-0.098
-655.886	183.023	0.222	0.333
-654.872	260.658	-0.083	-0.146
-653.857	26.799	0.178	-0.151
-652.843	-200.000	0.015	0.073
-651.828	165.502	-0.221	-0.318
-650.814	218.676	0.023	-0.037
-649.799	572.257	0.074	-0.183
-648.784	800.000	0.101	-0.293
-647.770	-200.000	-0.031	0.291
-646.755	-123.098	0.201	-0.033
-645.741	-52.375	0.170	0.080
-644.726	-138.411	0.149	0.017
-643.711	105.766	-0.064	0.076
-642.697	305.096	0.077	-0.146
-641.682	-187.884	-0.181	-0.002
-640.668	93.347	-0.213	-0.245
-639.653	-200.000	0.033	-0.156
-638.638	-200.000	-0.010	-0.167
-637.624	155.831	-0.351	0.492
-636.609	-115.439	-0.236	0.045
-635.595	-101.440	-0.340	-0.084
-634.580	-70.533	0.063	-0.024
-633.565	56.989	0.085	0.085
-632.551	-200.000	0.012	0.242
-631.536	249.681	0.162	-0.279
-630.522	-24.226	0.033	0.020
-629.507	-49.043	0.317	-0.154
-628.492	-126.149	-0.053	0.008
-627.478	-200.000	-0.002	-0.236
-626.463	5.131	0.132	0.099
-625.449	-64.281	-0.247	0.102
-624.434	340.124	-0.111	0.220
-623.419	208.361	-0.113	0.179
-622.405	-141.502	0.130	0.013
-621.390	663.478	-0.131	-0.344
-620.376	186.180	0.168	-0.254
-619.361	-17.482	0.220	0.140
-618.346	-35.715	-0.137	0.075
-617.332	509.763	-0.116	0.273
-616.317	40.199	-0.088	0.080
-615.303	20.888	-0.132	-0.108
-614.288	503.153	0.079	0.185
-613.273	30.045	-0.236	-0.205
-612.259	246.148	0.110	-0.189
-611.244	51.856	0.095	0.092
-610.230	-57.323	-0.221	0.099
-609.215	-116.645	0.012	0.002
-608.201	-36.223	-0.085	0.047
-607.186	-121.571	0.169	0.028
-606.171	225.339	0.069	0.113
-605.157	28.614	-0.083	0.072
-604.142	202.139	-0.033	-0.051
-603.128	-97.510	-0.371	0.098
-602.113	10.678	0.142	0.110
-601.098	134.596	-0.061	0.080
-600.084	800.000	0.081	-0.248
-599.069	97.524	0.079	-0.093
-598.055	375.595	0.005	-0.011
-597.040	-76.073	0.036	0.013
-596.025	2.120	0.097	-0.071
-595.011	703.562	0.125	0.333
-593.996	800.000	-0.026	-0.086
-592.982	-5.290	-0.059	0.041
-591.967	-56.290	0.174	-0.078
-590.952	-96.550	0.326	-0.087
-589.938	-200.000	-0.008	0.148
-588.923	302.068	0.077	-0.145
-587.909	267.884	-0.035	-0.063
-586.894	593.114	0.018	-0.045
-585.879	27.879	0.211	-0.181
-584.865	611.002	0.077	0.196
-583.850	390.290	0.048	-0.101
-582.836	-7.384	-0.213	-0.146
-581.821	39.005	-0.226	-0.204
-580.806	800.000	-0.095	-0.370
-579.792	17.964	-0.102	-0.083
-578.777	252.820	-0.069	0.119
-577.763	-200.000	-0.001	0.296
-576.748	-3.394	0.271	-0.191
-575.733	294.355	-0.122	-0.226
-574.719	28.664	0.209	-0.179
-573.704	-200.000	-0.054	-0.473
-572.690	176.918	-0.131	0.193
-571.675	-107.618	0.301	0.067
-570.661	-52.671	-0.076	-0.035
-569.646	149.686	0.264	-0.362
-568.631	158.679	-0.250	-0.352
-567.617	-200.000	0.036	0.170
-566.602	-138.956	0.263	0.029
-565.588	204.890	0.116	0.182
-564.573	-200.000	0.017	0.142
-563.558	-80.999	-0.198	0.066
-562.544	-120.737	-0.109	-0.019
-561.529	-143.695	0.465	0.045
-560.515	-146.586	-0.393	0.035
-559.500	-200.000	0.022	-0.250
-558.485	-200.000	0.012	-0.155
-557.471	-123.817	-0.225	0.036
-556.456	252.439	0.166	-0.286
-555.442	-147.834	-0.270	-0.023
-554.427	-200.000	-0.005	-0.218
-553.412	-67.184	0.119	0.047
-552.398	-200.000	-0.024	-0.174
-551.383	97.191	0.224	-0.260
-550.369	800.000	0.077	0.236
-549.354	-5.171	-0.244	0.170
-548.339	77.406	0.120	0.129
-547.325	-60.753	-0.276	0.118
-546.310	800.000	0.085	0.269
-545.296	-96.077	-0.128	-0.034
-544.281	800.000	-0.060	0.170
-543.266	117.153	0.248	0.308
-542.252	16.436	0.200	0.160
-541.237	-102.109	-0.167	-0.041
-540.223	-200.000	-0.011	-0.092
-539.208	-200.000	0.009	0.099
-538.193	63.896	0.244	0.248
-537.179	-138.372	0.122	0.014
-536.164	378.029	-0.079	0.164
-535.150	-125.646	-0.194	-0.030
-534.135	-157.179	-0.264	-0.016
-533.121	139.752	0.044	-0.059
-532.106	-170.791	0.252	-0.009
-531.091	800.000	-0.054	-0.224
-530.077	-155.008	0.317	0.021
-529.062	-42.709	-0.076	-0.039
-528.048	-200.000	0.016	0.108
-527.033	800.000	-0.040	-0.147
-526.018	145.049	0.309	0.418
-525.004	71.523	-0.092	-0.096
-523.989	800.000	-0.054	-0.229
-522.975	84.388	0.192	-0.213
-521.960	-105.236	0.154	0.036
-520.945	-55.549	-0.117	-0.053
-519.931	153.468	-0.049	0.068
-518.916	-13.327	-0.297	-0.195
-517.902	-80.286	0.145	0.049
-516.887	-103.142	0.299	-0.072
-515.872	337.740	0.137	-0.269
-514.858	-6.950	-0.135	-0.093
-513.843	154.169	-0.077	-0.107
-512.829	-200.000	-0.001	-0.341
-511.814	260.351	-0.149	0.260
-510.799	82.541	0.057	-0.063
-509.785	352.858	0.123	-0.247
-508.770	709.894	-0.056	-0.151
-507.756	800.000	0.041	-0.166
-506.741	364.839	-0.062	-0.126
-505.726	-78.798	-0.026	-0.009
-504.712	196.355	0.173	-0.267
-503.697	-79.779	0.143	-0.049
-502.683	251.620	-0.079	0.135
-501.668	800.000	0.050	0.139
-500.653	-42.535	-0.215	-0.111
-499.639	-85.636	-0.270	-0.085
-498.624	-170.870	0.108	0.004
-497.610	-75.794	-0.080	-0.029
-496.595	6.953	-0.056	-0.042
-495.581	166.820	0.081	0.116
-494.566	170.020	-0.019	-0.028
-493.551	-45.654	-0.189	0.095
-492.537	214.668	-0.117	0.188
-491.522	-110.792	0.293	0.061
-490.508	-57.410	0.105	0.047
-489.493	90.456	-0.086	-0.097
-488.478	800.000	0.093	-0.292
-487.464	-144.381	-0.135	-0.013
-486.449	-64.519	0.055	-0.023
-485.435	202.507	-0.082	-0.128
-484.420	289.667	-0.094	0.172
-483.405	503.467	0.102	0.238
-482.391	10.032	-0.151	0.116
-481.376	-197.885	-0.175	-0.001
-480.362	-71.763	-0.241	-0.091
-479.347	380.523	-0.074	-0.154
-478.332	102.590	-0.109	0.128
-477.318	-133.821	0.199	-0.025
-476.303	800.000	0.058	0.206
-475.289	-91.629	0.135	-0.039
-474.274	-71.774	0.315	-0.118
-473.259	28.299	-0.192	0.164
-472.245	98.107	0.130	-0.151
-471.230	800.000	0.049	-0.164
-470.216	-28.039	-0.081	0.047
-469.201	786.813	-0.067	0.185
-468.186	577.217	-0.103	-0.255
-467.172	-200.000	-0.022	-0.116
-466.157	113.628	-0.138	0.169
-465.143	-200.000	-0.035	-0.159
-464.128	-200.000	0.006	-0.043
-463.113	51.237	0.132	0.126
-462.099	13.076	0.107	-0.083
-461.084	-200.000	0.006	0.173
-460.070	-159.459	0.309	0.017
-459.055	5.269	0.440	0.327
-458.040	800.000	0.083	-0.260
-457.026	-200.000	0.006	-0.298
-456.011	-115.350	0.350	-0.067
-454.997	800.000	-0.026	0.097
-453.982	800.000	0.017	0.069
-452.968	-200.000	-0.014	-0.102
-451.953	-116.503	0.151	-0.028
-450.938	289.799	0.067	0.122
-449.924	-200.000	0.098	-0.480
-448.909	-119.974	0.116	-0.020
-447.895	800.000	-0.023	-0.092
-446.880	800.000	0.026	-0.083
-445.865	-200.000	0.006	-0.084
-444.851	-36.906	-0.037	0.020
-443.836	800.000	0.099	-0.311
-442.822	-82.156	0.151	0.050
-441.807	-125.108	-0.174	-0.027
-440.792	70.702	0.117	0.123
-439.778	800.000	0.032	0.093
-438.763	12.480	-0.280	-0.218
-437.749	-75.729	-0.184	0.066
-436.734	143.638	0.079	-0.106
-435.719	-200.000	-0.057	0.270
-434.705	-200.000	-0.002	0.216
-433.690	-103.729	0.159	-0.038
-432.676	28.739	-0.137	0.117
-431.661	-148.370	-0.248	0.020
-430.646	79.701	-0.067	-0.072
-429.632	369.255	0.073	-0.149
-428.617	-15.276	-0.061	0.039
-427.603	146.955	-0.107	-0.145
-426.588	-77.878	-0.082	-0.029
-425.573	-200.000	0.048	0.324
-424.559	109.482	-0.248	0.299
-423.544	217.855	0.051	0.082
-422.530	800.000	-0.079	-0.264
-421.515	-200.000	-0.051	-0.398
-420.500	255.737	0.006	0.011
-419.486	68.026	-0.152	0.157
-418.471	63.614	-0.139	0.140
-417.457	134.766	-0.192	0.251
-416.442	-33.082	0.096	-0.054
-415.428	-69.595	-0.088	-0.034
-414.413	5.745	0.183	-0.137
-413.398	-10.899	0.258	-0.172
-412.384	-32.815	-0.392	0.219
-411.369	-36.477	-0.124	0.067
-410.355	-149.098	-0.176	0.014
-409.340	-200.000	-0.009	-0.173
-408.325	166.984	0.134	0.192
-407.311	9.685	0.143	0.109
-406.296	800.000	-0.045	-0.150
-405.282	117.262	-0.039	0.048
-404.267	-67.503	0.278	0.110
-403.252	293.577	-0.081	0.148
-402.238	-200.000	-0.008	-0.038
-401.223	36.847	-0.230	0.204
-400.209	451.076	-0.120	-0.266
-399.194	20.635	0.087	0.071
-398.179	130.719	-0.187	0.241
-397.165	-200.000	0.002	0.102
-396.150	-26.457	0.385	0.227
-395.136	-200.000	-0.019	0.104
-394.121	395.473	0.118	-0.248
-393.106	-200.000	-0.021	0.245
-392.092	800.000	0.078	0.234
-391.077	300.506	0.188	0.349
-390.063	-18.040	-0.350	-0.220
-389.048	-48.800	0.086	0.041
-388.033	-178.432	-0.305	-0.007
-387.019	15.775	0.196	0.155
-386.004	-17.686	-0.222	-0.140
-384.990	-109.657	-0.155	0.033
-383.975	-200.000	-0.057	0.362
-382.960	-31.349	-0.068	0.038
-381.946	-53.256	0.256	-0.118
-380.931	69.256	0.071	-0.074
-379.917	-75.589	-0.121	-0.043
-378.902	59.362	-0.138	0.137
-377.888	35.032	-0.249	-0.219
-376.873	0.889	0.131	0.095
-375.858	-52.360	-0.121	-0.056
-374.844	-85.731	0.324	-0.101
-373.829	299.103	0.100	-0.184
-372.815	46.173	0.146	-0.136
-371.800	-184.340	0.089	0.001
-370.785	-160.285	0.145	-0.008
-369.771	-86.541	-0.071	-0.022
-368.756	-129.144	0.263	0.037
-367.742	371.044	-0.082	-0.167
-366.727	800.000	-0.068	0.292
-365.712	-200.000	-0.034	0.263
-364.698	85.887	-0.064	0.071
-363.683	800.000	-0.062	-0.228
-362.669	-15.698	0.217	0.139
-361.654	-200.000	-0.186	0.000
-360.639	29.712	-0.298	-0.255
-359.625	-61.313	-0.392	-0.166
-358.610	-132.724	-0.169	0.022
-357.596	800.000	-0.059	-0.233
-356.581	636.961	-0.156	0.398
-355.566	-80.742	0.153	-0.051
-354.552	510.402	0.134	0.313
-353.537	-200.000	0.060	-0.453
-352.523	528.993	0.010	-0.024
-351.508	99.560	-0.197	-0.229
-350.493	-77.245	-0.173	-0.061
-349.479	27.451	-0.151	0.128
-348.464	319.800	0.122	0.233
-347.450	-120.204	0.328	0.056
-346.435	-87.330	-0.087	0.026
-345.420	421.002	-0.071	0.153
-344.406	-89.913	0.276	0.081
-343.391	-125.221	-0.126	0.019
-342.377	103.717	0.112	-0.132
-341.362	-133.622	0.201	0.025
-340.348	-114.353	-0.032	0.006
-339.333	-12.811	-0.193	0.126
-338.318	-200.000	-0.021	-0.133
-337.304	334.320	-0.044	-0.085
-336.289	131.737	-0.119	-0.153
-335.275	-200.000	0.014	0.220
-334.260	337.853	0.117	0.229
-333.245	-84.841	-0.231	0.073
-332.231	82.777	0.057	0.062
-331.216	-124.996	0.175	-0.027
-330.202	91.205	-0.072	-0.081
-329.187	40.772	-0.216	-0.196
-328.172	213.336	-0.115	0.183
-327.158	-122.477	-0.264	0.043
-326.143	-55.495	-0.201	-0.090
-325.129	800.000	0.031	-0.089
-324.114	-120.212	-0.255	0.044
-323.099	15.720	0.236	0.186
-322.085	-82.702	-0.174	-0.056
-321.070	-103.002	-0.225	-0.053
-320.056	66.089	-0.148	-0.151
-319.041	-100.927	0.116	-0.029
-318.026	-88.149	0.163	-0.049
-317.012	441.112	-0.077	-0.170
-315.997	9.474	-0.217	-0.165
-314.983	517.200	0.009	-0.020
-313.968	34.213	-0.113	0.099
-312.953	-52.706	-0.239	0.110
-311.939	-96.961	-0.160	0.042
-310.924	-200.000	0.022	-0.155
-309.910	-64.701	0.051	0.021
-308.895	41.920	-0.142	0.129
-307.880	-200.000	0.019	0.272
-306.866	-149.972	0.313	0.024
-305.851	89.415	0.041	-0.046
-304.837	-36.999	0.432	-0.232
-303.822	-200.000	0.036	-0.459
-302.807	16.245	0.245	0.193
-301.793	-93.861	-0.446	-0.123
-300.778	-12.842	0.226	0.147
-299.764	-67.980	0.447	0.175
-298.749	197.367	0.081	0.124
-297.735	-200.000	0.042	-0.199
-296.720	25.232	0.074	-0.062
-295.705	-104.333	-0.257	-0.060
-294.691	-161.198	0.233	-0.012
-293.676	83.930	0.244	0.267
-292.662	-111.116	-0.128	-0.026
-291.647	19.533	-0.193	-0.155
-290.632	-145.406	0.193	-0.017
-289.618	-97.039	0.181	0.048
-288.603	800.000	-0.048	0.172
-287.589	-200.000	-0.001	-0.106
-286.574	-103.103	-0.058	-0.014
-285.559	-200.000	-0.014	-0.293
-284.545	800.000	0.082	-0.335
-283.530	800.000	-0.061	0.206
-282.516	28.231	0.074	-0.062
-281.501	17.426	-0.263	-0.209
-280.486	18.249	-0.129	-0.103
-279.472	800.000	-0.088	-0.250
-278.457	-200.000	-0.019	0.275
-277.443	-43.467	-0.013	-0.006
-276.428	-141.407	0.243	-0.025
-275.413	59.865	-0.066	-0.065
-274.399	193.956	-0.112	0.170
-273.384	-151.983	0.038	-0.003
-272.370	68.374	-0.155	0.159
-271.355	-110.130	-0.046	0.010
-270.340	-200.000	0.030	0.135
-269.326	207.736	0.125	0.195
-268.311	-79.841	0.083	-0.028
-267.297	170.460	0.102	-0.146
-266.282	-35.728	-0.401	0.218
-265.267	800.000	-0.060	-0.189
-264.253	87.763	-0.134	0.148
-263.238	-102.708	0.309	0.074
-262.224	-68.684	0.524	-0.203
-261.209	3.698	-0.204	-0.149
-260.195	-65.261	-0.081	0.033
-259.180	18.137	-0.097	0.077
-258.165	-58.143	0.266	0.116
-257.151	-200.000	0.008	-0.106
-256.136	800.000	-0.038	-0.106
-255.122	-48.494	0.192	-0.092
-254.107	-136.328	-0.046	0.005
-253.092	182.236	0.115	-0.169
-252.078	-68.043	0.211	0.082
-251.063	-112.575	0.248	0.049
-250.049	91.334	0.183	-0.206
-249.034	656.051	0.045	0.117
-248.019	374.138	-0.146	0.297
-247.005	441.223	-0.059	-0.130
-245.990	-65.105	-0.094	0.038
-244.976	-17.080	-0.240	-0.152
-243.961	81.274	0.142	-0.154
-242.946	-52.831	-0.112	-0.052
-241.932	324.382	-0.037	-0.072
-240.917	-117.604	0.182	-0.033
-239.903	-144.839	0.198	-0.018
-238.888	-191.782	-0.092	0.001
-237.873	-57.447	0.277	-0.122
-236.859	119.881	-0.077	0.095
-235.844	69.990	-0.264	-0.273
-234.830	800.000	-0.056	0.191
-233.815	49.606	-0.238	0.224
-232.800	220.405	-0.161	0.257
-231.786	800.000	0.024	0.088
-230.771	172.673	0.138	0.198
-229.757	-30.006	0.134	-0.076
-228.742	-82.133	-0.050	0.016
-227.727	233.336	-0.072	-0.119
-226.713	-200.000	-0.009	-0.065
-225.698	-73.036	-0.177	-0.065
-224.684	-6.149	0.155	0.106
-223.669	-200.000	0.040	-0.324
-222.655	35.310	-0.058	0.051
-221.640	171.777	-0.117	0.168
-220.625	30.613	-0.459	0.392
-219.611	474.868	0.020	0.044
-218.596	159.630	-0.266	0.370
-217.582	103.957	-0.133	0.156
-216.567	-101.171	0.133	-0.032
-215.552	-27.064	0.364	-0.212
-214.538	-200.000	-0.064	0.406
-213.523	724.021	-0.017	-0.046
-212.509	597.018	0.099	0.244
-211.494	-94.404	-0.095	-0.026
-210.479	-117.813	0.056	-0.010
-209.465	740.528	-0.098	-0.264
-208.450	155.523	0.118	0.162
-207.436	-200.000	-0.011	-0.056
-206.421	-59.086	-0.051	0.022
-205.406	-151.353	0.107	0.008
-204.392	-200.000	0.003	-0.119
-203.377	-133.747	-0.271	-0.034
-202.363	-3.608	-0.381	0.264
-201.348	0.072	0.265	-0.188
-200.333	386.011	-0.105	-0.217
-199.319	72.789	-0.267	0.278
-198.304	800.000	-0.071	0.213
-197.290	-40.531	-0.016	-0.008
-196.275	552.807	-0.115	0.276
-195.260	-108.290	-0.401	-0.086
-194.246	11.693	-0.106	0.081
-193.231	19.052	0.146	0.117
-192.217	-151.045	0.116	-0.009
-191.202	56.244	0.076	-0.073
-190.187	51.382	0.043	0.041
-189.173	499.924	-0.019	0.044
-188.158	-200.000	-0.044	-0.208
-187.144	-155.969	0.220	0.014
-186.129	-200.000	-0.061	-0.403
-185.114	49.603	0.125	-0.117
-184.100	800.000	-0.031	0.110
-183.085	-125.819	0.148	0.022
-182.071	106.399	0.100	0.119
-181.056	-123.542	-0.063	-0.010
-180.042	571.774	-0.122	0.296
-179.027	116.321	-0.068	0.083
-178.012	57.035	0.137	0.133
-176.998	-200.000	-0.042	-0.344
-175.983	-99.061	0.164	0.041
-174.969	800.000	0.109	0.364
-173.954	536.364	0.122	0.289
-172.939	800.000	-0.027	-0.078
-171.925	-121.274	0.392	0.065
-170.910	20.131	-0.035	0.028
-169.896	-71.060	0.211	-0.079
-168.881	800.000	0.073	-0.266
-167.866	800.000	0.010	-0.031
-166.852	168.654	0.141	0.200
-165.837	470.243	-0.018	0.041
-164.823	55.810	-0.212	0.205
-163.808	-77.682	0.207	0.071
-162.793	11.469	0.199	0.152
-161.779	-123.811	0.068	-0.011
-160.764	573.701	0.054	0.130
-159.750	800.000	-0.036	-0.127
-158.735	800.000	0.031	0.120
-157.720	-200.000	-0.034	0.221
-156.706	140.266	0.088	-0.115
-155.691	-67.048	0.128	-0.050
-154.677	-92.679	-0.076	0.021
-153.662	8.880	-0.086	0.065
-152.647	-200.000	0.026	0.145
-151.633	-129.828	0.069	0.010
-150.618	800.000	0.141	0.531
-149.604	-200.000	0.016	-0.301
-148.589	-40.326	0.248	0.129
-147.574	90.780	-0.094	0.106
-146.560	-54.233	0.323	-0.146
-145.545	800.000	0.056	-0.199
-144.531	-5.758	0.144	-0.098
-143.516	65.878	0.125	-0.126
-142.502	289.757	0.153	0.277
-141.487	135.353	0.159	0.205
-140.472	-17.535	0.086	-0.054
-139.458	291.638	0.246	0.446
-138.443	-37.778	-0.048	0.025
-137.429	-37.408	-0.300	-0.160
-136.414	-200.000	0.035	0.210
-135.399	-1.989	0.235	0.164
-134.385	51.939	-0.243	-0.230
-133.370	800.000	-0.091	-0.342
-132.356	-62.040	-0.239	-0.100
-131.341	800.000	-0.084	0.276
-130.326	800.000	0.107	0.341
-129.312	-200.000	-0.016	0.337
-128.297	-39.043	0.238	-0.125
-127.283	115.580	-0.174	-0.212
-126.268	-150.760	0.390	0.030
-125.253	-165.527	0.233	0.010
-124.239	-200.000	-0.022	0.291
-123.224	-200.000	-0.001	-0.177
-122.210	-25.383	-0.128	-0.075
-121.195	-52.594	0.284	-0.130
-120.180	-200.000	0.024	0.118
-119.166	2.449	-0.322	-0.232
-118.151	55.162	0.198	-0.190
-117.137	21.989	0.218	0.177
-116.122	-164.592	0.155	-0.007
-115.107	-31.722	-0.127	-0.071
-114.093	23.393	0.126	-0.103
-113.078	111.119	0.072	0.087
-112.064	123.229	-0.167	0.208
-111.049	-67.223	0.350	-0.137
-110.034	-133.357	0.098	-0.012
-109.020	800.000	0.053	0.185
-108.005	272.307	0.097	0.170
-106.991	-55.184	0.203	0.091
-105.976	800.000	0.032	0.121
-104.962	-103.515	0.195	-0.046
-103.947	-21.031	0.163	0.099
-102.932	-200.000	-0.014	-0.089
-101.918	48.379	0.144	0.134
-100.903	-156.717	0.300	0.018
-99.889	209.548	-0.087	-0.135
-98.874	-170.457	0.171	0.006
-97.859	-7.115	0.181	-0.122
-96.845	-191.804	0.048	0.000
-95.830	-200.000	0.004	0.106
-94.816	131.945	0.223	-0.285
-93.801	766.691	0.089	0.240
-92.786	-34.590	-0.094	-0.051
-91.772	-200.000	-0.020	0.093
-90.757	144.930	0.112	-0.149
-89.743	114.974	-0.158	0.191
-88.728	5.955	0.211	-0.155
-87.713	-20.711	0.079	-0.048
-86.699	-96.166	-0.122	0.032
-85.684	74.356	0.190	0.199
-84.670	-200.000	-0.020	0.131
-83.655	-142.635	0.210	0.020
-82.640	50.439	0.102	-0.096
-81.626	212.642	-0.115	-0.181
-80.611	135.036	0.092	-0.119
-79.597	333.603	-0.043	-0.083
-78.582	-200.000	0.019	0.093
-77.567	81.133	-0.127	-0.137
-76.553	-45.454	0.090	0.044
-75.538	161.118	0.119	-0.166
-74.524	124.233	0.117	-0.146
-73.509	78.726	0.145	0.154
-72.494	-124.188	-0.355	0.055
-71.480	800.000	-0.111	0.370
-70.465	-19.046	-0.214	-0.132
-69.451	-117.267	0.263	0.047
-68.436	800.000	0.109	0.400
-67.422	207.316	-0.110	0.170
-66.407	-37.008	0.212	-0.113
-65.392	145.801	-0.199	-0.266
-64.378	-129.088	0.266	-0.037
-63.363	800.000	-0.046	0.170
-62.349	-20.990	-0.195	-0.119
-61.334	205.484	-0.647	-0.998
-60.319	800.000	0.067	0.235
-59.305	-200.000	-0.119	-1.100
-58.290	169.475	0.523	0.742
-57.276	800.000	0.573	1.624
-56.261	-200.000	90.143	527.171
-55.246	469.190	1423.821	3174.909
-54.232	142.588	2636.230	3476.796
-53.217	112.153	2236.873	2684.567
-52.203	47.566	1675.651	1551.540
-51.188	39.589	1405.158	1250.682
-50.173	36.403	1361.533	1192.179
-49.159	55.793	1407.244	1354.263
-48.144	59.906	1425.666	1397.733
-47.130	40.132	1382.174	1233.421
-46.115	36.529	1364.311	1195.198
-45.100	36.271	1359.542	1189.385
-44.086	36.157	1357.118	1186.514
-43.071	36.210	1354.361	1184.382
-42.057	36.216	1352.143	1182.432
-41.042	36.112	1351.013	1180.760
-40.027	36.182	1349.010	1179.390
-39.013	36.280	1347.463	1178.589
-37.998	36.178	1345.168	1175.914
-36.984	36.366	1343.410	1175.476
-35.969	36.344	1341.527	1173.649
-34.954	36.431	1339.639	1172.476
-33.940	36.421	1338.269	1171.171
-32.925	36.427	1336.954	1170.012
-31.911	36.440	1335.438	1168.719
-30.896	36.543	1333.677	1167.754
-29.881	36.396	1332.605	1165.880
-28.867	36.448	1331.128	1164.851
-27.852	36.345	1329.558	1162.811
-26.838	36.495	1327.984	1162.294
-25.823	36.328	1326.870	1160.266
-24.809	36.365	1325.043	1158.845
-23.794	36.402	1323.192	1157.402
-22.779	36.393	1322.470	1156.671
-21.765	36.303	1321.227	1155.003
-20.750	36.340	1319.772	1153.905
-19.736	36.307	1318.280	1152.355
-18.721	36.148	1317.225	1150.442
-17.706	36.222	1316.334	1150.058
-16.692	36.308	1314.501	1148.923
-15.677	36.234	1313.714	1147.749
-14.663	36.170	1312.370	1146.148
-13.648	36.298	1310.826	1145.512
-12.633	36.241	1310.324	1144.694
-11.619	36.270	1309.326	1143.945
-10.604	36.186	1308.540	1142.717
-9.590	36.320	1307.299	1142.379
-8.575	36.251	1306.382	1141.129
-7.560	36.180	1305.626	1140.002
-6.546	36.161	1304.641	1138.981
-5.531	36.311	1303.401	1138.739
-4.517	36.225	1302.896	1137.745
-3.502	36.249	1301.593	1136.706
-2.487	36.204	1300.987	1135.865
-1.473	36.356	1296.868	1133.119
-0.458	35.045	1282.023	1112.491
0.556	30.062	1261.799	1068.202
1.571	24.901	1264.793	1040.727
2.586	22.709	1278.239	1038.809
3.600	21.264	1266.572	1020.798
4.615	15.641	1190.679	928.570
5.629	5.999	1109.662	815.448
6.644	1.060	1087.096	773.620
7.659	0.698	1084.320	769.737
8.673	0.653	1083.462	768.827
9.688	0.670	1082.084	767.871
10.702	0.866	1080.744	767.844
11.717	6.091	1087.675	799.331
12.731	14.396	1099.055	850.156
13.746	17.758	1102.142	869.641
14.761	17.410	1101.483	867.270
15.775	16.588	1099.374	861.349
16.790	15.663	1097.134	854.816
17.804	14.908	1095.299	849.477
18.819	14.454	1094.756	846.675
19.834	14.122	1094.050	844.369
20.848	13.745	1092.652	841.304
21.863	13.648	1092.046	840.273
22.877	13.564	1090.265	838.400
23.892	13.510	1090.064	837.900
24.907	13.403	1089.799	837.083
25.921	13.582	1088.735	837.097
26.936	13.402	1088.114	835.634
27.950	13.642	1086.667	835.661
28.965	13.559	1085.467	834.244
29.980	13.710	1084.321	834.049
30.994	13.851	1082.571	833.336
32.009	13.708	1082.177	832.241
33.023	13.699	1080.938	831.173
34.038	13.600	1080.286	830.100
35.053	13.591	1079.756	829.575
36.067	13.676	1078.470	828.939
37.082	13.648	1077.489	827.970
38.096	13.695	1076.632	827.473
39.111	13.715	1075.657	826.749
40.126	13.612	1075.166	825.787
41.140	13.453	1073.685	823.784
42.155	13.552	1072.748	823.486
43.169	13.569	1071.446	822.498
44.184	13.474	1070.509	821.235
45.199	13.522	1069.139	820.349
46.213	13.576	1068.372	819.957
47.228	13.526	1067.428	818.909
48.242	13.544	1066.421	818.154
49.257	13.482	1065.182	816.824
50.271	13.615	1064.228	816.675
51.286	13.552	1063.598	815.810
52.301	13.623	1062.761	815.448
53.315	13.490	1061.518	813.766
54.330	13.586	1060.586	813.450
55.344	13.442	1059.859	812.114
56.359	13.461	1058.844	811.358
57.374	13.558	1057.296	810.575
58.388	13.537	1056.826	810.041
59.403	13.467	1056.325	809.242
60.417	13.500	1055.274	808.530
61.432	13.380	1054.913	807.595
62.447	13.383	1053.756	806.652
63.461	13.338	1052.641	805.509
64.476	13.391	1051.926	805.148
65.490	13.342	1051.392	804.430
66.505	13.447	1050.539	804.215
67.520	13.487	1049.457	803.511
68.534	13.574	1048.730	803.305
69.549	13.501	1048.163	802.447
70.563	13.455	1047.660	801.768
71.578	13.428	1046.500	800.679
72.593	13.303	1046.132	799.720
73.607	13.382	1045.326	799.414
74.622	13.346	1044.680	798.679
75.636	13.409	1043.426	797.948
76.651	13.347	1043.087	797.324
77.666	13.420	1042.442	797.112
78.680	13.298	1041.959	796.085
79.695	13.414	1041.180	795.974
80.709	13.456	1040.124	795.301
81.724	13.310	1039.909	794.364
82.739	13.535	1039.137	794.783
83.753	13.502	1038.433	794.017
84.768	13.629	1036.742	793.263
85.782	13.737	1035.656	792.878
86.797	13.677	1035.071	792.073
87.812	13.600	1034.655	791.317
88.826	13.446	1033.444	789.583
89.841	13.448	1032.794	789.027
90.855	13.576	1031.520	788.595
91.870	13.638	1030.970	788.400
92.884	13.726	1030.055	788.046
93.899	13.730	1029.340	787.451
94.914	13.714	1028.465	786.636
95.928	13.686	1027.609	785.776
96.943	13.791	1026.391	785.274
97.957	13.648	1026.130	784.330
98.972	13.673	1024.775	783.339
99.987	13.742	1023.667	782.752
101.001	13.683	1022.829	781.762
102.016	13.715	1022.058	781.255
103.030	13.529	1021.342	779.761
104.045	13.610	1021.102	779.890
105.060	13.617	1019.912	778.948
106.074	13.605	1018.965	778.098
107.089	13.602	1017.601	776.975
108.103	13.541	1017.018	776.172
109.118	13.440	1016.183	774.994
110.133	13.560	1014.995	774.583
111.147	13.487	1014.266	773.616
112.162	13.581	1013.401	773.325
113.176	13.743	1012.343	773.206
114.191	13.718	1011.456	772.344
115.206	13.502	1011.271	771.127
116.220	13.605	1009.866	770.466
117.235	13.667	1008.826	769.892
118.249	13.731	1008.131	769.590
119.264	13.538	1007.547	768.183
120.279	13.587	1006.610	767.628
121.293	13.593	1005.818	766.985
122.308	13.574	1004.640	765.928
123.322	13.483	1004.229	765.126
124.337	13.544	1003.297	764.631
125.352	13.558	1001.688	763.400
126.366	13.632	1000.683	762.912
127.381	13.590	999.445	761.706
128.395	13.599	998.665	761.083
129.410	13.541	997.862	760.137
130.424	13.719	996.702	760.005
131.439	13.667	996.137	759.266
132.454	13.701	995.763	759.073
133.468	13.793	994.484	758.452
134.483	13.701	993.963	757.563
135.497	13.680	993.205	756.826
136.512	13.760	991.799	756.053
137.527	13.792	991.230	755.697
138.541	13.779	990.627	755.111
139.556	13.691	989.701	753.937
140.570	13.686	989.415	753.631
141.585	13.865	987.663	753.040
142.600	13.980	986.799	752.835
143.614	13.944	986.245	752.186
144.629	13.972	985.368	751.575
145.643	13.846	984.551	750.318
146.658	13.808	983.308	749.129
147.673	13.796	982.503	748.399
148.687	13.762	981.608	747.497
149.702	13.665	980.813	746.388
150.716	13.747	980.171	746.202
151.731	13.917	978.853	745.896
152.746	13.875	978.424	745.315
153.760	13.756	977.863	744.287
154.775	13.853	977.305	744.233
155.789	13.912	976.591	743.888
156.804	13.894	975.451	742.874
157.819	14.059	975.145	743.310
158.833	13.949	974.643	742.371
159.848	13.986	973.623	741.696
160.862	13.978	972.574	740.794
161.877	13.909	971.631	739.703
162.892	13.930	970.209	738.649
163.906	13.882	969.600	737.906
164.921	13.817	969.087	737.163
165.935	13.886	968.386	736.870
166.950	13.899	967.381	736.098
167.964	13.855	966.332	735.040
168.979	13.884	965.060	734.135
169.994	13.895	964.471	733.671
171.008	13.853	963.905	732.988
172.023	13.981	962.917	732.738
173.037	13.937	962.496	732.157
174.052	14.108	961.065	731.758
175.067	14.053	961.022	731.419
176.081	13.864	960.714	730.288
177.096	13.935	960.201	730.147
178.110	14.058	959.186	729.847
179.125	14.060	958.157	729.012
180.140	14.112	957.727	728.847
181.154	14.127	957.667	728.803
182.169	14.015	957.420	728.058
183.183	14.060	956.802	727.720
184.198	14.095	955.649	726.933
185.213	14.170	954.361	726.216
186.227	14.170	954.141	725.987
187.242	14.182	953.560	725.532
188.256	14.249	952.709	725.110
189.271	14.302	951.589	724.427
190.286	14.280	951.238	723.996
191.300	14.038	950.636	722.423
192.315	14.003	950.207	721.881
193.329	14.098	949.547	721.728
194.344	14.200	948.686	721.452
195.359	14.121	948.092	720.595
196.373	14.205	947.182	720.203
197.388	14.355	946.907	720.579
198.402	14.331	946.422	720.042
199.417	14.465	945.658	719.976
200.432	14.378	945.099	719.114
201.446	14.459	944.759	719.137
202.461	14.498	944.479	719.029
203.475	14.489	943.315	718.043
204.490	14.407	943.088	717.452
205.504	14.366	942.007	716.389
206.519	14.565	940.984	716.402
207.534	14.486	940.419	715.570
208.548	14.447	939.914	714.958
209.563	14.365	939.312	714.082
210.577	14.452	938.276	713.604
211.592	14.629	937.718	713.874
212.607	14.609	936.813	713.036
213.621	14.630	935.878	712.351
214.636	14.598	935.385	711.778
215.650	14.627	934.394	711.084
216.665	14.565	934.098	710.533
217.680	14.503	933.490	709.742
218.694	14.668	932.653	709.747
219.709	14.700	931.952	709.283
220.723	14.604	931.609	708.554
221.738	14.631	931.041	708.171
222.753	14.554	930.094	707.066
223.767	14.694	929.268	706.967
224.782	14.803	928.896	707.083
225.796	14.713	928.447	706.296
226.811	14.865	927.329	706.025
227.826	14.584	927.204	704.680
228.840	14.653	926.033	704.020
229.855	14.759	925.256	703.815
230.869	14.695	924.707	703.065
231.884	14.678	924.162	702.516
232.899	14.681	923.059	701.631
233.913	14.753	922.123	701.155
234.928	14.799	921.673	700.945
235.942	14.719	921.174	700.170
236.957	14.765	920.418	699.727
237.972	14.846	920.045	699.721
238.986	14.690	919.629	698.688
240.001	14.864	918.461	698.465
241.015	14.864	917.841	697.934
242.030	14.862	917.201	697.378
243.045	14.875	916.903	697.142
244.059	14.980	916.264	697.031
245.074	14.938	915.447	696.175
246.088	15.040	914.736	695.995
247.103	14.908	914.251	695.014
248.117	15.089	913.824	695.383
249.132	15.065	912.993	694.586
250.147	15.209	912.073	694.425
251.161	15.254	911.531	694.135
252.176	15.112	911.108	693.164
253.190	15.337	910.246	693.378
254.205	15.340	909.523	692.779
255.220	15.330	908.780	692.109
256.234	15.281	908.378	691.539
257.249	15.194	907.994	690.827
258.263	15.182	906.721	689.750
259.278	15.263	906.220	689.640
260.293	15.336	905.944	689.669
261.307	15.356	905.323	689.218
262.322	15.354	904.359	688.416
263.336	15.469	903.543	688.203
264.351	15.504	903.143	687.983
265.366	15.525	902.213	687.298
266.380	15.476	901.546	686.528
267.395	15.386	901.141	685.790
268.409	15.518	900.102	685.481
269.424	15.443	899.666	684.782
270.439	15.446	898.880	684.134
271.453	15.564	898.411	684.198
272.468	15.541	897.590	683.420
273.482	15.466	897.473	682.964
274.497	15.533	896.420	682.373
275.512	15.436	895.972	681.577
276.526	15.648	895.329	681.890
277.541	15.537	894.957	681.097
278.555	15.634	894.196	680.848
279.570	15.655	893.680	680.480
280.585	15.642	893.002	679.853
281.599	15.733	891.953	679.361
282.614	15.655	891.649	678.756
283.628	15.698	890.579	678.052
284.643	15.747	890.001	677.749
285.657	15.825	889.166	677.367
286.672	15.745	888.652	676.595
287.687	15.833	888.143	676.503
288.701	15.884	887.334	676.031
289.716	15.837	886.871	675.430
290.730	15.767	886.587	674.872
291.745	15.875	885.393	674.335
292.760	15.869	885.242	674.139
293.774	15.955	884.330	673.726
294.789	15.938	883.455	672.934
295.803	15.826	883.062	672.126
296.818	15.888	882.350	671.774
297.833	15.881	881.749	671.228
298.847	15.991	880.810	670.893
299.862	15.964	880.413	670.423
300.876	15.945	880.022	669.990
301.891	15.944	879.434	669.480
302.906	16.025	878.649	669.143
303.920	16.093	878.209	669.018
304.935	16.210	877.713	669.048
305.949	16.105	876.945	667.985
306.964	16.143	876.198	667.508
307.979	16.040	875.727	666.684
308.993	16.214	875.377	667.045
310.008	16.117	874.856	666.205
311.022	16.201	873.692	665.590
312.037	16.068	873.576	664.921
313.052	16.207	873.082	665.033
314.066	16.101	872.591	664.181
315.081	16.156	871.999	663.890
316.095	16.082	871.029	662.803
317.110	16.113	870.666	662.588
318.125	16.148	870.472	662.520
319.139	16.144	869.313	661.563
320.154	16.028	869.393	661.111
321.168	16.199	868.887	661.339
322.183	16.223	868.152	660.813
323.197	16.096	867.813	660.001
324.212	16.203	867.144	659.851
325.227	16.344	866.411	659.788
326.241	16.139	865.828	658.483
327.256	16.234	865.296	658.392
328.270	16.294	864.547	657.997
329.285	16.389	863.514	657.523
330.300	16.313	863.374	657.062
331.314	16.289	862.768	656.450
332.329	16.273	862.348	656.011
333.343	16.436	861.840	656.197
334.358	16.409	861.354	655.664
335.373	16.341	861.144	655.182
336.387	16.355	860.920	655.010
337.402	16.486	860.399	655.062
338.416	16.395	860.288	654.568
339.431	16.476	859.654	654.343
340.446	16.471	859.429	654.093
341.460	16.535	858.691	653.722
342.475	16.593	858.460	653.711
343.489	16.678	857.841	653.510
344.504	16.669	857.425	653.101
345.519	16.675	856.690	652.504
346.533	16.556	856.280	651.677
347.548	16.802	855.494	651.969
348.562	16.690	854.776	650.932
349.577	16.681	854.570	650.683
350.592	16.650	853.590	649.760
351.606	16.567	853.070	648.989
352.621	16.612	852.689	648.814
353.635	16.602	852.149	648.306
354.650	16.566	851.709	647.779
355.665	16.816	850.845	648.018
356.679	16.907	849.708	647.442
357.694	16.889	849.269	646.983
358.708	16.857	848.633	646.320
359.723	16.744	848.266	645.554
360.738	16.799	847.826	645.368
361.752	16.942	846.957	645.197
362.767	16.850	846.441	644.395
363.781	16.987	846.102	644.599
364.796	16.975	845.749	644.228
365.810	16.911	845.048	643.395
366.825	17.126	844.795	643.961
367.840	17.070	844.340	643.344
368.854	17.056	843.716	642.758
369.869	17.042	842.956	642.072
370.883	16.957	842.838	641.604
371.898	17.135	842.578	642.022
372.913	17.203	841.913	641.716
373.927	17.089	841.444	640.871
374.942	17.136	841.082	640.715
375.956	17.152	841.010	640.663
376.971	17.237	840.117	640.247
377.986	17.232	839.533	639.727
379.000	17.346	839.148	639.807
380.015	17.264	839.017	639.339
381.029	17.235	838.285	638.617
382.044	17.222	837.730	638.088
383.059	17.300	837.073	637.825
384.073	17.274	836.542	637.266
385.088	17.256	836.024	636.748
386.102	17.302	834.986	636.074
387.117	17.220	834.890	635.638
388.132	17.265	834.032	635.094
389.146	17.243	833.555	634.595
390.161	17.403	833.247	634.902
391.175	17.399	832.630	634.358
392.190	17.375	832.122	633.826
393.205	17.333	831.843	633.403
394.219	17.353	831.459	633.127
395.234	17.366	830.770	632.595
396.248	17.389	830.638	632.526
397.263	17.373	829.717	631.709
398.278	17.525	829.570	632.105
399.292	17.322	829.325	631.109
400.307	17.463	828.895	631.249
401.321	17.398	828.366	630.550
402.336	17.380	827.836	630.023
403.350	17.312	827.780	629.674
404.365	17.483	826.911	629.588
405.380	17.556	826.458	629.459
406.394	17.594	825.573	628.868
407.409	17.661	825.118	628.712
408.423	17.613	825.214	628.554
409.438	17.530	824.849	627.911
410.453	17.623	824.439	627.887
411.467	17.716	823.828	627.709
412.482	17.621	823.732	627.232
413.496	17.590	823.445	626.844
414.511	17.748	822.911	626.962
415.526	17.860	822.243	626.811
416.540	17.889	821.441	626.249
417.555	17.895	821.128	625.978
418.569	17.802	820.880	625.392
419.584	17.967	820.506	625.655
420.599	17.867	819.936	624.801
421.613	101.522	1281.421	1428.747
422.628	87.637	1348.653	1428.855
