DTS Sentinel unit serial number:	SN413079Multiplexer serial number:	ORYXHardware model number:	OX4-SRSoftware version number:	ORYX F/W v4.00 Oryx Data Collector v3.7.2.0data status	okinstallation	princeton_trtdifferential loss correction	single-endedforward channel	channel 1reverse channel	N/Adate	2019/09/19time	09:58:35forward acquisition time	60.00reverse acquisition time	0.00gamma	496.2192k internal	0.2339k external	0.2339temperature offset calibration	1.0005default loss term (dB/km)	0.3790temperature slope calibration	1.0000multiplexer offset coefficient	1.0000multiplexer slope coefficient	1.0000fibre end	0.00T internal ref (°C)	23.69T ext. ref 1 (°C)	0.66T ext. ref 2 (°C)	19.35length (m)	temperature (°C)	Stokes	anti-Stokes-747.200	-177.532	0.289	0.007
-746.185	800.000	0.034	0.106
-745.171	68.978	0.126	-0.130
-744.156	-58.078	0.093	0.041
-743.142	-200.000	-0.008	0.227
-742.127	11.234	0.097	-0.075
-741.112	-115.682	-0.140	-0.026
-740.098	-136.299	-0.321	0.038
-739.083	-52.137	0.365	-0.170
-738.069	-119.920	-0.248	0.043
-737.054	304.406	0.073	0.136
-736.039	-171.619	-0.589	0.020
-735.025	-108.008	0.324	0.070
-734.010	-108.912	-0.447	-0.096
-732.996	800.000	0.074	-0.256
-731.981	-45.336	-0.083	0.041
-730.966	87.220	-0.088	0.097
-729.952	-136.412	-0.284	0.033
-728.937	-33.136	0.195	0.108
-727.923	716.169	-0.068	0.181
-726.908	-200.000	0.012	0.101
-725.894	-106.690	0.078	-0.017
-724.879	800.000	0.147	0.414
-723.864	-104.839	-0.164	-0.038
-722.850	-88.658	-0.295	0.088
-721.835	-140.742	-0.147	0.015
-720.821	-40.736	0.257	-0.134
-719.806	183.484	-0.214	-0.317
-718.791	308.796	-0.142	-0.265
-717.777	-81.733	-0.012	-0.004
-716.762	-200.000	-0.010	-0.054
-715.748	-70.746	-0.059	-0.022
-714.733	68.513	-0.088	0.091
-713.718	-200.000	0.004	-0.290
-712.704	800.000	-0.051	0.141
-711.689	-200.000	0.000	0.145
-710.675	-200.000	0.035	-0.433
-709.660	-77.245	-0.322	-0.112
-708.645	-96.378	0.228	-0.060
-707.631	-118.977	0.115	-0.020
-706.616	-29.090	-0.229	-0.132
-705.602	12.309	0.237	-0.183
-704.587	-108.821	-0.124	0.027
-703.572	-85.926	-0.166	-0.052
-702.558	-145.515	-0.071	0.006
-701.543	781.558	0.080	-0.219
-700.529	15.602	-0.311	0.244
-699.514	-95.837	0.429	-0.115
-698.499	43.676	-0.140	-0.128
-697.485	296.346	0.076	-0.140
-696.470	487.822	-0.039	0.089
-695.456	-200.000	-0.047	0.411
-694.441	43.858	0.181	0.166
-693.426	-67.164	-0.097	-0.038
-692.412	-200.000	-0.010	-0.058
-691.397	0.943	0.244	-0.175
-690.383	9.028	0.053	0.040
-689.368	-140.230	0.188	-0.020
-688.354	-86.720	0.222	0.068
-687.339	-200.000	-0.003	-0.295
-686.324	34.965	-0.161	0.141
-685.310	-63.854	-0.404	0.165
-684.295	-133.639	0.192	0.024
-683.281	800.000	0.026	0.100
-682.266	-177.796	0.362	0.009
-681.251	12.803	0.073	0.056
-680.237	152.680	-0.162	-0.221
-679.222	53.366	0.164	-0.158
-678.208	-200.000	0.006	0.422
-677.193	281.354	0.054	0.097
-676.178	32.892	-0.083	-0.072
-675.164	-200.000	0.018	-0.154
-674.149	-40.130	-0.180	-0.094
-673.135	102.613	0.072	0.084
-672.120	-122.705	-0.083	0.013
-671.105	800.000	0.022	-0.077
-670.091	-200.000	-0.007	0.216
-669.076	61.128	0.034	-0.033
-668.062	-195.631	-0.321	0.002
-667.047	126.804	-0.215	0.272
-666.032	317.189	0.128	0.242
-665.018	66.477	-0.080	-0.081
-664.003	-91.309	0.146	-0.042
-662.989	625.547	0.114	-0.287
-661.974	-5.881	-0.173	0.118
-660.959	800.000	0.091	0.348
-659.945	187.682	0.146	-0.218
-658.930	800.000	0.055	-0.219
-657.916	-79.889	-0.181	0.061
-656.901	-74.451	-0.414	-0.149
-655.886	-72.880	0.139	-0.051
-654.872	199.889	-0.100	-0.154
-653.857	-44.650	-0.427	0.213
-652.843	-200.000	-0.012	0.186
-651.828	763.612	-0.097	0.262
-650.814	367.738	0.211	-0.426
-649.799	-101.407	-0.356	0.087
-648.784	-200.000	0.011	0.422
-647.770	-136.273	0.246	0.029
-646.755	20.498	-0.269	0.217
-645.741	22.710	-0.032	0.026
-644.726	-192.488	0.041	-0.000
-643.711	-16.264	-0.104	-0.066
-642.697	-110.600	-0.280	0.058
-641.682	164.084	-0.150	0.211
-640.668	335.331	0.206	-0.399
-639.653	-200.000	0.024	-0.158
-638.638	32.912	-0.187	-0.162
-637.624	800.000	0.053	-0.210
-636.609	-42.052	-0.109	-0.056
-635.595	321.519	0.173	-0.329
-634.580	-200.000	0.014	0.238
-633.565	-102.631	0.293	-0.070
-632.551	-200.000	0.026	0.126
-631.536	-172.577	-0.201	0.006
-630.522	-200.000	-0.056	-0.279
-629.507	97.032	-0.283	-0.324
-628.492	-56.288	0.234	-0.104
-627.478	-200.000	0.052	-0.323
-626.463	29.956	0.119	-0.101
-625.449	42.259	-0.072	-0.066
-624.434	247.398	-0.133	-0.224
-623.419	-49.362	-0.328	-0.156
-622.405	-97.516	-0.110	-0.028
-621.390	-42.473	0.077	0.039
-620.376	-117.545	-0.219	0.039
-619.361	-20.800	0.319	-0.195
-618.346	-62.960	-0.385	-0.159
-617.332	-2.466	0.409	0.286
-616.317	-5.076	0.168	-0.116
-615.303	800.000	-0.083	-0.351
-614.288	-131.843	-0.195	-0.025
-613.273	387.008	-0.119	0.246
-612.259	55.771	-0.164	0.158
-611.244	-151.474	-0.397	-0.029
-610.230	-200.000	0.062	-0.284
-609.215	-112.130	0.575	0.115
-608.201	-81.054	-0.357	-0.118
-607.186	21.533	0.123	0.100
-606.171	145.964	0.169	0.226
-605.157	-200.000	-0.079	0.462
-604.142	-200.000	0.031	0.217
-603.128	-137.821	-0.346	0.039
-602.113	11.587	-0.093	0.071
-601.098	141.584	-0.007	-0.009
-600.084	-200.000	0.010	-0.090
-599.069	98.479	-0.302	0.347
-598.055	362.620	-0.068	0.136
-597.040	384.488	0.130	-0.267
-596.025	311.721	0.188	-0.352
-595.011	-56.809	0.052	0.023
-593.996	-81.894	0.122	-0.040
-592.982	800.000	-0.031	0.110
-591.967	201.747	-0.036	0.055
-590.952	586.983	0.042	-0.102
-589.938	-49.841	0.057	0.027
-588.923	160.940	0.215	0.299
-587.909	-91.683	-0.251	0.071
-586.894	-140.463	0.257	0.027
-585.879	-17.413	0.101	0.063
-584.865	-200.000	0.017	-0.271
-583.850	87.876	-0.168	0.186
-582.836	101.947	0.069	-0.080
-581.821	-200.000	0.032	0.266
-580.806	-89.171	-0.319	-0.094
-579.792	255.707	-0.035	-0.060
-578.777	-90.643	0.228	0.066
-577.763	800.000	-0.060	0.171
-576.748	24.793	-0.276	-0.228
-575.733	153.010	-0.170	0.232
-574.719	-111.150	0.187	0.038
-573.704	-200.000	-0.052	-0.276
-572.690	27.790	0.041	-0.034
-571.675	-128.868	-0.143	-0.020
-570.661	94.974	-0.157	0.178
-569.646	81.428	0.213	-0.230
-568.631	98.403	-0.179	-0.206
-567.617	86.937	-0.155	-0.171
-566.602	53.391	0.128	-0.122
-565.588	-100.673	0.359	-0.088
-564.573	199.863	-0.096	0.147
-563.558	205.246	-0.121	-0.187
-562.544	-200.000	-0.075	-0.346
-561.529	800.000	0.054	-0.205
-560.515	-35.897	-0.128	0.069
-559.500	142.289	-0.086	0.113
-558.485	-41.436	0.066	0.034
-557.471	98.461	0.192	-0.221
-556.456	141.713	0.222	-0.293
-555.442	-48.637	-0.158	0.075
-554.427	800.000	-0.099	-0.342
-553.412	628.711	-0.014	-0.036
-552.398	173.239	0.128	0.184
-551.383	26.121	-0.287	-0.238
-550.369	-200.000	0.025	-0.142
-549.354	-142.104	0.416	0.041
-548.339	26.719	0.158	0.132
-547.325	-101.665	0.169	-0.041
-546.310	-108.853	0.269	0.057
-545.296	21.493	-0.024	-0.020
-544.281	-200.000	-0.075	-0.352
-543.266	244.461	0.127	0.213
-542.252	800.000	-0.046	-0.158
-541.237	108.339	-0.039	-0.047
-540.223	-41.739	0.077	-0.040
-539.208	800.000	-0.056	0.222
-538.193	-200.000	-0.003	0.196
-537.179	296.690	-0.136	0.249
-536.164	-127.030	-0.127	-0.019
-535.150	-78.426	-0.253	0.086
-534.135	354.559	0.179	0.355
-533.121	355.784	0.036	0.072
-532.106	-200.000	-0.037	-0.164
-531.091	-200.000	-0.001	0.123
-530.077	-78.269	0.048	0.016
-529.062	-131.017	0.080	0.011
-528.048	-200.000	-0.035	-0.168
-527.033	-200.000	-0.011	-0.281
-526.018	800.000	-0.047	0.202
-525.004	-200.000	-0.039	0.245
-523.989	-19.836	0.296	0.182
-522.975	-86.470	0.304	-0.093
-521.960	-84.231	-0.310	-0.098
-520.945	-121.870	-0.163	-0.027
-519.931	150.429	0.058	-0.078
-518.916	-200.000	0.002	-0.386
-517.902	43.069	-0.223	0.202
-516.887	-140.515	-0.239	0.025
-515.872	-53.749	0.187	-0.085
-514.858	-53.467	-0.214	0.097
-513.843	-18.871	-0.291	0.180
-512.829	-62.661	-0.096	0.040
-511.814	-200.000	0.032	0.195
-510.799	-200.000	-0.013	0.460
-509.785	-200.000	0.002	-0.308
-508.770	-84.596	0.181	-0.057
-507.756	800.000	0.049	0.142
-506.741	-49.323	0.217	0.103
-505.726	-200.000	-0.005	0.053
-504.712	321.850	0.085	0.161
-503.697	443.263	-0.069	-0.151
-502.683	252.720	0.120	-0.204
-501.668	223.831	-0.173	-0.277
-500.653	-170.766	-0.146	-0.005
-499.639	-200.000	-0.014	-0.078
-498.624	505.058	-0.069	-0.158
-497.610	401.106	-0.172	0.360
-496.595	-114.914	0.186	-0.035
-495.581	-96.680	-0.467	-0.122
-494.566	-200.000	-0.019	0.305
-493.551	460.897	-0.141	-0.311
-492.537	67.177	0.244	-0.247
-491.522	-23.574	-0.271	-0.161
-490.508	800.000	0.051	0.205
-489.493	-74.732	-0.229	0.082
-488.478	-200.000	-0.007	-0.125
-487.464	-83.902	-0.240	-0.076
-486.449	398.206	-0.090	-0.187
-485.435	63.722	0.032	0.032
-484.420	55.481	-0.100	0.096
-483.405	5.194	0.318	-0.233
-482.391	-135.715	-0.148	-0.017
-481.376	-90.101	0.345	0.100
-480.362	-124.333	-0.193	0.030
-479.347	46.720	0.180	-0.166
-478.332	-165.702	0.164	-0.007
-477.318	-96.421	0.200	-0.052
-476.303	-63.676	-0.168	-0.068
-475.289	-5.511	-0.189	-0.129
-474.274	-75.098	0.221	-0.078
-473.259	-200.000	0.061	-0.269
-472.245	194.843	-0.109	0.164
-471.230	125.145	0.163	-0.204
-470.216	0.254	-0.206	-0.146
-469.201	-78.480	0.288	-0.098
-468.186	-200.000	-0.002	0.110
-467.172	-58.523	-0.067	0.029
-466.157	153.805	-0.234	0.318
-465.143	-8.670	0.341	0.227
-464.128	-47.226	-0.416	-0.201
-463.113	-200.000	0.038	0.245
-462.099	800.000	0.056	0.206
-461.084	-200.000	-0.031	0.229
-460.070	150.587	0.121	-0.163
-459.055	-115.730	0.354	0.066
-458.040	53.147	-0.145	0.138
-457.026	800.000	-0.047	0.140
-456.011	41.180	0.211	0.189
-454.997	178.755	-0.366	0.530
-453.982	340.136	-0.213	0.412
-452.968	-200.000	-0.006	-0.115
-451.953	-53.584	-0.221	0.100
-450.938	38.980	0.303	-0.269
-449.924	-171.581	0.251	-0.008
-448.909	800.000	-0.049	0.179
-447.895	-164.640	-0.137	0.006
-446.880	401.782	0.140	-0.291
-445.865	-200.000	-0.000	-0.259
-444.851	-186.324	-0.210	-0.003
-443.836	471.816	0.005	-0.010
-442.822	174.488	-0.258	-0.370
-441.807	-104.901	-0.232	0.053
-440.792	-200.000	0.014	0.199
-439.778	-3.079	0.067	-0.046
-438.763	31.237	0.128	0.109
-437.749	-200.000	-0.006	-0.145
-436.734	-43.278	-0.159	-0.080
-435.719	22.551	0.319	0.259
-434.705	112.606	0.069	0.083
-433.690	171.579	0.119	-0.169
-432.676	800.000	-0.004	0.012
-431.661	-200.000	0.028	-0.432
-430.646	-200.000	-0.003	0.159
-429.632	226.666	0.078	0.126
-428.617	-124.391	-0.104	0.016
-427.603	800.000	-0.058	-0.181
-426.588	-200.000	0.009	0.226
-425.573	75.896	-0.049	0.051
-424.559	110.414	0.358	0.426
-423.544	-161.612	-0.177	-0.009
-422.530	-43.830	0.042	0.021
-421.515	-200.000	-0.008	0.204
-420.500	-99.345	-0.333	0.083
-419.486	66.638	0.336	0.338
-418.471	-47.985	-0.187	-0.089
-417.457	255.811	0.115	0.195
-416.442	-48.164	0.374	0.179
-415.428	69.513	0.079	-0.081
-414.413	-64.411	0.190	-0.077
-413.398	98.517	0.198	0.226
-412.384	-200.000	-0.051	0.225
-411.369	-50.087	0.213	0.100
-410.355	-124.715	-0.019	-0.003
-409.340	4.895	-0.166	0.121
-408.325	126.764	-0.160	0.200
-407.311	-7.564	-0.127	-0.085
-406.296	120.347	-0.228	0.281
-405.282	-50.052	0.338	0.158
-404.267	-170.488	0.164	-0.006
-403.252	-136.459	-0.100	-0.012
-402.238	-70.428	0.070	0.026
-401.223	241.494	0.133	0.220
-400.209	13.773	-0.242	-0.186
-399.194	177.952	0.131	0.189
-398.179	502.606	0.194	-0.445
-397.165	-121.576	-0.218	-0.036
-396.150	0.227	-0.296	-0.209
-395.136	87.544	-0.190	0.208
-394.121	22.830	0.190	-0.154
-393.106	-200.000	-0.004	0.172
-392.092	-137.747	0.158	-0.018
-391.077	-39.332	-0.009	-0.005
-390.063	-82.595	0.264	0.085
-389.048	-38.432	0.165	0.086
-388.033	-83.890	0.192	-0.060
-387.019	800.000	0.084	-0.360
-386.004	-115.730	-0.252	-0.047
-384.990	-18.669	0.366	-0.226
-383.975	101.533	-0.217	-0.250
-382.960	-119.498	-0.443	0.076
-381.946	67.011	-0.297	-0.299
-380.931	11.258	0.061	0.047
-379.917	25.745	0.154	0.127
-378.902	-158.947	0.144	-0.008
-377.888	5.442	-0.231	-0.168
-376.873	800.000	0.131	-0.452
-375.858	-200.000	0.015	0.399
-374.844	-33.312	0.241	0.132
-373.829	-200.000	-0.017	0.162
-372.815	-65.656	-0.226	-0.090
-371.800	-200.000	0.007	-0.087
-370.785	-8.587	-0.213	-0.141
-369.771	60.464	0.169	0.166
-368.756	-62.058	0.309	0.128
-367.742	-200.000	0.020	0.193
-366.727	-200.000	-0.011	-0.051
-365.712	-66.993	-0.300	-0.117
-364.698	-81.455	0.189	0.061
-363.683	317.361	-0.139	0.260
-362.669	148.913	0.069	0.092
-361.654	107.638	0.113	0.133
-360.639	-146.904	0.083	0.007
-359.625	-26.462	-0.160	0.093
-358.610	124.797	0.146	0.181
-357.596	-173.065	-0.104	-0.003
-356.581	166.635	0.117	-0.164
-355.566	95.944	-0.143	0.161
-354.552	43.870	0.099	0.090
-353.537	-111.496	0.385	0.077
-352.523	-116.894	-0.289	-0.052
-351.508	-6.681	-0.064	0.043
-350.493	255.245	0.087	-0.146
-349.479	-30.083	0.142	-0.080
-348.464	-200.000	0.004	-0.371
-347.450	115.906	-0.005	-0.007
-346.435	-170.142	-0.176	-0.006
-345.420	800.000	-0.027	0.080
-344.406	-52.952	-0.149	0.068
-343.391	225.801	0.121	-0.194
-342.377	-200.000	0.007	-0.034
-341.362	117.162	0.043	-0.052
-340.348	41.374	0.227	-0.202
-339.333	656.882	-0.080	0.202
-338.318	-188.199	0.218	0.003
-337.304	6.073	-0.081	-0.060
-336.289	357.276	-0.024	-0.047
-335.275	457.392	-0.088	-0.193
-334.260	-131.173	-0.357	-0.047
-333.245	151.118	0.036	0.048
-332.231	800.000	-0.029	0.107
-331.216	768.928	-0.109	-0.294
-330.202	-62.147	-0.236	-0.097
-329.187	-200.000	0.114	-0.000
-328.172	-86.436	-0.133	0.040
-327.158	-200.000	-0.014	0.593
-326.143	800.000	-0.042	-0.153
-325.129	-117.797	-0.206	0.036
-324.114	-200.000	-0.045	0.284
-323.099	662.155	0.041	0.104
-322.085	-82.299	0.340	0.109
-321.070	-131.775	0.253	0.033
-320.056	-66.568	-0.168	0.066
-319.041	-200.000	0.015	0.159
-318.026	98.294	-0.090	0.102
-317.012	-200.000	-0.072	0.340
-315.997	-190.365	0.462	-0.005
-314.983	800.000	0.050	-0.149
-313.968	-116.305	-0.356	0.065
-312.953	493.330	-0.188	0.424
-311.939	-140.730	-0.267	-0.027
-310.924	51.386	-0.119	0.111
-309.910	-187.035	0.354	0.005
-308.895	-200.000	0.007	0.047
-307.880	726.740	-0.200	0.526
-306.866	-78.412	-0.104	0.035
-305.851	-15.807	0.169	-0.106
-304.837	800.000	-0.191	-0.600
-303.822	800.000	0.076	0.269
-302.807	277.581	0.003	0.005
-301.793	9.357	-0.166	0.124
-300.778	228.824	-0.027	-0.043
-299.764	155.417	0.148	0.201
-298.749	190.488	0.103	0.152
-297.735	81.188	0.125	0.133
-296.720	99.376	-0.191	-0.218
-295.705	93.359	-0.103	0.115
-294.691	-59.514	0.038	0.016
-293.676	160.157	0.111	0.153
-292.662	65.228	0.330	0.328
-291.647	-45.221	0.198	0.097
-290.632	-200.000	-0.039	0.473
-289.618	-84.001	0.191	0.060
-288.603	148.733	0.196	-0.262
-287.589	-200.000	-0.003	-0.114
-286.574	-93.268	0.247	0.067
-285.559	-103.776	0.355	0.082
-284.545	800.000	-0.104	0.298
-283.530	14.871	0.108	-0.083
-282.516	16.416	0.110	0.085
-281.501	-83.178	-0.395	-0.125
-280.486	-200.000	-0.002	-0.261
-279.472	-46.557	0.300	-0.145
-278.457	426.126	0.111	-0.236
-277.443	-200.000	0.024	-0.289
-276.428	-43.107	0.066	-0.033
-275.413	90.031	-0.067	0.074
-274.399	6.673	0.158	-0.116
-273.384	19.869	-0.123	0.098
-272.370	664.983	-0.049	-0.124
-271.355	221.385	0.174	-0.275
-270.340	369.335	-0.196	-0.390
-269.326	-192.910	-0.243	-0.002
-268.311	800.000	-0.078	0.257
-267.297	-118.025	0.412	0.072
-266.282	26.981	0.089	-0.074
-265.267	180.340	0.109	-0.157
-264.253	-39.097	-0.143	0.074
-263.238	315.580	0.126	0.234
-262.224	-24.682	0.093	0.055
-261.209	-2.267	0.254	0.176
-260.195	-91.178	0.218	0.062
-259.180	143.680	0.280	0.367
-258.165	-130.483	0.220	-0.029
-257.151	266.033	0.217	0.373
-256.136	-49.752	0.233	0.109
-255.122	238.128	-0.225	-0.368
-254.107	800.000	0.022	-0.071
-253.092	-140.902	0.045	-0.005
-252.078	70.893	0.082	0.083
-251.063	800.000	0.099	-0.323
-250.049	80.324	-0.262	-0.277
-249.034	-96.363	0.164	0.043
-248.019	-200.000	0.009	-0.104
-247.005	-81.404	-0.357	0.115
-245.990	-12.991	0.245	-0.157
-244.976	-200.000	0.024	-0.251
-243.961	-36.423	-0.125	-0.066
-242.946	-75.746	-0.298	0.104
-241.932	235.530	0.106	-0.173
-240.917	55.633	-0.341	-0.325
-239.903	160.261	-0.164	-0.225
-238.888	-200.000	-0.049	0.210
-237.873	-200.000	-0.062	0.413
-236.859	561.155	0.101	-0.241
-235.844	17.446	0.148	-0.116
-234.830	220.425	-0.132	0.208
-233.815	5.444	-0.169	-0.123
-232.800	148.193	-0.129	0.172
-231.786	-130.857	0.107	0.014
-230.771	-4.610	-0.145	-0.098
-229.757	512.475	0.065	-0.148
-228.742	-26.842	0.163	0.094
-227.727	-200.000	0.050	-0.288
-226.713	-28.229	-0.239	-0.136
-225.698	180.146	-0.147	-0.212
-224.684	-61.944	0.346	-0.142
-223.669	115.617	0.266	0.320
-222.655	70.346	-0.307	-0.312
-221.640	153.651	0.229	0.308
-220.625	466.759	-0.080	-0.177
-219.611	800.000	-0.068	0.227
-218.596	-167.367	0.363	-0.014
-217.582	-98.681	-0.118	0.029
-216.567	-94.093	-0.283	0.076
-215.552	-200.000	0.019	0.100
-214.538	97.385	0.272	0.307
-213.523	579.097	-0.206	0.496
-212.509	-200.000	-0.047	-0.206
-211.494	-99.444	0.032	0.008
-210.479	103.296	0.136	-0.157
-209.465	-154.369	-0.057	-0.004
-208.450	-134.556	-0.208	0.025
-207.436	-29.621	0.205	-0.115
-206.421	92.851	0.074	-0.082
-205.406	-200.000	-0.028	0.240
-204.392	-72.712	-0.248	-0.090
-203.377	111.598	-0.105	0.125
-202.363	-200.000	0.030	-0.173
-201.348	54.595	0.334	0.316
-200.333	410.022	-0.075	0.156
-199.319	317.986	-0.095	-0.177
-198.304	-110.911	0.182	0.037
-197.290	520.023	-0.087	-0.201
-196.275	-200.000	-0.020	-0.328
-195.260	-200.000	-0.015	-0.373
-194.246	138.365	-0.216	-0.279
-193.231	800.000	-0.103	0.346
-192.217	-200.000	0.043	0.413
-191.202	50.376	-0.165	-0.153
-190.187	-200.000	-0.038	-0.323
-189.173	90.215	0.311	0.342
-188.158	800.000	0.063	-0.212
-187.144	54.766	-0.160	-0.151
-186.129	-176.700	0.145	-0.004
-185.114	-56.667	-0.153	-0.066
-184.100	-88.298	0.238	0.070
-183.085	63.997	0.101	-0.099
-182.071	-200.000	0.021	0.320
-181.056	62.017	0.125	0.123
-180.042	385.192	-0.038	0.077
-179.027	-158.957	-0.045	0.002
-178.012	-200.000	-0.050	0.230
-176.998	800.000	-0.024	0.070
-175.983	-132.063	0.327	-0.042
-174.969	483.748	0.034	-0.075
-173.954	-124.087	0.091	-0.014
-172.939	357.900	0.144	-0.282
-171.925	-200.000	-0.002	-0.383
-170.910	164.355	0.109	0.151
-169.896	-35.937	-0.264	-0.140
-168.881	-70.909	-0.056	0.021
-167.866	-78.796	0.072	-0.024
-166.852	-97.624	0.188	0.048
-165.837	800.000	0.052	-0.198
-164.823	-143.242	-0.293	0.028
-163.808	79.587	0.027	-0.028
-162.793	800.000	0.095	-0.264
-161.779	289.404	-0.129	-0.229
-160.764	689.518	-0.055	0.142
-159.750	-200.000	0.008	0.388
-158.735	189.736	-0.055	-0.081
-157.720	419.674	0.195	-0.410
-156.706	684.774	-0.067	-0.171
-155.691	-180.241	-0.271	-0.006
-154.677	-53.843	-0.318	-0.142
-153.662	-4.094	-0.161	-0.109
-152.647	-35.158	-0.174	0.093
-151.633	-137.400	0.146	-0.016
-150.618	619.708	-0.071	0.174
-149.604	45.803	0.045	-0.041
-148.589	-86.520	-0.183	-0.055
-147.574	-19.439	0.154	-0.094
-146.560	-98.881	0.464	0.116
-145.545	24.108	-0.180	0.146
-144.531	-46.057	0.197	0.095
-143.516	-200.000	-0.005	0.132
-142.502	-39.113	0.169	-0.087
-141.487	-104.528	0.200	-0.045
-140.472	-49.456	-0.229	0.107
-139.458	137.147	-0.077	-0.099
-138.443	-200.000	-0.021	-0.216
-137.429	432.620	-0.128	-0.271
-136.414	-200.000	-0.060	0.328
-135.399	-108.329	0.208	-0.044
-134.385	161.129	-0.077	0.105
-133.370	257.291	-0.186	0.313
-132.356	-154.753	0.049	-0.003
-131.341	-151.995	0.097	-0.007
-130.326	-27.215	0.106	0.060
-129.312	169.479	-0.117	0.163
-128.297	-97.323	0.426	0.109
-127.283	-200.000	-0.001	0.109
-126.268	54.012	0.146	-0.138
-125.253	-77.597	-0.391	0.133
-124.239	-200.000	-0.002	0.308
-123.224	98.192	0.184	0.207
-122.210	-144.020	-0.250	0.023
-121.195	32.768	0.149	-0.126
-120.180	-71.177	0.265	0.097
-119.166	-54.334	0.203	-0.090
-118.151	202.905	0.127	-0.191
-117.137	-78.960	-0.075	0.025
-116.122	800.000	-0.038	0.135
-115.107	414.815	-0.143	0.297
-114.093	-200.000	-0.021	-0.447
-113.078	-200.000	0.000	-0.294
-112.064	84.042	0.088	-0.095
-111.049	-200.000	-0.004	0.148
-110.034	800.000	0.099	-0.306
-109.020	-200.000	-0.024	0.230
-108.005	274.446	0.063	0.108
-106.991	-200.000	0.025	0.357
-105.976	32.462	-0.128	0.108
-104.962	-117.724	-0.212	0.037
-103.947	800.000	0.116	0.385
-102.932	800.000	0.082	0.313
-101.918	-200.000	0.017	-0.103
-100.903	-200.000	-0.023	0.101
-99.889	-152.666	-0.118	-0.008
-98.874	-164.743	-0.261	0.011
-97.859	-71.849	0.168	0.061
-96.845	-200.000	-0.005	0.339
-95.830	269.173	0.038	0.065
-94.816	244.389	-0.135	0.221
-93.801	-66.325	-0.102	-0.040
-92.786	35.898	-0.069	0.060
-91.772	-200.000	0.023	0.327
-90.757	46.965	-0.093	-0.085
-89.743	732.505	-0.108	0.281
-88.728	56.962	-0.251	-0.239
-87.713	-200.000	0.002	-0.129
-86.699	-42.113	0.057	-0.029
-85.684	800.000	-0.111	0.310
-84.670	-200.000	0.001	-0.061
-83.655	-116.787	0.432	-0.077
-82.640	-86.985	0.228	-0.068
-81.626	-55.153	0.167	-0.073
-80.611	-200.000	-0.001	-0.048
-79.597	-119.671	-0.205	-0.035
-78.582	-66.318	-0.068	-0.026
-77.567	87.674	0.152	-0.164
-76.553	395.654	0.031	0.064
-75.538	-121.916	-0.253	-0.041
-74.524	-96.237	0.280	-0.072
-73.509	141.854	0.041	-0.053
-72.494	48.001	0.098	-0.090
-71.480	-200.000	0.005	0.107
-70.465	-135.015	-0.079	0.009
-69.451	-200.000	-0.017	0.189
-68.436	-61.165	0.338	-0.139
-67.422	-70.909	-0.225	0.083
-66.407	-200.000	0.030	-0.286
-65.392	-200.000	-0.047	0.310
-64.378	-95.967	0.215	-0.056
-63.363	800.000	-0.044	0.144
-62.349	-79.570	0.464	0.153
-61.334	-41.230	-1.213	-0.611
-60.319	54.598	0.578	0.544
-59.305	794.294	-0.463	-1.243
-58.290	800.000	0.454	1.517
-57.276	800.000	0.432	1.727
-56.261	-200.000	121.967	621.572
-55.246	392.305	1565.643	3176.851
-54.232	140.646	2740.803	3533.546
-53.217	95.640	2182.391	2430.471
-52.203	35.610	1609.204	1379.559
-51.188	26.892	1350.971	1105.290
-50.173	24.246	1312.780	1058.315
-49.159	50.811	1380.684	1276.207
-48.144	48.006	1392.757	1270.206
-47.130	27.027	1341.058	1097.826
-46.115	23.809	1321.825	1062.828
-45.100	23.595	1316.712	1057.396
-44.086	23.655	1314.352	1055.820
-43.071	23.563	1312.229	1053.522
-42.057	23.504	1310.137	1051.453
-41.042	23.553	1308.328	1050.247
-40.027	23.628	1306.841	1049.459
-39.013	23.599	1304.780	1047.589
-37.998	23.638	1302.966	1046.322
-36.984	23.729	1300.968	1045.210
-35.969	23.690	1299.445	1043.716
-34.954	23.704	1297.609	1042.285
-33.940	23.690	1296.584	1041.333
-32.925	23.679	1295.479	1040.345
-31.911	23.699	1293.652	1038.952
-30.896	23.735	1292.454	1038.159
-29.881	23.735	1291.262	1037.157
-28.867	23.877	1289.926	1036.872
-27.852	23.925	1288.117	1035.658
-26.838	23.729	1287.232	1033.763
-25.823	23.736	1285.831	1032.641
-24.809	23.753	1284.578	1031.692
-23.794	23.755	1282.631	1030.098
-22.779	23.793	1281.333	1029.234
-21.765	23.840	1280.046	1028.433
-20.750	23.725	1279.517	1027.300
-19.736	23.653	1278.165	1025.761
-18.721	23.654	1277.214	1024.958
-17.706	23.631	1275.861	1023.699
-16.692	23.682	1274.373	1022.762
-15.677	23.676	1273.261	1021.793
-14.663	23.634	1272.147	1020.617
-13.648	23.567	1271.451	1019.631
-12.633	23.654	1270.026	1018.951
-11.619	23.633	1269.100	1018.043
-10.604	23.612	1268.796	1017.642
-9.590	23.548	1267.941	1016.549
-8.575	23.590	1266.807	1015.837
-7.560	23.606	1266.122	1015.337
-6.546	23.620	1264.858	1014.364
-5.531	23.794	1263.767	1014.447
-4.517	23.666	1263.558	1013.508
-3.502	23.762	1261.816	1012.616
-2.487	23.629	1261.564	1011.617
-1.473	23.735	1257.104	1008.600
-0.458	22.467	1242.481	989.709
0.556	18.300	1226.963	955.094
1.571	14.860	1234.992	941.906
2.586	14.151	1250.002	949.224
3.600	13.883	1238.409	938.825
4.615	10.395	1164.988	864.504
5.629	3.937	1093.124	778.685
6.644	0.845	1075.827	750.964
7.659	0.578	1074.187	748.433
8.673	0.538	1073.066	747.389
9.688	0.669	1071.658	746.990
10.702	0.838	1069.538	746.280
11.717	4.924	1074.084	769.592
12.731	11.723	1083.297	809.894
13.746	16.128	1088.691	835.733
14.761	17.153	1089.563	841.406
15.775	16.461	1087.984	836.690
16.790	15.460	1085.889	830.056
17.804	14.765	1084.457	825.455
18.819	14.471	1083.269	823.027
19.834	14.204	1082.360	820.948
20.848	14.003	1081.477	819.214
21.863	13.769	1080.556	817.292
22.877	13.533	1079.710	815.420
23.892	13.479	1079.197	814.691
24.907	13.634	1077.985	814.470
25.921	13.738	1077.277	814.374
26.936	13.629	1076.634	813.279
27.950	13.674	1075.734	812.749
28.965	13.659	1074.594	811.741
29.980	13.725	1073.027	810.809
30.994	13.770	1072.313	810.417
32.009	13.798	1071.123	809.581
33.023	13.783	1069.722	808.377
34.038	13.754	1068.635	807.344
35.053	13.705	1068.022	806.570
36.067	13.601	1067.835	805.854
37.082	13.708	1066.801	805.522
38.096	13.749	1065.713	804.825
39.111	13.693	1065.045	803.980
40.126	13.671	1063.847	802.897
41.140	13.605	1062.446	801.452
42.155	13.560	1061.390	800.366
43.169	13.522	1060.679	799.574
44.184	13.581	1059.509	798.907
45.199	13.647	1058.320	798.258
46.213	13.610	1057.516	797.404
47.228	13.694	1056.041	796.624
48.242	13.604	1055.149	795.446
49.257	13.615	1054.055	794.604
50.271	13.635	1053.013	793.844
51.286	13.732	1052.157	793.597
52.301	13.588	1051.485	792.330
53.315	13.498	1050.824	791.333
54.330	13.593	1049.295	790.562
55.344	13.510	1048.602	789.576
56.359	13.635	1047.558	789.313
57.374	13.609	1046.370	788.226
58.388	13.457	1045.912	787.087
59.403	13.438	1044.993	786.236
60.417	13.502	1044.135	785.823
61.432	13.411	1043.730	785.021
62.447	13.559	1042.403	784.653
63.461	13.582	1041.417	783.952
64.476	13.385	1041.312	782.870
65.490	13.467	1039.931	782.148
66.505	13.573	1039.144	781.991
67.520	13.609	1038.814	781.839
68.534	13.565	1038.400	781.254
69.549	13.547	1037.382	780.331
70.563	13.537	1036.766	779.755
71.578	13.592	1035.222	778.784
72.593	13.381	1034.871	777.456
73.607	13.427	1034.442	777.283
74.622	13.405	1033.767	776.601
75.636	13.462	1033.066	776.276
76.651	13.449	1032.516	775.732
77.666	13.398	1031.575	774.719
78.680	13.566	1030.340	774.509
79.695	13.454	1030.177	773.793
80.709	13.429	1029.482	773.085
81.724	13.511	1028.421	772.605
82.739	13.449	1028.447	772.264
83.753	13.527	1027.261	771.668
84.768	13.624	1025.821	770.972
85.782	13.819	1025.144	771.300
86.797	13.732	1024.409	770.273
87.812	13.631	1023.453	769.020
88.826	13.607	1022.433	768.073
89.841	13.639	1021.261	767.273
90.855	13.679	1020.608	766.901
91.870	13.687	1019.879	766.321
92.884	13.672	1018.837	765.400
93.899	13.858	1017.494	765.180
94.914	13.771	1017.150	764.453
95.928	13.767	1016.576	763.937
96.943	13.770	1015.527	763.095
97.957	13.800	1014.291	762.238
98.972	13.714	1013.972	761.536
99.987	13.791	1013.517	761.477
101.001	13.794	1011.873	760.191
102.016	13.747	1011.149	759.363
103.030	13.696	1010.571	758.631
104.045	13.768	1009.806	758.317
105.060	13.695	1008.751	757.124
106.074	13.689	1007.553	756.132
107.089	13.668	1006.500	755.178
108.103	13.414	1006.353	753.846
109.118	13.657	1004.993	753.863
110.133	13.650	1004.036	753.048
111.147	13.618	1003.345	752.317
112.162	13.767	1001.918	751.858
113.176	13.745	1001.176	751.135
114.191	13.671	1000.697	750.373
115.206	13.638	1000.184	749.773
116.220	13.635	999.075	748.860
117.235	13.773	997.818	748.475
118.249	13.626	997.711	747.665
119.264	13.672	996.428	746.847
120.279	13.659	995.727	746.195
121.293	13.586	994.958	745.224
122.308	13.740	993.835	745.006
123.322	13.699	992.793	743.979
124.337	13.589	991.979	742.808
125.352	13.704	991.095	742.596
126.366	13.789	989.688	741.859
127.381	13.636	989.035	740.618
128.395	13.566	987.856	739.359
129.410	13.760	986.848	739.400
130.424	13.629	986.185	738.257
131.439	13.736	985.055	737.819
132.454	13.720	984.134	736.994
133.468	13.616	983.603	736.070
134.483	13.732	982.613	735.781
135.497	13.696	982.155	735.210
136.512	13.717	980.757	734.191
137.527	13.760	980.119	733.840
138.541	13.661	979.505	732.879
139.556	13.727	978.970	732.702
140.570	13.775	978.190	732.267
141.585	13.797	977.323	731.652
142.600	13.825	976.198	730.867
143.614	13.935	975.216	730.550
144.629	13.787	974.697	729.445
145.643	13.833	974.024	729.083
146.658	13.860	972.708	728.152
147.673	13.969	971.394	727.582
148.687	13.920	970.116	726.344
149.702	13.869	969.986	725.961
150.716	13.764	969.569	725.122
151.731	13.714	968.819	724.281
152.746	13.834	967.975	724.109
153.760	13.811	967.661	723.709
154.775	13.925	967.157	723.764
155.789	14.088	965.737	723.348
156.804	13.892	965.571	722.305
157.819	14.060	964.740	722.350
158.833	13.929	964.426	721.483
159.848	14.110	962.978	721.123
160.862	14.004	962.132	719.967
161.877	13.996	961.551	719.430
162.892	14.019	960.355	718.574
163.906	14.026	959.476	717.883
164.921	13.942	958.785	716.939
165.935	14.189	957.265	716.804
166.950	13.907	957.195	715.474
167.964	13.925	956.230	714.766
168.979	14.012	955.189	714.299
169.994	14.046	954.162	713.612
171.008	14.153	953.169	713.266
172.023	13.980	952.937	712.289
173.037	14.104	952.062	712.102
174.052	14.116	951.232	711.468
175.067	14.026	951.005	710.850
176.081	14.159	949.784	710.442
177.096	14.033	949.688	709.769
178.110	14.148	949.253	709.873
179.125	14.124	948.360	709.041
180.140	14.115	947.984	708.659
181.154	14.277	947.464	708.895
182.169	14.207	946.720	707.981
183.183	14.342	946.084	708.015
184.198	14.256	945.059	706.821
185.213	14.310	944.172	706.324
186.227	14.287	943.808	705.892
187.242	14.228	943.538	705.378
188.256	14.343	942.820	705.266
189.271	14.402	941.841	704.718
190.286	14.277	940.975	703.480
191.300	14.306	940.463	703.159
192.315	14.184	940.137	702.339
193.329	14.211	939.502	701.916
194.344	14.227	938.708	701.328
195.359	14.288	937.632	700.717
196.373	14.362	937.270	700.698
197.388	14.337	937.295	700.548
198.402	14.360	936.330	699.862
199.417	14.419	935.403	699.353
200.432	14.451	934.970	699.104
201.446	14.498	934.786	699.100
202.461	14.493	934.197	698.577
203.475	14.526	933.264	697.957
204.490	14.686	932.392	697.909
205.504	14.657	931.288	696.903
206.519	14.567	931.164	696.369
207.534	14.508	930.033	695.216
208.548	14.653	929.533	695.387
209.563	14.546	929.305	694.710
210.577	14.557	927.993	693.711
211.592	14.622	927.762	693.748
212.607	14.639	926.700	692.964
213.621	14.618	925.988	692.283
214.636	14.612	925.273	691.661
215.650	14.575	924.797	691.090
216.665	14.703	924.042	690.996
217.680	14.759	923.056	690.432
218.694	14.797	922.500	690.107
219.709	14.695	922.390	689.543
220.723	14.570	921.926	688.621
221.738	14.869	920.268	688.551
222.753	14.751	920.140	687.913
223.767	14.935	919.342	688.010
224.782	14.765	918.937	686.946
225.796	14.806	918.489	686.721
226.811	14.924	918.003	686.779
227.826	14.918	916.972	685.922
228.840	14.855	916.257	685.070
229.855	14.829	915.206	684.119
230.869	14.912	914.199	683.644
231.884	14.907	913.510	683.048
232.899	14.934	913.264	682.913
233.913	14.807	912.577	681.823
234.928	14.801	911.806	681.159
235.942	14.900	911.070	680.951
236.957	14.942	910.605	680.717
237.972	14.937	910.109	680.264
238.986	14.967	908.788	679.337
240.001	14.970	908.474	679.058
241.015	15.034	907.764	678.725
242.030	14.880	907.520	677.857
243.045	15.042	907.138	678.171
244.059	14.924	906.362	677.052
245.074	14.928	905.873	676.641
246.088	15.077	904.777	676.368
247.103	14.984	904.165	675.473
248.117	15.085	903.664	675.447
249.132	15.180	902.948	675.236
250.147	15.229	902.043	674.695
251.161	15.426	901.351	674.911
252.176	15.273	900.747	673.783
253.190	15.242	900.023	673.057
254.205	15.195	900.077	672.849
255.220	15.354	898.750	672.436
256.234	15.254	898.310	671.646
257.249	15.442	897.462	671.707
258.263	15.450	897.003	671.333
259.278	15.414	896.252	670.570
260.293	15.470	895.825	670.414
261.307	15.491	895.044	669.854
262.322	15.536	894.270	669.394
263.336	15.503	893.797	668.852
264.351	15.507	892.942	668.166
265.366	15.488	892.481	667.688
266.380	15.568	891.519	667.228
267.395	15.459	891.473	666.699
268.409	15.512	890.384	666.038
269.424	15.525	889.756	665.560
270.439	15.490	888.718	664.587
271.453	15.578	887.935	664.291
272.468	15.488	887.621	663.641
273.482	15.747	887.042	664.173
274.497	15.669	886.174	663.156
275.512	15.638	886.136	662.946
276.526	15.594	885.820	662.477
277.541	15.675	885.088	662.191
278.555	15.682	884.398	661.643
279.570	15.762	883.858	661.496
280.585	15.732	882.825	660.546
281.599	15.767	882.182	660.145
282.614	15.749	881.419	659.442
283.628	15.785	880.712	658.997
284.643	15.646	880.406	658.168
285.657	15.797	879.668	658.149
286.672	15.842	878.901	657.690
287.687	15.828	878.144	657.013
288.701	15.826	877.965	656.811
289.716	15.928	876.832	656.304
290.730	15.809	876.713	655.691
291.745	15.916	875.859	655.411
292.760	16.025	875.519	655.524
293.774	16.003	874.893	654.911
294.789	15.964	873.836	653.910
295.803	16.076	872.998	653.660
296.818	15.878	872.703	652.614
297.833	16.040	871.678	652.415
298.847	15.882	871.760	651.810
299.862	16.046	870.326	651.313
300.876	16.077	870.497	651.502
301.891	16.118	869.453	650.824
302.906	16.091	869.609	650.776
303.920	16.121	868.719	650.170
304.935	16.190	867.994	649.833
305.949	16.249	867.410	649.567
306.964	16.229	866.333	648.628
307.979	16.277	865.925	648.448
308.993	16.123	865.731	647.652
310.008	16.260	864.769	647.404
311.022	16.201	864.281	646.752
312.037	16.433	863.421	646.940
313.052	16.411	862.825	646.352
314.066	16.224	863.082	645.772
315.081	16.238	862.146	645.070
316.095	16.202	861.632	644.490
317.110	16.338	860.924	644.421
318.125	16.243	860.679	643.821
319.139	16.305	860.075	643.548
320.154	16.337	859.716	643.342
321.168	16.384	858.726	642.724
322.183	16.314	857.987	641.849
323.197	16.401	857.576	641.812
324.212	16.346	857.123	641.209
325.227	16.307	856.476	640.521
326.241	16.346	855.937	640.210
327.256	16.431	855.324	640.017
328.270	16.424	854.897	639.612
329.285	16.380	854.376	639.002
330.300	16.409	853.636	638.501
331.314	16.408	852.879	637.875
332.329	16.502	852.574	637.943
333.343	16.499	851.772	637.275
334.358	16.497	851.592	637.077
335.373	16.540	851.426	637.057
336.387	16.388	851.557	636.529
337.402	16.595	850.533	636.483
338.416	16.487	850.292	635.841
339.431	16.581	850.143	636.027
340.446	16.676	849.501	635.849
341.460	16.634	848.973	635.241
342.475	16.833	848.556	635.617
343.489	16.684	848.613	635.045
344.504	16.702	847.925	634.539
345.519	16.680	847.406	634.014
346.533	16.913	846.536	634.178
347.548	16.823	846.212	633.545
348.562	16.724	846.006	632.962
349.577	16.686	845.505	632.389
350.592	16.774	844.666	632.035
351.606	16.889	843.669	631.663
352.621	16.805	843.116	630.878
353.635	16.824	842.404	630.361
354.650	16.781	841.612	629.552
355.665	16.949	841.338	629.916
356.679	16.920	840.671	629.254
357.694	17.016	840.079	629.113
358.708	17.041	839.217	628.501
359.723	17.057	838.840	628.225
360.738	16.928	838.577	627.495
361.752	16.941	837.807	626.909
362.767	16.994	837.055	626.487
363.781	16.936	837.256	626.368
364.796	17.074	836.333	626.132
365.810	16.997	835.460	625.137
366.825	17.343	834.873	625.918
367.840	17.072	835.111	625.041
368.854	17.211	834.354	624.933
369.869	17.125	833.922	624.237
370.883	17.075	833.695	623.829
371.898	17.194	833.056	623.730
372.913	17.226	832.806	623.606
373.927	17.299	832.074	623.272
374.942	17.161	832.167	622.780
375.956	17.262	831.408	622.527
376.971	17.232	831.180	622.192
377.986	17.423	830.362	622.223
379.000	17.502	829.665	621.933
380.015	17.460	829.058	621.269
381.029	17.245	828.964	620.362
382.044	17.371	828.444	620.376
383.059	17.520	827.511	620.163
384.073	17.412	827.123	619.427
385.088	17.473	826.238	618.931
386.102	17.349	826.054	618.289
387.117	17.394	825.654	618.097
388.132	17.616	824.760	618.179
389.146	17.353	824.417	616.912
390.161	17.494	823.637	616.785
391.175	17.406	823.455	616.276
392.190	17.382	823.075	615.851
393.205	17.515	822.325	615.715
394.219	17.550	821.866	615.441
395.234	17.451	821.774	614.963
396.248	17.526	821.073	614.654
397.263	17.517	820.886	614.429
398.278	17.608	820.174	614.168
399.292	17.583	819.828	613.765
400.307	17.483	819.465	613.080
401.321	17.521	819.226	612.983
402.336	17.650	818.443	612.804
403.350	17.497	818.049	611.908
404.365	17.632	817.613	612.012
405.380	17.750	816.945	611.880
406.394	17.755	816.473	611.490
407.409	17.701	816.071	610.943
408.423	17.676	815.798	610.592
409.438	17.914	815.589	611.237
410.453	17.828	815.369	610.710
411.467	17.858	814.773	610.316
412.482	17.811	814.321	609.754
413.496	17.829	813.793	609.371
414.511	17.871	813.602	609.325
415.526	17.955	812.971	609.098
416.540	17.860	812.510	608.358
417.555	17.979	812.076	608.402
418.569	18.013	811.658	608.159
419.584	18.025	811.170	607.779
420.599	18.041	810.426	607.225
421.613	114.481	1298.393	1486.390
422.628	99.029	1369.433	1486.440
