DTS Sentinel unit serial number:	SN413079Multiplexer serial number:	ORYXHardware model number:	OX4-SRSoftware version number:	ORYX F/W v4.00 Oryx Data Collector v3.7.2.0data status	okinstallation	princeton_trtdifferential loss correction	single-endedforward channel	channel 1reverse channel	N/Adate	2019/09/11time	18:52:11forward acquisition time	60.00reverse acquisition time	0.00gamma	496.2192k internal	0.2291k external	0.2291temperature offset calibration	1.0013default loss term (dB/km)	0.3790temperature slope calibration	1.0000multiplexer offset coefficient	1.0000multiplexer slope coefficient	1.0000fibre end	0.00T internal ref (°C)	42.80T ext. ref 1 (°C)	1.26T ext. ref 2 (°C)	35.09length (m)	temperature (°C)	Stokes	anti-Stokes-747.200	-200.000	-0.008	0.052
-746.185	800.000	0.097	0.392
-745.171	-162.653	-0.172	-0.009
-744.156	-106.732	-0.235	0.054
-743.142	-107.373	0.335	0.075
-742.127	-81.846	-0.283	0.095
-741.112	-134.027	-0.278	0.035
-740.098	-60.379	-0.203	0.088
-739.083	-61.103	-0.143	0.062
-738.069	642.455	-0.139	0.363
-737.054	-93.933	0.140	-0.039
-736.039	-119.018	0.107	-0.019
-735.025	-200.000	0.005	0.102
-734.010	-87.223	-0.150	0.047
-732.996	34.081	0.067	-0.060
-731.981	-7.840	-0.123	-0.085
-730.966	161.813	-0.127	0.181
-729.952	800.000	-0.024	-0.090
-728.937	-63.658	0.160	-0.067
-727.923	-41.641	-0.037	0.019
-726.908	-82.317	-0.340	0.113
-725.894	177.670	0.260	-0.388
-724.879	287.823	0.212	-0.392
-723.864	0.087	-0.207	0.151
-722.850	669.482	-0.074	0.195
-721.835	139.219	0.118	-0.159
-720.821	51.330	-0.252	-0.245
-719.806	800.000	0.124	0.395
-718.791	-200.000	0.017	-0.091
-717.777	-104.001	-0.405	0.096
-716.762	-200.000	0.008	-0.189
-715.748	800.000	0.012	-0.053
-714.733	-200.000	0.020	0.222
-713.718	229.963	0.182	0.304
-712.704	-65.278	0.149	0.061
-711.689	-138.305	-0.506	0.057
-710.675	800.000	-0.118	0.369
-709.660	-129.900	-0.316	0.044
-708.645	-144.317	-0.129	0.012
-707.631	59.544	-0.050	-0.050
-706.616	-99.959	0.127	-0.032
-705.602	-143.545	0.078	0.008
-704.587	-84.022	0.031	-0.010
-703.572	154.003	0.189	-0.266
-702.558	-200.000	-0.053	-0.376
-701.543	-91.080	0.168	-0.049
-700.529	754.553	-0.052	-0.143
-699.514	-200.000	-0.009	-0.242
-698.499	56.660	-0.130	-0.129
-697.485	-9.826	-0.131	0.089
-696.470	-89.612	0.214	-0.064
-695.456	1.304	-0.100	-0.073
-694.441	-106.133	-0.347	-0.080
-693.426	-37.440	0.169	-0.092
-692.412	59.839	-0.174	-0.175
-691.397	800.000	-0.067	-0.213
-690.383	-56.849	-0.051	0.023
-689.368	800.000	0.048	0.156
-688.354	-150.457	-0.198	0.016
-687.339	65.327	-0.243	-0.251
-686.324	135.707	0.149	-0.198
-685.310	-40.421	0.264	0.140
-684.295	637.681	-0.054	0.141
-683.281	-200.000	0.001	0.254
-682.266	56.028	-0.146	-0.145
-681.251	-200.000	-0.038	0.244
-680.237	-146.190	0.119	0.011
-679.222	464.409	-0.028	-0.064
-678.208	215.387	-0.138	0.223
-677.193	68.204	-0.035	-0.037
-676.178	-34.909	-0.298	-0.166
-675.164	-200.000	-0.262	0.001
-674.149	800.000	0.100	0.320
-673.135	-200.000	-0.009	0.106
-672.120	-48.250	0.249	0.123
-671.105	-200.000	-0.410	0.001
-670.091	-12.903	0.254	0.169
-669.076	46.486	-0.364	-0.345
-668.062	-200.000	0.011	-0.269
-667.047	-127.069	0.337	-0.050
-666.032	48.745	-0.144	0.138
-665.018	-89.115	-0.058	0.017
-664.003	51.691	0.043	0.042
-662.989	-200.000	-0.044	0.239
-661.974	800.000	0.081	-0.242
-660.959	183.820	-0.156	-0.235
-659.945	134.629	0.042	0.056
-658.930	-200.000	-0.002	0.096
-657.916	-178.939	-0.240	-0.006
-656.901	-200.000	0.028	-0.159
-655.886	-37.872	-0.200	0.108
-654.872	85.308	-0.215	-0.241
-653.857	46.034	0.214	-0.202
-652.843	-100.861	0.129	0.032
-651.828	-71.721	-0.080	0.030
-650.814	-6.590	0.268	-0.187
-649.799	216.765	-0.104	-0.168
-648.784	-41.028	0.044	-0.023
-647.770	41.917	0.054	-0.050
-646.755	48.597	0.289	-0.276
-645.741	-121.066	0.478	-0.082
-644.726	-200.000	-0.008	-0.272
-643.711	427.135	0.040	0.087
-642.697	-163.128	0.180	-0.009
-641.682	121.840	-0.167	0.213
-640.668	-200.000	0.043	-0.228
-639.653	-59.154	0.095	0.042
-638.638	800.000	0.064	0.214
-637.624	-40.852	0.019	0.010
-636.609	-35.153	-0.291	0.161
-635.595	-91.145	0.213	0.062
-634.580	678.454	-0.076	-0.202
-633.565	10.870	-0.327	0.254
-632.551	-200.000	-0.061	-0.476
-631.536	283.845	-0.060	-0.110
-630.522	-114.124	0.236	0.047
-629.507	12.015	0.135	-0.106
-628.492	-10.276	-0.221	-0.149
-627.478	-200.000	-0.025	0.266
-626.463	-84.183	-0.078	0.025
-625.449	-45.899	0.156	-0.078
-624.434	354.827	-0.084	-0.169
-623.419	-200.000	0.026	0.180
-622.405	117.200	-0.217	0.272
-621.390	38.548	-0.249	0.227
-620.376	-200.000	-0.033	-0.202
-619.361	233.434	0.105	-0.176
-618.346	-91.720	0.203	-0.059
-617.332	367.218	-0.226	-0.464
-616.317	380.862	-0.103	0.215
-615.303	-93.919	0.096	-0.027
-614.288	800.000	-0.026	0.082
-613.273	-41.010	0.026	0.014
-612.259	-173.578	-0.100	-0.003
-611.244	-17.392	-0.196	0.126
-610.230	-0.635	0.116	-0.084
-609.215	-32.721	-0.237	0.134
-608.201	366.356	0.124	0.254
-607.186	640.409	0.051	0.132
-606.171	-127.908	-0.185	-0.027
-605.157	-161.730	0.195	-0.010
-604.142	477.070	0.170	-0.391
-603.128	-124.365	-0.101	0.016
-602.113	800.000	-0.040	-0.135
-601.098	-67.479	0.434	-0.173
-600.084	70.947	-0.170	-0.179
-599.069	800.000	-0.069	-0.228
-598.055	-73.417	-0.405	-0.151
-597.040	93.385	-0.258	-0.298
-596.025	-200.000	-0.044	-0.250
-595.011	-15.256	0.240	-0.156
-593.996	-200.000	-0.050	-0.235
-592.982	-200.000	0.005	0.147
-591.967	-139.453	0.244	0.027
-590.952	-111.670	-0.146	-0.030
-589.938	-200.000	0.026	0.158
-588.923	-200.000	-0.013	-0.233
-587.909	-181.373	0.124	-0.002
-586.894	-167.282	-0.191	0.008
-585.879	800.000	-0.049	-0.153
-584.865	34.672	-0.087	-0.077
-583.850	29.984	0.242	0.210
-582.836	431.518	-0.077	0.170
-581.821	-115.268	-0.237	-0.046
-580.806	-65.788	-0.436	-0.178
-579.792	96.544	-0.028	0.033
-578.777	71.658	0.163	0.172
-577.763	87.699	0.234	-0.263
-576.748	47.575	-0.193	-0.183
-575.733	-49.109	-0.219	-0.107
-574.719	156.611	0.107	0.150
-573.704	-200.000	0.059	-0.402
-572.690	-139.103	-0.316	0.035
-571.675	372.047	-0.081	0.167
-570.661	106.226	-0.028	-0.034
-569.646	-103.282	0.211	-0.051
-568.631	800.000	-0.052	0.216
-567.617	-200.000	-0.026	0.418
-566.602	800.000	-0.060	-0.190
-565.588	-110.541	-0.166	-0.035
-564.573	-200.000	-0.016	-0.187
-563.558	-154.398	0.330	-0.023
-562.544	800.000	-0.061	-0.246
-561.529	113.827	-0.246	0.304
-560.515	800.000	-0.102	-0.302
-559.500	45.048	0.149	-0.139
-558.485	-200.000	-0.015	-0.139
-557.471	-200.000	-0.022	-0.182
-556.456	278.538	-0.188	-0.341
-555.442	-200.000	0.034	0.187
-554.427	-200.000	0.013	0.113
-553.412	175.120	-0.131	0.192
-552.398	202.290	0.033	-0.051
-551.383	-102.384	0.357	-0.087
-550.369	-200.000	0.026	-0.191
-549.354	106.154	0.214	-0.257
-548.339	760.568	0.195	0.536
-547.325	-200.000	0.027	-0.134
-546.310	194.131	0.118	-0.182
-545.296	227.681	0.060	0.099
-544.281	-41.944	-0.097	-0.050
-543.266	800.000	-0.031	-0.130
-542.252	-16.311	0.200	0.129
-541.237	-90.337	-0.201	-0.059
-540.223	800.000	-0.048	-0.142
-539.208	134.237	0.144	0.189
-538.193	-5.427	0.225	0.157
-537.179	102.162	0.039	0.047
-536.164	800.000	-0.087	-0.275
-535.150	-58.940	0.206	0.090
-534.135	96.220	-0.055	-0.064
-533.121	-17.548	-0.194	-0.124
-532.106	800.000	0.037	0.105
-531.091	336.636	-0.167	0.329
-530.077	30.743	0.107	-0.093
-529.062	800.000	0.060	0.220
-528.048	-71.407	-0.220	-0.084
-527.033	-200.000	0.027	-0.692
-526.018	-143.678	0.142	-0.014
-525.004	50.779	-0.045	0.043
-523.989	-104.701	-0.172	0.040
-522.975	-168.523	0.098	-0.004
-521.960	62.273	-0.224	0.227
-520.945	-200.000	0.062	0.340
-519.931	269.809	0.025	0.045
-518.916	-68.557	-0.135	0.053
-517.902	51.125	0.510	-0.491
-516.887	800.000	0.067	-0.193
-515.872	-200.000	-0.011	0.103
-514.858	-51.731	0.094	0.045
-513.843	51.712	0.077	-0.074
-512.829	337.187	0.120	-0.236
-511.814	-26.010	-0.140	-0.084
-510.799	445.146	-0.059	-0.130
-509.785	-200.000	-0.017	-0.127
-508.770	-178.991	0.353	0.008
-507.756	6.550	-0.187	-0.141
-506.741	-200.000	-0.033	0.157
-505.726	280.662	-0.019	-0.034
-504.712	-29.344	0.239	-0.139
-503.697	638.804	0.056	0.146
-502.683	47.985	0.282	0.267
-501.668	-200.000	-0.061	0.346
-500.653	-71.211	0.127	0.048
-499.639	252.382	-0.198	-0.342
-498.624	253.652	-0.027	0.048
-497.610	19.664	0.033	0.027
-496.595	38.492	-0.086	-0.077
-495.581	46.519	-0.117	-0.110
-494.566	304.193	0.128	-0.241
-493.551	-26.386	-0.148	-0.088
-492.537	3.870	-0.223	-0.165
-491.522	-200.000	0.026	-0.164
-490.508	181.431	-0.071	-0.106
-489.493	800.000	0.059	-0.255
-488.478	79.767	-0.190	-0.207
-487.464	-88.359	-0.129	-0.039
-486.449	74.038	-0.312	-0.332
-485.435	-177.523	-0.536	-0.013
-484.420	327.461	-0.052	0.100
-483.405	-77.977	-0.109	0.038
-482.391	800.000	-0.079	0.333
-481.376	-1.582	0.320	-0.229
-480.362	-149.625	-0.263	-0.021
-479.347	30.120	0.107	-0.093
-478.332	-200.000	0.008	-0.204
-477.318	-200.000	0.010	-0.093
-476.303	233.948	0.033	0.055
-475.289	343.276	0.076	0.151
-474.274	-98.192	-0.196	-0.051
-473.259	-13.124	0.076	-0.050
-472.245	800.000	0.041	0.180
-471.230	-164.730	-0.084	0.004
-470.216	114.465	-0.267	0.329
-469.201	56.408	-0.074	-0.072
-468.186	-99.452	0.145	-0.037
-467.172	48.429	-0.281	0.266
-466.157	282.175	-0.093	0.169
-465.143	-76.248	0.189	-0.068
-464.128	533.573	-0.044	-0.106
-463.113	-43.482	-0.334	0.171
-462.099	-82.680	-0.244	-0.080
-461.084	260.942	-0.054	-0.094
-460.070	-7.687	0.052	-0.036
-459.055	22.981	-0.176	0.146
-458.040	54.714	-0.048	0.047
-457.026	800.000	0.134	0.463
-456.011	97.329	-0.053	0.062
-454.997	-200.000	0.262	0.000
-453.982	-200.000	0.071	-0.494
-452.968	252.337	-0.023	-0.040
-451.953	-200.000	0.029	-0.321
-450.938	-200.000	0.004	0.372
-449.924	-109.259	0.049	0.011
-448.909	52.502	-0.107	0.103
-447.895	-175.508	0.268	-0.007
-446.880	178.831	0.224	0.332
-445.865	800.000	0.076	0.222
-444.851	-4.077	0.107	0.075
-443.836	-97.084	0.064	-0.017
-442.822	525.343	0.136	-0.324
-441.807	-52.270	-0.072	0.034
-440.792	-87.254	-0.269	0.083
-439.778	121.388	0.137	0.173
-438.763	-38.133	0.235	0.126
-437.749	-140.637	0.192	0.020
-436.734	-23.460	-0.129	-0.078
-435.719	-106.160	-0.351	0.080
-434.705	148.304	-0.212	-0.290
-433.690	261.690	-0.112	-0.196
-432.676	-137.728	-0.178	0.020
-431.661	-97.687	0.391	0.103
-430.646	-132.244	-0.375	-0.049
-429.632	-83.878	0.115	-0.037
-428.617	-159.952	0.095	-0.005
-427.603	-108.206	-0.163	0.036
-426.588	-54.027	0.140	0.064
-425.573	-32.016	0.516	0.292
-424.559	100.569	0.052	-0.061
-423.544	-75.885	-0.434	-0.155
-422.530	-141.945	0.288	-0.029
-421.515	-200.000	0.012	-0.076
-420.500	-126.894	0.315	-0.047
-419.486	656.164	0.046	-0.119
-418.471	36.391	-0.291	0.259
-417.457	-131.752	-0.095	-0.013
-416.442	-76.976	0.160	-0.057
-415.428	-98.780	-0.226	0.058
-414.413	-53.270	0.316	-0.147
-413.398	-6.500	0.037	-0.026
-412.384	-55.015	0.121	-0.055
-411.369	-200.000	-0.029	-0.264
-410.355	-124.300	-0.244	-0.039
-409.340	-129.403	-0.212	0.030
-408.325	800.000	-0.053	-0.226
-407.311	111.069	0.097	0.118
-406.296	-172.353	-0.294	0.009
-405.282	800.000	0.065	0.222
-404.267	-59.995	-0.114	-0.049
-403.252	-200.000	0.012	-0.076
-402.238	234.507	0.115	-0.192
-401.223	800.000	0.082	0.354
-400.209	-69.813	-0.061	-0.023
-399.194	188.128	0.141	0.212
-398.179	-76.462	-0.052	-0.019
-397.165	136.636	-0.148	0.195
-396.150	204.361	0.120	0.187
-395.136	75.470	-0.158	0.169
-394.121	-200.000	-0.009	0.126
-393.106	-61.911	-0.298	-0.126
-392.092	-95.183	-0.177	0.048
-391.077	359.117	-0.194	0.391
-390.063	-200.000	0.047	0.207
-389.048	-30.241	-0.098	0.057
-388.033	425.789	-0.128	0.278
-387.019	-150.351	-0.208	-0.016
-386.004	-200.000	-0.006	-0.038
-384.990	-46.022	0.125	-0.062
-383.975	-103.154	-0.352	-0.084
-382.960	101.789	-0.150	0.177
-381.946	-81.118	-0.124	0.041
-380.931	1.399	-0.063	-0.046
-379.917	-53.639	0.259	0.119
-378.902	636.165	-0.082	0.209
-377.888	-82.225	-0.085	0.028
-376.873	800.000	0.036	-0.128
-375.858	-68.680	0.088	-0.034
-374.844	336.219	0.053	-0.103
-373.829	-200.000	0.012	-0.394
-372.815	119.210	0.143	-0.178
-371.800	800.000	-0.090	0.286
-370.785	-175.047	-0.088	-0.002
-369.771	60.913	0.071	0.071
-368.756	800.000	-0.044	-0.163
-367.742	689.011	0.037	0.099
-366.727	-4.386	0.079	-0.055
-365.712	-112.469	0.221	-0.045
-364.698	17.601	0.110	0.088
-363.683	244.026	0.128	0.216
-362.669	-200.000	-0.022	-0.098
-361.654	-52.846	0.263	0.122
-360.639	-38.142	0.240	-0.128
-359.625	-200.000	0.020	0.171
-358.610	-135.707	0.094	-0.011
-357.596	800.000	-0.078	0.323
-356.581	165.164	0.105	0.150
-355.566	-29.017	0.220	-0.127
-354.552	-129.312	-0.235	-0.033
-353.537	-112.012	0.301	0.061
-352.523	75.295	0.288	0.306
-351.508	459.689	-0.092	0.206
-350.493	-66.420	-0.038	0.015
-349.479	-200.000	0.119	0.534
-348.464	-28.223	0.028	0.017
-347.450	-114.960	-0.172	0.033
-346.435	271.152	0.147	-0.261
-345.420	45.931	0.123	0.114
-344.406	86.430	0.087	0.097
-343.391	41.836	0.072	-0.066
-342.377	-200.000	0.034	-0.265
-341.362	-170.778	-0.097	0.003
-340.348	-200.000	0.029	0.131
-339.333	-51.296	-0.058	-0.028
-338.318	62.514	-0.102	-0.102
-337.304	-98.524	0.225	-0.058
-336.289	284.548	-0.184	-0.333
-335.275	-23.808	0.058	-0.035
-334.260	34.675	0.131	0.115
-333.245	33.535	0.288	-0.252
-332.231	4.651	-0.370	0.274
-331.216	-122.653	0.113	-0.018
-330.202	498.773	0.052	-0.122
-329.187	-200.000	0.006	-0.272
-328.172	-200.000	-0.007	0.072
-327.158	219.402	0.213	0.343
-326.143	-47.747	-0.131	-0.064
-325.129	4.629	0.302	-0.223
-324.114	57.789	-0.107	0.106
-323.099	10.324	-0.161	-0.123
-322.085	-41.029	-0.239	0.125
-321.070	161.076	0.100	-0.140
-320.056	-140.425	-0.352	0.037
-319.041	-200.000	-0.036	-0.165
-318.026	-200.000	0.046	0.209
-317.012	-200.000	0.003	0.057
-315.997	212.293	0.073	-0.116
-314.983	-9.598	-0.077	-0.051
-313.968	22.971	0.097	0.080
-312.953	-3.975	0.162	-0.113
-311.939	-44.805	0.401	0.202
-310.924	-11.777	-0.038	0.025
-309.910	99.978	0.041	-0.048
-308.895	71.140	0.175	0.183
-307.880	130.212	0.185	-0.238
-306.866	64.800	0.160	-0.163
-305.851	392.795	-0.152	-0.319
-304.837	800.000	-0.054	-0.187
-303.822	-139.673	0.287	-0.031
-302.807	-200.000	-0.009	-0.148
-301.793	129.872	-0.094	0.121
-300.778	29.849	0.094	-0.080
-299.764	800.000	-0.036	0.148
-298.749	800.000	-0.094	0.268
-297.735	-91.077	-0.367	-0.106
-296.720	40.457	-0.100	0.090
-295.705	-200.000	0.007	-0.217
-294.691	-119.218	0.160	0.028
-293.676	124.405	-0.105	-0.132
-292.662	-200.000	0.046	0.230
-291.647	800.000	-0.019	-0.079
-290.632	800.000	0.073	-0.238
-289.618	800.000	-0.022	0.076
-288.603	-200.000	-0.004	-0.341
-287.589	136.552	-0.155	-0.204
-286.574	282.650	-0.107	0.192
-285.559	-97.047	0.334	0.088
-284.545	-105.085	0.272	-0.063
-283.530	-148.484	-0.144	-0.012
-282.516	-200.000	-0.029	0.147
-281.501	343.594	-0.125	0.246
-280.486	34.223	0.043	0.038
-279.472	70.869	-0.071	-0.074
-278.457	-200.000	0.014	0.337
-277.443	-200.000	0.010	-0.098
-276.428	-200.000	0.019	-0.114
-275.413	8.903	0.322	0.244
-274.399	-181.110	-0.172	-0.003
-273.384	-164.012	0.209	-0.010
-272.370	119.205	-0.149	-0.185
-271.355	6.783	0.122	-0.091
-270.340	192.807	0.178	-0.270
-269.326	-200.000	0.020	0.154
-268.311	120.622	0.255	-0.319
-267.297	800.000	0.056	0.176
-266.282	-50.405	0.051	-0.024
-265.267	187.961	-0.163	-0.245
-264.253	409.387	0.084	-0.180
-263.238	20.567	0.135	-0.110
-262.224	287.713	0.114	-0.207
-261.209	515.513	0.060	0.140
-260.195	-200.000	0.001	0.226
-259.180	-200.000	-0.046	0.313
-258.165	539.039	0.025	-0.060
-257.151	0.907	-0.130	0.094
-256.136	133.915	0.062	0.081
-255.122	-200.000	-0.004	0.051
-254.107	411.597	0.088	0.187
-253.092	-116.917	0.113	-0.021
-252.078	111.834	-0.022	0.027
-251.063	-200.000	-0.004	-0.166
-250.049	-200.000	0.010	0.122
-249.034	-141.937	0.070	0.007
-248.019	-7.991	-0.152	0.103
-247.005	800.000	-0.047	0.158
-245.990	-200.000	0.035	0.275
-244.976	-200.000	0.051	-0.280
-243.961	800.000	-0.105	0.343
-242.946	-36.136	-0.061	0.033
-241.932	-114.955	0.025	0.005
-240.917	-54.320	-0.280	-0.128
-239.903	-40.972	-0.316	-0.164
-238.888	800.000	-0.065	0.260
-237.873	489.275	-0.131	0.300
-236.859	-163.655	-0.268	0.013
-235.844	-144.714	-0.174	-0.016
-234.830	35.977	-0.051	-0.045
-233.815	-200.000	-0.021	-0.140
-232.800	-114.788	0.116	-0.022
-231.786	575.053	0.008	-0.019
-230.771	800.000	-0.093	0.301
-229.757	800.000	-0.085	0.361
-228.742	-200.000	0.042	0.363
-227.727	680.776	0.087	0.228
-226.713	88.070	-0.132	0.147
-225.698	68.837	-0.198	-0.204
-224.684	46.720	0.053	-0.050
-223.669	26.198	0.143	0.120
-222.655	124.598	-0.014	0.018
-221.640	-49.571	-0.271	0.130
-220.625	23.254	0.186	0.154
-219.611	-200.000	-0.046	0.302
-218.596	-77.363	-0.062	-0.022
-217.582	-200.000	0.050	0.450
-216.567	-200.000	-0.009	0.277
-215.552	193.954	0.077	0.117
-214.538	-80.084	-0.303	0.102
-213.523	-82.396	0.237	-0.077
-212.509	597.164	-0.069	-0.171
-211.494	-43.719	0.284	-0.143
-210.479	-53.616	0.402	0.184
-209.465	-153.451	0.321	-0.022
-208.450	-59.201	0.163	0.071
-207.436	-54.952	-0.098	0.044
-206.421	23.790	-0.198	-0.163
-205.406	-200.000	0.000	-0.332
-204.392	-7.731	0.249	-0.169
-203.377	800.000	0.074	-0.210
-202.363	-55.243	-0.150	-0.067
-201.348	-90.901	-0.375	0.108
-200.333	-110.987	-0.144	0.030
-199.319	392.314	0.123	0.256
-198.304	85.704	0.320	0.352
-197.290	-140.747	-0.153	0.016
-196.275	312.432	0.109	0.206
-195.260	-166.077	-0.177	0.008
-194.246	363.077	0.103	0.208
-193.231	-14.612	-0.313	-0.201
-192.217	-200.000	-0.012	0.118
-191.202	162.791	0.107	-0.151
-190.187	664.331	-0.028	-0.073
-189.173	435.015	-0.114	-0.248
-188.158	50.715	0.114	-0.108
-187.144	56.287	-0.132	-0.128
-186.129	429.642	-0.087	-0.189
-185.114	-200.000	-0.070	-0.441
-184.100	-200.000	0.017	-0.104
-183.085	123.954	-0.146	0.183
-182.071	250.194	0.020	-0.033
-181.056	-200.000	0.008	0.051
-180.042	800.000	0.039	0.119
-179.027	-118.987	-0.438	0.077
-178.012	-58.533	0.031	0.014
-176.998	42.848	0.120	0.109
-175.983	213.204	0.140	0.221
-174.969	120.610	-0.015	0.019
-173.954	-38.849	-0.176	0.093
-172.939	-94.213	0.197	-0.054
-171.925	139.585	0.178	0.235
-170.910	502.467	0.052	-0.120
-169.896	38.212	-0.100	-0.089
-168.881	-84.832	0.207	0.065
-167.866	299.508	-0.071	-0.130
-166.852	281.093	-0.025	0.045
-165.837	-101.641	0.288	-0.070
-164.823	800.000	-0.029	0.121
-163.808	-119.459	-0.221	-0.038
-162.793	-131.380	-0.207	0.027
-161.779	-161.430	-0.148	0.008
-160.764	352.908	-0.049	0.098
-159.750	-61.253	0.194	0.082
-158.735	27.490	0.150	-0.126
-157.720	171.225	-0.123	0.177
-156.706	-29.650	-0.153	0.087
-155.691	-112.037	0.224	0.045
-154.677	-77.206	0.473	0.165
-153.662	367.756	0.098	0.198
-152.647	-84.721	0.213	0.067
-151.633	-200.000	0.054	-0.317
-150.618	-56.220	-0.064	-0.028
-149.604	29.413	-0.080	-0.068
-148.589	-58.553	-0.145	-0.063
-147.574	167.736	0.173	0.246
-146.560	-16.836	-0.422	-0.267
-145.545	69.374	-0.095	-0.098
-144.531	-28.240	0.225	0.130
-143.516	-200.000	0.076	-0.342
-142.502	-40.297	-0.344	-0.179
-141.487	84.080	-0.223	-0.243
-140.472	50.377	0.189	0.178
-139.458	130.991	-0.096	0.123
-138.443	-200.000	-0.013	-0.103
-137.429	-80.876	0.285	0.094
-136.414	-11.191	0.349	-0.230
-135.399	98.677	0.073	0.084
-134.385	169.388	0.124	-0.177
-133.370	750.974	0.037	0.101
-132.356	37.689	0.228	0.202
-131.341	98.963	-0.072	0.083
-130.326	80.578	-0.038	0.041
-129.312	91.938	-0.166	-0.187
-128.297	-101.106	-0.177	-0.043
-127.283	-159.134	-0.185	0.010
-126.268	-122.630	0.352	-0.057
-125.253	358.573	0.125	0.250
-124.239	-200.000	0.020	-0.275
-123.224	786.157	0.042	0.115
-122.210	-176.885	0.269	0.007
-121.195	118.768	-0.096	0.118
-120.180	-163.892	-0.246	-0.011
-119.166	-108.087	0.488	-0.106
-118.151	-12.482	0.207	0.135
-117.137	-127.354	0.221	-0.032
-116.122	-200.000	0.006	0.167
-115.107	800.000	0.045	0.157
-114.093	-131.086	-0.205	-0.027
-113.078	476.745	-0.059	-0.134
-112.064	52.516	-0.089	-0.084
-111.049	332.936	-0.179	-0.346
-110.034	-200.000	0.000	0.065
-109.020	-149.277	-0.163	0.013
-108.005	41.872	-0.148	-0.134
-106.991	432.979	0.100	-0.216
-105.976	-117.518	-0.093	-0.017
-104.962	-200.000	0.067	-0.321
-103.947	-156.247	0.095	-0.006
-102.932	-176.417	0.524	0.014
-101.918	-140.434	-0.085	0.009
-100.903	65.017	-0.042	0.042
-99.889	-41.329	-0.122	-0.063
-98.874	-123.897	-0.185	-0.029
-97.859	-200.000	0.004	0.088
-96.845	-126.558	-0.281	-0.042
-95.830	-110.617	-0.353	0.073
-94.816	-145.112	0.445	-0.040
-93.801	97.658	0.143	0.164
-92.786	-200.000	0.012	-0.128
-91.772	-19.027	-0.198	-0.123
-90.757	415.639	-0.161	0.342
-89.743	-10.351	-0.057	0.038
-88.728	60.540	0.307	0.304
-87.713	-59.478	0.415	-0.178
-86.699	-26.672	0.148	0.087
-85.684	-169.887	-0.264	0.009
-84.670	189.666	0.058	0.086
-83.655	-16.669	0.130	0.082
-82.640	-200.000	0.001	-0.175
-81.626	14.461	-0.103	-0.080
-80.611	563.768	0.051	0.124
-79.597	719.218	-0.090	-0.239
-78.582	-30.299	-0.005	0.003
-77.567	72.364	-0.185	-0.193
-76.553	800.000	0.012	-0.043
-75.538	58.155	0.191	-0.186
-74.524	73.109	-0.227	0.237
-73.509	103.918	0.274	-0.321
-72.494	49.043	0.237	0.222
-71.480	-200.000	0.029	-0.328
-70.465	-111.448	0.138	0.028
-69.451	-6.986	0.091	-0.061
-68.436	60.323	0.039	-0.038
-67.422	-24.861	-0.103	0.061
-66.407	800.000	-0.146	-0.559
-65.392	-142.788	-0.365	-0.035
-64.378	-128.997	0.044	-0.006
-63.363	-34.704	-0.161	-0.088
-62.349	100.902	0.026	0.031
-61.334	51.519	-0.672	-0.637
-60.319	-19.551	0.427	0.264
-59.305	800.000	0.266	-0.819
-58.290	228.977	0.549	0.892
-57.276	350.472	0.937	1.848
-56.261	-200.000	75.565	532.100
-55.246	560.197	1305.613	3143.732
-54.232	146.708	2533.529	3393.598
-53.217	122.787	2217.205	2765.114
-52.203	55.658	1659.537	1602.337
-51.188	46.901	1381.231	1279.626
-50.173	43.091	1334.799	1213.679
-49.159	62.230	1369.373	1361.701
-48.144	69.951	1387.822	1426.710
-47.130	47.229	1350.789	1253.211
-46.115	42.837	1334.859	1212.013
-45.100	42.635	1330.369	1206.673
-44.086	42.541	1327.794	1203.724
-43.071	42.725	1325.074	1202.311
-42.057	42.626	1323.169	1199.948
-41.042	42.650	1320.855	1197.945
-40.027	42.597	1319.874	1196.690
-39.013	42.655	1317.905	1195.203
-37.998	42.784	1315.514	1193.749
-36.984	42.669	1313.961	1191.615
-35.969	42.847	1311.961	1190.807
-34.954	42.905	1310.420	1189.701
-33.940	42.855	1309.493	1188.517
-32.925	42.916	1308.167	1187.631
-31.911	42.862	1306.250	1185.524
-30.896	42.955	1304.724	1184.638
-29.881	42.868	1303.467	1182.940
-28.867	42.909	1301.811	1181.628
-27.852	42.868	1299.774	1179.493
-26.838	42.920	1298.600	1178.687
-25.823	42.925	1297.250	1177.443
-24.809	42.907	1295.873	1176.039
-23.794	42.847	1294.665	1174.548
-22.779	42.973	1292.878	1173.616
-21.765	42.929	1291.926	1172.446
-20.750	42.892	1290.829	1171.192
-19.736	42.863	1288.943	1169.263
-18.721	42.694	1288.365	1167.711
-17.706	42.792	1286.263	1166.326
-16.692	42.701	1285.893	1165.421
-15.677	42.709	1284.760	1164.389
-14.663	42.698	1283.502	1163.145
-13.648	42.647	1282.764	1162.134
-12.633	42.840	1281.570	1162.120
-11.619	42.774	1280.567	1160.784
-10.604	42.709	1279.507	1159.404
-9.590	42.700	1278.593	1158.475
-8.575	42.681	1277.391	1157.229
-7.560	42.670	1276.824	1156.608
-6.546	42.653	1275.591	1155.345
-5.531	42.715	1274.676	1154.829
-4.517	42.638	1274.372	1154.063
-3.502	42.722	1273.141	1153.384
-2.487	42.650	1272.533	1152.378
-1.473	42.776	1267.958	1148.908
-0.458	40.862	1252.330	1123.889
0.556	35.426	1231.432	1074.985
1.571	30.563	1234.018	1049.771
2.586	29.224	1249.075	1054.824
3.600	27.914	1238.614	1038.453
4.615	20.035	1162.267	932.141
5.629	7.487	1079.288	802.434
6.644	1.755	1054.775	755.755
7.659	1.247	1051.870	751.094
8.673	0.993	1050.784	748.997
9.688	1.058	1049.177	748.105
10.702	1.519	1047.908	749.407
11.717	8.672	1058.496	792.426
12.731	19.236	1073.974	856.749
13.746	23.461	1078.926	881.682
14.761	23.816	1079.032	883.454
15.775	23.835	1078.211	882.800
16.790	23.696	1077.130	881.148
17.804	23.554	1076.569	879.905
18.819	23.676	1076.021	879.985
19.834	23.688	1076.062	879.998
20.848	23.681	1075.672	879.571
21.863	23.712	1075.003	879.097
22.877	23.640	1074.451	878.211
23.892	23.552	1073.354	876.802
24.907	23.636	1073.066	876.906
25.921	23.746	1071.408	876.017
26.936	23.687	1070.457	874.868
27.950	23.676	1068.662	873.270
28.965	23.521	1066.963	871.043
29.980	23.410	1065.790	869.463
30.994	23.750	1064.381	869.905
32.009	23.742	1063.570	869.125
33.023	23.557	1062.693	867.430
34.038	23.534	1061.939	866.622
35.053	23.756	1061.253	867.069
36.067	23.773	1060.375	866.359
37.082	23.692	1059.644	865.289
38.096	23.881	1058.994	865.603
39.111	23.930	1058.237	865.146
40.126	23.884	1056.500	863.427
41.140	23.543	1054.971	860.448
42.155	23.242	1053.657	857.839
43.169	23.356	1052.449	857.331
44.184	23.385	1051.683	856.774
45.199	23.255	1050.676	855.250
46.213	23.249	1049.872	854.487
47.228	23.529	1049.167	855.189
48.242	23.538	1048.380	854.517
49.257	23.692	1046.969	854.034
50.271	23.796	1046.863	854.369
51.286	23.728	1046.069	853.320
52.301	23.751	1045.282	852.714
53.315	23.766	1043.845	851.537
54.330	23.763	1043.302	851.005
55.344	23.625	1042.823	849.876
56.359	23.727	1041.586	849.280
57.374	23.493	1040.470	847.178
58.388	23.521	1040.199	847.018
59.403	23.373	1039.246	845.460
60.417	23.340	1038.193	844.373
61.432	23.317	1037.987	844.018
62.447	23.450	1037.233	843.962
63.461	23.405	1036.794	843.320
64.476	23.518	1035.278	842.549
65.490	23.377	1034.144	840.879
66.505	23.476	1033.433	840.697
67.520	23.418	1033.534	840.431
68.534	23.298	1031.834	838.407
69.549	23.035	1030.620	836.102
70.563	22.839	1030.321	834.859
71.578	23.017	1028.782	834.380
72.593	22.805	1028.136	832.779
73.607	23.055	1027.634	833.477
74.622	23.271	1027.197	834.069
75.636	23.222	1026.867	833.496
76.651	23.098	1025.639	831.841
77.666	23.027	1024.940	830.870
78.680	23.217	1024.075	830.984
79.695	23.223	1023.533	830.501
80.709	23.273	1022.649	829.942
81.724	23.323	1021.915	829.507
82.739	23.287	1021.856	829.219
83.753	23.681	1021.041	830.328
84.768	23.932	1020.654	831.112
85.782	24.037	1019.607	830.674
86.797	23.971	1018.544	829.427
87.812	23.775	1017.671	827.733
88.826	23.909	1016.689	827.483
89.841	23.935	1015.683	826.711
90.855	24.104	1014.771	826.681
91.870	23.887	1013.870	824.867
92.884	23.848	1012.793	823.736
93.899	23.653	1011.943	822.072
94.914	23.866	1011.106	822.301
95.928	23.770	1009.836	820.755
96.943	23.471	1008.739	818.412
97.957	23.297	1007.417	816.462
98.972	23.240	1006.053	815.024
99.987	23.386	1005.726	815.356
101.001	23.690	1004.852	815.974
102.016	23.647	1004.123	815.113
103.030	23.530	1003.044	813.629
104.045	23.397	1002.069	812.154
105.060	23.383	1001.005	811.155
106.074	23.454	1000.572	811.062
107.089	23.724	1000.026	811.777
108.103	23.651	999.369	810.842
109.118	23.424	998.115	808.715
110.133	23.474	996.701	807.728
111.147	23.238	995.883	805.916
112.162	23.202	994.635	804.675
113.176	23.426	993.747	804.902
114.191	23.271	993.120	803.617
115.206	22.928	992.152	801.208
116.220	22.922	991.575	800.645
117.235	23.088	990.814	800.714
118.249	23.182	989.537	800.031
119.264	23.019	988.991	798.785
120.279	23.004	988.205	798.012
121.293	23.225	987.505	798.374
122.308	23.224	986.487	797.475
123.322	23.060	985.430	795.811
124.337	22.997	983.842	794.174
125.352	22.497	982.239	790.570
126.366	22.431	981.315	789.458
127.381	23.142	981.268	792.537
128.395	23.608	980.830	794.200
129.410	23.791	979.970	794.252
130.424	23.734	978.956	793.104
131.439	23.637	978.500	792.229
132.454	23.584	977.280	790.938
133.468	23.740	975.987	790.513
134.483	23.700	975.968	790.250
135.497	23.898	975.582	790.750
136.512	23.848	974.522	789.598
137.527	23.924	973.215	788.805
138.541	23.996	972.420	788.414
139.556	24.042	971.901	788.124
140.570	24.128	971.293	787.941
141.585	24.024	970.549	786.810
142.600	24.043	969.141	785.682
143.614	24.257	968.469	786.013
144.629	24.160	968.106	785.218
145.643	24.155	966.753	784.030
146.658	23.992	965.143	781.941
147.673	23.978	964.017	780.896
148.687	23.785	962.870	779.051
149.702	23.806	961.776	778.190
150.716	23.711	961.081	777.146
151.731	23.900	960.069	777.083
152.746	23.990	960.084	777.420
153.760	24.085	959.477	777.274
154.775	24.123	958.467	776.551
155.789	24.034	958.066	775.772
156.804	24.017	956.688	774.512
157.819	24.152	956.075	774.533
158.833	24.149	955.646	774.105
159.848	24.129	954.708	773.191
160.862	24.118	953.385	772.004
161.877	23.990	952.419	770.597
162.892	24.166	951.574	770.608
163.906	23.976	950.493	768.842
164.921	24.010	949.755	768.325
165.935	24.102	948.604	767.723
166.950	24.008	948.032	766.786
167.964	24.037	947.168	766.147
168.979	23.750	945.701	763.658
169.994	23.817	945.099	763.390
171.008	24.050	944.375	763.737
172.023	24.167	943.239	763.254
173.037	23.814	942.486	761.065
174.052	23.767	941.475	759.979
175.067	23.819	940.890	759.664
176.081	23.886	940.506	759.574
177.096	23.882	939.910	759.009
178.110	23.577	938.772	756.722
179.125	23.344	938.001	755.038
180.140	23.437	937.830	755.229
181.154	23.696	937.183	755.747
182.169	23.890	937.567	756.815
183.183	24.278	936.540	757.566
184.198	24.056	935.688	755.867
185.213	23.973	934.942	754.848
186.227	24.103	934.370	754.871
187.242	24.059	933.891	754.228
188.256	24.093	933.371	753.885
189.271	24.167	932.568	753.485
190.286	23.864	931.064	750.924
191.300	23.358	929.764	747.673
192.315	22.371	928.661	742.560
193.329	22.384	927.824	741.877
194.344	23.375	928.527	746.552
195.359	23.891	928.099	748.313
196.373	23.955	928.228	748.620
197.388	23.967	927.071	747.674
198.402	23.968	926.399	747.069
199.417	23.983	925.899	746.660
200.432	23.784	924.834	744.904
201.446	23.439	924.191	742.875
202.461	23.582	923.713	743.021
203.475	22.779	921.852	738.101
204.490	22.077	920.204	733.786
205.504	22.826	920.916	737.420
206.519	23.540	920.755	740.204
207.534	23.594	920.185	739.906
208.548	23.916	920.407	741.362
209.563	23.670	919.337	739.411
210.577	23.791	918.796	739.413
211.592	24.191	918.229	740.553
212.607	24.093	917.521	739.513
213.621	24.209	916.734	739.291
214.636	24.183	916.010	738.535
215.650	24.105	915.228	737.515
216.665	24.215	914.854	737.605
217.680	24.203	913.682	736.547
218.694	23.691	913.120	733.911
219.709	23.561	911.959	732.379
220.723	23.903	911.852	733.638
221.738	23.903	911.653	733.411
222.753	23.898	910.681	732.546
223.767	24.032	909.968	732.457
224.782	24.374	909.665	733.556
225.796	24.369	909.269	733.150
226.811	23.522	907.780	728.411
227.826	22.990	906.513	725.147
228.840	23.096	906.234	725.294
229.855	23.275	905.288	725.205
230.869	22.898	904.081	722.631
231.884	23.300	904.211	724.315
232.899	23.978	904.526	727.276
233.913	23.772	903.596	725.622
234.928	23.848	903.418	725.728
235.942	23.759	902.550	724.603
236.957	23.417	901.584	722.368
237.972	23.515	901.251	722.438
238.986	23.610	900.519	722.173
240.001	23.558	899.977	721.464
241.015	23.717	899.334	721.532
242.030	23.893	898.707	721.677
243.045	23.967	898.350	721.627
244.059	24.107	898.131	721.957
245.074	23.911	897.047	720.227
246.088	23.621	895.869	718.044
247.103	23.877	895.816	718.973
248.117	24.433	895.200	720.660
249.132	24.713	894.844	721.442
250.147	24.713	894.342	720.972
251.161	24.884	894.257	721.531
252.176	24.860	893.696	720.918
253.190	24.880	893.322	720.632
254.205	25.234	892.620	721.424
255.220	25.008	892.188	720.102
256.234	24.730	891.315	718.217
257.249	24.796	890.587	717.833
258.263	24.813	889.885	717.273
259.278	24.915	888.985	716.891
260.293	24.863	888.979	716.617
261.307	24.785	888.124	715.553
262.322	24.675	887.181	714.287
263.336	23.885	885.699	709.879
264.351	22.822	883.472	703.798
265.366	22.978	882.908	703.905
266.380	24.026	883.864	708.780
267.395	24.628	883.120	710.516
268.409	24.345	882.974	709.211
269.424	24.724	881.988	709.862
270.439	24.679	881.576	709.290
271.453	24.750	880.921	708.980
272.468	24.831	880.914	709.232
273.482	24.914	880.376	709.068
274.497	24.515	879.318	706.571
275.512	24.171	878.245	704.289
276.526	24.451	878.188	705.287
277.541	24.658	877.865	705.781
278.555	24.432	877.068	704.189
279.570	24.339	876.144	703.016
280.585	24.529	875.793	703.421
281.599	24.611	874.685	702.792
282.614	23.943	873.397	699.071
283.628	24.001	872.828	698.783
284.643	24.227	872.802	699.586
285.657	24.063	871.493	697.833
286.672	23.646	870.878	695.644
287.687	24.241	870.960	697.978
288.701	24.256	870.217	697.382
289.716	23.958	869.211	695.349
290.730	23.948	868.787	694.906
291.745	23.689	867.878	693.109
292.760	23.931	867.841	693.962
293.774	24.955	868.083	698.088
294.789	25.200	867.715	698.686
295.803	25.269	867.069	698.371
296.818	25.202	867.110	698.083
297.833	24.839	865.826	695.575
298.847	24.603	864.995	693.932
299.862	24.832	864.956	694.727
300.876	25.164	864.371	695.485
301.891	25.176	863.764	694.980
302.906	24.815	862.719	692.678
303.920	24.666	862.535	691.896
304.935	25.136	862.185	693.368
305.949	25.147	861.186	692.549
306.964	24.831	860.698	690.874
307.979	24.980	860.314	691.079
308.993	25.284	860.397	692.260
310.008	25.261	859.550	691.428
311.022	24.956	858.773	689.566
312.037	25.021	857.905	689.060
313.052	24.639	857.102	686.883
314.066	23.698	855.842	682.202
315.081	23.439	854.974	680.454
316.095	24.424	855.086	684.263
317.110	24.914	854.910	685.939
318.125	24.044	853.463	681.390
319.139	23.181	851.572	676.519
320.154	22.988	851.682	675.809
321.168	23.717	852.081	678.854
322.183	24.485	852.131	681.769
323.197	24.697	851.723	682.192
324.212	24.808	851.401	682.297
325.227	24.972	850.877	682.440
326.241	24.889	850.087	681.432
327.256	24.756	849.374	680.293
328.270	24.652	848.623	679.236
329.285	24.568	847.718	678.135
330.300	24.332	847.088	676.674
331.314	24.514	847.075	677.295
332.329	24.960	846.789	678.697
333.343	25.007	846.505	678.584
334.358	25.106	846.045	678.530
335.373	25.256	845.187	678.349
336.387	25.391	845.669	679.189
337.402	25.417	845.462	679.061
338.416	25.447	844.944	678.697
339.431	25.502	844.639	678.600
340.446	25.706	844.208	678.962
341.460	25.377	843.717	677.268
342.475	25.347	843.431	676.866
343.489	25.474	842.962	676.906
344.504	25.705	842.677	677.489
345.519	25.920	841.987	677.681
346.533	26.060	841.560	677.806
347.548	25.823	841.507	676.811
348.562	25.872	840.683	676.271
349.577	25.715	840.278	675.296
350.592	25.996	839.039	675.297
351.606	25.826	838.371	674.062
352.621	25.797	837.738	673.386
353.635	25.567	837.322	672.131
354.650	25.046	835.414	668.598
355.665	24.056	834.268	663.931
356.679	24.385	833.852	664.765
357.694	24.818	833.493	666.035
358.708	24.839	833.110	665.748
359.723	25.011	832.923	666.180
360.738	25.582	832.523	667.920
361.752	25.632	831.987	667.617
362.767	25.980	831.682	668.602
363.781	26.196	831.112	668.887
364.796	26.336	831.027	669.278
365.810	26.331	830.548	668.814
366.825	26.171	830.328	667.986
367.840	25.908	829.242	666.082
368.854	25.661	828.291	664.345
369.869	25.532	828.170	663.716
370.883	25.649	827.622	663.648
371.898	25.627	827.059	663.057
372.913	25.713	826.761	663.074
373.927	25.770	826.425	662.956
374.942	25.914	825.928	663.031
375.956	25.915	825.769	662.848
376.971	26.005	825.288	662.732
377.986	26.311	824.860	663.454
379.000	26.291	824.234	662.819
380.015	26.059	823.630	661.426
381.029	25.965	823.301	660.755
382.044	26.225	822.863	661.300
383.059	26.076	822.118	660.099
384.073	26.270	821.623	660.351
385.088	26.099	820.911	659.096
386.102	25.990	820.220	658.085
387.117	25.924	819.596	657.284
388.132	25.458	818.930	654.992
389.146	25.140	817.622	652.732
390.161	25.380	817.487	653.440
391.175	25.936	817.378	655.318
392.190	25.662	816.345	653.437
393.205	24.229	814.498	646.703
394.219	22.743	812.730	639.860
395.234	22.586	812.251	638.857
396.248	24.098	813.772	645.480
397.263	25.642	814.755	651.802
398.278	25.725	814.030	651.466
399.292	25.603	813.318	650.398
400.307	25.434	812.983	649.460
401.321	25.662	812.257	649.645
402.336	25.917	812.513	650.714
403.350	26.328	812.728	652.312
404.365	26.632	812.183	652.913
405.380	26.890	811.806	653.483
406.394	27.030	811.233	653.466
407.409	26.838	811.084	652.599
408.423	26.878	809.856	651.696
409.438	26.879	809.896	651.675
410.453	26.884	809.631	651.423
411.467	26.840	809.203	650.862
412.482	26.940	808.561	650.647
413.496	26.918	808.429	650.403
414.511	26.992	807.773	650.081
415.526	26.973	807.474	649.715
416.540	26.706	807.074	648.384
417.555	26.585	805.898	646.949
418.569	26.542	806.058	646.866
419.584	26.603	805.373	646.476
420.599	26.339	804.839	645.049
421.613	90.491	1253.426	1345.514
422.628	77.473	1318.797	1345.631
